200.151048	49755.666667
201.758777	49723.333333
203.365815	49264.333333
204.972162	49316.000000
206.577820	48835.666667
208.182787	48817.000000
209.787065	48723.333333
211.390653	48346.333333
212.993553	48149.333333
214.595765	48015.666667
216.197289	47889.666667
217.798125	47768.333333
219.398274	47230.666667
220.997737	47277.666667
222.596513	47115.666667
224.194603	46949.666667
225.792008	46875.000000
227.388728	46851.666667
228.984763	46601.666667
230.580114	46494.666667
232.174781	46180.333333
233.768765	46213.666667
235.362065	45994.666667
236.954683	45834.666667
238.546619	45536.666667
240.137872	45357.666667
241.728445	45238.333333
243.318336	45155.000000
244.907546	44893.333333
246.496076	44689.333333
248.083926	44551.333333
249.671097	44291.666667
251.257589	44046.666667
252.843402	43748.000000
254.428536	43624.000000
256.012993	43518.000000
257.596772	43385.666667
259.179874	43089.333333
260.762300	43005.333333
262.344049	42878.000000
263.925122	42714.666667
265.505519	42639.666667
267.085241	42784.333333
268.664289	42437.000000
270.242662	42289.333333
271.820361	42009.000000
273.397387	42175.333333
274.973740	42059.000000
276.549419	42201.000000
278.124426	42019.000000
279.698762	41993.666667
281.272425	41919.333333
282.845417	41927.000000
284.417739	41830.666667
285.989390	41592.000000
287.560371	41699.333333
289.130682	41695.333333
290.700324	41548.000000
292.269297	41466.666667
293.837602	41300.333333
295.405238	41323.333333
296.972207	41182.666667
298.538508	41090.333333
300.104142	40631.333333
301.669110	40825.666667
303.233411	40599.333333
304.797047	40495.666667
306.360017	40381.000000
307.922322	40244.000000
309.483963	40009.000000
311.044939	39840.666667
312.605252	39685.333333
314.164900	39692.000000
315.723886	39372.000000
317.282209	39338.666667
318.839870	39288.000000
320.396868	39032.000000
321.953205	39001.666667
323.508881	38954.333333
325.063896	38731.000000
326.618251	38760.000000
328.171945	38483.333333
329.724980	38614.333333
331.277356	38464.666667
332.829072	38344.000000
334.380131	38335.000000
335.930530	38315.333333
337.480273	38216.666667
339.029357	38047.000000
340.577785	38089.666667
342.125556	38006.000000
343.672671	37938.000000
345.219130	38219.000000
346.764933	37807.000000
348.310081	37826.333333
349.854575	37728.333333
351.398414	37771.333333
352.941599	37553.000000
354.484130	37640.333333
356.026008	37252.333333
357.567234	37564.333333
359.107807	37207.666667
360.647727	37245.000000
362.186996	37093.333333
363.725614	37006.333333
365.263580	37011.666667
366.800896	36838.666667
368.337562	36791.000000
369.873578	36626.000000
371.408944	36616.333333
372.943661	36503.666667
374.477730	36353.000000
376.011150	36644.666667
377.543922	36379.666667
379.076046	36298.000000
380.607523	36208.333333
382.138353	36230.000000
383.668537	36233.666667
385.198075	36369.333333
386.726966	36162.333333
388.255213	36209.333333
389.782814	36188.666667
391.309770	36071.333333
392.836083	35978.666667
394.361751	35922.000000
395.886776	36074.666667
397.411157	36102.000000
398.934896	35980.333333
400.457992	35973.666667
401.980446	35857.000000
403.502258	35982.333333
405.023429	35998.666667
406.543959	35948.000000
408.063849	35984.333333
409.583098	35782.000000
411.101707	36008.000000
412.619677	36032.333333
414.137007	36026.666667
415.653699	36124.000000
417.169752	36220.666667
418.685167	36298.666667
420.199945	36533.333333
421.714085	36648.666667
423.227588	36519.000000
424.740454	36711.000000
426.252684	36905.333333
427.764279	36869.666667
429.275238	36729.000000
430.785561	36774.000000
432.295250	36485.000000
433.804304	36379.333333
435.312725	36250.333333
436.820511	36026.666667
438.327664	35783.000000
439.834185	35436.666667
441.340072	35416.333333
442.845327	35263.333333
444.349951	35186.333333
445.853942	35056.000000
447.357303	34982.333333
448.860033	34818.666667
450.362132	34794.000000
451.863601	34589.333333
453.364440	34493.000000
454.864650	34159.000000
456.364231	34137.666667
457.863183	33919.000000
459.361507	33713.666667
460.859203	33676.000000
462.356271	33520.333333
463.852712	33364.333333
465.348526	33042.666667
466.843714	33037.000000
468.338275	33044.333333
469.832210	32918.000000
471.325520	32789.000000
472.818205	32710.000000
474.310265	32699.000000
475.801700	32516.000000
477.292512	32490.666667
478.782700	32577.000000
480.272264	32453.000000
481.761205	32447.000000
483.249524	32283.666667
484.737221	32199.333333
486.224295	32089.333333
487.710748	32054.666667
489.196579	31861.333333
490.681790	31879.000000
492.166380	31780.666667
493.650350	31638.333333
495.133700	31769.333333
496.616431	31759.666667
498.098542	31642.666667
499.580035	31539.000000
501.060909	31516.333333
502.541165	31652.333333
504.020804	31626.666667
505.499825	31422.666667
506.978228	31483.666667
508.456016	31342.000000
509.933186	31213.000000
511.409741	31004.666667
512.885680	31067.333333
514.361004	31115.000000
515.835713	31033.666667
517.309807	30974.000000
518.783287	31192.666667
520.256153	30932.333333
521.728406	31026.000000
523.200045	31025.000000
524.671071	30810.666667
526.141485	30877.000000
527.611287	30784.000000
529.080476	30645.000000
530.549054	30682.666667
532.017021	30706.666667
533.484378	30669.333333
534.951123	30642.666667
536.417259	30405.666667
537.882785	30491.333333
539.347701	30465.333333
540.812008	30359.666667
542.275707	30358.333333
543.738797	30215.666667
545.201279	30400.333333
546.663153	30514.333333
548.124420	30382.666667
549.585080	30483.000000
551.045133	30533.333333
552.504579	30531.666667
553.963420	30501.666667
555.421655	30409.666667
556.879285	30440.000000
558.336309	30408.000000
559.792729	30454.666667
561.248545	30432.666667
562.703756	30405.333333
564.158364	30545.000000
565.612369	30497.333333
567.065770	30643.000000
568.518569	30658.333333
569.970766	30567.333333
571.422361	30553.666667
572.873354	30717.000000
574.323745	30720.333333
575.773536	30827.666667
577.222726	31060.666667
578.671316	30895.000000
580.119306	30872.333333
581.566696	30744.666667
583.013487	30697.000000
584.459679	30395.333333
585.905273	30531.000000
587.350268	30237.666667
588.794665	30511.666667
590.238465	30042.000000
591.681667	30156.000000
593.124272	30072.666667
594.566281	29928.000000
596.007694	29808.666667
597.448510	29750.000000
598.888731	29619.666667
600.328357	29623.000000
601.767388	29430.666667
603.205824	29384.666667
604.643666	29307.333333
606.080914	29185.000000
607.517568	29130.333333
608.953629	29000.333333
610.389097	29031.666667
611.823972	28987.000000
613.258255	28879.666667
614.691946	28980.000000
616.125046	28853.000000
617.557554	28450.000000
618.989471	28504.333333
620.420798	28537.000000
621.851534	28306.000000
623.281680	28081.333333
624.711237	28160.666667
626.140204	27856.333333
627.568582	27691.000000
628.996372	27636.666667
630.423573	27514.000000
631.850186	27488.000000
633.276211	27503.666667
634.701650	27320.666667
636.126501	27381.333333
637.550765	27376.666667
638.974443	27238.666667
640.397535	27314.333333
641.820041	27267.666667
643.241961	27305.666667
644.663297	27253.333333
646.084048	27174.333333
647.504214	27024.000000
648.923796	26979.000000
650.342795	26924.666667
651.761210	26781.333333
653.179041	26750.000000
654.596290	26710.000000
656.012957	26757.000000
657.429041	26757.333333
658.844543	26745.666667
660.259464	26599.333333
661.673804	26652.333333
663.087563	26587.666667
664.500741	26582.666667
665.913339	26566.333333
667.325357	26506.666667
668.736795	26484.333333
670.147654	26374.666667
671.557934	26362.333333
672.967636	26283.333333
674.376759	26345.000000
675.785304	26042.000000
677.193271	26130.000000
678.600661	26148.333333
680.007474	26202.333333
681.413711	25934.000000
682.819370	25966.666667
684.224454	26024.333333
685.628962	25883.000000
687.032895	25833.000000
688.436252	25832.333333
689.839034	25938.000000
691.241242	25716.333333
692.642876	25666.000000
694.043936	25786.333333
695.444422	25496.333333
696.844336	25564.666667
698.243676	25357.666667
699.642443	25358.666667
701.040639	25466.333333
702.438262	25483.666667
703.835313	25502.666667
705.231794	25289.000000
706.627703	25443.000000
708.023041	25251.000000
709.417810	25280.000000
710.812008	25144.000000
712.205636	25176.000000
713.598694	25127.666667
714.991184	25095.000000
716.383105	24935.333333
717.774457	25173.666667
719.165241	24970.333333
720.555457	24847.666667
721.945105	24844.333333
723.334187	24921.000000
724.722701	24931.666667
726.110648	24727.333333
727.498030	24854.333333
728.884845	24760.000000
730.271094	24732.000000
731.656778	24686.666667
733.041897	24781.000000
734.426451	24549.333333
735.810441	24528.333333
737.193866	24549.333333
738.576728	24580.333333
739.959026	24401.666667
741.340760	24358.666667
742.721932	24391.333333
744.102541	24270.333333
745.482588	24341.000000
746.862073	24131.333333
748.240996	24264.666667
749.619358	24397.000000
750.997158	24233.666667
752.374398	24294.333333
753.751077	24140.000000
755.127197	24182.666667
756.502756	24141.000000
757.877756	24139.666667
759.252196	24133.333333
760.626078	23965.000000
761.999400	23935.333333
763.372165	23931.666667
764.744371	23937.000000
766.116020	23735.000000
767.487111	23718.333333
768.857646	23568.333333
770.227623	23626.666667
771.597044	23646.666667
772.965908	23461.000000
774.334217	23643.333333
775.701970	23513.000000
777.069168	23448.000000
778.435811	23400.333333
779.801899	23292.000000
781.167433	24543.666667
782.532412	23982.333333
783.896838	23262.000000
785.260710	23167.000000
786.624029	23181.000000
787.986796	23036.333333
789.349009	22861.666667
790.710671	23106.000000
792.071780	23090.666667
793.432338	22837.000000
794.792344	22964.000000
796.151799	22980.666667
797.510704	22763.000000
798.869058	22790.333333
800.226862	22792.666667
801.584116	22828.666667
802.940820	22752.333333
804.296975	22677.333333
805.652581	22680.000000
807.007638	22704.333333
808.362147	22687.333333
809.716108	22631.333333
811.069521	22590.333333
812.422387	22777.000000
813.774705	22557.333333
815.126476	22513.333333
816.477701	22503.000000
817.828380	22480.666667
819.178512	22402.333333
820.528099	22439.333333
821.877140	22272.000000
823.225637	22264.000000
824.573588	22370.000000
825.920995	22239.666667
827.267857	22141.666667
828.614176	22256.333333
829.959951	22060.000000
831.305183	22056.000000
832.649871	22141.666667
833.994017	21940.333333
835.337620	22048.333333
836.680681	21992.333333
838.023201	21942.666667
839.365178	21968.000000
840.706614	21871.333333
842.047510	21917.666667
843.387864	21984.333333
844.727678	21875.333333
846.066952	22039.666667
847.405687	21996.666667
848.743881	22131.666667
850.081537	22030.333333
851.418653	21972.333333
852.755231	21979.000000
854.091270	22055.000000
855.426771	22003.333333
856.761735	21949.333333
858.096160	21932.666667
859.430049	21844.333333
860.763401	21783.333333
862.096216	21770.666667
863.428495	21682.000000
864.760237	21528.666667
866.091444	21551.666667
867.422115	21447.333333
868.752252	21581.333333
870.081853	21496.000000
871.410919	21347.666667
872.739452	21346.000000
874.067450	21305.333333
875.394914	21252.666667
876.721845	21288.000000
878.048243	21155.000000
879.374108	21189.666667
880.699440	21011.333333
882.024240	20948.000000
883.348508	21026.666667
884.672244	20912.000000
885.995449	20988.333333
887.318122	20888.666667
888.640265	20884.666667
889.961877	20724.000000
891.282959	20817.000000
892.603510	20533.666667
893.923532	20529.000000
895.243024	20584.333333
896.561987	20537.000000
897.880422	20466.000000
899.198327	20573.666667
900.515705	20385.666667
901.832554	20272.666667
903.148875	20209.333333
904.464669	20252.333333
905.779936	20287.000000
907.094676	20452.666667
908.408889	20224.666667
909.722576	20289.333333
911.035737	20383.333333
912.348371	20222.666667
913.660481	20366.333333
914.972065	20450.666667
916.283124	20543.000000
917.593659	20472.666667
918.903669	20535.333333
920.213155	20461.666667
921.522117	20495.666667
922.830556	20486.666667
924.138471	20384.666667
925.445864	20474.333333
926.752733	20307.000000
928.059081	20354.666667
929.364906	20404.000000
930.670209	20263.666667
931.974991	20377.333333
933.279251	20490.333333
934.582990	20504.333333
935.886209	20830.333333
937.188907	20759.000000
938.491085	20958.000000
939.792743	21144.666667
941.093881	21339.666667
942.394500	21589.666667
943.694600	21798.000000
944.994181	22126.000000
946.293243	22412.333333
947.591787	22925.333333
948.889813	23514.666667
950.187322	24105.000000
951.484313	24851.000000
952.780787	25700.666667
954.076744	26485.333333
955.372184	27360.000000
956.667108	27930.333333
957.961516	28266.666667
959.255409	28169.000000
960.548785	27898.333333
961.841647	27261.000000
963.133993	26247.666667
964.425825	25341.666667
965.717142	24345.000000
967.007946	23257.000000
968.298235	22356.666667
969.588011	21566.000000
970.877273	20955.333333
972.166023	20374.666667
973.454259	19919.000000
974.741984	19796.666667
976.029196	19373.333333
977.315895	19158.333333
978.602084	19055.333333
979.887761	18876.000000
981.172926	18764.666667
982.457581	18595.666667
983.741725	18614.000000
985.025359	18560.000000
986.308483	18475.000000
987.591097	18455.666667
988.873202	18476.333333
990.154797	18206.666667
991.435883	18198.666667
992.716461	18240.333333
993.996530	18332.333333
995.276091	18318.000000
996.555144	18328.333333
997.833690	18224.666667
999.111728	18233.000000
1000.389259	18467.333333
1001.666283	18466.666667
1002.942800	18433.000000
1004.218812	18312.000000
1005.494317	18283.000000
1006.769317	18318.666667
1008.043811	18225.000000
1009.317799	18124.333333
1010.591283	18136.000000
1011.864263	18186.333333
1013.136737	18163.666667
1014.408708	18013.666667
1015.680175	18230.333333
1016.951138	18113.666667
1018.221598	18073.666667
1019.491554	18193.666667
1020.761008	18102.333333
1022.029959	18153.333333
1023.298408	18048.000000
1024.566355	17944.666667
1025.833800	17929.666667
1027.100744	18101.333333
1028.367187	18014.333333
1029.633128	17999.000000
1030.898569	17991.000000
1032.163509	17917.333333
1033.427949	18023.333333
1034.691890	18015.000000
1035.955330	17960.333333
1037.218271	17971.000000
1038.480714	18148.333333
1039.742657	17966.000000
1041.004101	18021.000000
1042.265048	18076.000000
1043.525496	18008.666667
1044.785446	17965.666667
1046.044899	18084.000000
1047.303855	17994.666667
1048.562313	17909.000000
1049.820275	17932.333333
1051.077740	17781.000000
1052.334709	17667.000000
1053.591182	17823.000000
1054.847160	17723.000000
1056.102641	17707.666667
1057.357628	17679.000000
1058.612120	17850.666667
1059.866117	17626.333333
1061.119619	17799.333333
1062.372628	17807.000000
1063.625142	18013.666667
1064.877163	17966.666667
1066.128691	17889.000000
1067.379725	17907.333333
1068.630267	17877.333333
1069.880316	17912.000000
1071.129872	17760.000000
1072.378937	17805.000000
1073.627509	17646.000000
1074.875590	17552.000000
1076.123180	17367.666667
1077.370279	17269.333333
1078.616887	17223.666667
1079.863004	17128.666667
1081.108631	17045.666667
1082.353768	16801.333333
1083.598415	16750.666667
1084.842573	16729.333333
1086.086241	16730.000000
1087.329421	16526.666667
1088.572111	16560.000000
1089.814314	16414.333333
1091.056028	16272.666667
1092.297253	16323.333333
1093.537992	16220.666667
1094.778242	16091.666667
1096.018006	16159.333333
1097.257282	16108.666667
1098.496072	16082.666667
1099.734376	16065.666667
1100.972193	16128.000000
1102.209524	16076.666667
1103.446370	15994.333333
1104.682730	15923.666667
1105.918604	16026.000000
1107.153994	15819.666667
1108.388900	15819.666667
1109.623320	15806.000000
1110.857257	15703.333333
1112.090710	15672.000000
1113.323679	15619.666667
1114.556164	15635.666667
1115.788167	15466.000000
1117.019686	15496.333333
1118.250723	15414.666667
1119.481278	15427.333333
1120.711350	15285.000000
1121.940940	15220.666667
1123.170049	15140.666667
1124.398676	15376.666667
1125.626823	15329.666667
1126.854488	15222.666667
1128.081672	15283.000000
1129.308376	15060.333333
1130.534600	15161.000000
1131.760345	15091.666667
1132.985609	15080.333333
1134.210394	15074.000000
1135.434700	15131.666667
1136.658527	15063.333333
1137.881875	15092.666667
1139.104745	14987.333333
1140.327136	15052.666667
1141.549050	15003.333333
1142.770486	15053.000000
1143.991445	15056.666667
1145.211926	15084.666667
1146.431931	14828.333333
1147.651459	14947.333333
1148.870510	14896.666667
1150.089086	14819.000000
1151.307185	14920.000000
1152.524808	14854.333333
1153.741957	14909.000000
1154.958630	14918.000000
1156.174828	14859.333333
1157.390551	14867.666667
1158.605800	14814.666667
1159.820574	14771.000000
1161.034875	14715.333333
1162.248702	14792.666667
1163.462055	14644.333333
1164.674936	14637.666667
1165.887343	14689.000000
1167.099277	14652.333333
1168.310739	14669.333333
1169.521729	14612.333333
1170.732247	14634.333333
1171.942293	14663.000000
1173.151867	14527.333333
1174.360970	14596.666667
1175.569602	14456.000000
1176.777764	14506.000000
1177.985454	14287.000000
1179.192675	14351.333333
1180.399425	14413.666667
1181.605706	14361.333333
1182.811517	14331.666667
1184.016859	14253.000000
1185.221731	14135.000000
1186.426135	14306.000000
1187.630070	14242.666667
1188.833537	14138.666667
1190.036535	14054.000000
1191.239066	14119.333333
1192.441129	13971.666667
1193.642725	14046.333333
1194.843853	13952.333333
1196.044515	14020.000000
1197.244710	13932.333333
1198.444438	13953.333333
1199.643701	13874.333333
1200.842497	13983.000000
1202.040827	14011.666667
1203.238693	13905.333333
1204.436092	13888.000000
1205.633027	13866.333333
1206.829497	13880.000000
1208.025503	13819.000000
1209.221044	13777.000000
1210.416122	13811.000000
1211.610735	13731.000000
1212.804885	13692.333333
1213.998572	13689.666667
1215.191795	13690.666667
1216.384556	13611.000000
1217.576854	13564.000000
1218.768689	13526.333333
1219.960063	13560.333333
1221.150974	13555.666667
1222.341424	13480.666667
1223.531413	13581.333333
1224.720940	13536.666667
1225.910006	13481.333333
1227.098612	13566.666667
1228.286757	13548.666667
1229.474442	13597.000000
1230.661667	13588.000000
1231.848432	13692.666667
1233.034738	13601.000000
1234.220584	13816.000000
1235.405971	13718.333333
1236.590900	13772.666667
1237.775369	13846.000000
1238.959381	13899.000000
1240.142934	13801.000000
1241.326029	13752.333333
1242.508667	13936.333333
1243.690848	13768.000000
1244.872571	13854.333333
1246.053837	13754.333333
1247.234646	13657.666667
1248.414999	13700.000000
1249.594896	13590.666667
1250.774337	13680.666667
1251.953322	13606.666667
1253.131851	13585.000000
1254.309925	13412.333333
1255.487544	13450.666667
1256.664708	13481.000000
1257.841417	13457.666667
1259.017673	13415.333333
1260.193473	13347.666667
1261.368820	13391.000000
1262.543714	13420.000000
1263.718154	13538.333333
1264.892140	13514.000000
1266.065674	13553.333333
1267.238755	13510.333333
1268.411383	13452.666667
1269.583559	13486.000000
1270.755283	13413.333333
1271.926555	13404.333333
1273.097375	13375.666667
1274.267744	13413.000000
1275.437662	13343.000000
1276.607129	13293.000000
1277.776145	13271.333333
1278.944711	13271.333333
1280.112827	13245.333333
1281.280492	13177.666667
1282.447708	13195.333333
1283.614474	13111.333333
1284.780791	13056.000000
1285.946659	13025.333333
1287.112078	13029.333333
1288.277048	12946.666667
1289.441570	12738.000000
1290.605644	12871.333333
1291.769270	12733.333333
1292.932448	12825.333333
1294.095178	12651.666667
1295.257461	12587.666667
1296.419298	12590.333333
1297.580687	12562.333333
1298.741630	12521.333333
1299.902126	12531.333333
1301.062177	12457.000000
1302.221781	12541.666667
1303.380940	12490.666667
1304.539653	12489.000000
1305.697921	12478.000000
1306.855744	12383.000000
1308.013123	12416.000000
1309.170056	12413.000000
1310.326546	12425.666667
1311.482591	12434.333333
1312.638193	12371.000000
1313.793350	12410.333333
1314.948065	12420.000000
1316.102336	12283.666667
1317.256164	12319.000000
1318.409550	12353.666667
1319.562493	12249.333333
1320.714993	12307.666667
1321.867052	12244.333333
1323.018668	12148.666667
1324.169843	12127.000000
1325.320577	12104.666667
1326.470870	12102.333333
1327.620721	12054.666667
1328.770132	12073.333333
1329.919102	11921.666667
1331.067632	11977.333333
1332.215722	11948.333333
1333.363372	11840.666667
1334.510582	11886.000000
1335.657353	11848.333333
1336.803685	11895.000000
1337.949578	12054.000000
1339.095032	11902.666667
1340.240048	11929.333333
1341.384625	11889.333333
1342.528764	11913.333333
1343.672466	11824.333333
1344.815729	11839.333333
1345.958556	11837.666667
1347.100945	11844.000000
1348.242897	11715.333333
1349.384413	11763.000000
1350.525492	11766.666667
1351.666134	11746.000000
1352.806341	11723.333333
1353.946111	11681.333333
1355.085446	11578.000000
1356.224346	11567.000000
1357.362810	11535.000000
1358.500840	11478.666667
1359.638434	11440.666667
1360.775594	11442.000000
1361.912320	11373.000000
1363.048612	11397.333333
1364.184469	11385.666667
1365.319893	11419.333333
1366.454884	11388.333333
1367.589441	11374.333333
1368.723566	11362.666667
1369.857257	11345.666667
1370.990516	11327.333333
1372.123343	11393.666667
1373.255737	11393.666667
1374.387699	11397.000000
1375.519230	11440.333333
1376.650329	11323.666667
1377.780997	11344.000000
1378.911234	11392.333333
1380.041040	11344.333333
1381.170416	11262.666667
1382.299361	11378.000000
1383.427875	11320.000000
1384.555960	11228.000000
1385.683615	11424.666667
1386.810841	11198.666667
1387.937637	11275.333333
1389.064004	11285.000000
1390.189942	11292.000000
1391.315451	11160.000000
1392.440532	11082.333333
1393.565185	11141.666667
1394.689409	11062.000000
1395.813206	11071.666667
1396.936575	11025.333333
1398.059517	11062.666667
1399.182032	11032.666667
1400.304119	11114.000000
1401.425780	11017.000000
1402.547014	11015.333333
1403.667822	11012.000000
1404.788204	10996.666667
1405.908160	11101.666667
1407.027690	11003.000000
1408.146795	10932.666667
1409.265474	10979.333333
1410.383728	11039.666667
1411.501558	10988.333333
1412.618963	10995.000000
1413.735943	10944.333333
1414.852499	10956.333333
1415.968632	10997.000000
1417.084340	11006.000000
1418.199625	11016.333333
1419.314486	11008.333333
1420.428925	11038.000000
1421.542940	10920.333333
1422.656533	10977.666667
1423.769703	10889.000000
1424.882451	11020.000000
1425.994777	10929.000000
1427.106680	10864.000000
1428.218163	10780.666667
1429.329223	10843.333333
1430.439863	10809.333333
1431.550081	10721.333333
1432.659879	10698.666667
1433.769256	10730.333333
1434.878212	10728.333333
1435.986749	10754.666667
1437.094865	10669.333333
1438.202562	10733.666667
1439.309839	10791.000000
1440.416696	10744.666667
1441.523135	10749.333333
1442.629154	10771.000000
1443.734755	10875.666667
1444.839937	10895.666667
1445.944701	10834.666667
1447.049047	10910.000000
1448.152975	10859.333333
1449.256485	10815.666667
1450.359577	10932.333333
1451.462253	10849.666667
1452.564511	10814.666667
1453.666352	10858.666667
1454.767777	10851.333333
1455.868785	10784.333333
1456.969377	10750.000000
1458.069553	10646.333333
1459.169313	10655.333333
1460.268658	10527.666667
1461.367587	10680.000000
1462.466101	10542.000000
1463.564200	10449.000000
1464.661884	10371.000000
1465.759153	10401.000000
1466.856008	10398.666667
1467.952449	10282.333333
1469.048476	10175.333333
1470.144089	10158.000000
1471.239288	10043.333333
1472.334074	10075.333333
1473.428447	9971.666667
1474.522407	9918.666667
1475.615955	9821.666667
1476.709089	9840.000000
1477.801812	9729.000000
1478.894122	9786.000000
1479.986020	9678.666667
1481.077506	9650.000000
1482.168581	9666.000000
1483.259245	9674.000000
1484.349498	9617.000000
1485.439339	9622.333333
1486.528770	9538.666667
1487.617790	9607.666667
1488.706400	9561.333333
1489.794600	9598.000000
1490.882390	9546.000000
1491.969771	9566.666667
1493.056742	9492.666667
1494.143303	9470.333333
1495.229456	9420.666667
1496.315199	9352.000000
1497.400534	9330.000000
1498.485460	9382.333333
1499.569978	9220.000000
1500.654088	9273.000000
1501.737790	9328.333333
1502.821085	9228.666667
1503.903972	9219.333333
1504.986451	9204.000000
1506.068524	9204.000000
1507.150189	9123.000000
1508.231448	9100.333333
1509.312301	9105.000000
1510.392747	9123.666667
1511.472787	9068.000000
1512.552422	9035.333333
1513.631650	8999.000000
1514.710473	8991.000000
1515.788891	8892.333333
1516.866904	9012.333333
1517.944512	8973.000000
1519.021715	8978.000000
1520.098513	9052.666667
1521.174908	8972.666667
1522.250898	8992.666667
1523.326485	8983.333333
1524.401667	9018.666667
1525.476447	8878.333333
1526.550823	9036.000000
1527.624796	8981.000000
1528.698365	9011.333333
1529.771533	9062.333333
1530.844298	9021.000000
1531.916660	8951.666667
1532.988620	8888.333333
1534.060179	8962.666667
1535.131336	8940.333333
1536.202091	8880.666667
1537.272445	8880.000000
1538.342398	8857.333333
1539.411950	8764.000000
1540.481101	8784.333333
1541.549851	8792.000000
1542.618202	8820.000000
1543.686152	8718.000000
1544.753702	8732.333333
1545.820853	8652.000000
1546.887604	8661.666667
1547.953955	8673.000000
1549.019908	8655.666667
1550.085461	8642.666667
1551.150616	8611.666667
1552.215372	8548.333333
1553.279730	8569.000000
1554.343690	8555.000000
1555.407252	8539.333333
1556.470415	8507.333333
1557.533182	8481.000000
1558.595551	8518.666667
1559.657522	8429.666667
1560.719097	8455.666667
1561.780275	8502.333333
1562.841056	8396.333333
1563.901441	8455.333333
1564.961429	8408.333333
1566.021022	8425.000000
1567.080219	8367.000000
1568.139020	8327.000000
1569.197425	8275.000000
1570.255436	8347.666667
1571.313051	8303.666667
1572.370271	8346.333333
1573.427097	8236.333333
1574.483528	8245.666667
1575.539565	8243.666667
1576.595208	8279.000000
1577.650457	8244.000000
1578.705312	8076.333333
1579.759774	8255.666667
1580.813842	8199.666667
1581.867517	8036.000000
1582.920799	8051.000000
1583.973689	8025.000000
1585.026186	8062.666667
1586.078290	8031.333333
1587.130002	8002.666667
1588.181323	8054.333333
1589.232251	8025.000000
1590.282788	7955.666667
1591.332933	7962.333333
1592.382688	7937.333333
1593.432051	7918.000000
1594.481023	7910.666667
1595.529605	8001.666667
1596.577796	7906.333333
1597.625597	7960.000000
1598.673007	7993.666667
1599.720028	7989.333333
1600.766660	7990.000000
1601.812901	7998.000000
1602.858753	8022.666667
1603.904217	7960.333333
1604.949291	7966.666667
1605.993976	7998.000000
1607.038273	8024.666667
1608.082182	8006.333333
1609.125702	8036.666667
1610.168834	7895.000000
1611.211579	7847.666667
1612.253935	7842.333333
1613.295905	7808.666667
1614.337487	7750.666667
1615.378682	7798.000000
1616.419490	7837.000000
1617.459912	7758.000000
1618.499946	7824.333333
1619.539595	7769.000000
1620.578858	7854.666667
1621.617734	7837.000000
1622.656225	7883.000000
1623.694330	7854.666667
1624.732050	7768.000000
1625.769385	7807.333333
1626.806334	7737.000000
1627.842899	7742.666667
1628.879079	7758.666667
1629.914875	7639.333333
1630.950286	7651.000000
1631.985314	7670.333333
1633.019957	7691.666667
1634.054217	7698.666667
1635.088093	7663.666667
1636.121586	7702.666667
1637.154696	7684.333333
1638.187423	7769.666667
1639.219767	7708.333333
1640.251728	7782.000000
1641.283307	7660.666667
1642.314504	7783.666667
1643.345319	7800.333333
1644.375751	7741.333333
1645.405803	7702.333333
1646.435472	7699.333333
1647.464761	7745.666667
1648.493668	7694.333333
1649.522194	7683.666667
1650.550340	7674.333333
1651.578105	7644.333333
1652.605490	7735.333333
1653.632494	7657.000000
1654.659119	7602.000000
1655.685363	7584.000000
1656.711228	7584.000000
1657.736714	7594.666667
1658.761820	7549.666667
1659.786547	7478.000000
1660.810895	7540.000000
1661.834865	7475.333333
1662.858456	7542.666667
1663.881668	7465.666667
1664.904503	7454.333333
1665.926959	7412.000000
1666.949038	7378.000000
1667.970739	7420.000000
1668.992062	7327.000000
1670.013008	7347.333333
1671.033577	7272.000000
1672.053770	7205.333333
1673.073585	7261.333333
1674.093024	7284.666667
1675.112086	7252.000000
1676.130773	7226.333333
1677.149083	7210.333333
1678.167017	7126.000000
1679.184576	7156.666667
1680.201760	7152.000000
1681.218568	7203.000000
1682.235001	7084.333333
1683.251059	7104.666667
1684.266742	7149.333333
1685.282051	7122.666667
1686.296985	7108.333333
1687.311546	7087.333333
1688.325732	6968.000000
1689.339544	6983.333333
1690.352983	6929.000000
1691.366048	6936.333333
1692.378740	6806.333333
1693.391058	6792.000000
1694.403004	6803.000000
1695.414577	6783.666667
1696.425778	6756.000000
1697.436606	6672.333333
1698.447061	6677.666667
1699.457145	6643.333333
1700.466857	6591.333333
1701.476197	6858.333333
1702.485166	6673.333333
1703.493763	7052.666667
1704.501989	6574.333333
1705.509844	6396.333333
1706.517328	6381.333333
1707.524442	6419.000000
1708.531185	6385.666667
1709.537558	6395.666667
1710.543561	6327.666667
1711.549194	6325.666667
1712.554457	6337.000000
1713.559351	6268.000000
1714.563875	6259.666667
1715.568030	6318.000000
1716.571816	6342.000000
1717.575233	6344.000000
1718.578282	6413.666667
1719.580962	6323.000000
1720.583273	6450.000000
1721.585217	6457.333333
1722.586792	6443.666667
1723.588000	6331.333333
1724.588840	6380.333333
1725.589312	6294.000000
1726.589418	6342.333333
1727.589156	6328.666667
1728.588527	6424.333333
1729.587532	6430.000000
1730.586170	6364.333333
1731.584441	6320.333333
1732.582346	6326.000000
1733.579886	6286.333333
1734.577059	6326.666667
1735.573867	6309.333333
1736.570309	6257.333333
1737.566386	6192.000000
1738.562097	6199.333333
1739.557444	6161.333333
1740.552426	6167.666667
1741.547043	6116.333333
1742.541295	6100.000000
1743.535184	6080.333333
1744.528708	6084.333333
1745.521868	6089.000000
1746.514664	6058.333333
1747.507097	5979.666667
1748.499166	6002.333333
1749.490873	5920.333333
1750.482216	6011.000000
1751.473196	6040.000000
1752.463813	5959.666667
1753.454068	5976.333333
1754.443960	5969.000000
1755.433490	5922.666667
1756.422658	5913.000000
1757.411464	5877.000000
1758.399908	5882.333333
1759.387991	5889.333333
1760.375713	5883.000000
1761.363073	5862.000000
1762.350072	5876.666667
1763.336711	5890.333333
1764.322988	5857.666667
1765.308905	5891.333333
1766.294462	5896.000000
1767.279659	5814.666667
1768.264496	5843.666667
1769.248972	5770.666667
1770.233089	5748.000000
1771.216847	5723.000000
1772.200245	5702.666667
1773.183284	5734.000000
1774.165965	5720.000000
1775.148286	5729.666667
1776.130249	5675.000000
1777.111853	5623.666667
1778.093099	5585.666667
1779.073987	5517.333333
1780.054517	5556.000000
1781.034689	5514.666667
1782.014503	5502.666667
1782.993960	5402.333333
1783.973060	5376.666667
1784.951802	5335.666667
1785.930188	5353.666667
1786.908217	5391.666667
1787.885889	5273.000000
1788.863205	5278.333333
1789.840164	5256.333333
1790.816768	5239.666667
1791.793015	5311.666667
1792.768907	5236.000000
1793.744443	5231.333333
1794.719624	5218.333333
1795.694449	5267.333333
1796.668919	5245.666667
1797.643035	5303.333333
1798.616795	5276.000000
1799.590201	5264.000000
1800.563253	5279.000000
1801.535950	5216.333333
1802.508294	5252.666667
1803.480283	5265.333333
1804.451919	5292.666667
1805.423201	5276.333333
1806.394129	5303.666667
1807.364705	5279.333333
1808.334927	5336.333333
1809.304796	5205.333333
1810.274313	5265.666667
1811.243477	5296.333333
1812.212288	5187.000000
1813.180747	5255.666667
1814.148855	5221.000000
1815.116610	5158.333333
1816.084013	5252.333333
1817.051065	5184.000000
1818.017766	5201.666667
1818.984115	5211.666667
1819.950113	5201.333333
1820.915760	5188.666667
1821.881057	5229.333333
1822.846003	5137.000000
1823.810598	5167.333333
1824.774843	5133.333333
1825.738738	5155.000000
1826.702283	5152.000000
1827.665479	5112.000000
1828.628324	5097.666667
1829.590821	5146.000000
1830.552968	5058.333333
1831.514765	5038.000000
1832.476214	5055.333333
1833.437314	5018.333333
1834.398066	5035.000000
1835.358469	5029.000000
1836.318524	4977.333333
1837.278230	4984.333333
1838.237589	4939.000000
1839.196600	4979.333333
1840.155263	4954.333333
1841.113578	5023.666667
1842.071547	4973.000000
1843.029168	5000.000000
1843.986442	4999.333333
1844.943369	5068.000000
1845.899950	5043.666667
1846.856184	5005.666667
1847.812072	4964.333333
1848.767614	5027.000000
1849.722809	4926.000000
1850.677659	4979.666667
1851.632163	4893.000000
1852.586322	4958.000000
1853.540135	4942.000000
1854.493603	4948.000000
1855.446726	4928.333333
1856.399504	4926.333333
1857.351937	4908.000000
1858.304026	4915.333333
1859.255770	4789.000000
1860.207170	4853.000000
1861.158227	4750.333333
1862.108939	4787.333333
1863.059307	4729.000000
1864.009332	4690.000000
1864.959013	4741.333333
1865.908351	4776.000000
1866.857346	4726.000000
1867.805998	4695.000000
1868.754307	4636.666667
1869.702274	4631.000000
1870.649898	4625.666667
1871.597180	4637.666667
1872.544119	4603.333333
1873.490717	4585.000000
1874.436973	4608.000000
1875.382887	4540.000000
1876.328459	4588.666667
1877.273691	4534.000000
1878.218581	4528.333333
1879.163130	4572.000000
1880.107338	4596.000000
1881.051205	4551.666667
1881.994732	4601.000000
1882.937919	4561.000000
1883.880765	4528.333333
1884.823271	4597.666667
1885.765437	4587.666667
1886.707264	4548.666667
1887.648750	4619.000000
1888.589898	4556.666667
1889.530706	4593.666667
1890.471175	4556.000000
1891.411305	4588.333333
1892.351096	4614.666667
1893.290548	4590.333333
1894.229662	4603.000000
1895.168438	4551.333333
1896.106876	4593.333333
1897.044975	4605.000000
1897.982737	4554.666667
1898.920160	4693.333333
1899.857247	4524.333333
1900.793996	4568.333333
1901.730407	4496.000000
1902.666482	4509.000000
1903.602219	4498.333333
1904.537620	4476.333333
1905.472685	4447.666667
1906.407412	4401.666667
1907.341804	4445.333333
1908.275859	4396.000000
1909.209579	4390.333333
1910.142962	4349.666667
1911.076010	4280.333333
1912.008722	4325.000000
1912.941099	4294.333333
1913.873141	4198.000000
1914.804848	4263.000000
1915.736219	4218.333333
1916.667256	4218.000000
1917.597959	4207.666667
1918.528327	4181.666667
1919.458360	4221.333333
1920.388060	4185.333333
1921.317426	4171.000000
1922.246457	4153.000000
1923.175156	4093.333333
1924.103520	4182.000000
1925.031552	4167.666667
1925.959250	4138.666667
1926.886615	4189.000000
1927.813647	4136.000000
1928.740346	4139.333333
1929.666713	4168.000000
1930.592748	4227.333333
1931.518450	4117.000000
1932.443820	4121.666667
1933.368858	4142.000000
1934.293564	4090.000000
1935.217939	4150.666667
1936.141982	4138.666667
1937.065694	4116.000000
1937.989074	4058.666667
1938.912124	4086.666667
1939.834842	4013.666667
1940.757230	4071.666667
1941.679287	4047.000000
1942.601014	4076.333333
1943.522411	4059.666667
1944.443477	4011.000000
1945.364214	4033.000000
1946.284621	3963.000000
1947.204698	4007.333333
1948.124445	3975.666667
1949.043863	3884.666667
1949.962952	3923.666667
1950.881712	3921.666667
1951.800143	3922.000000
1952.718245	3907.000000
1953.636019	3865.000000
1954.553464	3825.333333
1955.470581	3832.000000
1956.387369	3790.666667
1957.303830	3768.000000
1958.219963	3806.000000
1959.135768	3805.666667
1960.051246	3749.000000
1960.966396	3798.000000
1961.881219	3807.666667
1962.795715	3779.000000
1963.709883	3829.666667
1964.623726	3793.000000
1965.537241	3850.333333
1966.450430	3873.666667
1967.363293	3866.666667
1968.275829	3868.666667
1969.188040	3812.333333
1970.099924	3832.000000
1971.011483	3907.000000
1971.922716	3803.666667
1972.833624	3865.000000
1973.744206	3831.333333
1974.654464	3883.333333
1975.564396	3859.000000
1976.474004	3836.333333
1977.383286	3870.000000
1978.292245	3845.333333
1979.200878	3747.333333
1980.109188	3797.000000
1981.017174	3747.000000
1981.924835	3754.333333
1982.832173	3765.666667
1983.739187	3747.333333
1984.645878	3727.666667
1985.552245	3645.333333
1986.458289	3652.333333
1987.364010	3659.333333
1988.269408	3623.666667
1989.174484	3584.333333
1990.079236	3540.333333
1990.983667	3587.666667
1991.887775	3549.333333
1992.791561	3574.333333
1993.695024	3553.000000
1994.598166	3558.333333
1995.500986	3524.333333
1996.403485	3490.333333
1997.305662	3485.000000
1998.207518	3526.666667
1999.109053	3519.666667
