200.151048	42974.666667
201.758777	43015.333333
203.365815	43137.666667
204.972162	43110.000000
206.577820	43058.333333
208.182787	42862.000000
209.787065	42862.000000
211.390653	42871.333333
212.993553	42846.333333
214.595765	42805.333333
216.197289	42830.333333
217.798125	42689.000000
219.398274	42784.666667
220.997737	42553.000000
222.596513	42644.666667
224.194603	42719.333333
225.792008	42741.333333
227.388728	42494.333333
228.984763	42532.333333
230.580114	42687.666667
232.174781	42546.000000
233.768765	42482.000000
235.362065	42527.333333
236.954683	42328.666667
238.546619	42602.333333
240.137872	42479.000000
241.728445	42280.333333
243.318336	42279.333333
244.907546	42156.666667
246.496076	42229.333333
248.083926	41983.333333
249.671097	41987.333333
251.257589	41914.333333
252.843402	41802.666667
254.428536	41646.666667
256.012993	41779.333333
257.596772	41508.000000
259.179874	41703.000000
260.762300	41553.666667
262.344049	41449.333333
263.925122	41404.000000
265.505519	41496.333333
267.085241	41478.333333
268.664289	41400.666667
270.242662	41473.333333
271.820361	41372.666667
273.397387	41488.666667
274.973740	41673.666667
276.549419	41528.333333
278.124426	41611.000000
279.698762	41785.000000
281.272425	41525.666667
282.845417	41782.666667
284.417739	41583.333333
285.989390	41904.666667
287.560371	41879.000000
289.130682	41885.000000
290.700324	41824.666667
292.269297	41951.333333
293.837602	41895.000000
295.405238	41805.333333
296.972207	41914.333333
298.538508	41847.333333
300.104142	41556.666667
301.669110	41589.333333
303.233411	41549.000000
304.797047	41269.666667
306.360017	41409.666667
307.922322	41399.333333
309.483963	41370.000000
311.044939	41333.666667
312.605252	41020.000000
314.164900	41084.000000
315.723886	40950.333333
317.282209	41017.333333
318.839870	40745.666667
320.396868	40823.333333
321.953205	40682.000000
323.508881	41024.333333
325.063896	40690.000000
326.618251	40664.666667
328.171945	40839.666667
329.724980	40846.666667
331.277356	40618.666667
332.829072	40549.000000
334.380131	40626.666667
335.930530	40784.666667
337.480273	40911.333333
339.029357	41017.000000
340.577785	40893.000000
342.125556	40750.333333
343.672671	41021.333333
345.219130	40944.333333
346.764933	40927.666667
348.310081	40995.666667
349.854575	40892.333333
351.398414	40981.000000
352.941599	40970.000000
354.484130	40812.000000
356.026008	41051.666667
357.567234	41017.666667
359.107807	40996.666667
360.647727	40802.666667
362.186996	40712.000000
363.725614	40878.000000
365.263580	40806.666667
366.800896	40855.666667
368.337562	40795.000000
369.873578	40763.333333
371.408944	40856.666667
372.943661	40696.333333
374.477730	40686.000000
376.011150	40677.666667
377.543922	40649.666667
379.076046	40709.333333
380.607523	40741.000000
382.138353	40672.666667
383.668537	40805.333333
385.198075	40666.666667
386.726966	40888.000000
388.255213	40680.333333
389.782814	40709.333333
391.309770	40670.000000
392.836083	40656.333333
394.361751	40591.333333
395.886776	40648.000000
397.411157	40676.333333
398.934896	40449.333333
400.457992	40499.666667
401.980446	40661.000000
403.502258	40543.000000
405.023429	40511.666667
406.543959	40701.666667
408.063849	40625.333333
409.583098	40657.666667
411.101707	40618.333333
412.619677	40626.000000
414.137007	40630.000000
415.653699	40744.333333
417.169752	40852.666667
418.685167	41087.666667
420.199945	41149.000000
421.714085	41205.666667
423.227588	41133.666667
424.740454	41375.000000
426.252684	41281.000000
427.764279	41198.000000
429.275238	41170.333333
430.785561	41348.333333
432.295250	41252.333333
433.804304	41064.333333
435.312725	40972.666667
436.820511	41066.666667
438.327664	40690.666667
439.834185	40675.000000
441.340072	40490.666667
442.845327	40515.000000
444.349951	40386.333333
445.853942	40447.666667
447.357303	40329.000000
448.860033	40123.000000
450.362132	39974.666667
451.863601	39976.333333
453.364440	39845.333333
454.864650	39516.666667
456.364231	39517.000000
457.863183	39417.333333
459.361507	39183.000000
460.859203	39058.333333
462.356271	39111.333333
463.852712	39220.666667
465.348526	39005.333333
466.843714	38898.333333
468.338275	38823.000000
469.832210	38858.000000
471.325520	38810.666667
472.818205	38704.000000
474.310265	38727.666667
475.801700	38848.333333
477.292512	38765.333333
478.782700	38508.666667
480.272264	38549.333333
481.761205	38674.000000
483.249524	38527.333333
484.737221	38629.333333
486.224295	38515.333333
487.710748	38504.333333
489.196579	38477.666667
490.681790	38384.333333
492.166380	38466.333333
493.650350	38255.333333
495.133700	38460.666667
496.616431	38367.666667
498.098542	38204.666667
499.580035	38399.666667
501.060909	38210.000000
502.541165	38170.000000
504.020804	38146.333333
505.499825	38141.333333
506.978228	37994.000000
508.456016	37915.333333
509.933186	38050.666667
511.409741	37820.333333
512.885680	37764.666667
514.361004	37677.000000
515.835713	37651.000000
517.309807	37729.333333
518.783287	37669.333333
520.256153	37706.666667
521.728406	37565.000000
523.200045	37567.666667
524.671071	37467.666667
526.141485	37589.000000
527.611287	37363.333333
529.080476	37284.000000
530.549054	37429.666667
532.017021	37351.666667
533.484378	37337.000000
534.951123	37309.333333
536.417259	37361.333333
537.882785	37394.333333
539.347701	37352.000000
540.812008	37308.000000
542.275707	37239.000000
543.738797	37181.666667
545.201279	37160.333333
546.663153	37094.000000
548.124420	37128.666667
549.585080	37068.666667
551.045133	37158.000000
552.504579	37086.333333
553.963420	37168.666667
555.421655	37244.333333
556.879285	37239.333333
558.336309	37224.666667
559.792729	37276.666667
561.248545	37124.666667
562.703756	37159.666667
564.158364	37162.666667
565.612369	37218.000000
567.065770	37298.333333
568.518569	37250.333333
569.970766	37372.333333
571.422361	37377.333333
572.873354	37417.333333
574.323745	37477.000000
575.773536	37545.666667
577.222726	37434.333333
578.671316	37588.000000
580.119306	37487.666667
581.566696	37518.333333
583.013487	37612.000000
584.459679	37332.666667
585.905273	37213.000000
587.350268	37361.333333
588.794665	37231.666667
590.238465	37212.000000
591.681667	36922.333333
593.124272	37013.333333
594.566281	36897.000000
596.007694	36854.000000
597.448510	36616.333333
598.888731	36643.000000
600.328357	36337.333333
601.767388	36381.666667
603.205824	36395.000000
604.643666	36320.333333
606.080914	36221.000000
607.517568	36118.666667
608.953629	36105.333333
610.389097	36146.666667
611.823972	36068.666667
613.258255	36057.000000
614.691946	36151.000000
616.125046	35987.333333
617.557554	35762.000000
618.989471	35735.333333
620.420798	35583.666667
621.851534	35501.666667
623.281680	35568.000000
624.711237	35371.666667
626.140204	35223.000000
627.568582	35124.666667
628.996372	35063.333333
630.423573	35021.000000
631.850186	35033.666667
633.276211	34968.000000
634.701650	34831.000000
636.126501	34843.333333
637.550765	34937.333333
638.974443	34930.333333
640.397535	34880.333333
641.820041	34910.666667
643.241961	34820.333333
644.663297	34867.333333
646.084048	34823.000000
647.504214	34589.666667
648.923796	34494.333333
650.342795	34689.666667
651.761210	34551.000000
653.179041	34462.666667
654.596290	34516.333333
656.012957	34458.000000
657.429041	34342.333333
658.844543	34386.666667
660.259464	34356.666667
661.673804	34262.333333
663.087563	34335.333333
664.500741	34259.333333
665.913339	34234.000000
667.325357	34270.666667
668.736795	34082.666667
670.147654	34087.666667
671.557934	34031.333333
672.967636	34135.333333
674.376759	34008.000000
675.785304	33991.333333
677.193271	33904.333333
678.600661	33789.000000
680.007474	33627.000000
681.413711	33841.000000
682.819370	33622.666667
684.224454	33552.333333
685.628962	33598.666667
687.032895	33640.000000
688.436252	33607.000000
689.839034	33563.666667
691.241242	33470.666667
692.642876	33620.666667
694.043936	33424.666667
695.444422	33390.000000
696.844336	33314.666667
698.243676	33287.333333
699.642443	33127.333333
701.040639	33310.666667
702.438262	33286.666667
703.835313	33199.333333
705.231794	33044.333333
706.627703	33207.666667
708.023041	33131.666667
709.417810	33231.333333
710.812008	33099.333333
712.205636	33192.666667
713.598694	33070.666667
714.991184	32993.333333
716.383105	33041.666667
717.774457	32917.000000
719.165241	32840.000000
720.555457	32966.000000
721.945105	32743.666667
723.334187	32764.333333
724.722701	32794.666667
726.110648	32700.000000
727.498030	32667.333333
728.884845	32644.000000
730.271094	32681.333333
731.656778	32730.333333
733.041897	32610.666667
734.426451	32824.666667
735.810441	32522.666667
737.193866	32500.333333
738.576728	32553.666667
739.959026	32493.000000
741.340760	32441.333333
742.721932	32403.000000
744.102541	32278.000000
745.482588	32270.333333
746.862073	32329.333333
748.240996	32236.666667
749.619358	32389.666667
750.997158	32278.666667
752.374398	32279.333333
753.751077	32297.666667
755.127197	32209.000000
756.502756	32190.000000
757.877756	32256.000000
759.252196	32232.333333
760.626078	31945.666667
761.999400	31949.333333
763.372165	31851.333333
764.744371	31869.666667
766.116020	31990.000000
767.487111	31857.333333
768.857646	31734.000000
770.227623	31761.000000
771.597044	31530.333333
772.965908	31865.000000
774.334217	31566.000000
775.701970	31518.000000
777.069168	31455.666667
778.435811	31301.333333
779.801899	31369.666667
781.167433	31375.000000
782.532412	31436.333333
783.896838	31173.333333
785.260710	31168.000000
786.624029	31236.000000
787.986796	31150.000000
789.349009	31074.333333
790.710671	31223.333333
792.071780	30946.000000
793.432338	31084.000000
794.792344	30934.000000
796.151799	30996.333333
797.510704	31039.333333
798.869058	30881.000000
800.226862	31022.666667
801.584116	30895.000000
802.940820	30941.333333
804.296975	30809.666667
805.652581	30836.000000
807.007638	30662.666667
808.362147	30772.666667
809.716108	30748.333333
811.069521	30667.000000
812.422387	30668.333333
813.774705	30812.333333
815.126476	30734.666667
816.477701	30629.333333
817.828380	30721.000000
819.178512	30525.666667
820.528099	30548.666667
821.877140	30550.666667
823.225637	30388.333333
824.573588	30366.333333
825.920995	30374.000000
827.267857	30399.666667
828.614176	30305.333333
829.959951	30416.333333
831.305183	30237.333333
832.649871	30399.000000
833.994017	30271.000000
835.337620	30150.333333
836.680681	30255.000000
838.023201	30206.000000
839.365178	30289.666667
840.706614	30055.000000
842.047510	30089.333333
843.387864	30115.666667
844.727678	30079.000000
846.066952	30343.666667
847.405687	30157.666667
848.743881	30173.000000
850.081537	30316.666667
851.418653	30219.666667
852.755231	30333.000000
854.091270	30244.666667
855.426771	30291.000000
856.761735	30302.666667
858.096160	30126.333333
859.430049	30319.666667
860.763401	29899.333333
862.096216	29872.000000
863.428495	29962.666667
864.760237	29894.666667
866.091444	29827.333333
867.422115	29748.000000
868.752252	29609.666667
870.081853	29574.333333
871.410919	29616.000000
872.739452	29554.333333
874.067450	29490.333333
875.394914	29443.666667
876.721845	29392.000000
878.048243	29455.000000
879.374108	29349.333333
880.699440	29337.666667
882.024240	29309.000000
883.348508	29233.666667
884.672244	29023.000000
885.995449	29210.333333
887.318122	29001.666667
888.640265	29053.000000
889.961877	28979.666667
891.282959	28858.000000
892.603510	28881.000000
893.923532	28868.666667
895.243024	28798.000000
896.561987	28664.333333
897.880422	28627.333333
899.198327	28808.333333
900.515705	28478.666667
901.832554	28747.666667
903.148875	28638.333333
904.464669	28581.666667
905.779936	28485.000000
907.094676	28500.666667
908.408889	28521.000000
909.722576	28643.333333
911.035737	28530.666667
912.348371	28685.666667
913.660481	28721.000000
914.972065	28817.666667
916.283124	28877.000000
917.593659	29045.333333
918.903669	28857.000000
920.213155	28967.000000
921.522117	28874.000000
922.830556	29048.333333
924.138471	28905.000000
925.445864	28877.333333
926.752733	28797.666667
928.059081	28797.333333
929.364906	28645.333333
930.670209	28803.333333
931.974991	28673.333333
933.279251	28605.666667
934.582990	28612.666667
935.886209	28697.333333
937.188907	28686.333333
938.491085	28810.000000
939.792743	28954.333333
941.093881	28889.666667
942.394500	28954.000000
943.694600	29201.666667
944.994181	29490.666667
946.293243	29684.666667
947.591787	29980.000000
948.889813	30140.000000
950.187322	30629.333333
951.484313	31024.333333
952.780787	31443.000000
954.076744	32119.666667
955.372184	32445.666667
956.667108	33003.000000
957.961516	33363.333333
959.255409	33545.000000
960.548785	33224.666667
961.841647	32833.333333
963.133993	32196.333333
964.425825	31552.666667
965.717142	31103.666667
967.007946	30218.666667
968.298235	29591.000000
969.588011	29120.000000
970.877273	28591.666667
972.166023	28145.333333
973.454259	27966.666667
974.741984	27630.333333
976.029196	27449.333333
977.315895	27298.000000
978.602084	27163.666667
979.887761	26988.333333
981.172926	26800.666667
982.457581	26752.666667
983.741725	26524.000000
985.025359	26647.333333
986.308483	26539.666667
987.591097	26414.333333
988.873202	26400.000000
990.154797	26297.666667
991.435883	26419.666667
992.716461	26317.666667
993.996530	26176.666667
995.276091	26301.333333
996.555144	26096.000000
997.833690	26241.333333
999.111728	26319.000000
1000.389259	26376.666667
1001.666283	26324.333333
1002.942800	26241.000000
1004.218812	26195.333333
1005.494317	26285.000000
1006.769317	26135.000000
1008.043811	25966.000000
1009.317799	25975.000000
1010.591283	25907.333333
1011.864263	25838.333333
1013.136737	25981.000000
1014.408708	26004.000000
1015.680175	26110.000000
1016.951138	26074.666667
1018.221598	25905.666667
1019.491554	25960.000000
1020.761008	25804.000000
1022.029959	25957.666667
1023.298408	25832.666667
1024.566355	25786.666667
1025.833800	25889.333333
1027.100744	25855.666667
1028.367187	25828.333333
1029.633128	25712.333333
1030.898569	25854.666667
1032.163509	25955.666667
1033.427949	25912.000000
1034.691890	25747.666667
1035.955330	25913.000000
1037.218271	25710.666667
1038.480714	25906.000000
1039.742657	25613.000000
1041.004101	25891.000000
1042.265048	25907.666667
1043.525496	25898.333333
1044.785446	25755.000000
1046.044899	25862.333333
1047.303855	25807.666667
1048.562313	25633.666667
1049.820275	25634.000000
1051.077740	25564.666667
1052.334709	25551.000000
1053.591182	25565.000000
1054.847160	25373.000000
1056.102641	25461.333333
1057.357628	25453.333333
1058.612120	25505.666667
1059.866117	25471.666667
1061.119619	25415.000000
1062.372628	25432.666667
1063.625142	25499.666667
1064.877163	25398.333333
1066.128691	25358.666667
1067.379725	25417.666667
1068.630267	25328.000000
1069.880316	25441.666667
1071.129872	25256.000000
1072.378937	25270.333333
1073.627509	25323.000000
1074.875590	25122.000000
1076.123180	24946.333333
1077.370279	24921.000000
1078.616887	24939.666667
1079.863004	24823.333333
1081.108631	24712.000000
1082.353768	24592.333333
1083.598415	24467.000000
1084.842573	24410.000000
1086.086241	24229.000000
1087.329421	24338.333333
1088.572111	24353.000000
1089.814314	24183.000000
1091.056028	24037.333333
1092.297253	24158.666667
1093.537992	23862.666667
1094.778242	23999.666667
1096.018006	23941.333333
1097.257282	23964.333333
1098.496072	23854.000000
1099.734376	23763.000000
1100.972193	23900.666667
1102.209524	23777.000000
1103.446370	23786.666667
1104.682730	23744.000000
1105.918604	23705.333333
1107.153994	23659.333333
1108.388900	23601.333333
1109.623320	23527.000000
1110.857257	23523.666667
1112.090710	23525.000000
1113.323679	23701.000000
1114.556164	23304.333333
1115.788167	23349.666667
1117.019686	23315.000000
1118.250723	23291.666667
1119.481278	23338.666667
1120.711350	23149.000000
1121.940940	23340.000000
1123.170049	23218.000000
1124.398676	23198.000000
1125.626823	23191.666667
1126.854488	23234.333333
1128.081672	23168.333333
1129.308376	23165.000000
1130.534600	23185.000000
1131.760345	22998.000000
1132.985609	23069.666667
1134.210394	23043.000000
1135.434700	22887.666667
1136.658527	22923.333333
1137.881875	23008.333333
1139.104745	22921.666667
1140.327136	22914.666667
1141.549050	22891.333333
1142.770486	22958.000000
1143.991445	22909.333333
1145.211926	22817.000000
1146.431931	22665.666667
1147.651459	22826.333333
1148.870510	22780.000000
1150.089086	22804.000000
1151.307185	22535.666667
1152.524808	22730.666667
1153.741957	22761.000000
1154.958630	22507.333333
1156.174828	22608.333333
1157.390551	22577.333333
1158.605800	22610.333333
1159.820574	22438.666667
1161.034875	22475.333333
1162.248702	22428.666667
1163.462055	22504.000000
1164.674936	22442.666667
1165.887343	22522.000000
1167.099277	22420.333333
1168.310739	22308.333333
1169.521729	22368.666667
1170.732247	22414.666667
1171.942293	22455.333333
1173.151867	22365.666667
1174.360970	22416.666667
1175.569602	22374.333333
1176.777764	22458.000000
1177.985454	22431.666667
1179.192675	22539.000000
1180.399425	22299.000000
1181.605706	22299.666667
1182.811517	22260.000000
1184.016859	22118.666667
1185.221731	22077.333333
1186.426135	21934.333333
1187.630070	21972.000000
1188.833537	21914.666667
1190.036535	21918.666667
1191.239066	21947.666667
1192.441129	21858.000000
1193.642725	21703.333333
1194.843853	21667.000000
1196.044515	21764.000000
1197.244710	21829.666667
1198.444438	21648.000000
1199.643701	21748.333333
1200.842497	21682.333333
1202.040827	21713.333333
1203.238693	21605.666667
1204.436092	21623.000000
1205.633027	21596.666667
1206.829497	21625.333333
1208.025503	21493.333333
1209.221044	21548.000000
1210.416122	21525.666667
1211.610735	21445.333333
1212.804885	21403.000000
1213.998572	21421.000000
1215.191795	21285.000000
1216.384556	21336.666667
1217.576854	21197.666667
1218.768689	21124.000000
1219.960063	21175.000000
1221.150974	21204.666667
1222.341424	21005.666667
1223.531413	21103.333333
1224.720940	21173.333333
1225.910006	21138.000000
1227.098612	21093.333333
1228.286757	21014.666667
1229.474442	21134.333333
1230.661667	21150.333333
1231.848432	21162.000000
1233.034738	21231.000000
1234.220584	21157.333333
1235.405971	21183.000000
1236.590900	21270.333333
1237.775369	21390.333333
1238.959381	21272.333333
1240.142934	21356.666667
1241.326029	21369.333333
1242.508667	21386.333333
1243.690848	21391.666667
1244.872571	21355.333333
1246.053837	21432.333333
1247.234646	21263.666667
1248.414999	21231.333333
1249.594896	21140.333333
1250.774337	21120.666667
1251.953322	21206.666667
1253.131851	21192.000000
1254.309925	21059.333333
1255.487544	21143.666667
1256.664708	21052.666667
1257.841417	20898.000000
1259.017673	20943.000000
1260.193473	20936.000000
1261.368820	20945.666667
1262.543714	21001.000000
1263.718154	20886.333333
1264.892140	21022.333333
1266.065674	21077.666667
1267.238755	21157.333333
1268.411383	21063.666667
1269.583559	20971.666667
1270.755283	20884.666667
1271.926555	20943.333333
1273.097375	21019.000000
1274.267744	20987.666667
1275.437662	21001.333333
1276.607129	20819.666667
1277.776145	20810.666667
1278.944711	20862.000000
1280.112827	20742.333333
1281.280492	20813.666667
1282.447708	20657.333333
1283.614474	20669.666667
1284.780791	20564.666667
1285.946659	20494.000000
1287.112078	20495.000000
1288.277048	20489.000000
1289.441570	20374.666667
1290.605644	20300.000000
1291.769270	20282.666667
1292.932448	20162.666667
1294.095178	20060.000000
1295.257461	20156.000000
1296.419298	20217.000000
1297.580687	19996.666667
1298.741630	19997.333333
1299.902126	19911.333333
1301.062177	20047.666667
1302.221781	20054.333333
1303.380940	19836.666667
1304.539653	20147.666667
1305.697921	19883.000000
1306.855744	20009.000000
1308.013123	20030.000000
1309.170056	19964.666667
1310.326546	20012.333333
1311.482591	20071.666667
1312.638193	20010.333333
1313.793350	19947.000000
1314.948065	19919.333333
1316.102336	19822.666667
1317.256164	19819.000000
1318.409550	19685.000000
1319.562493	19736.000000
1320.714993	19711.000000
1321.867052	19716.333333
1323.018668	19653.666667
1324.169843	19688.666667
1325.320577	19575.000000
1326.470870	19603.666667
1327.620721	19432.333333
1328.770132	19499.333333
1329.919102	19457.000000
1331.067632	19386.000000
1332.215722	19356.333333
1333.363372	19338.666667
1334.510582	19401.000000
1335.657353	19270.333333
1336.803685	19212.666667
1337.949578	19455.666667
1339.095032	19172.666667
1340.240048	19272.666667
1341.384625	19250.000000
1342.528764	19382.333333
1343.672466	19306.666667
1344.815729	19208.333333
1345.958556	19181.333333
1347.100945	19238.333333
1348.242897	19107.666667
1349.384413	19109.666667
1350.525492	19150.666667
1351.666134	19102.666667
1352.806341	18957.333333
1353.946111	18991.333333
1355.085446	18973.000000
1356.224346	18879.333333
1357.362810	18883.000000
1358.500840	18962.000000
1359.638434	18821.000000
1360.775594	18765.666667
1361.912320	18782.333333
1363.048612	18661.000000
1364.184469	18736.333333
1365.319893	18740.000000
1366.454884	18668.333333
1367.589441	18603.666667
1368.723566	18691.333333
1369.857257	18695.333333
1370.990516	18804.000000
1372.123343	18698.666667
1373.255737	18699.333333
1374.387699	18731.666667
1375.519230	18737.666667
1376.650329	18791.333333
1377.780997	18672.000000
1378.911234	18797.333333
1380.041040	18684.000000
1381.170416	18781.666667
1382.299361	18720.000000
1383.427875	18856.000000
1384.555960	18786.666667
1385.683615	18713.333333
1386.810841	18670.333333
1387.937637	18774.333333
1389.064004	18607.666667
1390.189942	18663.333333
1391.315451	18660.333333
1392.440532	18789.333333
1393.565185	18690.666667
1394.689409	18621.000000
1395.813206	18762.666667
1396.936575	18597.333333
1398.059517	18591.333333
1399.182032	18517.333333
1400.304119	18486.000000
1401.425780	18476.333333
1402.547014	18368.000000
1403.667822	18404.333333
1404.788204	18293.000000
1405.908160	18308.666667
1407.027690	18220.333333
1408.146795	18447.333333
1409.265474	18244.666667
1410.383728	18258.000000
1411.501558	18310.000000
1412.618963	18231.000000
1413.735943	18269.000000
1414.852499	18231.666667
1415.968632	18237.666667
1417.084340	18168.333333
1418.199625	18130.000000
1419.314486	18223.666667
1420.428925	18252.666667
1421.542940	18105.666667
1422.656533	18160.666667
1423.769703	18044.666667
1424.882451	18150.666667
1425.994777	18067.000000
1427.106680	18024.000000
1428.218163	17993.666667
1429.329223	17908.000000
1430.439863	17901.666667
1431.550081	17873.666667
1432.659879	17860.666667
1433.769256	17914.666667
1434.878212	17848.333333
1435.986749	17834.000000
1437.094865	17777.333333
1438.202562	17631.333333
1439.309839	17692.000000
1440.416696	17639.000000
1441.523135	17823.333333
1442.629154	17761.666667
1443.734755	17714.000000
1444.839937	17777.666667
1445.944701	17845.333333
1447.049047	17824.333333
1448.152975	17948.666667
1449.256485	17877.666667
1450.359577	17862.000000
1451.462253	17926.333333
1452.564511	17817.333333
1453.666352	17954.000000
1454.767777	17848.666667
1455.868785	17771.666667
1456.969377	17763.333333
1458.069553	17694.666667
1459.169313	17515.333333
1460.268658	17657.333333
1461.367587	17674.666667
1462.466101	17535.000000
1463.564200	17532.666667
1464.661884	17369.666667
1465.759153	17248.666667
1466.856008	17241.666667
1467.952449	17196.333333
1469.048476	17115.666667
1470.144089	16981.666667
1471.239288	16872.333333
1472.334074	16817.000000
1473.428447	16698.333333
1474.522407	16641.000000
1475.615955	16628.666667
1476.709089	16460.000000
1477.801812	16478.000000
1478.894122	16464.333333
1479.986020	16472.666667
1481.077506	16544.333333
1482.168581	16547.000000
1483.259245	16406.666667
1484.349498	16466.000000
1485.439339	16395.333333
1486.528770	16337.000000
1487.617790	16329.333333
1488.706400	16376.666667
1489.794600	16278.000000
1490.882390	16293.000000
1491.969771	16392.000000
1493.056742	16267.333333
1494.143303	16340.333333
1495.229456	16266.000000
1496.315199	16273.666667
1497.400534	16255.333333
1498.485460	16172.000000
1499.569978	16083.000000
1500.654088	16145.333333
1501.737790	16041.666667
1502.821085	16033.333333
1503.903972	15848.000000
1504.986451	15932.333333
1506.068524	15934.333333
1507.150189	15802.333333
1508.231448	15824.666667
1509.312301	15865.000000
1510.392747	15748.333333
1511.472787	15732.333333
1512.552422	15720.333333
1513.631650	15595.000000
1514.710473	15698.666667
1515.788891	15712.333333
1516.866904	15707.333333
1517.944512	15621.333333
1519.021715	15737.000000
1520.098513	15693.666667
1521.174908	15658.000000
1522.250898	15751.666667
1523.326485	15643.666667
1524.401667	15796.000000
1525.476447	15820.666667
1526.550823	15680.666667
1527.624796	15778.333333
1528.698365	15777.333333
1529.771533	15678.000000
1530.844298	15541.666667
1531.916660	15705.000000
1532.988620	15622.666667
1534.060179	15655.333333
1535.131336	15577.333333
1536.202091	15586.333333
1537.272445	15582.000000
1538.342398	15461.000000
1539.411950	15465.333333
1540.481101	15382.666667
1541.549851	15318.666667
1542.618202	15448.333333
1543.686152	15295.000000
1544.753702	15280.666667
1545.820853	15183.000000
1546.887604	15249.333333
1547.953955	15065.666667
1549.019908	15102.333333
1550.085461	15116.666667
1551.150616	14989.333333
1552.215372	15108.000000
1553.279730	15132.000000
1554.343690	14947.333333
1555.407252	14981.333333
1556.470415	14922.333333
1557.533182	14800.333333
1558.595551	14847.000000
1559.657522	14919.000000
1560.719097	14869.000000
1561.780275	14826.333333
1562.841056	14911.000000
1563.901441	14892.333333
1564.961429	14807.000000
1566.021022	14884.333333
1567.080219	14810.000000
1568.139020	14888.333333
1569.197425	14837.000000
1570.255436	14934.666667
1571.313051	14810.666667
1572.370271	14752.000000
1573.427097	14779.333333
1574.483528	14739.000000
1575.539565	14680.666667
1576.595208	14648.000000
1577.650457	14734.666667
1578.705312	14539.666667
1579.759774	14524.000000
1580.813842	14470.666667
1581.867517	14513.000000
1582.920799	14453.000000
1583.973689	14387.000000
1585.026186	14276.000000
1586.078290	14433.333333
1587.130002	14329.000000
1588.181323	14282.666667
1589.232251	14167.666667
1590.282788	14335.333333
1591.332933	14213.666667
1592.382688	14122.000000
1593.432051	14283.666667
1594.481023	14154.666667
1595.529605	14207.000000
1596.577796	14198.333333
1597.625597	14220.000000
1598.673007	14192.666667
1599.720028	14181.666667
1600.766660	14208.666667
1601.812901	14279.000000
1602.858753	14309.000000
1603.904217	14266.333333
1604.949291	14262.000000
1605.993976	14263.000000
1607.038273	14212.000000
1608.082182	14236.333333
1609.125702	14244.666667
1610.168834	14178.000000
1611.211579	14258.666667
1612.253935	14198.333333
1613.295905	14041.000000
1614.337487	14121.666667
1615.378682	14215.666667
1616.419490	14117.666667
1617.459912	14008.666667
1618.499946	13911.000000
1619.539595	13959.666667
1620.578858	13945.666667
1621.617734	13752.333333
1622.656225	13761.666667
1623.694330	13762.000000
1624.732050	13803.333333
1625.769385	13767.333333
1626.806334	13744.000000
1627.842899	13849.333333
1628.879079	13689.666667
1629.914875	13633.000000
1630.950286	13707.000000
1631.985314	13726.666667
1633.019957	13758.666667
1634.054217	13658.000000
1635.088093	13739.666667
1636.121586	13684.000000
1637.154696	13677.000000
1638.187423	13686.666667
1639.219767	13732.000000
1640.251728	13792.666667
1641.283307	13730.666667
1642.314504	13652.666667
1643.345319	13762.000000
1644.375751	13707.333333
1645.405803	13702.666667
1646.435472	13786.000000
1647.464761	13619.333333
1648.493668	13671.333333
1649.522194	13704.333333
1650.550340	13677.000000
1651.578105	13600.666667
1652.605490	13498.333333
1653.632494	13518.000000
1654.659119	13555.333333
1655.685363	13513.666667
1656.711228	13484.666667
1657.736714	13422.000000
1658.761820	13450.000000
1659.786547	13310.666667
1660.810895	13221.666667
1661.834865	13239.000000
1662.858456	13267.000000
1663.881668	13148.333333
1664.904503	13147.000000
1665.926959	13086.333333
1666.949038	13220.333333
1667.970739	12973.333333
1668.992062	13009.000000
1670.013008	12862.666667
1671.033577	13041.333333
1672.053770	13023.000000
1673.073585	12867.666667
1674.093024	12863.333333
1675.112086	12741.666667
1676.130773	12852.000000
1677.149083	12896.666667
1678.167017	12958.666667
1679.184576	12865.666667
1680.201760	12828.333333
1681.218568	12824.333333
1682.235001	12861.666667
1683.251059	12798.666667
1684.266742	12823.666667
1685.282051	12800.333333
1686.296985	12854.333333
1687.311546	12800.666667
1688.325732	12709.000000
1689.339544	12724.000000
1690.352983	12592.000000
1691.366048	12636.666667
1692.378740	12524.333333
1693.391058	12559.333333
1694.403004	12414.666667
1695.414577	12436.666667
1696.425778	12379.333333
1697.436606	12405.000000
1698.447061	12361.666667
1699.457145	12191.333333
1700.466857	12184.666667
1701.476197	12240.000000
1702.485166	12195.666667
1703.493763	12047.000000
1704.501989	11962.333333
1705.509844	12013.000000
1706.517328	11980.333333
1707.524442	11945.666667
1708.531185	11997.000000
1709.537558	11957.666667
1710.543561	11960.333333
1711.549194	11949.333333
1712.554457	12001.333333
1713.559351	11888.666667
1714.563875	11894.333333
1715.568030	11896.666667
1716.571816	11938.666667
1717.575233	11967.666667
1718.578282	12011.000000
1719.580962	12044.333333
1720.583273	11995.666667
1721.585217	12050.000000
1722.586792	12021.333333
1723.588000	11939.333333
1724.588840	12123.666667
1725.589312	11973.333333
1726.589418	12099.666667
1727.589156	12059.000000
1728.588527	12000.000000
1729.587532	12050.000000
1730.586170	12050.333333
1731.584441	12199.333333
1732.582346	12106.333333
1733.579886	12010.000000
1734.577059	11989.333333
1735.573867	11972.000000
1736.570309	11871.666667
1737.566386	11834.000000
1738.562097	11870.000000
1739.557444	11784.333333
1740.552426	11745.666667
1741.547043	11802.666667
1742.541295	11672.333333
1743.535184	11776.000000
1744.528708	11718.333333
1745.521868	11632.666667
1746.514664	11617.000000
1747.507097	11593.333333
1748.499166	11497.333333
1749.490873	11444.666667
1750.482216	11470.666667
1751.473196	11467.000000
1752.463813	11428.333333
1753.454068	11540.333333
1754.443960	11419.000000
1755.433490	11376.333333
1756.422658	11503.000000
1757.411464	11456.666667
1758.399908	11334.666667
1759.387991	11440.333333
1760.375713	11273.000000
1761.363073	11299.000000
1762.350072	11319.000000
1763.336711	11288.666667
1764.322988	11204.333333
1765.308905	11171.000000
1766.294462	11233.333333
1767.279659	11150.000000
1768.264496	11193.333333
1769.248972	11101.000000
1770.233089	11101.000000
1771.216847	11009.666667
1772.200245	10938.666667
1773.183284	10990.333333
1774.165965	10919.666667
1775.148286	10820.333333
1776.130249	10813.000000
1777.111853	10724.666667
1778.093099	10659.000000
1779.073987	10729.000000
1780.054517	10625.000000
1781.034689	10494.333333
1782.014503	10485.000000
1782.993960	10495.666667
1783.973060	10509.000000
1784.951802	10355.666667
1785.930188	10374.333333
1786.908217	10273.000000
1787.885889	10285.666667
1788.863205	10243.000000
1789.840164	10141.666667
1790.816768	10185.333333
1791.793015	10200.666667
1792.768907	10066.000000
1793.744443	10059.666667
1794.719624	10128.333333
1795.694449	10095.666667
1796.668919	10123.000000
1797.643035	10139.666667
1798.616795	10100.666667
1799.590201	10022.000000
1800.563253	10113.666667
1801.535950	10184.666667
1802.508294	10188.666667
1803.480283	10195.666667
1804.451919	10200.666667
1805.423201	10230.000000
1806.394129	10154.666667
1807.364705	10252.333333
1808.334927	10358.666667
1809.304796	10165.666667
1810.274313	10195.333333
1811.243477	10265.333333
1812.212288	10182.333333
1813.180747	10211.000000
1814.148855	10253.333333
1815.116610	10249.333333
1816.084013	10200.666667
1817.051065	10192.666667
1818.017766	10169.333333
1818.984115	10243.333333
1819.950113	10200.000000
1820.915760	10124.000000
1821.881057	10136.000000
1822.846003	10169.666667
1823.810598	10188.000000
1824.774843	10071.333333
1825.738738	10016.000000
1826.702283	9969.666667
1827.665479	10075.333333
1828.628324	10054.333333
1829.590821	9988.333333
1830.552968	10004.666667
1831.514765	9960.333333
1832.476214	9948.333333
1833.437314	9943.666667
1834.398066	9905.333333
1835.358469	9931.000000
1836.318524	9860.000000
1837.278230	9821.333333
1838.237589	9869.000000
1839.196600	9895.333333
1840.155263	9887.000000
1841.113578	9773.666667
1842.071547	9858.000000
1843.029168	9787.333333
1843.986442	9846.000000
1844.943369	9804.666667
1845.899950	9889.000000
1846.856184	9806.000000
1847.812072	9732.666667
1848.767614	9741.000000
1849.722809	9739.000000
1850.677659	9772.000000
1851.632163	9706.333333
1852.586322	9692.000000
1853.540135	9696.666667
1854.493603	9644.333333
1855.446726	9553.333333
1856.399504	9501.333333
1857.351937	9507.333333
1858.304026	9453.666667
1859.255770	9377.666667
1860.207170	9339.333333
1861.158227	9334.333333
1862.108939	9349.666667
1863.059307	9313.333333
1864.009332	9109.000000
1864.959013	9227.333333
1865.908351	9159.333333
1866.857346	9058.000000
1867.805998	9040.666667
1868.754307	9035.666667
1869.702274	8993.000000
1870.649898	8897.333333
1871.597180	8885.666667
1872.544119	8871.000000
1873.490717	8872.666667
1874.436973	8828.333333
1875.382887	8939.000000
1876.328459	8920.000000
1877.273691	8824.333333
1878.218581	8745.333333
1879.163130	8712.000000
1880.107338	8802.333333
1881.051205	8766.333333
1881.994732	8805.333333
1882.937919	8830.000000
1883.880765	8859.333333
1884.823271	8815.000000
1885.765437	8867.000000
1886.707264	8874.666667
1887.648750	8817.000000
1888.589898	8980.666667
1889.530706	8875.000000
1890.471175	8896.000000
1891.411305	8899.666667
1892.351096	8881.000000
1893.290548	8913.000000
1894.229662	8902.333333
1895.168438	8968.333333
1896.106876	8945.000000
1897.044975	8956.000000
1897.982737	8882.333333
1898.920160	8776.333333
1899.857247	8815.666667
1900.793996	8864.333333
1901.730407	8805.333333
1902.666482	8811.666667
1903.602219	8712.333333
1904.537620	8690.666667
1905.472685	8684.666667
1906.407412	8625.000000
1907.341804	8566.000000
1908.275859	8540.000000
1909.209579	8526.666667
1910.142962	8375.333333
1911.076010	8457.666667
1912.008722	8353.333333
1912.941099	8422.333333
1913.873141	8293.666667
1914.804848	8271.666667
1915.736219	8279.333333
1916.667256	8226.000000
1917.597959	8141.333333
1918.528327	8088.000000
1919.458360	8113.000000
1920.388060	8078.666667
1921.317426	8032.000000
1922.246457	8097.333333
1923.175156	7921.333333
1924.103520	8071.000000
1925.031552	7996.000000
1925.959250	8028.666667
1926.886615	8037.000000
1927.813647	8041.666667
1928.740346	7931.333333
1929.666713	7996.666667
1930.592748	8031.000000
1931.518450	7904.666667
1932.443820	7980.000000
1933.368858	7906.000000
1934.293564	7948.333333
1935.217939	7860.000000
1936.141982	7882.000000
1937.065694	7855.666667
1937.989074	7883.666667
1938.912124	7865.333333
1939.834842	7780.000000
1940.757230	7874.333333
1941.679287	7772.666667
1942.601014	7707.666667
1943.522411	7735.000000
1944.443477	7692.666667
1945.364214	7634.333333
1946.284621	7583.333333
1947.204698	7588.666667
1948.124445	7622.666667
1949.043863	7503.666667
1949.962952	7520.666667
1950.881712	7535.000000
1951.800143	7429.333333
1952.718245	7400.000000
1953.636019	7393.333333
1954.553464	7427.333333
1955.470581	7371.000000
1956.387369	7324.666667
1957.303830	7320.000000
1958.219963	7324.333333
1959.135768	7355.666667
1960.051246	7331.333333
1960.966396	7296.333333
1961.881219	7340.000000
1962.795715	7318.333333
1963.709883	7362.333333
1964.623726	7380.666667
1965.537241	7387.666667
1966.450430	7472.000000
1967.363293	7352.666667
1968.275829	7396.666667
1969.188040	7386.000000
1970.099924	7439.000000
1971.011483	7436.333333
1971.922716	7488.000000
1972.833624	7405.000000
1973.744206	7350.000000
1974.654464	7422.666667
1975.564396	7406.333333
1976.474004	7384.666667
1977.383286	7366.000000
1978.292245	7412.000000
1979.200878	7385.333333
1980.109188	7363.666667
1981.017174	7183.333333
1981.924835	7340.000000
1982.832173	7278.333333
1983.739187	7323.666667
1984.645878	7169.333333
1985.552245	7214.000000
1986.458289	7106.000000
1987.364010	7114.666667
1988.269408	7024.333333
1989.174484	6974.666667
1990.079236	6938.333333
1990.983667	6877.000000
1991.887775	6850.000000
1992.791561	6891.000000
1993.695024	6897.666667
1994.598166	6869.333333
1995.500986	6750.000000
1996.403485	6700.333333
1997.305662	6738.666667
1998.207518	6745.666667
1999.109053	6715.000000
