200.151048	45350.666667
201.758777	45055.666667
203.365815	45055.333333
204.972162	45136.000000
206.577820	45081.333333
208.182787	44792.666667
209.787065	44959.333333
211.390653	44825.000000
212.993553	44795.333333
214.595765	44737.666667
216.197289	44676.000000
217.798125	44484.000000
219.398274	44554.666667
220.997737	44685.333333
222.596513	44533.333333
224.194603	44631.000000
225.792008	44642.666667
227.388728	44569.333333
228.984763	44508.333333
230.580114	44526.000000
232.174781	44604.666667
233.768765	44379.000000
235.362065	44408.333333
236.954683	44440.333333
238.546619	44390.666667
240.137872	44301.333333
241.728445	44153.000000
243.318336	44270.333333
244.907546	44085.333333
246.496076	44261.000000
248.083926	43891.666667
249.671097	43995.666667
251.257589	43874.000000
252.843402	43474.333333
254.428536	43491.333333
256.012993	43369.666667
257.596772	43569.333333
259.179874	43394.333333
260.762300	43259.000000
262.344049	43232.333333
263.925122	43417.000000
265.505519	43242.666667
267.085241	43125.000000
268.664289	43356.333333
270.242662	43027.666667
271.820361	43236.333333
273.397387	43128.666667
274.973740	43310.333333
276.549419	43414.333333
278.124426	43487.333333
279.698762	43329.000000
281.272425	43551.333333
282.845417	43529.000000
284.417739	43568.333333
285.989390	43543.333333
287.560371	43751.000000
289.130682	43541.000000
290.700324	43531.000000
292.269297	43574.333333
293.837602	43540.333333
295.405238	43677.333333
296.972207	43373.666667
298.538508	43560.333333
300.104142	43421.666667
301.669110	43563.666667
303.233411	43548.666667
304.797047	43147.666667
306.360017	43170.333333
307.922322	43036.333333
309.483963	42888.333333
311.044939	42886.000000
312.605252	42806.333333
314.164900	42606.000000
315.723886	42574.666667
317.282209	42521.000000
318.839870	42467.333333
320.396868	42313.666667
321.953205	42639.666667
323.508881	42541.000000
325.063896	42589.000000
326.618251	42369.666667
328.171945	42117.666667
329.724980	42272.666667
331.277356	42359.000000
332.829072	42127.333333
334.380131	42393.333333
335.930530	42352.333333
337.480273	42589.333333
339.029357	42523.666667
340.577785	42472.333333
342.125556	42460.666667
343.672671	42389.000000
345.219130	42468.000000
346.764933	42427.666667
348.310081	42522.666667
349.854575	42533.666667
351.398414	42499.666667
352.941599	42597.666667
354.484130	42430.333333
356.026008	42283.333333
357.567234	42494.000000
359.107807	42374.666667
360.647727	42343.666667
362.186996	42307.666667
363.725614	42298.333333
365.263580	42186.000000
366.800896	41968.333333
368.337562	42213.000000
369.873578	42034.666667
371.408944	41968.333333
372.943661	42207.666667
374.477730	42057.333333
376.011150	41897.000000
377.543922	42001.333333
379.076046	42018.333333
380.607523	41925.666667
382.138353	41976.333333
383.668537	41989.333333
385.198075	41748.000000
386.726966	41722.333333
388.255213	41921.666667
389.782814	41773.333333
391.309770	41748.666667
392.836083	41934.666667
394.361751	41732.666667
395.886776	41803.000000
397.411157	41816.333333
398.934896	41783.666667
400.457992	41810.000000
401.980446	41790.000000
403.502258	41827.666667
405.023429	41791.666667
406.543959	41837.666667
408.063849	41669.000000
409.583098	41951.333333
411.101707	41889.000000
412.619677	41877.666667
414.137007	42080.666667
415.653699	42134.666667
417.169752	42121.666667
418.685167	42092.333333
420.199945	42291.333333
421.714085	42373.000000
423.227588	42535.666667
424.740454	42362.000000
426.252684	42448.666667
427.764279	42537.333333
429.275238	42483.000000
430.785561	42450.000000
432.295250	42231.333333
433.804304	42253.000000
435.312725	42143.333333
436.820511	41995.666667
438.327664	41775.666667
439.834185	41790.333333
441.340072	41505.666667
442.845327	41534.666667
444.349951	41521.000000
445.853942	41195.333333
447.357303	41385.333333
448.860033	40961.333333
450.362132	40981.333333
451.863601	40888.666667
453.364440	40649.000000
454.864650	40790.000000
456.364231	40670.333333
457.863183	40541.666667
459.361507	40424.666667
460.859203	40395.333333
462.356271	40125.333333
463.852712	40087.666667
465.348526	40096.000000
466.843714	40157.666667
468.338275	39916.333333
469.832210	39843.666667
471.325520	39908.333333
472.818205	39771.333333
474.310265	39627.000000
475.801700	39793.333333
477.292512	39721.333333
478.782700	39514.666667
480.272264	39653.000000
481.761205	39588.666667
483.249524	39480.333333
484.737221	39380.000000
486.224295	39444.333333
487.710748	39461.000000
489.196579	39351.000000
490.681790	39302.666667
492.166380	39177.333333
493.650350	39239.666667
495.133700	39280.333333
496.616431	39149.666667
498.098542	39059.000000
499.580035	38983.666667
501.060909	39017.000000
502.541165	38824.000000
504.020804	38848.666667
505.499825	38925.000000
506.978228	38896.000000
508.456016	38794.333333
509.933186	38764.000000
511.409741	38755.000000
512.885680	38465.333333
514.361004	38636.333333
515.835713	38618.666667
517.309807	38609.000000
518.783287	38408.333333
520.256153	38507.333333
521.728406	38366.333333
523.200045	38467.666667
524.671071	38278.333333
526.141485	38303.000000
527.611287	38174.666667
529.080476	38310.333333
530.549054	38181.333333
532.017021	38208.333333
533.484378	38024.666667
534.951123	38034.000000
536.417259	38096.333333
537.882785	37998.000000
539.347701	37935.666667
540.812008	37861.000000
542.275707	37837.000000
543.738797	37944.000000
545.201279	37884.000000
546.663153	37895.333333
548.124420	37933.000000
549.585080	37746.333333
551.045133	37918.666667
552.504579	37675.666667
553.963420	37786.666667
555.421655	37985.333333
556.879285	37719.666667
558.336309	37750.333333
559.792729	37939.333333
561.248545	37905.666667
562.703756	37914.666667
564.158364	37851.000000
565.612369	37960.666667
567.065770	37852.000000
568.518569	37855.333333
569.970766	37948.666667
571.422361	37890.000000
572.873354	37981.666667
574.323745	37994.333333
575.773536	37941.000000
577.222726	38040.666667
578.671316	38173.333333
580.119306	38184.000000
581.566696	38115.666667
583.013487	37922.666667
584.459679	38090.666667
585.905273	37862.666667
587.350268	37714.333333
588.794665	37933.000000
590.238465	37716.666667
591.681667	37579.333333
593.124272	37485.333333
594.566281	37368.000000
596.007694	37317.000000
597.448510	37248.000000
598.888731	36988.666667
600.328357	36997.000000
601.767388	36935.000000
603.205824	36702.666667
604.643666	36723.666667
606.080914	36543.000000
607.517568	36647.666667
608.953629	36563.666667
610.389097	36656.666667
611.823972	36590.000000
613.258255	36373.666667
614.691946	36339.000000
616.125046	36216.000000
617.557554	36128.666667
618.989471	36000.666667
620.420798	35976.000000
621.851534	35914.666667
623.281680	35724.666667
624.711237	35711.333333
626.140204	35683.000000
627.568582	35429.666667
628.996372	35401.333333
630.423573	35396.000000
631.850186	35488.333333
633.276211	35499.666667
634.701650	35314.333333
636.126501	35460.666667
637.550765	35238.333333
638.974443	35132.000000
640.397535	35176.000000
641.820041	35165.333333
643.241961	34964.333333
644.663297	35052.666667
646.084048	34852.000000
647.504214	34897.666667
648.923796	34961.000000
650.342795	34819.333333
651.761210	34929.333333
653.179041	34798.333333
654.596290	34757.000000
656.012957	34885.666667
657.429041	34733.000000
658.844543	34695.666667
660.259464	34554.000000
661.673804	34452.333333
663.087563	34461.666667
664.500741	34361.000000
665.913339	34600.333333
667.325357	34341.333333
668.736795	34417.000000
670.147654	34487.666667
671.557934	34173.000000
672.967636	34297.000000
674.376759	34129.333333
675.785304	34215.000000
677.193271	34105.000000
678.600661	34084.666667
680.007474	34194.333333
681.413711	34031.666667
682.819370	33952.333333
684.224454	33992.666667
685.628962	33789.666667
687.032895	33841.666667
688.436252	33766.000000
689.839034	33651.000000
691.241242	33656.000000
692.642876	33524.333333
694.043936	33443.333333
695.444422	33640.666667
696.844336	33486.666667
698.243676	33542.666667
699.642443	33522.333333
701.040639	33356.000000
702.438262	33440.333333
703.835313	33397.666667
705.231794	33273.333333
706.627703	33346.666667
708.023041	33268.000000
709.417810	33210.333333
710.812008	33098.666667
712.205636	33215.000000
713.598694	33209.666667
714.991184	33006.333333
716.383105	33101.666667
717.774457	33014.000000
719.165241	33113.000000
720.555457	32922.000000
721.945105	32930.333333
723.334187	32772.333333
724.722701	32806.666667
726.110648	32879.666667
727.498030	32843.333333
728.884845	32661.666667
730.271094	32698.666667
731.656778	32674.666667
733.041897	32612.333333
734.426451	32700.000000
735.810441	32532.000000
737.193866	32678.666667
738.576728	32549.333333
739.959026	32679.000000
741.340760	32425.333333
742.721932	32392.666667
744.102541	32369.000000
745.482588	32275.666667
746.862073	32323.333333
748.240996	32416.000000
749.619358	32321.000000
750.997158	32306.333333
752.374398	32349.333333
753.751077	32190.666667
755.127197	32203.000000
756.502756	32148.333333
757.877756	32019.666667
759.252196	32063.666667
760.626078	32035.000000
761.999400	32008.666667
763.372165	31979.000000
764.744371	31878.333333
766.116020	31854.666667
767.487111	31723.666667
768.857646	31885.000000
770.227623	31688.000000
771.597044	31706.333333
772.965908	31599.333333
774.334217	31497.000000
775.701970	31550.333333
777.069168	31452.333333
778.435811	31470.333333
779.801899	31400.000000
781.167433	31292.333333
782.532412	31222.000000
783.896838	31081.333333
785.260710	31104.666667
786.624029	31212.666667
787.986796	31084.000000
789.349009	31097.666667
790.710671	31029.666667
792.071780	30857.666667
793.432338	30828.333333
794.792344	30902.666667
796.151799	30839.333333
797.510704	30932.666667
798.869058	30764.666667
800.226862	30834.666667
801.584116	30653.000000
802.940820	30752.333333
804.296975	30516.000000
805.652581	30651.000000
807.007638	30498.666667
808.362147	30512.000000
809.716108	30594.666667
811.069521	30569.000000
812.422387	30542.666667
813.774705	30618.333333
815.126476	30414.666667
816.477701	30457.666667
817.828380	30385.000000
819.178512	30211.666667
820.528099	30444.000000
821.877140	30516.333333
823.225637	30064.666667
824.573588	30170.666667
825.920995	30273.666667
827.267857	30307.333333
828.614176	30174.000000
829.959951	30091.333333
831.305183	30175.666667
832.649871	29958.000000
833.994017	29990.333333
835.337620	30022.333333
836.680681	30058.333333
838.023201	29847.333333
839.365178	29862.333333
840.706614	29960.333333
842.047510	29878.666667
843.387864	30001.666667
844.727678	29836.666667
846.066952	29998.333333
847.405687	29920.333333
848.743881	29932.666667
850.081537	29903.000000
851.418653	29905.333333
852.755231	30008.333333
854.091270	29886.333333
855.426771	30006.333333
856.761735	29922.333333
858.096160	29755.666667
859.430049	29637.666667
860.763401	29741.000000
862.096216	29573.333333
863.428495	29493.666667
864.760237	29704.333333
866.091444	29368.666667
867.422115	29216.333333
868.752252	29189.000000
870.081853	29175.000000
871.410919	29225.000000
872.739452	29177.333333
874.067450	29136.333333
875.394914	29030.333333
876.721845	29100.000000
878.048243	29128.666667
879.374108	28972.000000
880.699440	28948.333333
882.024240	28971.000000
883.348508	28903.000000
884.672244	28732.666667
885.995449	28782.666667
887.318122	28661.666667
888.640265	28583.000000
889.961877	28548.666667
891.282959	28530.666667
892.603510	28432.333333
893.923532	28437.333333
895.243024	28363.333333
896.561987	28175.000000
897.880422	28299.666667
899.198327	28232.000000
900.515705	28245.000000
901.832554	28154.000000
903.148875	28102.666667
904.464669	28155.666667
905.779936	27922.666667
907.094676	28002.000000
908.408889	28090.000000
909.722576	28134.333333
911.035737	28214.333333
912.348371	28041.000000
913.660481	28119.666667
914.972065	28150.000000
916.283124	28346.666667
917.593659	28348.333333
918.903669	28382.666667
920.213155	28238.666667
921.522117	28369.333333
922.830556	28223.666667
924.138471	28442.666667
925.445864	28263.333333
926.752733	28269.000000
928.059081	28211.333333
929.364906	28073.000000
930.670209	28115.000000
931.974991	28011.333333
933.279251	28064.666667
934.582990	27990.666667
935.886209	28130.333333
937.188907	28166.000000
938.491085	28261.000000
939.792743	28420.000000
941.093881	28337.333333
942.394500	28625.333333
943.694600	28790.333333
944.994181	28916.000000
946.293243	29125.666667
947.591787	29314.333333
948.889813	30096.000000
950.187322	30299.000000
951.484313	30738.000000
952.780787	31336.000000
954.076744	31893.000000
955.372184	32512.666667
956.667108	32846.333333
957.961516	33082.666667
959.255409	33363.333333
960.548785	32901.333333
961.841647	32465.333333
963.133993	31938.666667
964.425825	31352.333333
965.717142	30523.666667
967.007946	29889.333333
968.298235	28978.000000
969.588011	28631.000000
970.877273	28190.000000
972.166023	27750.000000
973.454259	27468.666667
974.741984	27197.333333
976.029196	26711.000000
977.315895	26644.666667
978.602084	26452.333333
979.887761	26423.333333
981.172926	26212.000000
982.457581	26249.666667
983.741725	26233.000000
985.025359	26045.000000
986.308483	26026.333333
987.591097	25914.333333
988.873202	25777.666667
990.154797	25907.666667
991.435883	25664.000000
992.716461	25757.666667
993.996530	25758.000000
995.276091	25700.666667
996.555144	25878.000000
997.833690	25680.000000
999.111728	25892.666667
1000.389259	25717.666667
1001.666283	25807.000000
1002.942800	25706.333333
1004.218812	25736.000000
1005.494317	25648.333333
1006.769317	25690.666667
1008.043811	25522.333333
1009.317799	25603.333333
1010.591283	25535.000000
1011.864263	25358.666667
1013.136737	25396.000000
1014.408708	25523.000000
1015.680175	25365.666667
1016.951138	25436.000000
1018.221598	25444.333333
1019.491554	25307.666667
1020.761008	25385.666667
1022.029959	25410.000000
1023.298408	25453.333333
1024.566355	25454.333333
1025.833800	25392.000000
1027.100744	25208.666667
1028.367187	25331.333333
1029.633128	25284.333333
1030.898569	25357.000000
1032.163509	25333.333333
1033.427949	25383.333333
1034.691890	25266.333333
1035.955330	25194.333333
1037.218271	25369.000000
1038.480714	25163.666667
1039.742657	25273.666667
1041.004101	25308.000000
1042.265048	25206.333333
1043.525496	25228.000000
1044.785446	25077.000000
1046.044899	25169.333333
1047.303855	25229.333333
1048.562313	25058.333333
1049.820275	25133.333333
1051.077740	25021.333333
1052.334709	24992.666667
1053.591182	24882.666667
1054.847160	24822.666667
1056.102641	24834.333333
1057.357628	24943.333333
1058.612120	24846.000000
1059.866117	24848.666667
1061.119619	24783.000000
1062.372628	24895.666667
1063.625142	24837.000000
1064.877163	24885.666667
1066.128691	24772.333333
1067.379725	24868.333333
1068.630267	24705.333333
1069.880316	24712.666667
1071.129872	24827.666667
1072.378937	24793.666667
1073.627509	24693.333333
1074.875590	24645.000000
1076.123180	24533.666667
1077.370279	24383.000000
1078.616887	24375.666667
1079.863004	24173.000000
1081.108631	24197.666667
1082.353768	23992.666667
1083.598415	23766.333333
1084.842573	23793.333333
1086.086241	23708.333333
1087.329421	23501.666667
1088.572111	23593.666667
1089.814314	23481.000000
1091.056028	23443.666667
1092.297253	23436.333333
1093.537992	23346.000000
1094.778242	23330.000000
1096.018006	23102.666667
1097.257282	23180.000000
1098.496072	23183.333333
1099.734376	23212.333333
1100.972193	23348.000000
1102.209524	23108.000000
1103.446370	23076.666667
1104.682730	23026.333333
1105.918604	22984.000000
1107.153994	23000.666667
1108.388900	22894.000000
1109.623320	22917.000000
1110.857257	22879.333333
1112.090710	22901.333333
1113.323679	22622.666667
1114.556164	22738.000000
1115.788167	22692.000000
1117.019686	22610.666667
1118.250723	22659.333333
1119.481278	22573.000000
1120.711350	22433.000000
1121.940940	22607.333333
1123.170049	22514.333333
1124.398676	22580.333333
1125.626823	22456.333333
1126.854488	22441.666667
1128.081672	22424.333333
1129.308376	22292.000000
1130.534600	22370.000000
1131.760345	22318.666667
1132.985609	22272.333333
1134.210394	22361.666667
1135.434700	22223.666667
1136.658527	22100.333333
1137.881875	22253.000000
1139.104745	22204.000000
1140.327136	22162.666667
1141.549050	22127.333333
1142.770486	22196.666667
1143.991445	22241.666667
1145.211926	22081.000000
1146.431931	22042.333333
1147.651459	21978.000000
1148.870510	22026.666667
1150.089086	21997.000000
1151.307185	21991.333333
1152.524808	21946.666667
1153.741957	21890.666667
1154.958630	21949.333333
1156.174828	21822.000000
1157.390551	21868.000000
1158.605800	21872.000000
1159.820574	21705.000000
1161.034875	21772.333333
1162.248702	21647.333333
1163.462055	21795.666667
1164.674936	21654.333333
1165.887343	21702.333333
1167.099277	21805.000000
1168.310739	21730.000000
1169.521729	21542.333333
1170.732247	21600.000000
1171.942293	21682.000000
1173.151867	21583.666667
1174.360970	21782.000000
1175.569602	21605.000000
1176.777764	21584.666667
1177.985454	21494.333333
1179.192675	21484.333333
1180.399425	21436.666667
1181.605706	21363.333333
1182.811517	21264.666667
1184.016859	21254.333333
1185.221731	21248.333333
1186.426135	21251.000000
1187.630070	21158.333333
1188.833537	20959.000000
1190.036535	20985.666667
1191.239066	21056.333333
1192.441129	21191.333333
1193.642725	21053.000000
1194.843853	20911.666667
1196.044515	21025.000000
1197.244710	20871.333333
1198.444438	20880.333333
1199.643701	20942.666667
1200.842497	20839.666667
1202.040827	20883.333333
1203.238693	20782.333333
1204.436092	20819.666667
1205.633027	20788.333333
1206.829497	20750.333333
1208.025503	20864.666667
1209.221044	20675.333333
1210.416122	20703.000000
1211.610735	20715.666667
1212.804885	20511.000000
1213.998572	20519.333333
1215.191795	20435.333333
1216.384556	20261.666667
1217.576854	20420.000000
1218.768689	20345.333333
1219.960063	20286.666667
1221.150974	20286.666667
1222.341424	20198.666667
1223.531413	20244.666667
1224.720940	20258.666667
1225.910006	20097.000000
1227.098612	20210.333333
1228.286757	20256.000000
1229.474442	20210.333333
1230.661667	20359.000000
1231.848432	20286.333333
1233.034738	20389.000000
1234.220584	20517.333333
1235.405971	20351.666667
1236.590900	20383.000000
1237.775369	20351.000000
1238.959381	20482.000000
1240.142934	20386.666667
1241.326029	20524.666667
1242.508667	20417.333333
1243.690848	20434.666667
1244.872571	20477.666667
1246.053837	20502.000000
1247.234646	20359.666667
1248.414999	20394.666667
1249.594896	20298.333333
1250.774337	20227.333333
1251.953322	20201.666667
1253.131851	20305.333333
1254.309925	20139.333333
1255.487544	20159.333333
1256.664708	20095.000000
1257.841417	20040.333333
1259.017673	20103.333333
1260.193473	20032.666667
1261.368820	20019.666667
1262.543714	19988.666667
1263.718154	20022.666667
1264.892140	20023.666667
1266.065674	20076.666667
1267.238755	20077.000000
1268.411383	20051.000000
1269.583559	20085.666667
1270.755283	20012.333333
1271.926555	20015.333333
1273.097375	20048.333333
1274.267744	20023.333333
1275.437662	19947.333333
1276.607129	19986.333333
1277.776145	19880.000000
1278.944711	19853.000000
1280.112827	19778.333333
1281.280492	19769.666667
1282.447708	19782.333333
1283.614474	19631.333333
1284.780791	19552.666667
1285.946659	19590.000000
1287.112078	19534.000000
1288.277048	19495.000000
1289.441570	19367.000000
1290.605644	19172.000000
1291.769270	19269.333333
1292.932448	19241.000000
1294.095178	19168.666667
1295.257461	19239.666667
1296.419298	19169.333333
1297.580687	19045.333333
1298.741630	19097.000000
1299.902126	19045.000000
1301.062177	19018.333333
1302.221781	18948.000000
1303.380940	19075.333333
1304.539653	19139.000000
1305.697921	19034.666667
1306.855744	19020.000000
1308.013123	19024.333333
1309.170056	18976.333333
1310.326546	18892.333333
1311.482591	18957.000000
1312.638193	18881.000000
1313.793350	18947.666667
1314.948065	18817.333333
1316.102336	18834.666667
1317.256164	18854.000000
1318.409550	18800.666667
1319.562493	18851.666667
1320.714993	18712.666667
1321.867052	18577.000000
1323.018668	18659.666667
1324.169843	18547.000000
1325.320577	18519.333333
1326.470870	18500.000000
1327.620721	18360.666667
1328.770132	18403.333333
1329.919102	18341.000000
1331.067632	18309.666667
1332.215722	18335.333333
1333.363372	18404.333333
1334.510582	18273.666667
1335.657353	18296.666667
1336.803685	18356.666667
1337.949578	18231.000000
1339.095032	18356.666667
1340.240048	18257.333333
1341.384625	18415.333333
1342.528764	18237.000000
1343.672466	18216.000000
1344.815729	18189.333333
1345.958556	18231.000000
1347.100945	18208.000000
1348.242897	18190.333333
1349.384413	18104.666667
1350.525492	18161.000000
1351.666134	18122.333333
1352.806341	18045.666667
1353.946111	18131.000000
1355.085446	18042.666667
1356.224346	17956.333333
1357.362810	17998.333333
1358.500840	17859.000000
1359.638434	17806.000000
1360.775594	17841.333333
1361.912320	17739.666667
1363.048612	17706.333333
1364.184469	17672.666667
1365.319893	17655.333333
1366.454884	17563.000000
1367.589441	17621.666667
1368.723566	17597.666667
1369.857257	17587.666667
1370.990516	17610.333333
1372.123343	17635.666667
1373.255737	17681.666667
1374.387699	17623.333333
1375.519230	17689.333333
1376.650329	17678.000000
1377.780997	17647.666667
1378.911234	17683.666667
1380.041040	17699.000000
1381.170416	17627.333333
1382.299361	17690.000000
1383.427875	17659.000000
1384.555960	17640.666667
1385.683615	17588.666667
1386.810841	17563.000000
1387.937637	17585.666667
1389.064004	17486.000000
1390.189942	17530.666667
1391.315451	17453.666667
1392.440532	17475.333333
1393.565185	17330.000000
1394.689409	17491.666667
1395.813206	17387.333333
1396.936575	17264.000000
1398.059517	17390.000000
1399.182032	17268.666667
1400.304119	17296.333333
1401.425780	17226.000000
1402.547014	17227.000000
1403.667822	17186.666667
1404.788204	17185.666667
1405.908160	17167.666667
1407.027690	17181.666667
1408.146795	17085.666667
1409.265474	17115.000000
1410.383728	17179.333333
1411.501558	17179.666667
1412.618963	17062.666667
1413.735943	17243.000000
1414.852499	17203.333333
1415.968632	17141.000000
1417.084340	17101.000000
1418.199625	16966.000000
1419.314486	16996.333333
1420.428925	17117.000000
1421.542940	17008.666667
1422.656533	17048.666667
1423.769703	16995.666667
1424.882451	17044.666667
1425.994777	17109.000000
1427.106680	16883.000000
1428.218163	16907.666667
1429.329223	16865.666667
1430.439863	16828.000000
1431.550081	16721.000000
1432.659879	16759.000000
1433.769256	16719.000000
1434.878212	16612.000000
1435.986749	16586.333333
1437.094865	16638.000000
1438.202562	16673.333333
1439.309839	16599.000000
1440.416696	16651.333333
1441.523135	16558.000000
1442.629154	16634.333333
1443.734755	16629.333333
1444.839937	16572.666667
1445.944701	16650.666667
1447.049047	16642.000000
1448.152975	16590.333333
1449.256485	16777.666667
1450.359577	16837.000000
1451.462253	16595.000000
1452.564511	16709.666667
1453.666352	16667.333333
1454.767777	16658.333333
1455.868785	16515.666667
1456.969377	16531.666667
1458.069553	16540.333333
1459.169313	16563.000000
1460.268658	16471.666667
1461.367587	16397.666667
1462.466101	16339.000000
1463.564200	16382.333333
1464.661884	16237.666667
1465.759153	16214.333333
1466.856008	16131.333333
1467.952449	16044.333333
1469.048476	16027.333333
1470.144089	15880.333333
1471.239288	15735.000000
1472.334074	15661.666667
1473.428447	15722.000000
1474.522407	15672.333333
1475.615955	15545.333333
1476.709089	15445.333333
1477.801812	15350.666667
1478.894122	15464.333333
1479.986020	15332.000000
1481.077506	15353.333333
1482.168581	15268.333333
1483.259245	15354.333333
1484.349498	15346.666667
1485.439339	15423.333333
1486.528770	15255.333333
1487.617790	15313.000000
1488.706400	15311.333333
1489.794600	15209.000000
1490.882390	15313.666667
1491.969771	15194.333333
1493.056742	15233.333333
1494.143303	15175.000000
1495.229456	15241.000000
1496.315199	15194.666667
1497.400534	15160.333333
1498.485460	15096.666667
1499.569978	15039.666667
1500.654088	15121.333333
1501.737790	15054.000000
1502.821085	15016.333333
1503.903972	14863.000000
1504.986451	14929.000000
1506.068524	14983.000000
1507.150189	14810.000000
1508.231448	14757.333333
1509.312301	14737.333333
1510.392747	14771.333333
1511.472787	14723.000000
1512.552422	14748.333333
1513.631650	14672.000000
1514.710473	14702.666667
1515.788891	14628.000000
1516.866904	14565.000000
1517.944512	14555.333333
1519.021715	14587.333333
1520.098513	14585.666667
1521.174908	14645.000000
1522.250898	14465.333333
1523.326485	14570.333333
1524.401667	14619.000000
1525.476447	14534.000000
1526.550823	14574.333333
1527.624796	14611.333333
1528.698365	14659.666667
1529.771533	14562.666667
1530.844298	14585.000000
1531.916660	14567.666667
1532.988620	14583.000000
1534.060179	14550.333333
1535.131336	14488.333333
1536.202091	14450.333333
1537.272445	14444.666667
1538.342398	14480.333333
1539.411950	14315.333333
1540.481101	14260.000000
1541.549851	14297.333333
1542.618202	14214.666667
1543.686152	14188.666667
1544.753702	14162.333333
1545.820853	14202.000000
1546.887604	14138.000000
1547.953955	13981.333333
1549.019908	13990.333333
1550.085461	13983.333333
1551.150616	13939.000000
1552.215372	14057.333333
1553.279730	13940.000000
1554.343690	13898.000000
1555.407252	13951.666667
1556.470415	13905.666667
1557.533182	13855.666667
1558.595551	13845.666667
1559.657522	13876.666667
1560.719097	13792.333333
1561.780275	13808.000000
1562.841056	13865.333333
1563.901441	13848.000000
1564.961429	13959.666667
1566.021022	13828.000000
1567.080219	13784.000000
1568.139020	13861.333333
1569.197425	13714.000000
1570.255436	13653.333333
1571.313051	13804.666667
1572.370271	13780.666667
1573.427097	13745.000000
1574.483528	13708.333333
1575.539565	13732.666667
1576.595208	13490.333333
1577.650457	13653.000000
1578.705312	13544.000000
1579.759774	13464.000000
1580.813842	13568.000000
1581.867517	13490.000000
1582.920799	13446.333333
1583.973689	13366.000000
1585.026186	13277.333333
1586.078290	13320.000000
1587.130002	13181.000000
1588.181323	13268.666667
1589.232251	13191.000000
1590.282788	13084.666667
1591.332933	13234.000000
1592.382688	13173.000000
1593.432051	13150.666667
1594.481023	13161.666667
1595.529605	13148.333333
1596.577796	13180.666667
1597.625597	13222.333333
1598.673007	13092.333333
1599.720028	13230.333333
1600.766660	13181.000000
1601.812901	13212.000000
1602.858753	13320.000000
1603.904217	13269.666667
1604.949291	13206.333333
1605.993976	13222.333333
1607.038273	13252.666667
1608.082182	13233.666667
1609.125702	13102.333333
1610.168834	13188.666667
1611.211579	13083.333333
1612.253935	13108.666667
1613.295905	13152.333333
1614.337487	13050.000000
1615.378682	12997.333333
1616.419490	12957.666667
1617.459912	12943.333333
1618.499946	12931.666667
1619.539595	12876.333333
1620.578858	12793.000000
1621.617734	12888.000000
1622.656225	12807.666667
1623.694330	12791.333333
1624.732050	12676.666667
1625.769385	12658.333333
1626.806334	12647.666667
1627.842899	12645.666667
1628.879079	12707.666667
1629.914875	12742.333333
1630.950286	12676.666667
1631.985314	12661.666667
1633.019957	12592.666667
1634.054217	12566.000000
1635.088093	12678.666667
1636.121586	12680.000000
1637.154696	12638.666667
1638.187423	12689.333333
1639.219767	12560.666667
1640.251728	12697.333333
1641.283307	12758.666667
1642.314504	12668.333333
1643.345319	12834.666667
1644.375751	12760.333333
1645.405803	12601.333333
1646.435472	12720.333333
1647.464761	12578.666667
1648.493668	12558.000000
1649.522194	12598.000000
1650.550340	12652.000000
1651.578105	12561.666667
1652.605490	12543.333333
1653.632494	12468.333333
1654.659119	12408.333333
1655.685363	12468.000000
1656.711228	12381.333333
1657.736714	12353.666667
1658.761820	12422.333333
1659.786547	12301.000000
1660.810895	12309.000000
1661.834865	12263.666667
1662.858456	12231.333333
1663.881668	12224.666667
1664.904503	12124.000000
1665.926959	12067.666667
1666.949038	12046.666667
1667.970739	11938.333333
1668.992062	11913.666667
1670.013008	11891.000000
1671.033577	11907.666667
1672.053770	11908.333333
1673.073585	11842.333333
1674.093024	11872.666667
1675.112086	11817.333333
1676.130773	11776.666667
1677.149083	11767.666667
1678.167017	11823.666667
1679.184576	11731.000000
1680.201760	11784.666667
1681.218568	11778.000000
1682.235001	11852.666667
1683.251059	11718.666667
1684.266742	11754.000000
1685.282051	11687.000000
1686.296985	11809.000000
1687.311546	11731.333333
1688.325732	11644.666667
1689.339544	11690.000000
1690.352983	11677.333333
1691.366048	11573.666667
1692.378740	11560.333333
1693.391058	11517.666667
1694.403004	11409.333333
1695.414577	11365.333333
1696.425778	11360.000000
1697.436606	11285.666667
1698.447061	11316.000000
1699.457145	11245.333333
1700.466857	11228.000000
1701.476197	11187.000000
1702.485166	11186.333333
1703.493763	11056.000000
1704.501989	11058.666667
1705.509844	11055.000000
1706.517328	10946.666667
1707.524442	10952.000000
1708.531185	10963.666667
1709.537558	10881.666667
1710.543561	11021.000000
1711.549194	10941.000000
1712.554457	10929.666667
1713.559351	10903.333333
1714.563875	10935.333333
1715.568030	10961.666667
1716.571816	10843.666667
1717.575233	10943.000000
1718.578282	10952.333333
1719.580962	11034.000000
1720.583273	11081.000000
1721.585217	11097.333333
1722.586792	11010.333333
1723.588000	11091.666667
1724.588840	11076.333333
1725.589312	11089.666667
1726.589418	11043.000000
1727.589156	11038.666667
1728.588527	11032.000000
1729.587532	11133.333333
1730.586170	11027.000000
1731.584441	10983.000000
1732.582346	11002.666667
1733.579886	10946.000000
1734.577059	10976.333333
1735.573867	10964.000000
1736.570309	10922.333333
1737.566386	10824.333333
1738.562097	10898.000000
1739.557444	10785.666667
1740.552426	10758.666667
1741.547043	10733.333333
1742.541295	10689.333333
1743.535184	10629.666667
1744.528708	10648.333333
1745.521868	10556.333333
1746.514664	10635.333333
1747.507097	10578.666667
1748.499166	10532.666667
1749.490873	10541.333333
1750.482216	10525.333333
1751.473196	10369.000000
1752.463813	10482.000000
1753.454068	10410.333333
1754.443960	10383.333333
1755.433490	10507.666667
1756.422658	10396.333333
1757.411464	10435.333333
1758.399908	10399.666667
1759.387991	10356.000000
1760.375713	10307.666667
1761.363073	10346.000000
1762.350072	10234.000000
1763.336711	10208.000000
1764.322988	10314.000000
1765.308905	10262.333333
1766.294462	10171.666667
1767.279659	10192.333333
1768.264496	10186.666667
1769.248972	10119.000000
1770.233089	10118.333333
1771.216847	10036.333333
1772.200245	10018.000000
1773.183284	9969.666667
1774.165965	9989.333333
1775.148286	9921.333333
1776.130249	9823.666667
1777.111853	9878.666667
1778.093099	9747.000000
1779.073987	9695.666667
1780.054517	9765.333333
1781.034689	9619.666667
1782.014503	9676.000000
1782.993960	9618.666667
1783.973060	9445.666667
1784.951802	9432.666667
1785.930188	9407.000000
1786.908217	9399.000000
1787.885889	9368.666667
1788.863205	9362.666667
1789.840164	9307.333333
1790.816768	9255.333333
1791.793015	9301.666667
1792.768907	9276.333333
1793.744443	9245.333333
1794.719624	9237.333333
1795.694449	9247.666667
1796.668919	9204.000000
1797.643035	9209.333333
1798.616795	9188.666667
1799.590201	9279.000000
1800.563253	9316.000000
1801.535950	9291.000000
1802.508294	9240.666667
1803.480283	9291.000000
1804.451919	9271.000000
1805.423201	9355.000000
1806.394129	9356.333333
1807.364705	9253.666667
1808.334927	9333.666667
1809.304796	9335.666667
1810.274313	9312.333333
1811.243477	9313.000000
1812.212288	9332.666667
1813.180747	9303.666667
1814.148855	9297.000000
1815.116610	9356.333333
1816.084013	9222.666667
1817.051065	9282.333333
1818.017766	9362.333333
1818.984115	9239.333333
1819.950113	9265.333333
1820.915760	9272.333333
1821.881057	9183.000000
1822.846003	9214.333333
1823.810598	9253.666667
1824.774843	9174.666667
1825.738738	9165.000000
1826.702283	9136.000000
1827.665479	9109.666667
1828.628324	9157.666667
1829.590821	9156.333333
1830.552968	9020.000000
1831.514765	8988.000000
1832.476214	9024.000000
1833.437314	8980.000000
1834.398066	8994.333333
1835.358469	9018.666667
1836.318524	8943.000000
1837.278230	8954.666667
1838.237589	8983.333333
1839.196600	8899.666667
1840.155263	8871.666667
1841.113578	8924.000000
1842.071547	8902.666667
1843.029168	8917.000000
1843.986442	8954.000000
1844.943369	8982.333333
1845.899950	8893.000000
1846.856184	8847.000000
1847.812072	8872.000000
1848.767614	8982.000000
1849.722809	8825.333333
1850.677659	8829.000000
1851.632163	8839.333333
1852.586322	8719.333333
1853.540135	8699.000000
1854.493603	8727.333333
1855.446726	8695.000000
1856.399504	8622.000000
1857.351937	8598.000000
1858.304026	8600.666667
1859.255770	8598.333333
1860.207170	8516.666667
1861.158227	8428.333333
1862.108939	8520.000000
1863.059307	8405.666667
1864.009332	8396.333333
1864.959013	8318.333333
1865.908351	8327.000000
1866.857346	8293.000000
1867.805998	8249.666667
1868.754307	8230.333333
1869.702274	8181.000000
1870.649898	8142.333333
1871.597180	8118.000000
1872.544119	8022.666667
1873.490717	8081.666667
1874.436973	8042.666667
1875.382887	8002.666667
1876.328459	7939.333333
1877.273691	7978.000000
1878.218581	8018.666667
1879.163130	8008.000000
1880.107338	8106.000000
1881.051205	7960.000000
1881.994732	8002.000000
1882.937919	8026.666667
1883.880765	8098.333333
1884.823271	7957.333333
1885.765437	8041.666667
1886.707264	8075.000000
1887.648750	8077.666667
1888.589898	8064.000000
1889.530706	8153.000000
1890.471175	8085.333333
1891.411305	8120.000000
1892.351096	8056.333333
1893.290548	8021.000000
1894.229662	8172.000000
1895.168438	8071.333333
1896.106876	8116.333333
1897.044975	8025.666667
1897.982737	8054.000000
1898.920160	8034.333333
1899.857247	7974.666667
1900.793996	7987.000000
1901.730407	8082.000000
1902.666482	7953.000000
1903.602219	7956.666667
1904.537620	7893.333333
1905.472685	7900.666667
1906.407412	7806.666667
1907.341804	7765.666667
1908.275859	7808.000000
1909.209579	7750.333333
1910.142962	7643.666667
1911.076010	7637.000000
1912.008722	7618.000000
1912.941099	7616.666667
1913.873141	7535.333333
1914.804848	7448.333333
1915.736219	7478.333333
1916.667256	7457.666667
1917.597959	7452.333333
1918.528327	7316.333333
1919.458360	7314.333333
1920.388060	7334.666667
1921.317426	7332.333333
1922.246457	7325.666667
1923.175156	7331.000000
1924.103520	7346.333333
1925.031552	7288.333333
1925.959250	7340.666667
1926.886615	7283.666667
1927.813647	7271.000000
1928.740346	7212.333333
1929.666713	7220.666667
1930.592748	7206.000000
1931.518450	7256.000000
1932.443820	7251.333333
1933.368858	7271.333333
1934.293564	7270.666667
1935.217939	7207.666667
1936.141982	7216.000000
1937.065694	7147.333333
1937.989074	7146.000000
1938.912124	7121.666667
1939.834842	7190.666667
1940.757230	7111.000000
1941.679287	7093.000000
1942.601014	7025.666667
1943.522411	7015.333333
1944.443477	7019.000000
1945.364214	6919.333333
1946.284621	6990.000000
1947.204698	6904.333333
1948.124445	6918.666667
1949.043863	6884.000000
1949.962952	6802.000000
1950.881712	6760.666667
1951.800143	6754.333333
1952.718245	6748.000000
1953.636019	6701.000000
1954.553464	6689.000000
1955.470581	6671.333333
1956.387369	6716.333333
1957.303830	6590.333333
1958.219963	6721.000000
1959.135768	6655.666667
1960.051246	6628.000000
1960.966396	6723.000000
1961.881219	6657.666667
1962.795715	6709.666667
1963.709883	6651.666667
1964.623726	6724.666667
1965.537241	6740.666667
1966.450430	6630.000000
1967.363293	6749.666667
1968.275829	6660.000000
1969.188040	6694.000000
1970.099924	6756.000000
1971.011483	6703.000000
1971.922716	6704.333333
1972.833624	6796.000000
1973.744206	6726.000000
1974.654464	6721.666667
1975.564396	6661.000000
1976.474004	6719.000000
1977.383286	6646.333333
1978.292245	6760.333333
1979.200878	6693.666667
1980.109188	6654.000000
1981.017174	6667.666667
1981.924835	6583.333333
1982.832173	6569.666667
1983.739187	6589.000000
1984.645878	6551.666667
1985.552245	6523.666667
1986.458289	6388.000000
1987.364010	6395.666667
1988.269408	6387.666667
1989.174484	6321.333333
1990.079236	6285.666667
1990.983667	6266.000000
1991.887775	6293.333333
1992.791561	6258.000000
1993.695024	6146.000000
1994.598166	6167.666667
1995.500986	6163.333333
1996.403485	6166.666667
1997.305662	6106.000000
1998.207518	6097.000000
1999.109053	6050.000000
