200.151048	44378.000000
201.758777	44099.666667
203.365815	44121.333333
204.972162	43981.333333
206.577820	43880.333333
208.182787	43769.333333
209.787065	43708.333333
211.390653	43635.000000
212.993553	43746.666667
214.595765	43579.666667
216.197289	43666.000000
217.798125	43383.333333
219.398274	43390.333333
220.997737	43363.333333
222.596513	43333.666667
224.194603	43139.666667
225.792008	43294.666667
227.388728	43201.000000
228.984763	43049.666667
230.580114	43087.000000
232.174781	42991.000000
233.768765	42854.666667
235.362065	42832.666667
236.954683	42682.333333
238.546619	42803.333333
240.137872	42759.666667
241.728445	42504.333333
243.318336	42432.666667
244.907546	42484.333333
246.496076	42402.333333
248.083926	42225.000000
249.671097	42074.000000
251.257589	42008.333333
252.843402	41778.666667
254.428536	41782.666667
256.012993	41772.000000
257.596772	41572.666667
259.179874	41545.666667
260.762300	41493.333333
262.344049	41317.333333
263.925122	41101.333333
265.505519	41143.333333
267.085241	41048.000000
268.664289	41189.000000
270.242662	41033.333333
271.820361	41215.000000
273.397387	41018.000000
274.973740	41075.666667
276.549419	41065.333333
278.124426	40930.333333
279.698762	41147.000000
281.272425	41245.666667
282.845417	41243.666667
284.417739	41069.000000
285.989390	41016.333333
287.560371	41328.333333
289.130682	41132.000000
290.700324	41165.000000
292.269297	40946.333333
293.837602	41163.666667
295.405238	40914.333333
296.972207	40965.666667
298.538508	40867.333333
300.104142	40902.333333
301.669110	40651.666667
303.233411	40869.666667
304.797047	40512.666667
306.360017	40663.000000
307.922322	40427.000000
309.483963	40320.000000
311.044939	40104.000000
312.605252	40046.000000
314.164900	39949.333333
315.723886	39856.333333
317.282209	39705.666667
318.839870	39658.333333
320.396868	39540.000000
321.953205	39309.333333
323.508881	39353.333333
325.063896	39239.666667
326.618251	39264.666667
328.171945	39205.333333
329.724980	39140.333333
331.277356	39248.666667
332.829072	39127.666667
334.380131	39120.666667
335.930530	39133.000000
337.480273	39066.000000
339.029357	38782.000000
340.577785	38987.000000
342.125556	39030.333333
343.672671	38951.000000
345.219130	38958.333333
346.764933	38891.333333
348.310081	38944.666667
349.854575	39078.000000
351.398414	38905.000000
352.941599	38900.000000
354.484130	38717.333333
356.026008	38674.333333
357.567234	38873.666667
359.107807	38548.333333
360.647727	38605.333333
362.186996	38636.666667
363.725614	38548.333333
365.263580	38457.333333
366.800896	38560.000000
368.337562	38503.000000
369.873578	38507.000000
371.408944	38340.000000
372.943661	38250.000000
374.477730	38402.666667
376.011150	38269.333333
377.543922	38418.333333
379.076046	38375.333333
380.607523	38486.000000
382.138353	38442.333333
383.668537	38522.666667
385.198075	38401.666667
386.726966	38520.666667
388.255213	38420.333333
389.782814	38482.000000
391.309770	38520.666667
392.836083	38501.666667
394.361751	38565.000000
395.886776	38502.000000
397.411157	38494.000000
398.934896	38744.333333
400.457992	38810.000000
401.980446	38810.333333
403.502258	38889.666667
405.023429	38947.333333
406.543959	39009.666667
408.063849	38948.666667
409.583098	39172.333333
411.101707	39302.666667
412.619677	39515.000000
414.137007	39741.333333
415.653699	39941.333333
417.169752	40164.666667
418.685167	40437.333333
420.199945	40703.333333
421.714085	41050.333333
423.227588	41230.000000
424.740454	41515.666667
426.252684	41757.000000
427.764279	41833.666667
429.275238	41841.000000
430.785561	41909.333333
432.295250	41526.000000
433.804304	41234.333333
435.312725	41125.333333
436.820511	40880.000000
438.327664	40462.000000
439.834185	40538.333333
441.340072	40090.666667
442.845327	40153.333333
444.349951	39880.666667
445.853942	39869.333333
447.357303	39756.333333
448.860033	39407.000000
450.362132	39263.666667
451.863601	39080.666667
453.364440	38794.000000
454.864650	38572.666667
456.364231	38494.666667
457.863183	38248.666667
459.361507	37985.333333
460.859203	38028.000000
462.356271	37678.666667
463.852712	37518.666667
465.348526	37242.333333
466.843714	37066.666667
468.338275	37017.333333
469.832210	36794.333333
471.325520	36745.666667
472.818205	36601.666667
474.310265	36529.666667
475.801700	36345.666667
477.292512	36225.666667
478.782700	36261.666667
480.272264	36098.000000
481.761205	36094.333333
483.249524	35915.333333
484.737221	35879.000000
486.224295	35828.666667
487.710748	35684.000000
489.196579	35751.666667
490.681790	35606.666667
492.166380	35542.666667
493.650350	35619.000000
495.133700	35404.000000
496.616431	35521.666667
498.098542	35390.000000
499.580035	35368.333333
501.060909	35222.000000
502.541165	35347.333333
504.020804	35246.000000
505.499825	35093.666667
506.978228	35129.000000
508.456016	35134.000000
509.933186	34958.666667
511.409741	35033.000000
512.885680	34907.333333
514.361004	35049.666667
515.835713	34881.333333
517.309807	34989.000000
518.783287	34811.000000
520.256153	34811.333333
521.728406	34716.333333
523.200045	34935.000000
524.671071	34899.333333
526.141485	34744.000000
527.611287	34741.666667
529.080476	34761.333333
530.549054	34916.666667
532.017021	34708.333333
533.484378	35034.333333
534.951123	34664.666667
536.417259	34582.000000
537.882785	34619.666667
539.347701	34722.333333
540.812008	34676.333333
542.275707	34714.000000
543.738797	34448.666667
545.201279	34499.333333
546.663153	34509.000000
548.124420	34549.333333
549.585080	34505.000000
551.045133	34624.000000
552.504579	34733.666667
553.963420	34741.333333
555.421655	34778.333333
556.879285	34860.333333
558.336309	34935.666667
559.792729	34858.000000
561.248545	34986.000000
562.703756	34825.666667
564.158364	35184.000000
565.612369	35146.666667
567.065770	35175.333333
568.518569	35285.666667
569.970766	35369.333333
571.422361	35642.000000
572.873354	35719.666667
574.323745	35803.000000
575.773536	35938.000000
577.222726	36248.000000
578.671316	36280.000000
580.119306	36452.666667
581.566696	36434.666667
583.013487	36380.666667
584.459679	36255.000000
585.905273	36370.666667
587.350268	36069.333333
588.794665	35978.000000
590.238465	35992.666667
591.681667	35914.000000
593.124272	35868.333333
594.566281	35561.333333
596.007694	35296.666667
597.448510	35084.333333
598.888731	34857.333333
600.328357	34628.333333
601.767388	34540.333333
603.205824	34406.666667
604.643666	34415.000000
606.080914	33936.333333
607.517568	34021.333333
608.953629	34104.333333
610.389097	34053.000000
611.823972	34148.333333
613.258255	33973.666667
614.691946	33664.666667
616.125046	33822.666667
617.557554	33454.000000
618.989471	33236.666667
620.420798	33164.333333
621.851534	32886.000000
623.281680	32592.666667
624.711237	32514.666667
626.140204	32470.000000
627.568582	32337.666667
628.996372	32147.333333
630.423573	31938.000000
631.850186	31949.666667
633.276211	31775.000000
634.701650	31827.000000
636.126501	31768.333333
637.550765	31595.000000
638.974443	31678.666667
640.397535	31659.333333
641.820041	31675.000000
643.241961	31527.666667
644.663297	31532.333333
646.084048	31651.333333
647.504214	31521.000000
648.923796	31388.000000
650.342795	31217.000000
651.761210	31266.333333
653.179041	31215.333333
654.596290	31185.000000
656.012957	31078.666667
657.429041	31116.000000
658.844543	31104.000000
660.259464	30997.333333
661.673804	30989.000000
663.087563	30970.000000
664.500741	30829.666667
665.913339	31047.333333
667.325357	30908.333333
668.736795	30910.000000
670.147654	31086.333333
671.557934	30795.666667
672.967636	30910.000000
674.376759	30742.000000
675.785304	30680.666667
677.193271	30465.333333
678.600661	30480.333333
680.007474	30462.666667
681.413711	30595.333333
682.819370	30499.666667
684.224454	30506.666667
685.628962	30516.000000
687.032895	30436.000000
688.436252	30408.666667
689.839034	30357.666667
691.241242	30130.666667
692.642876	30206.666667
694.043936	30059.333333
695.444422	30253.666667
696.844336	30167.666667
698.243676	30012.333333
699.642443	30030.000000
701.040639	30038.333333
702.438262	29935.000000
703.835313	29994.333333
705.231794	29876.000000
706.627703	29929.333333
708.023041	29866.000000
709.417810	29722.333333
710.812008	29806.666667
712.205636	29793.000000
713.598694	29732.333333
714.991184	29632.000000
716.383105	29579.333333
717.774457	29563.666667
719.165241	29569.333333
720.555457	29586.666667
721.945105	29558.333333
723.334187	29511.333333
724.722701	29507.666667
726.110648	29443.666667
727.498030	29451.333333
728.884845	29353.000000
730.271094	29334.333333
731.656778	29362.666667
733.041897	29283.333333
734.426451	29277.333333
735.810441	29222.000000
737.193866	29134.000000
738.576728	29251.666667
739.959026	29074.333333
741.340760	29026.666667
742.721932	29099.666667
744.102541	29133.666667
745.482588	29109.333333
746.862073	29044.666667
748.240996	29061.333333
749.619358	29053.333333
750.997158	29040.666667
752.374398	29050.333333
753.751077	29006.666667
755.127197	28850.333333
756.502756	28915.000000
757.877756	28876.666667
759.252196	28851.666667
760.626078	28868.666667
761.999400	28702.333333
763.372165	28747.333333
764.744371	28712.666667
766.116020	28627.333333
767.487111	28529.666667
768.857646	28657.000000
770.227623	28419.000000
771.597044	28649.666667
772.965908	28431.333333
774.334217	28280.333333
775.701970	28178.000000
777.069168	28192.000000
778.435811	28232.666667
779.801899	28127.333333
781.167433	28025.666667
782.532412	28133.000000
783.896838	27976.666667
785.260710	27994.333333
786.624029	27928.333333
787.986796	27977.000000
789.349009	27812.000000
790.710671	27914.666667
792.071780	27807.000000
793.432338	27772.000000
794.792344	27793.333333
796.151799	27583.666667
797.510704	27654.000000
798.869058	27474.000000
800.226862	27605.000000
801.584116	27545.333333
802.940820	27402.000000
804.296975	27530.000000
805.652581	27587.000000
807.007638	27588.333333
808.362147	27549.666667
809.716108	27554.333333
811.069521	27430.333333
812.422387	27582.333333
813.774705	27468.666667
815.126476	27501.333333
816.477701	27496.000000
817.828380	27421.333333
819.178512	27334.333333
820.528099	27380.333333
821.877140	27256.666667
823.225637	27151.000000
824.573588	27223.000000
825.920995	27205.000000
827.267857	27056.000000
828.614176	27061.333333
829.959951	27169.666667
831.305183	27038.666667
832.649871	27158.666667
833.994017	26964.666667
835.337620	27132.666667
836.680681	27021.333333
838.023201	27034.000000
839.365178	27030.333333
840.706614	27069.333333
842.047510	26942.000000
843.387864	27143.666667
844.727678	27037.333333
846.066952	27201.666667
847.405687	27093.000000
848.743881	27357.666667
850.081537	27324.333333
851.418653	27332.333333
852.755231	27410.000000
854.091270	27327.333333
855.426771	27361.333333
856.761735	27287.333333
858.096160	27251.000000
859.430049	27217.000000
860.763401	27103.333333
862.096216	27095.000000
863.428495	26946.666667
864.760237	26760.333333
866.091444	26828.666667
867.422115	26648.333333
868.752252	26768.666667
870.081853	26603.666667
871.410919	26733.666667
872.739452	26594.333333
874.067450	26495.666667
875.394914	26551.000000
876.721845	26505.333333
878.048243	26505.333333
879.374108	26227.666667
880.699440	26418.666667
882.024240	26315.333333
883.348508	26237.000000
884.672244	26062.000000
885.995449	26028.333333
887.318122	26005.000000
888.640265	25775.333333
889.961877	25818.333333
891.282959	25881.000000
892.603510	25912.666667
893.923532	25753.000000
895.243024	25688.333333
896.561987	25787.000000
897.880422	25657.000000
899.198327	25671.000000
900.515705	25684.000000
901.832554	25595.333333
903.148875	25419.666667
904.464669	25623.666667
905.779936	25587.333333
907.094676	25549.666667
908.408889	25577.333333
909.722576	25518.333333
911.035737	25716.333333
912.348371	25711.666667
913.660481	25768.000000
914.972065	26046.333333
916.283124	26024.333333
917.593659	25967.666667
918.903669	26105.000000
920.213155	26175.333333
921.522117	26222.333333
922.830556	26097.333333
924.138471	26249.000000
925.445864	26136.666667
926.752733	26220.666667
928.059081	26252.666667
929.364906	26352.333333
930.670209	26291.000000
931.974991	26434.333333
933.279251	26687.333333
934.582990	26732.666667
935.886209	27035.000000
937.188907	27332.666667
938.491085	27523.666667
939.792743	27978.000000
941.093881	28332.000000
942.394500	28787.666667
943.694600	29283.666667
944.994181	29759.000000
946.293243	30752.000000
947.591787	31264.333333
948.889813	32574.333333
950.187322	33745.000000
951.484313	35133.333333
952.780787	36550.333333
954.076744	38159.333333
955.372184	39546.000000
956.667108	40805.333333
957.961516	41928.666667
959.255409	42254.000000
960.548785	42179.666667
961.841647	41623.333333
963.133993	40120.666667
964.425825	38324.000000
965.717142	36596.000000
967.007946	34588.666667
968.298235	32837.000000
969.588011	31201.000000
970.877273	29854.333333
972.166023	28565.333333
973.454259	27574.333333
974.741984	26756.000000
976.029196	26055.000000
977.315895	25701.333333
978.602084	25256.333333
979.887761	24805.000000
981.172926	24605.000000
982.457581	24396.333333
983.741725	24161.000000
985.025359	24046.666667
986.308483	24032.666667
987.591097	23765.000000
988.873202	23804.666667
990.154797	23693.333333
991.435883	23604.000000
992.716461	23680.333333
993.996530	23588.666667
995.276091	23616.000000
996.555144	23701.333333
997.833690	23719.000000
999.111728	23767.333333
1000.389259	23826.333333
1001.666283	24068.666667
1002.942800	24032.666667
1004.218812	24020.333333
1005.494317	23828.666667
1006.769317	23865.000000
1008.043811	23789.333333
1009.317799	23799.666667
1010.591283	23525.333333
1011.864263	23731.333333
1013.136737	23551.000000
1014.408708	23644.000000
1015.680175	23624.666667
1016.951138	23687.000000
1018.221598	23673.000000
1019.491554	23600.666667
1020.761008	23867.000000
1022.029959	23668.666667
1023.298408	23737.333333
1024.566355	23790.333333
1025.833800	23748.666667
1027.100744	23856.000000
1028.367187	23888.666667
1029.633128	23855.333333
1030.898569	23814.666667
1032.163509	23993.000000
1033.427949	23871.333333
1034.691890	23802.000000
1035.955330	23849.333333
1037.218271	23841.666667
1038.480714	23923.333333
1039.742657	23977.666667
1041.004101	23760.333333
1042.265048	24043.000000
1043.525496	23935.666667
1044.785446	23869.000000
1046.044899	23907.000000
1047.303855	23808.333333
1048.562313	23917.666667
1049.820275	23596.000000
1051.077740	23712.000000
1052.334709	23497.666667
1053.591182	23610.666667
1054.847160	23653.333333
1056.102641	23574.666667
1057.357628	23696.666667
1058.612120	23505.000000
1059.866117	23599.333333
1061.119619	23814.333333
1062.372628	23744.000000
1063.625142	23904.333333
1064.877163	23978.333333
1066.128691	24112.666667
1067.379725	24235.333333
1068.630267	24126.666667
1069.880316	24404.000000
1071.129872	24233.333333
1072.378937	24238.666667
1073.627509	24037.333333
1074.875590	23855.000000
1076.123180	23699.666667
1077.370279	23575.333333
1078.616887	23315.000000
1079.863004	23122.666667
1081.108631	22703.000000
1082.353768	22793.333333
1083.598415	22473.666667
1084.842573	22312.333333
1086.086241	22234.333333
1087.329421	21774.666667
1088.572111	21904.000000
1089.814314	21780.333333
1091.056028	21552.666667
1092.297253	21551.333333
1093.537992	21373.666667
1094.778242	21339.333333
1096.018006	21386.666667
1097.257282	21113.333333
1098.496072	21181.333333
1099.734376	21080.666667
1100.972193	21014.666667
1102.209524	20971.000000
1103.446370	20995.666667
1104.682730	21019.333333
1105.918604	20897.000000
1107.153994	20857.000000
1108.388900	20705.666667
1109.623320	20651.666667
1110.857257	20569.000000
1112.090710	20503.000000
1113.323679	20462.000000
1114.556164	20413.666667
1115.788167	20358.000000
1117.019686	20354.666667
1118.250723	20135.666667
1119.481278	20210.333333
1120.711350	20024.000000
1121.940940	20039.666667
1123.170049	20245.333333
1124.398676	19868.333333
1125.626823	20043.666667
1126.854488	19944.000000
1128.081672	19947.666667
1129.308376	20112.666667
1130.534600	19786.666667
1131.760345	19750.000000
1132.985609	19903.666667
1134.210394	19740.000000
1135.434700	19713.000000
1136.658527	19720.333333
1137.881875	19683.000000
1139.104745	19767.333333
1140.327136	19663.333333
1141.549050	19598.666667
1142.770486	19574.000000
1143.991445	19562.666667
1145.211926	19572.000000
1146.431931	19542.666667
1147.651459	19555.000000
1148.870510	19467.000000
1150.089086	19500.000000
1151.307185	19483.333333
1152.524808	19463.666667
1153.741957	19416.000000
1154.958630	19449.000000
1156.174828	19520.000000
1157.390551	19407.666667
1158.605800	19367.333333
1159.820574	19428.333333
1161.034875	19366.000000
1162.248702	19279.666667
1163.462055	19358.666667
1164.674936	19252.333333
1165.887343	19174.333333
1167.099277	19334.666667
1168.310739	19176.333333
1169.521729	19285.000000
1170.732247	19165.666667
1171.942293	19211.000000
1173.151867	19115.333333
1174.360970	19180.000000
1175.569602	19202.000000
1176.777764	19083.333333
1177.985454	19041.333333
1179.192675	19139.333333
1180.399425	18960.666667
1181.605706	18956.333333
1182.811517	18897.333333
1184.016859	18869.333333
1185.221731	18739.666667
1186.426135	18705.333333
1187.630070	18782.333333
1188.833537	18672.333333
1190.036535	18708.666667
1191.239066	18692.666667
1192.441129	18630.000000
1193.642725	18605.333333
1194.843853	18560.666667
1196.044515	18579.000000
1197.244710	18622.000000
1198.444438	18504.333333
1199.643701	18514.000000
1200.842497	18542.666667
1202.040827	18504.333333
1203.238693	18488.333333
1204.436092	18525.666667
1205.633027	18514.000000
1206.829497	18500.333333
1208.025503	18380.000000
1209.221044	18409.333333
1210.416122	18264.333333
1211.610735	18295.333333
1212.804885	18216.333333
1213.998572	18100.333333
1215.191795	18149.666667
1216.384556	17965.000000
1217.576854	18004.333333
1218.768689	18072.666667
1219.960063	17984.000000
1221.150974	18026.333333
1222.341424	18018.333333
1223.531413	17899.333333
1224.720940	18044.333333
1225.910006	18070.333333
1227.098612	17968.333333
1228.286757	18190.000000
1229.474442	18148.666667
1230.661667	18197.666667
1231.848432	18156.000000
1233.034738	18173.333333
1234.220584	18404.666667
1235.405971	18333.666667
1236.590900	18343.666667
1237.775369	18410.666667
1238.959381	18342.333333
1240.142934	18495.666667
1241.326029	18495.000000
1242.508667	18448.000000
1243.690848	18623.666667
1244.872571	18403.666667
1246.053837	18426.000000
1247.234646	18389.333333
1248.414999	18287.000000
1249.594896	18291.666667
1250.774337	18303.000000
1251.953322	18146.666667
1253.131851	18192.000000
1254.309925	18051.333333
1255.487544	18108.333333
1256.664708	18041.000000
1257.841417	18051.333333
1259.017673	18103.000000
1260.193473	18184.333333
1261.368820	18094.333333
1262.543714	18094.666667
1263.718154	18059.666667
1264.892140	18044.666667
1266.065674	17985.000000
1267.238755	18137.666667
1268.411383	18189.000000
1269.583559	18129.666667
1270.755283	18176.333333
1271.926555	18108.666667
1273.097375	18030.666667
1274.267744	18026.666667
1275.437662	18010.333333
1276.607129	18031.000000
1277.776145	17868.333333
1278.944711	17950.666667
1280.112827	17881.000000
1281.280492	17845.333333
1282.447708	17658.333333
1283.614474	17701.333333
1284.780791	17606.000000
1285.946659	17520.666667
1287.112078	17513.333333
1288.277048	17454.666667
1289.441570	17315.000000
1290.605644	17368.666667
1291.769270	17249.666667
1292.932448	17064.000000
1294.095178	17071.000000
1295.257461	17082.666667
1296.419298	16900.000000
1297.580687	16881.000000
1298.741630	16980.666667
1299.902126	17026.000000
1301.062177	16880.666667
1302.221781	16877.666667
1303.380940	16869.333333
1304.539653	16953.666667
1305.697921	16860.000000
1306.855744	16727.666667
1308.013123	16791.333333
1309.170056	16956.333333
1310.326546	16817.000000
1311.482591	16842.333333
1312.638193	16859.000000
1313.793350	16879.000000
1314.948065	16759.666667
1316.102336	16842.666667
1317.256164	16822.666667
1318.409550	16737.000000
1319.562493	16704.666667
1320.714993	16694.666667
1321.867052	16529.666667
1323.018668	16603.000000
1324.169843	16541.333333
1325.320577	16415.666667
1326.470870	16390.666667
1327.620721	16426.666667
1328.770132	16275.000000
1329.919102	16325.666667
1331.067632	16276.333333
1332.215722	16205.333333
1333.363372	16301.666667
1334.510582	16214.000000
1335.657353	16320.000000
1336.803685	16292.333333
1337.949578	16209.333333
1339.095032	16178.666667
1340.240048	16205.000000
1341.384625	16171.000000
1342.528764	16255.666667
1343.672466	16256.333333
1344.815729	16116.333333
1345.958556	16142.333333
1347.100945	16055.666667
1348.242897	15999.333333
1349.384413	16112.666667
1350.525492	15946.333333
1351.666134	16102.000000
1352.806341	15889.000000
1353.946111	15853.000000
1355.085446	15899.000000
1356.224346	15758.666667
1357.362810	15699.333333
1358.500840	15716.333333
1359.638434	15702.333333
1360.775594	15691.666667
1361.912320	15665.000000
1363.048612	15594.333333
1364.184469	15610.666667
1365.319893	15610.000000
1366.454884	15437.333333
1367.589441	15501.666667
1368.723566	15560.000000
1369.857257	15548.333333
1370.990516	15666.666667
1372.123343	15599.333333
1373.255737	15636.333333
1374.387699	15588.666667
1375.519230	15652.333333
1376.650329	15634.000000
1377.780997	15603.333333
1378.911234	15611.000000
1380.041040	15609.000000
1381.170416	15611.666667
1382.299361	15526.000000
1383.427875	15544.666667
1384.555960	15620.666667
1385.683615	15548.666667
1386.810841	15515.666667
1387.937637	15561.000000
1389.064004	15546.666667
1390.189942	15510.000000
1391.315451	15513.666667
1392.440532	15418.666667
1393.565185	15345.000000
1394.689409	15389.666667
1395.813206	15288.333333
1396.936575	15280.333333
1398.059517	15302.333333
1399.182032	15310.333333
1400.304119	15287.333333
1401.425780	15218.000000
1402.547014	15275.000000
1403.667822	15241.666667
1404.788204	15320.666667
1405.908160	15264.666667
1407.027690	15197.000000
1408.146795	15226.333333
1409.265474	15098.666667
1410.383728	15148.333333
1411.501558	15235.000000
1412.618963	15112.000000
1413.735943	15134.333333
1414.852499	15114.333333
1415.968632	15196.333333
1417.084340	15214.333333
1418.199625	15211.333333
1419.314486	15135.666667
1420.428925	15100.666667
1421.542940	15155.666667
1422.656533	15191.333333
1423.769703	15172.333333
1424.882451	15207.333333
1425.994777	15152.333333
1427.106680	15048.333333
1428.218163	15048.666667
1429.329223	14998.333333
1430.439863	15037.333333
1431.550081	14887.000000
1432.659879	14864.666667
1433.769256	14873.333333
1434.878212	14819.000000
1435.986749	14875.333333
1437.094865	14856.000000
1438.202562	14769.333333
1439.309839	14887.333333
1440.416696	14871.000000
1441.523135	14894.000000
1442.629154	14950.666667
1443.734755	15066.000000
1444.839937	14989.666667
1445.944701	14995.333333
1447.049047	15075.333333
1448.152975	15132.000000
1449.256485	15074.333333
1450.359577	15129.333333
1451.462253	15164.000000
1452.564511	15066.000000
1453.666352	15098.666667
1454.767777	14995.666667
1455.868785	14978.333333
1456.969377	14909.000000
1458.069553	14882.000000
1459.169313	14921.666667
1460.268658	14782.000000
1461.367587	14700.666667
1462.466101	14594.000000
1463.564200	14696.333333
1464.661884	14496.333333
1465.759153	14553.333333
1466.856008	14368.000000
1467.952449	14281.333333
1469.048476	14148.666667
1470.144089	14143.000000
1471.239288	14000.000000
1472.334074	13827.666667
1473.428447	13868.000000
1474.522407	13609.666667
1475.615955	13598.666667
1476.709089	13585.000000
1477.801812	13552.666667
1478.894122	13428.333333
1479.986020	13454.666667
1481.077506	13366.666667
1482.168581	13341.333333
1483.259245	13264.000000
1484.349498	13395.333333
1485.439339	13269.000000
1486.528770	13256.333333
1487.617790	13208.000000
1488.706400	13345.000000
1489.794600	13178.333333
1490.882390	13256.333333
1491.969771	13200.333333
1493.056742	13159.666667
1494.143303	13067.000000
1495.229456	13121.333333
1496.315199	13137.000000
1497.400534	13072.666667
1498.485460	13002.000000
1499.569978	12889.666667
1500.654088	12896.666667
1501.737790	12998.666667
1502.821085	12916.666667
1503.903972	12908.000000
1504.986451	12773.666667
1506.068524	12855.333333
1507.150189	12678.666667
1508.231448	12679.000000
1509.312301	12584.000000
1510.392747	12643.000000
1511.472787	12546.000000
1512.552422	12599.333333
1513.631650	12617.666667
1514.710473	12464.333333
1515.788891	12476.666667
1516.866904	12503.666667
1517.944512	12467.666667
1519.021715	12488.000000
1520.098513	12404.333333
1521.174908	12407.333333
1522.250898	12368.333333
1523.326485	12453.666667
1524.401667	12384.333333
1525.476447	12398.000000
1526.550823	12434.666667
1527.624796	12370.333333
1528.698365	12401.333333
1529.771533	12347.666667
1530.844298	12331.666667
1531.916660	12352.333333
1532.988620	12277.000000
1534.060179	12408.666667
1535.131336	12319.333333
1536.202091	12276.333333
1537.272445	12163.000000
1538.342398	12173.000000
1539.411950	12185.333333
1540.481101	12151.333333
1541.549851	12022.000000
1542.618202	12045.333333
1543.686152	12038.000000
1544.753702	12035.000000
1545.820853	11991.000000
1546.887604	11948.333333
1547.953955	11973.000000
1549.019908	11859.333333
1550.085461	11850.666667
1551.150616	11897.333333
1552.215372	11828.666667
1553.279730	11845.666667
1554.343690	11908.666667
1555.407252	11804.666667
1556.470415	11799.333333
1557.533182	11800.666667
1558.595551	11824.333333
1559.657522	11804.666667
1560.719097	11834.000000
1561.780275	11770.000000
1562.841056	11765.333333
1563.901441	11818.666667
1564.961429	11742.666667
1566.021022	11784.000000
1567.080219	11709.333333
1568.139020	11693.000000
1569.197425	11664.333333
1570.255436	11743.666667
1571.313051	11751.666667
1572.370271	11651.333333
1573.427097	11612.666667
1574.483528	11639.000000
1575.539565	11623.000000
1576.595208	11625.000000
1577.650457	11620.333333
1578.705312	11558.000000
1579.759774	11517.666667
1580.813842	11478.666667
1581.867517	11421.000000
1582.920799	11439.333333
1583.973689	11426.666667
1585.026186	11417.666667
1586.078290	11320.666667
1587.130002	11259.666667
1588.181323	11330.000000
1589.232251	11207.333333
1590.282788	11156.000000
1591.332933	11209.666667
1592.382688	11122.666667
1593.432051	11161.000000
1594.481023	11126.333333
1595.529605	11083.000000
1596.577796	11109.666667
1597.625597	11259.333333
1598.673007	11174.000000
1599.720028	11253.333333
1600.766660	11276.666667
1601.812901	11194.333333
1602.858753	11330.666667
1603.904217	11293.000000
1604.949291	11351.666667
1605.993976	11243.666667
1607.038273	11266.333333
1608.082182	11173.666667
1609.125702	11214.000000
1610.168834	11071.333333
1611.211579	11114.666667
1612.253935	11102.000000
1613.295905	11075.000000
1614.337487	11011.333333
1615.378682	11035.666667
1616.419490	10995.666667
1617.459912	10963.000000
1618.499946	10923.666667
1619.539595	10935.000000
1620.578858	10948.333333
1621.617734	10951.666667
1622.656225	10982.666667
1623.694330	10921.666667
1624.732050	10848.333333
1625.769385	10828.333333
1626.806334	10763.000000
1627.842899	10831.333333
1628.879079	10866.000000
1629.914875	10880.333333
1630.950286	10839.333333
1631.985314	10789.666667
1633.019957	10797.666667
1634.054217	10788.000000
1635.088093	10900.000000
1636.121586	10853.333333
1637.154696	10784.666667
1638.187423	10867.333333
1639.219767	10774.000000
1640.251728	10843.666667
1641.283307	10869.000000
1642.314504	10845.666667
1643.345319	10889.666667
1644.375751	10916.000000
1645.405803	10811.000000
1646.435472	10919.333333
1647.464761	10852.333333
1648.493668	10824.000000
1649.522194	10913.666667
1650.550340	10889.333333
1651.578105	10825.333333
1652.605490	10827.000000
1653.632494	10741.000000
1654.659119	10740.000000
1655.685363	10712.000000
1656.711228	10768.000000
1657.736714	10693.000000
1658.761820	10569.333333
1659.786547	10546.333333
1660.810895	10638.333333
1661.834865	10609.666667
1662.858456	10569.666667
1663.881668	10443.333333
1664.904503	10551.666667
1665.926959	10384.666667
1666.949038	10411.000000
1667.970739	10391.333333
1668.992062	10366.000000
1670.013008	10318.666667
1671.033577	10308.000000
1672.053770	10323.000000
1673.073585	10330.666667
1674.093024	10239.333333
1675.112086	10169.333333
1676.130773	10128.000000
1677.149083	10111.666667
1678.167017	10139.000000
1679.184576	10112.333333
1680.201760	10159.666667
1681.218568	10097.000000
1682.235001	10053.000000
1683.251059	10099.000000
1684.266742	9996.333333
1685.282051	10162.000000
1686.296985	10025.333333
1687.311546	10008.000000
1688.325732	10006.333333
1689.339544	9830.333333
1690.352983	9889.666667
1691.366048	9782.333333
1692.378740	9769.666667
1693.391058	9671.333333
1694.403004	9677.333333
1695.414577	9579.000000
1696.425778	9595.333333
1697.436606	9582.000000
1698.447061	9476.333333
1699.457145	9452.000000
1700.466857	9392.666667
1701.476197	9276.000000
1702.485166	9281.666667
1703.493763	9179.666667
1704.501989	9163.666667
1705.509844	9101.666667
1706.517328	9094.666667
1707.524442	9103.666667
1708.531185	9033.000000
1709.537558	8968.666667
1710.543561	9032.000000
1711.549194	9003.333333
1712.554457	8952.333333
1713.559351	8956.000000
1714.563875	8896.666667
1715.568030	8986.000000
1716.571816	8999.333333
1717.575233	8936.333333
1718.578282	8945.333333
1719.580962	8952.666667
1720.583273	9009.333333
1721.585217	9019.333333
1722.586792	8937.000000
1723.588000	8985.000000
1724.588840	9033.000000
1725.589312	8978.666667
1726.589418	8928.000000
1727.589156	8960.000000
1728.588527	9024.333333
1729.587532	8886.333333
1730.586170	8926.333333
1731.584441	8935.666667
1732.582346	8854.666667
1733.579886	8804.000000
1734.577059	8852.000000
1735.573867	8779.000000
1736.570309	8713.666667
1737.566386	8761.000000
1738.562097	8678.000000
1739.557444	8693.000000
1740.552426	8701.000000
1741.547043	8588.000000
1742.541295	8608.333333
1743.535184	8593.000000
1744.528708	8551.000000
1745.521868	8513.333333
1746.514664	8481.333333
1747.507097	8466.333333
1748.499166	8412.000000
1749.490873	8380.333333
1750.482216	8412.000000
1751.473196	8381.666667
1752.463813	8374.000000
1753.454068	8354.333333
1754.443960	8307.333333
1755.433490	8389.666667
1756.422658	8338.666667
1757.411464	8264.333333
1758.399908	8360.000000
1759.387991	8339.666667
1760.375713	8203.000000
1761.363073	8243.000000
1762.350072	8339.333333
1763.336711	8254.000000
1764.322988	8293.000000
1765.308905	8217.000000
1766.294462	8252.000000
1767.279659	8201.000000
1768.264496	8201.333333
1769.248972	8182.000000
1770.233089	8138.666667
1771.216847	8182.000000
1772.200245	8151.333333
1773.183284	8065.333333
1774.165965	8021.000000
1775.148286	8090.000000
1776.130249	8035.333333
1777.111853	8021.000000
1778.093099	7988.333333
1779.073987	7889.333333
1780.054517	7919.666667
1781.034689	7881.333333
1782.014503	7786.333333
1782.993960	7794.000000
1783.973060	7716.000000
1784.951802	7634.666667
1785.930188	7637.333333
1786.908217	7585.666667
1787.885889	7604.000000
1788.863205	7469.000000
1789.840164	7497.000000
1790.816768	7472.666667
1791.793015	7525.000000
1792.768907	7511.000000
1793.744443	7548.333333
1794.719624	7452.666667
1795.694449	7486.666667
1796.668919	7485.666667
1797.643035	7485.333333
1798.616795	7520.666667
1799.590201	7506.666667
1800.563253	7514.000000
1801.535950	7563.666667
1802.508294	7489.666667
1803.480283	7561.666667
1804.451919	7539.000000
1805.423201	7601.333333
1806.394129	7456.333333
1807.364705	7546.666667
1808.334927	7490.333333
1809.304796	7554.333333
1810.274313	7545.666667
1811.243477	7454.666667
1812.212288	7454.333333
1813.180747	7468.000000
1814.148855	7473.666667
1815.116610	7416.666667
1816.084013	7401.666667
1817.051065	7322.666667
1818.017766	7425.666667
1818.984115	7415.666667
1819.950113	7346.666667
1820.915760	7367.666667
1821.881057	7297.666667
1822.846003	7264.333333
1823.810598	7328.666667
1824.774843	7181.666667
1825.738738	7225.000000
1826.702283	7254.666667
1827.665479	7193.333333
1828.628324	7171.666667
1829.590821	7120.333333
1830.552968	7138.333333
1831.514765	7117.666667
1832.476214	7092.000000
1833.437314	7092.333333
1834.398066	7051.333333
1835.358469	6969.333333
1836.318524	7040.000000
1837.278230	7068.333333
1838.237589	6980.000000
1839.196600	6941.666667
1840.155263	7016.000000
1841.113578	6995.333333
1842.071547	7019.333333
1843.029168	7029.666667
1843.986442	7084.333333
1844.943369	7016.333333
1845.899950	7115.666667
1846.856184	7144.666667
1847.812072	7084.333333
1848.767614	7086.666667
1849.722809	7074.000000
1850.677659	7022.666667
1851.632163	7067.333333
1852.586322	7056.333333
1853.540135	7039.000000
1854.493603	7020.333333
1855.446726	7069.000000
1856.399504	7066.000000
1857.351937	6977.000000
1858.304026	6948.666667
1859.255770	6987.333333
1860.207170	6930.000000
1861.158227	6942.000000
1862.108939	6876.333333
1863.059307	6881.000000
1864.009332	6871.333333
1864.959013	6782.333333
1865.908351	6758.666667
1866.857346	6751.333333
1867.805998	6711.000000
1868.754307	6700.000000
1869.702274	6634.666667
1870.649898	6650.333333
1871.597180	6570.333333
1872.544119	6655.000000
1873.490717	6606.000000
1874.436973	6586.666667
1875.382887	6618.000000
1876.328459	6425.000000
1877.273691	6488.333333
1878.218581	6536.333333
1879.163130	6567.333333
1880.107338	6526.666667
1881.051205	6453.666667
1881.994732	6561.333333
1882.937919	6547.333333
1883.880765	6560.000000
1884.823271	6512.666667
1885.765437	6446.333333
1886.707264	6525.000000
1887.648750	6485.000000
1888.589898	6558.666667
1889.530706	6488.000000
1890.471175	6592.000000
1891.411305	6595.333333
1892.351096	6544.000000
1893.290548	6504.000000
1894.229662	6533.333333
1895.168438	6492.333333
1896.106876	6501.666667
1897.044975	6502.333333
1897.982737	6462.000000
1898.920160	6402.333333
1899.857247	6484.333333
1900.793996	6457.333333
1901.730407	6356.000000
1902.666482	6337.000000
1903.602219	6362.333333
1904.537620	6272.333333
1905.472685	6310.333333
1906.407412	6255.666667
1907.341804	6231.000000
1908.275859	6236.333333
1909.209579	6179.000000
1910.142962	6122.000000
1911.076010	6079.666667
1912.008722	6057.666667
1912.941099	6086.333333
1913.873141	6061.666667
1914.804848	5994.666667
1915.736219	5986.666667
1916.667256	5944.333333
1917.597959	5941.666667
1918.528327	5956.333333
1919.458360	5942.333333
1920.388060	5952.666667
1921.317426	5887.000000
1922.246457	5902.333333
1923.175156	5896.000000
1924.103520	5902.000000
1925.031552	5930.333333
1925.959250	5829.666667
1926.886615	5949.000000
1927.813647	5901.333333
1928.740346	5937.666667
1929.666713	5915.666667
1930.592748	5878.666667
1931.518450	5922.666667
1932.443820	5931.000000
1933.368858	6039.666667
1934.293564	5896.666667
1935.217939	5965.000000
1936.141982	5885.000000
1937.065694	5850.000000
1937.989074	5822.333333
1938.912124	5871.000000
1939.834842	5862.000000
1940.757230	5779.666667
1941.679287	5773.333333
1942.601014	5818.000000
1943.522411	5750.000000
1944.443477	5779.666667
1945.364214	5644.000000
1946.284621	5667.000000
1947.204698	5714.000000
1948.124445	5623.666667
1949.043863	5625.000000
1949.962952	5575.000000
1950.881712	5544.333333
1951.800143	5517.333333
1952.718245	5515.000000
1953.636019	5543.666667
1954.553464	5478.666667
1955.470581	5498.000000
1956.387369	5402.000000
1957.303830	5447.666667
1958.219963	5487.666667
1959.135768	5455.666667
1960.051246	5401.333333
1960.966396	5298.333333
1961.881219	5412.000000
1962.795715	5376.000000
1963.709883	5453.666667
1964.623726	5434.666667
1965.537241	5452.333333
1966.450430	5374.666667
1967.363293	5462.000000
1968.275829	5413.000000
1969.188040	5473.333333
1970.099924	5465.333333
1971.011483	5491.000000
1971.922716	5476.333333
1972.833624	5421.666667
1973.744206	5541.000000
1974.654464	5392.000000
1975.564396	5413.000000
1976.474004	5494.000000
1977.383286	5445.666667
1978.292245	5476.000000
1979.200878	5376.666667
1980.109188	5453.000000
1981.017174	5363.666667
1981.924835	5435.666667
1982.832173	5361.333333
1983.739187	5376.333333
1984.645878	5319.000000
1985.552245	5260.000000
1986.458289	5325.333333
1987.364010	5210.000000
1988.269408	5153.000000
1989.174484	5153.333333
1990.079236	5114.000000
1990.983667	5174.000000
1991.887775	5074.666667
1992.791561	5097.666667
1993.695024	5097.000000
1994.598166	5074.666667
1995.500986	5079.000000
1996.403485	5026.666667
1997.305662	5034.000000
1998.207518	4978.666667
1999.109053	5013.333333
