200.151048	7377.333333
201.758777	7365.666667
203.365815	7392.333333
204.972162	7263.333333
206.577820	7250.000000
208.182787	7250.666667
209.787065	7228.333333
211.390653	7132.000000
212.993553	7164.000000
214.595765	7036.666667
216.197289	7064.333333
217.798125	7051.333333
219.398274	6949.333333
220.997737	7057.000000
222.596513	6905.666667
224.194603	6920.000000
225.792008	6922.333333
227.388728	6837.000000
228.984763	6855.666667
230.580114	6772.000000
232.174781	6806.000000
233.768765	6748.000000
235.362065	6704.333333
236.954683	6717.666667
238.546619	6657.000000
240.137872	6648.666667
241.728445	6619.666667
243.318336	6644.333333
244.907546	6619.666667
246.496076	6503.666667
248.083926	6520.000000
249.671097	6451.333333
251.257589	6445.000000
252.843402	6412.000000
254.428536	6403.333333
256.012993	6304.000000
257.596772	6303.666667
259.179874	6357.000000
260.762300	6229.666667
262.344049	6266.000000
263.925122	6235.000000
265.505519	6158.000000
267.085241	6206.333333
268.664289	6208.666667
270.242662	6203.666667
271.820361	6189.666667
273.397387	6098.666667
274.973740	6149.000000
276.549419	6080.666667
278.124426	6104.000000
279.698762	6080.000000
281.272425	5991.333333
282.845417	6079.333333
284.417739	6017.333333
285.989390	6084.000000
287.560371	6019.000000
289.130682	5998.000000
290.700324	5973.333333
292.269297	5960.666667
293.837602	6021.333333
295.405238	5914.333333
296.972207	5909.333333
298.538508	5953.333333
300.104142	5873.333333
301.669110	5860.333333
303.233411	5885.666667
304.797047	5824.666667
306.360017	5830.666667
307.922322	5773.000000
309.483963	5658.333333
311.044939	5676.000000
312.605252	5651.666667
314.164900	5574.333333
315.723886	5499.666667
317.282209	5516.000000
318.839870	5437.000000
320.396868	5415.333333
321.953205	5377.000000
323.508881	5326.000000
325.063896	5299.333333
326.618251	5360.000000
328.171945	5267.666667
329.724980	5344.000000
331.277356	5331.666667
332.829072	5273.666667
334.380131	5197.666667
335.930530	5154.666667
337.480273	5156.666667
339.029357	5180.000000
340.577785	5139.666667
342.125556	5134.666667
343.672671	5104.000000
345.219130	5057.666667
346.764933	5120.333333
348.310081	5038.333333
349.854575	4972.666667
351.398414	4944.000000
352.941599	4943.333333
354.484130	4950.666667
356.026008	4915.666667
357.567234	4864.333333
359.107807	4853.000000
360.647727	4845.666667
362.186996	4796.333333
363.725614	4839.000000
365.263580	4770.333333
366.800896	4758.666667
368.337562	4796.666667
369.873578	4784.666667
371.408944	4808.333333
372.943661	4788.000000
374.477730	4803.333333
376.011150	4838.666667
377.543922	4804.333333
379.076046	4869.000000
380.607523	4805.666667
382.138353	4876.333333
383.668537	4829.666667
385.198075	4967.333333
386.726966	4942.666667
388.255213	4945.333333
389.782814	4995.333333
391.309770	4965.666667
392.836083	5029.000000
394.361751	5033.000000
395.886776	5056.333333
397.411157	5051.000000
398.934896	5152.000000
400.457992	5083.666667
401.980446	5107.333333
403.502258	5159.000000
405.023429	5175.000000
406.543959	5250.000000
408.063849	5275.666667
409.583098	5372.333333
411.101707	5388.666667
412.619677	5376.666667
414.137007	5555.333333
415.653699	5630.666667
417.169752	5786.333333
418.685167	5904.666667
420.199945	6011.333333
421.714085	6220.000000
423.227588	6340.000000
424.740454	6412.333333
426.252684	6499.333333
427.764279	6605.666667
429.275238	6618.333333
430.785561	6579.666667
432.295250	6531.000000
433.804304	6379.000000
435.312725	6308.666667
436.820511	6194.666667
438.327664	6175.000000
439.834185	6063.333333
441.340072	6063.333333
442.845327	5945.333333
444.349951	5943.666667
445.853942	5900.000000
447.357303	5807.000000
448.860033	5819.000000
450.362132	5731.333333
451.863601	5709.000000
453.364440	5628.333333
454.864650	5498.666667
456.364231	5384.666667
457.863183	5304.000000
459.361507	5258.000000
460.859203	5140.000000
462.356271	5060.666667
463.852712	5035.000000
465.348526	4914.333333
466.843714	4851.000000
468.338275	4814.666667
469.832210	4754.000000
471.325520	4714.666667
472.818205	4692.000000
474.310265	4612.333333
475.801700	4616.666667
477.292512	4515.000000
478.782700	4464.333333
480.272264	4439.666667
481.761205	4501.000000
483.249524	4406.666667
484.737221	4368.666667
486.224295	4372.333333
487.710748	4343.666667
489.196579	4361.666667
490.681790	4305.000000
492.166380	4291.333333
493.650350	4282.000000
495.133700	4255.333333
496.616431	4244.333333
498.098542	4267.666667
499.580035	4227.666667
501.060909	4238.000000
502.541165	4266.333333
504.020804	4239.333333
505.499825	4220.333333
506.978228	4256.333333
508.456016	4254.000000
509.933186	4203.333333
511.409741	4213.333333
512.885680	4195.000000
514.361004	4197.000000
515.835713	4255.666667
517.309807	4200.333333
518.783287	4225.333333
520.256153	4221.333333
521.728406	4274.666667
523.200045	4237.666667
524.671071	4279.333333
526.141485	4320.333333
527.611287	4271.333333
529.080476	4318.000000
530.549054	4315.333333
532.017021	4325.333333
533.484378	4309.000000
534.951123	4379.000000
536.417259	4344.666667
537.882785	4331.666667
539.347701	4304.000000
540.812008	4357.000000
542.275707	4340.666667
543.738797	4303.666667
545.201279	4356.000000
546.663153	4319.333333
548.124420	4373.333333
549.585080	4443.333333
551.045133	4449.000000
552.504579	4449.000000
553.963420	4508.000000
555.421655	4478.666667
556.879285	4510.333333
558.336309	4506.333333
559.792729	4532.666667
561.248545	4580.666667
562.703756	4668.333333
564.158364	4660.666667
565.612369	4723.000000
567.065770	4737.666667
568.518569	4826.666667
569.970766	4822.000000
571.422361	4945.666667
572.873354	5036.333333
574.323745	5079.333333
575.773536	5190.333333
577.222726	5224.000000
578.671316	5358.666667
580.119306	5438.666667
581.566696	5398.666667
583.013487	5392.333333
584.459679	5391.333333
585.905273	5318.666667
587.350268	5307.333333
588.794665	5306.666667
590.238465	5299.666667
591.681667	5245.333333
593.124272	5154.000000
594.566281	5104.666667
596.007694	4965.666667
597.448510	4912.666667
598.888731	4778.666667
600.328357	4698.000000
601.767388	4731.666667
603.205824	4611.000000
604.643666	4650.666667
606.080914	4687.000000
607.517568	4576.333333
608.953629	4648.000000
610.389097	4633.333333
611.823972	4614.000000
613.258255	4527.000000
614.691946	4515.333333
616.125046	4486.000000
617.557554	4381.333333
618.989471	4317.666667
620.420798	4288.333333
621.851534	4206.666667
623.281680	4139.333333
624.711237	4081.000000
626.140204	4001.333333
627.568582	3915.000000
628.996372	3915.333333
630.423573	3877.000000
631.850186	3887.666667
633.276211	3845.000000
634.701650	3907.666667
636.126501	3813.333333
637.550765	3826.666667
638.974443	3832.666667
640.397535	3854.333333
641.820041	3834.333333
643.241961	3859.000000
644.663297	3882.333333
646.084048	3825.000000
647.504214	3756.333333
648.923796	3769.000000
650.342795	3834.000000
651.761210	3768.000000
653.179041	3762.000000
654.596290	3767.333333
656.012957	3711.666667
657.429041	3827.333333
658.844543	3730.666667
660.259464	3802.666667
661.673804	3796.666667
663.087563	3813.000000
664.500741	3777.666667
665.913339	3763.333333
667.325357	3831.333333
668.736795	3815.333333
670.147654	3816.333333
671.557934	3794.000000
672.967636	3799.666667
674.376759	3802.666667
675.785304	3796.000000
677.193271	3828.000000
678.600661	3795.000000
680.007474	3810.000000
681.413711	3832.000000
682.819370	3781.666667
684.224454	3790.000000
685.628962	3819.666667
687.032895	3789.666667
688.436252	3810.000000
689.839034	3828.000000
691.241242	3828.666667
692.642876	3763.666667
694.043936	3751.000000
695.444422	3779.000000
696.844336	3741.000000
698.243676	3770.333333
699.642443	3735.000000
701.040639	3721.666667
702.438262	3744.666667
703.835313	3768.666667
705.231794	3715.333333
706.627703	3782.000000
708.023041	3785.666667
709.417810	3709.333333
710.812008	3731.000000
712.205636	3718.333333
713.598694	3674.333333
714.991184	3709.000000
716.383105	3740.666667
717.774457	3717.666667
719.165241	3741.000000
720.555457	3720.666667
721.945105	3672.666667
723.334187	3734.666667
724.722701	3704.000000
726.110648	3744.666667
727.498030	3716.000000
728.884845	3712.666667
730.271094	3757.333333
731.656778	3715.000000
733.041897	3685.666667
734.426451	3627.000000
735.810441	3706.333333
737.193866	3625.666667
738.576728	3647.333333
739.959026	3662.000000
741.340760	3710.333333
742.721932	3659.000000
744.102541	3648.333333
745.482588	3665.666667
746.862073	3723.333333
748.240996	3664.666667
749.619358	3689.333333
750.997158	3695.333333
752.374398	3717.333333
753.751077	3714.666667
755.127197	3715.333333
756.502756	3756.666667
757.877756	3720.333333
759.252196	3786.666667
760.626078	3724.333333
761.999400	3698.000000
763.372165	3679.333333
764.744371	3730.333333
766.116020	3665.333333
767.487111	3669.333333
768.857646	3670.333333
770.227623	3654.666667
771.597044	3650.333333
772.965908	3629.333333
774.334217	3634.333333
775.701970	3632.666667
777.069168	3590.000000
778.435811	3598.666667
779.801899	3620.000000
781.167433	3614.333333
782.532412	3601.666667
783.896838	3646.000000
785.260710	3595.333333
786.624029	3632.666667
787.986796	3593.333333
789.349009	3551.000000
790.710671	3580.000000
792.071780	3605.333333
793.432338	3543.000000
794.792344	3539.666667
796.151799	3549.333333
797.510704	3548.000000
798.869058	3521.333333
800.226862	3554.000000
801.584116	3523.000000
802.940820	3535.333333
804.296975	3540.666667
805.652581	3594.333333
807.007638	3629.333333
808.362147	3634.000000
809.716108	3654.666667
811.069521	3661.333333
812.422387	3650.333333
813.774705	3750.666667
815.126476	3672.333333
816.477701	3642.666667
817.828380	3658.000000
819.178512	3650.333333
820.528099	3612.333333
821.877140	3634.666667
823.225637	3567.666667
824.573588	3559.666667
825.920995	3571.000000
827.267857	3583.000000
828.614176	3538.333333
829.959951	3560.666667
831.305183	3547.333333
832.649871	3543.333333
833.994017	3598.333333
835.337620	3585.333333
836.680681	3649.000000
838.023201	3671.000000
839.365178	3615.666667
840.706614	3676.000000
842.047510	3639.666667
843.387864	3708.000000
844.727678	3744.000000
846.066952	3732.000000
847.405687	3789.666667
848.743881	3828.333333
850.081537	3878.333333
851.418653	3907.333333
852.755231	3926.666667
854.091270	3932.666667
855.426771	3976.000000
856.761735	3940.333333
858.096160	3876.666667
859.430049	3922.000000
860.763401	3837.000000
862.096216	3849.333333
863.428495	3814.333333
864.760237	3839.333333
866.091444	3794.666667
867.422115	3787.333333
868.752252	3797.666667
870.081853	3833.333333
871.410919	3800.666667
872.739452	3871.666667
874.067450	3826.333333
875.394914	3822.333333
876.721845	3829.000000
878.048243	3821.333333
879.374108	3766.000000
880.699440	3772.666667
882.024240	3708.333333
883.348508	3762.666667
884.672244	3719.333333
885.995449	3752.666667
887.318122	3668.666667
888.640265	3653.666667
889.961877	3653.666667
891.282959	3664.333333
892.603510	3625.000000
893.923532	3619.333333
895.243024	3594.666667
896.561987	3629.666667
897.880422	3613.666667
899.198327	3615.000000
900.515705	3585.666667
901.832554	3559.666667
903.148875	3593.000000
904.464669	3664.666667
905.779936	3651.333333
907.094676	3655.666667
908.408889	3660.666667
909.722576	3676.333333
911.035737	3705.666667
912.348371	3723.666667
913.660481	3836.000000
914.972065	3792.666667
916.283124	3831.000000
917.593659	3889.000000
918.903669	3915.666667
920.213155	3901.333333
921.522117	3928.000000
922.830556	3958.000000
924.138471	3946.333333
925.445864	3973.000000
926.752733	3943.333333
928.059081	3988.666667
929.364906	3997.000000
930.670209	4152.666667
931.974991	4168.000000
933.279251	4280.666667
934.582990	4319.000000
935.886209	4510.666667
937.188907	4566.666667
938.491085	4703.000000
939.792743	4886.333333
941.093881	5120.000000
942.394500	5283.000000
943.694600	5517.333333
944.994181	5884.666667
946.293243	6160.000000
947.591787	6638.333333
948.889813	7149.666667
950.187322	7679.000000
951.484313	8308.333333
952.780787	9055.333333
954.076744	9805.000000
955.372184	10464.000000
956.667108	11036.333333
957.961516	11319.666667
959.255409	11419.333333
960.548785	11338.666667
961.841647	10735.333333
963.133993	10035.333333
964.425825	9196.333333
965.717142	8306.666667
967.007946	7502.666667
968.298235	6682.666667
969.588011	6129.333333
970.877273	5624.333333
972.166023	5095.333333
973.454259	4691.666667
974.741984	4492.666667
976.029196	4196.000000
977.315895	4034.333333
978.602084	3861.000000
979.887761	3767.333333
981.172926	3668.333333
982.457581	3605.000000
983.741725	3594.000000
985.025359	3550.666667
986.308483	3501.333333
987.591097	3442.000000
988.873202	3486.000000
990.154797	3481.333333
991.435883	3474.000000
992.716461	3484.666667
993.996530	3490.000000
995.276091	3484.666667
996.555144	3542.000000
997.833690	3535.333333
999.111728	3640.333333
1000.389259	3650.333333
1001.666283	3671.000000
1002.942800	3717.000000
1004.218812	3778.000000
1005.494317	3666.333333
1006.769317	3648.000000
1008.043811	3642.333333
1009.317799	3646.000000
1010.591283	3622.666667
1011.864263	3627.666667
1013.136737	3633.666667
1014.408708	3646.000000
1015.680175	3670.666667
1016.951138	3709.333333
1018.221598	3695.666667
1019.491554	3703.333333
1020.761008	3684.333333
1022.029959	3785.666667
1023.298408	3787.000000
1024.566355	3805.333333
1025.833800	3815.000000
1027.100744	3844.333333
1028.367187	3921.666667
1029.633128	3877.000000
1030.898569	3949.666667
1032.163509	3951.666667
1033.427949	3899.333333
1034.691890	3920.333333
1035.955330	3907.666667
1037.218271	3968.666667
1038.480714	3929.666667
1039.742657	3965.333333
1041.004101	4000.333333
1042.265048	3978.333333
1043.525496	3979.000000
1044.785446	3961.333333
1046.044899	3946.666667
1047.303855	3966.666667
1048.562313	3951.000000
1049.820275	3938.333333
1051.077740	3934.333333
1052.334709	3877.000000
1053.591182	3869.666667
1054.847160	3908.666667
1056.102641	3973.666667
1057.357628	3937.000000
1058.612120	4005.000000
1059.866117	4042.666667
1061.119619	4088.333333
1062.372628	4167.666667
1063.625142	4253.333333
1064.877163	4241.000000
1066.128691	4316.333333
1067.379725	4333.666667
1068.630267	4400.000000
1069.880316	4344.333333
1071.129872	4309.333333
1072.378937	4323.666667
1073.627509	4233.666667
1074.875590	4169.666667
1076.123180	4048.000000
1077.370279	3986.000000
1078.616887	3908.333333
1079.863004	3898.666667
1081.108631	3822.666667
1082.353768	3699.000000
1083.598415	3607.333333
1084.842573	3595.000000
1086.086241	3507.333333
1087.329421	3517.333333
1088.572111	3425.333333
1089.814314	3395.333333
1091.056028	3357.333333
1092.297253	3312.000000
1093.537992	3326.666667
1094.778242	3296.666667
1096.018006	3281.333333
1097.257282	3266.000000
1098.496072	3300.333333
1099.734376	3262.333333
1100.972193	3249.666667
1102.209524	3252.666667
1103.446370	3216.000000
1104.682730	3199.333333
1105.918604	3203.666667
1107.153994	3140.666667
1108.388900	3122.333333
1109.623320	3037.666667
1110.857257	3037.333333
1112.090710	3027.333333
1113.323679	3010.333333
1114.556164	2944.666667
1115.788167	2939.000000
1117.019686	2951.666667
1118.250723	2952.333333
1119.481278	2953.333333
1120.711350	2931.000000
1121.940940	2918.333333
1123.170049	2905.333333
1124.398676	2953.666667
1125.626823	2909.000000
1126.854488	2903.000000
1128.081672	2880.666667
1129.308376	2891.666667
1130.534600	2879.000000
1131.760345	2851.666667
1132.985609	2848.666667
1134.210394	2842.000000
1135.434700	2823.000000
1136.658527	2786.333333
1137.881875	2809.666667
1139.104745	2807.000000
1140.327136	2813.000000
1141.549050	2783.000000
1142.770486	2852.333333
1143.991445	2806.000000
1145.211926	2792.000000
1146.431931	2823.666667
1147.651459	2813.333333
1148.870510	2793.666667
1150.089086	2801.333333
1151.307185	2832.666667
1152.524808	2786.333333
1153.741957	2850.666667
1154.958630	2830.000000
1156.174828	2852.000000
1157.390551	2799.666667
1158.605800	2874.333333
1159.820574	2835.333333
1161.034875	2887.000000
1162.248702	2861.333333
1163.462055	2862.666667
1164.674936	2878.666667
1165.887343	2822.333333
1167.099277	2822.000000
1168.310739	2850.333333
1169.521729	2876.000000
1170.732247	2884.000000
1171.942293	2897.333333
1173.151867	2860.666667
1174.360970	2860.666667
1175.569602	2856.333333
1176.777764	2851.333333
1177.985454	2842.000000
1179.192675	2805.333333
1180.399425	2813.333333
1181.605706	2835.333333
1182.811517	2825.666667
1184.016859	2804.333333
1185.221731	2787.333333
1186.426135	2768.000000
1187.630070	2797.000000
1188.833537	2803.000000
1190.036535	2772.000000
1191.239066	2747.333333
1192.441129	2794.333333
1193.642725	2819.666667
1194.843853	2745.666667
1196.044515	2817.333333
1197.244710	2776.333333
1198.444438	2796.000000
1199.643701	2809.000000
1200.842497	2815.666667
1202.040827	2819.666667
1203.238693	2807.000000
1204.436092	2825.333333
1205.633027	2787.000000
1206.829497	2783.000000
1208.025503	2766.000000
1209.221044	2772.666667
1210.416122	2778.000000
1211.610735	2759.333333
1212.804885	2758.333333
1213.998572	2712.000000
1215.191795	2763.333333
1216.384556	2750.333333
1217.576854	2746.000000
1218.768689	2743.000000
1219.960063	2766.000000
1221.150974	2749.666667
1222.341424	2748.666667
1223.531413	2829.333333
1224.720940	2793.666667
1225.910006	2808.000000
1227.098612	2835.666667
1228.286757	2853.000000
1229.474442	2947.333333
1230.661667	2950.666667
1231.848432	2979.333333
1233.034738	2973.666667
1234.220584	2999.333333
1235.405971	3003.000000
1236.590900	3036.333333
1237.775369	3109.666667
1238.959381	3109.000000
1240.142934	3100.000000
1241.326029	3113.000000
1242.508667	3163.333333
1243.690848	3120.000000
1244.872571	3122.333333
1246.053837	3118.000000
1247.234646	3101.666667
1248.414999	3117.000000
1249.594896	3081.333333
1250.774337	3039.333333
1251.953322	3078.333333
1253.131851	3034.666667
1254.309925	3027.000000
1255.487544	3025.000000
1256.664708	3021.666667
1257.841417	3022.666667
1259.017673	3064.666667
1260.193473	3022.666667
1261.368820	3089.000000
1262.543714	3088.666667
1263.718154	3094.000000
1264.892140	3099.666667
1266.065674	3122.000000
1267.238755	3088.000000
1268.411383	3096.000000
1269.583559	3103.333333
1270.755283	3114.333333
1271.926555	3081.333333
1273.097375	3104.333333
1274.267744	3073.000000
1275.437662	3039.000000
1276.607129	3038.333333
1277.776145	3043.666667
1278.944711	3041.333333
1280.112827	3047.666667
1281.280492	2993.333333
1282.447708	2985.666667
1283.614474	2961.333333
1284.780791	2940.000000
1285.946659	2913.000000
1287.112078	2914.666667
1288.277048	2887.000000
1289.441570	2880.666667
1290.605644	2844.000000
1291.769270	2836.666667
1292.932448	2852.000000
1294.095178	2847.000000
1295.257461	2763.333333
1296.419298	2778.000000
1297.580687	2807.333333
1298.741630	2815.666667
1299.902126	2780.666667
1301.062177	2776.000000
1302.221781	2744.333333
1303.380940	2756.333333
1304.539653	2778.666667
1305.697921	2739.333333
1306.855744	2763.333333
1308.013123	2745.000000
1309.170056	2755.666667
1310.326546	2746.333333
1311.482591	2756.666667
1312.638193	2807.000000
1313.793350	2765.000000
1314.948065	2775.000000
1316.102336	2792.666667
1317.256164	2769.666667
1318.409550	2773.000000
1319.562493	2772.000000
1320.714993	2737.666667
1321.867052	2758.000000
1323.018668	2733.000000
1324.169843	2750.333333
1325.320577	2740.000000
1326.470870	2707.333333
1327.620721	2713.000000
1328.770132	2709.333333
1329.919102	2718.000000
1331.067632	2710.666667
1332.215722	2678.666667
1333.363372	2683.666667
1334.510582	2740.000000
1335.657353	2724.666667
1336.803685	2682.000000
1337.949578	2692.333333
1339.095032	2745.333333
1340.240048	2702.000000
1341.384625	2732.000000
1342.528764	2689.000000
1343.672466	2714.000000
1344.815729	2713.333333
1345.958556	2668.333333
1347.100945	2665.666667
1348.242897	2655.333333
1349.384413	2656.000000
1350.525492	2629.333333
1351.666134	2619.333333
1352.806341	2601.666667
1353.946111	2618.333333
1355.085446	2619.000000
1356.224346	2583.000000
1357.362810	2581.666667
1358.500840	2583.333333
1359.638434	2545.333333
1360.775594	2578.333333
1361.912320	2585.666667
1363.048612	2558.666667
1364.184469	2624.000000
1365.319893	2579.333333
1366.454884	2563.000000
1367.589441	2559.000000
1368.723566	2614.000000
1369.857257	2629.000000
1370.990516	2624.333333
1372.123343	2585.333333
1373.255737	2640.000000
1374.387699	2617.666667
1375.519230	2651.333333
1376.650329	2674.333333
1377.780997	2646.333333
1378.911234	2663.333333
1380.041040	2678.000000
1381.170416	2644.000000
1382.299361	2617.000000
1383.427875	2684.000000
1384.555960	2641.666667
1385.683615	2642.333333
1386.810841	2629.000000
1387.937637	2628.666667
1389.064004	2649.000000
1390.189942	2569.000000
1391.315451	2641.000000
1392.440532	2631.666667
1393.565185	2635.000000
1394.689409	2629.666667
1395.813206	2646.666667
1396.936575	2589.666667
1398.059517	2587.666667
1399.182032	2630.000000
1400.304119	2678.000000
1401.425780	2610.666667
1402.547014	2634.666667
1403.667822	2589.333333
1404.788204	2620.333333
1405.908160	2608.333333
1407.027690	2630.000000
1408.146795	2618.666667
1409.265474	2646.666667
1410.383728	2616.666667
1411.501558	2651.666667
1412.618963	2604.333333
1413.735943	2679.333333
1414.852499	2668.000000
1415.968632	2669.666667
1417.084340	2680.666667
1418.199625	2683.333333
1419.314486	2675.666667
1420.428925	2615.333333
1421.542940	2715.000000
1422.656533	2722.333333
1423.769703	2747.666667
1424.882451	2699.333333
1425.994777	2707.000000
1427.106680	2683.666667
1428.218163	2662.333333
1429.329223	2716.000000
1430.439863	2659.333333
1431.550081	2659.666667
1432.659879	2649.000000
1433.769256	2663.000000
1434.878212	2672.333333
1435.986749	2704.000000
1437.094865	2698.000000
1438.202562	2747.333333
1439.309839	2751.000000
1440.416696	2754.666667
1441.523135	2797.333333
1442.629154	2817.666667
1443.734755	2848.000000
1444.839937	2865.000000
1445.944701	2965.000000
1447.049047	2893.000000
1448.152975	2944.333333
1449.256485	2918.333333
1450.359577	2923.666667
1451.462253	2895.333333
1452.564511	2867.666667
1453.666352	2871.333333
1454.767777	2878.666667
1455.868785	2865.666667
1456.969377	2864.666667
1458.069553	2822.000000
1459.169313	2797.333333
1460.268658	2817.666667
1461.367587	2758.666667
1462.466101	2742.333333
1463.564200	2710.666667
1464.661884	2710.666667
1465.759153	2637.333333
1466.856008	2680.666667
1467.952449	2594.000000
1469.048476	2579.666667
1470.144089	2527.000000
1471.239288	2506.333333
1472.334074	2499.000000
1473.428447	2444.000000
1474.522407	2412.666667
1475.615955	2413.000000
1476.709089	2377.666667
1477.801812	2353.333333
1478.894122	2321.333333
1479.986020	2323.666667
1481.077506	2310.000000
1482.168581	2310.333333
1483.259245	2236.333333
1484.349498	2271.333333
1485.439339	2229.333333
1486.528770	2220.666667
1487.617790	2215.000000
1488.706400	2178.000000
1489.794600	2186.000000
1490.882390	2239.666667
1491.969771	2210.333333
1493.056742	2196.333333
1494.143303	2222.000000
1495.229456	2212.333333
1496.315199	2204.333333
1497.400534	2181.666667
1498.485460	2211.333333
1499.569978	2160.000000
1500.654088	2159.666667
1501.737790	2174.666667
1502.821085	2159.000000
1503.903972	2158.000000
1504.986451	2183.666667
1506.068524	2123.666667
1507.150189	2175.000000
1508.231448	2136.333333
1509.312301	2144.000000
1510.392747	2151.000000
1511.472787	2119.333333
1512.552422	2136.666667
1513.631650	2164.000000
1514.710473	2152.333333
1515.788891	2107.000000
1516.866904	2124.000000
1517.944512	2123.333333
1519.021715	2115.000000
1520.098513	2122.666667
1521.174908	2158.333333
1522.250898	2114.333333
1523.326485	2127.333333
1524.401667	2101.333333
1525.476447	2105.000000
1526.550823	2158.333333
1527.624796	2134.666667
1528.698365	2105.000000
1529.771533	2158.666667
1530.844298	2165.333333
1531.916660	2136.666667
1532.988620	2138.666667
1534.060179	2123.666667
1535.131336	2107.000000
1536.202091	2103.000000
1537.272445	2103.666667
1538.342398	2111.000000
1539.411950	2104.333333
1540.481101	2163.666667
1541.549851	2157.666667
1542.618202	2142.333333
1543.686152	2125.666667
1544.753702	2099.333333
1545.820853	2066.333333
1546.887604	2078.333333
1547.953955	2133.000000
1549.019908	2103.000000
1550.085461	2087.666667
1551.150616	2086.000000
1552.215372	2118.333333
1553.279730	2135.000000
1554.343690	2128.333333
1555.407252	2156.333333
1556.470415	2090.666667
1557.533182	2108.666667
1558.595551	2093.666667
1559.657522	2050.333333
1560.719097	2056.000000
1561.780275	2060.666667
1562.841056	2073.666667
1563.901441	2077.666667
1564.961429	2050.333333
1566.021022	2075.666667
1567.080219	2078.333333
1568.139020	2060.000000
1569.197425	2031.666667
1570.255436	2075.000000
1571.313051	2047.000000
1572.370271	2026.000000
1573.427097	2069.666667
1574.483528	2090.666667
1575.539565	2032.666667
1576.595208	2055.000000
1577.650457	2046.333333
1578.705312	2019.666667
1579.759774	2013.333333
1580.813842	2042.000000
1581.867517	2029.333333
1582.920799	2041.000000
1583.973689	2008.333333
1585.026186	2031.000000
1586.078290	2027.333333
1587.130002	2037.333333
1588.181323	2005.666667
1589.232251	2002.666667
1590.282788	1979.333333
1591.332933	2016.666667
1592.382688	2024.000000
1593.432051	2041.000000
1594.481023	2036.666667
1595.529605	2051.666667
1596.577796	2041.333333
1597.625597	2025.000000
1598.673007	2077.000000
1599.720028	2059.000000
1600.766660	2079.666667
1601.812901	2087.000000
1602.858753	2119.333333
1603.904217	2051.666667
1604.949291	2044.666667
1605.993976	2069.666667
1607.038273	2063.666667
1608.082182	2061.666667
1609.125702	2074.000000
1610.168834	2064.333333
1611.211579	2073.666667
1612.253935	2060.333333
1613.295905	2060.333333
1614.337487	2068.333333
1615.378682	2056.000000
1616.419490	2116.000000
1617.459912	2078.333333
1618.499946	2077.000000
1619.539595	2098.000000
1620.578858	2118.000000
1621.617734	2077.666667
1622.656225	2113.333333
1623.694330	2109.000000
1624.732050	2126.666667
1625.769385	2090.666667
1626.806334	2126.333333
1627.842899	2126.666667
1628.879079	2142.000000
1629.914875	2111.000000
1630.950286	2186.333333
1631.985314	2158.666667
1633.019957	2183.000000
1634.054217	2149.666667
1635.088093	2168.333333
1636.121586	2193.666667
1637.154696	2186.666667
1638.187423	2175.000000
1639.219767	2173.333333
1640.251728	2143.000000
1641.283307	2190.333333
1642.314504	2170.666667
1643.345319	2184.000000
1644.375751	2166.000000
1645.405803	2188.666667
1646.435472	2199.333333
1647.464761	2192.333333
1648.493668	2186.000000
1649.522194	2202.333333
1650.550340	2203.000000
1651.578105	2186.666667
1652.605490	2191.333333
1653.632494	2224.666667
1654.659119	2224.333333
1655.685363	2244.333333
1656.711228	2203.000000
1657.736714	2220.666667
1658.761820	2199.666667
1659.786547	2208.333333
1660.810895	2205.000000
1661.834865	2184.000000
1662.858456	2222.000000
1663.881668	2232.333333
1664.904503	2211.000000
1665.926959	2159.333333
1666.949038	2203.666667
1667.970739	2193.000000
1668.992062	2164.666667
1670.013008	2144.333333
1671.033577	2149.000000
1672.053770	2119.333333
1673.073585	2133.333333
1674.093024	2090.000000
1675.112086	2157.000000
1676.130773	2086.333333
1677.149083	2095.333333
1678.167017	2072.666667
1679.184576	2060.333333
1680.201760	2116.000000
1681.218568	2074.333333
1682.235001	2040.666667
1683.251059	2052.000000
1684.266742	2025.666667
1685.282051	2033.666667
1686.296985	2034.333333
1687.311546	2007.666667
1688.325732	1986.666667
1689.339544	1966.000000
1690.352983	1942.333333
1691.366048	1933.333333
1692.378740	1923.333333
1693.391058	1918.666667
1694.403004	1913.666667
1695.414577	1851.000000
1696.425778	1846.333333
1697.436606	1814.333333
1698.447061	1811.666667
1699.457145	1840.333333
1700.466857	1828.000000
1701.476197	1803.000000
1702.485166	1768.333333
1703.493763	1753.666667
1704.501989	1750.333333
1705.509844	1790.333333
1706.517328	1769.666667
1707.524442	1751.333333
1708.531185	1734.666667
1709.537558	1729.333333
1710.543561	1721.000000
1711.549194	1746.666667
1712.554457	1721.666667
1713.559351	1699.000000
1714.563875	1724.000000
1715.568030	1711.333333
1716.571816	1716.333333
1717.575233	1741.333333
1718.578282	1694.666667
1719.580962	1717.666667
1720.583273	1741.666667
1721.585217	1719.000000
1722.586792	1715.666667
1723.588000	1719.666667
1724.588840	1728.333333
1725.589312	1705.333333
1726.589418	1722.000000
1727.589156	1756.666667
1728.588527	1707.333333
1729.587532	1716.000000
1730.586170	1725.666667
1731.584441	1713.000000
1732.582346	1718.666667
1733.579886	1718.333333
1734.577059	1699.333333
1735.573867	1710.333333
1736.570309	1702.000000
1737.566386	1711.666667
1738.562097	1698.333333
1739.557444	1681.000000
1740.552426	1684.333333
1741.547043	1678.000000
1742.541295	1673.666667
1743.535184	1651.666667
1744.528708	1666.666667
1745.521868	1638.000000
1746.514664	1666.000000
1747.507097	1648.333333
1748.499166	1651.000000
1749.490873	1631.000000
1750.482216	1649.000000
1751.473196	1658.000000
1752.463813	1626.000000
1753.454068	1638.000000
1754.443960	1656.333333
1755.433490	1647.666667
1756.422658	1632.333333
1757.411464	1621.333333
1758.399908	1633.333333
1759.387991	1633.333333
1760.375713	1641.666667
1761.363073	1623.000000
1762.350072	1662.000000
1763.336711	1601.000000
1764.322988	1624.000000
1765.308905	1628.000000
1766.294462	1624.333333
1767.279659	1601.666667
1768.264496	1616.000000
1769.248972	1604.666667
1770.233089	1589.666667
1771.216847	1592.666667
1772.200245	1579.333333
1773.183284	1587.666667
1774.165965	1570.333333
1775.148286	1596.666667
1776.130249	1598.333333
1777.111853	1566.000000
1778.093099	1580.666667
1779.073987	1566.333333
1780.054517	1567.333333
1781.034689	1570.333333
1782.014503	1553.000000
1782.993960	1555.666667
1783.973060	1547.000000
1784.951802	1515.000000
1785.930188	1516.000000
1786.908217	1540.333333
1787.885889	1514.000000
1788.863205	1516.000000
1789.840164	1489.333333
1790.816768	1493.666667
1791.793015	1476.333333
1792.768907	1487.666667
1793.744443	1497.000000
1794.719624	1505.666667
1795.694449	1512.000000
1796.668919	1508.333333
1797.643035	1534.666667
1798.616795	1522.333333
1799.590201	1509.666667
1800.563253	1515.666667
1801.535950	1517.333333
1802.508294	1512.666667
1803.480283	1521.666667
1804.451919	1543.000000
1805.423201	1518.333333
1806.394129	1537.666667
1807.364705	1499.000000
1808.334927	1524.666667
1809.304796	1536.333333
1810.274313	1505.666667
1811.243477	1505.333333
1812.212288	1519.666667
1813.180747	1505.000000
1814.148855	1524.666667
1815.116610	1494.666667
1816.084013	1519.000000
1817.051065	1503.666667
1818.017766	1499.666667
1818.984115	1524.666667
1819.950113	1504.333333
1820.915760	1482.333333
1821.881057	1506.333333
1822.846003	1493.333333
1823.810598	1489.333333
1824.774843	1494.000000
1825.738738	1535.333333
1826.702283	1482.000000
1827.665479	1521.666667
1828.628324	1489.000000
1829.590821	1514.000000
1830.552968	1485.000000
1831.514765	1478.333333
1832.476214	1469.000000
1833.437314	1478.000000
1834.398066	1478.333333
1835.358469	1462.000000
1836.318524	1430.000000
1837.278230	1484.000000
1838.237589	1463.666667
1839.196600	1473.333333
1840.155263	1487.000000
1841.113578	1448.333333
1842.071547	1484.000000
1843.029168	1472.666667
1843.986442	1471.666667
1844.943369	1476.000000
1845.899950	1433.333333
1846.856184	1471.000000
1847.812072	1475.666667
1848.767614	1484.000000
1849.722809	1443.000000
1850.677659	1473.333333
1851.632163	1473.000000
1852.586322	1485.333333
1853.540135	1456.333333
1854.493603	1460.333333
1855.446726	1456.333333
1856.399504	1440.000000
1857.351937	1467.333333
1858.304026	1453.666667
1859.255770	1464.000000
1860.207170	1463.000000
1861.158227	1441.000000
1862.108939	1429.333333
1863.059307	1420.666667
1864.009332	1447.333333
1864.959013	1425.000000
1865.908351	1419.666667
1866.857346	1438.666667
1867.805998	1431.333333
1868.754307	1395.000000
1869.702274	1417.666667
1870.649898	1412.000000
1871.597180	1404.333333
1872.544119	1388.666667
1873.490717	1388.333333
1874.436973	1384.000000
1875.382887	1369.666667
1876.328459	1391.666667
1877.273691	1366.666667
1878.218581	1363.333333
1879.163130	1380.333333
1880.107338	1405.000000
1881.051205	1371.000000
1881.994732	1418.333333
1882.937919	1404.666667
1883.880765	1417.666667
1884.823271	1397.333333
1885.765437	1409.666667
1886.707264	1399.000000
1887.648750	1409.000000
1888.589898	1388.666667
1889.530706	1386.000000
1890.471175	1393.333333
1891.411305	1422.000000
1892.351096	1407.333333
1893.290548	1412.333333
1894.229662	1415.333333
1895.168438	1397.666667
1896.106876	1403.000000
1897.044975	1361.333333
1897.982737	1414.000000
1898.920160	1403.666667
1899.857247	1379.666667
1900.793996	1392.000000
1901.730407	1394.333333
1902.666482	1384.666667
1903.602219	1376.666667
1904.537620	1373.333333
1905.472685	1400.000000
1906.407412	1362.666667
1907.341804	1369.000000
1908.275859	1359.666667
1909.209579	1360.333333
1910.142962	1344.000000
1911.076010	1350.000000
1912.008722	1335.666667
1912.941099	1320.666667
1913.873141	1327.666667
1914.804848	1336.333333
1915.736219	1331.666667
1916.667256	1335.000000
1917.597959	1311.333333
1918.528327	1309.000000
1919.458360	1318.666667
1920.388060	1332.000000
1921.317426	1297.000000
1922.246457	1302.000000
1923.175156	1300.333333
1924.103520	1312.666667
1925.031552	1347.333333
1925.959250	1317.333333
1926.886615	1314.333333
1927.813647	1331.333333
1928.740346	1330.000000
1929.666713	1305.333333
1930.592748	1308.666667
1931.518450	1315.000000
1932.443820	1304.333333
1933.368858	1351.666667
1934.293564	1303.333333
1935.217939	1327.000000
1936.141982	1322.666667
1937.065694	1327.000000
1937.989074	1310.333333
1938.912124	1286.666667
1939.834842	1310.333333
1940.757230	1312.000000
1941.679287	1295.333333
1942.601014	1281.333333
1943.522411	1288.000000
1944.443477	1284.000000
1945.364214	1280.000000
1946.284621	1302.000000
1947.204698	1269.333333
1948.124445	1287.333333
1949.043863	1269.333333
1949.962952	1278.000000
1950.881712	1263.333333
1951.800143	1252.000000
1952.718245	1257.333333
1953.636019	1259.666667
1954.553464	1272.333333
1955.470581	1270.333333
1956.387369	1280.000000
1957.303830	1266.666667
1958.219963	1252.000000
1959.135768	1248.000000
1960.051246	1230.333333
1960.966396	1267.333333
1961.881219	1266.333333
1962.795715	1254.000000
1963.709883	1262.000000
1964.623726	1269.000000
1965.537241	1264.000000
1966.450430	1252.333333
1967.363293	1272.666667
1968.275829	1274.666667
1969.188040	1247.333333
1970.099924	1261.333333
1971.011483	1285.333333
1971.922716	1257.666667
1972.833624	1276.000000
1973.744206	1268.333333
1974.654464	1261.666667
1975.564396	1252.666667
1976.474004	1254.666667
1977.383286	1253.333333
1978.292245	1273.666667
1979.200878	1257.666667
1980.109188	1251.666667
1981.017174	1257.000000
1981.924835	1258.333333
1982.832173	1255.666667
1983.739187	1243.000000
1984.645878	1260.000000
1985.552245	1237.000000
1986.458289	1234.333333
1987.364010	1215.000000
1988.269408	1229.333333
1989.174484	1220.000000
1990.079236	1202.333333
1990.983667	1235.333333
1991.887775	1211.333333
1992.791561	1212.333333
1993.695024	1181.666667
1994.598166	1214.666667
1995.500986	1206.000000
1996.403485	1202.333333
1997.305662	1186.000000
1998.207518	1199.000000
1999.109053	1197.666667
