200.151048	25229.333333
201.758777	25223.333333
203.365815	25157.000000
204.972162	25121.333333
206.577820	25018.000000
208.182787	24946.333333
209.787065	25015.333333
211.390653	24956.666667
212.993553	24800.666667
214.595765	24801.666667
216.197289	24687.333333
217.798125	24790.333333
219.398274	24769.333333
220.997737	24631.333333
222.596513	24764.000000
224.194603	24648.333333
225.792008	24631.666667
227.388728	24547.666667
228.984763	24559.333333
230.580114	24487.333333
232.174781	24517.000000
233.768765	24408.666667
235.362065	24364.333333
236.954683	24450.000000
238.546619	24432.333333
240.137872	24336.666667
241.728445	24258.000000
243.318336	24107.000000
244.907546	24139.333333
246.496076	24054.000000
248.083926	24027.666667
249.671097	24012.333333
251.257589	23870.000000
252.843402	23913.666667
254.428536	23759.333333
256.012993	23701.333333
257.596772	23728.666667
259.179874	23658.666667
260.762300	23619.000000
262.344049	23455.000000
263.925122	23450.333333
265.505519	23414.000000
267.085241	23438.000000
268.664289	23343.333333
270.242662	23530.666667
271.820361	23416.666667
273.397387	23449.666667
274.973740	23492.333333
276.549419	23387.333333
278.124426	23363.000000
279.698762	23440.333333
281.272425	23378.333333
282.845417	23429.666667
284.417739	23462.333333
285.989390	23422.666667
287.560371	23503.333333
289.130682	23420.333333
290.700324	23458.666667
292.269297	23624.000000
293.837602	23431.666667
295.405238	23506.666667
296.972207	23336.666667
298.538508	23388.000000
300.104142	23254.666667
301.669110	23237.000000
303.233411	23263.666667
304.797047	23089.333333
306.360017	23082.000000
307.922322	22938.000000
309.483963	22869.666667
311.044939	22908.666667
312.605252	22748.333333
314.164900	22721.666667
315.723886	22693.666667
317.282209	22432.666667
318.839870	22477.333333
320.396868	22510.000000
321.953205	22509.333333
323.508881	22277.666667
325.063896	22408.666667
326.618251	22493.333333
328.171945	22221.000000
329.724980	22176.000000
331.277356	22317.666667
332.829072	22283.000000
334.380131	22318.666667
335.930530	22293.333333
337.480273	22197.666667
339.029357	22257.333333
340.577785	22228.666667
342.125556	22331.666667
343.672671	22122.333333
345.219130	22267.000000
346.764933	22166.000000
348.310081	22197.666667
349.854575	22184.666667
351.398414	22136.000000
352.941599	21922.000000
354.484130	22122.666667
356.026008	21975.666667
357.567234	22061.000000
359.107807	21839.000000
360.647727	21937.666667
362.186996	21852.000000
363.725614	21885.333333
365.263580	21983.000000
366.800896	21812.666667
368.337562	21702.333333
369.873578	21859.000000
371.408944	21782.333333
372.943661	21764.666667
374.477730	21814.666667
376.011150	21588.333333
377.543922	21720.666667
379.076046	21761.333333
380.607523	21834.666667
382.138353	21909.333333
383.668537	21731.333333
385.198075	21912.666667
386.726966	21795.666667
388.255213	21978.666667
389.782814	21896.000000
391.309770	21928.666667
392.836083	21996.666667
394.361751	21952.000000
395.886776	21800.333333
397.411157	22042.333333
398.934896	22143.000000
400.457992	22018.000000
401.980446	22125.000000
403.502258	22112.666667
405.023429	22205.666667
406.543959	22260.666667
408.063849	22368.000000
409.583098	22440.000000
411.101707	22539.333333
412.619677	22514.666667
414.137007	22710.333333
415.653699	22850.666667
417.169752	22972.000000
418.685167	23011.000000
420.199945	23291.000000
421.714085	23524.333333
423.227588	23553.666667
424.740454	23842.666667
426.252684	24040.333333
427.764279	24104.666667
429.275238	24249.333333
430.785561	24092.000000
432.295250	23943.666667
433.804304	23992.666667
435.312725	23589.666667
436.820511	23536.666667
438.327664	23335.000000
439.834185	23243.333333
441.340072	23141.333333
442.845327	22991.666667
444.349951	23016.666667
445.853942	23089.333333
447.357303	22858.000000
448.860033	22778.333333
450.362132	22667.000000
451.863601	22531.333333
453.364440	22475.000000
454.864650	22246.000000
456.364231	22214.333333
457.863183	22039.666667
459.361507	21789.666667
460.859203	21784.333333
462.356271	21527.666667
463.852712	21575.333333
465.348526	21344.000000
466.843714	21346.666667
468.338275	21162.666667
469.832210	21157.666667
471.325520	21012.666667
472.818205	20962.333333
474.310265	20978.000000
475.801700	20854.666667
477.292512	20841.666667
478.782700	20832.333333
480.272264	20667.333333
481.761205	20757.000000
483.249524	20589.000000
484.737221	20506.000000
486.224295	20460.333333
487.710748	20513.666667
489.196579	20522.000000
490.681790	20344.333333
492.166380	20316.333333
493.650350	20387.000000
495.133700	20412.666667
496.616431	20468.333333
498.098542	20394.666667
499.580035	20353.666667
501.060909	20346.333333
502.541165	20325.000000
504.020804	20280.333333
505.499825	20243.666667
506.978228	20230.666667
508.456016	20143.666667
509.933186	20155.333333
511.409741	20096.666667
512.885680	20094.333333
514.361004	20144.666667
515.835713	19992.000000
517.309807	19993.000000
518.783287	20095.333333
520.256153	20083.333333
521.728406	20164.333333
523.200045	20123.333333
524.671071	19883.000000
526.141485	20046.333333
527.611287	20087.333333
529.080476	20105.333333
530.549054	19981.666667
532.017021	20029.000000
533.484378	20008.666667
534.951123	20083.333333
536.417259	19977.666667
537.882785	19943.333333
539.347701	19887.666667
540.812008	19935.333333
542.275707	19930.666667
543.738797	19987.333333
545.201279	19901.333333
546.663153	19981.000000
548.124420	20042.666667
549.585080	19869.000000
551.045133	19993.333333
552.504579	20007.666667
553.963420	19953.333333
555.421655	20024.666667
556.879285	20110.333333
558.336309	20095.666667
559.792729	20149.333333
561.248545	20121.666667
562.703756	20295.666667
564.158364	20269.333333
565.612369	20331.333333
567.065770	20383.000000
568.518569	20452.666667
569.970766	20581.333333
571.422361	20583.333333
572.873354	20775.666667
574.323745	20802.666667
575.773536	20943.333333
577.222726	21070.333333
578.671316	21148.333333
580.119306	21204.333333
581.566696	21151.666667
583.013487	21232.666667
584.459679	21172.333333
585.905273	21153.666667
587.350268	21062.333333
588.794665	21031.666667
590.238465	21000.666667
591.681667	21008.666667
593.124272	20803.666667
594.566281	20537.666667
596.007694	20448.666667
597.448510	20333.333333
598.888731	20252.333333
600.328357	20033.000000
601.767388	19931.333333
603.205824	19871.666667
604.643666	19823.000000
606.080914	19789.666667
607.517568	19836.000000
608.953629	19787.000000
610.389097	19836.000000
611.823972	19761.666667
613.258255	19682.333333
614.691946	19609.666667
616.125046	19544.333333
617.557554	19377.333333
618.989471	19183.666667
620.420798	19174.000000
621.851534	19063.333333
623.281680	19035.666667
624.711237	18886.000000
626.140204	18873.666667
627.568582	18613.333333
628.996372	18677.666667
630.423573	18606.333333
631.850186	18567.666667
633.276211	18568.666667
634.701650	18438.333333
636.126501	18374.000000
637.550765	18495.000000
638.974443	18375.000000
640.397535	18362.666667
641.820041	18433.333333
643.241961	18295.333333
644.663297	18332.666667
646.084048	18335.000000
647.504214	18307.333333
648.923796	18212.333333
650.342795	18202.333333
651.761210	18365.000000
653.179041	18157.000000
654.596290	18183.000000
656.012957	18295.333333
657.429041	18149.333333
658.844543	18160.000000
660.259464	18031.333333
661.673804	18080.000000
663.087563	17988.666667
664.500741	18018.333333
665.913339	18089.333333
667.325357	18069.666667
668.736795	18175.333333
670.147654	18055.000000
671.557934	17996.333333
672.967636	18003.666667
674.376759	18020.333333
675.785304	17921.333333
677.193271	17907.666667
678.600661	17889.333333
680.007474	17730.333333
681.413711	17958.666667
682.819370	17736.333333
684.224454	17955.333333
685.628962	17710.000000
687.032895	17745.333333
688.436252	17742.333333
689.839034	17724.666667
691.241242	17799.666667
692.642876	17685.333333
694.043936	17745.666667
695.444422	17609.666667
696.844336	17634.666667
698.243676	17743.333333
699.642443	17742.000000
701.040639	17606.666667
702.438262	17579.000000
703.835313	17604.000000
705.231794	17511.000000
706.627703	17513.333333
708.023041	17551.333333
709.417810	17543.666667
710.812008	17414.333333
712.205636	17549.000000
713.598694	17498.333333
714.991184	17443.333333
716.383105	17443.000000
717.774457	17316.666667
719.165241	17413.333333
720.555457	17477.666667
721.945105	17376.666667
723.334187	17348.666667
724.722701	17386.666667
726.110648	17284.000000
727.498030	17236.666667
728.884845	17219.666667
730.271094	17352.000000
731.656778	17274.000000
733.041897	17188.000000
734.426451	17406.666667
735.810441	17286.666667
737.193866	17314.333333
738.576728	17259.000000
739.959026	17183.333333
741.340760	17139.000000
742.721932	17163.000000
744.102541	17111.666667
745.482588	17159.333333
746.862073	17193.666667
748.240996	17131.000000
749.619358	17089.666667
750.997158	17086.333333
752.374398	17043.333333
753.751077	17217.333333
755.127197	17000.666667
756.502756	17019.666667
757.877756	16955.666667
759.252196	17106.000000
760.626078	16932.666667
761.999400	16978.000000
763.372165	16983.333333
764.744371	16908.000000
766.116020	16987.000000
767.487111	16946.000000
768.857646	16886.000000
770.227623	16934.666667
771.597044	16771.333333
772.965908	16883.333333
774.334217	16768.333333
775.701970	16834.333333
777.069168	16695.666667
778.435811	16614.666667
779.801899	16573.000000
781.167433	16629.333333
782.532412	16491.666667
783.896838	16707.666667
785.260710	16625.000000
786.624029	16625.666667
787.986796	16481.666667
789.349009	16480.000000
790.710671	16653.000000
792.071780	16513.666667
793.432338	16375.333333
794.792344	16369.000000
796.151799	16352.333333
797.510704	16359.666667
798.869058	16298.666667
800.226862	16258.666667
801.584116	16312.333333
802.940820	16304.666667
804.296975	16317.333333
805.652581	16375.666667
807.007638	16186.666667
808.362147	16434.666667
809.716108	16401.666667
811.069521	16386.000000
812.422387	16330.666667
813.774705	16280.666667
815.126476	16277.000000
816.477701	16281.333333
817.828380	16378.000000
819.178512	16433.333333
820.528099	16255.666667
821.877140	16145.333333
823.225637	16196.666667
824.573588	16136.333333
825.920995	16252.000000
827.267857	16117.000000
828.614176	16085.333333
829.959951	16161.666667
831.305183	16141.000000
832.649871	16138.333333
833.994017	16091.666667
835.337620	16042.333333
836.680681	16102.666667
838.023201	16081.333333
839.365178	16025.000000
840.706614	16063.000000
842.047510	16054.000000
843.387864	16087.333333
844.727678	16150.666667
846.066952	16199.666667
847.405687	16280.000000
848.743881	16306.333333
850.081537	16341.333333
851.418653	16299.666667
852.755231	16296.333333
854.091270	16341.333333
855.426771	16201.666667
856.761735	16242.000000
858.096160	16304.333333
859.430049	16036.000000
860.763401	16104.000000
862.096216	16132.000000
863.428495	15993.333333
864.760237	15943.666667
866.091444	15975.000000
867.422115	16060.666667
868.752252	15917.666667
870.081853	15846.000000
871.410919	15934.666667
872.739452	15833.666667
874.067450	15948.000000
875.394914	15907.666667
876.721845	15817.000000
878.048243	15769.000000
879.374108	15827.000000
880.699440	15777.000000
882.024240	15677.333333
883.348508	15670.666667
884.672244	15644.666667
885.995449	15545.000000
887.318122	15556.333333
888.640265	15595.000000
889.961877	15511.333333
891.282959	15597.666667
892.603510	15642.333333
893.923532	15540.333333
895.243024	15533.333333
896.561987	15327.000000
897.880422	15377.666667
899.198327	15451.333333
900.515705	15288.666667
901.832554	15294.333333
903.148875	15364.000000
904.464669	15250.666667
905.779936	15276.000000
907.094676	15338.333333
908.408889	15329.000000
909.722576	15355.000000
911.035737	15260.000000
912.348371	15371.333333
913.660481	15401.000000
914.972065	15343.666667
916.283124	15649.666667
917.593659	15463.333333
918.903669	15613.000000
920.213155	15573.000000
921.522117	15685.666667
922.830556	15621.000000
924.138471	15572.666667
925.445864	15651.666667
926.752733	15580.333333
928.059081	15594.666667
929.364906	15704.000000
930.670209	15696.333333
931.974991	15781.000000
933.279251	15902.000000
934.582990	15973.000000
935.886209	16126.000000
937.188907	16322.666667
938.491085	16419.666667
939.792743	16688.333333
941.093881	16975.333333
942.394500	17255.333333
943.694600	17430.666667
944.994181	17961.333333
946.293243	18459.666667
947.591787	18819.333333
948.889813	19601.333333
950.187322	20196.666667
951.484313	21061.333333
952.780787	22038.666667
954.076744	23249.666667
955.372184	24028.666667
956.667108	24929.666667
957.961516	25687.000000
959.255409	25763.666667
960.548785	25684.666667
961.841647	25006.000000
963.133993	24111.666667
964.425825	22934.000000
965.717142	21810.000000
967.007946	20585.000000
968.298235	19380.666667
969.588011	18466.333333
970.877273	17807.333333
972.166023	16998.333333
973.454259	16375.666667
974.741984	16000.000000
976.029196	15572.333333
977.315895	15271.333333
978.602084	15186.666667
979.887761	14910.333333
981.172926	14799.333333
982.457581	14646.666667
983.741725	14516.666667
985.025359	14526.000000
986.308483	14410.333333
987.591097	14304.666667
988.873202	14414.000000
990.154797	14341.333333
991.435883	14342.666667
992.716461	14236.666667
993.996530	14265.000000
995.276091	14365.666667
996.555144	14333.666667
997.833690	14417.666667
999.111728	14319.666667
1000.389259	14469.333333
1001.666283	14538.000000
1002.942800	14484.000000
1004.218812	14528.333333
1005.494317	14358.000000
1006.769317	14391.333333
1008.043811	14438.333333
1009.317799	14345.333333
1010.591283	14388.666667
1011.864263	14415.666667
1013.136737	14316.666667
1014.408708	14332.000000
1015.680175	14304.000000
1016.951138	14382.333333
1018.221598	14362.000000
1019.491554	14426.333333
1020.761008	14274.333333
1022.029959	14455.666667
1023.298408	14465.666667
1024.566355	14403.666667
1025.833800	14405.666667
1027.100744	14376.333333
1028.367187	14606.333333
1029.633128	14493.666667
1030.898569	14576.000000
1032.163509	14546.333333
1033.427949	14579.333333
1034.691890	14453.333333
1035.955330	14520.000000
1037.218271	14528.666667
1038.480714	14549.333333
1039.742657	14491.000000
1041.004101	14586.666667
1042.265048	14621.000000
1043.525496	14626.000000
1044.785446	14566.000000
1046.044899	14498.000000
1047.303855	14355.000000
1048.562313	14471.000000
1049.820275	14511.666667
1051.077740	14384.666667
1052.334709	14335.666667
1053.591182	14346.666667
1054.847160	14369.000000
1056.102641	14253.000000
1057.357628	14284.666667
1058.612120	14384.333333
1059.866117	14331.333333
1061.119619	14423.333333
1062.372628	14491.000000
1063.625142	14418.666667
1064.877163	14494.666667
1066.128691	14495.333333
1067.379725	14633.666667
1068.630267	14776.333333
1069.880316	14750.666667
1071.129872	14738.666667
1072.378937	14632.666667
1073.627509	14532.000000
1074.875590	14388.666667
1076.123180	14286.000000
1077.370279	14015.333333
1078.616887	14086.666667
1079.863004	13927.000000
1081.108631	13879.000000
1082.353768	13693.333333
1083.598415	13645.666667
1084.842573	13446.666667
1086.086241	13343.333333
1087.329421	13260.333333
1088.572111	13258.666667
1089.814314	13248.333333
1091.056028	12962.000000
1092.297253	13036.000000
1093.537992	13063.333333
1094.778242	13029.666667
1096.018006	12865.666667
1097.257282	13041.000000
1098.496072	12907.000000
1099.734376	12915.333333
1100.972193	12920.333333
1102.209524	12826.333333
1103.446370	12892.000000
1104.682730	12796.666667
1105.918604	12784.000000
1107.153994	12708.000000
1108.388900	12790.000000
1109.623320	12570.333333
1110.857257	12639.333333
1112.090710	12494.333333
1113.323679	12397.666667
1114.556164	12566.000000
1115.788167	12428.666667
1117.019686	12415.666667
1118.250723	12350.000000
1119.481278	12241.000000
1120.711350	12400.666667
1121.940940	12252.666667
1123.170049	12322.333333
1124.398676	12171.333333
1125.626823	12249.000000
1126.854488	12187.000000
1128.081672	12146.666667
1129.308376	12186.333333
1130.534600	12141.333333
1131.760345	12175.000000
1132.985609	12110.666667
1134.210394	12097.333333
1135.434700	12099.000000
1136.658527	12080.666667
1137.881875	12033.666667
1139.104745	12036.000000
1140.327136	12082.666667
1141.549050	12023.666667
1142.770486	12022.000000
1143.991445	12089.666667
1145.211926	11985.666667
1146.431931	12061.333333
1147.651459	11963.333333
1148.870510	12006.666667
1150.089086	11989.666667
1151.307185	11703.333333
1152.524808	11976.000000
1153.741957	12015.000000
1154.958630	11923.666667
1156.174828	11854.333333
1157.390551	11934.666667
1158.605800	11845.666667
1159.820574	11892.333333
1161.034875	11891.333333
1162.248702	11927.666667
1163.462055	11842.666667
1164.674936	11877.666667
1165.887343	11772.666667
1167.099277	11781.666667
1168.310739	11838.000000
1169.521729	11768.666667
1170.732247	11846.666667
1171.942293	11841.333333
1173.151867	11814.333333
1174.360970	11721.333333
1175.569602	11761.666667
1176.777764	11701.666667
1177.985454	11738.333333
1179.192675	11626.333333
1180.399425	11621.000000
1181.605706	11604.000000
1182.811517	11647.666667
1184.016859	11607.666667
1185.221731	11563.000000
1186.426135	11530.000000
1187.630070	11475.333333
1188.833537	11524.333333
1190.036535	11471.666667
1191.239066	11452.666667
1192.441129	11403.666667
1193.642725	11365.000000
1194.843853	11436.333333
1196.044515	11366.333333
1197.244710	11338.666667
1198.444438	11391.333333
1199.643701	11377.333333
1200.842497	11441.000000
1202.040827	11385.333333
1203.238693	11382.666667
1204.436092	11358.000000
1205.633027	11352.000000
1206.829497	11275.333333
1208.025503	11303.000000
1209.221044	11264.333333
1210.416122	11298.666667
1211.610735	11224.333333
1212.804885	11133.666667
1213.998572	11092.000000
1215.191795	11064.000000
1216.384556	11079.000000
1217.576854	11154.333333
1218.768689	11044.333333
1219.960063	11118.000000
1221.150974	10958.000000
1222.341424	11013.333333
1223.531413	11034.000000
1224.720940	11064.000000
1225.910006	11058.000000
1227.098612	11077.000000
1228.286757	10957.666667
1229.474442	11160.000000
1230.661667	11162.333333
1231.848432	11174.666667
1233.034738	11245.666667
1234.220584	11261.000000
1235.405971	11242.333333
1236.590900	11146.000000
1237.775369	11192.666667
1238.959381	11273.333333
1240.142934	11365.333333
1241.326029	11339.000000
1242.508667	11277.000000
1243.690848	11275.333333
1244.872571	11331.000000
1246.053837	11295.666667
1247.234646	11251.333333
1248.414999	11235.333333
1249.594896	11195.666667
1250.774337	11222.333333
1251.953322	11202.333333
1253.131851	11102.333333
1254.309925	11094.666667
1255.487544	11036.000000
1256.664708	10996.000000
1257.841417	11067.666667
1259.017673	11006.333333
1260.193473	11004.000000
1261.368820	11056.000000
1262.543714	11066.333333
1263.718154	11066.333333
1264.892140	11056.333333
1266.065674	11091.000000
1267.238755	11120.000000
1268.411383	11017.333333
1269.583559	11041.666667
1270.755283	11098.666667
1271.926555	11064.333333
1273.097375	11027.333333
1274.267744	11013.666667
1275.437662	10967.000000
1276.607129	11053.000000
1277.776145	10905.666667
1278.944711	10940.333333
1280.112827	10946.333333
1281.280492	10859.000000
1282.447708	10930.000000
1283.614474	10710.333333
1284.780791	10822.666667
1285.946659	10735.333333
1287.112078	10631.666667
1288.277048	10634.666667
1289.441570	10691.333333
1290.605644	10544.000000
1291.769270	10537.333333
1292.932448	10437.333333
1294.095178	10427.666667
1295.257461	10484.000000
1296.419298	10471.000000
1297.580687	10425.666667
1298.741630	10350.000000
1299.902126	10368.333333
1301.062177	10456.333333
1302.221781	10280.333333
1303.380940	10362.333333
1304.539653	10268.000000
1305.697921	10314.000000
1306.855744	10331.333333
1308.013123	10364.333333
1309.170056	10265.000000
1310.326546	10381.333333
1311.482591	10332.000000
1312.638193	10296.666667
1313.793350	10425.000000
1314.948065	10329.666667
1316.102336	10267.333333
1317.256164	10289.666667
1318.409550	10272.666667
1319.562493	10149.666667
1320.714993	10272.000000
1321.867052	10078.333333
1323.018668	10111.333333
1324.169843	10068.333333
1325.320577	10050.333333
1326.470870	10089.333333
1327.620721	9988.333333
1328.770132	9989.333333
1329.919102	9925.000000
1331.067632	9972.666667
1332.215722	9998.666667
1333.363372	9893.666667
1334.510582	9933.666667
1335.657353	10013.666667
1336.803685	9905.333333
1337.949578	9948.000000
1339.095032	9964.333333
1340.240048	9962.666667
1341.384625	10000.000000
1342.528764	9967.000000
1343.672466	9978.666667
1344.815729	9950.666667
1345.958556	9945.000000
1347.100945	9863.666667
1348.242897	9836.333333
1349.384413	9772.666667
1350.525492	9794.333333
1351.666134	9768.333333
1352.806341	9749.333333
1353.946111	9625.666667
1355.085446	9669.666667
1356.224346	9635.666667
1357.362810	9659.666667
1358.500840	9606.666667
1359.638434	9576.666667
1360.775594	9598.000000
1361.912320	9556.666667
1363.048612	9487.333333
1364.184469	9529.000000
1365.319893	9559.666667
1366.454884	9551.333333
1367.589441	9513.333333
1368.723566	9505.000000
1369.857257	9491.000000
1370.990516	9442.333333
1372.123343	9473.000000
1373.255737	9539.000000
1374.387699	9579.666667
1375.519230	9618.000000
1376.650329	9495.666667
1377.780997	9507.666667
1378.911234	9602.000000
1380.041040	9528.000000
1381.170416	9477.666667
1382.299361	9579.000000
1383.427875	9521.666667
1384.555960	9499.000000
1385.683615	9576.000000
1386.810841	9405.333333
1387.937637	9467.000000
1389.064004	9472.000000
1390.189942	9402.666667
1391.315451	9459.333333
1392.440532	9367.000000
1393.565185	9419.000000
1394.689409	9383.666667
1395.813206	9488.666667
1396.936575	9342.666667
1398.059517	9353.666667
1399.182032	9346.000000
1400.304119	9289.666667
1401.425780	9268.000000
1402.547014	9342.333333
1403.667822	9335.000000
1404.788204	9308.333333
1405.908160	9266.666667
1407.027690	9216.000000
1408.146795	9183.666667
1409.265474	9258.000000
1410.383728	9233.666667
1411.501558	9250.666667
1412.618963	9263.666667
1413.735943	9304.666667
1414.852499	9288.666667
1415.968632	9326.666667
1417.084340	9281.333333
1418.199625	9250.333333
1419.314486	9244.000000
1420.428925	9250.000000
1421.542940	9234.000000
1422.656533	9323.000000
1423.769703	9239.000000
1424.882451	9220.000000
1425.994777	9173.666667
1427.106680	9127.666667
1428.218163	9226.666667
1429.329223	9145.333333
1430.439863	9118.000000
1431.550081	9099.666667
1432.659879	9067.000000
1433.769256	9005.333333
1434.878212	9083.666667
1435.986749	9061.000000
1437.094865	9046.666667
1438.202562	9139.666667
1439.309839	9000.333333
1440.416696	9051.333333
1441.523135	9099.666667
1442.629154	9027.333333
1443.734755	9205.333333
1444.839937	9225.000000
1445.944701	9241.666667
1447.049047	9285.666667
1448.152975	9268.000000
1449.256485	9253.000000
1450.359577	9209.666667
1451.462253	9237.000000
1452.564511	9159.666667
1453.666352	9174.333333
1454.767777	9049.666667
1455.868785	9168.666667
1456.969377	9144.666667
1458.069553	9002.000000
1459.169313	9050.666667
1460.268658	9024.333333
1461.367587	8885.000000
1462.466101	8974.666667
1463.564200	8913.666667
1464.661884	8894.666667
1465.759153	8849.666667
1466.856008	8749.333333
1467.952449	8615.333333
1469.048476	8663.666667
1470.144089	8559.666667
1471.239288	8564.000000
1472.334074	8482.000000
1473.428447	8434.000000
1474.522407	8430.666667
1475.615955	8353.333333
1476.709089	8272.000000
1477.801812	8373.333333
1478.894122	8227.000000
1479.986020	8282.333333
1481.077506	8151.666667
1482.168581	8215.333333
1483.259245	8220.666667
1484.349498	8145.666667
1485.439339	8177.000000
1486.528770	8112.333333
1487.617790	8155.666667
1488.706400	8102.666667
1489.794600	8126.000000
1490.882390	8104.333333
1491.969771	8092.666667
1493.056742	8152.000000
1494.143303	7995.666667
1495.229456	8105.666667
1496.315199	8070.333333
1497.400534	8050.333333
1498.485460	8009.333333
1499.569978	8013.333333
1500.654088	8030.333333
1501.737790	7963.666667
1502.821085	7902.000000
1503.903972	7927.666667
1504.986451	7878.000000
1506.068524	7915.666667
1507.150189	7936.000000
1508.231448	7798.000000
1509.312301	7833.000000
1510.392747	7704.000000
1511.472787	7732.666667
1512.552422	7710.333333
1513.631650	7761.000000
1514.710473	7675.333333
1515.788891	7757.000000
1516.866904	7715.666667
1517.944512	7690.666667
1519.021715	7721.333333
1520.098513	7661.666667
1521.174908	7714.000000
1522.250898	7832.000000
1523.326485	7758.000000
1524.401667	7696.666667
1525.476447	7695.666667
1526.550823	7715.666667
1527.624796	7754.000000
1528.698365	7858.333333
1529.771533	7712.000000
1530.844298	7749.666667
1531.916660	7721.000000
1532.988620	7717.333333
1534.060179	7689.666667
1535.131336	7778.333333
1536.202091	7705.000000
1537.272445	7720.666667
1538.342398	7737.333333
1539.411950	7715.333333
1540.481101	7612.000000
1541.549851	7621.333333
1542.618202	7614.000000
1543.686152	7618.666667
1544.753702	7579.666667
1545.820853	7582.333333
1546.887604	7569.666667
1547.953955	7472.000000
1549.019908	7542.333333
1550.085461	7458.333333
1551.150616	7511.333333
1552.215372	7441.000000
1553.279730	7368.666667
1554.343690	7364.666667
1555.407252	7475.000000
1556.470415	7336.000000
1557.533182	7329.666667
1558.595551	7347.000000
1559.657522	7360.666667
1560.719097	7306.000000
1561.780275	7411.000000
1562.841056	7398.000000
1563.901441	7332.000000
1564.961429	7381.666667
1566.021022	7331.333333
1567.080219	7265.666667
1568.139020	7295.333333
1569.197425	7306.000000
1570.255436	7309.333333
1571.313051	7321.000000
1572.370271	7310.333333
1573.427097	7251.333333
1574.483528	7268.000000
1575.539565	7201.666667
1576.595208	7232.333333
1577.650457	7187.000000
1578.705312	7193.333333
1579.759774	7121.333333
1580.813842	7200.333333
1581.867517	7156.000000
1582.920799	7114.333333
1583.973689	7117.000000
1585.026186	7108.333333
1586.078290	7024.000000
1587.130002	7025.666667
1588.181323	7000.000000
1589.232251	7009.000000
1590.282788	7026.333333
1591.332933	6996.666667
1592.382688	7051.666667
1593.432051	6996.333333
1594.481023	7037.666667
1595.529605	7093.666667
1596.577796	7027.666667
1597.625597	7029.333333
1598.673007	7095.000000
1599.720028	7009.666667
1600.766660	7101.000000
1601.812901	7108.333333
1602.858753	7121.333333
1603.904217	7106.333333
1604.949291	7072.333333
1605.993976	7090.666667
1607.038273	7162.333333
1608.082182	7121.666667
1609.125702	7083.666667
1610.168834	7065.333333
1611.211579	7162.333333
1612.253935	7056.333333
1613.295905	6973.666667
1614.337487	7014.000000
1615.378682	7034.333333
1616.419490	7028.666667
1617.459912	6978.333333
1618.499946	6977.000000
1619.539595	6927.000000
1620.578858	6998.666667
1621.617734	6899.666667
1622.656225	6947.000000
1623.694330	6946.333333
1624.732050	6921.333333
1625.769385	6905.666667
1626.806334	6972.000000
1627.842899	6933.333333
1628.879079	6877.333333
1629.914875	6934.000000
1630.950286	6918.333333
1631.985314	6832.666667
1633.019957	6992.333333
1634.054217	6924.333333
1635.088093	6960.333333
1636.121586	6807.666667
1637.154696	6889.333333
1638.187423	6913.666667
1639.219767	6944.666667
1640.251728	6937.666667
1641.283307	6865.333333
1642.314504	6889.333333
1643.345319	7003.333333
1644.375751	6964.000000
1645.405803	6939.000000
1646.435472	6960.333333
1647.464761	7039.333333
1648.493668	6950.666667
1649.522194	6940.666667
1650.550340	6947.666667
1651.578105	6969.333333
1652.605490	6923.333333
1653.632494	6933.666667
1654.659119	6875.000000
1655.685363	6920.333333
1656.711228	6932.000000
1657.736714	6875.333333
1658.761820	6857.000000
1659.786547	6839.333333
1660.810895	6798.000000
1661.834865	6821.000000
1662.858456	6738.666667
1663.881668	6733.666667
1664.904503	6798.666667
1665.926959	6653.000000
1666.949038	6700.000000
1667.970739	6649.000000
1668.992062	6608.000000
1670.013008	6591.666667
1671.033577	6602.666667
1672.053770	6621.333333
1673.073585	6552.333333
1674.093024	6493.333333
1675.112086	6580.333333
1676.130773	6529.333333
1677.149083	6528.000000
1678.167017	6528.000000
1679.184576	6477.333333
1680.201760	6467.666667
1681.218568	6505.000000
1682.235001	6433.666667
1683.251059	6493.000000
1684.266742	6473.666667
1685.282051	6404.666667
1686.296985	6403.000000
1687.311546	6404.333333
1688.325732	6379.000000
1689.339544	6423.666667
1690.352983	6314.000000
1691.366048	6291.333333
1692.378740	6292.333333
1693.391058	6284.000000
1694.403004	6252.666667
1695.414577	6205.666667
1696.425778	6124.666667
1697.436606	6075.666667
1698.447061	6121.333333
1699.457145	6107.666667
1700.466857	6004.333333
1701.476197	6040.666667
1702.485166	5959.000000
1703.493763	5994.666667
1704.501989	5933.666667
1705.509844	5926.333333
1706.517328	5902.000000
1707.524442	5835.666667
1708.531185	5939.333333
1709.537558	5869.333333
1710.543561	5868.000000
1711.549194	5901.000000
1712.554457	5862.666667
1713.559351	5830.000000
1714.563875	5843.000000
1715.568030	5885.333333
1716.571816	5909.666667
1717.575233	5869.666667
1718.578282	5938.333333
1719.580962	5864.333333
1720.583273	5890.666667
1721.585217	5909.333333
1722.586792	5975.666667
1723.588000	6015.000000
1724.588840	5950.333333
1725.589312	5890.666667
1726.589418	6007.000000
1727.589156	5981.000000
1728.588527	5962.333333
1729.587532	5973.666667
1730.586170	5964.333333
1731.584441	5999.666667
1732.582346	5950.000000
1733.579886	5926.666667
1734.577059	5949.000000
1735.573867	5955.666667
1736.570309	5940.000000
1737.566386	5890.000000
1738.562097	5929.000000
1739.557444	5886.000000
1740.552426	5848.666667
1741.547043	5805.666667
1742.541295	5822.333333
1743.535184	5830.000000
1744.528708	5783.666667
1745.521868	5807.333333
1746.514664	5779.666667
1747.507097	5766.666667
1748.499166	5787.333333
1749.490873	5782.000000
1750.482216	5765.000000
1751.473196	5719.333333
1752.463813	5711.666667
1753.454068	5690.333333
1754.443960	5683.666667
1755.433490	5691.666667
1756.422658	5630.000000
1757.411464	5754.666667
1758.399908	5602.000000
1759.387991	5643.000000
1760.375713	5653.666667
1761.363073	5675.000000
1762.350072	5606.000000
1763.336711	5579.000000
1764.322988	5548.333333
1765.308905	5558.333333
1766.294462	5610.000000
1767.279659	5530.333333
1768.264496	5510.333333
1769.248972	5406.333333
1770.233089	5470.000000
1771.216847	5406.000000
1772.200245	5381.666667
1773.183284	5410.666667
1774.165965	5384.333333
1775.148286	5360.000000
1776.130249	5351.666667
1777.111853	5263.666667
1778.093099	5243.000000
1779.073987	5241.000000
1780.054517	5218.666667
1781.034689	5216.333333
1782.014503	5168.666667
1782.993960	5163.666667
1783.973060	5088.666667
1784.951802	5080.666667
1785.930188	5113.000000
1786.908217	5115.666667
1787.885889	5027.333333
1788.863205	5008.333333
1789.840164	5012.666667
1790.816768	5011.000000
1791.793015	4996.666667
1792.768907	5035.666667
1793.744443	5016.333333
1794.719624	4981.333333
1795.694449	4981.666667
1796.668919	4964.333333
1797.643035	4935.666667
1798.616795	4986.000000
1799.590201	4972.333333
1800.563253	5028.333333
1801.535950	5012.000000
1802.508294	5002.666667
1803.480283	5015.666667
1804.451919	5027.333333
1805.423201	5031.333333
1806.394129	5053.333333
1807.364705	5021.000000
1808.334927	5026.333333
1809.304796	5073.666667
1810.274313	5071.666667
1811.243477	5128.333333
1812.212288	5403.333333
1813.180747	5441.666667
1814.148855	5108.333333
1815.116610	5141.000000
1816.084013	5069.000000
1817.051065	5091.666667
1818.017766	5109.333333
1818.984115	5059.333333
1819.950113	5092.000000
1820.915760	5093.333333
1821.881057	5092.666667
1822.846003	5105.666667
1823.810598	5119.000000
1824.774843	5055.000000
1825.738738	5097.333333
1826.702283	5062.000000
1827.665479	5023.000000
1828.628324	5040.333333
1829.590821	4994.000000
1830.552968	5012.000000
1831.514765	5060.333333
1832.476214	5014.666667
1833.437314	4992.000000
1834.398066	5010.666667
1835.358469	5032.000000
1836.318524	5012.333333
1837.278230	4984.666667
1838.237589	4923.000000
1839.196600	4946.666667
1840.155263	4905.000000
1841.113578	4966.000000
1842.071547	4925.000000
1843.029168	4911.333333
1843.986442	4905.000000
1844.943369	4876.333333
1845.899950	4893.333333
1846.856184	4886.000000
1847.812072	4936.333333
1848.767614	4852.333333
1849.722809	4822.333333
1850.677659	4853.333333
1851.632163	4785.666667
1852.586322	4823.000000
1853.540135	4794.333333
1854.493603	4758.333333
1855.446726	4798.000000
1856.399504	4758.000000
1857.351937	4744.000000
1858.304026	4704.666667
1859.255770	4657.333333
1860.207170	4649.333333
1861.158227	4642.000000
1862.108939	4589.000000
1863.059307	4607.000000
1864.009332	4559.000000
1864.959013	4545.666667
1865.908351	4546.333333
1866.857346	4555.000000
1867.805998	4502.333333
1868.754307	4460.000000
1869.702274	4472.666667
1870.649898	4465.333333
1871.597180	4487.666667
1872.544119	4391.666667
1873.490717	4388.000000
1874.436973	4389.333333
1875.382887	4367.333333
1876.328459	4433.666667
1877.273691	4389.666667
1878.218581	4341.666667
1879.163130	4362.666667
1880.107338	4406.666667
1881.051205	4348.333333
1881.994732	4351.000000
1882.937919	4375.333333
1883.880765	4388.333333
1884.823271	4355.000000
1885.765437	4290.333333
1886.707264	4396.666667
1887.648750	4409.666667
1888.589898	4415.666667
1889.530706	4418.000000
1890.471175	4431.000000
1891.411305	4442.666667
1892.351096	4441.333333
1893.290548	4427.666667
1894.229662	4415.000000
1895.168438	4436.666667
1896.106876	4399.000000
1897.044975	4475.666667
1897.982737	4433.333333
1898.920160	4474.666667
1899.857247	4422.333333
1900.793996	4397.666667
1901.730407	4389.000000
1902.666482	4344.333333
1903.602219	4342.000000
1904.537620	4330.666667
1905.472685	4333.333333
1906.407412	4278.666667
1907.341804	4311.000000
1908.275859	4317.000000
1909.209579	4257.000000
1910.142962	4266.000000
1911.076010	4167.000000
1912.008722	4220.000000
1912.941099	4185.000000
1913.873141	4158.333333
1914.804848	4138.000000
1915.736219	4104.000000
1916.667256	4081.333333
1917.597959	4046.000000
1918.528327	4039.000000
1919.458360	4049.666667
1920.388060	4030.000000
1921.317426	4024.000000
1922.246457	3969.000000
1923.175156	3959.000000
1924.103520	4017.666667
1925.031552	3977.666667
1925.959250	4020.333333
1926.886615	3981.000000
1927.813647	4025.000000
1928.740346	3977.666667
1929.666713	3964.666667
1930.592748	3948.333333
1931.518450	3936.000000
1932.443820	3936.333333
1933.368858	3912.666667
1934.293564	3886.000000
1935.217939	3943.000000
1936.141982	3921.333333
1937.065694	3879.000000
1937.989074	3924.333333
1938.912124	3863.666667
1939.834842	3868.000000
1940.757230	3901.666667
1941.679287	3844.333333
1942.601014	3835.666667
1943.522411	3859.333333
1944.443477	3848.333333
1945.364214	3818.333333
1946.284621	3802.333333
1947.204698	3777.666667
1948.124445	3758.333333
1949.043863	3800.000000
1949.962952	3733.000000
1950.881712	3680.000000
1951.800143	3732.000000
1952.718245	3670.333333
1953.636019	3639.333333
1954.553464	3700.666667
1955.470581	3682.333333
1956.387369	3688.666667
1957.303830	3598.000000
1958.219963	3709.000000
1959.135768	3671.333333
1960.051246	3631.000000
1960.966396	3693.000000
1961.881219	3643.333333
1962.795715	3653.666667
1963.709883	3670.000000
1964.623726	3646.666667
1965.537241	3680.000000
1966.450430	3671.333333
1967.363293	3725.666667
1968.275829	3684.333333
1969.188040	3668.000000
1970.099924	3739.000000
1971.011483	3726.333333
1971.922716	3722.000000
1972.833624	3772.666667
1973.744206	3683.333333
1974.654464	3748.666667
1975.564396	3694.000000
1976.474004	3728.000000
1977.383286	3719.000000
1978.292245	3724.000000
1979.200878	3686.000000
1980.109188	3682.000000
1981.017174	3658.666667
1981.924835	3574.000000
1982.832173	3643.000000
1983.739187	3646.666667
1984.645878	3580.000000
1985.552245	3566.000000
1986.458289	3560.666667
1987.364010	3520.000000
1988.269408	3533.333333
1989.174484	3557.333333
1990.079236	3474.000000
1990.983667	3424.333333
1991.887775	3405.666667
1992.791561	3437.333333
1993.695024	3435.333333
1994.598166	3406.333333
1995.500986	3375.666667
1996.403485	3349.000000
1997.305662	3346.333333
1998.207518	3350.666667
1999.109053	3355.000000
