200.151048	13380.000000
201.758777	13438.666667
203.365815	13380.000000
204.972162	13388.333333
206.577820	13294.000000
208.182787	13257.000000
209.787065	13198.333333
211.390653	13165.666667
212.993553	13151.666667
214.595765	13160.666667
216.197289	13005.000000
217.798125	13011.333333
219.398274	12969.000000
220.997737	12959.333333
222.596513	12876.000000
224.194603	12924.333333
225.792008	13003.000000
227.388728	12819.666667
228.984763	12840.666667
230.580114	12795.000000
232.174781	12825.333333
233.768765	12816.000000
235.362065	12664.666667
236.954683	12615.333333
238.546619	12625.666667
240.137872	12619.666667
241.728445	12540.666667
243.318336	12517.666667
244.907546	12465.333333
246.496076	12366.666667
248.083926	12468.666667
249.671097	12279.666667
251.257589	12380.333333
252.843402	12338.666667
254.428536	12229.666667
256.012993	12202.666667
257.596772	12204.666667
259.179874	12199.666667
260.762300	12108.333333
262.344049	12044.333333
263.925122	12103.333333
265.505519	12126.333333
267.085241	12015.000000
268.664289	11959.333333
270.242662	11915.000000
271.820361	12036.666667
273.397387	11950.333333
274.973740	11993.666667
276.549419	11808.333333
278.124426	11943.666667
279.698762	11974.000000
281.272425	11905.666667
282.845417	11977.333333
284.417739	11936.333333
285.989390	11977.666667
287.560371	11868.666667
289.130682	11958.666667
290.700324	11907.666667
292.269297	11883.666667
293.837602	11820.333333
295.405238	11826.000000
296.972207	11765.666667
298.538508	11769.666667
300.104142	11788.666667
301.669110	11740.666667
303.233411	11712.333333
304.797047	11627.000000
306.360017	11614.333333
307.922322	11520.000000
309.483963	11465.666667
311.044939	11364.333333
312.605252	11426.000000
314.164900	11322.333333
315.723886	11311.333333
317.282209	11262.000000
318.839870	11246.666667
320.396868	11177.666667
321.953205	11207.666667
323.508881	11124.666667
325.063896	11087.333333
326.618251	11017.666667
328.171945	11097.000000
329.724980	11044.666667
331.277356	11029.000000
332.829072	11013.333333
334.380131	10903.333333
335.930530	10963.666667
337.480273	10923.666667
339.029357	10917.000000
340.577785	10924.000000
342.125556	10856.000000
343.672671	10877.000000
345.219130	10918.666667
346.764933	10847.666667
348.310081	10726.000000
349.854575	10735.666667
351.398414	10721.333333
352.941599	10696.333333
354.484130	10665.000000
356.026008	10590.666667
357.567234	10643.666667
359.107807	10591.000000
360.647727	10594.666667
362.186996	10469.000000
363.725614	10547.333333
365.263580	10433.333333
366.800896	10541.666667
368.337562	10467.000000
369.873578	10553.666667
371.408944	10467.000000
372.943661	10480.666667
374.477730	10522.000000
376.011150	10454.000000
377.543922	10496.333333
379.076046	10612.333333
380.607523	10599.666667
382.138353	10505.000000
383.668537	10541.333333
385.198075	10606.000000
386.726966	10559.000000
388.255213	10579.000000
389.782814	10535.333333
391.309770	10628.666667
392.836083	10639.666667
394.361751	10640.666667
395.886776	10696.333333
397.411157	10680.333333
398.934896	10799.666667
400.457992	10816.000000
401.980446	10744.000000
403.502258	10816.333333
405.023429	10838.000000
406.543959	10869.000000
408.063849	10855.000000
409.583098	10898.666667
411.101707	11019.333333
412.619677	11080.333333
414.137007	11161.000000
415.653699	11303.666667
417.169752	11390.000000
418.685167	11579.333333
420.199945	11704.000000
421.714085	11894.666667
423.227588	11972.666667
424.740454	12091.666667
426.252684	12176.333333
427.764279	12216.000000
429.275238	12175.000000
430.785561	12087.000000
432.295250	12099.333333
433.804304	11934.000000
435.312725	11770.333333
436.820511	11705.666667
438.327664	11653.666667
439.834185	11537.666667
441.340072	11470.000000
442.845327	11424.333333
444.349951	11412.000000
445.853942	11282.000000
447.357303	11334.333333
448.860033	11212.000000
450.362132	11176.666667
451.863601	11026.000000
453.364440	11017.666667
454.864650	10804.666667
456.364231	10767.666667
457.863183	10616.333333
459.361507	10498.333333
460.859203	10482.333333
462.356271	10300.666667
463.852712	10315.333333
465.348526	10271.333333
466.843714	10088.666667
468.338275	10088.666667
469.832210	10044.666667
471.325520	10006.666667
472.818205	9933.333333
474.310265	9960.000000
475.801700	9937.333333
477.292512	9765.666667
478.782700	9744.666667
480.272264	9683.333333
481.761205	9695.666667
483.249524	9773.333333
484.737221	9592.666667
486.224295	9628.333333
487.710748	9526.666667
489.196579	9506.000000
490.681790	9495.333333
492.166380	9489.333333
493.650350	9462.000000
495.133700	9497.333333
496.616431	9569.000000
498.098542	9480.333333
499.580035	9484.333333
501.060909	9515.666667
502.541165	9489.666667
504.020804	9452.666667
505.499825	9433.333333
506.978228	9471.666667
508.456016	9410.000000
509.933186	9301.666667
511.409741	9290.000000
512.885680	9328.000000
514.361004	9331.000000
515.835713	9353.666667
517.309807	9287.333333
518.783287	9288.000000
520.256153	9342.000000
521.728406	9310.333333
523.200045	9407.333333
524.671071	9311.000000
526.141485	9419.333333
527.611287	9368.000000
529.080476	9441.000000
530.549054	9402.000000
532.017021	9367.333333
533.484378	9430.666667
534.951123	9406.333333
536.417259	9352.333333
537.882785	9316.000000
539.347701	9345.666667
540.812008	9358.000000
542.275707	9309.000000
543.738797	9345.666667
545.201279	9331.000000
546.663153	9432.333333
548.124420	9419.333333
549.585080	9511.666667
551.045133	9520.333333
552.504579	9550.333333
553.963420	9574.333333
555.421655	9592.333333
556.879285	9516.000000
558.336309	9588.666667
559.792729	9613.666667
561.248545	9663.333333
562.703756	9704.000000
564.158364	9656.666667
565.612369	9829.666667
567.065770	9761.666667
568.518569	9850.333333
569.970766	9936.000000
571.422361	9965.333333
572.873354	10097.666667
574.323745	10185.333333
575.773536	10268.666667
577.222726	10305.333333
578.671316	10385.666667
580.119306	10298.000000
581.566696	10293.666667
583.013487	10218.666667
584.459679	10206.666667
585.905273	10239.666667
587.350268	10190.000000
588.794665	10043.000000
590.238465	10211.666667
591.681667	10073.666667
593.124272	10035.666667
594.566281	9980.666667
596.007694	9853.666667
597.448510	9702.333333
598.888731	9692.333333
600.328357	9585.666667
601.767388	9545.666667
603.205824	9520.666667
604.643666	9495.666667
606.080914	9489.333333
607.517568	9441.000000
608.953629	9483.333333
610.389097	9472.000000
611.823972	9399.666667
613.258255	9430.666667
614.691946	9322.333333
616.125046	9309.666667
617.557554	9203.666667
618.989471	9194.000000
620.420798	9043.333333
621.851534	9002.333333
623.281680	8925.000000
624.711237	8813.666667
626.140204	8689.333333
627.568582	8663.333333
628.996372	8624.333333
630.423573	8711.666667
631.850186	8629.000000
633.276211	8643.000000
634.701650	8625.666667
636.126501	8583.000000
637.550765	8513.666667
638.974443	8540.666667
640.397535	8564.000000
641.820041	8595.666667
643.241961	8556.666667
644.663297	8600.666667
646.084048	8514.333333
647.504214	8465.000000
648.923796	8417.333333
650.342795	8493.000000
651.761210	8412.000000
653.179041	8373.333333
654.596290	8334.666667
656.012957	8409.333333
657.429041	8369.333333
658.844543	8364.666667
660.259464	8416.333333
661.673804	8359.333333
663.087563	8347.000000
664.500741	8329.333333
665.913339	8388.666667
667.325357	8480.666667
668.736795	8432.000000
670.147654	8370.333333
671.557934	8335.666667
672.967636	8312.666667
674.376759	8260.000000
675.785304	8310.333333
677.193271	8318.000000
678.600661	8302.333333
680.007474	8325.666667
681.413711	8263.333333
682.819370	8256.000000
684.224454	8281.666667
685.628962	8381.666667
687.032895	8258.333333
688.436252	8302.000000
689.839034	8214.333333
691.241242	8237.333333
692.642876	8250.666667
694.043936	8261.333333
695.444422	8201.000000
696.844336	8171.666667
698.243676	8149.666667
699.642443	8153.000000
701.040639	8236.000000
702.438262	8309.000000
703.835313	8191.000000
705.231794	8181.000000
706.627703	8210.000000
708.023041	8258.000000
709.417810	8169.000000
710.812008	8208.000000
712.205636	8187.666667
713.598694	8095.333333
714.991184	8185.666667
716.383105	8113.000000
717.774457	8144.000000
719.165241	8116.333333
720.555457	8129.000000
721.945105	8123.333333
723.334187	8045.666667
724.722701	8109.000000
726.110648	8103.666667
727.498030	8083.666667
728.884845	8138.333333
730.271094	7986.333333
731.656778	8069.666667
733.041897	8015.333333
734.426451	8065.000000
735.810441	8028.333333
737.193866	8068.666667
738.576728	8003.000000
739.959026	8025.333333
741.340760	7980.333333
742.721932	8028.000000
744.102541	7995.666667
745.482588	8035.666667
746.862073	8015.000000
748.240996	7987.666667
749.619358	7976.333333
750.997158	8118.333333
752.374398	7981.666667
753.751077	8053.000000
755.127197	8023.333333
756.502756	8041.333333
757.877756	8027.666667
759.252196	8012.666667
760.626078	7871.000000
761.999400	7976.333333
763.372165	7949.333333
764.744371	7888.333333
766.116020	8037.333333
767.487111	7978.333333
768.857646	7840.000000
770.227623	7936.000000
771.597044	7812.666667
772.965908	7849.000000
774.334217	7910.000000
775.701970	7870.333333
777.069168	7826.000000
778.435811	7837.333333
779.801899	7830.000000
781.167433	7769.666667
782.532412	7858.000000
783.896838	7781.000000
785.260710	7823.333333
786.624029	7800.666667
787.986796	7737.333333
789.349009	7784.000000
790.710671	7688.000000
792.071780	7768.000000
793.432338	7773.666667
794.792344	7650.000000
796.151799	7710.666667
797.510704	7685.666667
798.869058	7620.666667
800.226862	7699.000000
801.584116	7628.333333
802.940820	7676.666667
804.296975	7645.666667
805.652581	7651.000000
807.007638	7707.333333
808.362147	7704.666667
809.716108	7721.333333
811.069521	7735.000000
812.422387	7720.333333
813.774705	7676.333333
815.126476	7744.666667
816.477701	7756.000000
817.828380	7719.000000
819.178512	7742.666667
820.528099	7661.000000
821.877140	7664.333333
823.225637	7588.666667
824.573588	7682.333333
825.920995	7592.333333
827.267857	7628.666667
828.614176	7570.333333
829.959951	7582.666667
831.305183	7571.000000
832.649871	7618.333333
833.994017	7569.666667
835.337620	7648.666667
836.680681	7594.666667
838.023201	7596.000000
839.365178	7639.333333
840.706614	7705.666667
842.047510	7677.666667
843.387864	7709.666667
844.727678	7759.666667
846.066952	7743.333333
847.405687	7786.333333
848.743881	7847.333333
850.081537	7852.333333
851.418653	7873.666667
852.755231	7882.333333
854.091270	7837.000000
855.426771	7818.000000
856.761735	7867.666667
858.096160	7789.000000
859.430049	7766.666667
860.763401	7762.666667
862.096216	7722.000000
863.428495	7824.333333
864.760237	7699.666667
866.091444	7700.000000
867.422115	7668.666667
868.752252	7753.333333
870.081853	7653.000000
871.410919	7657.000000
872.739452	7711.000000
874.067450	7628.333333
875.394914	7607.666667
876.721845	7626.000000
878.048243	7602.000000
879.374108	7568.666667
880.699440	7591.333333
882.024240	7575.333333
883.348508	7582.333333
884.672244	7531.000000
885.995449	7508.000000
887.318122	7458.333333
888.640265	7466.333333
889.961877	7433.333333
891.282959	7364.000000
892.603510	7405.000000
893.923532	7366.000000
895.243024	7370.000000
896.561987	7304.000000
897.880422	7353.666667
899.198327	7323.333333
900.515705	7300.000000
901.832554	7295.333333
903.148875	7323.666667
904.464669	7347.000000
905.779936	7336.666667
907.094676	7327.666667
908.408889	7303.666667
909.722576	7338.333333
911.035737	7442.666667
912.348371	7397.333333
913.660481	7495.666667
914.972065	7475.333333
916.283124	7533.666667
917.593659	7609.333333
918.903669	7611.333333
920.213155	7614.333333
921.522117	7622.333333
922.830556	7569.666667
924.138471	7552.333333
925.445864	7549.666667
926.752733	7617.000000
928.059081	7657.333333
929.364906	7706.333333
930.670209	7729.000000
931.974991	7754.333333
933.279251	7982.666667
934.582990	7972.666667
935.886209	8136.333333
937.188907	8241.333333
938.491085	8421.666667
939.792743	8547.000000
941.093881	8702.000000
942.394500	8936.333333
943.694600	9181.000000
944.994181	9446.333333
946.293243	9859.000000
947.591787	10297.666667
948.889813	10762.333333
950.187322	11240.333333
951.484313	11901.000000
952.780787	12771.333333
954.076744	13325.666667
955.372184	14154.666667
956.667108	14562.666667
957.961516	14872.000000
959.255409	14855.000000
960.548785	14567.333333
961.841647	13982.666667
963.133993	13243.666667
964.425825	12418.000000
965.717142	11557.333333
967.007946	10715.000000
968.298235	10019.333333
969.588011	9393.000000
970.877273	8865.333333
972.166023	8407.333333
973.454259	8040.000000
974.741984	7928.000000
976.029196	7592.333333
977.315895	7439.000000
978.602084	7311.000000
979.887761	7147.333333
981.172926	7072.333333
982.457581	7036.666667
983.741725	6965.000000
985.025359	6915.333333
986.308483	6932.333333
987.591097	6928.666667
988.873202	6899.333333
990.154797	6847.333333
991.435883	6813.333333
992.716461	6872.666667
993.996530	6794.000000
995.276091	6821.333333
996.555144	6882.666667
997.833690	6944.666667
999.111728	6997.000000
1000.389259	6974.666667
1001.666283	7060.333333
1002.942800	7117.000000
1004.218812	7009.666667
1005.494317	7052.666667
1006.769317	7096.000000
1008.043811	6984.666667
1009.317799	6970.666667
1010.591283	6922.333333
1011.864263	6923.666667
1013.136737	7003.666667
1014.408708	6918.333333
1015.680175	7044.000000
1016.951138	6997.666667
1018.221598	7033.333333
1019.491554	7041.666667
1020.761008	7103.000000
1022.029959	7098.666667
1023.298408	7062.333333
1024.566355	7062.666667
1025.833800	7120.333333
1027.100744	7111.666667
1028.367187	7145.000000
1029.633128	7148.666667
1030.898569	7171.666667
1032.163509	7131.666667
1033.427949	7082.666667
1034.691890	7149.333333
1035.955330	7218.666667
1037.218271	7207.666667
1038.480714	7146.666667
1039.742657	7226.666667
1041.004101	7263.333333
1042.265048	7225.333333
1043.525496	7226.666667
1044.785446	7196.333333
1046.044899	7211.666667
1047.303855	7241.666667
1048.562313	7206.000000
1049.820275	7123.000000
1051.077740	7103.666667
1052.334709	7089.000000
1053.591182	7112.000000
1054.847160	7162.666667
1056.102641	7138.666667
1057.357628	7136.333333
1058.612120	7215.333333
1059.866117	7243.000000
1061.119619	7278.333333
1062.372628	7311.333333
1063.625142	7426.000000
1064.877163	7460.333333
1066.128691	7541.333333
1067.379725	7521.666667
1068.630267	7462.333333
1069.880316	7428.000000
1071.129872	7438.666667
1072.378937	7350.666667
1073.627509	7351.333333
1074.875590	7212.000000
1076.123180	7136.000000
1077.370279	7124.666667
1078.616887	6928.333333
1079.863004	6872.666667
1081.108631	6892.666667
1082.353768	6750.666667
1083.598415	6745.000000
1084.842573	6664.333333
1086.086241	6550.666667
1087.329421	6559.666667
1088.572111	6448.000000
1089.814314	6459.666667
1091.056028	6350.333333
1092.297253	6368.333333
1093.537992	6292.666667
1094.778242	6349.666667
1096.018006	6300.333333
1097.257282	6271.333333
1098.496072	6290.666667
1099.734376	6255.333333
1100.972193	6175.666667
1102.209524	6188.666667
1103.446370	6228.666667
1104.682730	6174.333333
1105.918604	6105.000000
1107.153994	6160.666667
1108.388900	6077.000000
1109.623320	6070.000000
1110.857257	6018.333333
1112.090710	6038.333333
1113.323679	6053.333333
1114.556164	5936.666667
1115.788167	5954.666667
1117.019686	5919.333333
1118.250723	5909.666667
1119.481278	5899.000000
1120.711350	5895.333333
1121.940940	5879.000000
1123.170049	5882.000000
1124.398676	5875.666667
1125.626823	5839.333333
1126.854488	5806.666667
1128.081672	5818.333333
1129.308376	5767.000000
1130.534600	5785.666667
1131.760345	5705.333333
1132.985609	5791.666667
1134.210394	5740.000000
1135.434700	5695.000000
1136.658527	5763.000000
1137.881875	5749.000000
1139.104745	5716.000000
1140.327136	5745.000000
1141.549050	5686.666667
1142.770486	5727.333333
1143.991445	5728.666667
1145.211926	5701.666667
1146.431931	5684.000000
1147.651459	5723.666667
1148.870510	5735.000000
1150.089086	5663.333333
1151.307185	5684.000000
1152.524808	5682.666667
1153.741957	5720.000000
1154.958630	5711.000000
1156.174828	5660.666667
1157.390551	5706.333333
1158.605800	5735.333333
1159.820574	5713.000000
1161.034875	5669.333333
1162.248702	5641.000000
1163.462055	5681.666667
1164.674936	5649.333333
1165.887343	5647.000000
1167.099277	5693.666667
1168.310739	5694.666667
1169.521729	5677.000000
1170.732247	5672.666667
1171.942293	5633.000000
1173.151867	5615.333333
1174.360970	5614.666667
1175.569602	5604.666667
1176.777764	5600.333333
1177.985454	5637.000000
1179.192675	5571.333333
1180.399425	5536.666667
1181.605706	5563.333333
1182.811517	5580.333333
1184.016859	5518.666667
1185.221731	5562.666667
1186.426135	5528.666667
1187.630070	5489.000000
1188.833537	5466.666667
1190.036535	5470.333333
1191.239066	5375.000000
1192.441129	5492.000000
1193.642725	5385.000000
1194.843853	5433.000000
1196.044515	5463.666667
1197.244710	5434.333333
1198.444438	5507.000000
1199.643701	5462.666667
1200.842497	5479.333333
1202.040827	5478.333333
1203.238693	5503.333333
1204.436092	5432.666667
1205.633027	5450.333333
1206.829497	5467.666667
1208.025503	5498.666667
1209.221044	5368.000000
1210.416122	5357.333333
1211.610735	5397.333333
1212.804885	5378.666667
1213.998572	5393.666667
1215.191795	5369.666667
1216.384556	5334.333333
1217.576854	5307.666667
1218.768689	5366.000000
1219.960063	5333.666667
1221.150974	5348.000000
1222.341424	5356.666667
1223.531413	5321.666667
1224.720940	5356.666667
1225.910006	5446.333333
1227.098612	5446.333333
1228.286757	5430.000000
1229.474442	5432.000000
1230.661667	5445.333333
1231.848432	5588.333333
1233.034738	5537.666667
1234.220584	5561.000000
1235.405971	5573.000000
1236.590900	5609.666667
1237.775369	5587.666667
1238.959381	5670.333333
1240.142934	5636.666667
1241.326029	5668.000000
1242.508667	5692.000000
1243.690848	5672.000000
1244.872571	5661.666667
1246.053837	5668.666667
1247.234646	5600.333333
1248.414999	5593.333333
1249.594896	5630.000000
1250.774337	5593.000000
1251.953322	5595.000000
1253.131851	5535.333333
1254.309925	5574.666667
1255.487544	5478.333333
1256.664708	5551.333333
1257.841417	5497.333333
1259.017673	5560.000000
1260.193473	5554.333333
1261.368820	5524.333333
1262.543714	5578.666667
1263.718154	5580.333333
1264.892140	5575.666667
1266.065674	5567.666667
1267.238755	5547.333333
1268.411383	5595.000000
1269.583559	5551.000000
1270.755283	5553.333333
1271.926555	5556.333333
1273.097375	5584.333333
1274.267744	5575.000000
1275.437662	5581.000000
1276.607129	5496.666667
1277.776145	5444.333333
1278.944711	5497.666667
1280.112827	5440.666667
1281.280492	5455.333333
1282.447708	5415.333333
1283.614474	5389.000000
1284.780791	5379.333333
1285.946659	5391.000000
1287.112078	5352.666667
1288.277048	5277.000000
1289.441570	5245.333333
1290.605644	5267.333333
1291.769270	5213.666667
1292.932448	5171.666667
1294.095178	5230.333333
1295.257461	5211.666667
1296.419298	5167.000000
1297.580687	5132.000000
1298.741630	5128.333333
1299.902126	5125.666667
1301.062177	5148.000000
1302.221781	5122.000000
1303.380940	5155.000000
1304.539653	5053.666667
1305.697921	5137.333333
1306.855744	5103.333333
1308.013123	5084.666667
1309.170056	5095.666667
1310.326546	5097.000000
1311.482591	5057.333333
1312.638193	5139.333333
1313.793350	5090.333333
1314.948065	5091.666667
1316.102336	5119.000000
1317.256164	5049.333333
1318.409550	5101.333333
1319.562493	5065.666667
1320.714993	5042.333333
1321.867052	5023.333333
1323.018668	5000.333333
1324.169843	5096.000000
1325.320577	4999.666667
1326.470870	4974.000000
1327.620721	4940.000000
1328.770132	4961.000000
1329.919102	4958.000000
1331.067632	4941.000000
1332.215722	4923.333333
1333.363372	4925.333333
1334.510582	4923.666667
1335.657353	4907.000000
1336.803685	4962.666667
1337.949578	4991.666667
1339.095032	4934.000000
1340.240048	4941.666667
1341.384625	4929.666667
1342.528764	4953.000000
1343.672466	4896.666667
1344.815729	4968.000000
1345.958556	4887.666667
1347.100945	4888.000000
1348.242897	4851.333333
1349.384413	4897.333333
1350.525492	4892.666667
1351.666134	4756.333333
1352.806341	4865.000000
1353.946111	4751.000000
1355.085446	4798.000000
1356.224346	4771.000000
1357.362810	4788.000000
1358.500840	4753.333333
1359.638434	4780.333333
1360.775594	4692.666667
1361.912320	4722.333333
1363.048612	4734.000000
1364.184469	4751.000000
1365.319893	4729.000000
1366.454884	4680.666667
1367.589441	4721.666667
1368.723566	4687.333333
1369.857257	4725.333333
1370.990516	4749.666667
1372.123343	4764.333333
1373.255737	4764.666667
1374.387699	4745.666667
1375.519230	4723.000000
1376.650329	4772.666667
1377.780997	4783.000000
1378.911234	4776.666667
1380.041040	4744.000000
1381.170416	4710.000000
1382.299361	4747.333333
1383.427875	4705.666667
1384.555960	4785.666667
1385.683615	4671.333333
1386.810841	4747.333333
1387.937637	4741.666667
1389.064004	4739.666667
1390.189942	4673.000000
1391.315451	4719.333333
1392.440532	4711.000000
1393.565185	4703.000000
1394.689409	4598.333333
1395.813206	4707.000000
1396.936575	4703.000000
1398.059517	4676.666667
1399.182032	4710.666667
1400.304119	4681.333333
1401.425780	4627.666667
1402.547014	4604.000000
1403.667822	4676.666667
1404.788204	4669.333333
1405.908160	4682.000000
1407.027690	4659.666667
1408.146795	4708.333333
1409.265474	4690.333333
1410.383728	4618.666667
1411.501558	4660.333333
1412.618963	4623.666667
1413.735943	4671.000000
1414.852499	4694.333333
1415.968632	4647.333333
1417.084340	4708.666667
1418.199625	4707.333333
1419.314486	4691.666667
1420.428925	4709.000000
1421.542940	4751.333333
1422.656533	4708.000000
1423.769703	4691.666667
1424.882451	4678.666667
1425.994777	4670.000000
1427.106680	4662.000000
1428.218163	4684.333333
1429.329223	4673.666667
1430.439863	4628.000000
1431.550081	4620.666667
1432.659879	4597.666667
1433.769256	4685.000000
1434.878212	4609.666667
1435.986749	4634.333333
1437.094865	4631.333333
1438.202562	4642.666667
1439.309839	4649.333333
1440.416696	4711.000000
1441.523135	4698.333333
1442.629154	4743.666667
1443.734755	4788.666667
1444.839937	4793.000000
1445.944701	4840.333333
1447.049047	4857.666667
1448.152975	4830.333333
1449.256485	4783.000000
1450.359577	4825.333333
1451.462253	4797.000000
1452.564511	4849.000000
1453.666352	4795.000000
1454.767777	4780.000000
1455.868785	4790.000000
1456.969377	4715.666667
1458.069553	4663.666667
1459.169313	4656.333333
1460.268658	4659.000000
1461.367587	4633.666667
1462.466101	4590.333333
1463.564200	4615.000000
1464.661884	4506.666667
1465.759153	4523.666667
1466.856008	4526.000000
1467.952449	4453.666667
1469.048476	4424.666667
1470.144089	4381.000000
1471.239288	4315.000000
1472.334074	4345.333333
1473.428447	4244.333333
1474.522407	4289.000000
1475.615955	4209.666667
1476.709089	4179.000000
1477.801812	4151.333333
1478.894122	4127.666667
1479.986020	4132.333333
1481.077506	4115.333333
1482.168581	4111.333333
1483.259245	4093.000000
1484.349498	4127.333333
1485.439339	4025.666667
1486.528770	4013.000000
1487.617790	4100.000000
1488.706400	4079.666667
1489.794600	3985.000000
1490.882390	4033.666667
1491.969771	3992.000000
1493.056742	3979.333333
1494.143303	4007.666667
1495.229456	3961.666667
1496.315199	3933.333333
1497.400534	3934.000000
1498.485460	3924.666667
1499.569978	3942.333333
1500.654088	3926.666667
1501.737790	3896.333333
1502.821085	3918.666667
1503.903972	3875.333333
1504.986451	3858.333333
1506.068524	3818.333333
1507.150189	3820.333333
1508.231448	3853.000000
1509.312301	3887.000000
1510.392747	3835.333333
1511.472787	3856.000000
1512.552422	3821.666667
1513.631650	3826.333333
1514.710473	3796.333333
1515.788891	3817.000000
1516.866904	3812.000000
1517.944512	3855.000000
1519.021715	3820.000000
1520.098513	3827.333333
1521.174908	3805.666667
1522.250898	3810.333333
1523.326485	3820.333333
1524.401667	3807.000000
1525.476447	3773.666667
1526.550823	3853.666667
1527.624796	3773.000000
1528.698365	3848.666667
1529.771533	3795.666667
1530.844298	3837.666667
1531.916660	3793.000000
1532.988620	3807.000000
1534.060179	3797.333333
1535.131336	3795.333333
1536.202091	3781.000000
1537.272445	3789.000000
1538.342398	3780.333333
1539.411950	3717.000000
1540.481101	3766.666667
1541.549851	3742.333333
1542.618202	3739.333333
1543.686152	3700.000000
1544.753702	3717.666667
1545.820853	3715.000000
1546.887604	3727.666667
1547.953955	3751.000000
1549.019908	3737.666667
1550.085461	3707.000000
1551.150616	3721.000000
1552.215372	3690.000000
1553.279730	3751.000000
1554.343690	3672.000000
1555.407252	3692.000000
1556.470415	3675.333333
1557.533182	3645.666667
1558.595551	3653.666667
1559.657522	3655.000000
1560.719097	3599.666667
1561.780275	3626.000000
1562.841056	3607.666667
1563.901441	3620.666667
1564.961429	3666.333333
1566.021022	3643.000000
1567.080219	3599.666667
1568.139020	3596.666667
1569.197425	3592.000000
1570.255436	3587.333333
1571.313051	3589.666667
1572.370271	3596.333333
1573.427097	3636.333333
1574.483528	3576.000000
1575.539565	3562.000000
1576.595208	3578.000000
1577.650457	3584.000000
1578.705312	3582.000000
1579.759774	3513.666667
1580.813842	3503.333333
1581.867517	3512.000000
1582.920799	3525.000000
1583.973689	3476.333333
1585.026186	3463.333333
1586.078290	3490.333333
1587.130002	3492.666667
1588.181323	3488.666667
1589.232251	3472.000000
1590.282788	3467.666667
1591.332933	3439.666667
1592.382688	3485.000000
1593.432051	3461.000000
1594.481023	3477.333333
1595.529605	3449.333333
1596.577796	3511.000000
1597.625597	3502.333333
1598.673007	3547.666667
1599.720028	3517.666667
1600.766660	3492.333333
1601.812901	3509.666667
1602.858753	3520.666667
1603.904217	3517.000000
1604.949291	3514.666667
1605.993976	3536.666667
1607.038273	3563.666667
1608.082182	3521.000000
1609.125702	3531.333333
1610.168834	3490.000000
1611.211579	3480.666667
1612.253935	3444.666667
1613.295905	3433.333333
1614.337487	3424.333333
1615.378682	3475.333333
1616.419490	3445.000000
1617.459912	3437.333333
1618.499946	3434.666667
1619.539595	3461.000000
1620.578858	3501.000000
1621.617734	3516.000000
1622.656225	3525.000000
1623.694330	3559.666667
1624.732050	3441.333333
1625.769385	3534.666667
1626.806334	3457.333333
1627.842899	3466.666667
1628.879079	3476.666667
1629.914875	3459.333333
1630.950286	3469.000000
1631.985314	3480.000000
1633.019957	3462.666667
1634.054217	3482.000000
1635.088093	3500.666667
1636.121586	3487.000000
1637.154696	3505.666667
1638.187423	3457.666667
1639.219767	3518.666667
1640.251728	3543.333333
1641.283307	3468.333333
1642.314504	3527.000000
1643.345319	3509.333333
1644.375751	3511.666667
1645.405803	3525.333333
1646.435472	3546.666667
1647.464761	3485.000000
1648.493668	3520.000000
1649.522194	3490.333333
1650.550340	3508.333333
1651.578105	3504.000000
1652.605490	3489.000000
1653.632494	3495.000000
1654.659119	3475.333333
1655.685363	3459.000000
1656.711228	3469.333333
1657.736714	3449.000000
1658.761820	3462.000000
1659.786547	3470.000000
1660.810895	3463.666667
1661.834865	3436.666667
1662.858456	3454.666667
1663.881668	3451.666667
1664.904503	3429.666667
1665.926959	3399.333333
1666.949038	3422.666667
1667.970739	3391.000000
1668.992062	3411.000000
1670.013008	3381.333333
1671.033577	3393.000000
1672.053770	3346.333333
1673.073585	3391.333333
1674.093024	3329.666667
1675.112086	3365.666667
1676.130773	3322.333333
1677.149083	3294.666667
1678.167017	3317.000000
1679.184576	3274.000000
1680.201760	3245.000000
1681.218568	3278.000000
1682.235001	3297.666667
1683.251059	3239.000000
1684.266742	3244.333333
1685.282051	3229.000000
1686.296985	3247.000000
1687.311546	3184.666667
1688.325732	3215.000000
1689.339544	3178.666667
1690.352983	3213.666667
1691.366048	3133.000000
1692.378740	3067.000000
1693.391058	3109.333333
1694.403004	3120.000000
1695.414577	3077.333333
1696.425778	3048.333333
1697.436606	3072.000000
1698.447061	2990.666667
1699.457145	3021.666667
1700.466857	3008.666667
1701.476197	2949.333333
1702.485166	2916.333333
1703.493763	2925.666667
1704.501989	2944.333333
1705.509844	2945.666667
1706.517328	2938.666667
1707.524442	2867.000000
1708.531185	2865.000000
1709.537558	2824.666667
1710.543561	2883.333333
1711.549194	2845.333333
1712.554457	2866.666667
1713.559351	2810.000000
1714.563875	2821.000000
1715.568030	2806.333333
1716.571816	2869.000000
1717.575233	2838.666667
1718.578282	2854.000000
1719.580962	2871.333333
1720.583273	2869.333333
1721.585217	2843.000000
1722.586792	2912.666667
1723.588000	2817.000000
1724.588840	2858.666667
1725.589312	2833.333333
1726.589418	2855.666667
1727.589156	2823.666667
1728.588527	2845.666667
1729.587532	2851.000000
1730.586170	2902.333333
1731.584441	2801.666667
1732.582346	2824.333333
1733.579886	2833.666667
1734.577059	2853.666667
1735.573867	2803.000000
1736.570309	2814.000000
1737.566386	2802.666667
1738.562097	2759.666667
1739.557444	2731.000000
1740.552426	2743.666667
1741.547043	2709.666667
1742.541295	2763.666667
1743.535184	2740.333333
1744.528708	2766.333333
1745.521868	2779.666667
1746.514664	2718.000000
1747.507097	2694.000000
1748.499166	2709.000000
1749.490873	2705.000000
1750.482216	2766.000000
1751.473196	2686.666667
1752.463813	2722.666667
1753.454068	2718.000000
1754.443960	2688.333333
1755.433490	2640.000000
1756.422658	2699.666667
1757.411464	2712.333333
1758.399908	2686.666667
1759.387991	2688.000000
1760.375713	2693.000000
1761.363073	2693.000000
1762.350072	2701.666667
1763.336711	2671.333333
1764.322988	2685.000000
1765.308905	2668.000000
1766.294462	2665.666667
1767.279659	2648.666667
1768.264496	2657.333333
1769.248972	2652.666667
1770.233089	2612.333333
1771.216847	2571.666667
1772.200245	2595.333333
1773.183284	2596.333333
1774.165965	2628.000000
1775.148286	2619.333333
1776.130249	2605.000000
1777.111853	2571.333333
1778.093099	2547.666667
1779.073987	2517.000000
1780.054517	2525.000000
1781.034689	2531.333333
1782.014503	2538.666667
1782.993960	2499.000000
1783.973060	2490.666667
1784.951802	2482.333333
1785.930188	2486.666667
1786.908217	2437.000000
1787.885889	2475.666667
1788.863205	2410.333333
1789.840164	2463.000000
1790.816768	2395.000000
1791.793015	2420.000000
1792.768907	2453.000000
1793.744443	2439.333333
1794.719624	2439.000000
1795.694449	2427.666667
1796.668919	2471.666667
1797.643035	2457.000000
1798.616795	2437.666667
1799.590201	2419.333333
1800.563253	2451.000000
1801.535950	2440.333333
1802.508294	2454.333333
1803.480283	2484.333333
1804.451919	2485.666667
1805.423201	2476.333333
1806.394129	2483.666667
1807.364705	2451.666667
1808.334927	2461.000000
1809.304796	2467.666667
1810.274313	2435.666667
1811.243477	2431.333333
1812.212288	2427.333333
1813.180747	2439.666667
1814.148855	2444.000000
1815.116610	2434.000000
1816.084013	2412.000000
1817.051065	2410.000000
1818.017766	2406.333333
1818.984115	2440.000000
1819.950113	2470.666667
1820.915760	2413.333333
1821.881057	2405.333333
1822.846003	2398.666667
1823.810598	2396.000000
1824.774843	2412.666667
1825.738738	2377.333333
1826.702283	2421.333333
1827.665479	2396.333333
1828.628324	2415.666667
1829.590821	2381.000000
1830.552968	2374.666667
1831.514765	2338.000000
1832.476214	2356.666667
1833.437314	2346.000000
1834.398066	2381.000000
1835.358469	2338.333333
1836.318524	2330.000000
1837.278230	2306.666667
1838.237589	2320.000000
1839.196600	2350.000000
1840.155263	2378.666667
1841.113578	2332.333333
1842.071547	2346.333333
1843.029168	2333.333333
1843.986442	2360.333333
1844.943369	2370.666667
1845.899950	2357.000000
1846.856184	2375.000000
1847.812072	2349.666667
1848.767614	2351.666667
1849.722809	2320.000000
1850.677659	2350.333333
1851.632163	2342.333333
1852.586322	2305.333333
1853.540135	2318.000000
1854.493603	2358.000000
1855.446726	2333.333333
1856.399504	2328.333333
1857.351937	2321.000000
1858.304026	2318.333333
1859.255770	2319.333333
1860.207170	2309.000000
1861.158227	2259.333333
1862.108939	2283.666667
1863.059307	2272.666667
1864.009332	2262.000000
1864.959013	2258.333333
1865.908351	2213.333333
1866.857346	2276.333333
1867.805998	2220.333333
1868.754307	2235.000000
1869.702274	2180.333333
1870.649898	2240.666667
1871.597180	2259.000000
1872.544119	2222.666667
1873.490717	2214.333333
1874.436973	2221.333333
1875.382887	2166.000000
1876.328459	2170.000000
1877.273691	2195.666667
1878.218581	2205.666667
1879.163130	2194.333333
1880.107338	2187.666667
1881.051205	2176.333333
1881.994732	2194.333333
1882.937919	2182.000000
1883.880765	2233.333333
1884.823271	2183.666667
1885.765437	2174.666667
1886.707264	2179.666667
1887.648750	2218.000000
1888.589898	2195.000000
1889.530706	2242.333333
1890.471175	2183.666667
1891.411305	2200.000000
1892.351096	2206.666667
1893.290548	2190.666667
1894.229662	2260.666667
1895.168438	2186.333333
1896.106876	2205.666667
1897.044975	2208.333333
1897.982737	2186.333333
1898.920160	2179.666667
1899.857247	2169.666667
1900.793996	2158.666667
1901.730407	2148.666667
1902.666482	2198.000000
1903.602219	2144.000000
1904.537620	2161.000000
1905.472685	2122.000000
1906.407412	2121.000000
1907.341804	2115.000000
1908.275859	2103.666667
1909.209579	2106.000000
1910.142962	2128.333333
1911.076010	2057.333333
1912.008722	2070.000000
1912.941099	2075.000000
1913.873141	2069.000000
1914.804848	2031.666667
1915.736219	2026.000000
1916.667256	2069.666667
1917.597959	2026.000000
1918.528327	2024.666667
1919.458360	2046.666667
1920.388060	2002.666667
1921.317426	2017.333333
1922.246457	2058.333333
1923.175156	2039.000000
1924.103520	2016.333333
1925.031552	2019.333333
1925.959250	2051.000000
1926.886615	2069.666667
1927.813647	2041.000000
1928.740346	2011.666667
1929.666713	2025.000000
1930.592748	2017.000000
1931.518450	2063.000000
1932.443820	2040.333333
1933.368858	2019.666667
1934.293564	2026.000000
1935.217939	2009.000000
1936.141982	2017.000000
1937.065694	2015.333333
1937.989074	2065.000000
1938.912124	1982.000000
1939.834842	2012.000000
1940.757230	1991.333333
1941.679287	2009.333333
1942.601014	1993.000000
1943.522411	1947.333333
1944.443477	1989.333333
1945.364214	1984.666667
1946.284621	1987.000000
1947.204698	1986.666667
1948.124445	1959.333333
1949.043863	1925.000000
1949.962952	1934.333333
1950.881712	1949.000000
1951.800143	1941.666667
1952.718245	1907.000000
1953.636019	1919.000000
1954.553464	1893.000000
1955.470581	1900.666667
1956.387369	1889.666667
1957.303830	1895.666667
1958.219963	1894.000000
1959.135768	1873.666667
1960.051246	1882.666667
1960.966396	1834.666667
1961.881219	1885.000000
1962.795715	1883.000000
1963.709883	1885.333333
1964.623726	1894.333333
1965.537241	1869.666667
1966.450430	1897.000000
1967.363293	1900.666667
1968.275829	1913.000000
1969.188040	1913.666667
1970.099924	1910.000000
1971.011483	1913.000000
1971.922716	1892.666667
1972.833624	1902.666667
1973.744206	1941.000000
1974.654464	1904.666667
1975.564396	1900.333333
1976.474004	1918.000000
1977.383286	1912.333333
1978.292245	1907.666667
1979.200878	1901.666667
1980.109188	1847.333333
1981.017174	1880.333333
1981.924835	1851.666667
1982.832173	1872.333333
1983.739187	1848.666667
1984.645878	1830.000000
1985.552245	1866.000000
1986.458289	1818.666667
1987.364010	1848.333333
1988.269408	1818.000000
1989.174484	1822.666667
1990.079236	1802.333333
1990.983667	1810.666667
1991.887775	1815.000000
1992.791561	1783.333333
1993.695024	1787.333333
1994.598166	1781.000000
1995.500986	1770.666667
1996.403485	1762.000000
1997.305662	1764.000000
1998.207518	1761.666667
1999.109053	1765.333333
