200.151048	9488.666667
201.758777	9344.333333
203.365815	9284.000000
204.972162	9284.666667
206.577820	9236.666667
208.182787	9250.000000
209.787065	9134.333333
211.390653	9077.333333
212.993553	9120.000000
214.595765	8915.666667
216.197289	9040.333333
217.798125	9008.000000
219.398274	8919.666667
220.997737	8904.666667
222.596513	8922.000000
224.194603	8898.000000
225.792008	8830.333333
227.388728	8788.333333
228.984763	8765.000000
230.580114	8673.333333
232.174781	8635.333333
233.768765	8600.000000
235.362065	8538.000000
236.954683	8509.333333
238.546619	8473.666667
240.137872	8459.000000
241.728445	8449.000000
243.318336	8431.000000
244.907546	8320.666667
246.496076	8341.666667
248.083926	8274.000000
249.671097	8342.666667
251.257589	8165.000000
252.843402	8194.000000
254.428536	8101.666667
256.012993	8064.000000
257.596772	8095.000000
259.179874	8056.666667
260.762300	7963.000000
262.344049	7954.000000
263.925122	7958.000000
265.505519	7996.666667
267.085241	7937.000000
268.664289	7967.000000
270.242662	7856.666667
271.820361	7831.666667
273.397387	7758.666667
274.973740	7821.000000
276.549419	7735.000000
278.124426	7680.666667
279.698762	7726.666667
281.272425	7645.000000
282.845417	7730.000000
284.417739	7677.666667
285.989390	7713.000000
287.560371	7655.666667
289.130682	7703.000000
290.700324	7651.666667
292.269297	7705.333333
293.837602	7607.333333
295.405238	7582.333333
296.972207	7644.666667
298.538508	7552.333333
300.104142	7637.000000
301.669110	7582.000000
303.233411	7576.666667
304.797047	7463.666667
306.360017	7419.333333
307.922322	7398.666667
309.483963	7267.666667
311.044939	7255.000000
312.605252	7220.333333
314.164900	7182.666667
315.723886	7167.333333
317.282209	7095.000000
318.839870	7157.000000
320.396868	7130.333333
321.953205	7055.333333
323.508881	7009.333333
325.063896	6882.666667
326.618251	6983.666667
328.171945	6950.666667
329.724980	6943.666667
331.277356	6916.333333
332.829072	6884.333333
334.380131	6876.333333
335.930530	6791.000000
337.480273	6812.666667
339.029357	6726.333333
340.577785	6775.666667
342.125556	6701.333333
343.672671	6660.333333
345.219130	6690.000000
346.764933	6590.333333
348.310081	6580.333333
349.854575	6567.000000
351.398414	6500.000000
352.941599	6509.333333
354.484130	6498.666667
356.026008	6490.666667
357.567234	6463.000000
359.107807	6398.000000
360.647727	6422.000000
362.186996	6399.000000
363.725614	6323.000000
365.263580	6312.000000
366.800896	6316.666667
368.337562	6243.666667
369.873578	6282.666667
371.408944	6263.000000
372.943661	6283.333333
374.477730	6306.666667
376.011150	6350.666667
377.543922	6330.666667
379.076046	6311.333333
380.607523	6363.000000
382.138353	6369.000000
383.668537	6306.666667
385.198075	6326.333333
386.726966	6427.666667
388.255213	6365.666667
389.782814	6437.000000
391.309770	6441.666667
392.836083	6434.333333
394.361751	6458.666667
395.886776	6459.333333
397.411157	6517.333333
398.934896	6532.000000
400.457992	6554.666667
401.980446	6526.666667
403.502258	6623.666667
405.023429	6553.000000
406.543959	6615.666667
408.063849	6603.000000
409.583098	6681.666667
411.101707	6761.666667
412.619677	6738.333333
414.137007	6817.666667
415.653699	6971.000000
417.169752	7013.000000
418.685167	7235.333333
420.199945	7329.333333
421.714085	7492.666667
423.227588	7660.333333
424.740454	7774.000000
426.252684	7844.666667
427.764279	7803.333333
429.275238	7879.000000
430.785561	7865.000000
432.295250	7719.000000
433.804304	7711.000000
435.312725	7572.333333
436.820511	7493.666667
438.327664	7305.333333
439.834185	7221.333333
441.340072	7078.666667
442.845327	7100.000000
444.349951	7016.333333
445.853942	6950.000000
447.357303	6918.666667
448.860033	6832.666667
450.362132	6854.666667
451.863601	6755.666667
453.364440	6735.333333
454.864650	6620.333333
456.364231	6491.333333
457.863183	6369.333333
459.361507	6277.666667
460.859203	6178.333333
462.356271	6136.000000
463.852712	6032.000000
465.348526	6000.333333
466.843714	5894.333333
468.338275	5809.333333
469.832210	5752.666667
471.325520	5747.666667
472.818205	5764.333333
474.310265	5650.000000
475.801700	5619.666667
477.292512	5586.666667
478.782700	5580.666667
480.272264	5580.000000
481.761205	5523.333333
483.249524	5512.000000
484.737221	5342.666667
486.224295	5339.333333
487.710748	5222.333333
489.196579	5213.333333
490.681790	5180.333333
492.166380	5306.333333
493.650350	5304.666667
495.133700	5297.333333
496.616431	5252.000000
498.098542	5261.000000
499.580035	5278.666667
501.060909	5316.666667
502.541165	5280.333333
504.020804	5286.666667
505.499825	5369.333333
506.978228	5296.666667
508.456016	5226.666667
509.933186	5112.000000
511.409741	5089.333333
512.885680	5104.666667
514.361004	5122.666667
515.835713	5128.000000
517.309807	5249.333333
518.783287	5246.666667
520.256153	5317.333333
521.728406	5285.000000
523.200045	5288.333333
524.671071	5310.000000
526.141485	5361.666667
527.611287	5273.333333
529.080476	5309.333333
530.549054	5343.000000
532.017021	5343.666667
533.484378	5410.000000
534.951123	5331.666667
536.417259	5346.000000
537.882785	5340.000000
539.347701	5280.333333
540.812008	5316.666667
542.275707	5245.666667
543.738797	5201.666667
545.201279	5333.666667
546.663153	5344.000000
548.124420	5416.333333
549.585080	5489.666667
551.045133	5541.333333
552.504579	5588.000000
553.963420	5560.666667
555.421655	5631.666667
556.879285	5612.000000
558.336309	5643.333333
559.792729	5639.666667
561.248545	5597.666667
562.703756	5675.000000
564.158364	5760.666667
565.612369	5805.333333
567.065770	5833.666667
568.518569	5792.666667
569.970766	5887.666667
571.422361	5974.666667
572.873354	6038.666667
574.323745	6091.000000
575.773536	6152.666667
577.222726	6310.000000
578.671316	6313.666667
580.119306	6258.666667
581.566696	6178.000000
583.013487	6186.333333
584.459679	6046.666667
585.905273	6082.666667
587.350268	5988.000000
588.794665	6014.333333
590.238465	6008.000000
591.681667	6004.666667
593.124272	6000.333333
594.566281	5986.666667
596.007694	5859.000000
597.448510	5793.666667
598.888731	5761.333333
600.328357	5706.666667
601.767388	5684.666667
603.205824	5665.666667
604.643666	5594.666667
606.080914	5558.000000
607.517568	5627.333333
608.953629	5560.333333
610.389097	5594.000000
611.823972	5552.333333
613.258255	5556.666667
614.691946	5491.666667
616.125046	5549.333333
617.557554	5389.333333
618.989471	5359.333333
620.420798	5253.666667
621.851534	5192.000000
623.281680	5118.333333
624.711237	5073.000000
626.140204	4947.666667
627.568582	4847.000000
628.996372	4868.000000
630.423573	4786.333333
631.850186	4809.000000
633.276211	4803.666667
634.701650	4744.333333
636.126501	4757.000000
637.550765	4766.333333
638.974443	4775.000000
640.397535	4834.666667
641.820041	4883.666667
643.241961	4788.333333
644.663297	4818.666667
646.084048	4807.333333
647.504214	4787.000000
648.923796	4746.333333
650.342795	4660.000000
651.761210	4688.666667
653.179041	4562.666667
654.596290	4545.333333
656.012957	4573.000000
657.429041	4538.000000
658.844543	4606.666667
660.259464	4618.333333
661.673804	4565.000000
663.087563	4599.333333
664.500741	4623.000000
665.913339	4638.333333
667.325357	4715.000000
668.736795	4695.333333
670.147654	4688.666667
671.557934	4719.666667
672.967636	4615.000000
674.376759	4593.666667
675.785304	4660.666667
677.193271	4558.333333
678.600661	4646.666667
680.007474	4665.000000
681.413711	4647.666667
682.819370	4590.666667
684.224454	4602.666667
685.628962	4633.000000
687.032895	4670.000000
688.436252	4668.333333
689.839034	4715.333333
691.241242	4658.333333
692.642876	4646.666667
694.043936	4644.000000
695.444422	4605.666667
696.844336	4664.333333
698.243676	4552.666667
699.642443	4569.000000
701.040639	4582.666667
702.438262	4627.333333
703.835313	4649.000000
705.231794	4652.000000
706.627703	4655.666667
708.023041	4608.000000
709.417810	4578.000000
710.812008	4579.333333
712.205636	4585.000000
713.598694	4563.333333
714.991184	4588.666667
716.383105	4583.000000
717.774457	4559.666667
719.165241	4538.000000
720.555457	4594.666667
721.945105	4560.000000
723.334187	4539.333333
724.722701	4553.000000
726.110648	4627.000000
727.498030	4610.000000
728.884845	4563.333333
730.271094	4547.666667
731.656778	4507.000000
733.041897	4500.666667
734.426451	4490.333333
735.810441	4542.000000
737.193866	4473.333333
738.576728	4444.666667
739.959026	4477.333333
741.340760	4490.333333
742.721932	4523.000000
744.102541	4533.666667
745.482588	4466.333333
746.862073	4513.333333
748.240996	4501.000000
749.619358	4519.666667
750.997158	4598.000000
752.374398	4590.666667
753.751077	4579.000000
755.127197	4604.333333
756.502756	4577.333333
757.877756	4618.666667
759.252196	4564.666667
760.626078	4564.666667
761.999400	4581.333333
763.372165	4547.333333
764.744371	4513.333333
766.116020	4551.000000
767.487111	4500.333333
768.857646	4520.666667
770.227623	4509.333333
771.597044	4498.333333
772.965908	4473.333333
774.334217	4481.000000
775.701970	4477.333333
777.069168	4479.666667
778.435811	4464.333333
779.801899	4438.666667
781.167433	4417.000000
782.532412	4398.333333
783.896838	4517.000000
785.260710	4451.000000
786.624029	4439.000000
787.986796	4446.000000
789.349009	4351.333333
790.710671	4420.666667
792.071780	4402.666667
793.432338	4412.666667
794.792344	4372.666667
796.151799	4337.666667
797.510704	4387.000000
798.869058	4336.666667
800.226862	4356.666667
801.584116	4374.000000
802.940820	4371.666667
804.296975	4403.000000
805.652581	4399.000000
807.007638	4429.000000
808.362147	4433.000000
809.716108	4482.666667
811.069521	4480.333333
812.422387	4522.000000
813.774705	4486.666667
815.126476	4460.666667
816.477701	4453.000000
817.828380	4437.666667
819.178512	4471.000000
820.528099	4480.666667
821.877140	4404.666667
823.225637	4440.000000
824.573588	4389.000000
825.920995	4398.666667
827.267857	4413.333333
828.614176	4352.333333
829.959951	4354.333333
831.305183	4364.000000
832.649871	4313.000000
833.994017	4390.333333
835.337620	4379.000000
836.680681	4417.333333
838.023201	4446.333333
839.365178	4473.666667
840.706614	4443.333333
842.047510	4532.333333
843.387864	4498.666667
844.727678	4533.000000
846.066952	4576.333333
847.405687	4691.666667
848.743881	4674.666667
850.081537	4692.666667
851.418653	4770.333333
852.755231	4714.333333
854.091270	4783.000000
855.426771	4752.333333
856.761735	4697.666667
858.096160	4750.000000
859.430049	4669.666667
860.763401	4650.000000
862.096216	4617.333333
863.428495	4650.333333
864.760237	4645.333333
866.091444	4659.333333
867.422115	4638.333333
868.752252	4650.666667
870.081853	4611.333333
871.410919	4642.666667
872.739452	4569.000000
874.067450	4617.000000
875.394914	4569.666667
876.721845	4622.666667
878.048243	4605.666667
879.374108	4604.000000
880.699440	4593.333333
882.024240	4525.000000
883.348508	4545.666667
884.672244	4437.000000
885.995449	4442.000000
887.318122	4486.666667
888.640265	4480.000000
889.961877	4394.333333
891.282959	4403.000000
892.603510	4409.333333
893.923532	4385.666667
895.243024	4366.000000
896.561987	4329.000000
897.880422	4363.000000
899.198327	4319.666667
900.515705	4336.666667
901.832554	4324.000000
903.148875	4378.333333
904.464669	4407.666667
905.779936	4351.666667
907.094676	4448.666667
908.408889	4392.666667
909.722576	4404.333333
911.035737	4480.000000
912.348371	4519.333333
913.660481	4515.000000
914.972065	4558.333333
916.283124	4632.666667
917.593659	4614.666667
918.903669	4604.666667
920.213155	4651.000000
921.522117	4626.333333
922.830556	4721.000000
924.138471	4694.333333
925.445864	4724.000000
926.752733	4715.666667
928.059081	4748.333333
929.364906	4751.666667
930.670209	4846.666667
931.974991	4921.000000
933.279251	4954.666667
934.582990	5116.000000
935.886209	5184.666667
937.188907	5287.666667
938.491085	5437.000000
939.792743	5596.000000
941.093881	5728.000000
942.394500	6018.333333
943.694600	6288.000000
944.994181	6561.666667
946.293243	6918.666667
947.591787	7389.666667
948.889813	7803.666667
950.187322	8353.333333
951.484313	9139.666667
952.780787	9755.000000
954.076744	10543.333333
955.372184	11136.666667
956.667108	11659.333333
957.961516	12022.000000
959.255409	12093.333333
960.548785	11877.666667
961.841647	11342.000000
963.133993	10631.000000
964.425825	9879.333333
965.717142	8878.666667
967.007946	8182.333333
968.298235	7307.000000
969.588011	6625.000000
970.877273	6109.666667
972.166023	5585.000000
973.454259	5305.000000
974.741984	5052.000000
976.029196	4774.000000
977.315895	4660.666667
978.602084	4528.666667
979.887761	4416.000000
981.172926	4275.000000
982.457581	4282.333333
983.741725	4213.666667
985.025359	4179.000000
986.308483	4167.666667
987.591097	4091.333333
988.873202	4117.000000
990.154797	4109.000000
991.435883	4126.666667
992.716461	4136.000000
993.996530	4068.666667
995.276091	4124.000000
996.555144	4119.000000
997.833690	4185.333333
999.111728	4265.666667
1000.389259	4306.333333
1001.666283	4332.666667
1002.942800	4415.333333
1004.218812	4338.000000
1005.494317	4328.000000
1006.769317	4312.333333
1008.043811	4270.333333
1009.317799	4245.000000
1010.591283	4231.333333
1011.864263	4195.333333
1013.136737	4243.000000
1014.408708	4296.000000
1015.680175	4245.333333
1016.951138	4282.000000
1018.221598	4302.666667
1019.491554	4333.000000
1020.761008	4350.333333
1022.029959	4322.666667
1023.298408	4412.333333
1024.566355	4382.000000
1025.833800	4369.000000
1027.100744	4400.000000
1028.367187	4417.666667
1029.633128	4395.000000
1030.898569	4346.000000
1032.163509	4371.000000
1033.427949	4377.000000
1034.691890	4419.333333
1035.955330	4449.666667
1037.218271	4418.000000
1038.480714	4494.000000
1039.742657	4585.666667
1041.004101	4569.333333
1042.265048	4613.000000
1043.525496	4570.000000
1044.785446	4592.333333
1046.044899	4596.666667
1047.303855	4569.000000
1048.562313	4532.666667
1049.820275	4482.333333
1051.077740	4530.333333
1052.334709	4501.000000
1053.591182	4474.000000
1054.847160	4519.666667
1056.102641	4516.000000
1057.357628	4543.333333
1058.612120	4607.333333
1059.866117	4637.666667
1061.119619	4712.666667
1062.372628	4772.333333
1063.625142	4802.000000
1064.877163	4895.333333
1066.128691	4917.333333
1067.379725	4968.666667
1068.630267	4976.000000
1069.880316	4907.666667
1071.129872	4892.333333
1072.378937	4839.666667
1073.627509	4823.666667
1074.875590	4760.666667
1076.123180	4685.333333
1077.370279	4559.333333
1078.616887	4474.000000
1079.863004	4435.000000
1081.108631	4352.666667
1082.353768	4202.333333
1083.598415	4222.666667
1084.842573	4162.666667
1086.086241	4080.000000
1087.329421	4032.333333
1088.572111	3997.333333
1089.814314	3965.666667
1091.056028	3959.666667
1092.297253	3884.000000
1093.537992	3907.000000
1094.778242	3915.666667
1096.018006	3840.333333
1097.257282	3880.000000
1098.496072	3799.333333
1099.734376	3816.333333
1100.972193	3762.000000
1102.209524	3774.000000
1103.446370	3797.666667
1104.682730	3737.000000
1105.918604	3767.000000
1107.153994	3661.333333
1108.388900	3651.333333
1109.623320	3658.000000
1110.857257	3623.666667
1112.090710	3610.000000
1113.323679	3498.000000
1114.556164	3528.333333
1115.788167	3499.000000
1117.019686	3467.333333
1118.250723	3513.333333
1119.481278	3489.000000
1120.711350	3469.666667
1121.940940	3440.333333
1123.170049	3491.333333
1124.398676	3461.333333
1125.626823	3429.666667
1126.854488	3401.666667
1128.081672	3426.666667
1129.308376	3394.333333
1130.534600	3397.666667
1131.760345	3342.666667
1132.985609	3351.666667
1134.210394	3414.666667
1135.434700	3351.666667
1136.658527	3374.000000
1137.881875	3356.333333
1139.104745	3355.000000
1140.327136	3381.000000
1141.549050	3332.666667
1142.770486	3318.666667
1143.991445	3298.333333
1145.211926	3368.666667
1146.431931	3346.333333
1147.651459	3317.000000
1148.870510	3316.333333
1150.089086	3325.333333
1151.307185	3427.333333
1152.524808	3355.666667
1153.741957	3377.333333
1154.958630	3400.666667
1156.174828	3416.666667
1157.390551	3366.000000
1158.605800	3417.000000
1159.820574	3369.333333
1161.034875	3450.333333
1162.248702	3425.666667
1163.462055	3387.333333
1164.674936	3424.666667
1165.887343	3400.333333
1167.099277	3404.333333
1168.310739	3422.333333
1169.521729	3346.666667
1170.732247	3346.000000
1171.942293	3403.333333
1173.151867	3388.333333
1174.360970	3399.333333
1175.569602	3331.666667
1176.777764	3333.333333
1177.985454	3377.666667
1179.192675	3362.333333
1180.399425	3310.666667
1181.605706	3379.666667
1182.811517	3315.333333
1184.016859	3304.000000
1185.221731	3296.333333
1186.426135	3299.333333
1187.630070	3255.666667
1188.833537	3275.333333
1190.036535	3237.666667
1191.239066	3263.333333
1192.441129	3196.333333
1193.642725	3160.333333
1194.843853	3145.333333
1196.044515	3159.000000
1197.244710	3213.666667
1198.444438	3257.666667
1199.643701	3253.333333
1200.842497	3314.666667
1202.040827	3341.000000
1203.238693	3276.333333
1204.436092	3245.000000
1205.633027	3273.666667
1206.829497	3272.666667
1208.025503	3270.000000
1209.221044	3225.000000
1210.416122	3192.666667
1211.610735	3223.333333
1212.804885	3208.333333
1213.998572	3185.000000
1215.191795	3198.666667
1216.384556	3220.000000
1217.576854	3207.000000
1218.768689	3195.000000
1219.960063	3242.333333
1221.150974	3220.333333
1222.341424	3218.000000
1223.531413	3280.333333
1224.720940	3297.666667
1225.910006	3294.666667
1227.098612	3335.000000
1228.286757	3317.333333
1229.474442	3367.666667
1230.661667	3447.000000
1231.848432	3420.666667
1233.034738	3439.666667
1234.220584	3499.333333
1235.405971	3560.333333
1236.590900	3540.666667
1237.775369	3571.000000
1238.959381	3578.333333
1240.142934	3679.333333
1241.326029	3616.333333
1242.508667	3673.000000
1243.690848	3656.666667
1244.872571	3624.000000
1246.053837	3657.666667
1247.234646	3576.000000
1248.414999	3626.000000
1249.594896	3581.666667
1250.774337	3581.333333
1251.953322	3549.000000
1253.131851	3535.666667
1254.309925	3538.666667
1255.487544	3533.666667
1256.664708	3527.666667
1257.841417	3518.666667
1259.017673	3505.333333
1260.193473	3537.000000
1261.368820	3545.000000
1262.543714	3568.333333
1263.718154	3545.333333
1264.892140	3606.666667
1266.065674	3583.333333
1267.238755	3617.333333
1268.411383	3602.666667
1269.583559	3578.666667
1270.755283	3583.000000
1271.926555	3594.333333
1273.097375	3598.666667
1274.267744	3584.000000
1275.437662	3518.000000
1276.607129	3559.666667
1277.776145	3540.666667
1278.944711	3519.000000
1280.112827	3461.666667
1281.280492	3476.333333
1282.447708	3448.666667
1283.614474	3432.000000
1284.780791	3369.666667
1285.946659	3403.333333
1287.112078	3378.666667
1288.277048	3361.333333
1289.441570	3316.000000
1290.605644	3327.000000
1291.769270	3255.000000
1292.932448	3227.666667
1294.095178	3237.333333
1295.257461	3228.666667
1296.419298	3231.000000
1297.580687	3177.333333
1298.741630	3188.666667
1299.902126	3192.666667
1301.062177	3220.666667
1302.221781	3162.000000
1303.380940	3169.666667
1304.539653	3180.333333
1305.697921	3182.333333
1306.855744	3150.000000
1308.013123	3208.666667
1309.170056	3183.000000
1310.326546	3192.333333
1311.482591	3232.666667
1312.638193	3143.000000
1313.793350	3179.666667
1314.948065	3217.333333
1316.102336	3178.000000
1317.256164	3236.666667
1318.409550	3197.333333
1319.562493	3205.666667
1320.714993	3159.333333
1321.867052	3236.666667
1323.018668	3214.333333
1324.169843	3158.666667
1325.320577	3190.333333
1326.470870	3116.333333
1327.620721	3133.666667
1328.770132	3129.666667
1329.919102	3109.000000
1331.067632	3138.000000
1332.215722	3133.666667
1333.363372	3098.000000
1334.510582	3114.333333
1335.657353	3135.000000
1336.803685	3125.333333
1337.949578	3113.333333
1339.095032	3133.333333
1340.240048	3141.333333
1341.384625	3153.000000
1342.528764	3142.666667
1343.672466	3125.333333
1344.815729	3138.333333
1345.958556	3128.666667
1347.100945	3087.666667
1348.242897	3131.000000
1349.384413	3081.666667
1350.525492	3051.666667
1351.666134	3057.666667
1352.806341	3045.666667
1353.946111	2994.000000
1355.085446	2985.333333
1356.224346	2991.333333
1357.362810	3002.000000
1358.500840	2958.666667
1359.638434	2953.666667
1360.775594	3008.666667
1361.912320	2990.666667
1363.048612	2966.000000
1364.184469	2952.000000
1365.319893	2952.000000
1366.454884	2975.666667
1367.589441	2957.000000
1368.723566	2965.000000
1369.857257	2998.333333
1370.990516	3022.666667
1372.123343	2998.333333
1373.255737	2981.333333
1374.387699	3016.666667
1375.519230	3041.666667
1376.650329	2997.000000
1377.780997	3014.666667
1378.911234	3040.000000
1380.041040	2996.000000
1381.170416	2967.666667
1382.299361	2982.333333
1383.427875	3042.333333
1384.555960	2974.000000
1385.683615	2999.000000
1386.810841	3002.666667
1387.937637	2993.000000
1389.064004	3012.333333
1390.189942	3035.666667
1391.315451	2995.666667
1392.440532	3027.666667
1393.565185	3003.666667
1394.689409	2979.666667
1395.813206	3012.333333
1396.936575	2990.666667
1398.059517	3007.000000
1399.182032	3005.333333
1400.304119	3025.000000
1401.425780	2992.000000
1402.547014	2990.666667
1403.667822	3001.000000
1404.788204	2977.000000
1405.908160	2977.333333
1407.027690	3000.000000
1408.146795	3044.333333
1409.265474	2996.333333
1410.383728	3005.333333
1411.501558	3000.333333
1412.618963	2992.333333
1413.735943	3050.000000
1414.852499	3033.333333
1415.968632	3034.000000
1417.084340	3065.000000
1418.199625	3047.000000
1419.314486	3084.333333
1420.428925	3088.000000
1421.542940	3125.000000
1422.656533	3149.333333
1423.769703	3067.333333
1424.882451	3122.666667
1425.994777	3135.666667
1427.106680	3113.333333
1428.218163	3043.666667
1429.329223	3032.000000
1430.439863	3031.666667
1431.550081	3032.000000
1432.659879	3064.333333
1433.769256	3009.000000
1434.878212	3065.666667
1435.986749	3123.333333
1437.094865	3065.333333
1438.202562	3113.000000
1439.309839	3168.333333
1440.416696	3177.666667
1441.523135	3174.333333
1442.629154	3243.333333
1443.734755	3183.000000
1444.839937	3246.000000
1445.944701	3302.000000
1447.049047	3290.333333
1448.152975	3325.000000
1449.256485	3300.333333
1450.359577	3336.666667
1451.462253	3294.000000
1452.564511	3283.666667
1453.666352	3282.666667
1454.767777	3239.666667
1455.868785	3292.000000
1456.969377	3220.333333
1458.069553	3207.333333
1459.169313	3213.333333
1460.268658	3181.000000
1461.367587	3133.666667
1462.466101	3152.000000
1463.564200	3129.000000
1464.661884	3047.333333
1465.759153	3054.000000
1466.856008	3051.000000
1467.952449	3036.000000
1469.048476	2931.333333
1470.144089	2887.333333
1471.239288	2920.333333
1472.334074	2837.000000
1473.428447	2819.333333
1474.522407	2785.666667
1475.615955	2821.000000
1476.709089	2717.333333
1477.801812	2722.666667
1478.894122	2711.000000
1479.986020	2638.666667
1481.077506	2652.333333
1482.168581	2688.000000
1483.259245	2633.333333
1484.349498	2637.666667
1485.439339	2623.000000
1486.528770	2570.666667
1487.617790	2599.000000
1488.706400	2572.666667
1489.794600	2574.000000
1490.882390	2591.000000
1491.969771	2553.333333
1493.056742	2515.666667
1494.143303	2545.666667
1495.229456	2541.333333
1496.315199	2502.333333
1497.400534	2511.666667
1498.485460	2465.666667
1499.569978	2502.000000
1500.654088	2510.333333
1501.737790	2485.666667
1502.821085	2478.000000
1503.903972	2495.333333
1504.986451	2454.000000
1506.068524	2485.666667
1507.150189	2524.333333
1508.231448	2463.000000
1509.312301	2475.666667
1510.392747	2463.000000
1511.472787	2469.333333
1512.552422	2471.666667
1513.631650	2492.000000
1514.710473	2494.666667
1515.788891	2440.000000
1516.866904	2440.666667
1517.944512	2522.666667
1519.021715	2508.333333
1520.098513	2518.666667
1521.174908	2544.666667
1522.250898	2534.666667
1523.326485	2545.000000
1524.401667	2482.666667
1525.476447	2480.333333
1526.550823	2528.666667
1527.624796	2548.666667
1528.698365	2525.000000
1529.771533	2527.000000
1530.844298	2540.000000
1531.916660	2544.333333
1532.988620	2574.666667
1534.060179	2557.666667
1535.131336	2548.000000
1536.202091	2512.333333
1537.272445	2518.666667
1538.342398	2508.333333
1539.411950	2537.333333
1540.481101	2483.666667
1541.549851	2478.666667
1542.618202	2536.666667
1543.686152	2511.666667
1544.753702	2482.000000
1545.820853	2514.000000
1546.887604	2454.666667
1547.953955	2487.000000
1549.019908	2494.000000
1550.085461	2489.666667
1551.150616	2466.666667
1552.215372	2472.666667
1553.279730	2457.000000
1554.343690	2479.333333
1555.407252	2430.000000
1556.470415	2491.333333
1557.533182	2433.666667
1558.595551	2426.666667
1559.657522	2385.000000
1560.719097	2399.000000
1561.780275	2358.000000
1562.841056	2378.666667
1563.901441	2367.666667
1564.961429	2394.666667
1566.021022	2331.666667
1567.080219	2359.333333
1568.139020	2353.666667
1569.197425	2324.000000
1570.255436	2334.666667
1571.313051	2320.666667
1572.370271	2345.000000
1573.427097	2325.666667
1574.483528	2341.000000
1575.539565	2325.666667
1576.595208	2324.666667
1577.650457	2351.333333
1578.705312	2333.000000
1579.759774	2314.333333
1580.813842	2312.000000
1581.867517	2249.000000
1582.920799	2268.333333
1583.973689	2254.000000
1585.026186	2260.000000
1586.078290	2287.666667
1587.130002	2328.666667
1588.181323	2326.000000
1589.232251	2265.666667
1590.282788	2300.000000
1591.332933	2294.000000
1592.382688	2251.000000
1593.432051	2256.333333
1594.481023	2290.666667
1595.529605	2314.000000
1596.577796	2263.333333
1597.625597	2308.333333
1598.673007	2368.333333
1599.720028	2349.000000
1600.766660	2376.333333
1601.812901	2399.000000
1602.858753	2377.333333
1603.904217	2376.333333
1604.949291	2379.000000
1605.993976	2386.000000
1607.038273	2431.666667
1608.082182	2376.666667
1609.125702	2370.000000
1610.168834	2353.000000
1611.211579	2340.333333
1612.253935	2320.000000
1613.295905	2321.000000
1614.337487	2289.000000
1615.378682	2293.333333
1616.419490	2318.000000
1617.459912	2306.000000
1618.499946	2375.333333
1619.539595	2383.333333
1620.578858	2452.333333
1621.617734	2449.000000
1622.656225	2500.666667
1623.694330	2506.000000
1624.732050	2454.666667
1625.769385	2473.333333
1626.806334	2446.333333
1627.842899	2424.333333
1628.879079	2415.333333
1629.914875	2501.666667
1630.950286	2471.666667
1631.985314	2501.666667
1633.019957	2471.000000
1634.054217	2519.333333
1635.088093	2534.000000
1636.121586	2492.666667
1637.154696	2520.666667
1638.187423	2496.333333
1639.219767	2507.000000
1640.251728	2515.333333
1641.283307	2515.000000
1642.314504	2545.666667
1643.345319	2508.000000
1644.375751	2570.000000
1645.405803	2543.333333
1646.435472	2562.333333
1647.464761	2528.333333
1648.493668	2492.666667
1649.522194	2567.000000
1650.550340	2617.333333
1651.578105	2560.333333
1652.605490	2619.000000
1653.632494	2610.000000
1654.659119	2599.333333
1655.685363	2552.666667
1656.711228	2573.666667
1657.736714	2544.000000
1658.761820	2614.666667
1659.786547	2532.666667
1660.810895	2602.666667
1661.834865	2576.333333
1662.858456	2571.666667
1663.881668	2589.666667
1664.904503	2546.666667
1665.926959	2595.666667
1666.949038	2590.000000
1667.970739	2573.666667
1668.992062	2503.000000
1670.013008	2536.000000
1671.033577	2517.333333
1672.053770	2533.666667
1673.073585	2494.666667
1674.093024	2478.333333
1675.112086	2512.000000
1676.130773	2474.000000
1677.149083	2489.333333
1678.167017	2431.666667
1679.184576	2449.000000
1680.201760	2421.000000
1681.218568	2424.000000
1682.235001	2421.000000
1683.251059	2406.000000
1684.266742	2438.000000
1685.282051	2369.666667
1686.296985	2356.666667
1687.311546	2373.666667
1688.325732	2338.000000
1689.339544	2333.000000
1690.352983	2289.000000
1691.366048	2253.666667
1692.378740	2213.666667
1693.391058	2206.333333
1694.403004	2211.666667
1695.414577	2172.333333
1696.425778	2209.000000
1697.436606	2182.000000
1698.447061	2174.000000
1699.457145	2141.666667
1700.466857	2124.333333
1701.476197	2095.333333
1702.485166	2052.666667
1703.493763	2071.000000
1704.501989	2050.666667
1705.509844	2036.666667
1706.517328	2052.666667
1707.524442	2024.666667
1708.531185	2080.000000
1709.537558	2037.666667
1710.543561	2012.666667
1711.549194	2022.333333
1712.554457	2000.666667
1713.559351	1963.000000
1714.563875	1983.000000
1715.568030	1974.000000
1716.571816	2010.000000
1717.575233	2027.000000
1718.578282	2029.000000
1719.580962	2075.666667
1720.583273	2099.333333
1721.585217	2077.333333
1722.586792	2062.000000
1723.588000	2089.000000
1724.588840	2024.666667
1725.589312	2040.333333
1726.589418	2002.333333
1727.589156	2052.000000
1728.588527	2110.666667
1729.587532	2104.333333
1730.586170	2073.000000
1731.584441	2102.333333
1732.582346	2093.000000
1733.579886	2062.666667
1734.577059	2082.000000
1735.573867	2065.333333
1736.570309	2047.333333
1737.566386	2048.333333
1738.562097	2093.666667
1739.557444	2030.000000
1740.552426	2055.333333
1741.547043	2019.666667
1742.541295	2036.333333
1743.535184	2062.333333
1744.528708	2035.666667
1745.521868	2026.000000
1746.514664	2026.666667
1747.507097	2000.666667
1748.499166	1970.333333
1749.490873	2008.333333
1750.482216	2012.000000
1751.473196	2024.333333
1752.463813	2008.666667
1753.454068	2044.333333
1754.443960	2019.333333
1755.433490	1974.666667
1756.422658	1963.333333
1757.411464	1961.666667
1758.399908	1952.000000
1759.387991	1976.000000
1760.375713	1985.333333
1761.363073	2010.333333
1762.350072	1966.333333
1763.336711	2014.333333
1764.322988	1954.666667
1765.308905	1948.333333
1766.294462	1973.000000
1767.279659	1975.000000
1768.264496	1910.333333
1769.248972	1972.666667
1770.233089	1889.000000
1771.216847	1899.333333
1772.200245	1853.333333
1773.183284	1888.333333
1774.165965	1855.333333
1775.148286	1891.333333
1776.130249	1904.666667
1777.111853	1877.666667
1778.093099	1877.000000
1779.073987	1857.666667
1780.054517	1856.333333
1781.034689	1837.000000
1782.014503	1844.666667
1782.993960	1780.666667
1783.973060	1743.333333
1784.951802	1759.666667
1785.930188	1726.000000
1786.908217	1734.666667
1787.885889	1728.000000
1788.863205	1749.000000
1789.840164	1766.333333
1790.816768	1737.666667
1791.793015	1739.000000
1792.768907	1739.333333
1793.744443	1728.666667
1794.719624	1744.000000
1795.694449	1730.000000
1796.668919	1794.666667
1797.643035	1781.333333
1798.616795	1760.333333
1799.590201	1767.000000
1800.563253	1764.000000
1801.535950	1784.333333
1802.508294	1753.666667
1803.480283	1824.333333
1804.451919	1781.333333
1805.423201	1801.000000
1806.394129	1837.000000
1807.364705	1796.000000
1808.334927	1801.000000
1809.304796	1765.000000
1810.274313	1791.000000
1811.243477	1765.666667
1812.212288	1807.333333
1813.180747	1765.666667
1814.148855	1773.333333
1815.116610	1774.666667
1816.084013	1756.000000
1817.051065	1811.333333
1818.017766	1804.000000
1818.984115	1838.000000
1819.950113	1795.333333
1820.915760	1832.333333
1821.881057	1841.000000
1822.846003	1838.666667
1823.810598	1815.000000
1824.774843	1830.000000
1825.738738	1846.333333
1826.702283	1838.666667
1827.665479	1845.333333
1828.628324	1863.333333
1829.590821	1818.666667
1830.552968	1856.333333
1831.514765	1819.666667
1832.476214	1817.333333
1833.437314	1818.333333
1834.398066	1805.333333
1835.358469	1815.666667
1836.318524	1805.666667
1837.278230	1814.666667
1838.237589	1796.666667
1839.196600	1777.666667
1840.155263	1787.000000
1841.113578	1806.333333
1842.071547	1843.333333
1843.029168	1794.000000
1843.986442	1800.000000
1844.943369	1805.666667
1845.899950	1842.333333
1846.856184	1801.000000
1847.812072	1791.666667
1848.767614	1743.666667
1849.722809	1765.000000
1850.677659	1736.000000
1851.632163	1758.666667
1852.586322	1735.000000
1853.540135	1804.666667
1854.493603	1768.666667
1855.446726	1777.000000
1856.399504	1777.666667
1857.351937	1742.333333
1858.304026	1745.000000
1859.255770	1742.666667
1860.207170	1671.333333
1861.158227	1665.333333
1862.108939	1684.333333
1863.059307	1665.666667
1864.009332	1685.333333
1864.959013	1670.333333
1865.908351	1639.666667
1866.857346	1654.333333
1867.805998	1692.666667
1868.754307	1666.333333
1869.702274	1650.666667
1870.649898	1654.000000
1871.597180	1675.000000
1872.544119	1670.666667
1873.490717	1623.000000
1874.436973	1682.666667
1875.382887	1679.333333
1876.328459	1645.333333
1877.273691	1630.666667
1878.218581	1658.000000
1879.163130	1635.666667
1880.107338	1648.000000
1881.051205	1645.666667
1881.994732	1618.000000
1882.937919	1676.666667
1883.880765	1656.666667
1884.823271	1644.333333
1885.765437	1636.000000
1886.707264	1632.666667
1887.648750	1660.333333
1888.589898	1657.666667
1889.530706	1680.333333
1890.471175	1656.333333
1891.411305	1693.333333
1892.351096	1691.666667
1893.290548	1688.333333
1894.229662	1726.000000
1895.168438	1712.666667
1896.106876	1719.000000
1897.044975	1719.333333
1897.982737	1711.333333
1898.920160	1707.666667
1899.857247	1694.000000
1900.793996	1706.333333
1901.730407	1711.666667
1902.666482	1723.333333
1903.602219	1687.000000
1904.537620	1693.333333
1905.472685	1695.666667
1906.407412	1659.333333
1907.341804	1716.000000
1908.275859	1671.333333
1909.209579	1689.000000
1910.142962	1640.333333
1911.076010	1654.666667
1912.008722	1658.333333
1912.941099	1628.666667
1913.873141	1632.333333
1914.804848	1630.333333
1915.736219	1649.333333
1916.667256	1618.666667
1917.597959	1639.666667
1918.528327	1623.333333
1919.458360	1635.333333
1920.388060	1593.000000
1921.317426	1586.666667
1922.246457	1589.333333
1923.175156	1558.666667
1924.103520	1581.000000
1925.031552	1590.000000
1925.959250	1596.333333
1926.886615	1587.666667
1927.813647	1575.000000
1928.740346	1550.000000
1929.666713	1562.000000
1930.592748	1548.666667
1931.518450	1546.666667
1932.443820	1569.333333
1933.368858	1534.333333
1934.293564	1547.000000
1935.217939	1556.333333
1936.141982	1536.000000
1937.065694	1527.000000
1937.989074	1563.333333
1938.912124	1545.666667
1939.834842	1532.333333
1940.757230	1514.666667
1941.679287	1532.000000
1942.601014	1544.666667
1943.522411	1544.000000
1944.443477	1527.666667
1945.364214	1540.333333
1946.284621	1528.000000
1947.204698	1541.000000
1948.124445	1533.333333
1949.043863	1533.666667
1949.962952	1512.333333
1950.881712	1470.333333
1951.800143	1521.333333
1952.718245	1509.666667
1953.636019	1496.333333
1954.553464	1500.333333
1955.470581	1475.333333
1956.387369	1502.333333
1957.303830	1492.000000
1958.219963	1462.666667
1959.135768	1486.000000
1960.051246	1485.000000
1960.966396	1448.000000
1961.881219	1473.000000
1962.795715	1479.666667
1963.709883	1466.333333
1964.623726	1495.000000
1965.537241	1512.333333
1966.450430	1521.666667
1967.363293	1526.333333
1968.275829	1499.666667
1969.188040	1516.000000
1970.099924	1527.666667
1971.011483	1518.333333
1971.922716	1496.666667
1972.833624	1522.000000
1973.744206	1540.333333
1974.654464	1533.333333
1975.564396	1523.000000
1976.474004	1542.000000
1977.383286	1483.000000
1978.292245	1513.000000
1979.200878	1494.333333
1980.109188	1472.000000
1981.017174	1483.333333
1981.924835	1450.666667
1982.832173	1464.000000
1983.739187	1456.333333
1984.645878	1450.333333
1985.552245	1467.333333
1986.458289	1458.000000
1987.364010	1423.333333
1988.269408	1437.666667
1989.174484	1414.666667
1990.079236	1442.333333
1990.983667	1425.000000
1991.887775	1418.000000
1992.791561	1417.000000
1993.695024	1430.333333
1994.598166	1431.000000
1995.500986	1406.333333
1996.403485	1384.333333
1997.305662	1360.666667
1998.207518	1354.666667
1999.109053	1332.333333
