200.151048	13272.000000
201.758777	13278.000000
203.365815	13047.000000
204.972162	12997.000000
206.577820	13071.333333
208.182787	12918.000000
209.787065	12925.666667
211.390653	12883.666667
212.993553	12721.666667
214.595765	12682.333333
216.197289	12631.333333
217.798125	12652.666667
219.398274	12666.666667
220.997737	12595.333333
222.596513	12524.666667
224.194603	12480.000000
225.792008	12491.333333
227.388728	12550.666667
228.984763	12300.666667
230.580114	12314.666667
232.174781	12324.000000
233.768765	12312.666667
235.362065	12147.000000
236.954683	12136.666667
238.546619	12072.000000
240.137872	12058.000000
241.728445	12051.333333
243.318336	12027.333333
244.907546	11957.000000
246.496076	11948.333333
248.083926	11933.666667
249.671097	11746.333333
251.257589	11810.000000
252.843402	11713.000000
254.428536	11733.666667
256.012993	11454.333333
257.596772	11560.000000
259.179874	11577.000000
260.762300	11530.333333
262.344049	11486.666667
263.925122	11431.666667
265.505519	11431.333333
267.085241	11378.333333
268.664289	11342.666667
270.242662	11351.333333
271.820361	11344.666667
273.397387	11238.333333
274.973740	11243.666667
276.549419	11160.333333
278.124426	11324.333333
279.698762	11160.000000
281.272425	11214.000000
282.845417	11165.666667
284.417739	11147.000000
285.989390	11135.333333
287.560371	11236.333333
289.130682	11167.666667
290.700324	11134.000000
292.269297	11055.666667
293.837602	10988.333333
295.405238	11089.333333
296.972207	10958.333333
298.538508	10977.666667
300.104142	10979.000000
301.669110	10868.333333
303.233411	10906.333333
304.797047	10788.666667
306.360017	10734.333333
307.922322	10620.333333
309.483963	10674.333333
311.044939	10620.666667
312.605252	10547.000000
314.164900	10460.000000
315.723886	10354.666667
317.282209	10480.666667
318.839870	10400.333333
320.396868	10283.666667
321.953205	10255.333333
323.508881	10253.666667
325.063896	10203.000000
326.618251	10151.666667
328.171945	10165.000000
329.724980	10154.000000
331.277356	10112.000000
332.829072	10034.666667
334.380131	10024.000000
335.930530	10079.333333
337.480273	9997.333333
339.029357	9973.666667
340.577785	9909.666667
342.125556	9934.000000
343.672671	9958.000000
345.219130	9854.000000
346.764933	9852.333333
348.310081	9881.000000
349.854575	9847.333333
351.398414	9773.333333
352.941599	9846.000000
354.484130	9716.666667
356.026008	9753.333333
357.567234	9736.000000
359.107807	9643.000000
360.647727	9735.666667
362.186996	9635.000000
363.725614	9589.666667
365.263580	9606.666667
366.800896	9519.666667
368.337562	9552.000000
369.873578	9526.000000
371.408944	9542.333333
372.943661	9472.666667
374.477730	9499.000000
376.011150	9573.666667
377.543922	9585.000000
379.076046	9556.000000
380.607523	9607.333333
382.138353	9621.000000
383.668537	9639.666667
385.198075	9609.666667
386.726966	9662.333333
388.255213	9654.333333
389.782814	9643.666667
391.309770	9679.333333
392.836083	9676.000000
394.361751	9752.333333
395.886776	9775.333333
397.411157	9701.333333
398.934896	9773.666667
400.457992	9838.000000
401.980446	9813.000000
403.502258	9849.000000
405.023429	9839.000000
406.543959	9896.000000
408.063849	9971.000000
409.583098	10022.000000
411.101707	10012.333333
412.619677	10164.666667
414.137007	10261.333333
415.653699	10404.333333
417.169752	10597.666667
418.685167	10630.000000
420.199945	10805.000000
421.714085	11035.666667
423.227588	11174.666667
424.740454	11321.666667
426.252684	11374.333333
427.764279	11414.333333
429.275238	11429.000000
430.785561	11318.000000
432.295250	11328.333333
433.804304	11114.666667
435.312725	11058.666667
436.820511	10868.333333
438.327664	10787.333333
439.834185	10665.666667
441.340072	10565.000000
442.845327	10519.666667
444.349951	10501.000000
445.853942	10430.000000
447.357303	10317.000000
448.860033	10270.333333
450.362132	10188.000000
451.863601	10189.666667
453.364440	9997.333333
454.864650	9874.666667
456.364231	9768.333333
457.863183	9655.666667
459.361507	9564.000000
460.859203	9441.666667
462.356271	9320.666667
463.852712	9241.000000
465.348526	9163.000000
466.843714	9103.000000
468.338275	9007.333333
469.832210	8966.333333
471.325520	8992.666667
472.818205	8873.000000
474.310265	8811.666667
475.801700	8741.333333
477.292512	8681.000000
478.782700	8657.333333
480.272264	8608.666667
481.761205	8527.000000
483.249524	8556.666667
484.737221	8531.666667
486.224295	8400.333333
487.710748	8330.333333
489.196579	8321.333333
490.681790	8274.666667
492.166380	8308.666667
493.650350	8240.666667
495.133700	8366.666667
496.616431	8242.333333
498.098542	8252.333333
499.580035	8240.666667
501.060909	8308.000000
502.541165	8289.000000
504.020804	8230.333333
505.499825	8285.666667
506.978228	8241.000000
508.456016	8145.333333
509.933186	8168.000000
511.409741	8051.666667
512.885680	8150.000000
514.361004	8097.333333
515.835713	8118.333333
517.309807	8110.666667
518.783287	8226.000000
520.256153	8199.333333
521.728406	8288.666667
523.200045	8217.000000
524.671071	8274.000000
526.141485	8290.666667
527.611287	8239.000000
529.080476	8283.000000
530.549054	8252.666667
532.017021	8234.000000
533.484378	8291.333333
534.951123	8301.333333
536.417259	8287.333333
537.882785	8174.333333
539.347701	8195.000000
540.812008	8255.333333
542.275707	8172.000000
543.738797	8169.333333
545.201279	8269.333333
546.663153	8256.000000
548.124420	8247.333333
549.585080	8381.333333
551.045133	8314.666667
552.504579	8412.666667
553.963420	8485.000000
555.421655	8444.333333
556.879285	8415.333333
558.336309	8522.333333
559.792729	8526.666667
561.248545	8471.333333
562.703756	8542.333333
564.158364	8634.666667
565.612369	8640.000000
567.065770	8742.333333
568.518569	8810.000000
569.970766	8858.666667
571.422361	8933.000000
572.873354	8953.000000
574.323745	9043.666667
575.773536	9043.333333
577.222726	9198.333333
578.671316	9275.000000
580.119306	9268.000000
581.566696	9304.333333
583.013487	9297.666667
584.459679	9181.666667
585.905273	9102.666667
587.350268	9061.000000
588.794665	9095.000000
590.238465	9070.000000
591.681667	9055.333333
593.124272	8967.333333
594.566281	8929.000000
596.007694	8931.333333
597.448510	8815.333333
598.888731	8655.333333
600.328357	8552.000000
601.767388	8514.333333
603.205824	8488.000000
604.643666	8469.666667
606.080914	8386.333333
607.517568	8404.666667
608.953629	8344.000000
610.389097	8351.333333
611.823972	8437.000000
613.258255	8400.333333
614.691946	8346.000000
616.125046	8200.333333
617.557554	8119.000000
618.989471	8068.666667
620.420798	7989.666667
621.851534	7883.000000
623.281680	7874.333333
624.711237	7671.000000
626.140204	7645.333333
627.568582	7572.000000
628.996372	7461.333333
630.423573	7466.000000
631.850186	7391.333333
633.276211	7443.666667
634.701650	7501.333333
636.126501	7384.666667
637.550765	7396.666667
638.974443	7375.000000
640.397535	7399.666667
641.820041	7459.666667
643.241961	7410.000000
644.663297	7436.333333
646.084048	7383.000000
647.504214	7385.666667
648.923796	7310.333333
650.342795	7237.333333
651.761210	7220.000000
653.179041	7210.333333
654.596290	7198.333333
656.012957	7205.666667
657.429041	7164.333333
658.844543	7140.666667
660.259464	7193.000000
661.673804	7162.333333
663.087563	7115.000000
664.500741	7268.000000
665.913339	7252.000000
667.325357	7265.666667
668.736795	7289.666667
670.147654	7240.000000
671.557934	7284.333333
672.967636	7202.000000
674.376759	7148.333333
675.785304	7216.666667
677.193271	7162.000000
678.600661	7182.666667
680.007474	7079.333333
681.413711	7185.333333
682.819370	7099.333333
684.224454	7133.666667
685.628962	7127.000000
687.032895	7191.333333
688.436252	7230.333333
689.839034	7152.666667
691.241242	7204.666667
692.642876	7155.666667
694.043936	7151.333333
695.444422	7110.000000
696.844336	7072.000000
698.243676	7086.333333
699.642443	7045.333333
701.040639	7087.666667
702.438262	7096.666667
703.835313	7200.000000
705.231794	7084.666667
706.627703	7137.000000
708.023041	7065.000000
709.417810	7134.000000
710.812008	7136.000000
712.205636	7076.666667
713.598694	7044.666667
714.991184	7058.000000
716.383105	6953.666667
717.774457	7069.666667
719.165241	7044.333333
720.555457	7015.000000
721.945105	6957.666667
723.334187	7012.333333
724.722701	7001.333333
726.110648	6984.333333
727.498030	7066.333333
728.884845	7045.000000
730.271094	7018.000000
731.656778	6846.666667
733.041897	6954.333333
734.426451	6971.666667
735.810441	6901.000000
737.193866	6893.333333
738.576728	6903.333333
739.959026	6869.333333
741.340760	6909.666667
742.721932	6975.333333
744.102541	6870.333333
745.482588	6914.666667
746.862073	6971.333333
748.240996	6872.000000
749.619358	6888.000000
750.997158	6928.333333
752.374398	6952.333333
753.751077	7023.333333
755.127197	6947.000000
756.502756	7032.333333
757.877756	6875.000000
759.252196	6984.000000
760.626078	6890.666667
761.999400	6884.666667
763.372165	6852.000000
764.744371	6918.666667
766.116020	6927.000000
767.487111	6910.333333
768.857646	6923.666667
770.227623	6823.333333
771.597044	6800.333333
772.965908	6841.000000
774.334217	6827.333333
775.701970	6765.000000
777.069168	6798.666667
778.435811	6770.000000
779.801899	6801.333333
781.167433	6824.666667
782.532412	6721.666667
783.896838	6732.333333
785.260710	6752.000000
786.624029	6688.333333
787.986796	6720.000000
789.349009	6659.666667
790.710671	6663.666667
792.071780	6736.000000
793.432338	6596.666667
794.792344	6653.333333
796.151799	6636.000000
797.510704	6675.666667
798.869058	6593.333333
800.226862	6617.333333
801.584116	6592.333333
802.940820	6620.333333
804.296975	6647.333333
805.652581	6650.333333
807.007638	6701.333333
808.362147	6714.000000
809.716108	6693.333333
811.069521	6658.666667
812.422387	6694.333333
813.774705	6673.000000
815.126476	6751.333333
816.477701	6751.000000
817.828380	6677.666667
819.178512	6704.000000
820.528099	6665.333333
821.877140	6652.000000
823.225637	6649.000000
824.573588	6586.333333
825.920995	6619.000000
827.267857	6576.333333
828.614176	6599.333333
829.959951	6553.333333
831.305183	6553.000000
832.649871	6597.333333
833.994017	6608.666667
835.337620	6540.666667
836.680681	6691.666667
838.023201	6686.333333
839.365178	6714.333333
840.706614	6597.000000
842.047510	6651.666667
843.387864	6679.333333
844.727678	6728.000000
846.066952	6755.666667
847.405687	6817.333333
848.743881	6878.666667
850.081537	6923.000000
851.418653	6964.333333
852.755231	6961.333333
854.091270	7005.333333
855.426771	7011.000000
856.761735	6999.333333
858.096160	6862.000000
859.430049	6955.666667
860.763401	6911.333333
862.096216	6895.000000
863.428495	6807.000000
864.760237	6834.333333
866.091444	6825.666667
867.422115	6796.000000
868.752252	6808.666667
870.081853	6760.666667
871.410919	6796.666667
872.739452	6775.666667
874.067450	6812.666667
875.394914	6808.333333
876.721845	6766.000000
878.048243	6706.333333
879.374108	6752.666667
880.699440	6688.666667
882.024240	6674.333333
883.348508	6691.333333
884.672244	6601.666667
885.995449	6639.000000
887.318122	6600.666667
888.640265	6619.666667
889.961877	6592.000000
891.282959	6526.000000
892.603510	6561.000000
893.923532	6512.333333
895.243024	6524.666667
896.561987	6535.333333
897.880422	6511.666667
899.198327	6472.333333
900.515705	6465.000000
901.832554	6451.666667
903.148875	6485.666667
904.464669	6527.000000
905.779936	6479.666667
907.094676	6467.000000
908.408889	6555.000000
909.722576	6509.666667
911.035737	6605.333333
912.348371	6635.666667
913.660481	6745.000000
914.972065	6748.000000
916.283124	6880.666667
917.593659	6925.666667
918.903669	6949.333333
920.213155	6962.666667
921.522117	6948.666667
922.830556	6985.333333
924.138471	7083.000000
925.445864	7037.333333
926.752733	7048.666667
928.059081	6992.333333
929.364906	7044.666667
930.670209	7149.000000
931.974991	7208.000000
933.279251	7242.666667
934.582990	7374.666667
935.886209	7539.666667
937.188907	7645.000000
938.491085	7777.666667
939.792743	7977.000000
941.093881	8226.333333
942.394500	8477.666667
943.694600	8785.666667
944.994181	9207.666667
946.293243	9636.666667
947.591787	10103.333333
948.889813	10746.666667
950.187322	11535.333333
951.484313	12239.333333
952.780787	13202.666667
954.076744	14166.000000
955.372184	14915.666667
956.667108	15530.333333
957.961516	16041.000000
959.255409	16142.333333
960.548785	15935.666667
961.841647	15361.000000
963.133993	14365.333333
964.425825	13450.000000
965.717142	12310.000000
967.007946	11312.666667
968.298235	10274.666667
969.588011	9495.666667
970.877273	8737.666667
972.166023	8180.333333
973.454259	7733.000000
974.741984	7344.666667
976.029196	7070.000000
977.315895	6840.000000
978.602084	6609.000000
979.887761	6540.333333
981.172926	6471.666667
982.457581	6352.000000
983.741725	6345.333333
985.025359	6281.000000
986.308483	6210.000000
987.591097	6245.333333
988.873202	6154.000000
990.154797	6068.000000
991.435883	6043.000000
992.716461	6139.666667
993.996530	6046.000000
995.276091	6082.666667
996.555144	6149.000000
997.833690	6196.666667
999.111728	6284.000000
1000.389259	6287.333333
1001.666283	6368.000000
1002.942800	6322.000000
1004.218812	6423.333333
1005.494317	6354.000000
1006.769317	6258.000000
1008.043811	6251.000000
1009.317799	6267.666667
1010.591283	6224.333333
1011.864263	6181.333333
1013.136737	6218.333333
1014.408708	6252.000000
1015.680175	6282.000000
1016.951138	6233.000000
1018.221598	6221.666667
1019.491554	6287.000000
1020.761008	6343.666667
1022.029959	6293.666667
1023.298408	6295.333333
1024.566355	6306.000000
1025.833800	6405.000000
1027.100744	6393.333333
1028.367187	6438.333333
1029.633128	6380.000000
1030.898569	6413.666667
1032.163509	6359.666667
1033.427949	6329.666667
1034.691890	6402.000000
1035.955330	6423.666667
1037.218271	6435.000000
1038.480714	6476.666667
1039.742657	6582.000000
1041.004101	6530.666667
1042.265048	6547.333333
1043.525496	6612.333333
1044.785446	6530.666667
1046.044899	6425.000000
1047.303855	6470.666667
1048.562313	6493.333333
1049.820275	6517.666667
1051.077740	6468.333333
1052.334709	6407.000000
1053.591182	6417.000000
1054.847160	6394.333333
1056.102641	6427.333333
1057.357628	6454.333333
1058.612120	6550.000000
1059.866117	6545.000000
1061.119619	6632.000000
1062.372628	6705.333333
1063.625142	6810.666667
1064.877163	6849.666667
1066.128691	6907.333333
1067.379725	7003.666667
1068.630267	6988.000000
1069.880316	6976.666667
1071.129872	6990.333333
1072.378937	6933.000000
1073.627509	6906.000000
1074.875590	6710.333333
1076.123180	6604.333333
1077.370279	6554.000000
1078.616887	6452.333333
1079.863004	6310.000000
1081.108631	6224.000000
1082.353768	6100.000000
1083.598415	6085.666667
1084.842573	5986.333333
1086.086241	5893.666667
1087.329421	5843.000000
1088.572111	5788.666667
1089.814314	5724.000000
1091.056028	5667.333333
1092.297253	5591.000000
1093.537992	5650.333333
1094.778242	5621.000000
1096.018006	5628.333333
1097.257282	5542.333333
1098.496072	5538.333333
1099.734376	5461.666667
1100.972193	5517.666667
1102.209524	5511.000000
1103.446370	5526.666667
1104.682730	5455.666667
1105.918604	5408.333333
1107.153994	5439.000000
1108.388900	5299.000000
1109.623320	5283.000000
1110.857257	5249.333333
1112.090710	5263.000000
1113.323679	5188.666667
1114.556164	5170.000000
1115.788167	5161.666667
1117.019686	5185.000000
1118.250723	5124.333333
1119.481278	5129.000000
1120.711350	5104.666667
1121.940940	5138.666667
1123.170049	5115.666667
1124.398676	5093.666667
1125.626823	5195.000000
1126.854488	5127.333333
1128.081672	5081.666667
1129.308376	5069.333333
1130.534600	5067.666667
1131.760345	5039.666667
1132.985609	4999.666667
1134.210394	4950.333333
1135.434700	5085.333333
1136.658527	5016.666667
1137.881875	4997.000000
1139.104745	4987.333333
1140.327136	4939.666667
1141.549050	4915.333333
1142.770486	4931.333333
1143.991445	4967.333333
1145.211926	4908.666667
1146.431931	4922.333333
1147.651459	4970.666667
1148.870510	4917.666667
1150.089086	4906.333333
1151.307185	4943.000000
1152.524808	4906.666667
1153.741957	4951.666667
1154.958630	4948.000000
1156.174828	4963.000000
1157.390551	4997.666667
1158.605800	4964.000000
1159.820574	4982.333333
1161.034875	4929.333333
1162.248702	4920.666667
1163.462055	4979.666667
1164.674936	4950.666667
1165.887343	4946.000000
1167.099277	4919.333333
1168.310739	4927.000000
1169.521729	4924.000000
1170.732247	4980.666667
1171.942293	4900.333333
1173.151867	4971.000000
1174.360970	4930.666667
1175.569602	4883.666667
1176.777764	4861.666667
1177.985454	4871.666667
1179.192675	4806.666667
1180.399425	4844.666667
1181.605706	4870.000000
1182.811517	4905.666667
1184.016859	4843.666667
1185.221731	4831.000000
1186.426135	4780.000000
1187.630070	4802.666667
1188.833537	4805.000000
1190.036535	4741.333333
1191.239066	4735.666667
1192.441129	4663.000000
1193.642725	4670.333333
1194.843853	4638.000000
1196.044515	4606.333333
1197.244710	4721.000000
1198.444438	4731.333333
1199.643701	4726.333333
1200.842497	4726.666667
1202.040827	4769.666667
1203.238693	4799.333333
1204.436092	4794.333333
1205.633027	4740.666667
1206.829497	4735.333333
1208.025503	4710.000000
1209.221044	4751.333333
1210.416122	4701.000000
1211.610735	4658.333333
1212.804885	4626.666667
1213.998572	4680.666667
1215.191795	4663.000000
1216.384556	4608.333333
1217.576854	4605.333333
1218.768689	4605.666667
1219.960063	4629.000000
1221.150974	4637.333333
1222.341424	4655.000000
1223.531413	4675.000000
1224.720940	4669.333333
1225.910006	4722.333333
1227.098612	4665.666667
1228.286757	4713.000000
1229.474442	4772.000000
1230.661667	4826.000000
1231.848432	4872.000000
1233.034738	4889.333333
1234.220584	4920.000000
1235.405971	4934.000000
1236.590900	5004.333333
1237.775369	5015.333333
1238.959381	4999.000000
1240.142934	5027.666667
1241.326029	5113.666667
1242.508667	5095.000000
1243.690848	5073.666667
1244.872571	5135.666667
1246.053837	5021.666667
1247.234646	5004.333333
1248.414999	5050.000000
1249.594896	5047.666667
1250.774337	4977.000000
1251.953322	4967.333333
1253.131851	4980.333333
1254.309925	4957.333333
1255.487544	4982.666667
1256.664708	4962.333333
1257.841417	4982.333333
1259.017673	4963.000000
1260.193473	4928.666667
1261.368820	4961.000000
1262.543714	4970.666667
1263.718154	4907.666667
1264.892140	4990.666667
1266.065674	4958.666667
1267.238755	4984.333333
1268.411383	4979.000000
1269.583559	4934.666667
1270.755283	4931.333333
1271.926555	4981.666667
1273.097375	4963.333333
1274.267744	4937.333333
1275.437662	4907.666667
1276.607129	4907.000000
1277.776145	4905.333333
1278.944711	4915.666667
1280.112827	4831.333333
1281.280492	4839.000000
1282.447708	4827.333333
1283.614474	4780.000000
1284.780791	4802.333333
1285.946659	4789.333333
1287.112078	4776.333333
1288.277048	4697.000000
1289.441570	4716.000000
1290.605644	4623.000000
1291.769270	4565.666667
1292.932448	4577.000000
1294.095178	4594.000000
1295.257461	4525.000000
1296.419298	4559.333333
1297.580687	4521.000000
1298.741630	4530.000000
1299.902126	4484.666667
1301.062177	4485.333333
1302.221781	4507.666667
1303.380940	4509.333333
1304.539653	4564.333333
1305.697921	4531.666667
1306.855744	4472.000000
1308.013123	4547.666667
1309.170056	4527.333333
1310.326546	4524.000000
1311.482591	4520.000000
1312.638193	4466.666667
1313.793350	4506.333333
1314.948065	4569.666667
1316.102336	4555.666667
1317.256164	4510.666667
1318.409550	4528.666667
1319.562493	4513.666667
1320.714993	4478.000000
1321.867052	4535.000000
1323.018668	4475.000000
1324.169843	4458.666667
1325.320577	4471.333333
1326.470870	4458.333333
1327.620721	4446.333333
1328.770132	4392.666667
1329.919102	4434.666667
1331.067632	4410.666667
1332.215722	4396.333333
1333.363372	4405.666667
1334.510582	4415.000000
1335.657353	4456.333333
1336.803685	4420.333333
1337.949578	4402.333333
1339.095032	4375.333333
1340.240048	4478.666667
1341.384625	4453.333333
1342.528764	4403.666667
1343.672466	4398.333333
1344.815729	4348.666667
1345.958556	4397.000000
1347.100945	4365.666667
1348.242897	4360.666667
1349.384413	4298.333333
1350.525492	4293.000000
1351.666134	4286.666667
1352.806341	4285.333333
1353.946111	4249.000000
1355.085446	4259.000000
1356.224346	4213.666667
1357.362810	4149.000000
1358.500840	4237.666667
1359.638434	4266.333333
1360.775594	4203.333333
1361.912320	4206.333333
1363.048612	4151.333333
1364.184469	4192.000000
1365.319893	4157.666667
1366.454884	4195.000000
1367.589441	4165.000000
1368.723566	4205.000000
1369.857257	4165.000000
1370.990516	4221.333333
1372.123343	4274.333333
1373.255737	4242.333333
1374.387699	4208.333333
1375.519230	4230.333333
1376.650329	4266.333333
1377.780997	4268.666667
1378.911234	4247.666667
1380.041040	4225.333333
1381.170416	4199.666667
1382.299361	4223.333333
1383.427875	4185.333333
1384.555960	4176.000000
1385.683615	4207.000000
1386.810841	4225.333333
1387.937637	4205.333333
1389.064004	4250.333333
1390.189942	4202.000000
1391.315451	4214.333333
1392.440532	4286.666667
1393.565185	4231.666667
1394.689409	4260.666667
1395.813206	4278.666667
1396.936575	4191.000000
1398.059517	4217.000000
1399.182032	4241.333333
1400.304119	4227.666667
1401.425780	4234.333333
1402.547014	4271.000000
1403.667822	4237.666667
1404.788204	4251.000000
1405.908160	4230.333333
1407.027690	4266.333333
1408.146795	4271.333333
1409.265474	4263.666667
1410.383728	4291.666667
1411.501558	4256.333333
1412.618963	4291.000000
1413.735943	4283.333333
1414.852499	4286.000000
1415.968632	4291.000000
1417.084340	4265.000000
1418.199625	4314.666667
1419.314486	4346.666667
1420.428925	4304.666667
1421.542940	4289.000000
1422.656533	4334.666667
1423.769703	4303.333333
1424.882451	4273.333333
1425.994777	4265.000000
1427.106680	4286.333333
1428.218163	4305.000000
1429.329223	4221.333333
1430.439863	4206.000000
1431.550081	4193.666667
1432.659879	4221.333333
1433.769256	4199.333333
1434.878212	4226.333333
1435.986749	4247.666667
1437.094865	4283.000000
1438.202562	4302.000000
1439.309839	4265.666667
1440.416696	4287.666667
1441.523135	4426.333333
1442.629154	4390.000000
1443.734755	4355.333333
1444.839937	4417.666667
1445.944701	4469.333333
1447.049047	4445.000000
1448.152975	4421.333333
1449.256485	4422.333333
1450.359577	4502.000000
1451.462253	4449.333333
1452.564511	4428.000000
1453.666352	4389.666667
1454.767777	4441.666667
1455.868785	4402.666667
1456.969377	4389.666667
1458.069553	4349.333333
1459.169313	4313.666667
1460.268658	4342.333333
1461.367587	4288.333333
1462.466101	4290.000000
1463.564200	4283.666667
1464.661884	4135.666667
1465.759153	4187.000000
1466.856008	4112.000000
1467.952449	4091.666667
1469.048476	4029.666667
1470.144089	3966.000000
1471.239288	3953.000000
1472.334074	3863.666667
1473.428447	3847.666667
1474.522407	3827.333333
1475.615955	3781.333333
1476.709089	3806.000000
1477.801812	3752.333333
1478.894122	3722.333333
1479.986020	3657.666667
1481.077506	3655.333333
1482.168581	3690.666667
1483.259245	3632.666667
1484.349498	3657.666667
1485.439339	3632.666667
1486.528770	3585.000000
1487.617790	3562.333333
1488.706400	3550.666667
1489.794600	3600.666667
1490.882390	3601.333333
1491.969771	3571.666667
1493.056742	3576.000000
1494.143303	3505.666667
1495.229456	3578.333333
1496.315199	3556.666667
1497.400534	3529.333333
1498.485460	3528.666667
1499.569978	3473.000000
1500.654088	3531.333333
1501.737790	3508.666667
1502.821085	3469.333333
1503.903972	3472.333333
1504.986451	3483.000000
1506.068524	3484.000000
1507.150189	3486.000000
1508.231448	3404.666667
1509.312301	3437.333333
1510.392747	3433.000000
1511.472787	3393.000000
1512.552422	3424.000000
1513.631650	3463.666667
1514.710473	3417.000000
1515.788891	3467.666667
1516.866904	3477.000000
1517.944512	3412.333333
1519.021715	3476.333333
1520.098513	3441.666667
1521.174908	3470.333333
1522.250898	3374.333333
1523.326485	3474.666667
1524.401667	3458.666667
1525.476447	3474.000000
1526.550823	3479.333333
1527.624796	3440.333333
1528.698365	3456.000000
1529.771533	3472.333333
1530.844298	3491.000000
1531.916660	3542.333333
1532.988620	3441.666667
1534.060179	3475.000000
1535.131336	3472.000000
1536.202091	3485.666667
1537.272445	3459.666667
1538.342398	3450.666667
1539.411950	3401.000000
1540.481101	3433.000000
1541.549851	3419.333333
1542.618202	3398.333333
1543.686152	3425.333333
1544.753702	3430.000000
1545.820853	3385.666667
1546.887604	3397.333333
1547.953955	3394.000000
1549.019908	3324.333333
1550.085461	3399.666667
1551.150616	3388.333333
1552.215372	3367.666667
1553.279730	3375.000000
1554.343690	3344.000000
1555.407252	3341.333333
1556.470415	3315.666667
1557.533182	3322.333333
1558.595551	3322.000000
1559.657522	3316.333333
1560.719097	3320.000000
1561.780275	3290.333333
1562.841056	3284.333333
1563.901441	3278.333333
1564.961429	3270.000000
1566.021022	3285.333333
1567.080219	3241.000000
1568.139020	3252.333333
1569.197425	3257.666667
1570.255436	3214.000000
1571.313051	3248.666667
1572.370271	3233.666667
1573.427097	3226.333333
1574.483528	3222.666667
1575.539565	3272.333333
1576.595208	3267.666667
1577.650457	3274.666667
1578.705312	3202.666667
1579.759774	3168.333333
1580.813842	3176.333333
1581.867517	3176.000000
1582.920799	3180.000000
1583.973689	3162.666667
1585.026186	3166.666667
1586.078290	3157.666667
1587.130002	3147.000000
1588.181323	3168.333333
1589.232251	3174.666667
1590.282788	3117.666667
1591.332933	3170.000000
1592.382688	3155.000000
1593.432051	3155.333333
1594.481023	3128.333333
1595.529605	3191.000000
1596.577796	3129.333333
1597.625597	3201.000000
1598.673007	3202.666667
1599.720028	3186.000000
1600.766660	3191.333333
1601.812901	3243.000000
1602.858753	3241.666667
1603.904217	3218.000000
1604.949291	3215.000000
1605.993976	3210.666667
1607.038273	3245.666667
1608.082182	3276.333333
1609.125702	3226.666667
1610.168834	3179.000000
1611.211579	3179.000000
1612.253935	3163.333333
1613.295905	3121.333333
1614.337487	3101.666667
1615.378682	3113.666667
1616.419490	3136.333333
1617.459912	3191.666667
1618.499946	3196.333333
1619.539595	3192.666667
1620.578858	3217.000000
1621.617734	3282.333333
1622.656225	3240.333333
1623.694330	3276.333333
1624.732050	3275.666667
1625.769385	3195.666667
1626.806334	3229.333333
1627.842899	3249.333333
1628.879079	3211.000000
1629.914875	3237.666667
1630.950286	3215.333333
1631.985314	3283.333333
1633.019957	3278.333333
1634.054217	3265.000000
1635.088093	3250.000000
1636.121586	3232.000000
1637.154696	3294.666667
1638.187423	3257.000000
1639.219767	3303.333333
1640.251728	3293.666667
1641.283307	3309.000000
1642.314504	3294.666667
1643.345319	3305.333333
1644.375751	3321.000000
1645.405803	3293.333333
1646.435472	3307.000000
1647.464761	3291.333333
1648.493668	3297.666667
1649.522194	3323.666667
1650.550340	3342.000000
1651.578105	3289.000000
1652.605490	3352.000000
1653.632494	3330.333333
1654.659119	3356.000000
1655.685363	3259.333333
1656.711228	3299.333333
1657.736714	3297.000000
1658.761820	3318.666667
1659.786547	3291.666667
1660.810895	3260.666667
1661.834865	3299.333333
1662.858456	3249.000000
1663.881668	3255.000000
1664.904503	3280.000000
1665.926959	3244.666667
1666.949038	3258.333333
1667.970739	3259.666667
1668.992062	3234.000000
1670.013008	3213.333333
1671.033577	3222.333333
1672.053770	3221.333333
1673.073585	3215.000000
1674.093024	3188.000000
1675.112086	3212.333333
1676.130773	3172.333333
1677.149083	3131.666667
1678.167017	3104.333333
1679.184576	3112.333333
1680.201760	3071.333333
1681.218568	3145.666667
1682.235001	3082.000000
1683.251059	3072.333333
1684.266742	3075.666667
1685.282051	3048.666667
1686.296985	3087.000000
1687.311546	3052.000000
1688.325732	2982.000000
1689.339544	3004.000000
1690.352983	2952.666667
1691.366048	2952.333333
1692.378740	2913.666667
1693.391058	2905.000000
1694.403004	2879.000000
1695.414577	2864.666667
1696.425778	2845.333333
1697.436606	2821.333333
1698.447061	2801.666667
1699.457145	2791.666667
1700.466857	2803.000000
1701.476197	2726.666667
1702.485166	2695.666667
1703.493763	2705.333333
1704.501989	2720.333333
1705.509844	2734.666667
1706.517328	2695.333333
1707.524442	2703.333333
1708.531185	2744.000000
1709.537558	2679.000000
1710.543561	2686.333333
1711.549194	2655.333333
1712.554457	2647.000000
1713.559351	2661.000000
1714.563875	2679.333333
1715.568030	2657.333333
1716.571816	2606.666667
1717.575233	2655.666667
1718.578282	2659.000000
1719.580962	2704.333333
1720.583273	2710.666667
1721.585217	2716.666667
1722.586792	2691.000000
1723.588000	2707.666667
1724.588840	2662.000000
1725.589312	2672.666667
1726.589418	2715.666667
1727.589156	2713.333333
1728.588527	2751.333333
1729.587532	2740.000000
1730.586170	2718.000000
1731.584441	2690.666667
1732.582346	2684.333333
1733.579886	2739.000000
1734.577059	2652.000000
1735.573867	2690.000000
1736.570309	2689.000000
1737.566386	2618.666667
1738.562097	2652.000000
1739.557444	2675.333333
1740.552426	2675.333333
1741.547043	2666.000000
1742.541295	2637.666667
1743.535184	2618.333333
1744.528708	2662.666667
1745.521868	2643.666667
1746.514664	2586.333333
1747.507097	2592.000000
1748.499166	2583.000000
1749.490873	2558.333333
1750.482216	2578.333333
1751.473196	2638.666667
1752.463813	2619.333333
1753.454068	2583.333333
1754.443960	2565.000000
1755.433490	2533.000000
1756.422658	2568.666667
1757.411464	2539.666667
1758.399908	2524.000000
1759.387991	2553.666667
1760.375713	2552.000000
1761.363073	2585.000000
1762.350072	2610.666667
1763.336711	2547.333333
1764.322988	2534.666667
1765.308905	2560.000000
1766.294462	2524.333333
1767.279659	2521.666667
1768.264496	2504.000000
1769.248972	2497.333333
1770.233089	2464.666667
1771.216847	2457.333333
1772.200245	2459.666667
1773.183284	2478.666667
1774.165965	2475.333333
1775.148286	2441.000000
1776.130249	2464.000000
1777.111853	2471.333333
1778.093099	2438.666667
1779.073987	2423.333333
1780.054517	2413.000000
1781.034689	2379.333333
1782.014503	2367.666667
1782.993960	2327.333333
1783.973060	2318.000000
1784.951802	2308.000000
1785.930188	2272.333333
1786.908217	2282.666667
1787.885889	2277.333333
1788.863205	2296.000000
1789.840164	2293.333333
1790.816768	2264.666667
1791.793015	2247.666667
1792.768907	2278.333333
1793.744443	2288.000000
1794.719624	2282.000000
1795.694449	2279.000000
1796.668919	2319.666667
1797.643035	2286.333333
1798.616795	2314.666667
1799.590201	2291.333333
1800.563253	2271.666667
1801.535950	2302.333333
1802.508294	2283.666667
1803.480283	2299.000000
1804.451919	2331.000000
1805.423201	2390.333333
1806.394129	2290.333333
1807.364705	2300.000000
1808.334927	2349.000000
1809.304796	2373.666667
1810.274313	2258.666667
1811.243477	2306.000000
1812.212288	2297.666667
1813.180747	2264.666667
1814.148855	2285.666667
1815.116610	2279.000000
1816.084013	2279.333333
1817.051065	2346.000000
1818.017766	2342.000000
1818.984115	2356.666667
1819.950113	2341.000000
1820.915760	2307.666667
1821.881057	2338.000000
1822.846003	2321.000000
1823.810598	2335.666667
1824.774843	2292.666667
1825.738738	2329.333333
1826.702283	2317.333333
1827.665479	2341.333333
1828.628324	2326.333333
1829.590821	2337.000000
1830.552968	2314.666667
1831.514765	2306.333333
1832.476214	2314.333333
1833.437314	2290.666667
1834.398066	2304.333333
1835.358469	2271.333333
1836.318524	2262.333333
1837.278230	2255.666667
1838.237589	2236.333333
1839.196600	2248.666667
1840.155263	2240.666667
1841.113578	2294.000000
1842.071547	2262.000000
1843.029168	2295.000000
1843.986442	2261.000000
1844.943369	2269.333333
1845.899950	2306.666667
1846.856184	2254.333333
1847.812072	2290.333333
1848.767614	2237.000000
1849.722809	2210.333333
1850.677659	2248.333333
1851.632163	2244.333333
1852.586322	2248.333333
1853.540135	2229.666667
1854.493603	2245.666667
1855.446726	2231.333333
1856.399504	2176.333333
1857.351937	2215.333333
1858.304026	2184.000000
1859.255770	2210.666667
1860.207170	2191.000000
1861.158227	2137.666667
1862.108939	2148.000000
1863.059307	2139.666667
1864.009332	2119.333333
1864.959013	2150.000000
1865.908351	2127.333333
1866.857346	2146.000000
1867.805998	2108.333333
1868.754307	2105.000000
1869.702274	2067.000000
1870.649898	2093.000000
1871.597180	2105.666667
1872.544119	2141.333333
1873.490717	2100.000000
1874.436973	2120.333333
1875.382887	2081.000000
1876.328459	2095.000000
1877.273691	2087.000000
1878.218581	2068.666667
1879.163130	2071.000000
1880.107338	2083.000000
1881.051205	2061.333333
1881.994732	2071.000000
1882.937919	2072.000000
1883.880765	2087.000000
1884.823271	2093.000000
1885.765437	2051.000000
1886.707264	2094.666667
1887.648750	2090.666667
1888.589898	2096.666667
1889.530706	2096.333333
1890.471175	2141.333333
1891.411305	2129.333333
1892.351096	2121.666667
1893.290548	2139.666667
1894.229662	2129.333333
1895.168438	2115.000000
1896.106876	2101.333333
1897.044975	2137.000000
1897.982737	2151.000000
1898.920160	2110.666667
1899.857247	2160.000000
1900.793996	2144.666667
1901.730407	2112.000000
1902.666482	2117.333333
1903.602219	2091.000000
1904.537620	2126.333333
1905.472685	2141.000000
1906.407412	2094.666667
1907.341804	2069.333333
1908.275859	2074.666667
1909.209579	2050.333333
1910.142962	2054.333333
1911.076010	2081.666667
1912.008722	2032.666667
1912.941099	2012.666667
1913.873141	2010.000000
1914.804848	1996.333333
1915.736219	1967.000000
1916.667256	2016.333333
1917.597959	1989.666667
1918.528327	1999.333333
1919.458360	2013.666667
1920.388060	1976.000000
1921.317426	1971.000000
1922.246457	1923.333333
1923.175156	1972.000000
1924.103520	1944.333333
1925.031552	1966.666667
1925.959250	1969.333333
1926.886615	1937.000000
1927.813647	1930.666667
1928.740346	1973.666667
1929.666713	1964.000000
1930.592748	1938.000000
1931.518450	1977.333333
1932.443820	1945.333333
1933.368858	1935.333333
1934.293564	1977.000000
1935.217939	1952.333333
1936.141982	1949.333333
1937.065694	1946.000000
1937.989074	1897.666667
1938.912124	1912.333333
1939.834842	1916.666667
1940.757230	1895.333333
1941.679287	1896.000000
1942.601014	1921.000000
1943.522411	1910.000000
1944.443477	1930.000000
1945.364214	1887.000000
1946.284621	1914.666667
1947.204698	1888.000000
1948.124445	1883.666667
1949.043863	1884.333333
1949.962952	1870.000000
1950.881712	1890.000000
1951.800143	1863.666667
1952.718245	1858.666667
1953.636019	1886.666667
1954.553464	1858.333333
1955.470581	1805.333333
1956.387369	1859.000000
1957.303830	1838.333333
1958.219963	1831.000000
1959.135768	1831.333333
1960.051246	1861.666667
1960.966396	1826.666667
1961.881219	1826.333333
1962.795715	1817.666667
1963.709883	1859.666667
1964.623726	1828.333333
1965.537241	1854.666667
1966.450430	1848.000000
1967.363293	1859.666667
1968.275829	1865.666667
1969.188040	1856.333333
1970.099924	1848.000000
1971.011483	1873.666667
1971.922716	1856.666667
1972.833624	1892.666667
1973.744206	1881.000000
1974.654464	1855.666667
1975.564396	1875.000000
1976.474004	1869.666667
1977.383286	1850.000000
1978.292245	1814.333333
1979.200878	1865.666667
1980.109188	1811.000000
1981.017174	1810.666667
1981.924835	1844.000000
1982.832173	1816.000000
1983.739187	1792.333333
1984.645878	1835.666667
1985.552245	1802.333333
1986.458289	1758.333333
1987.364010	1768.000000
1988.269408	1754.000000
1989.174484	1747.666667
1990.079236	1746.666667
1990.983667	1737.333333
1991.887775	1778.000000
1992.791561	1732.666667
1993.695024	1738.333333
1994.598166	1728.000000
1995.500986	1751.666667
1996.403485	1683.333333
1997.305662	1708.333333
1998.207518	1688.000000
1999.109053	1684.000000
