200.151048	14401.333333
201.758777	14326.333333
203.365815	14314.666667
204.972162	14209.333333
206.577820	14146.666667
208.182787	14116.333333
209.787065	14052.333333
211.390653	13973.333333
212.993553	13869.666667
214.595765	13806.333333
216.197289	13773.000000
217.798125	13707.333333
219.398274	13769.000000
220.997737	13714.666667
222.596513	13617.000000
224.194603	13554.333333
225.792008	13524.333333
227.388728	13524.333333
228.984763	13468.333333
230.580114	13380.333333
232.174781	13278.666667
233.768765	13340.000000
235.362065	13171.666667
236.954683	13217.333333
238.546619	13077.000000
240.137872	13190.333333
241.728445	13091.333333
243.318336	12986.666667
244.907546	13017.333333
246.496076	12933.000000
248.083926	12883.666667
249.671097	12862.666667
251.257589	12889.666667
252.843402	12767.000000
254.428536	12717.333333
256.012993	12577.666667
257.596772	12582.333333
259.179874	12475.666667
260.762300	12480.333333
262.344049	12352.000000
263.925122	12421.000000
265.505519	12397.333333
267.085241	12319.666667
268.664289	12314.666667
270.242662	12259.000000
271.820361	12189.333333
273.397387	12164.666667
274.973740	12151.333333
276.549419	12141.666667
278.124426	12031.000000
279.698762	12182.666667
281.272425	12014.333333
282.845417	12164.333333
284.417739	12095.666667
285.989390	11987.000000
287.560371	12062.666667
289.130682	12050.000000
290.700324	12078.333333
292.269297	12002.333333
293.837602	11938.000000
295.405238	11964.333333
296.972207	11947.333333
298.538508	11914.000000
300.104142	11853.666667
301.669110	11872.000000
303.233411	11811.333333
304.797047	11724.000000
306.360017	11643.333333
307.922322	11501.333333
309.483963	11425.666667
311.044939	11505.000000
312.605252	11424.333333
314.164900	11340.666667
315.723886	11369.666667
317.282209	11200.333333
318.839870	11269.666667
320.396868	11204.333333
321.953205	11179.000000
323.508881	11028.666667
325.063896	11023.666667
326.618251	11003.333333
328.171945	10944.666667
329.724980	11008.666667
331.277356	10923.000000
332.829072	10855.333333
334.380131	10913.333333
335.930530	10912.333333
337.480273	10790.666667
339.029357	10862.333333
340.577785	10759.000000
342.125556	10823.666667
343.672671	10717.666667
345.219130	10686.333333
346.764933	10650.000000
348.310081	10658.333333
349.854575	10613.333333
351.398414	10547.666667
352.941599	10627.666667
354.484130	10499.000000
356.026008	10493.000000
357.567234	10416.000000
359.107807	10411.000000
360.647727	10298.000000
362.186996	10314.000000
363.725614	10361.666667
365.263580	10249.333333
366.800896	10305.000000
368.337562	10270.666667
369.873578	10277.000000
371.408944	10351.666667
372.943661	10311.666667
374.477730	10372.666667
376.011150	10358.000000
377.543922	10287.666667
379.076046	10373.666667
380.607523	10385.333333
382.138353	10316.333333
383.668537	10347.000000
385.198075	10334.333333
386.726966	10443.000000
388.255213	10436.000000
389.782814	10524.333333
391.309770	10513.333333
392.836083	10530.666667
394.361751	10455.666667
395.886776	10485.333333
397.411157	10544.666667
398.934896	10543.666667
400.457992	10613.666667
401.980446	10671.000000
403.502258	10621.666667
405.023429	10710.000000
406.543959	10759.333333
408.063849	10691.333333
409.583098	10721.666667
411.101707	10882.666667
412.619677	11011.333333
414.137007	11055.666667
415.653699	11221.333333
417.169752	11214.000000
418.685167	11393.333333
420.199945	11677.666667
421.714085	11716.333333
423.227588	11997.333333
424.740454	12089.666667
426.252684	12187.666667
427.764279	12221.666667
429.275238	12270.000000
430.785561	12131.333333
432.295250	12061.333333
433.804304	11953.333333
435.312725	11795.000000
436.820511	11637.333333
438.327664	11534.333333
439.834185	11409.666667
441.340072	11275.666667
442.845327	11221.666667
444.349951	11154.000000
445.853942	11066.333333
447.357303	11029.333333
448.860033	11022.000000
450.362132	11007.000000
451.863601	10815.333333
453.364440	10696.000000
454.864650	10673.666667
456.364231	10446.666667
457.863183	10308.333333
459.361507	10235.333333
460.859203	10103.666667
462.356271	9997.000000
463.852712	9880.333333
465.348526	9745.666667
466.843714	9723.333333
468.338275	9619.000000
469.832210	9557.333333
471.325520	9456.666667
472.818205	9516.666667
474.310265	9460.333333
475.801700	9288.333333
477.292512	9286.333333
478.782700	9291.333333
480.272264	9219.000000
481.761205	9261.000000
483.249524	9188.333333
484.737221	9094.666667
486.224295	9040.000000
487.710748	8984.666667
489.196579	8938.666667
490.681790	8904.333333
492.166380	8882.333333
493.650350	8901.333333
495.133700	8831.333333
496.616431	8863.333333
498.098542	8823.333333
499.580035	8857.666667
501.060909	8894.333333
502.541165	8909.000000
504.020804	8911.333333
505.499825	8906.333333
506.978228	8825.666667
508.456016	8745.333333
509.933186	8750.000000
511.409741	8682.000000
512.885680	8668.000000
514.361004	8639.000000
515.835713	8682.666667
517.309807	8756.666667
518.783287	8814.333333
520.256153	8814.333333
521.728406	8837.666667
523.200045	8799.666667
524.671071	8812.666667
526.141485	8882.000000
527.611287	8850.666667
529.080476	8762.333333
530.549054	8846.000000
532.017021	8818.000000
533.484378	8804.000000
534.951123	8838.333333
536.417259	8719.666667
537.882785	8740.000000
539.347701	8829.000000
540.812008	8810.000000
542.275707	8751.666667
543.738797	8802.666667
545.201279	8907.666667
546.663153	8804.666667
548.124420	8954.000000
549.585080	8982.666667
551.045133	9119.000000
552.504579	9031.666667
553.963420	9085.000000
555.421655	9125.333333
556.879285	9090.666667
558.336309	8999.333333
559.792729	9110.666667
561.248545	9089.000000
562.703756	9162.000000
564.158364	9251.000000
565.612369	9298.000000
567.065770	9342.666667
568.518569	9477.333333
569.970766	9476.333333
571.422361	9541.000000
572.873354	9621.000000
574.323745	9709.333333
575.773536	9860.666667
577.222726	9851.666667
578.671316	9926.666667
580.119306	9988.333333
581.566696	9870.666667
583.013487	9883.666667
584.459679	9840.666667
585.905273	9806.000000
587.350268	9719.333333
588.794665	9692.000000
590.238465	9710.000000
591.681667	9630.000000
593.124272	9592.333333
594.566281	9502.333333
596.007694	9348.666667
597.448510	9300.666667
598.888731	9158.666667
600.328357	9187.333333
601.767388	9053.333333
603.205824	9053.333333
604.643666	9018.333333
606.080914	8974.333333
607.517568	8994.000000
608.953629	9027.666667
610.389097	8973.666667
611.823972	8908.333333
613.258255	8967.000000
614.691946	8823.666667
616.125046	8794.000000
617.557554	8685.000000
618.989471	8654.333333
620.420798	8467.333333
621.851534	8435.000000
623.281680	8309.000000
624.711237	8259.333333
626.140204	8109.666667
627.568582	8079.666667
628.996372	8059.333333
630.423573	8060.333333
631.850186	7949.000000
633.276211	7923.000000
634.701650	7889.000000
636.126501	7938.333333
637.550765	7881.333333
638.974443	7875.666667
640.397535	8017.000000
641.820041	7908.000000
643.241961	7878.333333
644.663297	7980.666667
646.084048	7818.000000
647.504214	7883.000000
648.923796	7719.000000
650.342795	7742.000000
651.761210	7738.333333
653.179041	7679.666667
654.596290	7615.000000
656.012957	7704.666667
657.429041	7621.666667
658.844543	7620.000000
660.259464	7723.333333
661.673804	7628.000000
663.087563	7619.000000
664.500741	7672.666667
665.913339	7715.666667
667.325357	7733.666667
668.736795	7731.666667
670.147654	7718.666667
671.557934	7612.666667
672.967636	7659.000000
674.376759	7599.666667
675.785304	7621.666667
677.193271	7576.000000
678.600661	7676.000000
680.007474	7589.333333
681.413711	7672.333333
682.819370	7526.000000
684.224454	7652.333333
685.628962	7624.666667
687.032895	7752.333333
688.436252	7650.000000
689.839034	7639.000000
691.241242	7616.333333
692.642876	7601.666667
694.043936	7521.333333
695.444422	7549.666667
696.844336	7481.333333
698.243676	7533.333333
699.642443	7464.000000
701.040639	7450.333333
702.438262	7622.666667
703.835313	7533.666667
705.231794	7599.000000
706.627703	7586.000000
708.023041	7646.333333
709.417810	7518.000000
710.812008	7582.000000
712.205636	7497.666667
713.598694	7474.666667
714.991184	7531.000000
716.383105	7473.666667
717.774457	7440.333333
719.165241	7450.000000
720.555457	7393.333333
721.945105	7471.666667
723.334187	7458.666667
724.722701	7408.000000
726.110648	7398.333333
727.498030	7461.666667
728.884845	7401.333333
730.271094	7515.333333
731.656778	7438.666667
733.041897	7292.333333
734.426451	7379.666667
735.810441	7329.666667
737.193866	7340.000000
738.576728	7419.666667
739.959026	7371.333333
741.340760	7285.000000
742.721932	7375.000000
744.102541	7297.333333
745.482588	7324.666667
746.862073	7365.666667
748.240996	7307.000000
749.619358	7403.000000
750.997158	7329.000000
752.374398	7297.000000
753.751077	7348.666667
755.127197	7450.000000
756.502756	7313.666667
757.877756	7326.666667
759.252196	7389.333333
760.626078	7378.000000
761.999400	7372.000000
763.372165	7364.333333
764.744371	7365.000000
766.116020	7349.666667
767.487111	7262.333333
768.857646	7251.666667
770.227623	7235.000000
771.597044	7284.000000
772.965908	7175.333333
774.334217	7160.666667
775.701970	7195.666667
777.069168	7207.000000
778.435811	7120.666667
779.801899	7209.000000
781.167433	7149.333333
782.532412	7128.000000
783.896838	7093.666667
785.260710	7157.333333
786.624029	7135.666667
787.986796	7097.333333
789.349009	7067.000000
790.710671	7063.666667
792.071780	7141.333333
793.432338	7085.000000
794.792344	7022.000000
796.151799	7074.000000
797.510704	7031.666667
798.869058	6936.000000
800.226862	7028.666667
801.584116	7039.000000
802.940820	7008.333333
804.296975	7103.333333
805.652581	7104.000000
807.007638	7086.000000
808.362147	7085.333333
809.716108	7191.333333
811.069521	7121.666667
812.422387	7131.000000
813.774705	7150.333333
815.126476	7113.000000
816.477701	7126.333333
817.828380	7131.333333
819.178512	7052.000000
820.528099	7044.666667
821.877140	7073.000000
823.225637	7091.333333
824.573588	7061.666667
825.920995	6973.000000
827.267857	7015.333333
828.614176	7015.000000
829.959951	6934.666667
831.305183	7041.333333
832.649871	6978.333333
833.994017	6929.666667
835.337620	7058.333333
836.680681	7059.333333
838.023201	7061.333333
839.365178	7105.000000
840.706614	7094.000000
842.047510	7163.000000
843.387864	7069.333333
844.727678	7194.666667
846.066952	7199.000000
847.405687	7369.333333
848.743881	7334.000000
850.081537	7383.333333
851.418653	7375.000000
852.755231	7407.666667
854.091270	7450.333333
855.426771	7434.333333
856.761735	7476.333333
858.096160	7407.000000
859.430049	7369.666667
860.763401	7293.666667
862.096216	7285.333333
863.428495	7314.333333
864.760237	7220.333333
866.091444	7229.333333
867.422115	7206.666667
868.752252	7219.000000
870.081853	7229.000000
871.410919	7227.000000
872.739452	7200.333333
874.067450	7274.666667
875.394914	7139.666667
876.721845	7136.666667
878.048243	7111.000000
879.374108	7137.000000
880.699440	7173.666667
882.024240	7018.000000
883.348508	7003.666667
884.672244	7042.666667
885.995449	6940.666667
887.318122	7013.000000
888.640265	6972.333333
889.961877	6930.333333
891.282959	6896.666667
892.603510	6818.000000
893.923532	6950.000000
895.243024	6766.666667
896.561987	6825.666667
897.880422	6815.000000
899.198327	6833.333333
900.515705	6804.666667
901.832554	6881.333333
903.148875	6873.666667
904.464669	6827.000000
905.779936	6870.666667
907.094676	6849.333333
908.408889	6915.666667
909.722576	6976.666667
911.035737	7027.333333
912.348371	7109.666667
913.660481	7056.666667
914.972065	7198.000000
916.283124	7251.000000
917.593659	7349.000000
918.903669	7311.000000
920.213155	7396.000000
921.522117	7413.333333
922.830556	7392.333333
924.138471	7401.000000
925.445864	7372.666667
926.752733	7460.666667
928.059081	7377.000000
929.364906	7429.333333
930.670209	7508.000000
931.974991	7623.666667
933.279251	7660.333333
934.582990	7843.000000
935.886209	8050.666667
937.188907	8113.333333
938.491085	8330.000000
939.792743	8520.333333
941.093881	8724.333333
942.394500	9018.666667
943.694600	9353.333333
944.994181	9748.333333
946.293243	10181.000000
947.591787	10777.333333
948.889813	11455.333333
950.187322	12195.666667
951.484313	12991.333333
952.780787	13765.333333
954.076744	14835.000000
955.372184	15537.000000
956.667108	16319.000000
957.961516	16805.000000
959.255409	16911.666667
960.548785	16530.333333
961.841647	15965.666667
963.133993	14909.666667
964.425825	14028.000000
965.717142	12818.333333
967.007946	11817.666667
968.298235	10763.666667
969.588011	9959.000000
970.877273	9227.666667
972.166023	8601.000000
973.454259	8134.000000
974.741984	7794.000000
976.029196	7422.333333
977.315895	7237.000000
978.602084	7056.000000
979.887761	6893.333333
981.172926	6862.666667
982.457581	6706.333333
983.741725	6577.333333
985.025359	6574.666667
986.308483	6521.666667
987.591097	6459.333333
988.873202	6442.333333
990.154797	6441.000000
991.435883	6445.333333
992.716461	6385.333333
993.996530	6466.000000
995.276091	6504.333333
996.555144	6518.333333
997.833690	6508.000000
999.111728	6568.333333
1000.389259	6694.000000
1001.666283	6780.333333
1002.942800	6772.666667
1004.218812	6733.666667
1005.494317	6678.333333
1006.769317	6624.333333
1008.043811	6651.000000
1009.317799	6506.666667
1010.591283	6557.333333
1011.864263	6618.666667
1013.136737	6533.333333
1014.408708	6572.000000
1015.680175	6606.000000
1016.951138	6583.333333
1018.221598	6641.000000
1019.491554	6548.000000
1020.761008	6711.666667
1022.029959	6653.333333
1023.298408	6706.000000
1024.566355	6734.333333
1025.833800	6738.000000
1027.100744	6693.666667
1028.367187	6808.666667
1029.633128	6722.333333
1030.898569	6729.666667
1032.163509	6740.000000
1033.427949	6731.000000
1034.691890	6762.333333
1035.955330	6797.333333
1037.218271	6747.000000
1038.480714	6827.000000
1039.742657	6846.666667
1041.004101	6898.333333
1042.265048	6891.000000
1043.525496	6909.000000
1044.785446	6905.333333
1046.044899	6875.333333
1047.303855	6882.666667
1048.562313	6867.666667
1049.820275	6763.333333
1051.077740	6825.333333
1052.334709	6777.000000
1053.591182	6783.000000
1054.847160	6775.666667
1056.102641	6904.333333
1057.357628	6889.333333
1058.612120	6903.666667
1059.866117	6940.333333
1061.119619	7106.333333
1062.372628	7114.000000
1063.625142	7195.000000
1064.877163	7251.000000
1066.128691	7368.333333
1067.379725	7323.333333
1068.630267	7325.666667
1069.880316	7307.666667
1071.129872	7287.000000
1072.378937	7262.666667
1073.627509	7177.666667
1074.875590	7105.000000
1076.123180	6985.000000
1077.370279	6861.000000
1078.616887	6796.666667
1079.863004	6688.333333
1081.108631	6617.000000
1082.353768	6527.000000
1083.598415	6462.000000
1084.842573	6328.333333
1086.086241	6207.333333
1087.329421	6198.666667
1088.572111	6146.666667
1089.814314	6063.666667
1091.056028	6020.666667
1092.297253	5950.000000
1093.537992	5956.666667
1094.778242	5922.666667
1096.018006	5838.000000
1097.257282	5897.666667
1098.496072	5856.333333
1099.734376	5878.666667
1100.972193	5822.333333
1102.209524	5804.666667
1103.446370	5781.000000
1104.682730	5774.000000
1105.918604	5762.000000
1107.153994	5679.000000
1108.388900	5597.666667
1109.623320	5560.666667
1110.857257	5529.000000
1112.090710	5551.000000
1113.323679	5488.666667
1114.556164	5532.333333
1115.788167	5502.666667
1117.019686	5408.333333
1118.250723	5403.333333
1119.481278	5399.000000
1120.711350	5365.333333
1121.940940	5324.666667
1123.170049	5396.666667
1124.398676	5329.333333
1125.626823	5333.666667
1126.854488	5423.000000
1128.081672	5339.000000
1129.308376	5255.666667
1130.534600	5333.333333
1131.760345	5225.666667
1132.985609	5239.000000
1134.210394	5314.333333
1135.434700	5292.333333
1136.658527	5198.666667
1137.881875	5202.333333
1139.104745	5236.666667
1140.327136	5269.666667
1141.549050	5156.333333
1142.770486	5213.000000
1143.991445	5252.333333
1145.211926	5212.333333
1146.431931	5170.333333
1147.651459	5179.333333
1148.870510	5193.000000
1150.089086	5206.000000
1151.307185	5207.000000
1152.524808	5196.666667
1153.741957	5198.000000
1154.958630	5173.000000
1156.174828	5246.666667
1157.390551	5251.000000
1158.605800	5221.000000
1159.820574	5223.000000
1161.034875	5275.000000
1162.248702	5239.333333
1163.462055	5242.000000
1164.674936	5151.666667
1165.887343	5217.333333
1167.099277	5145.666667
1168.310739	5126.666667
1169.521729	5204.000000
1170.732247	5156.333333
1171.942293	5186.000000
1173.151867	5188.666667
1174.360970	5147.666667
1175.569602	5154.000000
1176.777764	5147.666667
1177.985454	5130.000000
1179.192675	5129.000000
1180.399425	5136.333333
1181.605706	5064.000000
1182.811517	5071.000000
1184.016859	5055.333333
1185.221731	5020.000000
1186.426135	5027.666667
1187.630070	5039.666667
1188.833537	5025.333333
1190.036535	4975.666667
1191.239066	4987.000000
1192.441129	4971.666667
1193.642725	4960.000000
1194.843853	4911.000000
1196.044515	4935.666667
1197.244710	4958.000000
1198.444438	4928.333333
1199.643701	4967.666667
1200.842497	4962.000000
1202.040827	5048.000000
1203.238693	5079.666667
1204.436092	5006.333333
1205.633027	4960.333333
1206.829497	5038.666667
1208.025503	4960.000000
1209.221044	4906.333333
1210.416122	4961.000000
1211.610735	4890.000000
1212.804885	4963.000000
1213.998572	4926.000000
1215.191795	4891.333333
1216.384556	4888.666667
1217.576854	4855.000000
1218.768689	4906.666667
1219.960063	4860.000000
1221.150974	4906.000000
1222.341424	4904.000000
1223.531413	4889.333333
1224.720940	4997.666667
1225.910006	4951.666667
1227.098612	4972.000000
1228.286757	5003.000000
1229.474442	5043.666667
1230.661667	5078.333333
1231.848432	5208.000000
1233.034738	5201.333333
1234.220584	5132.666667
1235.405971	5247.333333
1236.590900	5299.333333
1237.775369	5332.333333
1238.959381	5343.666667
1240.142934	5406.666667
1241.326029	5341.000000
1242.508667	5375.666667
1243.690848	5339.666667
1244.872571	5332.666667
1246.053837	5362.000000
1247.234646	5309.000000
1248.414999	5329.000000
1249.594896	5250.000000
1250.774337	5267.666667
1251.953322	5263.666667
1253.131851	5296.333333
1254.309925	5291.333333
1255.487544	5233.333333
1256.664708	5219.333333
1257.841417	5266.333333
1259.017673	5183.333333
1260.193473	5173.333333
1261.368820	5187.666667
1262.543714	5208.000000
1263.718154	5261.000000
1264.892140	5301.000000
1266.065674	5265.333333
1267.238755	5248.333333
1268.411383	5251.000000
1269.583559	5270.000000
1270.755283	5249.000000
1271.926555	5198.000000
1273.097375	5246.000000
1274.267744	5206.000000
1275.437662	5271.000000
1276.607129	5205.000000
1277.776145	5169.666667
1278.944711	5123.000000
1280.112827	5127.000000
1281.280492	5098.000000
1282.447708	5090.333333
1283.614474	5087.000000
1284.780791	5034.333333
1285.946659	5044.666667
1287.112078	5025.000000
1288.277048	4920.000000
1289.441570	4916.666667
1290.605644	4930.666667
1291.769270	4889.000000
1292.932448	4814.000000
1294.095178	4813.000000
1295.257461	4818.000000
1296.419298	4757.000000
1297.580687	4759.666667
1298.741630	4766.000000
1299.902126	4704.000000
1301.062177	4666.666667
1302.221781	4720.000000
1303.380940	4749.666667
1304.539653	4723.333333
1305.697921	4733.000000
1306.855744	4673.333333
1308.013123	4724.000000
1309.170056	4758.000000
1310.326546	4736.333333
1311.482591	4761.666667
1312.638193	4765.333333
1313.793350	4764.333333
1314.948065	4696.000000
1316.102336	4769.666667
1317.256164	4747.666667
1318.409550	4739.000000
1319.562493	4760.000000
1320.714993	4691.000000
1321.867052	4653.333333
1323.018668	4715.666667
1324.169843	4702.000000
1325.320577	4672.000000
1326.470870	4653.000000
1327.620721	4659.000000
1328.770132	4617.666667
1329.919102	4619.666667
1331.067632	4659.333333
1332.215722	4622.333333
1333.363372	4634.666667
1334.510582	4652.000000
1335.657353	4577.666667
1336.803685	4612.000000
1337.949578	4651.000000
1339.095032	4575.333333
1340.240048	4642.000000
1341.384625	4552.333333
1342.528764	4635.333333
1343.672466	4592.000000
1344.815729	4554.000000
1345.958556	4605.000000
1347.100945	4541.666667
1348.242897	4519.666667
1349.384413	4533.000000
1350.525492	4501.000000
1351.666134	4483.000000
1352.806341	4489.000000
1353.946111	4425.666667
1355.085446	4407.333333
1356.224346	4371.000000
1357.362810	4379.000000
1358.500840	4397.000000
1359.638434	4418.333333
1360.775594	4388.000000
1361.912320	4291.000000
1363.048612	4336.333333
1364.184469	4277.000000
1365.319893	4359.000000
1366.454884	4345.000000
1367.589441	4305.666667
1368.723566	4355.000000
1369.857257	4376.666667
1370.990516	4381.000000
1372.123343	4431.666667
1373.255737	4460.333333
1374.387699	4413.333333
1375.519230	4475.666667
1376.650329	4408.000000
1377.780997	4427.333333
1378.911234	4442.666667
1380.041040	4462.000000
1381.170416	4432.666667
1382.299361	4466.666667
1383.427875	4378.333333
1384.555960	4404.666667
1385.683615	4381.666667
1386.810841	4429.333333
1387.937637	4406.333333
1389.064004	4422.666667
1390.189942	4442.666667
1391.315451	4418.333333
1392.440532	4471.666667
1393.565185	4389.666667
1394.689409	4371.000000
1395.813206	4436.333333
1396.936575	4422.333333
1398.059517	4424.666667
1399.182032	4451.333333
1400.304119	4403.666667
1401.425780	4460.666667
1402.547014	4395.666667
1403.667822	4407.666667
1404.788204	4403.000000
1405.908160	4418.333333
1407.027690	4472.666667
1408.146795	4440.000000
1409.265474	4436.000000
1410.383728	4427.666667
1411.501558	4429.000000
1412.618963	4469.000000
1413.735943	4463.000000
1414.852499	4479.000000
1415.968632	4444.000000
1417.084340	4521.333333
1418.199625	4513.666667
1419.314486	4488.000000
1420.428925	4521.000000
1421.542940	4535.000000
1422.656533	4522.333333
1423.769703	4583.666667
1424.882451	4531.333333
1425.994777	4502.000000
1427.106680	4461.000000
1428.218163	4450.666667
1429.329223	4455.000000
1430.439863	4414.000000
1431.550081	4383.333333
1432.659879	4402.000000
1433.769256	4434.666667
1434.878212	4433.000000
1435.986749	4366.000000
1437.094865	4442.333333
1438.202562	4524.000000
1439.309839	4529.666667
1440.416696	4588.666667
1441.523135	4579.333333
1442.629154	4574.000000
1443.734755	4606.333333
1444.839937	4649.333333
1445.944701	4630.000000
1447.049047	4680.666667
1448.152975	4741.000000
1449.256485	4755.666667
1450.359577	4782.333333
1451.462253	4667.000000
1452.564511	4679.000000
1453.666352	4650.666667
1454.767777	4656.333333
1455.868785	4652.666667
1456.969377	4586.666667
1458.069553	4613.333333
1459.169313	4550.666667
1460.268658	4497.666667
1461.367587	4549.333333
1462.466101	4480.666667
1463.564200	4401.333333
1464.661884	4423.000000
1465.759153	4401.666667
1466.856008	4328.666667
1467.952449	4297.000000
1469.048476	4228.666667
1470.144089	4167.000000
1471.239288	4132.000000
1472.334074	4103.666667
1473.428447	4060.333333
1474.522407	3996.333333
1475.615955	4036.333333
1476.709089	3914.333333
1477.801812	3872.666667
1478.894122	3880.333333
1479.986020	3829.666667
1481.077506	3869.000000
1482.168581	3815.000000
1483.259245	3826.000000
1484.349498	3820.666667
1485.439339	3794.333333
1486.528770	3733.333333
1487.617790	3737.333333
1488.706400	3740.333333
1489.794600	3705.333333
1490.882390	3723.666667
1491.969771	3660.666667
1493.056742	3695.333333
1494.143303	3658.333333
1495.229456	3681.000000
1496.315199	3658.333333
1497.400534	3642.000000
1498.485460	3671.000000
1499.569978	3693.666667
1500.654088	3656.000000
1501.737790	3575.666667
1502.821085	3595.666667
1503.903972	3578.000000
1504.986451	3618.333333
1506.068524	3580.333333
1507.150189	3620.666667
1508.231448	3540.666667
1509.312301	3566.333333
1510.392747	3572.666667
1511.472787	3575.333333
1512.552422	3561.000000
1513.631650	3580.000000
1514.710473	3547.666667
1515.788891	3563.333333
1516.866904	3443.666667
1517.944512	3538.000000
1519.021715	3554.333333
1520.098513	3570.666667
1521.174908	3601.666667
1522.250898	3621.666667
1523.326485	3535.333333
1524.401667	3586.000000
1525.476447	3586.666667
1526.550823	3522.333333
1527.624796	3568.000000
1528.698365	3608.333333
1529.771533	3616.333333
1530.844298	3573.666667
1531.916660	3611.333333
1532.988620	3638.666667
1534.060179	3613.333333
1535.131336	3571.666667
1536.202091	3592.333333
1537.272445	3576.666667
1538.342398	3557.333333
1539.411950	3518.000000
1540.481101	3569.333333
1541.549851	3556.000000
1542.618202	3510.666667
1543.686152	3506.000000
1544.753702	3521.333333
1545.820853	3522.666667
1546.887604	3528.333333
1547.953955	3489.666667
1549.019908	3506.333333
1550.085461	3522.333333
1551.150616	3561.333333
1552.215372	3462.333333
1553.279730	3457.333333
1554.343690	3510.333333
1555.407252	3443.333333
1556.470415	3429.333333
1557.533182	3445.666667
1558.595551	3480.000000
1559.657522	3431.000000
1560.719097	3426.666667
1561.780275	3387.666667
1562.841056	3405.333333
1563.901441	3370.666667
1564.961429	3368.333333
1566.021022	3404.666667
1567.080219	3398.666667
1568.139020	3413.000000
1569.197425	3320.666667
1570.255436	3389.333333
1571.313051	3346.666667
1572.370271	3368.000000
1573.427097	3325.333333
1574.483528	3347.000000
1575.539565	3355.333333
1576.595208	3332.333333
1577.650457	3356.000000
1578.705312	3383.000000
1579.759774	3273.333333
1580.813842	3321.666667
1581.867517	3259.333333
1582.920799	3238.333333
1583.973689	3233.000000
1585.026186	3272.666667
1586.078290	3288.666667
1587.130002	3251.000000
1588.181323	3281.000000
1589.232251	3319.000000
1590.282788	3269.000000
1591.332933	3243.333333
1592.382688	3275.666667
1593.432051	3244.000000
1594.481023	3234.000000
1595.529605	3220.666667
1596.577796	3291.333333
1597.625597	3328.333333
1598.673007	3334.333333
1599.720028	3322.000000
1600.766660	3329.000000
1601.812901	3337.666667
1602.858753	3343.000000
1603.904217	3339.000000
1604.949291	3365.000000
1605.993976	3409.333333
1607.038273	3336.000000
1608.082182	3341.000000
1609.125702	3352.333333
1610.168834	3302.000000
1611.211579	3274.333333
1612.253935	3266.333333
1613.295905	3261.666667
1614.337487	3243.000000
1615.378682	3267.000000
1616.419490	3336.666667
1617.459912	3315.000000
1618.499946	3273.333333
1619.539595	3333.666667
1620.578858	3363.000000
1621.617734	3352.666667
1622.656225	3374.000000
1623.694330	3401.666667
1624.732050	3403.333333
1625.769385	3426.666667
1626.806334	3372.333333
1627.842899	3423.333333
1628.879079	3389.333333
1629.914875	3361.000000
1630.950286	3377.000000
1631.985314	3398.666667
1633.019957	3392.333333
1634.054217	3385.666667
1635.088093	3390.333333
1636.121586	3382.000000
1637.154696	3431.000000
1638.187423	3389.000000
1639.219767	3465.000000
1640.251728	3440.666667
1641.283307	3430.666667
1642.314504	3455.333333
1643.345319	3462.000000
1644.375751	3440.333333
1645.405803	3466.666667
1646.435472	3486.333333
1647.464761	3410.000000
1648.493668	3436.333333
1649.522194	3432.333333
1650.550340	3461.000000
1651.578105	3466.333333
1652.605490	3453.333333
1653.632494	3483.000000
1654.659119	3447.333333
1655.685363	3456.000000
1656.711228	3412.000000
1657.736714	3403.333333
1658.761820	3438.333333
1659.786547	3462.666667
1660.810895	3459.333333
1661.834865	3443.000000
1662.858456	3473.666667
1663.881668	3474.000000
1664.904503	3440.000000
1665.926959	3372.333333
1666.949038	3416.000000
1667.970739	3385.333333
1668.992062	3408.333333
1670.013008	3327.666667
1671.033577	3402.333333
1672.053770	3384.333333
1673.073585	3306.333333
1674.093024	3323.333333
1675.112086	3326.000000
1676.130773	3285.666667
1677.149083	3293.666667
1678.167017	3248.000000
1679.184576	3240.666667
1680.201760	3264.666667
1681.218568	3273.000000
1682.235001	3266.333333
1683.251059	3243.333333
1684.266742	3203.000000
1685.282051	3258.333333
1686.296985	3184.333333
1687.311546	3209.666667
1688.325732	3114.666667
1689.339544	3097.000000
1690.352983	3047.666667
1691.366048	3061.000000
1692.378740	3016.333333
1693.391058	3035.333333
1694.403004	3018.666667
1695.414577	3003.000000
1696.425778	3006.000000
1697.436606	2939.000000
1698.447061	2966.666667
1699.457145	2884.333333
1700.466857	2894.333333
1701.476197	2850.666667
1702.485166	2784.666667
1703.493763	2847.333333
1704.501989	2746.666667
1705.509844	2737.333333
1706.517328	2796.333333
1707.524442	2810.000000
1708.531185	2817.000000
1709.537558	2785.333333
1710.543561	2768.333333
1711.549194	2751.000000
1712.554457	2745.666667
1713.559351	2717.666667
1714.563875	2727.000000
1715.568030	2714.333333
1716.571816	2763.666667
1717.575233	2742.666667
1718.578282	2774.666667
1719.580962	2796.000000
1720.583273	2800.000000
1721.585217	2841.333333
1722.586792	2780.666667
1723.588000	2785.333333
1724.588840	2790.666667
1725.589312	2754.666667
1726.589418	2764.666667
1727.589156	2764.333333
1728.588527	2818.666667
1729.587532	2790.000000
1730.586170	2790.333333
1731.584441	2786.333333
1732.582346	2821.666667
1733.579886	2768.666667
1734.577059	2794.666667
1735.573867	2763.000000
1736.570309	2786.666667
1737.566386	2725.666667
1738.562097	2730.333333
1739.557444	2753.666667
1740.552426	2721.333333
1741.547043	2710.000000
1742.541295	2698.666667
1743.535184	2719.000000
1744.528708	2716.000000
1745.521868	2729.666667
1746.514664	2686.000000
1747.507097	2664.000000
1748.499166	2661.333333
1749.490873	2632.666667
1750.482216	2691.000000
1751.473196	2708.333333
1752.463813	2692.000000
1753.454068	2693.333333
1754.443960	2667.000000
1755.433490	2668.666667
1756.422658	2616.333333
1757.411464	2617.000000
1758.399908	2568.000000
1759.387991	2641.000000
1760.375713	2615.333333
1761.363073	2626.333333
1762.350072	2666.333333
1763.336711	2625.666667
1764.322988	2681.666667
1765.308905	2639.333333
1766.294462	2578.000000
1767.279659	2624.333333
1768.264496	2604.666667
1769.248972	2539.333333
1770.233089	2531.000000
1771.216847	2525.000000
1772.200245	2531.333333
1773.183284	2531.666667
1774.165965	2528.333333
1775.148286	2559.666667
1776.130249	2541.666667
1777.111853	2528.333333
1778.093099	2478.666667
1779.073987	2458.000000
1780.054517	2485.333333
1781.034689	2452.666667
1782.014503	2479.333333
1782.993960	2387.666667
1783.973060	2367.333333
1784.951802	2390.000000
1785.930188	2362.333333
1786.908217	2375.666667
1787.885889	2358.000000
1788.863205	2375.666667
1789.840164	2330.333333
1790.816768	2340.666667
1791.793015	2296.666667
1792.768907	2351.000000
1793.744443	2355.000000
1794.719624	2344.000000
1795.694449	2328.333333
1796.668919	2385.666667
1797.643035	2351.000000
1798.616795	2380.000000
1799.590201	2364.333333
1800.563253	2364.000000
1801.535950	2363.333333
1802.508294	2310.000000
1803.480283	2374.000000
1804.451919	2385.333333
1805.423201	2385.333333
1806.394129	2386.666667
1807.364705	2399.333333
1808.334927	2367.000000
1809.304796	2402.000000
1810.274313	2384.333333
1811.243477	2374.333333
1812.212288	2368.000000
1813.180747	2352.333333
1814.148855	2328.333333
1815.116610	2349.333333
1816.084013	2335.666667
1817.051065	2378.000000
1818.017766	2348.000000
1818.984115	2350.000000
1819.950113	2389.000000
1820.915760	2393.666667
1821.881057	2374.000000
1822.846003	2405.666667
1823.810598	2363.333333
1824.774843	2410.333333
1825.738738	2389.666667
1826.702283	2402.333333
1827.665479	2367.666667
1828.628324	2397.666667
1829.590821	2382.000000
1830.552968	2391.000000
1831.514765	2380.000000
1832.476214	2386.000000
1833.437314	2402.333333
1834.398066	2346.666667
1835.358469	2299.333333
1836.318524	2337.000000
1837.278230	2326.666667
1838.237589	2319.000000
1839.196600	2313.000000
1840.155263	2330.666667
1841.113578	2326.000000
1842.071547	2303.666667
1843.029168	2341.333333
1843.986442	2354.333333
1844.943369	2353.333333
1845.899950	2372.333333
1846.856184	2340.666667
1847.812072	2342.000000
1848.767614	2283.666667
1849.722809	2313.333333
1850.677659	2272.333333
1851.632163	2302.666667
1852.586322	2290.000000
1853.540135	2332.000000
1854.493603	2293.666667
1855.446726	2268.666667
1856.399504	2271.666667
1857.351937	2296.333333
1858.304026	2263.666667
1859.255770	2283.333333
1860.207170	2232.000000
1861.158227	2236.333333
1862.108939	2238.333333
1863.059307	2212.000000
1864.009332	2193.666667
1864.959013	2201.333333
1865.908351	2157.000000
1866.857346	2212.000000
1867.805998	2193.333333
1868.754307	2192.666667
1869.702274	2174.666667
1870.649898	2199.333333
1871.597180	2197.000000
1872.544119	2146.000000
1873.490717	2144.333333
1874.436973	2166.333333
1875.382887	2141.666667
1876.328459	2126.333333
1877.273691	2121.000000
1878.218581	2135.000000
1879.163130	2133.666667
1880.107338	2119.000000
1881.051205	2136.000000
1881.994732	2144.333333
1882.937919	2164.333333
1883.880765	2124.000000
1884.823271	2156.000000
1885.765437	2151.333333
1886.707264	2118.000000
1887.648750	2173.666667
1888.589898	2147.666667
1889.530706	2121.333333
1890.471175	2159.666667
1891.411305	2175.000000
1892.351096	2192.000000
1893.290548	2217.333333
1894.229662	2186.666667
1895.168438	2220.333333
1896.106876	2206.333333
1897.044975	2182.000000
1897.982737	2174.666667
1898.920160	2195.333333
1899.857247	2206.333333
1900.793996	2174.333333
1901.730407	2193.000000
1902.666482	2143.000000
1903.602219	2142.333333
1904.537620	2163.666667
1905.472685	2144.000000
1906.407412	2130.666667
1907.341804	2110.333333
1908.275859	2122.666667
1909.209579	2124.666667
1910.142962	2131.000000
1911.076010	2124.000000
1912.008722	2081.333333
1912.941099	2034.666667
1913.873141	2087.666667
1914.804848	2073.000000
1915.736219	2035.666667
1916.667256	2073.000000
1917.597959	2045.333333
1918.528327	2031.333333
1919.458360	2042.333333
1920.388060	2029.000000
1921.317426	2009.000000
1922.246457	2029.666667
1923.175156	2022.666667
1924.103520	2027.666667
1925.031552	2025.333333
1925.959250	2018.000000
1926.886615	2021.333333
1927.813647	2044.666667
1928.740346	2013.333333
1929.666713	2052.000000
1930.592748	2007.333333
1931.518450	2008.666667
1932.443820	1998.333333
1933.368858	1989.000000
1934.293564	1968.333333
1935.217939	2007.666667
1936.141982	1991.333333
1937.065694	1968.666667
1937.989074	1998.666667
1938.912124	1975.000000
1939.834842	1962.666667
1940.757230	1952.000000
1941.679287	1977.000000
1942.601014	2000.666667
1943.522411	1939.333333
1944.443477	1951.666667
1945.364214	1961.666667
1946.284621	1963.666667
1947.204698	1916.000000
1948.124445	1972.333333
1949.043863	1929.666667
1949.962952	1921.666667
1950.881712	1892.333333
1951.800143	1915.333333
1952.718245	1914.333333
1953.636019	1889.333333
1954.553464	1902.000000
1955.470581	1896.000000
1956.387369	1902.333333
1957.303830	1874.666667
1958.219963	1863.333333
1959.135768	1902.666667
1960.051246	1837.666667
1960.966396	1860.000000
1961.881219	1856.333333
1962.795715	1902.000000
1963.709883	1876.000000
1964.623726	1873.666667
1965.537241	1886.000000
1966.450430	1850.666667
1967.363293	1898.000000
1968.275829	1896.666667
1969.188040	1893.666667
1970.099924	1913.333333
1971.011483	1913.666667
1971.922716	1940.333333
1972.833624	1914.666667
1973.744206	1908.333333
1974.654464	1917.333333
1975.564396	1897.000000
1976.474004	1891.333333
1977.383286	1911.000000
1978.292245	1899.000000
1979.200878	1878.666667
1980.109188	1866.333333
1981.017174	1864.666667
1981.924835	1864.000000
1982.832173	1880.000000
1983.739187	1865.333333
1984.645878	1841.000000
1985.552245	1812.666667
1986.458289	1791.000000
1987.364010	1841.333333
1988.269408	1805.000000
1989.174484	1827.000000
1990.079236	1798.666667
1990.983667	1811.666667
1991.887775	1784.333333
1992.791561	1796.333333
1993.695024	1772.333333
1994.598166	1777.666667
1995.500986	1740.666667
1996.403485	1738.333333
1997.305662	1746.000000
1998.207518	1731.333333
1999.109053	1749.333333
