200.151048	42103.000000
201.758777	42143.666667
203.365815	42091.000000
204.972162	41806.666667
206.577820	41888.666667
208.182787	41746.000000
209.787065	41960.666667
211.390653	41754.333333
212.993553	41506.333333
214.595765	41529.666667
216.197289	41447.333333
217.798125	41517.666667
219.398274	41378.666667
220.997737	41268.000000
222.596513	41036.000000
224.194603	41359.666667
225.792008	41176.666667
227.388728	41126.333333
228.984763	41161.000000
230.580114	41236.333333
232.174781	40892.333333
233.768765	41115.000000
235.362065	40927.666667
236.954683	40899.666667
238.546619	40816.000000
240.137872	40742.000000
241.728445	40709.000000
243.318336	40563.000000
244.907546	40343.000000
246.496076	40305.000000
248.083926	40225.000000
249.671097	39998.000000
251.257589	40233.000000
252.843402	39947.000000
254.428536	39622.666667
256.012993	39598.000000
257.596772	39690.666667
259.179874	39670.333333
260.762300	39495.000000
262.344049	39478.333333
263.925122	39440.333333
265.505519	39269.000000
267.085241	39210.666667
268.664289	39074.666667
270.242662	39297.666667
271.820361	39312.666667
273.397387	39255.000000
274.973740	39253.333333
276.549419	39124.000000
278.124426	39363.333333
279.698762	39332.333333
281.272425	39084.666667
282.845417	39219.000000
284.417739	39150.333333
285.989390	39307.000000
287.560371	39243.666667
289.130682	39352.666667
290.700324	39353.666667
292.269297	39241.333333
293.837602	39260.000000
295.405238	39211.666667
296.972207	39113.000000
298.538508	39047.000000
300.104142	38996.666667
301.669110	38967.333333
303.233411	38712.333333
304.797047	38674.666667
306.360017	38589.333333
307.922322	38485.000000
309.483963	38276.333333
311.044939	38340.333333
312.605252	38055.666667
314.164900	37878.000000
315.723886	37786.333333
317.282209	37976.666667
318.839870	37630.333333
320.396868	37585.333333
321.953205	37520.333333
323.508881	37522.000000
325.063896	37306.333333
326.618251	37395.666667
328.171945	37258.000000
329.724980	37199.333333
331.277356	37311.666667
332.829072	37219.333333
334.380131	37116.000000
335.930530	37128.666667
337.480273	37314.666667
339.029357	37041.333333
340.577785	37165.333333
342.125556	37109.333333
343.672671	37135.666667
345.219130	36974.333333
346.764933	36944.000000
348.310081	37084.666667
349.854575	36811.333333
351.398414	36821.333333
352.941599	36896.000000
354.484130	36813.333333
356.026008	36854.666667
357.567234	36717.333333
359.107807	36712.000000
360.647727	36741.666667
362.186996	36545.666667
363.725614	36602.000000
365.263580	36370.333333
366.800896	36480.666667
368.337562	36260.000000
369.873578	36399.333333
371.408944	36390.666667
372.943661	36401.333333
374.477730	36416.000000
376.011150	36316.333333
377.543922	36450.333333
379.076046	36361.666667
380.607523	36432.333333
382.138353	36332.333333
383.668537	36508.333333
385.198075	36456.333333
386.726966	36613.333333
388.255213	36652.333333
389.782814	36547.666667
391.309770	36571.000000
392.836083	36661.666667
394.361751	36528.000000
395.886776	36758.333333
397.411157	36808.000000
398.934896	36882.000000
400.457992	36782.333333
401.980446	37008.000000
403.502258	36898.333333
405.023429	37048.000000
406.543959	37195.000000
408.063849	37315.333333
409.583098	37333.333333
411.101707	37605.000000
412.619677	37606.333333
414.137007	37776.333333
415.653699	38020.333333
417.169752	38482.333333
418.685167	38407.333333
420.199945	38943.333333
421.714085	39118.000000
423.227588	39590.000000
424.740454	40001.666667
426.252684	40191.666667
427.764279	40139.000000
429.275238	40419.000000
430.785561	40196.666667
432.295250	40014.000000
433.804304	39673.666667
435.312725	39425.000000
436.820511	39097.000000
438.327664	38918.666667
439.834185	38805.000000
441.340072	38689.333333
442.845327	38309.666667
444.349951	38063.333333
445.853942	38104.333333
447.357303	38057.666667
448.860033	37755.000000
450.362132	37685.000000
451.863601	37543.333333
453.364440	37374.333333
454.864650	37049.333333
456.364231	36798.000000
457.863183	36672.000000
459.361507	36342.000000
460.859203	36207.333333
462.356271	35972.333333
463.852712	35748.333333
465.348526	35564.666667
466.843714	35462.666667
468.338275	35454.666667
469.832210	35351.666667
471.325520	35065.666667
472.818205	35189.333333
474.310265	34992.666667
475.801700	34953.000000
477.292512	34849.000000
478.782700	34536.666667
480.272264	34593.666667
481.761205	34514.000000
483.249524	34420.666667
484.737221	34326.666667
486.224295	34331.666667
487.710748	34092.333333
489.196579	34183.000000
490.681790	34191.000000
492.166380	33991.333333
493.650350	33856.333333
495.133700	34062.666667
496.616431	33890.000000
498.098542	33867.666667
499.580035	33930.333333
501.060909	33773.666667
502.541165	33699.000000
504.020804	33671.666667
505.499825	33522.333333
506.978228	33671.000000
508.456016	33641.666667
509.933186	33627.000000
511.409741	33539.333333
512.885680	33519.333333
514.361004	33512.000000
515.835713	33308.000000
517.309807	33240.000000
518.783287	33382.000000
520.256153	33320.666667
521.728406	33317.000000
523.200045	33313.333333
524.671071	33363.000000
526.141485	33492.000000
527.611287	33405.000000
529.080476	33297.000000
530.549054	33251.000000
532.017021	33295.333333
533.484378	33369.333333
534.951123	33177.000000
536.417259	33058.333333
537.882785	33202.000000
539.347701	33242.333333
540.812008	33199.333333
542.275707	33181.666667
543.738797	33173.666667
545.201279	33109.333333
546.663153	33206.666667
548.124420	33253.666667
549.585080	33160.333333
551.045133	33085.333333
552.504579	33149.666667
553.963420	33281.333333
555.421655	33387.666667
556.879285	33216.666667
558.336309	33561.666667
559.792729	33458.000000
561.248545	33568.000000
562.703756	33434.000000
564.158364	33630.000000
565.612369	33712.000000
567.065770	33731.000000
568.518569	33809.000000
569.970766	34102.333333
571.422361	34090.000000
572.873354	34441.666667
574.323745	34442.666667
575.773536	34796.333333
577.222726	34788.000000
578.671316	35213.000000
580.119306	35191.000000
581.566696	34974.000000
583.013487	35000.666667
584.459679	35221.000000
585.905273	35084.333333
587.350268	34873.666667
588.794665	34763.666667
590.238465	35030.666667
591.681667	35034.666667
593.124272	34702.666667
594.566281	34335.000000
596.007694	34159.666667
597.448510	33906.666667
598.888731	33339.333333
600.328357	33262.333333
601.767388	33067.333333
603.205824	32914.000000
604.643666	32990.333333
606.080914	32958.666667
607.517568	32836.333333
608.953629	33015.000000
610.389097	32802.666667
611.823972	32690.333333
613.258255	32667.000000
614.691946	32433.333333
616.125046	32243.666667
617.557554	31911.000000
618.989471	31813.333333
620.420798	31633.666667
621.851534	31619.666667
623.281680	31346.333333
624.711237	31199.333333
626.140204	31088.666667
627.568582	30990.666667
628.996372	30933.666667
630.423573	30766.666667
631.850186	30697.666667
633.276211	30484.000000
634.701650	30436.333333
636.126501	30549.666667
637.550765	30362.333333
638.974443	30256.333333
640.397535	30335.000000
641.820041	30375.000000
643.241961	30267.000000
644.663297	30217.333333
646.084048	30381.333333
647.504214	30091.666667
648.923796	30139.333333
650.342795	30153.666667
651.761210	30014.333333
653.179041	30091.666667
654.596290	30083.666667
656.012957	30040.000000
657.429041	29885.333333
658.844543	29946.666667
660.259464	29852.333333
661.673804	29875.333333
663.087563	29970.666667
664.500741	29711.333333
665.913339	29945.000000
667.325357	29870.000000
668.736795	29614.000000
670.147654	29659.666667
671.557934	29705.333333
672.967636	29614.666667
674.376759	29770.666667
675.785304	29560.666667
677.193271	29553.666667
678.600661	29602.333333
680.007474	29509.666667
681.413711	29465.000000
682.819370	29336.666667
684.224454	29362.000000
685.628962	29429.333333
687.032895	29487.000000
688.436252	29351.000000
689.839034	29358.333333
691.241242	29322.333333
692.642876	29229.666667
694.043936	29150.333333
695.444422	29003.666667
696.844336	29127.000000
698.243676	29117.333333
699.642443	28986.333333
701.040639	29103.666667
702.438262	28971.666667
703.835313	28892.333333
705.231794	28963.333333
706.627703	29108.333333
708.023041	28704.666667
709.417810	28824.666667
710.812008	28851.666667
712.205636	28731.666667
713.598694	28799.333333
714.991184	28705.666667
716.383105	28692.666667
717.774457	28758.333333
719.165241	28681.333333
720.555457	28605.000000
721.945105	28657.333333
723.334187	28546.333333
724.722701	28589.000000
726.110648	28384.000000
727.498030	28467.000000
728.884845	28718.333333
730.271094	28583.666667
731.656778	28272.000000
733.041897	28481.333333
734.426451	28340.333333
735.810441	28126.000000
737.193866	28235.666667
738.576728	28257.666667
739.959026	28173.333333
741.340760	28257.333333
742.721932	28205.000000
744.102541	28023.666667
745.482588	28165.333333
746.862073	28304.666667
748.240996	28178.666667
749.619358	28003.333333
750.997158	28108.333333
752.374398	28085.666667
753.751077	28097.000000
755.127197	28069.666667
756.502756	27983.666667
757.877756	28044.000000
759.252196	28090.333333
760.626078	28025.333333
761.999400	27871.000000
763.372165	27806.666667
764.744371	27899.333333
766.116020	27862.000000
767.487111	27714.666667
768.857646	27700.000000
770.227623	27704.000000
771.597044	27452.666667
772.965908	27515.333333
774.334217	27440.000000
775.701970	27296.666667
777.069168	27388.000000
778.435811	27303.333333
779.801899	27214.666667
781.167433	27371.000000
782.532412	27269.333333
783.896838	27001.000000
785.260710	27193.333333
786.624029	27242.333333
787.986796	27062.333333
789.349009	26948.000000
790.710671	26999.000000
792.071780	27104.666667
793.432338	27016.666667
794.792344	26918.000000
796.151799	26988.666667
797.510704	26807.000000
798.869058	26859.333333
800.226862	26698.333333
801.584116	26841.666667
802.940820	26706.000000
804.296975	26683.333333
805.652581	26673.666667
807.007638	26690.666667
808.362147	26676.333333
809.716108	26842.333333
811.069521	26760.666667
812.422387	26679.333333
813.774705	26824.333333
815.126476	26735.666667
816.477701	26689.666667
817.828380	26756.666667
819.178512	26599.333333
820.528099	26537.666667
821.877140	26453.666667
823.225637	26340.000000
824.573588	26365.000000
825.920995	26430.666667
827.267857	26453.666667
828.614176	26166.666667
829.959951	26357.333333
831.305183	26351.333333
832.649871	26145.333333
833.994017	26419.666667
835.337620	26315.000000
836.680681	26246.666667
838.023201	26304.000000
839.365178	26262.333333
840.706614	26280.666667
842.047510	26565.666667
843.387864	26492.666667
844.727678	26476.333333
846.066952	26449.666667
847.405687	26550.333333
848.743881	26632.000000
850.081537	26705.333333
851.418653	26693.666667
852.755231	26690.000000
854.091270	26603.666667
855.426771	26648.333333
856.761735	26709.000000
858.096160	26611.333333
859.430049	26598.000000
860.763401	26359.000000
862.096216	26355.000000
863.428495	26326.333333
864.760237	26460.333333
866.091444	26034.333333
867.422115	26126.333333
868.752252	26252.666667
870.081853	25999.333333
871.410919	26006.000000
872.739452	25938.666667
874.067450	26084.333333
875.394914	26082.666667
876.721845	25965.333333
878.048243	25989.666667
879.374108	25835.666667
880.699440	25902.666667
882.024240	25892.666667
883.348508	25608.000000
884.672244	25690.000000
885.995449	25627.666667
887.318122	25472.000000
888.640265	25385.333333
889.961877	25447.666667
891.282959	25274.000000
892.603510	25388.333333
893.923532	25318.333333
895.243024	25203.666667
896.561987	25137.666667
897.880422	24995.000000
899.198327	25108.333333
900.515705	24930.000000
901.832554	25053.000000
903.148875	24950.666667
904.464669	24980.666667
905.779936	24845.000000
907.094676	25037.000000
908.408889	24991.666667
909.722576	25029.333333
911.035737	25113.333333
912.348371	25039.000000
913.660481	25278.666667
914.972065	25293.333333
916.283124	25283.333333
917.593659	25331.333333
918.903669	25435.000000
920.213155	25540.333333
921.522117	25370.333333
922.830556	25544.333333
924.138471	25415.333333
925.445864	25505.000000
926.752733	25477.666667
928.059081	25516.000000
929.364906	25536.666667
930.670209	25717.333333
931.974991	25926.666667
933.279251	26050.000000
934.582990	26227.000000
935.886209	26463.666667
937.188907	26671.000000
938.491085	27040.000000
939.792743	27405.333333
941.093881	27554.000000
942.394500	28143.000000
943.694600	28544.666667
944.994181	29456.333333
946.293243	30175.000000
947.591787	31270.000000
948.889813	32208.666667
950.187322	33420.000000
951.484313	34926.333333
952.780787	36256.000000
954.076744	38340.333333
955.372184	39671.000000
956.667108	41202.333333
957.961516	42113.000000
959.255409	42545.000000
960.548785	42188.333333
961.841647	41173.333333
963.133993	39808.000000
964.425825	37902.333333
965.717142	35769.666667
967.007946	33915.000000
968.298235	32012.666667
969.588011	30522.333333
970.877273	28982.333333
972.166023	27719.666667
973.454259	26804.000000
974.741984	26093.666667
976.029196	25420.333333
977.315895	24960.666667
978.602084	24639.000000
979.887761	24244.333333
981.172926	23875.000000
982.457581	23800.666667
983.741725	23524.333333
985.025359	23519.000000
986.308483	23496.000000
987.591097	23400.666667
988.873202	23107.666667
990.154797	23299.333333
991.435883	23130.333333
992.716461	23083.666667
993.996530	23181.333333
995.276091	23091.000000
996.555144	23213.666667
997.833690	23231.666667
999.111728	23168.333333
1000.389259	23341.000000
1001.666283	23485.000000
1002.942800	23466.333333
1004.218812	23581.666667
1005.494317	23325.666667
1006.769317	23327.666667
1008.043811	23328.666667
1009.317799	23055.000000
1010.591283	23254.333333
1011.864263	23149.666667
1013.136737	23094.666667
1014.408708	23279.000000
1015.680175	23337.666667
1016.951138	23149.000000
1018.221598	23215.333333
1019.491554	23265.333333
1020.761008	23297.666667
1022.029959	23468.333333
1023.298408	23315.333333
1024.566355	23565.000000
1025.833800	23459.333333
1027.100744	23357.333333
1028.367187	23486.666667
1029.633128	23522.333333
1030.898569	23633.000000
1032.163509	23628.333333
1033.427949	23496.333333
1034.691890	23570.666667
1035.955330	23389.333333
1037.218271	23429.000000
1038.480714	23565.666667
1039.742657	23558.333333
1041.004101	23553.000000
1042.265048	23569.666667
1043.525496	23591.000000
1044.785446	23530.666667
1046.044899	23537.666667
1047.303855	23453.333333
1048.562313	23560.666667
1049.820275	23250.666667
1051.077740	23224.666667
1052.334709	23226.333333
1053.591182	23268.000000
1054.847160	23130.666667
1056.102641	23035.666667
1057.357628	23313.000000
1058.612120	23253.333333
1059.866117	23275.333333
1061.119619	23443.333333
1062.372628	23450.333333
1063.625142	23687.666667
1064.877163	23802.000000
1066.128691	23853.000000
1067.379725	23922.666667
1068.630267	23832.666667
1069.880316	23975.000000
1071.129872	23936.666667
1072.378937	23664.000000
1073.627509	23722.333333
1074.875590	23436.000000
1076.123180	23248.000000
1077.370279	22979.666667
1078.616887	22933.333333
1079.863004	22638.333333
1081.108631	22457.666667
1082.353768	22050.000000
1083.598415	22025.333333
1084.842573	21760.000000
1086.086241	21619.666667
1087.329421	21457.666667
1088.572111	21339.666667
1089.814314	21262.000000
1091.056028	21126.333333
1092.297253	20982.666667
1093.537992	20947.666667
1094.778242	20943.000000
1096.018006	20826.000000
1097.257282	20815.666667
1098.496072	20769.000000
1099.734376	20838.333333
1100.972193	20669.333333
1102.209524	20709.666667
1103.446370	20629.666667
1104.682730	20564.666667
1105.918604	20508.666667
1107.153994	20435.666667
1108.388900	20278.333333
1109.623320	20220.000000
1110.857257	20069.666667
1112.090710	20092.666667
1113.323679	20040.333333
1114.556164	19845.333333
1115.788167	19968.333333
1117.019686	19646.333333
1118.250723	19844.333333
1119.481278	19713.666667
1120.711350	19689.333333
1121.940940	19652.666667
1123.170049	19622.333333
1124.398676	19623.333333
1125.626823	19557.333333
1126.854488	19629.333333
1128.081672	19616.666667
1129.308376	19439.000000
1130.534600	19351.666667
1131.760345	19466.666667
1132.985609	19438.666667
1134.210394	19324.333333
1135.434700	19315.666667
1136.658527	19321.333333
1137.881875	19186.333333
1139.104745	19187.000000
1140.327136	19193.333333
1141.549050	19178.666667
1142.770486	19298.666667
1143.991445	19195.000000
1145.211926	19220.333333
1146.431931	19163.666667
1147.651459	19069.333333
1148.870510	19146.000000
1150.089086	19118.666667
1151.307185	19106.000000
1152.524808	18953.000000
1153.741957	19009.666667
1154.958630	19015.000000
1156.174828	19047.000000
1157.390551	18864.333333
1158.605800	18873.333333
1159.820574	18972.000000
1161.034875	18936.666667
1162.248702	18846.333333
1163.462055	18845.000000
1164.674936	18891.000000
1165.887343	18800.000000
1167.099277	18698.333333
1168.310739	18860.333333
1169.521729	18835.000000
1170.732247	18762.333333
1171.942293	18695.666667
1173.151867	18621.333333
1174.360970	18836.000000
1175.569602	18595.000000
1176.777764	18761.000000
1177.985454	18546.000000
1179.192675	18557.333333
1180.399425	18666.333333
1181.605706	18446.666667
1182.811517	18384.666667
1184.016859	18421.333333
1185.221731	18330.666667
1186.426135	18302.333333
1187.630070	18262.333333
1188.833537	18223.666667
1190.036535	18150.666667
1191.239066	18139.333333
1192.441129	18095.333333
1193.642725	18104.666667
1194.843853	18090.666667
1196.044515	18096.333333
1197.244710	18052.000000
1198.444438	18154.000000
1199.643701	18060.666667
1200.842497	18094.000000
1202.040827	18042.666667
1203.238693	18128.000000
1204.436092	18046.333333
1205.633027	17991.333333
1206.829497	17856.333333
1208.025503	17909.333333
1209.221044	17847.666667
1210.416122	17781.333333
1211.610735	17614.666667
1212.804885	17724.333333
1213.998572	17708.000000
1215.191795	17568.333333
1216.384556	17649.333333
1217.576854	17569.666667
1218.768689	17572.000000
1219.960063	17513.333333
1221.150974	17498.333333
1222.341424	17495.333333
1223.531413	17405.000000
1224.720940	17497.333333
1225.910006	17493.000000
1227.098612	17578.333333
1228.286757	17567.000000
1229.474442	17656.666667
1230.661667	17645.666667
1231.848432	17722.666667
1233.034738	17906.666667
1234.220584	17784.666667
1235.405971	17844.000000
1236.590900	17933.333333
1237.775369	18046.333333
1238.959381	17972.333333
1240.142934	18006.666667
1241.326029	18096.000000
1242.508667	18130.666667
1243.690848	18091.000000
1244.872571	17983.333333
1246.053837	18032.000000
1247.234646	17870.000000
1248.414999	17945.666667
1249.594896	17870.000000
1250.774337	17765.333333
1251.953322	17682.333333
1253.131851	17723.666667
1254.309925	17603.666667
1255.487544	17640.666667
1256.664708	17439.333333
1257.841417	17628.333333
1259.017673	17737.666667
1260.193473	17891.333333
1261.368820	17572.333333
1262.543714	17456.666667
1263.718154	17580.666667
1264.892140	17536.666667
1266.065674	17657.666667
1267.238755	17588.333333
1268.411383	17593.666667
1269.583559	17685.333333
1270.755283	17584.000000
1271.926555	17424.000000
1273.097375	17590.666667
1274.267744	17461.666667
1275.437662	17469.333333
1276.607129	17477.000000
1277.776145	17346.666667
1278.944711	17384.000000
1280.112827	17328.333333
1281.280492	17202.333333
1282.447708	17062.666667
1283.614474	17176.000000
1284.780791	17044.000000
1285.946659	17059.333333
1287.112078	16871.333333
1288.277048	16842.666667
1289.441570	16750.333333
1290.605644	16683.333333
1291.769270	16591.333333
1292.932448	16694.666667
1294.095178	16505.666667
1295.257461	16461.333333
1296.419298	16419.333333
1297.580687	16422.666667
1298.741630	16369.000000
1299.902126	16318.000000
1301.062177	16335.333333
1302.221781	16304.333333
1303.380940	16396.666667
1304.539653	16149.666667
1305.697921	16161.666667
1306.855744	16323.666667
1308.013123	16156.000000
1309.170056	16233.666667
1310.326546	16210.000000
1311.482591	16076.666667
1312.638193	16227.666667
1313.793350	16172.333333
1314.948065	16067.666667
1316.102336	16061.333333
1317.256164	16043.666667
1318.409550	16069.000000
1319.562493	15985.333333
1320.714993	16037.666667
1321.867052	15951.000000
1323.018668	15960.666667
1324.169843	15713.666667
1325.320577	15848.333333
1326.470870	15748.333333
1327.620721	15709.666667
1328.770132	15709.666667
1329.919102	15573.333333
1331.067632	15619.000000
1332.215722	15614.000000
1333.363372	15559.000000
1334.510582	15584.666667
1335.657353	15618.000000
1336.803685	15488.333333
1337.949578	15623.333333
1339.095032	15625.000000
1340.240048	15446.000000
1341.384625	15486.333333
1342.528764	15542.333333
1343.672466	15494.000000
1344.815729	15505.333333
1345.958556	15407.666667
1347.100945	15440.000000
1348.242897	15434.000000
1349.384413	15266.333333
1350.525492	15371.333333
1351.666134	15250.000000
1352.806341	15207.666667
1353.946111	15155.000000
1355.085446	15162.333333
1356.224346	15039.333333
1357.362810	15106.666667
1358.500840	14863.333333
1359.638434	14939.000000
1360.775594	14851.666667
1361.912320	14864.000000
1363.048612	14796.000000
1364.184469	14869.333333
1365.319893	14776.666667
1366.454884	14724.333333
1367.589441	14766.000000
1368.723566	14827.333333
1369.857257	14916.000000
1370.990516	14853.333333
1372.123343	14869.666667
1373.255737	14901.333333
1374.387699	14878.666667
1375.519230	14879.000000
1376.650329	14862.000000
1377.780997	14823.000000
1378.911234	14946.666667
1380.041040	14890.000000
1381.170416	14823.666667
1382.299361	14845.333333
1383.427875	14850.333333
1384.555960	14813.666667
1385.683615	14853.666667
1386.810841	14753.666667
1387.937637	14743.666667
1389.064004	14751.333333
1390.189942	14694.000000
1391.315451	14646.666667
1392.440532	14645.333333
1393.565185	14611.666667
1394.689409	14583.000000
1395.813206	14520.333333
1396.936575	14562.000000
1398.059517	14566.000000
1399.182032	14472.333333
1400.304119	14570.666667
1401.425780	14466.000000
1402.547014	14511.333333
1403.667822	14342.666667
1404.788204	14445.333333
1405.908160	14398.666667
1407.027690	14380.000000
1408.146795	14437.000000
1409.265474	14406.333333
1410.383728	14375.000000
1411.501558	14401.333333
1412.618963	14456.333333
1413.735943	14461.666667
1414.852499	14442.333333
1415.968632	14476.000000
1417.084340	14368.666667
1418.199625	14493.666667
1419.314486	14462.000000
1420.428925	14388.666667
1421.542940	14405.000000
1422.656533	14508.000000
1423.769703	14382.000000
1424.882451	14473.333333
1425.994777	14470.666667
1427.106680	14399.666667
1428.218163	14209.333333
1429.329223	14279.666667
1430.439863	14105.666667
1431.550081	14174.666667
1432.659879	14097.333333
1433.769256	14200.333333
1434.878212	14089.666667
1435.986749	14088.333333
1437.094865	14152.000000
1438.202562	14203.000000
1439.309839	14160.000000
1440.416696	14351.666667
1441.523135	14301.000000
1442.629154	14327.000000
1443.734755	14444.000000
1444.839937	14342.000000
1445.944701	14366.333333
1447.049047	14522.666667
1448.152975	14508.000000
1449.256485	14523.000000
1450.359577	14602.000000
1451.462253	14334.333333
1452.564511	14430.333333
1453.666352	14348.333333
1454.767777	14351.333333
1455.868785	14239.666667
1456.969377	14314.000000
1458.069553	14232.000000
1459.169313	14141.333333
1460.268658	14131.666667
1461.367587	13981.666667
1462.466101	13978.666667
1463.564200	13874.000000
1464.661884	13850.333333
1465.759153	13750.666667
1466.856008	13625.000000
1467.952449	13610.333333
1469.048476	13460.000000
1470.144089	13296.333333
1471.239288	13238.666667
1472.334074	13145.333333
1473.428447	13066.000000
1474.522407	13035.000000
1475.615955	12947.666667
1476.709089	12766.666667
1477.801812	12864.333333
1478.894122	12711.333333
1479.986020	12719.666667
1481.077506	12660.333333
1482.168581	12600.666667
1483.259245	12555.000000
1484.349498	12593.666667
1485.439339	12582.333333
1486.528770	12518.666667
1487.617790	12576.333333
1488.706400	12476.333333
1489.794600	12512.333333
1490.882390	12408.000000
1491.969771	12439.666667
1493.056742	12303.000000
1494.143303	12367.000000
1495.229456	12360.666667
1496.315199	12339.666667
1497.400534	12401.000000
1498.485460	12312.000000
1499.569978	12193.333333
1500.654088	12179.000000
1501.737790	12217.000000
1502.821085	12180.666667
1503.903972	12063.333333
1504.986451	12078.666667
1506.068524	12100.000000
1507.150189	11958.333333
1508.231448	11979.666667
1509.312301	11868.666667
1510.392747	11916.666667
1511.472787	11822.000000
1512.552422	11817.000000
1513.631650	11921.000000
1514.710473	11810.333333
1515.788891	11821.333333
1516.866904	11922.666667
1517.944512	11849.666667
1519.021715	11819.333333
1520.098513	11768.666667
1521.174908	11837.000000
1522.250898	11773.333333
1523.326485	11812.000000
1524.401667	11729.666667
1525.476447	11707.333333
1526.550823	11792.666667
1527.624796	11747.666667
1528.698365	11684.333333
1529.771533	11781.000000
1530.844298	11783.333333
1531.916660	11790.000000
1532.988620	11745.666667
1534.060179	11680.666667
1535.131336	11768.666667
1536.202091	11702.333333
1537.272445	11653.666667
1538.342398	11562.333333
1539.411950	11590.666667
1540.481101	11586.333333
1541.549851	11474.666667
1542.618202	11467.000000
1543.686152	11485.000000
1544.753702	11477.333333
1545.820853	11472.333333
1546.887604	11329.000000
1547.953955	11340.333333
1549.019908	11283.666667
1550.085461	11216.666667
1551.150616	11322.666667
1552.215372	11251.666667
1553.279730	11172.000000
1554.343690	11156.000000
1555.407252	11164.666667
1556.470415	11167.000000
1557.533182	11144.666667
1558.595551	11131.666667
1559.657522	11173.666667
1560.719097	11135.666667
1561.780275	11189.666667
1562.841056	11145.000000
1563.901441	11068.333333
1564.961429	11180.666667
1566.021022	11067.000000
1567.080219	11098.000000
1568.139020	11072.333333
1569.197425	11087.333333
1570.255436	11039.333333
1571.313051	11077.333333
1572.370271	11036.333333
1573.427097	10980.333333
1574.483528	10979.333333
1575.539565	11035.333333
1576.595208	10877.333333
1577.650457	10887.333333
1578.705312	10955.666667
1579.759774	10851.000000
1580.813842	10899.000000
1581.867517	10805.333333
1582.920799	10815.666667
1583.973689	10830.000000
1585.026186	10699.000000
1586.078290	10689.000000
1587.130002	10635.333333
1588.181323	10638.000000
1589.232251	10645.333333
1590.282788	10594.000000
1591.332933	10640.333333
1592.382688	10562.000000
1593.432051	10608.666667
1594.481023	10625.333333
1595.529605	10603.666667
1596.577796	10590.000000
1597.625597	10661.666667
1598.673007	10687.333333
1599.720028	10762.000000
1600.766660	10681.666667
1601.812901	10728.666667
1602.858753	10650.000000
1603.904217	10758.333333
1604.949291	10721.000000
1605.993976	10711.000000
1607.038273	10619.666667
1608.082182	10643.666667
1609.125702	10589.333333
1610.168834	10612.333333
1611.211579	10597.333333
1612.253935	10594.333333
1613.295905	10569.333333
1614.337487	10615.000000
1615.378682	10592.333333
1616.419490	10523.333333
1617.459912	10498.333333
1618.499946	10476.000000
1619.539595	10480.666667
1620.578858	10488.666667
1621.617734	10409.333333
1622.656225	10379.333333
1623.694330	10422.333333
1624.732050	10421.333333
1625.769385	10394.666667
1626.806334	10317.000000
1627.842899	10297.333333
1628.879079	10435.000000
1629.914875	10469.000000
1630.950286	10409.000000
1631.985314	10403.000000
1633.019957	10498.666667
1634.054217	10387.333333
1635.088093	10421.666667
1636.121586	10495.000000
1637.154696	10380.000000
1638.187423	10320.333333
1639.219767	10423.666667
1640.251728	10429.333333
1641.283307	10450.000000
1642.314504	10410.000000
1643.345319	10438.000000
1644.375751	10397.666667
1645.405803	10523.666667
1646.435472	10400.333333
1647.464761	10336.666667
1648.493668	10414.333333
1649.522194	10427.333333
1650.550340	10451.000000
1651.578105	10345.333333
1652.605490	10288.000000
1653.632494	10362.333333
1654.659119	10314.666667
1655.685363	10345.333333
1656.711228	10350.666667
1657.736714	10276.666667
1658.761820	10206.333333
1659.786547	10197.666667
1660.810895	10194.000000
1661.834865	10147.000000
1662.858456	10168.000000
1663.881668	10203.333333
1664.904503	10093.000000
1665.926959	10084.333333
1666.949038	10064.333333
1667.970739	9943.000000
1668.992062	9919.000000
1670.013008	9890.000000
1671.033577	9899.333333
1672.053770	9858.000000
1673.073585	9830.666667
1674.093024	9836.666667
1675.112086	9854.666667
1676.130773	9732.666667
1677.149083	9708.666667
1678.167017	9713.000000
1679.184576	9705.666667
1680.201760	9652.000000
1681.218568	9648.666667
1682.235001	9589.666667
1683.251059	9702.000000
1684.266742	9620.000000
1685.282051	9593.666667
1686.296985	9632.000000
1687.311546	9473.333333
1688.325732	9551.000000
1689.339544	9392.000000
1690.352983	9411.000000
1691.366048	9371.000000
1692.378740	9241.000000
1693.391058	9266.666667
1694.403004	9236.666667
1695.414577	9185.333333
1696.425778	9111.333333
1697.436606	9039.666667
1698.447061	8976.666667
1699.457145	9006.000000
1700.466857	9006.666667
1701.476197	8825.333333
1702.485166	8854.000000
1703.493763	8801.666667
1704.501989	8794.000000
1705.509844	8764.000000
1706.517328	8729.000000
1707.524442	8718.000000
1708.531185	8698.666667
1709.537558	8615.333333
1710.543561	8658.666667
1711.549194	8627.666667
1712.554457	8625.000000
1713.559351	8667.000000
1714.563875	8596.000000
1715.568030	8637.666667
1716.571816	8727.000000
1717.575233	8649.000000
1718.578282	8661.000000
1719.580962	8651.666667
1720.583273	8708.666667
1721.585217	8648.333333
1722.586792	8775.000000
1723.588000	8717.666667
1724.588840	8749.000000
1725.589312	8640.000000
1726.589418	8720.666667
1727.589156	8674.000000
1728.588527	8634.666667
1729.587532	8712.000000
1730.586170	8643.000000
1731.584441	8659.333333
1732.582346	8688.666667
1733.579886	8693.000000
1734.577059	8710.666667
1735.573867	8610.333333
1736.570309	8601.333333
1737.566386	8575.666667
1738.562097	8599.333333
1739.557444	8597.333333
1740.552426	8530.000000
1741.547043	8385.333333
1742.541295	8447.000000
1743.535184	8397.666667
1744.528708	8391.333333
1745.521868	8339.000000
1746.514664	8348.333333
1747.507097	8324.333333
1748.499166	8297.333333
1749.490873	8224.666667
1750.482216	8302.666667
1751.473196	8252.333333
1752.463813	8276.333333
1753.454068	8287.000000
1754.443960	8211.666667
1755.433490	8238.666667
1756.422658	8162.000000
1757.411464	8199.666667
1758.399908	8151.666667
1759.387991	8105.000000
1760.375713	8116.333333
1761.363073	8109.000000
1762.350072	8159.666667
1763.336711	8122.000000
1764.322988	8080.333333
1765.308905	8052.000000
1766.294462	8032.666667
1767.279659	8025.333333
1768.264496	8014.666667
1769.248972	7967.000000
1770.233089	7981.333333
1771.216847	7856.000000
1772.200245	7867.333333
1773.183284	7864.333333
1774.165965	7802.000000
1775.148286	7736.333333
1776.130249	7740.000000
1777.111853	7746.000000
1778.093099	7675.333333
1779.073987	7605.000000
1780.054517	7572.666667
1781.034689	7600.000000
1782.014503	7544.333333
1782.993960	7484.000000
1783.973060	7449.333333
1784.951802	7443.333333
1785.930188	7369.000000
1786.908217	7363.000000
1787.885889	7353.333333
1788.863205	7374.333333
1789.840164	7295.000000
1790.816768	7394.000000
1791.793015	7223.666667
1792.768907	7321.000000
1793.744443	7199.000000
1794.719624	7242.000000
1795.694449	7172.000000
1796.668919	7182.666667
1797.643035	7219.666667
1798.616795	7283.333333
1799.590201	7314.666667
1800.563253	7281.666667
1801.535950	7344.000000
1802.508294	7232.000000
1803.480283	7362.000000
1804.451919	7264.000000
1805.423201	7341.000000
1806.394129	7345.333333
1807.364705	7325.333333
1808.334927	7325.666667
1809.304796	7313.000000
1810.274313	7414.666667
1811.243477	7353.333333
1812.212288	7267.666667
1813.180747	7265.666667
1814.148855	7271.333333
1815.116610	7213.000000
1816.084013	7307.000000
1817.051065	7289.333333
1818.017766	7328.666667
1818.984115	7258.000000
1819.950113	7321.000000
1820.915760	7282.000000
1821.881057	7226.000000
1822.846003	7193.333333
1823.810598	7177.000000
1824.774843	7206.666667
1825.738738	7191.666667
1826.702283	7196.333333
1827.665479	7183.666667
1828.628324	7148.666667
1829.590821	7172.333333
1830.552968	7135.000000
1831.514765	7061.000000
1832.476214	7112.666667
1833.437314	7091.000000
1834.398066	7053.666667
1835.358469	7076.000000
1836.318524	7040.666667
1837.278230	7054.333333
1838.237589	7064.333333
1839.196600	7007.333333
1840.155263	7045.000000
1841.113578	6976.333333
1842.071547	7018.000000
1843.029168	6984.000000
1843.986442	6983.666667
1844.943369	7006.666667
1845.899950	6973.333333
1846.856184	6951.000000
1847.812072	6938.333333
1848.767614	6980.000000
1849.722809	6967.000000
1850.677659	6949.333333
1851.632163	6908.333333
1852.586322	6883.333333
1853.540135	6853.666667
1854.493603	6902.333333
1855.446726	6836.000000
1856.399504	6775.000000
1857.351937	6782.333333
1858.304026	6713.000000
1859.255770	6784.333333
1860.207170	6669.666667
1861.158227	6685.666667
1862.108939	6666.000000
1863.059307	6583.000000
1864.009332	6554.000000
1864.959013	6577.000000
1865.908351	6547.333333
1866.857346	6390.333333
1867.805998	6479.333333
1868.754307	6477.333333
1869.702274	6377.000000
1870.649898	6409.666667
1871.597180	6315.666667
1872.544119	6275.000000
1873.490717	6362.666667
1874.436973	6281.333333
1875.382887	6332.666667
1876.328459	6250.333333
1877.273691	6303.666667
1878.218581	6170.666667
1879.163130	6270.333333
1880.107338	6268.000000
1881.051205	6279.000000
1881.994732	6292.000000
1882.937919	6274.333333
1883.880765	6284.666667
1884.823271	6250.666667
1885.765437	6365.000000
1886.707264	6266.000000
1887.648750	6313.333333
1888.589898	6356.666667
1889.530706	6410.000000
1890.471175	6326.666667
1891.411305	6336.666667
1892.351096	6339.333333
1893.290548	6344.333333
1894.229662	6378.000000
1895.168438	6396.000000
1896.106876	6344.000000
1897.044975	6314.333333
1897.982737	6334.333333
1898.920160	6282.333333
1899.857247	6261.333333
1900.793996	6278.000000
1901.730407	6249.333333
1902.666482	6260.666667
1903.602219	6200.333333
1904.537620	6191.000000
1905.472685	6204.000000
1906.407412	6158.666667
1907.341804	6060.333333
1908.275859	6094.000000
1909.209579	5983.666667
1910.142962	6036.666667
1911.076010	5959.666667
1912.008722	5926.000000
1912.941099	5941.000000
1913.873141	5947.333333
1914.804848	5813.000000
1915.736219	5801.333333
1916.667256	5774.333333
1917.597959	5778.333333
1918.528327	5738.000000
1919.458360	5723.000000
1920.388060	5797.333333
1921.317426	5735.333333
1922.246457	5699.000000
1923.175156	5709.000000
1924.103520	5716.000000
1925.031552	5672.333333
1925.959250	5707.666667
1926.886615	5654.000000
1927.813647	5640.000000
1928.740346	5704.000000
1929.666713	5684.333333
1930.592748	5644.000000
1931.518450	5598.333333
1932.443820	5622.333333
1933.368858	5624.000000
1934.293564	5635.333333
1935.217939	5645.000000
1936.141982	5646.666667
1937.065694	5590.333333
1937.989074	5587.000000
1938.912124	5620.333333
1939.834842	5535.000000
1940.757230	5541.666667
1941.679287	5542.333333
1942.601014	5502.000000
1943.522411	5454.333333
1944.443477	5475.333333
1945.364214	5501.333333
1946.284621	5433.000000
1947.204698	5440.333333
1948.124445	5319.666667
1949.043863	5366.333333
1949.962952	5314.666667
1950.881712	5353.666667
1951.800143	5290.666667
1952.718245	5269.000000
1953.636019	5270.333333
1954.553464	5249.666667
1955.470581	5234.333333
1956.387369	5193.333333
1957.303830	5201.666667
1958.219963	5190.333333
1959.135768	5247.333333
1960.051246	5210.666667
1960.966396	5251.000000
1961.881219	5207.333333
1962.795715	5206.666667
1963.709883	5216.333333
1964.623726	5236.666667
1965.537241	5194.666667
1966.450430	5229.333333
1967.363293	5242.333333
1968.275829	5246.666667
1969.188040	5239.666667
1970.099924	5256.666667
1971.011483	5340.000000
1971.922716	5295.333333
1972.833624	5249.666667
1973.744206	5257.666667
1974.654464	5267.333333
1975.564396	5237.666667
1976.474004	5227.000000
1977.383286	5298.666667
1978.292245	5239.666667
1979.200878	5233.333333
1980.109188	5252.666667
1981.017174	5132.000000
1981.924835	5223.333333
1982.832173	5142.333333
1983.739187	5135.333333
1984.645878	5137.333333
1985.552245	5031.333333
1986.458289	5046.333333
1987.364010	5035.333333
1988.269408	4965.666667
1989.174484	4953.333333
1990.079236	4998.666667
1990.983667	4936.666667
1991.887775	4905.333333
1992.791561	4889.333333
1993.695024	4846.000000
1994.598166	4816.666667
1995.500986	4792.666667
1996.403485	4830.333333
1997.305662	4741.000000
1998.207518	4713.666667
1999.109053	4743.000000
