200.151048	42162.000000
201.758777	42162.000000
203.365815	42087.333333
204.972162	41968.333333
206.577820	41862.666667
208.182787	41862.000000
209.787065	41622.333333
211.390653	41729.333333
212.993553	41670.333333
214.595765	41506.666667
216.197289	41535.000000
217.798125	41350.000000
219.398274	41432.000000
220.997737	41294.000000
222.596513	41212.333333
224.194603	41241.333333
225.792008	41235.333333
227.388728	41217.666667
228.984763	41214.666667
230.580114	41119.333333
232.174781	41067.333333
233.768765	41046.333333
235.362065	40983.333333
236.954683	40868.666667
238.546619	40760.000000
240.137872	40891.666667
241.728445	40740.333333
243.318336	40526.333333
244.907546	40507.333333
246.496076	40533.000000
248.083926	40363.333333
249.671097	40313.000000
251.257589	39988.000000
252.843402	40131.333333
254.428536	39873.333333
256.012993	40046.666667
257.596772	39577.666667
259.179874	39804.333333
260.762300	39647.333333
262.344049	39528.000000
263.925122	39503.000000
265.505519	39477.333333
267.085241	39522.333333
268.664289	39339.333333
270.242662	39274.666667
271.820361	39365.666667
273.397387	39341.666667
274.973740	39210.333333
276.549419	39486.666667
278.124426	39384.666667
279.698762	39545.000000
281.272425	39378.000000
282.845417	39412.666667
284.417739	39330.000000
285.989390	39472.666667
287.560371	39487.666667
289.130682	39267.000000
290.700324	39523.333333
292.269297	39381.333333
293.837602	39264.666667
295.405238	39399.000000
296.972207	39221.666667
298.538508	39367.000000
300.104142	39165.666667
301.669110	39186.666667
303.233411	38932.000000
304.797047	38963.666667
306.360017	38601.333333
307.922322	38609.333333
309.483963	38541.666667
311.044939	38685.000000
312.605252	38544.666667
314.164900	38220.666667
315.723886	38197.000000
317.282209	38074.000000
318.839870	38068.333333
320.396868	37832.666667
321.953205	37740.666667
323.508881	37833.666667
325.063896	37550.333333
326.618251	37736.000000
328.171945	37536.666667
329.724980	37561.000000
331.277356	37664.666667
332.829072	37385.000000
334.380131	37532.666667
335.930530	37598.333333
337.480273	37386.333333
339.029357	37532.666667
340.577785	37403.000000
342.125556	37552.333333
343.672671	37314.333333
345.219130	37423.666667
346.764933	37177.000000
348.310081	37346.333333
349.854575	37428.333333
351.398414	37204.000000
352.941599	37166.000000
354.484130	37304.666667
356.026008	37075.666667
357.567234	37156.666667
359.107807	37045.000000
360.647727	37042.000000
362.186996	36971.333333
363.725614	36983.000000
365.263580	36929.666667
366.800896	36893.666667
368.337562	36821.000000
369.873578	36857.666667
371.408944	36767.666667
372.943661	36776.000000
374.477730	36676.000000
376.011150	36745.666667
377.543922	36871.666667
379.076046	36874.333333
380.607523	36753.000000
382.138353	36790.000000
383.668537	37003.000000
385.198075	36724.000000
386.726966	37068.666667
388.255213	36980.333333
389.782814	36960.666667
391.309770	36985.333333
392.836083	37077.000000
394.361751	37076.666667
395.886776	37070.333333
397.411157	37329.666667
398.934896	37206.666667
400.457992	37248.666667
401.980446	37252.000000
403.502258	37351.666667
405.023429	37447.666667
406.543959	37446.666667
408.063849	37672.333333
409.583098	37674.000000
411.101707	37774.666667
412.619677	38110.000000
414.137007	38248.333333
415.653699	38331.666667
417.169752	38576.333333
418.685167	38876.666667
420.199945	39420.666667
421.714085	39500.000000
423.227588	39849.333333
424.740454	40083.333333
426.252684	40394.666667
427.764279	40316.000000
429.275238	40400.000000
430.785561	40431.000000
432.295250	40281.000000
433.804304	40129.333333
435.312725	39713.000000
436.820511	39489.333333
438.327664	39148.666667
439.834185	39120.000000
441.340072	38734.666667
442.845327	38775.000000
444.349951	38536.000000
445.853942	38624.333333
447.357303	38292.000000
448.860033	38250.333333
450.362132	38012.000000
451.863601	37911.000000
453.364440	37724.666667
454.864650	37527.000000
456.364231	37112.333333
457.863183	37133.000000
459.361507	36904.333333
460.859203	36767.000000
462.356271	36576.666667
463.852712	36347.000000
465.348526	36092.666667
466.843714	36036.666667
468.338275	35903.666667
469.832210	35779.333333
471.325520	35538.000000
472.818205	35350.000000
474.310265	35245.000000
475.801700	35306.000000
477.292512	35208.666667
478.782700	35141.000000
480.272264	35007.666667
481.761205	34882.666667
483.249524	34937.666667
484.737221	34857.000000
486.224295	34741.666667
487.710748	34792.333333
489.196579	34652.000000
490.681790	34636.666667
492.166380	34577.333333
493.650350	34404.000000
495.133700	34608.333333
496.616431	34294.666667
498.098542	34380.000000
499.580035	34380.666667
501.060909	34184.666667
502.541165	34179.666667
504.020804	34232.333333
505.499825	34195.666667
506.978228	33938.666667
508.456016	34093.333333
509.933186	34098.000000
511.409741	33948.333333
512.885680	33947.333333
514.361004	33991.333333
515.835713	33825.333333
517.309807	33845.666667
518.783287	33863.333333
520.256153	33759.000000
521.728406	33723.333333
523.200045	33881.666667
524.671071	33765.000000
526.141485	33841.333333
527.611287	33852.000000
529.080476	33918.333333
530.549054	33811.666667
532.017021	33783.000000
533.484378	33728.333333
534.951123	33760.666667
536.417259	33690.000000
537.882785	33616.000000
539.347701	33745.333333
540.812008	33564.666667
542.275707	33533.333333
543.738797	33624.666667
545.201279	33624.000000
546.663153	33520.666667
548.124420	33639.333333
549.585080	33748.333333
551.045133	33754.333333
552.504579	33672.000000
553.963420	33784.000000
555.421655	33751.333333
556.879285	33917.666667
558.336309	33935.333333
559.792729	33973.000000
561.248545	34049.333333
562.703756	34020.333333
564.158364	34123.333333
565.612369	34144.666667
567.065770	34249.333333
568.518569	34426.000000
569.970766	34409.333333
571.422361	34631.666667
572.873354	34594.666667
574.323745	35016.333333
575.773536	35202.333333
577.222726	35348.666667
578.671316	35429.000000
580.119306	35626.666667
581.566696	35567.666667
583.013487	35511.333333
584.459679	35566.333333
585.905273	35404.666667
587.350268	35455.666667
588.794665	35446.333333
590.238465	35384.000000
591.681667	35204.000000
593.124272	35080.333333
594.566281	34800.000000
596.007694	34556.000000
597.448510	34342.000000
598.888731	33954.000000
600.328357	33632.000000
601.767388	33656.333333
603.205824	33446.333333
604.643666	33604.000000
606.080914	33361.333333
607.517568	33388.000000
608.953629	33372.333333
610.389097	33359.000000
611.823972	33019.000000
613.258255	33084.000000
614.691946	32786.333333
616.125046	32821.000000
617.557554	32642.666667
618.989471	32422.333333
620.420798	32259.666667
621.851534	32131.000000
623.281680	31990.000000
624.711237	31704.666667
626.140204	31582.666667
627.568582	31486.000000
628.996372	31574.333333
630.423573	31328.333333
631.850186	31198.000000
633.276211	31300.333333
634.701650	31155.000000
636.126501	31004.000000
637.550765	31020.666667
638.974443	30951.333333
640.397535	31023.000000
641.820041	30779.000000
643.241961	31012.000000
644.663297	30829.000000
646.084048	30718.000000
647.504214	30814.000000
648.923796	30607.000000
650.342795	30761.000000
651.761210	30637.333333
653.179041	30575.000000
654.596290	30510.000000
656.012957	30530.000000
657.429041	30433.666667
658.844543	30506.000000
660.259464	30467.666667
661.673804	30349.000000
663.087563	30429.000000
664.500741	30220.000000
665.913339	30328.333333
667.325357	30218.333333
668.736795	30446.333333
670.147654	30253.666667
671.557934	30313.000000
672.967636	30153.666667
674.376759	30281.000000
675.785304	30004.666667
677.193271	30143.000000
678.600661	30078.666667
680.007474	29890.333333
681.413711	29928.666667
682.819370	29938.000000
684.224454	29877.666667
685.628962	29870.666667
687.032895	29922.666667
688.436252	29678.000000
689.839034	29923.333333
691.241242	29626.333333
692.642876	29818.666667
694.043936	29708.666667
695.444422	29541.666667
696.844336	29626.000000
698.243676	29613.333333
699.642443	29541.333333
701.040639	29476.666667
702.438262	29538.333333
703.835313	29461.666667
705.231794	29476.000000
706.627703	29472.333333
708.023041	29338.000000
709.417810	29407.333333
710.812008	29359.333333
712.205636	29321.333333
713.598694	29323.000000
714.991184	29248.000000
716.383105	29272.666667
717.774457	29227.333333
719.165241	29150.000000
720.555457	29145.333333
721.945105	29259.333333
723.334187	29009.666667
724.722701	29088.333333
726.110648	29014.000000
727.498030	29030.000000
728.884845	29011.333333
730.271094	29028.666667
731.656778	29009.333333
733.041897	28875.333333
734.426451	28915.666667
735.810441	28791.000000
737.193866	28840.666667
738.576728	28848.333333
739.959026	28826.333333
741.340760	28788.000000
742.721932	28767.000000
744.102541	28789.000000
745.482588	28664.666667
746.862073	28590.333333
748.240996	28727.333333
749.619358	28691.000000
750.997158	28622.666667
752.374398	28760.666667
753.751077	28666.666667
755.127197	28635.333333
756.502756	28554.000000
757.877756	28577.666667
759.252196	28547.333333
760.626078	28510.333333
761.999400	28355.000000
763.372165	28412.000000
764.744371	28384.666667
766.116020	28352.333333
767.487111	28326.000000
768.857646	28216.333333
770.227623	28103.666667
771.597044	28125.000000
772.965908	27995.000000
774.334217	28022.666667
775.701970	27850.000000
777.069168	27855.000000
778.435811	27787.333333
779.801899	27804.000000
781.167433	27820.000000
782.532412	27884.000000
783.896838	27741.000000
785.260710	27781.000000
786.624029	27548.333333
787.986796	27518.000000
789.349009	27564.333333
790.710671	27497.666667
792.071780	27460.666667
793.432338	27538.666667
794.792344	27462.666667
796.151799	27330.000000
797.510704	27334.000000
798.869058	27275.666667
800.226862	27246.000000
801.584116	27212.666667
802.940820	27303.666667
804.296975	27283.666667
805.652581	27258.666667
807.007638	27188.666667
808.362147	27350.333333
809.716108	27188.000000
811.069521	27213.000000
812.422387	27427.666667
813.774705	27297.333333
815.126476	27384.333333
816.477701	27299.666667
817.828380	27263.666667
819.178512	27162.666667
820.528099	26946.000000
821.877140	27139.333333
823.225637	27037.000000
824.573588	26919.666667
825.920995	26877.000000
827.267857	26949.333333
828.614176	26751.666667
829.959951	26873.666667
831.305183	26837.666667
832.649871	26894.000000
833.994017	26822.333333
835.337620	26771.666667
836.680681	26845.000000
838.023201	26689.333333
839.365178	26814.333333
840.706614	26724.000000
842.047510	26822.333333
843.387864	26823.333333
844.727678	26902.666667
846.066952	26892.666667
847.405687	26942.666667
848.743881	27142.666667
850.081537	27091.666667
851.418653	27119.000000
852.755231	27031.666667
854.091270	27105.666667
855.426771	27332.666667
856.761735	27246.333333
858.096160	27020.333333
859.430049	26821.000000
860.763401	26867.000000
862.096216	26809.333333
863.428495	26738.333333
864.760237	26628.333333
866.091444	26632.666667
867.422115	26568.333333
868.752252	26522.000000
870.081853	26483.333333
871.410919	26392.333333
872.739452	26433.666667
874.067450	26590.666667
875.394914	26284.333333
876.721845	26370.333333
878.048243	26343.333333
879.374108	26337.333333
880.699440	26258.000000
882.024240	26256.666667
883.348508	26192.000000
884.672244	26222.666667
885.995449	25964.000000
887.318122	25923.666667
888.640265	25886.333333
889.961877	25746.666667
891.282959	25684.333333
892.603510	25773.666667
893.923532	25549.666667
895.243024	25524.333333
896.561987	25636.666667
897.880422	25488.000000
899.198327	25559.333333
900.515705	25380.333333
901.832554	25443.000000
903.148875	25460.000000
904.464669	25344.666667
905.779936	25362.333333
907.094676	25372.666667
908.408889	25333.000000
909.722576	25453.333333
911.035737	25463.333333
912.348371	25552.000000
913.660481	25602.333333
914.972065	25723.333333
916.283124	25919.000000
917.593659	25819.000000
918.903669	25941.666667
920.213155	25973.000000
921.522117	25874.333333
922.830556	25894.000000
924.138471	25875.666667
925.445864	26006.666667
926.752733	25873.666667
928.059081	25917.000000
929.364906	26048.666667
930.670209	25995.666667
931.974991	26324.666667
933.279251	26449.000000
934.582990	26649.000000
935.886209	26964.333333
937.188907	26930.666667
938.491085	27148.666667
939.792743	27607.000000
941.093881	27941.000000
942.394500	28464.333333
943.694600	28873.666667
944.994181	29571.666667
946.293243	30346.666667
947.591787	31183.666667
948.889813	32208.000000
950.187322	33427.666667
951.484313	34669.333333
952.780787	36255.000000
954.076744	38005.333333
955.372184	39309.000000
956.667108	40606.666667
957.961516	41830.333333
959.255409	41983.333333
960.548785	41739.333333
961.841647	40769.666667
963.133993	39265.000000
964.425825	37652.333333
965.717142	35930.333333
967.007946	34097.333333
968.298235	31930.000000
969.588011	30512.000000
970.877273	29252.666667
972.166023	28014.000000
973.454259	27210.000000
974.741984	26451.333333
976.029196	25803.000000
977.315895	25345.000000
978.602084	24943.666667
979.887761	24646.666667
981.172926	24309.000000
982.457581	24287.000000
983.741725	24062.333333
985.025359	23934.333333
986.308483	23786.000000
987.591097	23971.333333
988.873202	23642.000000
990.154797	23663.666667
991.435883	23628.333333
992.716461	23511.333333
993.996530	23617.333333
995.276091	23562.666667
996.555144	23620.000000
997.833690	23675.333333
999.111728	23747.000000
1000.389259	23796.333333
1001.666283	23820.333333
1002.942800	23882.333333
1004.218812	23887.666667
1005.494317	23648.666667
1006.769317	23721.666667
1008.043811	23654.666667
1009.317799	23595.666667
1010.591283	23606.333333
1011.864263	23566.666667
1013.136737	23503.000000
1014.408708	23639.000000
1015.680175	23758.000000
1016.951138	23621.333333
1018.221598	23701.333333
1019.491554	23677.000000
1020.761008	23659.000000
1022.029959	23799.666667
1023.298408	23676.000000
1024.566355	23783.333333
1025.833800	23856.666667
1027.100744	23911.666667
1028.367187	23895.333333
1029.633128	23917.000000
1030.898569	23823.666667
1032.163509	23969.000000
1033.427949	23933.000000
1034.691890	23961.666667
1035.955330	24048.000000
1037.218271	23923.333333
1038.480714	23939.333333
1039.742657	23974.333333
1041.004101	24024.333333
1042.265048	23931.666667
1043.525496	23982.333333
1044.785446	24060.000000
1046.044899	23800.666667
1047.303855	23889.333333
1048.562313	23881.666667
1049.820275	23709.333333
1051.077740	23727.666667
1052.334709	23583.666667
1053.591182	23618.000000
1054.847160	23688.666667
1056.102641	23658.666667
1057.357628	23628.666667
1058.612120	23509.333333
1059.866117	23761.666667
1061.119619	23805.666667
1062.372628	23784.000000
1063.625142	23984.000000
1064.877163	24059.666667
1066.128691	23988.333333
1067.379725	24210.000000
1068.630267	24156.333333
1069.880316	24270.666667
1071.129872	24271.666667
1072.378937	24126.000000
1073.627509	23954.666667
1074.875590	23836.666667
1076.123180	23547.333333
1077.370279	23391.000000
1078.616887	23071.000000
1079.863004	22893.000000
1081.108631	22923.333333
1082.353768	22591.666667
1083.598415	22374.333333
1084.842573	22180.666667
1086.086241	22157.000000
1087.329421	21938.333333
1088.572111	21648.666667
1089.814314	21810.666667
1091.056028	21616.666667
1092.297253	21556.000000
1093.537992	21418.000000
1094.778242	21278.666667
1096.018006	21318.666667
1097.257282	21254.000000
1098.496072	21043.333333
1099.734376	21336.666667
1100.972193	20984.666667
1102.209524	21017.666667
1103.446370	21148.000000
1104.682730	20838.000000
1105.918604	20887.000000
1107.153994	20817.666667
1108.388900	20684.333333
1109.623320	20551.333333
1110.857257	20680.333333
1112.090710	20605.666667
1113.323679	20488.333333
1114.556164	20391.333333
1115.788167	20230.666667
1117.019686	20220.000000
1118.250723	20144.333333
1119.481278	20300.666667
1120.711350	20129.000000
1121.940940	20063.666667
1123.170049	20077.333333
1124.398676	20131.000000
1125.626823	20057.666667
1126.854488	19908.333333
1128.081672	19919.666667
1129.308376	19907.333333
1130.534600	19978.666667
1131.760345	19779.000000
1132.985609	19839.000000
1134.210394	19946.000000
1135.434700	19852.000000
1136.658527	19733.333333
1137.881875	19777.000000
1139.104745	19673.666667
1140.327136	19756.666667
1141.549050	19652.000000
1142.770486	19614.333333
1143.991445	19527.000000
1145.211926	19623.000000
1146.431931	19581.000000
1147.651459	19587.666667
1148.870510	19529.333333
1150.089086	19487.000000
1151.307185	19521.000000
1152.524808	19606.666667
1153.741957	19511.333333
1154.958630	19400.333333
1156.174828	19455.000000
1157.390551	19378.000000
1158.605800	19376.000000
1159.820574	19451.666667
1161.034875	19387.666667
1162.248702	19302.666667
1163.462055	19286.333333
1164.674936	19295.666667
1165.887343	19290.333333
1167.099277	19241.000000
1168.310739	19239.666667
1169.521729	19250.333333
1170.732247	19305.000000
1171.942293	19196.666667
1173.151867	19250.666667
1174.360970	19204.333333
1175.569602	19118.666667
1176.777764	19106.000000
1177.985454	19085.333333
1179.192675	18962.000000
1180.399425	18919.666667
1181.605706	18945.000000
1182.811517	18868.333333
1184.016859	18833.333333
1185.221731	18747.000000
1186.426135	18806.666667
1187.630070	18758.666667
1188.833537	18681.333333
1190.036535	18640.000000
1191.239066	18645.333333
1192.441129	18590.000000
1193.642725	18488.000000
1194.843853	18593.333333
1196.044515	18564.000000
1197.244710	18552.000000
1198.444438	18646.333333
1199.643701	18483.333333
1200.842497	18472.000000
1202.040827	18418.666667
1203.238693	18472.000000
1204.436092	18378.666667
1205.633027	18444.333333
1206.829497	18391.000000
1208.025503	18341.000000
1209.221044	18239.666667
1210.416122	18230.000000
1211.610735	18315.666667
1212.804885	18206.000000
1213.998572	18163.333333
1215.191795	18159.000000
1216.384556	17869.333333
1217.576854	17885.666667
1218.768689	17939.666667
1219.960063	17951.333333
1221.150974	17800.000000
1222.341424	17952.333333
1223.531413	17938.333333
1224.720940	17828.000000
1225.910006	17952.000000
1227.098612	18084.000000
1228.286757	18022.333333
1229.474442	18038.000000
1230.661667	17952.666667
1231.848432	18167.666667
1233.034738	18275.000000
1234.220584	18261.333333
1235.405971	18235.666667
1236.590900	18203.000000
1237.775369	18286.666667
1238.959381	18344.333333
1240.142934	18309.333333
1241.326029	18329.000000
1242.508667	18436.000000
1243.690848	18363.333333
1244.872571	18325.666667
1246.053837	18531.333333
1247.234646	18370.333333
1248.414999	18371.666667
1249.594896	18221.666667
1250.774337	18045.000000
1251.953322	18145.666667
1253.131851	18008.333333
1254.309925	18073.000000
1255.487544	17899.333333
1256.664708	17939.666667
1257.841417	17940.000000
1259.017673	18010.666667
1260.193473	17838.333333
1261.368820	17950.000000
1262.543714	17884.666667
1263.718154	17994.333333
1264.892140	17876.000000
1266.065674	17868.000000
1267.238755	18067.333333
1268.411383	17857.666667
1269.583559	17976.666667
1270.755283	17916.333333
1271.926555	17938.666667
1273.097375	17909.000000
1274.267744	17882.000000
1275.437662	17738.666667
1276.607129	17719.666667
1277.776145	17729.666667
1278.944711	17652.000000
1280.112827	17651.333333
1281.280492	17606.666667
1282.447708	17605.666667
1283.614474	17479.333333
1284.780791	17404.333333
1285.946659	17538.000000
1287.112078	17392.666667
1288.277048	17286.666667
1289.441570	17230.666667
1290.605644	17180.666667
1291.769270	17082.000000
1292.932448	16980.000000
1294.095178	16955.333333
1295.257461	16917.666667
1296.419298	16844.333333
1297.580687	16669.000000
1298.741630	16776.333333
1299.902126	16764.666667
1301.062177	16676.666667
1302.221781	16690.000000
1303.380940	16638.333333
1304.539653	16811.666667
1305.697921	16657.666667
1306.855744	16640.666667
1308.013123	16618.333333
1309.170056	16748.000000
1310.326546	16643.666667
1311.482591	16661.333333
1312.638193	16566.000000
1313.793350	16701.000000
1314.948065	16642.000000
1316.102336	16596.333333
1317.256164	16544.666667
1318.409550	16507.000000
1319.562493	16540.000000
1320.714993	16320.000000
1321.867052	16374.333333
1323.018668	16320.666667
1324.169843	16304.000000
1325.320577	16223.000000
1326.470870	16135.000000
1327.620721	16145.000000
1328.770132	16014.666667
1329.919102	15996.333333
1331.067632	15986.666667
1332.215722	15922.000000
1333.363372	15919.666667
1334.510582	15937.000000
1335.657353	16024.333333
1336.803685	15848.333333
1337.949578	15970.666667
1339.095032	15994.000000
1340.240048	15915.333333
1341.384625	15934.000000
1342.528764	15885.000000
1343.672466	15972.000000
1344.815729	15947.000000
1345.958556	15811.000000
1347.100945	15852.333333
1348.242897	15764.000000
1349.384413	15789.666667
1350.525492	15600.333333
1351.666134	15721.000000
1352.806341	15499.666667
1353.946111	15605.333333
1355.085446	15597.333333
1356.224346	15491.666667
1357.362810	15486.333333
1358.500840	15483.666667
1359.638434	15489.666667
1360.775594	15385.666667
1361.912320	15279.000000
1363.048612	15168.333333
1364.184469	15262.000000
1365.319893	15360.666667
1366.454884	15222.666667
1367.589441	15179.000000
1368.723566	15240.000000
1369.857257	15114.666667
1370.990516	15193.000000
1372.123343	15223.333333
1373.255737	15305.333333
1374.387699	15215.000000
1375.519230	15359.333333
1376.650329	15249.333333
1377.780997	15312.000000
1378.911234	15409.333333
1380.041040	15383.000000
1381.170416	15374.666667
1382.299361	15248.333333
1383.427875	15300.000000
1384.555960	15301.333333
1385.683615	15105.666667
1386.810841	15203.333333
1387.937637	15073.666667
1389.064004	15170.666667
1390.189942	15139.666667
1391.315451	15160.333333
1392.440532	15051.333333
1393.565185	15120.666667
1394.689409	15083.333333
1395.813206	15050.666667
1396.936575	14957.666667
1398.059517	14913.666667
1399.182032	14899.000000
1400.304119	15034.666667
1401.425780	14939.666667
1402.547014	14776.333333
1403.667822	14895.666667
1404.788204	14884.666667
1405.908160	14837.000000
1407.027690	14834.666667
1408.146795	14853.000000
1409.265474	14772.666667
1410.383728	14844.666667
1411.501558	14851.666667
1412.618963	14819.000000
1413.735943	14864.666667
1414.852499	14768.000000
1415.968632	14900.000000
1417.084340	14821.666667
1418.199625	14904.333333
1419.314486	14833.000000
1420.428925	14890.666667
1421.542940	14958.333333
1422.656533	14883.666667
1423.769703	14823.666667
1424.882451	14735.000000
1425.994777	14777.000000
1427.106680	14590.000000
1428.218163	14759.333333
1429.329223	14559.333333
1430.439863	14512.000000
1431.550081	14643.000000
1432.659879	14461.666667
1433.769256	14389.666667
1434.878212	14495.000000
1435.986749	14544.666667
1437.094865	14586.000000
1438.202562	14526.000000
1439.309839	14547.000000
1440.416696	14716.333333
1441.523135	14668.333333
1442.629154	14671.666667
1443.734755	14706.000000
1444.839937	14684.333333
1445.944701	14668.333333
1447.049047	14874.000000
1448.152975	14908.333333
1449.256485	14792.000000
1450.359577	14940.666667
1451.462253	14802.666667
1452.564511	14689.000000
1453.666352	14759.333333
1454.767777	14636.333333
1455.868785	14706.666667
1456.969377	14620.333333
1458.069553	14530.000000
1459.169313	14501.333333
1460.268658	14538.000000
1461.367587	14377.000000
1462.466101	14306.666667
1463.564200	14310.666667
1464.661884	14173.666667
1465.759153	14142.666667
1466.856008	14039.000000
1467.952449	13933.666667
1469.048476	13830.333333
1470.144089	13648.333333
1471.239288	13593.666667
1472.334074	13544.333333
1473.428447	13534.666667
1474.522407	13384.333333
1475.615955	13327.666667
1476.709089	13274.000000
1477.801812	13255.000000
1478.894122	13106.666667
1479.986020	13165.666667
1481.077506	13058.000000
1482.168581	13054.000000
1483.259245	13042.000000
1484.349498	13062.666667
1485.439339	13021.666667
1486.528770	12925.666667
1487.617790	12909.333333
1488.706400	12956.333333
1489.794600	12938.000000
1490.882390	12926.333333
1491.969771	12901.000000
1493.056742	12839.000000
1494.143303	12875.666667
1495.229456	12708.333333
1496.315199	12767.666667
1497.400534	12763.000000
1498.485460	12651.000000
1499.569978	12636.666667
1500.654088	12590.666667
1501.737790	12583.000000
1502.821085	12543.666667
1503.903972	12552.666667
1504.986451	12619.000000
1506.068524	12436.666667
1507.150189	12310.666667
1508.231448	12390.666667
1509.312301	12328.666667
1510.392747	12404.333333
1511.472787	12374.666667
1512.552422	12143.666667
1513.631650	12168.000000
1514.710473	12232.666667
1515.788891	12229.666667
1516.866904	12130.666667
1517.944512	12128.000000
1519.021715	12221.000000
1520.098513	12121.333333
1521.174908	12254.000000
1522.250898	12200.000000
1523.326485	12184.000000
1524.401667	12243.666667
1525.476447	12301.000000
1526.550823	12212.333333
1527.624796	12155.000000
1528.698365	12129.000000
1529.771533	12218.000000
1530.844298	12116.666667
1531.916660	12075.333333
1532.988620	12238.000000
1534.060179	12196.333333
1535.131336	12153.666667
1536.202091	12021.333333
1537.272445	12065.666667
1538.342398	12011.333333
1539.411950	12023.666667
1540.481101	11963.000000
1541.549851	11948.333333
1542.618202	11809.000000
1543.686152	11889.000000
1544.753702	11907.000000
1545.820853	11746.666667
1546.887604	11719.333333
1547.953955	11790.000000
1549.019908	11740.333333
1550.085461	11682.000000
1551.150616	11675.666667
1552.215372	11615.666667
1553.279730	11639.333333
1554.343690	11601.333333
1555.407252	11657.333333
1556.470415	11664.666667
1557.533182	11551.000000
1558.595551	11624.666667
1559.657522	11557.666667
1560.719097	11586.000000
1561.780275	11493.333333
1562.841056	11497.000000
1563.901441	11497.666667
1564.961429	11558.666667
1566.021022	11459.333333
1567.080219	11503.666667
1568.139020	11517.666667
1569.197425	11519.000000
1570.255436	11371.333333
1571.313051	11421.000000
1572.370271	11397.333333
1573.427097	11300.333333
1574.483528	11401.666667
1575.539565	11403.333333
1576.595208	11310.666667
1577.650457	11310.666667
1578.705312	11230.333333
1579.759774	11192.333333
1580.813842	11225.666667
1581.867517	11207.000000
1582.920799	11080.333333
1583.973689	11006.333333
1585.026186	11116.333333
1586.078290	11087.666667
1587.130002	11025.333333
1588.181323	10991.333333
1589.232251	11003.666667
1590.282788	10969.333333
1591.332933	11009.000000
1592.382688	11005.333333
1593.432051	11033.000000
1594.481023	10996.666667
1595.529605	10986.000000
1596.577796	10976.666667
1597.625597	11095.666667
1598.673007	11094.333333
1599.720028	10920.666667
1600.766660	11055.000000
1601.812901	11090.666667
1602.858753	11076.666667
1603.904217	11042.000000
1604.949291	11049.000000
1605.993976	11109.333333
1607.038273	11050.333333
1608.082182	10993.666667
1609.125702	10953.333333
1610.168834	11070.333333
1611.211579	10951.333333
1612.253935	11004.666667
1613.295905	10921.333333
1614.337487	10924.000000
1615.378682	10867.000000
1616.419490	10850.333333
1617.459912	10921.000000
1618.499946	10891.000000
1619.539595	10734.000000
1620.578858	10798.333333
1621.617734	10810.000000
1622.656225	10742.333333
1623.694330	10789.666667
1624.732050	10691.333333
1625.769385	10699.000000
1626.806334	10775.000000
1627.842899	10748.000000
1628.879079	10766.666667
1629.914875	10761.000000
1630.950286	10702.666667
1631.985314	10672.000000
1633.019957	10780.000000
1634.054217	10745.000000
1635.088093	10823.666667
1636.121586	10782.666667
1637.154696	10685.333333
1638.187423	10669.333333
1639.219767	10845.000000
1640.251728	10666.666667
1641.283307	10804.333333
1642.314504	10782.666667
1643.345319	10799.000000
1644.375751	10766.666667
1645.405803	10711.000000
1646.435472	10784.333333
1647.464761	10748.333333
1648.493668	10781.000000
1649.522194	10785.333333
1650.550340	10677.000000
1651.578105	10741.666667
1652.605490	10711.666667
1653.632494	10706.666667
1654.659119	10631.000000
1655.685363	10556.333333
1656.711228	10681.000000
1657.736714	10597.333333
1658.761820	10524.666667
1659.786547	10603.666667
1660.810895	10537.000000
1661.834865	10489.333333
1662.858456	10456.333333
1663.881668	10456.666667
1664.904503	10424.333333
1665.926959	10369.333333
1666.949038	10332.000000
1667.970739	10296.666667
1668.992062	10215.333333
1670.013008	10214.000000
1671.033577	10176.333333
1672.053770	10120.333333
1673.073585	10124.666667
1674.093024	10161.000000
1675.112086	10126.666667
1676.130773	10095.333333
1677.149083	10110.000000
1678.167017	10107.666667
1679.184576	10042.000000
1680.201760	10024.666667
1681.218568	10018.666667
1682.235001	10071.333333
1683.251059	9959.333333
1684.266742	10028.666667
1685.282051	9874.666667
1686.296985	9908.333333
1687.311546	9921.666667
1688.325732	9839.666667
1689.339544	9764.666667
1690.352983	9808.666667
1691.366048	9706.000000
1692.378740	9675.000000
1693.391058	9591.000000
1694.403004	9526.333333
1695.414577	9512.666667
1696.425778	9469.666667
1697.436606	9418.666667
1698.447061	9344.333333
1699.457145	9363.333333
1700.466857	9292.333333
1701.476197	9183.666667
1702.485166	9166.333333
1703.493763	9181.000000
1704.501989	9135.333333
1705.509844	9174.000000
1706.517328	9003.333333
1707.524442	9031.333333
1708.531185	9029.666667
1709.537558	9017.000000
1710.543561	8987.000000
1711.549194	9010.000000
1712.554457	9007.000000
1713.559351	8980.666667
1714.563875	9058.333333
1715.568030	8916.666667
1716.571816	9052.666667
1717.575233	8981.666667
1718.578282	8991.000000
1719.580962	8947.666667
1720.583273	9081.000000
1721.585217	9073.000000
1722.586792	8974.000000
1723.588000	9023.666667
1724.588840	9103.000000
1725.589312	9061.000000
1726.589418	9106.000000
1727.589156	9035.333333
1728.588527	9038.000000
1729.587532	9076.333333
1730.586170	9049.000000
1731.584441	9006.000000
1732.582346	9068.666667
1733.579886	8942.333333
1734.577059	9036.000000
1735.573867	8993.333333
1736.570309	8973.333333
1737.566386	8847.000000
1738.562097	8891.000000
1739.557444	8849.666667
1740.552426	8778.666667
1741.547043	8812.000000
1742.541295	8755.000000
1743.535184	8690.000000
1744.528708	8780.000000
1745.521868	8675.666667
1746.514664	8645.666667
1747.507097	8686.333333
1748.499166	8657.333333
1749.490873	8576.666667
1750.482216	8591.333333
1751.473196	8511.666667
1752.463813	8605.333333
1753.454068	8484.000000
1754.443960	8623.333333
1755.433490	8536.333333
1756.422658	8438.666667
1757.411464	8596.333333
1758.399908	8604.666667
1759.387991	8544.666667
1760.375713	8530.666667
1761.363073	8453.666667
1762.350072	8439.333333
1763.336711	8385.333333
1764.322988	8363.000000
1765.308905	8385.666667
1766.294462	8365.666667
1767.279659	8405.000000
1768.264496	8340.333333
1769.248972	8271.333333
1770.233089	8301.333333
1771.216847	8150.666667
1772.200245	8207.000000
1773.183284	8222.666667
1774.165965	8153.333333
1775.148286	8055.333333
1776.130249	8059.000000
1777.111853	8116.000000
1778.093099	7995.333333
1779.073987	8017.666667
1780.054517	7975.333333
1781.034689	7843.666667
1782.014503	7832.333333
1782.993960	7792.666667
1783.973060	7835.666667
1784.951802	7738.666667
1785.930188	7707.000000
1786.908217	7680.666667
1787.885889	7654.666667
1788.863205	7556.000000
1789.840164	7652.666667
1790.816768	7563.333333
1791.793015	7567.000000
1792.768907	7565.000000
1793.744443	7574.666667
1794.719624	7475.000000
1795.694449	7612.333333
1796.668919	7519.333333
1797.643035	7489.666667
1798.616795	7568.666667
1799.590201	7540.333333
1800.563253	7570.000000
1801.535950	7597.333333
1802.508294	7577.000000
1803.480283	7559.333333
1804.451919	7556.666667
1805.423201	7608.000000
1806.394129	7580.000000
1807.364705	7569.666667
1808.334927	7662.333333
1809.304796	7582.666667
1810.274313	7586.000000
1811.243477	7675.333333
1812.212288	7630.666667
1813.180747	7669.666667
1814.148855	7580.000000
1815.116610	7571.333333
1816.084013	7540.000000
1817.051065	7604.000000
1818.017766	7614.666667
1818.984115	7633.000000
1819.950113	7550.666667
1820.915760	7566.666667
1821.881057	7455.000000
1822.846003	7546.666667
1823.810598	7553.333333
1824.774843	7513.333333
1825.738738	7477.666667
1826.702283	7469.000000
1827.665479	7474.000000
1828.628324	7426.000000
1829.590821	7399.333333
1830.552968	7385.000000
1831.514765	7418.000000
1832.476214	7348.000000
1833.437314	7407.333333
1834.398066	7394.666667
1835.358469	7412.333333
1836.318524	7399.000000
1837.278230	7351.333333
1838.237589	7362.333333
1839.196600	7307.666667
1840.155263	7313.333333
1841.113578	7249.666667
1842.071547	7296.666667
1843.029168	7318.000000
1843.986442	7270.333333
1844.943369	7289.000000
1845.899950	7296.333333
1846.856184	7302.666667
1847.812072	7246.000000
1848.767614	7198.333333
1849.722809	7251.333333
1850.677659	7241.000000
1851.632163	7217.666667
1852.586322	7184.000000
1853.540135	7178.666667
1854.493603	7150.666667
1855.446726	7107.666667
1856.399504	7102.333333
1857.351937	7048.333333
1858.304026	7017.666667
1859.255770	6997.666667
1860.207170	6974.666667
1861.158227	6922.000000
1862.108939	6937.333333
1863.059307	6844.333333
1864.009332	6875.333333
1864.959013	6854.333333
1865.908351	6756.000000
1866.857346	6763.666667
1867.805998	6673.333333
1868.754307	6684.666667
1869.702274	6651.333333
1870.649898	6654.666667
1871.597180	6643.666667
1872.544119	6570.666667
1873.490717	6541.666667
1874.436973	6573.666667
1875.382887	6548.000000
1876.328459	6526.666667
1877.273691	6498.333333
1878.218581	6522.000000
1879.163130	6533.333333
1880.107338	6593.666667
1881.051205	6506.333333
1881.994732	6534.333333
1882.937919	6511.333333
1883.880765	6538.666667
1884.823271	6492.666667
1885.765437	6568.000000
1886.707264	6581.666667
1887.648750	6601.000000
1888.589898	6608.333333
1889.530706	6626.333333
1890.471175	6608.666667
1891.411305	6608.333333
1892.351096	6626.666667
1893.290548	6660.000000
1894.229662	6619.000000
1895.168438	6572.666667
1896.106876	6590.666667
1897.044975	6578.000000
1897.982737	6540.666667
1898.920160	6549.000000
1899.857247	6585.666667
1900.793996	6527.000000
1901.730407	6508.666667
1902.666482	6531.000000
1903.602219	6479.333333
1904.537620	6508.000000
1905.472685	6397.666667
1906.407412	6434.333333
1907.341804	6368.666667
1908.275859	6326.333333
1909.209579	6311.000000
1910.142962	6306.000000
1911.076010	6291.666667
1912.008722	6220.666667
1912.941099	6240.000000
1913.873141	6128.666667
1914.804848	6099.666667
1915.736219	6026.333333
1916.667256	6079.000000
1917.597959	6098.000000
1918.528327	6025.666667
1919.458360	6056.333333
1920.388060	5965.000000
1921.317426	5904.666667
1922.246457	6044.000000
1923.175156	5966.333333
1924.103520	5963.666667
1925.031552	5954.000000
1925.959250	5921.333333
1926.886615	5908.666667
1927.813647	5911.333333
1928.740346	5907.333333
1929.666713	5873.000000
1930.592748	5998.666667
1931.518450	5882.666667
1932.443820	5874.000000
1933.368858	5874.666667
1934.293564	5899.333333
1935.217939	5878.333333
1936.141982	5844.666667
1937.065694	5852.000000
1937.989074	5868.333333
1938.912124	5844.000000
1939.834842	5780.333333
1940.757230	5775.333333
1941.679287	5815.666667
1942.601014	5737.000000
1943.522411	5741.000000
1944.443477	5701.666667
1945.364214	5686.333333
1946.284621	5575.333333
1947.204698	5674.333333
1948.124445	5627.333333
1949.043863	5628.333333
1949.962952	5562.333333
1950.881712	5574.000000
1951.800143	5503.000000
1952.718245	5429.000000
1953.636019	5499.000000
1954.553464	5507.333333
1955.470581	5473.333333
1956.387369	5483.666667
1957.303830	5484.666667
1958.219963	5423.666667
1959.135768	5428.333333
1960.051246	5473.333333
1960.966396	5467.000000
1961.881219	5420.000000
1962.795715	5439.666667
1963.709883	5465.333333
1964.623726	5524.666667
1965.537241	5475.666667
1966.450430	5493.333333
1967.363293	5529.666667
1968.275829	5493.666667
1969.188040	5493.000000
1970.099924	5500.333333
1971.011483	5485.666667
1971.922716	5483.333333
1972.833624	5536.666667
1973.744206	5499.000000
1974.654464	5502.666667
1975.564396	5542.333333
1976.474004	5509.333333
1977.383286	5477.666667
1978.292245	5477.000000
1979.200878	5447.000000
1980.109188	5409.666667
1981.017174	5414.000000
1981.924835	5369.666667
1982.832173	5349.000000
1983.739187	5353.000000
1984.645878	5345.333333
1985.552245	5293.333333
1986.458289	5251.000000
1987.364010	5213.000000
1988.269408	5273.666667
1989.174484	5212.333333
1990.079236	5160.666667
1990.983667	5141.333333
1991.887775	5093.666667
1992.791561	5058.333333
1993.695024	5087.000000
1994.598166	5068.333333
1995.500986	5029.000000
1996.403485	5022.333333
1997.305662	4992.666667
1998.207518	4993.666667
1999.109053	5006.666667
