200.151048	22294.666667
201.758777	22208.333333
203.365815	22187.666667
204.972162	21978.000000
206.577820	22176.000000
208.182787	21991.333333
209.787065	22083.000000
211.390653	21952.000000
212.993553	21987.000000
214.595765	21949.666667
216.197289	21895.000000
217.798125	21893.333333
219.398274	21933.000000
220.997737	21949.000000
222.596513	21792.000000
224.194603	21879.333333
225.792008	21727.666667
227.388728	21829.333333
228.984763	21755.000000
230.580114	21835.333333
232.174781	21812.666667
233.768765	21718.666667
235.362065	21595.333333
236.954683	21668.333333
238.546619	21657.666667
240.137872	21594.000000
241.728445	21556.666667
243.318336	21523.333333
244.907546	21476.666667
246.496076	21500.666667
248.083926	21415.333333
249.671097	21345.666667
251.257589	21330.000000
252.843402	21249.333333
254.428536	21302.666667
256.012993	21145.666667
257.596772	21097.333333
259.179874	21186.333333
260.762300	20913.666667
262.344049	21122.333333
263.925122	21034.333333
265.505519	20908.666667
267.085241	20906.333333
268.664289	20980.000000
270.242662	20941.000000
271.820361	20988.666667
273.397387	20901.666667
274.973740	20937.333333
276.549419	20957.000000
278.124426	20854.333333
279.698762	20956.666667
281.272425	20951.666667
282.845417	21027.666667
284.417739	20984.666667
285.989390	21059.333333
287.560371	20971.333333
289.130682	21018.666667
290.700324	21039.000000
292.269297	21044.333333
293.837602	20953.000000
295.405238	21059.333333
296.972207	21033.333333
298.538508	20980.666667
300.104142	20849.666667
301.669110	20990.000000
303.233411	20884.666667
304.797047	20704.666667
306.360017	20859.333333
307.922322	20698.333333
309.483963	20550.333333
311.044939	20666.666667
312.605252	20531.333333
314.164900	20386.666667
315.723886	20475.666667
317.282209	20514.666667
318.839870	20303.333333
320.396868	20325.333333
321.953205	20278.666667
323.508881	20318.666667
325.063896	20236.333333
326.618251	20272.666667
328.171945	20165.333333
329.724980	20196.333333
331.277356	20108.000000
332.829072	20258.666667
334.380131	20135.000000
335.930530	20158.000000
337.480273	20100.666667
339.029357	20178.000000
340.577785	20051.333333
342.125556	20039.000000
343.672671	20052.000000
345.219130	20046.000000
346.764933	20098.333333
348.310081	20127.333333
349.854575	20148.333333
351.398414	20109.333333
352.941599	20131.000000
354.484130	20071.666667
356.026008	20097.666667
357.567234	19971.666667
359.107807	20025.333333
360.647727	20045.333333
362.186996	19954.666667
363.725614	19910.333333
365.263580	19831.333333
366.800896	19850.000000
368.337562	19776.666667
369.873578	19858.000000
371.408944	19945.666667
372.943661	19978.000000
374.477730	19851.000000
376.011150	19895.000000
377.543922	19910.333333
379.076046	19774.333333
380.607523	19929.666667
382.138353	19914.333333
383.668537	19911.666667
385.198075	19843.666667
386.726966	19984.000000
388.255213	20031.333333
389.782814	19937.333333
391.309770	20068.333333
392.836083	20165.333333
394.361751	19924.666667
395.886776	20010.666667
397.411157	20016.000000
398.934896	20189.000000
400.457992	20144.333333
401.980446	20103.666667
403.502258	20218.666667
405.023429	20188.000000
406.543959	20218.000000
408.063849	20157.666667
409.583098	20404.333333
411.101707	20490.333333
412.619677	20532.000000
414.137007	20500.333333
415.653699	20662.333333
417.169752	20679.333333
418.685167	20850.333333
420.199945	21124.666667
421.714085	21256.333333
423.227588	21388.000000
424.740454	21552.000000
426.252684	21628.000000
427.764279	21641.000000
429.275238	21769.333333
430.785561	21638.000000
432.295250	21547.333333
433.804304	21470.333333
435.312725	21237.666667
436.820511	21207.333333
438.327664	21155.000000
439.834185	21056.000000
441.340072	20887.333333
442.845327	20956.000000
444.349951	20795.000000
445.853942	20751.666667
447.357303	20700.000000
448.860033	20703.000000
450.362132	20573.666667
451.863601	20563.333333
453.364440	20496.666667
454.864650	20326.333333
456.364231	20119.000000
457.863183	20117.333333
459.361507	19864.666667
460.859203	19850.000000
462.356271	19792.666667
463.852712	19714.000000
465.348526	19615.333333
466.843714	19483.333333
468.338275	19556.666667
469.832210	19513.000000
471.325520	19288.666667
472.818205	19366.333333
474.310265	19241.666667
475.801700	19308.666667
477.292512	19186.333333
478.782700	19050.000000
480.272264	19106.333333
481.761205	19039.333333
483.249524	19057.666667
484.737221	18986.333333
486.224295	18993.333333
487.710748	18921.666667
489.196579	18867.333333
490.681790	18945.333333
492.166380	18947.666667
493.650350	18983.666667
495.133700	18855.000000
496.616431	18823.000000
498.098542	18797.666667
499.580035	18900.000000
501.060909	18762.333333
502.541165	18830.333333
504.020804	18699.666667
505.499825	18729.000000
506.978228	18649.000000
508.456016	18700.000000
509.933186	18641.666667
511.409741	18632.000000
512.885680	18591.333333
514.361004	18623.000000
515.835713	18561.000000
517.309807	18538.333333
518.783287	18536.333333
520.256153	18528.000000
521.728406	18508.333333
523.200045	18696.666667
524.671071	18593.666667
526.141485	18598.000000
527.611287	18594.666667
529.080476	18627.666667
530.549054	18493.333333
532.017021	18534.000000
533.484378	18455.333333
534.951123	18523.000000
536.417259	18439.333333
537.882785	18636.333333
539.347701	18503.000000
540.812008	18497.000000
542.275707	18451.333333
543.738797	18529.333333
545.201279	18396.333333
546.663153	18404.333333
548.124420	18485.666667
549.585080	18556.666667
551.045133	18567.666667
552.504579	18556.333333
553.963420	18646.333333
555.421655	18626.666667
556.879285	18633.666667
558.336309	18599.666667
559.792729	18600.666667
561.248545	18694.666667
562.703756	18551.333333
564.158364	18823.333333
565.612369	18877.333333
567.065770	18828.333333
568.518569	18777.333333
569.970766	18886.333333
571.422361	18924.333333
572.873354	18981.333333
574.323745	19210.000000
575.773536	19277.333333
577.222726	19401.666667
578.671316	19424.666667
580.119306	19505.333333
581.566696	19455.666667
583.013487	19416.000000
584.459679	19426.333333
585.905273	19420.000000
587.350268	19382.333333
588.794665	19504.333333
590.238465	19370.666667
591.681667	19258.000000
593.124272	19212.666667
594.566281	19088.333333
596.007694	19006.333333
597.448510	18859.666667
598.888731	18829.333333
600.328357	18610.000000
601.767388	18490.666667
603.205824	18472.000000
604.643666	18439.000000
606.080914	18483.666667
607.517568	18387.000000
608.953629	18458.000000
610.389097	18339.000000
611.823972	18285.666667
613.258255	18294.333333
614.691946	18087.000000
616.125046	18116.333333
617.557554	18031.333333
618.989471	18000.333333
620.420798	17790.666667
621.851534	17843.333333
623.281680	17796.000000
624.711237	17632.333333
626.140204	17657.666667
627.568582	17481.000000
628.996372	17515.333333
630.423573	17470.000000
631.850186	17399.666667
633.276211	17400.333333
634.701650	17356.333333
636.126501	17423.666667
637.550765	17388.333333
638.974443	17313.333333
640.397535	17212.333333
641.820041	17178.666667
643.241961	17221.333333
644.663297	17233.000000
646.084048	17228.333333
647.504214	17205.333333
648.923796	17136.666667
650.342795	17270.666667
651.761210	17131.666667
653.179041	17094.000000
654.596290	17045.666667
656.012957	17078.000000
657.429041	17147.333333
658.844543	17186.000000
660.259464	17186.666667
661.673804	17045.333333
663.087563	17118.666667
664.500741	17133.666667
665.913339	17019.666667
667.325357	17031.666667
668.736795	17020.000000
670.147654	17012.333333
671.557934	16938.666667
672.967636	16913.666667
674.376759	16997.333333
675.785304	16888.333333
677.193271	16785.333333
678.600661	16892.000000
680.007474	16841.333333
681.413711	16863.333333
682.819370	16775.666667
684.224454	16822.000000
685.628962	16692.666667
687.032895	16801.666667
688.436252	16883.333333
689.839034	16736.333333
691.241242	16757.333333
692.642876	16746.666667
694.043936	16755.333333
695.444422	16644.666667
696.844336	16674.000000
698.243676	16573.000000
699.642443	16737.666667
701.040639	16676.333333
702.438262	16548.000000
703.835313	16653.333333
705.231794	16547.666667
706.627703	16673.333333
708.023041	16605.666667
709.417810	16575.333333
710.812008	16452.666667
712.205636	16563.666667
713.598694	16512.666667
714.991184	16518.000000
716.383105	16428.666667
717.774457	16478.000000
719.165241	16510.000000
720.555457	16458.666667
721.945105	16440.000000
723.334187	16450.333333
724.722701	16313.666667
726.110648	16354.333333
727.498030	16316.000000
728.884845	16423.333333
730.271094	16386.666667
731.656778	16411.000000
733.041897	16399.333333
734.426451	16363.333333
735.810441	16307.333333
737.193866	16298.000000
738.576728	16286.333333
739.959026	16325.000000
741.340760	16331.000000
742.721932	16396.666667
744.102541	16244.333333
745.482588	16294.666667
746.862073	16297.666667
748.240996	16234.000000
749.619358	16190.000000
750.997158	16202.666667
752.374398	16229.000000
753.751077	16256.333333
755.127197	16208.000000
756.502756	16133.000000
757.877756	16227.333333
759.252196	16071.666667
760.626078	16163.333333
761.999400	16042.000000
763.372165	16027.333333
764.744371	16073.333333
766.116020	16015.333333
767.487111	16059.000000
768.857646	16017.333333
770.227623	15983.333333
771.597044	15922.666667
772.965908	15927.000000
774.334217	15868.000000
775.701970	15940.666667
777.069168	16006.000000
778.435811	15807.333333
779.801899	15892.666667
781.167433	15913.000000
782.532412	15794.666667
783.896838	15773.666667
785.260710	15728.000000
786.624029	15752.333333
787.986796	15795.666667
789.349009	15569.000000
790.710671	15637.000000
792.071780	15719.333333
793.432338	15605.666667
794.792344	15651.666667
796.151799	15610.000000
797.510704	15596.666667
798.869058	15475.666667
800.226862	15686.666667
801.584116	15576.333333
802.940820	15408.666667
804.296975	15472.666667
805.652581	15562.333333
807.007638	15542.000000
808.362147	15587.000000
809.716108	15571.333333
811.069521	15485.666667
812.422387	15459.666667
813.774705	15587.666667
815.126476	15561.333333
816.477701	15555.333333
817.828380	15629.333333
819.178512	15517.333333
820.528099	15410.000000
821.877140	15519.666667
823.225637	15353.333333
824.573588	15388.333333
825.920995	15343.666667
827.267857	15370.000000
828.614176	15307.666667
829.959951	15373.666667
831.305183	15301.333333
832.649871	15394.666667
833.994017	15376.000000
835.337620	15334.666667
836.680681	15331.666667
838.023201	15414.666667
839.365178	15454.000000
840.706614	15133.000000
842.047510	15303.666667
843.387864	15328.333333
844.727678	15376.333333
846.066952	15386.333333
847.405687	15367.000000
848.743881	15518.000000
850.081537	15451.333333
851.418653	15546.333333
852.755231	15501.333333
854.091270	15448.333333
855.426771	15498.666667
856.761735	15456.666667
858.096160	15335.000000
859.430049	15441.000000
860.763401	15305.333333
862.096216	15252.000000
863.428495	15193.666667
864.760237	15092.000000
866.091444	15182.666667
867.422115	15203.666667
868.752252	15267.333333
870.081853	15307.666667
871.410919	15164.000000
872.739452	15105.000000
874.067450	15096.000000
875.394914	15072.333333
876.721845	15010.333333
878.048243	15017.333333
879.374108	14964.666667
880.699440	14973.666667
882.024240	14959.333333
883.348508	14887.000000
884.672244	14972.000000
885.995449	14867.666667
887.318122	14815.666667
888.640265	14878.666667
889.961877	14841.333333
891.282959	14783.666667
892.603510	14743.666667
893.923532	14758.333333
895.243024	14732.000000
896.561987	14772.666667
897.880422	14819.333333
899.198327	14640.666667
900.515705	14608.333333
901.832554	14600.333333
903.148875	14587.000000
904.464669	14483.666667
905.779936	14579.333333
907.094676	14611.333333
908.408889	14614.666667
909.722576	14683.666667
911.035737	14677.333333
912.348371	14661.000000
913.660481	14781.666667
914.972065	14711.666667
916.283124	14763.666667
917.593659	14771.000000
918.903669	14864.666667
920.213155	14889.333333
921.522117	14812.000000
922.830556	14900.333333
924.138471	14816.000000
925.445864	14820.666667
926.752733	14811.666667
928.059081	14941.333333
929.364906	14953.666667
930.670209	14935.333333
931.974991	14992.333333
933.279251	15031.666667
934.582990	15079.000000
935.886209	15122.666667
937.188907	15311.000000
938.491085	15468.000000
939.792743	15598.333333
941.093881	15596.000000
942.394500	15891.000000
943.694600	16186.666667
944.994181	16338.333333
946.293243	16689.333333
947.591787	17073.666667
948.889813	17393.000000
950.187322	18053.666667
951.484313	18546.666667
952.780787	19228.333333
954.076744	19928.000000
955.372184	20477.333333
956.667108	21130.333333
957.961516	21615.666667
959.255409	21700.333333
960.548785	21621.000000
961.841647	21059.666667
963.133993	20572.000000
964.425825	19792.333333
965.717142	18827.000000
967.007946	18127.000000
968.298235	17363.000000
969.588011	16618.000000
970.877273	16092.000000
972.166023	15504.000000
973.454259	15246.000000
974.741984	14956.333333
976.029196	14626.666667
977.315895	14509.333333
978.602084	14302.666667
979.887761	14148.666667
981.172926	14109.333333
982.457581	14092.666667
983.741725	14041.000000
985.025359	13860.333333
986.308483	13866.000000
987.591097	13782.000000
988.873202	13695.333333
990.154797	13710.333333
991.435883	13728.666667
992.716461	13582.333333
993.996530	13718.333333
995.276091	13797.000000
996.555144	13615.666667
997.833690	13617.333333
999.111728	13745.666667
1000.389259	13744.666667
1001.666283	13886.000000
1002.942800	13810.333333
1004.218812	13740.666667
1005.494317	13737.000000
1006.769317	13704.666667
1008.043811	13789.666667
1009.317799	13789.333333
1010.591283	13677.666667
1011.864263	13750.333333
1013.136737	13649.666667
1014.408708	13588.333333
1015.680175	13684.333333
1016.951138	13670.000000
1018.221598	13728.666667
1019.491554	13775.000000
1020.761008	13728.000000
1022.029959	13757.000000
1023.298408	13775.000000
1024.566355	13765.666667
1025.833800	13829.000000
1027.100744	13765.000000
1028.367187	13864.666667
1029.633128	13895.333333
1030.898569	13987.000000
1032.163509	13842.333333
1033.427949	13824.333333
1034.691890	13854.666667
1035.955330	13853.333333
1037.218271	13741.666667
1038.480714	13854.666667
1039.742657	13795.333333
1041.004101	13934.333333
1042.265048	13782.000000
1043.525496	13875.000000
1044.785446	13937.333333
1046.044899	13820.333333
1047.303855	13929.333333
1048.562313	13711.666667
1049.820275	13803.333333
1051.077740	13755.000000
1052.334709	13719.666667
1053.591182	13721.000000
1054.847160	13530.000000
1056.102641	13693.333333
1057.357628	13573.666667
1058.612120	13801.000000
1059.866117	13637.000000
1061.119619	13853.333333
1062.372628	13710.000000
1063.625142	13885.666667
1064.877163	13827.000000
1066.128691	13935.000000
1067.379725	13977.666667
1068.630267	13945.000000
1069.880316	13868.333333
1071.129872	13948.000000
1072.378937	13935.000000
1073.627509	13863.666667
1074.875590	13677.000000
1076.123180	13629.333333
1077.370279	13588.333333
1078.616887	13517.000000
1079.863004	13418.666667
1081.108631	13306.333333
1082.353768	13174.000000
1083.598415	13058.000000
1084.842573	13101.333333
1086.086241	12964.333333
1087.329421	12801.000000
1088.572111	12846.000000
1089.814314	12782.000000
1091.056028	12711.333333
1092.297253	12685.000000
1093.537992	12677.000000
1094.778242	12651.000000
1096.018006	12605.666667
1097.257282	12535.333333
1098.496072	12629.333333
1099.734376	12596.333333
1100.972193	12523.333333
1102.209524	12534.666667
1103.446370	12412.666667
1104.682730	12434.333333
1105.918604	12416.666667
1107.153994	12450.000000
1108.388900	12387.666667
1109.623320	12314.333333
1110.857257	12238.000000
1112.090710	12343.000000
1113.323679	12156.000000
1114.556164	12255.666667
1115.788167	12180.333333
1117.019686	12176.666667
1118.250723	12100.666667
1119.481278	12098.000000
1120.711350	12104.333333
1121.940940	12065.333333
1123.170049	12146.333333
1124.398676	12040.333333
1125.626823	12002.666667
1126.854488	12011.000000
1128.081672	12054.333333
1129.308376	12012.000000
1130.534600	12035.666667
1131.760345	11922.000000
1132.985609	11909.000000
1134.210394	11983.666667
1135.434700	11935.333333
1136.658527	11935.666667
1137.881875	11937.666667
1139.104745	11917.000000
1140.327136	11895.000000
1141.549050	12007.333333
1142.770486	11909.000000
1143.991445	12022.666667
1145.211926	11809.000000
1146.431931	11829.666667
1147.651459	11757.000000
1148.870510	11960.666667
1150.089086	11769.666667
1151.307185	11842.666667
1152.524808	11779.333333
1153.741957	11774.333333
1154.958630	11763.000000
1156.174828	11793.666667
1157.390551	11771.333333
1158.605800	11810.000000
1159.820574	11791.333333
1161.034875	11706.666667
1162.248702	11729.000000
1163.462055	11699.333333
1164.674936	11571.666667
1165.887343	11684.666667
1167.099277	11731.666667
1168.310739	11722.666667
1169.521729	11634.000000
1170.732247	11662.666667
1171.942293	11701.666667
1173.151867	11758.333333
1174.360970	11689.666667
1175.569602	11680.333333
1176.777764	11687.333333
1177.985454	11605.333333
1179.192675	11584.000000
1180.399425	11642.666667
1181.605706	11610.000000
1182.811517	11545.666667
1184.016859	11549.000000
1185.221731	11477.000000
1186.426135	11507.333333
1187.630070	11449.333333
1188.833537	11387.000000
1190.036535	11402.666667
1191.239066	11451.333333
1192.441129	11361.666667
1193.642725	11445.666667
1194.843853	11333.666667
1196.044515	11345.666667
1197.244710	11367.000000
1198.444438	11311.333333
1199.643701	11401.333333
1200.842497	11315.333333
1202.040827	11344.333333
1203.238693	11329.000000
1204.436092	11268.000000
1205.633027	11317.000000
1206.829497	11261.666667
1208.025503	11337.333333
1209.221044	11225.333333
1210.416122	11145.333333
1211.610735	11221.000000
1212.804885	11185.333333
1213.998572	11146.333333
1215.191795	11195.333333
1216.384556	11097.000000
1217.576854	11062.333333
1218.768689	11160.333333
1219.960063	10965.000000
1221.150974	11101.000000
1222.341424	11102.666667
1223.531413	11074.333333
1224.720940	11000.333333
1225.910006	11074.666667
1227.098612	11146.666667
1228.286757	11092.000000
1229.474442	11138.000000
1230.661667	11135.000000
1231.848432	11147.000000
1233.034738	11197.000000
1234.220584	11227.000000
1235.405971	11306.333333
1236.590900	11373.000000
1237.775369	11370.666667
1238.959381	11302.666667
1240.142934	11247.333333
1241.326029	11401.666667
1242.508667	11396.666667
1243.690848	11396.000000
1244.872571	11331.666667
1246.053837	11293.333333
1247.234646	11273.000000
1248.414999	11255.666667
1249.594896	11211.000000
1250.774337	11183.666667
1251.953322	11259.000000
1253.131851	11241.333333
1254.309925	11220.666667
1255.487544	11146.000000
1256.664708	11238.333333
1257.841417	11047.666667
1259.017673	11058.000000
1260.193473	11100.333333
1261.368820	11180.333333
1262.543714	11121.333333
1263.718154	11123.666667
1264.892140	11097.666667
1266.065674	11151.333333
1267.238755	11143.000000
1268.411383	11240.333333
1269.583559	11098.333333
1270.755283	11047.000000
1271.926555	11038.000000
1273.097375	11198.000000
1274.267744	11178.666667
1275.437662	11143.333333
1276.607129	11173.666667
1277.776145	11092.000000
1278.944711	10995.333333
1280.112827	10967.666667
1281.280492	10969.333333
1282.447708	10910.666667
1283.614474	10998.000000
1284.780791	10893.666667
1285.946659	10897.333333
1287.112078	10825.333333
1288.277048	10834.333333
1289.441570	10836.000000
1290.605644	10751.333333
1291.769270	10664.666667
1292.932448	10678.000000
1294.095178	10544.000000
1295.257461	10667.666667
1296.419298	10658.000000
1297.580687	10574.666667
1298.741630	10496.333333
1299.902126	10516.000000
1301.062177	10539.333333
1302.221781	10549.666667
1303.380940	10532.000000
1304.539653	10529.666667
1305.697921	10477.000000
1306.855744	10525.666667
1308.013123	10483.666667
1309.170056	10502.666667
1310.326546	10486.666667
1311.482591	10563.333333
1312.638193	10551.000000
1313.793350	10535.000000
1314.948065	10615.000000
1316.102336	10486.000000
1317.256164	10483.000000
1318.409550	10528.333333
1319.562493	10480.000000
1320.714993	10476.333333
1321.867052	10463.000000
1323.018668	10323.333333
1324.169843	10394.666667
1325.320577	10385.000000
1326.470870	10345.333333
1327.620721	10332.666667
1328.770132	10291.000000
1329.919102	10291.333333
1331.067632	10248.666667
1332.215722	10342.666667
1333.363372	10198.666667
1334.510582	10205.666667
1335.657353	10276.000000
1336.803685	10179.000000
1337.949578	10119.666667
1339.095032	10243.666667
1340.240048	10170.333333
1341.384625	10178.666667
1342.528764	10254.333333
1343.672466	10171.666667
1344.815729	10184.333333
1345.958556	10219.000000
1347.100945	10204.666667
1348.242897	10163.666667
1349.384413	10174.666667
1350.525492	10135.333333
1351.666134	10094.000000
1352.806341	10088.666667
1353.946111	10021.000000
1355.085446	9949.333333
1356.224346	9912.333333
1357.362810	10001.333333
1358.500840	9921.333333
1359.638434	9945.666667
1360.775594	10014.000000
1361.912320	9807.333333
1363.048612	9877.666667
1364.184469	9867.666667
1365.319893	9881.666667
1366.454884	9830.000000
1367.589441	9794.000000
1368.723566	9845.000000
1369.857257	9845.333333
1370.990516	9799.000000
1372.123343	9942.000000
1373.255737	9914.333333
1374.387699	9796.000000
1375.519230	9868.000000
1376.650329	9888.333333
1377.780997	9984.333333
1378.911234	9867.666667
1380.041040	9911.666667
1381.170416	9875.666667
1382.299361	9910.666667
1383.427875	9842.000000
1384.555960	9818.666667
1385.683615	9889.666667
1386.810841	9860.000000
1387.937637	9820.000000
1389.064004	9818.333333
1390.189942	9826.666667
1391.315451	9803.666667
1392.440532	9892.000000
1393.565185	9797.000000
1394.689409	9746.333333
1395.813206	9749.666667
1396.936575	9754.333333
1398.059517	9688.666667
1399.182032	9670.000000
1400.304119	9762.333333
1401.425780	9736.000000
1402.547014	9547.000000
1403.667822	9647.333333
1404.788204	9627.000000
1405.908160	9612.333333
1407.027690	9725.333333
1408.146795	9697.333333
1409.265474	9638.333333
1410.383728	9702.333333
1411.501558	9661.666667
1412.618963	9657.000000
1413.735943	9700.000000
1414.852499	9653.666667
1415.968632	9645.000000
1417.084340	9751.333333
1418.199625	9713.333333
1419.314486	9698.666667
1420.428925	9712.333333
1421.542940	9718.333333
1422.656533	9718.333333
1423.769703	9655.000000
1424.882451	9610.666667
1425.994777	9651.666667
1427.106680	9567.666667
1428.218163	9642.666667
1429.329223	9564.333333
1430.439863	9557.333333
1431.550081	9513.000000
1432.659879	9578.000000
1433.769256	9534.666667
1434.878212	9430.000000
1435.986749	9448.666667
1437.094865	9504.666667
1438.202562	9525.666667
1439.309839	9515.333333
1440.416696	9513.333333
1441.523135	9519.666667
1442.629154	9572.666667
1443.734755	9634.000000
1444.839937	9596.333333
1445.944701	9673.000000
1447.049047	9646.666667
1448.152975	9754.666667
1449.256485	9674.333333
1450.359577	9710.333333
1451.462253	9679.000000
1452.564511	9618.333333
1453.666352	9712.666667
1454.767777	9679.333333
1455.868785	9655.666667
1456.969377	9587.000000
1458.069553	9588.333333
1459.169313	9562.000000
1460.268658	9493.333333
1461.367587	9444.000000
1462.466101	9451.333333
1463.564200	9407.333333
1464.661884	9378.666667
1465.759153	9294.333333
1466.856008	9285.666667
1467.952449	9161.000000
1469.048476	9149.333333
1470.144089	9078.000000
1471.239288	8997.000000
1472.334074	9122.666667
1473.428447	9000.000000
1474.522407	8978.333333
1475.615955	8821.333333
1476.709089	8826.666667
1477.801812	8816.000000
1478.894122	8899.333333
1479.986020	8726.000000
1481.077506	8729.000000
1482.168581	8733.333333
1483.259245	8673.666667
1484.349498	8738.000000
1485.439339	8735.666667
1486.528770	8719.000000
1487.617790	8604.333333
1488.706400	8677.000000
1489.794600	8711.666667
1490.882390	8558.333333
1491.969771	8530.666667
1493.056742	8604.666667
1494.143303	8589.000000
1495.229456	8613.666667
1496.315199	8589.000000
1497.400534	8624.666667
1498.485460	8575.000000
1499.569978	8506.666667
1500.654088	8414.000000
1501.737790	8490.000000
1502.821085	8492.333333
1503.903972	8514.000000
1504.986451	8476.666667
1506.068524	8417.000000
1507.150189	8403.666667
1508.231448	8345.666667
1509.312301	8327.333333
1510.392747	8349.666667
1511.472787	8301.000000
1512.552422	8331.666667
1513.631650	8363.666667
1514.710473	8349.666667
1515.788891	8354.666667
1516.866904	8304.000000
1517.944512	8375.000000
1519.021715	8410.000000
1520.098513	8349.000000
1521.174908	8336.666667
1522.250898	8373.666667
1523.326485	8327.666667
1524.401667	8365.333333
1525.476447	8374.333333
1526.550823	8381.333333
1527.624796	8486.333333
1528.698365	8417.666667
1529.771533	8374.000000
1530.844298	8427.666667
1531.916660	8430.666667
1532.988620	8406.000000
1534.060179	8401.333333
1535.131336	8349.333333
1536.202091	8353.666667
1537.272445	8344.666667
1538.342398	8336.000000
1539.411950	8367.666667
1540.481101	8301.333333
1541.549851	8293.666667
1542.618202	8261.333333
1543.686152	8287.000000
1544.753702	8244.666667
1545.820853	8192.333333
1546.887604	8233.333333
1547.953955	8137.666667
1549.019908	8074.000000
1550.085461	8130.666667
1551.150616	8065.333333
1552.215372	8062.666667
1553.279730	8077.000000
1554.343690	8019.333333
1555.407252	8022.000000
1556.470415	8061.333333
1557.533182	7994.333333
1558.595551	7955.333333
1559.657522	7945.333333
1560.719097	8028.333333
1561.780275	7907.000000
1562.841056	7991.333333
1563.901441	7932.666667
1564.961429	7951.666667
1566.021022	7978.333333
1567.080219	7948.666667
1568.139020	7988.000000
1569.197425	7943.333333
1570.255436	7901.666667
1571.313051	7883.000000
1572.370271	7880.000000
1573.427097	7820.000000
1574.483528	7792.000000
1575.539565	7747.000000
1576.595208	7816.333333
1577.650457	7870.666667
1578.705312	7747.333333
1579.759774	7780.000000
1580.813842	7711.333333
1581.867517	7683.666667
1582.920799	7731.666667
1583.973689	7741.000000
1585.026186	7693.000000
1586.078290	7663.333333
1587.130002	7684.666667
1588.181323	7634.000000
1589.232251	7652.000000
1590.282788	7581.666667
1591.332933	7601.333333
1592.382688	7685.000000
1593.432051	7683.333333
1594.481023	7657.333333
1595.529605	7633.666667
1596.577796	7707.000000
1597.625597	7626.333333
1598.673007	7736.000000
1599.720028	7753.666667
1600.766660	7727.666667
1601.812901	7708.666667
1602.858753	7756.666667
1603.904217	7751.000000
1604.949291	7740.666667
1605.993976	7719.000000
1607.038273	7744.000000
1608.082182	7750.000000
1609.125702	7729.333333
1610.168834	7752.333333
1611.211579	7768.333333
1612.253935	7652.333333
1613.295905	7609.666667
1614.337487	7674.000000
1615.378682	7688.333333
1616.419490	7666.000000
1617.459912	7609.000000
1618.499946	7682.666667
1619.539595	7616.000000
1620.578858	7582.000000
1621.617734	7613.000000
1622.656225	7474.333333
1623.694330	7550.666667
1624.732050	7585.333333
1625.769385	7494.000000
1626.806334	7574.000000
1627.842899	7509.666667
1628.879079	7611.666667
1629.914875	7572.333333
1630.950286	7540.333333
1631.985314	7522.000000
1633.019957	7511.333333
1634.054217	7615.333333
1635.088093	7562.666667
1636.121586	7578.666667
1637.154696	7564.333333
1638.187423	7651.666667
1639.219767	7601.333333
1640.251728	7646.000000
1641.283307	7564.666667
1642.314504	7604.000000
1643.345319	7620.000000
1644.375751	7631.666667
1645.405803	7568.333333
1646.435472	7652.666667
1647.464761	7609.000000
1648.493668	7611.000000
1649.522194	7636.000000
1650.550340	7654.000000
1651.578105	7610.333333
1652.605490	7567.333333
1653.632494	7560.333333
1654.659119	7445.333333
1655.685363	7531.000000
1656.711228	7465.000000
1657.736714	7499.333333
1658.761820	7413.666667
1659.786547	7483.666667
1660.810895	7417.000000
1661.834865	7407.333333
1662.858456	7404.000000
1663.881668	7457.000000
1664.904503	7339.333333
1665.926959	7301.666667
1666.949038	7341.000000
1667.970739	7247.333333
1668.992062	7248.333333
1670.013008	7274.000000
1671.033577	7243.666667
1672.053770	7271.000000
1673.073585	7229.000000
1674.093024	7164.666667
1675.112086	7193.000000
1676.130773	7137.333333
1677.149083	7157.000000
1678.167017	7148.666667
1679.184576	7106.333333
1680.201760	7122.333333
1681.218568	7094.666667
1682.235001	7157.666667
1683.251059	7166.666667
1684.266742	7166.000000
1685.282051	7077.000000
1686.296985	7030.666667
1687.311546	7018.666667
1688.325732	7061.666667
1689.339544	6997.333333
1690.352983	7007.000000
1691.366048	6974.666667
1692.378740	6926.666667
1693.391058	6963.333333
1694.403004	6855.666667
1695.414577	6798.000000
1696.425778	6921.666667
1697.436606	6801.333333
1698.447061	6805.000000
1699.457145	6739.000000
1700.466857	6692.000000
1701.476197	6648.666667
1702.485166	6655.666667
1703.493763	6678.666667
1704.501989	6638.666667
1705.509844	6704.333333
1706.517328	6600.000000
1707.524442	6593.000000
1708.531185	6635.333333
1709.537558	6527.000000
1710.543561	6545.000000
1711.549194	6580.000000
1712.554457	6628.666667
1713.559351	6618.666667
1714.563875	6631.333333
1715.568030	6658.666667
1716.571816	6603.333333
1717.575233	6608.333333
1718.578282	6665.333333
1719.580962	6660.666667
1720.583273	6606.666667
1721.585217	6660.333333
1722.586792	6676.333333
1723.588000	6751.666667
1724.588840	6779.666667
1725.589312	6786.333333
1726.589418	6809.333333
1727.589156	6722.333333
1728.588527	6782.333333
1729.587532	6726.000000
1730.586170	6817.666667
1731.584441	6825.666667
1732.582346	6758.000000
1733.579886	6763.333333
1734.577059	6749.000000
1735.573867	6714.666667
1736.570309	6772.333333
1737.566386	6685.333333
1738.562097	6756.666667
1739.557444	6663.333333
1740.552426	6703.333333
1741.547043	6629.000000
1742.541295	6636.666667
1743.535184	6618.333333
1744.528708	6646.000000
1745.521868	6591.000000
1746.514664	6584.666667
1747.507097	6611.666667
1748.499166	6568.333333
1749.490873	6564.333333
1750.482216	6500.000000
1751.473196	6600.333333
1752.463813	6513.666667
1753.454068	6552.666667
1754.443960	6474.000000
1755.433490	6495.333333
1756.422658	6448.000000
1757.411464	6399.666667
1758.399908	6494.333333
1759.387991	6482.000000
1760.375713	6445.000000
1761.363073	6397.333333
1762.350072	6413.333333
1763.336711	6403.333333
1764.322988	6365.333333
1765.308905	6339.333333
1766.294462	6301.333333
1767.279659	6297.333333
1768.264496	6265.000000
1769.248972	6247.666667
1770.233089	6180.333333
1771.216847	6215.000000
1772.200245	6118.333333
1773.183284	6166.333333
1774.165965	6137.333333
1775.148286	6074.000000
1776.130249	6100.333333
1777.111853	6010.000000
1778.093099	5987.666667
1779.073987	5954.333333
1780.054517	5907.333333
1781.034689	5916.333333
1782.014503	5910.666667
1782.993960	5804.333333
1783.973060	5796.000000
1784.951802	5758.333333
1785.930188	5739.666667
1786.908217	5730.666667
1787.885889	5734.333333
1788.863205	5693.666667
1789.840164	5688.666667
1790.816768	5773.333333
1791.793015	5631.000000
1792.768907	5602.000000
1793.744443	5686.000000
1794.719624	5634.000000
1795.694449	5659.000000
1796.668919	5598.000000
1797.643035	5654.333333
1798.616795	5644.666667
1799.590201	5704.666667
1800.563253	5632.666667
1801.535950	5700.666667
1802.508294	5700.333333
1803.480283	5703.000000
1804.451919	5666.000000
1805.423201	5696.333333
1806.394129	5731.333333
1807.364705	5803.666667
1808.334927	5769.666667
1809.304796	5732.666667
1810.274313	5790.333333
1811.243477	5751.666667
1812.212288	5739.666667
1813.180747	5740.666667
1814.148855	5831.000000
1815.116610	5806.666667
1816.084013	5769.333333
1817.051065	5719.333333
1818.017766	5838.000000
1818.984115	5788.333333
1819.950113	5836.000000
1820.915760	5913.000000
1821.881057	5890.000000
1822.846003	5872.000000
1823.810598	5842.000000
1824.774843	5866.666667
1825.738738	5783.000000
1826.702283	5868.333333
1827.665479	5868.333333
1828.628324	5860.666667
1829.590821	5840.333333
1830.552968	5838.666667
1831.514765	5811.333333
1832.476214	5796.333333
1833.437314	5785.666667
1834.398066	5769.666667
1835.358469	5797.333333
1836.318524	5761.666667
1837.278230	5774.333333
1838.237589	5797.000000
1839.196600	5737.000000
1840.155263	5695.000000
1841.113578	5772.666667
1842.071547	5729.000000
1843.029168	5743.666667
1843.986442	5683.333333
1844.943369	5692.333333
1845.899950	5687.333333
1846.856184	5605.333333
1847.812072	5588.000000
1848.767614	5642.333333
1849.722809	5547.666667
1850.677659	5516.333333
1851.632163	5574.000000
1852.586322	5543.333333
1853.540135	5519.666667
1854.493603	5481.666667
1855.446726	5411.333333
1856.399504	5399.333333
1857.351937	5396.666667
1858.304026	5400.333333
1859.255770	5297.000000
1860.207170	5297.666667
1861.158227	5253.000000
1862.108939	5252.000000
1863.059307	5281.666667
1864.009332	5199.333333
1864.959013	5203.333333
1865.908351	5128.666667
1866.857346	5110.000000
1867.805998	5089.333333
1868.754307	5008.000000
1869.702274	5070.333333
1870.649898	5067.666667
1871.597180	5061.666667
1872.544119	4994.333333
1873.490717	4966.666667
1874.436973	4945.666667
1875.382887	5032.333333
1876.328459	4942.666667
1877.273691	4939.666667
1878.218581	4957.666667
1879.163130	4962.000000
1880.107338	5002.000000
1881.051205	4995.333333
1881.994732	5005.666667
1882.937919	5011.000000
1883.880765	5024.333333
1884.823271	5035.666667
1885.765437	5011.333333
1886.707264	5095.000000
1887.648750	5048.000000
1888.589898	5047.666667
1889.530706	5043.000000
1890.471175	5050.000000
1891.411305	5068.666667
1892.351096	5162.000000
1893.290548	5036.333333
1894.229662	5095.333333
1895.168438	5097.000000
1896.106876	5128.666667
1897.044975	5139.000000
1897.982737	5117.333333
1898.920160	5049.000000
1899.857247	5095.666667
1900.793996	5054.000000
1901.730407	5027.000000
1902.666482	5086.333333
1903.602219	5041.333333
1904.537620	4989.666667
1905.472685	5056.333333
1906.407412	4966.333333
1907.341804	5009.333333
1908.275859	4948.000000
1909.209579	4894.666667
1910.142962	4867.000000
1911.076010	4865.000000
1912.008722	4862.333333
1912.941099	4811.000000
1913.873141	4790.333333
1914.804848	4727.333333
1915.736219	4748.333333
1916.667256	4721.000000
1917.597959	4678.333333
1918.528327	4691.333333
1919.458360	4597.000000
1920.388060	4654.000000
1921.317426	4575.666667
1922.246457	4610.666667
1923.175156	4599.000000
1924.103520	4552.000000
1925.031552	4562.666667
1925.959250	4603.333333
1926.886615	4510.333333
1927.813647	4561.000000
1928.740346	4550.666667
1929.666713	4525.666667
1930.592748	4497.666667
1931.518450	4546.666667
1932.443820	4494.333333
1933.368858	4497.666667
1934.293564	4508.666667
1935.217939	4449.000000
1936.141982	4494.333333
1937.065694	4426.000000
1937.989074	4408.000000
1938.912124	4386.333333
1939.834842	4399.333333
1940.757230	4385.666667
1941.679287	4364.333333
1942.601014	4340.000000
1943.522411	4344.333333
1944.443477	4323.000000
1945.364214	4325.666667
1946.284621	4304.000000
1947.204698	4271.000000
1948.124445	4267.333333
1949.043863	4257.666667
1949.962952	4266.666667
1950.881712	4284.333333
1951.800143	4210.000000
1952.718245	4187.000000
1953.636019	4192.000000
1954.553464	4209.000000
1955.470581	4198.666667
1956.387369	4149.666667
1957.303830	4177.000000
1958.219963	4197.333333
1959.135768	4189.333333
1960.051246	4165.333333
1960.966396	4147.666667
1961.881219	4204.000000
1962.795715	4197.333333
1963.709883	4245.000000
1964.623726	4245.333333
1965.537241	4216.333333
1966.450430	4236.000000
1967.363293	4256.333333
1968.275829	4225.666667
1969.188040	4231.333333
1970.099924	4252.666667
1971.011483	4263.666667
1971.922716	4273.333333
1972.833624	4301.000000
1973.744206	4247.666667
1974.654464	4225.666667
1975.564396	4238.000000
1976.474004	4246.666667
1977.383286	4257.000000
1978.292245	4262.000000
1979.200878	4241.333333
1980.109188	4193.333333
1981.017174	4158.666667
1981.924835	4214.666667
1982.832173	4136.666667
1983.739187	4130.333333
1984.645878	4135.666667
1985.552245	4112.333333
1986.458289	4021.333333
1987.364010	3978.333333
1988.269408	3994.000000
1989.174484	3946.666667
1990.079236	3987.000000
1990.983667	3957.000000
1991.887775	3929.666667
1992.791561	3919.000000
1993.695024	3886.666667
1994.598166	3894.333333
1995.500986	3806.333333
1996.403485	3820.000000
1997.305662	3797.666667
1998.207518	3768.666667
1999.109053	3853.000000
