200.151048	28753.666667
201.758777	28788.000000
203.365815	28663.666667
204.972162	28520.000000
206.577820	28589.000000
208.182787	28590.000000
209.787065	28569.666667
211.390653	28474.333333
212.993553	28523.000000
214.595765	28367.000000
216.197289	28275.000000
217.798125	28255.666667
219.398274	28294.666667
220.997737	28298.000000
222.596513	28124.000000
224.194603	28170.666667
225.792008	28088.000000
227.388728	28033.000000
228.984763	28022.666667
230.580114	27933.666667
232.174781	27896.666667
233.768765	28084.000000
235.362065	28006.000000
236.954683	27885.666667
238.546619	27881.333333
240.137872	27750.333333
241.728445	27596.333333
243.318336	27673.000000
244.907546	27712.000000
246.496076	27595.666667
248.083926	27441.333333
249.671097	27420.333333
251.257589	27344.333333
252.843402	27281.333333
254.428536	27225.333333
256.012993	27133.333333
257.596772	27077.000000
259.179874	27070.000000
260.762300	27002.333333
262.344049	27001.333333
263.925122	26924.333333
265.505519	27041.000000
267.085241	26957.333333
268.664289	26826.000000
270.242662	26964.333333
271.820361	26889.000000
273.397387	26879.333333
274.973740	26780.000000
276.549419	26947.333333
278.124426	26914.666667
279.698762	26798.333333
281.272425	26908.666667
282.845417	26963.333333
284.417739	26901.000000
285.989390	27056.333333
287.560371	26836.333333
289.130682	26932.666667
290.700324	26991.666667
292.269297	27077.666667
293.837602	26881.666667
295.405238	26860.666667
296.972207	26823.666667
298.538508	26988.666667
300.104142	26847.333333
301.669110	26777.000000
303.233411	26874.666667
304.797047	26668.000000
306.360017	26653.000000
307.922322	26465.333333
309.483963	26525.333333
311.044939	26381.666667
312.605252	26434.000000
314.164900	26191.333333
315.723886	26220.666667
317.282209	26148.666667
318.839870	26169.000000
320.396868	26027.666667
321.953205	26053.333333
323.508881	26082.666667
325.063896	25881.333333
326.618251	25861.000000
328.171945	25986.666667
329.724980	25945.000000
331.277356	25835.333333
332.829072	25862.000000
334.380131	25788.000000
335.930530	25956.333333
337.480273	25876.000000
339.029357	25859.666667
340.577785	25736.333333
342.125556	25903.666667
343.672671	25867.666667
345.219130	25771.333333
346.764933	25836.000000
348.310081	25798.000000
349.854575	25780.666667
351.398414	25767.666667
352.941599	25717.666667
354.484130	25643.000000
356.026008	25864.000000
357.567234	25596.666667
359.107807	25595.666667
360.647727	25532.333333
362.186996	25526.666667
363.725614	25556.666667
365.263580	25464.666667
366.800896	25563.333333
368.337562	25445.333333
369.873578	25397.666667
371.408944	25424.333333
372.943661	25337.333333
374.477730	25388.000000
376.011150	25372.666667
377.543922	25257.000000
379.076046	25439.000000
380.607523	25504.000000
382.138353	25343.333333
383.668537	25368.666667
385.198075	25522.333333
386.726966	25635.666667
388.255213	25334.000000
389.782814	25514.000000
391.309770	25375.666667
392.836083	25457.333333
394.361751	25548.333333
395.886776	25407.666667
397.411157	25587.666667
398.934896	25573.000000
400.457992	25603.666667
401.980446	25625.666667
403.502258	25555.000000
405.023429	25705.000000
406.543959	25703.000000
408.063849	25654.000000
409.583098	25806.666667
411.101707	25932.666667
412.619677	25845.666667
414.137007	25881.333333
415.653699	26118.000000
417.169752	26081.333333
418.685167	26412.333333
420.199945	26430.333333
421.714085	26571.333333
423.227588	26738.333333
424.740454	26791.333333
426.252684	26768.000000
427.764279	26933.333333
429.275238	26786.333333
430.785561	26739.666667
432.295250	26681.333333
433.804304	26570.000000
435.312725	26485.333333
436.820511	26363.000000
438.327664	26071.333333
439.834185	26053.666667
441.340072	25970.666667
442.845327	25920.666667
444.349951	25726.666667
445.853942	25691.666667
447.357303	25766.666667
448.860033	25586.000000
450.362132	25616.000000
451.863601	25390.000000
453.364440	25421.000000
454.864650	25257.666667
456.364231	25034.666667
457.863183	24902.666667
459.361507	25042.000000
460.859203	24831.333333
462.356271	24685.333333
463.852712	24631.000000
465.348526	24556.333333
466.843714	24454.666667
468.338275	24504.666667
469.832210	24450.333333
471.325520	24366.000000
472.818205	24239.666667
474.310265	24213.666667
475.801700	24146.000000
477.292512	24174.666667
478.782700	24160.000000
480.272264	23980.333333
481.761205	23947.000000
483.249524	24023.666667
484.737221	23938.333333
486.224295	24028.000000
487.710748	23926.333333
489.196579	23948.333333
490.681790	23884.000000
492.166380	23921.666667
493.650350	23940.000000
495.133700	23731.000000
496.616431	23788.333333
498.098542	23750.333333
499.580035	23800.000000
501.060909	23686.333333
502.541165	23595.000000
504.020804	23567.333333
505.499825	23539.000000
506.978228	23399.333333
508.456016	23640.333333
509.933186	23512.000000
511.409741	23478.666667
512.885680	23433.333333
514.361004	23362.000000
515.835713	23462.666667
517.309807	23432.333333
518.783287	23425.666667
520.256153	23404.000000
521.728406	23385.666667
523.200045	23412.666667
524.671071	23339.333333
526.141485	23355.666667
527.611287	23408.333333
529.080476	23405.000000
530.549054	23301.333333
532.017021	23260.000000
533.484378	23273.000000
534.951123	23212.666667
536.417259	23398.000000
537.882785	23251.666667
539.347701	23094.000000
540.812008	23184.000000
542.275707	23221.000000
543.738797	23130.000000
545.201279	23221.333333
546.663153	23098.000000
548.124420	23109.000000
549.585080	23214.000000
551.045133	23121.333333
552.504579	23314.000000
553.963420	23193.000000
555.421655	23318.000000
556.879285	23192.666667
558.336309	23342.333333
559.792729	23342.666667
561.248545	23319.000000
562.703756	23381.000000
564.158364	23409.666667
565.612369	23508.666667
567.065770	23551.333333
568.518569	23526.333333
569.970766	23604.000000
571.422361	23556.666667
572.873354	23683.666667
574.323745	23695.333333
575.773536	23941.666667
577.222726	23905.000000
578.671316	24051.000000
580.119306	23965.333333
581.566696	23878.333333
583.013487	24030.666667
584.459679	23971.000000
585.905273	23745.333333
587.350268	23796.666667
588.794665	23928.666667
590.238465	23671.666667
591.681667	23621.000000
593.124272	23537.666667
594.566281	23429.666667
596.007694	23374.666667
597.448510	23256.333333
598.888731	23039.000000
600.328357	23034.333333
601.767388	22955.333333
603.205824	22964.333333
604.643666	22921.333333
606.080914	22845.333333
607.517568	22761.666667
608.953629	22826.000000
610.389097	22926.666667
611.823972	22821.333333
613.258255	22837.333333
614.691946	22615.333333
616.125046	22663.333333
617.557554	22539.333333
618.989471	22471.333333
620.420798	22285.666667
621.851534	22108.666667
623.281680	22127.333333
624.711237	22068.333333
626.140204	21903.000000
627.568582	21824.000000
628.996372	21696.666667
630.423573	21760.000000
631.850186	21567.666667
633.276211	21611.000000
634.701650	21647.000000
636.126501	21592.333333
637.550765	21681.666667
638.974443	21510.333333
640.397535	21526.333333
641.820041	21473.000000
643.241961	21409.333333
644.663297	21492.333333
646.084048	21363.666667
647.504214	21351.333333
648.923796	21370.666667
650.342795	21393.333333
651.761210	21370.333333
653.179041	21280.333333
654.596290	21290.000000
656.012957	21325.000000
657.429041	21199.666667
658.844543	21238.000000
660.259464	21151.000000
661.673804	21149.333333
663.087563	21155.000000
664.500741	21104.000000
665.913339	21212.666667
667.325357	21104.000000
668.736795	20971.333333
670.147654	21021.666667
671.557934	20974.000000
672.967636	21048.333333
674.376759	20879.000000
675.785304	21062.666667
677.193271	20919.666667
678.600661	20831.000000
680.007474	20792.666667
681.413711	21009.000000
682.819370	21012.666667
684.224454	20783.666667
685.628962	20839.666667
687.032895	20870.333333
688.436252	20709.666667
689.839034	20759.666667
691.241242	20591.333333
692.642876	20691.000000
694.043936	20699.666667
695.444422	20719.333333
696.844336	20598.000000
698.243676	20551.333333
699.642443	20608.000000
701.040639	20691.000000
702.438262	20602.000000
703.835313	20683.000000
705.231794	20530.000000
706.627703	20440.666667
708.023041	20550.666667
709.417810	20498.333333
710.812008	20392.333333
712.205636	20474.333333
713.598694	20434.666667
714.991184	20416.333333
716.383105	20465.333333
717.774457	20332.333333
719.165241	20401.666667
720.555457	20415.666667
721.945105	20374.000000
723.334187	20304.666667
724.722701	20217.000000
726.110648	20369.333333
727.498030	20238.000000
728.884845	20303.666667
730.271094	20042.000000
731.656778	20220.666667
733.041897	20235.666667
734.426451	20082.000000
735.810441	20271.666667
737.193866	20168.333333
738.576728	20130.333333
739.959026	20086.333333
741.340760	20106.000000
742.721932	20166.333333
744.102541	20073.333333
745.482588	19995.666667
746.862073	19963.333333
748.240996	20053.333333
749.619358	20067.333333
750.997158	20045.666667
752.374398	20099.666667
753.751077	20094.333333
755.127197	20059.000000
756.502756	19961.333333
757.877756	19966.666667
759.252196	20043.333333
760.626078	19815.000000
761.999400	19950.666667
763.372165	19855.666667
764.744371	19974.666667
766.116020	19825.333333
767.487111	19734.000000
768.857646	19757.000000
770.227623	19583.333333
771.597044	19716.666667
772.965908	19699.333333
774.334217	19589.666667
775.701970	19620.333333
777.069168	19603.666667
778.435811	19582.000000
779.801899	19376.666667
781.167433	19631.666667
782.532412	19404.333333
783.896838	19393.666667
785.260710	19439.333333
786.624029	19536.666667
787.986796	19346.333333
789.349009	19325.333333
790.710671	19337.666667
792.071780	19393.666667
793.432338	19240.666667
794.792344	19310.666667
796.151799	19266.333333
797.510704	19280.666667
798.869058	19253.000000
800.226862	19206.666667
801.584116	19138.000000
802.940820	19214.000000
804.296975	19161.333333
805.652581	19198.333333
807.007638	19245.000000
808.362147	19128.333333
809.716108	19146.000000
811.069521	19251.666667
812.422387	19204.000000
813.774705	19192.000000
815.126476	19251.333333
816.477701	19153.000000
817.828380	19058.000000
819.178512	18999.000000
820.528099	18896.000000
821.877140	19056.666667
823.225637	18927.666667
824.573588	19049.333333
825.920995	19028.666667
827.267857	18978.333333
828.614176	18834.666667
829.959951	18843.666667
831.305183	18947.333333
832.649871	18929.666667
833.994017	18957.333333
835.337620	18908.000000
836.680681	18852.666667
838.023201	18850.333333
839.365178	18917.000000
840.706614	18917.000000
842.047510	18800.000000
843.387864	18902.000000
844.727678	19003.000000
846.066952	18957.333333
847.405687	18955.666667
848.743881	19052.666667
850.081537	19092.666667
851.418653	19207.000000
852.755231	19180.000000
854.091270	19019.333333
855.426771	19034.000000
856.761735	18982.000000
858.096160	18995.333333
859.430049	18988.000000
860.763401	18916.666667
862.096216	18831.333333
863.428495	18835.333333
864.760237	18793.333333
866.091444	18592.666667
867.422115	18657.000000
868.752252	18686.000000
870.081853	18689.666667
871.410919	18689.333333
872.739452	18485.666667
874.067450	18681.333333
875.394914	18495.000000
876.721845	18537.333333
878.048243	18410.000000
879.374108	18430.000000
880.699440	18344.666667
882.024240	18246.000000
883.348508	18332.000000
884.672244	18213.000000
885.995449	18178.000000
887.318122	18200.333333
888.640265	18095.000000
889.961877	18199.333333
891.282959	17985.000000
892.603510	17934.333333
893.923532	18044.666667
895.243024	18112.000000
896.561987	18030.333333
897.880422	17982.000000
899.198327	17847.000000
900.515705	17875.333333
901.832554	17847.000000
903.148875	17797.666667
904.464669	17681.333333
905.779936	17894.666667
907.094676	17922.666667
908.408889	17822.000000
909.722576	17912.000000
911.035737	17816.000000
912.348371	17982.333333
913.660481	17949.000000
914.972065	18008.000000
916.283124	18137.000000
917.593659	18188.333333
918.903669	18241.333333
920.213155	18188.000000
921.522117	18190.000000
922.830556	18299.666667
924.138471	18133.333333
925.445864	18185.666667
926.752733	18184.666667
928.059081	18184.333333
929.364906	18181.666667
930.670209	18149.000000
931.974991	18364.333333
933.279251	18312.333333
934.582990	18435.333333
935.886209	18499.000000
937.188907	18589.666667
938.491085	18682.000000
939.792743	18878.666667
941.093881	19017.333333
942.394500	19247.666667
943.694600	19416.000000
944.994181	19671.333333
946.293243	19999.000000
947.591787	20370.666667
948.889813	20871.333333
950.187322	21360.000000
951.484313	21837.666667
952.780787	22646.333333
954.076744	23239.333333
955.372184	23816.000000
956.667108	24269.333333
957.961516	24751.666667
959.255409	24932.333333
960.548785	24605.000000
961.841647	24247.000000
963.133993	23724.000000
964.425825	22802.000000
965.717142	21831.333333
967.007946	21097.333333
968.298235	20276.666667
969.588011	19660.333333
970.877273	19122.000000
972.166023	18511.333333
973.454259	18134.666667
974.741984	17800.666667
976.029196	17607.000000
977.315895	17426.000000
978.602084	17259.333333
979.887761	17182.666667
981.172926	16908.000000
982.457581	16929.333333
983.741725	16892.333333
985.025359	16756.666667
986.308483	16694.333333
987.591097	16605.333333
988.873202	16577.333333
990.154797	16624.666667
991.435883	16612.000000
992.716461	16514.000000
993.996530	16475.000000
995.276091	16604.666667
996.555144	16733.333333
997.833690	16608.333333
999.111728	16751.000000
1000.389259	16688.000000
1001.666283	16793.000000
1002.942800	16726.000000
1004.218812	16788.333333
1005.494317	16697.000000
1006.769317	16805.666667
1008.043811	16652.000000
1009.317799	16604.000000
1010.591283	16682.666667
1011.864263	16519.333333
1013.136737	16592.666667
1014.408708	16619.000000
1015.680175	16526.666667
1016.951138	16629.333333
1018.221598	16617.666667
1019.491554	16603.000000
1020.761008	16651.333333
1022.029959	16589.666667
1023.298408	16599.000000
1024.566355	16562.666667
1025.833800	16689.666667
1027.100744	16708.333333
1028.367187	16589.333333
1029.633128	16650.333333
1030.898569	16774.333333
1032.163509	16781.666667
1033.427949	16675.333333
1034.691890	16743.666667
1035.955330	16645.333333
1037.218271	16569.333333
1038.480714	16754.000000
1039.742657	16620.666667
1041.004101	16630.000000
1042.265048	16585.000000
1043.525496	16709.000000
1044.785446	16651.666667
1046.044899	16581.666667
1047.303855	16578.333333
1048.562313	16571.333333
1049.820275	16484.000000
1051.077740	16589.333333
1052.334709	16435.333333
1053.591182	16490.666667
1054.847160	16472.000000
1056.102641	16392.000000
1057.357628	16461.333333
1058.612120	16582.666667
1059.866117	16392.666667
1061.119619	16498.333333
1062.372628	16488.333333
1063.625142	16640.333333
1064.877163	16637.333333
1066.128691	16645.333333
1067.379725	16706.000000
1068.630267	16695.666667
1069.880316	16723.666667
1071.129872	16767.333333
1072.378937	16542.000000
1073.627509	16518.333333
1074.875590	16418.666667
1076.123180	16290.666667
1077.370279	16245.666667
1078.616887	16159.000000
1079.863004	15963.000000
1081.108631	16010.000000
1082.353768	15885.000000
1083.598415	15777.000000
1084.842573	15788.333333
1086.086241	15604.333333
1087.329421	15528.333333
1088.572111	15502.000000
1089.814314	15412.000000
1091.056028	15467.666667
1092.297253	15307.333333
1093.537992	15369.666667
1094.778242	15215.000000
1096.018006	15223.000000
1097.257282	15167.000000
1098.496072	15112.666667
1099.734376	15170.666667
1100.972193	15174.000000
1102.209524	15119.000000
1103.446370	15066.333333
1104.682730	15076.333333
1105.918604	15114.000000
1107.153994	14985.666667
1108.388900	14944.666667
1109.623320	14920.000000
1110.857257	14862.333333
1112.090710	14827.000000
1113.323679	14776.000000
1114.556164	14753.666667
1115.788167	14775.333333
1117.019686	14636.000000
1118.250723	14787.333333
1119.481278	14686.333333
1120.711350	14660.000000
1121.940940	14594.666667
1123.170049	14618.000000
1124.398676	14635.333333
1125.626823	14516.000000
1126.854488	14468.000000
1128.081672	14469.333333
1129.308376	14586.333333
1130.534600	14471.000000
1131.760345	14516.000000
1132.985609	14423.666667
1134.210394	14490.333333
1135.434700	14465.000000
1136.658527	14459.333333
1137.881875	14466.333333
1139.104745	14404.000000
1140.327136	14325.666667
1141.549050	14410.333333
1142.770486	14276.000000
1143.991445	14370.666667
1145.211926	14223.000000
1146.431931	14323.333333
1147.651459	14326.666667
1148.870510	14206.000000
1150.089086	14280.000000
1151.307185	14402.333333
1152.524808	14265.333333
1153.741957	14260.000000
1154.958630	14292.000000
1156.174828	14291.666667
1157.390551	14239.666667
1158.605800	14244.666667
1159.820574	14144.333333
1161.034875	14169.666667
1162.248702	14253.333333
1163.462055	14107.666667
1164.674936	14231.000000
1165.887343	14076.333333
1167.099277	14218.333333
1168.310739	14290.000000
1169.521729	14268.000000
1170.732247	14171.000000
1171.942293	14126.666667
1173.151867	14174.000000
1174.360970	14193.333333
1175.569602	14080.666667
1176.777764	14149.666667
1177.985454	14217.666667
1179.192675	14048.666667
1180.399425	14144.333333
1181.605706	13980.000000
1182.811517	14055.333333
1184.016859	14000.333333
1185.221731	13831.666667
1186.426135	13940.000000
1187.630070	13826.333333
1188.833537	13889.000000
1190.036535	13727.333333
1191.239066	13746.666667
1192.441129	13797.333333
1193.642725	13713.666667
1194.843853	13859.000000
1196.044515	13806.666667
1197.244710	13739.666667
1198.444438	13727.333333
1199.643701	13777.666667
1200.842497	13820.666667
1202.040827	13755.333333
1203.238693	13841.666667
1204.436092	13691.666667
1205.633027	13771.333333
1206.829497	13712.333333
1208.025503	13699.000000
1209.221044	13504.666667
1210.416122	13506.000000
1211.610735	13466.333333
1212.804885	13536.000000
1213.998572	13330.333333
1215.191795	13470.333333
1216.384556	13360.333333
1217.576854	13362.333333
1218.768689	13408.000000
1219.960063	13428.333333
1221.150974	13349.333333
1222.341424	13374.000000
1223.531413	13442.000000
1224.720940	13339.666667
1225.910006	13486.333333
1227.098612	13487.333333
1228.286757	13398.000000
1229.474442	13571.333333
1230.661667	13511.000000
1231.848432	13632.666667
1233.034738	13562.333333
1234.220584	13634.333333
1235.405971	13728.666667
1236.590900	13642.000000
1237.775369	13763.333333
1238.959381	13812.000000
1240.142934	13695.000000
1241.326029	13776.000000
1242.508667	13767.666667
1243.690848	13724.000000
1244.872571	13663.333333
1246.053837	13646.333333
1247.234646	13642.333333
1248.414999	13713.000000
1249.594896	13622.000000
1250.774337	13650.000000
1251.953322	13602.333333
1253.131851	13520.666667
1254.309925	13544.333333
1255.487544	13496.666667
1256.664708	13411.000000
1257.841417	13416.666667
1259.017673	13442.666667
1260.193473	13317.666667
1261.368820	13539.000000
1262.543714	13458.333333
1263.718154	13431.333333
1264.892140	13504.666667
1266.065674	13359.000000
1267.238755	13543.000000
1268.411383	13450.333333
1269.583559	13466.666667
1270.755283	13460.333333
1271.926555	13381.333333
1273.097375	13474.666667
1274.267744	13343.333333
1275.437662	13325.333333
1276.607129	13425.333333
1277.776145	13391.666667
1278.944711	13358.000000
1280.112827	13364.000000
1281.280492	13189.333333
1282.447708	13259.000000
1283.614474	13148.000000
1284.780791	13146.666667
1285.946659	13123.666667
1287.112078	12996.000000
1288.277048	12998.666667
1289.441570	13057.000000
1290.605644	12947.333333
1291.769270	12814.666667
1292.932448	12764.333333
1294.095178	12823.000000
1295.257461	12793.666667
1296.419298	12711.333333
1297.580687	12746.666667
1298.741630	12724.666667
1299.902126	12626.666667
1301.062177	12698.666667
1302.221781	12615.000000
1303.380940	12692.666667
1304.539653	12714.000000
1305.697921	12640.000000
1306.855744	12676.666667
1308.013123	12608.000000
1309.170056	12638.666667
1310.326546	12705.000000
1311.482591	12588.333333
1312.638193	12592.666667
1313.793350	12686.666667
1314.948065	12593.333333
1316.102336	12536.000000
1317.256164	12517.333333
1318.409550	12547.666667
1319.562493	12462.000000
1320.714993	12497.666667
1321.867052	12499.666667
1323.018668	12416.000000
1324.169843	12446.333333
1325.320577	12318.333333
1326.470870	12319.000000
1327.620721	12326.333333
1328.770132	12200.000000
1329.919102	12302.333333
1331.067632	12193.666667
1332.215722	12235.000000
1333.363372	12278.666667
1334.510582	12179.333333
1335.657353	12268.333333
1336.803685	12223.000000
1337.949578	12151.666667
1339.095032	12329.000000
1340.240048	12236.666667
1341.384625	12269.000000
1342.528764	12252.000000
1343.672466	12202.333333
1344.815729	12231.000000
1345.958556	12234.333333
1347.100945	12234.666667
1348.242897	12208.000000
1349.384413	12142.333333
1350.525492	12137.333333
1351.666134	12133.333333
1352.806341	12038.666667
1353.946111	12042.000000
1355.085446	12027.666667
1356.224346	11986.000000
1357.362810	12042.000000
1358.500840	11895.666667
1359.638434	11971.333333
1360.775594	11947.000000
1361.912320	11861.666667
1363.048612	11846.333333
1364.184469	11939.000000
1365.319893	11894.333333
1366.454884	11783.000000
1367.589441	11876.666667
1368.723566	11873.666667
1369.857257	11857.333333
1370.990516	11936.333333
1372.123343	11899.000000
1373.255737	11983.666667
1374.387699	11871.000000
1375.519230	11951.666667
1376.650329	11894.000000
1377.780997	11982.666667
1378.911234	12037.333333
1380.041040	11915.333333
1381.170416	11901.000000
1382.299361	11956.000000
1383.427875	11954.666667
1384.555960	11919.000000
1385.683615	11787.666667
1386.810841	11730.000000
1387.937637	11846.000000
1389.064004	11813.666667
1390.189942	11693.000000
1391.315451	11737.333333
1392.440532	11635.666667
1393.565185	11697.000000
1394.689409	11632.666667
1395.813206	11626.333333
1396.936575	11508.333333
1398.059517	11612.333333
1399.182032	11598.000000
1400.304119	11508.333333
1401.425780	11594.000000
1402.547014	11499.666667
1403.667822	11427.000000
1404.788204	11461.666667
1405.908160	11519.000000
1407.027690	11508.333333
1408.146795	11485.333333
1409.265474	11448.333333
1410.383728	11493.000000
1411.501558	11514.000000
1412.618963	11437.333333
1413.735943	11471.666667
1414.852499	11456.666667
1415.968632	11466.666667
1417.084340	11481.666667
1418.199625	11501.666667
1419.314486	11512.000000
1420.428925	11514.666667
1421.542940	11405.000000
1422.656533	11488.666667
1423.769703	11521.666667
1424.882451	11441.000000
1425.994777	11336.000000
1427.106680	11334.000000
1428.218163	11380.666667
1429.329223	11293.666667
1430.439863	11350.000000
1431.550081	11224.666667
1432.659879	11234.333333
1433.769256	11148.333333
1434.878212	11140.333333
1435.986749	11178.000000
1437.094865	11175.000000
1438.202562	11243.333333
1439.309839	11124.666667
1440.416696	11216.666667
1441.523135	11309.333333
1442.629154	11261.000000
1443.734755	11426.666667
1444.839937	11354.666667
1445.944701	11358.000000
1447.049047	11434.000000
1448.152975	11440.666667
1449.256485	11418.000000
1450.359577	11419.000000
1451.462253	11390.000000
1452.564511	11275.000000
1453.666352	11305.666667
1454.767777	11318.000000
1455.868785	11297.666667
1456.969377	11181.000000
1458.069553	11173.666667
1459.169313	11169.666667
1460.268658	11202.333333
1461.367587	11131.666667
1462.466101	11066.000000
1463.564200	11023.000000
1464.661884	10923.666667
1465.759153	10946.333333
1466.856008	10929.333333
1467.952449	10824.000000
1469.048476	10701.333333
1470.144089	10591.666667
1471.239288	10564.000000
1472.334074	10524.666667
1473.428447	10519.000000
1474.522407	10495.000000
1475.615955	10348.000000
1476.709089	10306.666667
1477.801812	10359.000000
1478.894122	10273.666667
1479.986020	10200.333333
1481.077506	10289.333333
1482.168581	10232.666667
1483.259245	10105.000000
1484.349498	10127.000000
1485.439339	10209.666667
1486.528770	10130.000000
1487.617790	10123.666667
1488.706400	10215.333333
1489.794600	10252.000000
1490.882390	10130.000000
1491.969771	10140.666667
1493.056742	10087.000000
1494.143303	10053.333333
1495.229456	10116.333333
1496.315199	10095.000000
1497.400534	10054.333333
1498.485460	10080.000000
1499.569978	9909.333333
1500.654088	10034.333333
1501.737790	9861.333333
1502.821085	9939.000000
1503.903972	9852.333333
1504.986451	9789.000000
1506.068524	9815.333333
1507.150189	9808.000000
1508.231448	9837.333333
1509.312301	9753.000000
1510.392747	9683.666667
1511.472787	9739.000000
1512.552422	9714.333333
1513.631650	9540.666667
1514.710473	9642.000000
1515.788891	9626.666667
1516.866904	9586.333333
1517.944512	9596.333333
1519.021715	9594.666667
1520.098513	9604.666667
1521.174908	9679.333333
1522.250898	9544.666667
1523.326485	9617.333333
1524.401667	9562.666667
1525.476447	9556.000000
1526.550823	9533.666667
1527.624796	9643.666667
1528.698365	9569.666667
1529.771533	9633.666667
1530.844298	9556.000000
1531.916660	9558.333333
1532.988620	9546.333333
1534.060179	9584.666667
1535.131336	9476.666667
1536.202091	9497.333333
1537.272445	9471.666667
1538.342398	9504.333333
1539.411950	9375.000000
1540.481101	9376.000000
1541.549851	9349.666667
1542.618202	9375.333333
1543.686152	9327.000000
1544.753702	9298.000000
1545.820853	9200.000000
1546.887604	9245.333333
1547.953955	9238.333333
1549.019908	9172.666667
1550.085461	9229.000000
1551.150616	9179.000000
1552.215372	9196.333333
1553.279730	9122.000000
1554.343690	9179.666667
1555.407252	9122.000000
1556.470415	9109.000000
1557.533182	9153.333333
1558.595551	9104.666667
1559.657522	9106.666667
1560.719097	9121.000000
1561.780275	9161.000000
1562.841056	9122.333333
1563.901441	9113.333333
1564.961429	9115.000000
1566.021022	9120.000000
1567.080219	9142.666667
1568.139020	9069.333333
1569.197425	8993.333333
1570.255436	9074.666667
1571.313051	9159.666667
1572.370271	9030.666667
1573.427097	9070.000000
1574.483528	9058.666667
1575.539565	8971.000000
1576.595208	9012.000000
1577.650457	8960.666667
1578.705312	8893.333333
1579.759774	8864.000000
1580.813842	8962.000000
1581.867517	8835.000000
1582.920799	8884.333333
1583.973689	8727.666667
1585.026186	8891.333333
1586.078290	8795.333333
1587.130002	8792.000000
1588.181323	8698.666667
1589.232251	8759.000000
1590.282788	8652.666667
1591.332933	8644.333333
1592.382688	8634.333333
1593.432051	8585.000000
1594.481023	8633.333333
1595.529605	8689.000000
1596.577796	8669.666667
1597.625597	8642.666667
1598.673007	8693.333333
1599.720028	8744.000000
1600.766660	8669.666667
1601.812901	8659.666667
1602.858753	8774.333333
1603.904217	8688.333333
1604.949291	8711.333333
1605.993976	8707.666667
1607.038273	8654.666667
1608.082182	8662.000000
1609.125702	8675.000000
1610.168834	8625.333333
1611.211579	8568.000000
1612.253935	8567.000000
1613.295905	8550.666667
1614.337487	8525.000000
1615.378682	8485.000000
1616.419490	8514.000000
1617.459912	8547.666667
1618.499946	8510.666667
1619.539595	8473.000000
1620.578858	8462.333333
1621.617734	8421.666667
1622.656225	8399.333333
1623.694330	8440.333333
1624.732050	8363.666667
1625.769385	8424.000000
1626.806334	8411.000000
1627.842899	8327.000000
1628.879079	8386.000000
1629.914875	8408.666667
1630.950286	8314.000000
1631.985314	8372.333333
1633.019957	8302.333333
1634.054217	8389.333333
1635.088093	8368.333333
1636.121586	8377.333333
1637.154696	8414.666667
1638.187423	8345.333333
1639.219767	8441.000000
1640.251728	8381.000000
1641.283307	8337.333333
1642.314504	8349.666667
1643.345319	8353.666667
1644.375751	8419.000000
1645.405803	8335.000000
1646.435472	8372.666667
1647.464761	8291.666667
1648.493668	8314.333333
1649.522194	8272.333333
1650.550340	8268.333333
1651.578105	8297.333333
1652.605490	8311.333333
1653.632494	8203.000000
1654.659119	8301.000000
1655.685363	8254.333333
1656.711228	8205.666667
1657.736714	8172.666667
1658.761820	8128.000000
1659.786547	8111.000000
1660.810895	8126.000000
1661.834865	8078.000000
1662.858456	8076.000000
1663.881668	8022.000000
1664.904503	7990.000000
1665.926959	7995.000000
1666.949038	7975.666667
1667.970739	7890.000000
1668.992062	7878.333333
1670.013008	7899.333333
1671.033577	7880.333333
1672.053770	7880.000000
1673.073585	7774.333333
1674.093024	7832.000000
1675.112086	7832.000000
1676.130773	7817.000000
1677.149083	7805.333333
1678.167017	7772.000000
1679.184576	7730.333333
1680.201760	7825.333333
1681.218568	7860.000000
1682.235001	7707.000000
1683.251059	7807.000000
1684.266742	7748.666667
1685.282051	7774.666667
1686.296985	7674.000000
1687.311546	7709.000000
1688.325732	7646.000000
1689.339544	7613.333333
1690.352983	7587.000000
1691.366048	7495.333333
1692.378740	7496.666667
1693.391058	7465.333333
1694.403004	7472.333333
1695.414577	7392.000000
1696.425778	7369.000000
1697.436606	7387.666667
1698.447061	7390.333333
1699.457145	7276.000000
1700.466857	7219.000000
1701.476197	7231.666667
1702.485166	7170.666667
1703.493763	7168.666667
1704.501989	7182.333333
1705.509844	7109.333333
1706.517328	7080.000000
1707.524442	7114.666667
1708.531185	7039.666667
1709.537558	7072.000000
1710.543561	7029.333333
1711.549194	7076.000000
1712.554457	7058.666667
1713.559351	6969.333333
1714.563875	7005.000000
1715.568030	6975.000000
1716.571816	7027.000000
1717.575233	7015.666667
1718.578282	7027.666667
1719.580962	7016.000000
1720.583273	6973.666667
1721.585217	7009.000000
1722.586792	7076.000000
1723.588000	7062.333333
1724.588840	7063.333333
1725.589312	7061.000000
1726.589418	7063.666667
1727.589156	6991.333333
1728.588527	7039.333333
1729.587532	7034.666667
1730.586170	6946.000000
1731.584441	6956.000000
1732.582346	6988.333333
1733.579886	6957.000000
1734.577059	6930.333333
1735.573867	6873.333333
1736.570309	6869.333333
1737.566386	6865.333333
1738.562097	6801.666667
1739.557444	6805.333333
1740.552426	6774.000000
1741.547043	6699.333333
1742.541295	6687.666667
1743.535184	6681.666667
1744.528708	6578.000000
1745.521868	6650.000000
1746.514664	6589.333333
1747.507097	6648.333333
1748.499166	6587.333333
1749.490873	6611.666667
1750.482216	6628.000000
1751.473196	6573.000000
1752.463813	6595.666667
1753.454068	6562.333333
1754.443960	6572.666667
1755.433490	6605.333333
1756.422658	6524.666667
1757.411464	6641.333333
1758.399908	6579.000000
1759.387991	6585.000000
1760.375713	6662.000000
1761.363073	6548.666667
1762.350072	6515.666667
1763.336711	6526.666667
1764.322988	6517.000000
1765.308905	6544.666667
1766.294462	6517.333333
1767.279659	6545.333333
1768.264496	6450.333333
1769.248972	6461.666667
1770.233089	6507.666667
1771.216847	6456.666667
1772.200245	6432.666667
1773.183284	6381.000000
1774.165965	6350.666667
1775.148286	6331.666667
1776.130249	6360.666667
1777.111853	6359.000000
1778.093099	6174.000000
1779.073987	6259.000000
1780.054517	6271.333333
1781.034689	6189.666667
1782.014503	6119.000000
1782.993960	6157.666667
1783.973060	6100.333333
1784.951802	6118.333333
1785.930188	6058.000000
1786.908217	6015.333333
1787.885889	6018.333333
1788.863205	6030.666667
1789.840164	5983.333333
1790.816768	5943.000000
1791.793015	5934.000000
1792.768907	5961.333333
1793.744443	5936.666667
1794.719624	5974.333333
1795.694449	5973.333333
1796.668919	5975.000000
1797.643035	5937.333333
1798.616795	5910.333333
1799.590201	5987.000000
1800.563253	6011.333333
1801.535950	5972.666667
1802.508294	5938.666667
1803.480283	5936.000000
1804.451919	5921.333333
1805.423201	5984.666667
1806.394129	5925.000000
1807.364705	5935.666667
1808.334927	5983.666667
1809.304796	5982.000000
1810.274313	5947.333333
1811.243477	5933.333333
1812.212288	5893.000000
1813.180747	5921.333333
1814.148855	5907.333333
1815.116610	5926.333333
1816.084013	5884.333333
1817.051065	5785.000000
1818.017766	5876.666667
1818.984115	5845.666667
1819.950113	5859.666667
1820.915760	5780.666667
1821.881057	5776.666667
1822.846003	5767.000000
1823.810598	5727.000000
1824.774843	5741.333333
1825.738738	5689.666667
1826.702283	5677.666667
1827.665479	5705.666667
1828.628324	5680.666667
1829.590821	5654.666667
1830.552968	5663.333333
1831.514765	5660.333333
1832.476214	5598.666667
1833.437314	5664.666667
1834.398066	5619.666667
1835.358469	5674.333333
1836.318524	5613.666667
1837.278230	5585.333333
1838.237589	5586.666667
1839.196600	5617.333333
1840.155263	5644.000000
1841.113578	5598.333333
1842.071547	5647.666667
1843.029168	5568.666667
1843.986442	5591.000000
1844.943369	5699.000000
1845.899950	5624.666667
1846.856184	5574.333333
1847.812072	5606.000000
1848.767614	5608.333333
1849.722809	5682.333333
1850.677659	5584.000000
1851.632163	5593.333333
1852.586322	5617.666667
1853.540135	5623.666667
1854.493603	5623.000000
1855.446726	5628.333333
1856.399504	5581.666667
1857.351937	5561.000000
1858.304026	5537.000000
1859.255770	5507.666667
1860.207170	5467.000000
1861.158227	5498.000000
1862.108939	5424.333333
1863.059307	5440.666667
1864.009332	5445.333333
1864.959013	5336.333333
1865.908351	5396.666667
1866.857346	5347.666667
1867.805998	5364.666667
1868.754307	5319.000000
1869.702274	5287.000000
1870.649898	5246.666667
1871.597180	5268.000000
1872.544119	5240.333333
1873.490717	5209.333333
1874.436973	5240.333333
1875.382887	5152.000000
1876.328459	5205.000000
1877.273691	5256.000000
1878.218581	5182.000000
1879.163130	5200.666667
1880.107338	5169.666667
1881.051205	5147.666667
1881.994732	5197.333333
1882.937919	5236.333333
1883.880765	5246.666667
1884.823271	5174.333333
1885.765437	5181.333333
1886.707264	5237.000000
1887.648750	5185.666667
1888.589898	5148.000000
1889.530706	5211.000000
1890.471175	5211.000000
1891.411305	5168.666667
1892.351096	5261.333333
1893.290548	5165.000000
1894.229662	5219.000000
1895.168438	5208.000000
1896.106876	5198.666667
1897.044975	5203.666667
1897.982737	5156.333333
1898.920160	5169.666667
1899.857247	5146.333333
1900.793996	5093.000000
1901.730407	5118.333333
1902.666482	5063.000000
1903.602219	5026.666667
1904.537620	5052.333333
1905.472685	4967.000000
1906.407412	4985.000000
1907.341804	4940.000000
1908.275859	4919.333333
1909.209579	4923.000000
1910.142962	4904.000000
1911.076010	4824.000000
1912.008722	4857.000000
1912.941099	4825.333333
1913.873141	4833.666667
1914.804848	4723.333333
1915.736219	4783.333333
1916.667256	4793.000000
1917.597959	4794.333333
1918.528327	4739.333333
1919.458360	4713.000000
1920.388060	4736.000000
1921.317426	4755.000000
1922.246457	4751.333333
1923.175156	4761.000000
1924.103520	4764.666667
1925.031552	4712.333333
1925.959250	4690.333333
1926.886615	4729.333333
1927.813647	4719.666667
1928.740346	4793.333333
1929.666713	4695.000000
1930.592748	4764.333333
1931.518450	4720.666667
1932.443820	4741.333333
1933.368858	4761.333333
1934.293564	4738.333333
1935.217939	4764.333333
1936.141982	4714.333333
1937.065694	4759.333333
1937.989074	4691.333333
1938.912124	4707.666667
1939.834842	4694.000000
1940.757230	4712.333333
1941.679287	4653.000000
1942.601014	4610.333333
1943.522411	4573.666667
1944.443477	4598.333333
1945.364214	4545.666667
1946.284621	4605.666667
1947.204698	4571.666667
1948.124445	4502.333333
1949.043863	4481.666667
1949.962952	4473.000000
1950.881712	4537.666667
1951.800143	4399.666667
1952.718245	4427.000000
1953.636019	4448.000000
1954.553464	4428.000000
1955.470581	4416.000000
1956.387369	4332.666667
1957.303830	4379.333333
1958.219963	4362.000000
1959.135768	4317.666667
1960.051246	4322.666667
1960.966396	4367.000000
1961.881219	4292.000000
1962.795715	4390.333333
1963.709883	4350.000000
1964.623726	4397.333333
1965.537241	4323.000000
1966.450430	4368.666667
1967.363293	4342.333333
1968.275829	4396.000000
1969.188040	4426.666667
1970.099924	4413.333333
1971.011483	4401.666667
1971.922716	4452.333333
1972.833624	4402.333333
1973.744206	4372.333333
1974.654464	4347.666667
1975.564396	4397.333333
1976.474004	4391.333333
1977.383286	4407.333333
1978.292245	4394.333333
1979.200878	4366.000000
1980.109188	4341.666667
1981.017174	4307.333333
1981.924835	4308.333333
1982.832173	4292.666667
1983.739187	4298.333333
1984.645878	4250.000000
1985.552245	4305.666667
1986.458289	4253.000000
1987.364010	4216.666667
1988.269408	4189.333333
1989.174484	4215.000000
1990.079236	4227.333333
1990.983667	4147.666667
1991.887775	4179.000000
1992.791561	4134.666667
1993.695024	4138.000000
1994.598166	4051.333333
1995.500986	4100.333333
1996.403485	4083.000000
1997.305662	4062.333333
1998.207518	4048.666667
1999.109053	4087.333333
