200.151048	27527.000000
201.758777	27349.000000
203.365815	27601.666667
204.972162	27415.333333
206.577820	27382.333333
208.182787	27271.333333
209.787065	27266.666667
211.390653	27339.666667
212.993553	27189.333333
214.595765	27041.666667
216.197289	27109.000000
217.798125	27115.000000
219.398274	26947.000000
220.997737	26992.333333
222.596513	26940.333333
224.194603	27002.000000
225.792008	26887.000000
227.388728	26891.666667
228.984763	27008.000000
230.580114	26858.333333
232.174781	26845.666667
233.768765	26802.333333
235.362065	26710.333333
236.954683	26723.666667
238.546619	26645.333333
240.137872	26588.333333
241.728445	26785.666667
243.318336	26667.333333
244.907546	26529.333333
246.496076	26516.333333
248.083926	26335.000000
249.671097	26312.000000
251.257589	26029.333333
252.843402	26163.666667
254.428536	26029.333333
256.012993	26095.666667
257.596772	25913.666667
259.179874	25773.000000
260.762300	25908.333333
262.344049	25643.333333
263.925122	25752.000000
265.505519	25689.333333
267.085241	25654.666667
268.664289	25526.000000
270.242662	25658.333333
271.820361	25616.333333
273.397387	25622.333333
274.973740	26245.333333
276.549419	25610.666667
278.124426	25843.666667
279.698762	25750.333333
281.272425	25592.000000
282.845417	25644.000000
284.417739	25680.000000
285.989390	25768.333333
287.560371	25607.000000
289.130682	25758.000000
290.700324	25687.000000
292.269297	25672.666667
293.837602	25688.333333
295.405238	25431.333333
296.972207	25600.333333
298.538508	25695.333333
300.104142	25456.666667
301.669110	25516.666667
303.233411	25349.000000
304.797047	25274.333333
306.360017	25269.000000
307.922322	25097.000000
309.483963	25083.000000
311.044939	24985.333333
312.605252	24967.000000
314.164900	24849.000000
315.723886	24715.666667
317.282209	24756.333333
318.839870	24645.000000
320.396868	24639.333333
321.953205	24616.000000
323.508881	24643.333333
325.063896	24578.666667
326.618251	24434.666667
328.171945	24541.000000
329.724980	24362.000000
331.277356	24473.666667
332.829072	24449.666667
334.380131	24433.666667
335.930530	24393.333333
337.480273	24410.000000
339.029357	24368.666667
340.577785	24346.000000
342.125556	24400.000000
343.672671	24404.333333
345.219130	24267.000000
346.764933	24510.000000
348.310081	24238.333333
349.854575	24279.333333
351.398414	24302.666667
352.941599	24205.666667
354.484130	24205.000000
356.026008	24190.000000
357.567234	24165.333333
359.107807	24050.666667
360.647727	24167.000000
362.186996	24110.333333
363.725614	24117.666667
365.263580	24080.666667
366.800896	23980.000000
368.337562	23997.333333
369.873578	23838.666667
371.408944	24042.000000
372.943661	23879.666667
374.477730	23988.666667
376.011150	23862.333333
377.543922	23864.333333
379.076046	23947.000000
380.607523	23846.000000
382.138353	23855.333333
383.668537	23862.000000
385.198075	24002.333333
386.726966	23840.666667
388.255213	24036.000000
389.782814	23916.000000
391.309770	24071.333333
392.836083	23937.000000
394.361751	24004.666667
395.886776	24102.666667
397.411157	24091.000000
398.934896	24041.000000
400.457992	24046.000000
401.980446	24224.666667
403.502258	24189.666667
405.023429	24175.333333
406.543959	24289.333333
408.063849	24247.000000
409.583098	24377.333333
411.101707	24388.333333
412.619677	24361.666667
414.137007	24481.000000
415.653699	24616.000000
417.169752	24785.666667
418.685167	25006.666667
420.199945	25117.666667
421.714085	25255.333333
423.227588	25443.000000
424.740454	25475.666667
426.252684	25547.666667
427.764279	25572.000000
429.275238	25703.000000
430.785561	25561.000000
432.295250	25442.333333
433.804304	25420.000000
435.312725	25252.666667
436.820511	24921.000000
438.327664	25045.666667
439.834185	24754.000000
441.340072	24820.333333
442.845327	24592.333333
444.349951	24568.000000
445.853942	24610.666667
447.357303	24368.333333
448.860033	24378.333333
450.362132	24226.333333
451.863601	24208.000000
453.364440	24124.666667
454.864650	24035.000000
456.364231	23857.333333
457.863183	23813.333333
459.361507	23595.000000
460.859203	23540.333333
462.356271	23339.666667
463.852712	23309.333333
465.348526	23245.666667
466.843714	23181.333333
468.338275	23026.000000
469.832210	22914.666667
471.325520	22920.666667
472.818205	22959.333333
474.310265	22798.000000
475.801700	22841.000000
477.292512	22738.666667
478.782700	22609.666667
480.272264	22591.000000
481.761205	22695.000000
483.249524	22466.333333
484.737221	22400.666667
486.224295	22408.000000
487.710748	22626.000000
489.196579	22490.333333
490.681790	22537.000000
492.166380	22284.666667
493.650350	22295.333333
495.133700	22430.000000
496.616431	22317.000000
498.098542	22308.666667
499.580035	22257.666667
501.060909	22205.000000
502.541165	22223.666667
504.020804	22181.333333
505.499825	22179.666667
506.978228	22018.333333
508.456016	21967.666667
509.933186	22016.000000
511.409741	22086.000000
512.885680	22054.333333
514.361004	21955.000000
515.835713	22074.666667
517.309807	22001.666667
518.783287	21943.000000
520.256153	21976.333333
521.728406	21735.000000
523.200045	21898.000000
524.671071	21847.666667
526.141485	21911.000000
527.611287	21886.333333
529.080476	21877.666667
530.549054	21809.666667
532.017021	21763.666667
533.484378	21786.000000
534.951123	21816.000000
536.417259	21693.333333
537.882785	21729.000000
539.347701	21667.333333
540.812008	21754.000000
542.275707	21695.333333
543.738797	21690.333333
545.201279	21632.000000
546.663153	21661.333333
548.124420	21715.333333
549.585080	21718.000000
551.045133	21784.666667
552.504579	21868.333333
553.963420	21885.666667
555.421655	21895.333333
556.879285	21908.000000
558.336309	21811.666667
559.792729	21941.000000
561.248545	22015.666667
562.703756	21902.000000
564.158364	21935.333333
565.612369	22006.000000
567.065770	22051.000000
568.518569	22107.666667
569.970766	22145.000000
571.422361	22158.333333
572.873354	22322.333333
574.323745	22402.333333
575.773536	22532.000000
577.222726	22611.000000
578.671316	22703.666667
580.119306	22658.666667
581.566696	22764.333333
583.013487	22730.333333
584.459679	22673.000000
585.905273	22569.666667
587.350268	22627.333333
588.794665	22503.666667
590.238465	22404.666667
591.681667	22484.000000
593.124272	22255.666667
594.566281	22192.333333
596.007694	22075.666667
597.448510	21875.666667
598.888731	21611.000000
600.328357	21647.666667
601.767388	21679.666667
603.205824	21627.000000
604.643666	21539.666667
606.080914	21375.333333
607.517568	21563.000000
608.953629	21452.000000
610.389097	21498.666667
611.823972	21333.666667
613.258255	21262.000000
614.691946	21334.333333
616.125046	21113.666667
617.557554	20942.000000
618.989471	20941.000000
620.420798	20976.000000
621.851534	20778.666667
623.281680	20669.333333
624.711237	20572.666667
626.140204	20493.666667
627.568582	20332.666667
628.996372	20414.333333
630.423573	20422.666667
631.850186	20356.000000
633.276211	20313.666667
634.701650	20260.333333
636.126501	20152.666667
637.550765	20204.333333
638.974443	20123.666667
640.397535	20075.666667
641.820041	20037.666667
643.241961	19999.666667
644.663297	20146.000000
646.084048	20042.666667
647.504214	19933.666667
648.923796	19986.000000
650.342795	20025.000000
651.761210	19877.000000
653.179041	19899.333333
654.596290	19842.666667
656.012957	19841.333333
657.429041	19826.333333
658.844543	19811.333333
660.259464	19821.000000
661.673804	19809.000000
663.087563	19813.000000
664.500741	19933.333333
665.913339	19801.666667
667.325357	19751.666667
668.736795	19702.333333
670.147654	19817.000000
671.557934	19831.000000
672.967636	19616.000000
674.376759	19682.000000
675.785304	19495.666667
677.193271	19553.666667
678.600661	19518.000000
680.007474	19596.000000
681.413711	19556.000000
682.819370	19417.666667
684.224454	19469.000000
685.628962	19462.000000
687.032895	19329.666667
688.436252	19390.333333
689.839034	19322.333333
691.241242	19363.666667
692.642876	19373.666667
694.043936	19290.333333
695.444422	19240.333333
696.844336	19349.666667
698.243676	19306.333333
699.642443	19209.000000
701.040639	19281.333333
702.438262	19345.000000
703.835313	19151.666667
705.231794	19232.333333
706.627703	19180.666667
708.023041	19119.333333
709.417810	19124.666667
710.812008	18985.000000
712.205636	19189.000000
713.598694	19133.333333
714.991184	18950.000000
716.383105	19087.333333
717.774457	18920.333333
719.165241	19060.000000
720.555457	18945.000000
721.945105	18985.666667
723.334187	19091.000000
724.722701	18984.666667
726.110648	19028.333333
727.498030	18973.000000
728.884845	18992.000000
730.271094	18837.666667
731.656778	18947.666667
733.041897	18762.666667
734.426451	18879.000000
735.810441	18923.666667
737.193866	18904.666667
738.576728	18860.666667
739.959026	18835.666667
741.340760	18735.333333
742.721932	18775.000000
744.102541	18735.333333
745.482588	18646.666667
746.862073	18666.333333
748.240996	18726.666667
749.619358	18805.333333
750.997158	18639.000000
752.374398	18644.333333
753.751077	18611.333333
755.127197	18629.333333
756.502756	18618.333333
757.877756	18643.666667
759.252196	18617.000000
760.626078	18589.000000
761.999400	18598.333333
763.372165	18489.000000
764.744371	18627.000000
766.116020	18491.666667
767.487111	18515.000000
768.857646	18474.333333
770.227623	18406.333333
771.597044	18386.000000
772.965908	18349.666667
774.334217	18316.333333
775.701970	18301.666667
777.069168	18215.333333
778.435811	18186.000000
779.801899	18209.666667
781.167433	18040.000000
782.532412	18119.666667
783.896838	18094.333333
785.260710	18134.666667
786.624029	18201.333333
787.986796	18133.000000
789.349009	18009.333333
790.710671	18066.666667
792.071780	18102.000000
793.432338	17979.333333
794.792344	17972.666667
796.151799	17940.333333
797.510704	17822.333333
798.869058	17938.666667
800.226862	17957.000000
801.584116	17869.000000
802.940820	17947.000000
804.296975	17851.000000
805.652581	17914.333333
807.007638	17919.333333
808.362147	17915.666667
809.716108	17918.666667
811.069521	17900.666667
812.422387	18003.333333
813.774705	17874.333333
815.126476	17871.666667
816.477701	17922.333333
817.828380	17836.000000
819.178512	17707.666667
820.528099	17754.666667
821.877140	17771.000000
823.225637	17740.666667
824.573588	17701.333333
825.920995	17729.000000
827.267857	17742.000000
828.614176	17624.000000
829.959951	17582.000000
831.305183	17590.000000
832.649871	17595.333333
833.994017	17623.000000
835.337620	17661.333333
836.680681	17566.333333
838.023201	17645.000000
839.365178	17625.000000
840.706614	17638.333333
842.047510	17602.666667
843.387864	17762.666667
844.727678	17632.333333
846.066952	17666.666667
847.405687	17713.000000
848.743881	17780.000000
850.081537	17740.000000
851.418653	17817.000000
852.755231	17705.000000
854.091270	17659.666667
855.426771	17808.666667
856.761735	17680.333333
858.096160	17679.333333
859.430049	17616.333333
860.763401	17660.666667
862.096216	17550.000000
863.428495	17495.666667
864.760237	17551.000000
866.091444	17388.666667
867.422115	17430.000000
868.752252	17364.333333
870.081853	17249.000000
871.410919	17375.333333
872.739452	17337.666667
874.067450	17321.000000
875.394914	17260.000000
876.721845	17329.000000
878.048243	17276.666667
879.374108	17226.333333
880.699440	17163.333333
882.024240	17096.666667
883.348508	17149.333333
884.672244	17013.000000
885.995449	17131.666667
887.318122	16919.000000
888.640265	16916.333333
889.961877	16910.000000
891.282959	16860.666667
892.603510	16883.666667
893.923532	16823.333333
895.243024	16757.000000
896.561987	16744.333333
897.880422	16732.333333
899.198327	16668.000000
900.515705	16627.666667
901.832554	16737.666667
903.148875	16677.666667
904.464669	16630.333333
905.779936	16708.666667
907.094676	16714.666667
908.408889	16744.666667
909.722576	16676.666667
911.035737	16723.333333
912.348371	16775.666667
913.660481	16781.333333
914.972065	16869.000000
916.283124	16965.666667
917.593659	16915.333333
918.903669	17039.000000
920.213155	17020.666667
921.522117	16975.000000
922.830556	16996.666667
924.138471	16983.000000
925.445864	16831.000000
926.752733	16981.333333
928.059081	16875.333333
929.364906	16959.000000
930.670209	17143.333333
931.974991	17137.666667
933.279251	17177.666667
934.582990	17247.333333
935.886209	17478.000000
937.188907	17375.666667
938.491085	17536.000000
939.792743	17686.333333
941.093881	17963.666667
942.394500	18224.000000
943.694600	18295.000000
944.994181	18691.333333
946.293243	19122.666667
947.591787	19482.333333
948.889813	20032.666667
950.187322	20680.666667
951.484313	21322.333333
952.780787	22015.333333
954.076744	22914.000000
955.372184	23363.333333
956.667108	24235.666667
957.961516	24627.666667
959.255409	24746.000000
960.548785	24518.000000
961.841647	24112.333333
963.133993	23323.666667
964.425825	22271.666667
965.717142	21587.000000
967.007946	20533.000000
968.298235	19659.333333
969.588011	18864.666667
970.877273	18317.000000
972.166023	17685.666667
973.454259	17263.000000
974.741984	16910.333333
976.029196	16673.666667
977.315895	16439.000000
978.602084	16135.333333
979.887761	16043.000000
981.172926	15919.333333
982.457581	15870.666667
983.741725	15836.666667
985.025359	15804.000000
986.308483	15750.666667
987.591097	15603.000000
988.873202	15647.333333
990.154797	15587.000000
991.435883	15663.333333
992.716461	15463.333333
993.996530	15555.666667
995.276091	15594.333333
996.555144	15448.333333
997.833690	15621.000000
999.111728	15594.000000
1000.389259	15667.000000
1001.666283	15662.333333
1002.942800	15760.000000
1004.218812	15725.000000
1005.494317	15543.333333
1006.769317	15583.666667
1008.043811	15502.666667
1009.317799	15535.666667
1010.591283	15546.000000
1011.864263	15637.666667
1013.136737	15521.000000
1014.408708	15529.000000
1015.680175	15677.333333
1016.951138	15539.000000
1018.221598	15579.000000
1019.491554	15459.000000
1020.761008	15631.666667
1022.029959	15565.333333
1023.298408	15645.333333
1024.566355	15577.666667
1025.833800	15684.666667
1027.100744	15647.666667
1028.367187	15590.333333
1029.633128	15568.000000
1030.898569	15690.666667
1032.163509	15648.000000
1033.427949	15634.666667
1034.691890	15665.333333
1035.955330	15736.333333
1037.218271	15692.666667
1038.480714	15594.000000
1039.742657	15730.666667
1041.004101	15694.000000
1042.265048	15662.333333
1043.525496	15735.000000
1044.785446	15662.666667
1046.044899	15616.333333
1047.303855	15596.666667
1048.562313	15534.666667
1049.820275	15528.333333
1051.077740	15558.333333
1052.334709	15455.000000
1053.591182	15514.333333
1054.847160	15375.000000
1056.102641	15454.666667
1057.357628	15374.000000
1058.612120	15430.666667
1059.866117	15521.333333
1061.119619	15542.333333
1062.372628	15616.000000
1063.625142	15596.666667
1064.877163	15628.000000
1066.128691	15759.333333
1067.379725	15637.000000
1068.630267	15698.333333
1069.880316	15742.333333
1071.129872	15775.333333
1072.378937	15743.666667
1073.627509	15586.666667
1074.875590	15463.000000
1076.123180	15373.666667
1077.370279	15290.666667
1078.616887	15125.000000
1079.863004	15071.000000
1081.108631	14960.666667
1082.353768	14802.000000
1083.598415	14671.333333
1084.842573	14749.000000
1086.086241	14523.000000
1087.329421	14666.333333
1088.572111	14531.333333
1089.814314	14409.000000
1091.056028	14421.666667
1092.297253	14262.666667
1093.537992	14211.666667
1094.778242	14127.000000
1096.018006	14242.333333
1097.257282	14170.333333
1098.496072	14093.333333
1099.734376	14150.666667
1100.972193	14162.333333
1102.209524	14055.333333
1103.446370	14058.000000
1104.682730	14006.333333
1105.918604	14088.333333
1107.153994	13838.333333
1108.388900	13860.666667
1109.623320	13876.666667
1110.857257	13690.666667
1112.090710	13829.333333
1113.323679	13767.333333
1114.556164	13610.666667
1115.788167	13728.333333
1117.019686	13597.666667
1118.250723	13578.333333
1119.481278	13526.333333
1120.711350	13563.000000
1121.940940	13632.666667
1123.170049	13517.666667
1124.398676	13456.666667
1125.626823	13543.000000
1126.854488	13479.000000
1128.081672	13554.666667
1129.308376	13389.333333
1130.534600	13456.333333
1131.760345	13490.333333
1132.985609	13386.333333
1134.210394	13372.666667
1135.434700	13352.333333
1136.658527	13317.666667
1137.881875	13362.333333
1139.104745	13225.000000
1140.327136	13301.666667
1141.549050	13248.666667
1142.770486	13296.333333
1143.991445	13242.666667
1145.211926	13205.333333
1146.431931	13159.333333
1147.651459	13148.666667
1148.870510	13257.666667
1150.089086	13139.000000
1151.307185	13164.000000
1152.524808	13221.000000
1153.741957	13145.666667
1154.958630	13279.666667
1156.174828	13054.333333
1157.390551	13209.000000
1158.605800	13098.666667
1159.820574	13222.333333
1161.034875	13060.000000
1162.248702	13181.666667
1163.462055	13098.666667
1164.674936	13150.000000
1165.887343	13197.333333
1167.099277	13041.666667
1168.310739	13062.000000
1169.521729	13146.000000
1170.732247	13079.666667
1171.942293	13103.333333
1173.151867	13019.000000
1174.360970	13154.666667
1175.569602	13011.666667
1176.777764	13020.000000
1177.985454	13058.000000
1179.192675	12899.333333
1180.399425	12907.333333
1181.605706	12924.666667
1182.811517	12828.333333
1184.016859	12811.666667
1185.221731	12746.666667
1186.426135	12691.000000
1187.630070	12735.000000
1188.833537	12757.000000
1190.036535	12767.333333
1191.239066	12703.666667
1192.441129	12709.000000
1193.642725	12635.000000
1194.843853	12641.666667
1196.044515	12693.333333
1197.244710	12649.000000
1198.444438	12740.666667
1199.643701	12613.333333
1200.842497	12540.666667
1202.040827	12640.666667
1203.238693	12655.000000
1204.436092	12586.000000
1205.633027	12677.333333
1206.829497	12559.000000
1208.025503	12592.000000
1209.221044	12504.000000
1210.416122	12517.000000
1211.610735	12429.000000
1212.804885	12387.666667
1213.998572	12352.000000
1215.191795	12318.000000
1216.384556	12283.000000
1217.576854	12428.333333
1218.768689	12324.666667
1219.960063	12303.666667
1221.150974	12285.000000
1222.341424	12320.333333
1223.531413	12367.333333
1224.720940	12362.000000
1225.910006	12323.333333
1227.098612	12387.333333
1228.286757	12428.333333
1229.474442	12430.000000
1230.661667	12417.333333
1231.848432	12453.333333
1233.034738	12471.333333
1234.220584	12555.666667
1235.405971	12569.000000
1236.590900	12599.000000
1237.775369	12559.000000
1238.959381	12569.333333
1240.142934	12583.666667
1241.326029	12553.666667
1242.508667	12580.333333
1243.690848	12621.666667
1244.872571	12610.000000
1246.053837	12549.000000
1247.234646	12468.333333
1248.414999	12501.000000
1249.594896	12571.333333
1250.774337	12452.333333
1251.953322	12466.333333
1253.131851	12455.333333
1254.309925	12366.000000
1255.487544	12284.333333
1256.664708	12291.000000
1257.841417	12340.666667
1259.017673	12425.333333
1260.193473	12262.666667
1261.368820	12374.000000
1262.543714	12273.333333
1263.718154	12246.333333
1264.892140	12395.333333
1266.065674	12374.333333
1267.238755	12374.000000
1268.411383	12279.333333
1269.583559	12343.666667
1270.755283	12346.666667
1271.926555	12231.333333
1273.097375	12278.333333
1274.267744	12215.333333
1275.437662	12267.000000
1276.607129	12241.333333
1277.776145	12178.666667
1278.944711	12269.333333
1280.112827	12144.333333
1281.280492	12088.000000
1282.447708	12018.666667
1283.614474	12097.666667
1284.780791	11978.000000
1285.946659	12077.333333
1287.112078	11975.333333
1288.277048	11883.333333
1289.441570	11851.000000
1290.605644	11797.666667
1291.769270	11861.333333
1292.932448	11794.666667
1294.095178	11754.333333
1295.257461	11677.666667
1296.419298	11690.666667
1297.580687	11561.666667
1298.741630	11605.333333
1299.902126	11561.000000
1301.062177	11588.666667
1302.221781	11658.000000
1303.380940	11649.666667
1304.539653	11613.000000
1305.697921	11511.000000
1306.855744	11593.000000
1308.013123	11637.666667
1309.170056	11582.666667
1310.326546	11505.666667
1311.482591	11547.333333
1312.638193	11522.333333
1313.793350	11431.333333
1314.948065	11613.666667
1316.102336	11446.666667
1317.256164	11510.333333
1318.409550	11512.666667
1319.562493	11375.000000
1320.714993	11393.333333
1321.867052	11317.000000
1323.018668	11380.666667
1324.169843	11344.333333
1325.320577	11237.000000
1326.470870	11271.333333
1327.620721	11150.000000
1328.770132	11166.333333
1329.919102	11253.000000
1331.067632	11174.333333
1332.215722	11205.000000
1333.363372	11076.666667
1334.510582	11250.333333
1335.657353	11122.000000
1336.803685	11132.666667
1337.949578	11157.666667
1339.095032	11262.333333
1340.240048	11134.666667
1341.384625	11133.666667
1342.528764	11128.000000
1343.672466	11114.333333
1344.815729	11141.000000
1345.958556	11168.666667
1347.100945	11067.666667
1348.242897	11082.000000
1349.384413	11022.333333
1350.525492	10928.000000
1351.666134	11029.333333
1352.806341	10977.000000
1353.946111	10962.333333
1355.085446	10928.000000
1356.224346	10886.000000
1357.362810	10787.000000
1358.500840	10837.666667
1359.638434	10843.666667
1360.775594	10805.333333
1361.912320	10725.333333
1363.048612	10639.666667
1364.184469	10819.000000
1365.319893	10790.666667
1366.454884	10737.333333
1367.589441	10791.666667
1368.723566	10742.666667
1369.857257	10749.333333
1370.990516	10819.000000
1372.123343	10769.000000
1373.255737	10750.666667
1374.387699	10746.666667
1375.519230	10815.666667
1376.650329	10818.000000
1377.780997	10845.333333
1378.911234	10794.000000
1380.041040	10711.000000
1381.170416	10754.333333
1382.299361	10741.333333
1383.427875	10684.333333
1384.555960	10797.000000
1385.683615	10625.000000
1386.810841	10637.333333
1387.937637	10614.333333
1389.064004	10668.000000
1390.189942	10557.666667
1391.315451	10650.000000
1392.440532	10567.000000
1393.565185	10599.333333
1394.689409	10550.000000
1395.813206	10485.000000
1396.936575	10491.000000
1398.059517	10467.333333
1399.182032	10437.333333
1400.304119	10458.333333
1401.425780	10427.666667
1402.547014	10295.000000
1403.667822	10374.333333
1404.788204	10440.666667
1405.908160	10432.333333
1407.027690	10448.333333
1408.146795	10400.333333
1409.265474	10415.333333
1410.383728	10436.000000
1411.501558	10508.000000
1412.618963	10428.666667
1413.735943	10466.000000
1414.852499	10504.000000
1415.968632	10461.000000
1417.084340	10384.333333
1418.199625	10398.666667
1419.314486	10401.333333
1420.428925	10442.000000
1421.542940	10420.666667
1422.656533	10376.333333
1423.769703	10491.333333
1424.882451	10355.666667
1425.994777	10330.666667
1427.106680	10310.666667
1428.218163	10240.333333
1429.329223	10266.666667
1430.439863	10172.333333
1431.550081	10207.666667
1432.659879	10311.000000
1433.769256	10220.333333
1434.878212	10224.666667
1435.986749	10182.333333
1437.094865	10342.000000
1438.202562	10153.666667
1439.309839	10205.333333
1440.416696	10198.666667
1441.523135	10247.000000
1442.629154	10220.000000
1443.734755	10284.666667
1444.839937	10391.333333
1445.944701	10314.333333
1447.049047	10367.666667
1448.152975	10352.333333
1449.256485	10311.000000
1450.359577	10391.000000
1451.462253	10368.333333
1452.564511	10327.666667
1453.666352	10277.000000
1454.767777	10272.666667
1455.868785	10236.666667
1456.969377	10165.333333
1458.069553	10187.333333
1459.169313	10082.000000
1460.268658	10145.333333
1461.367587	10011.000000
1462.466101	10046.000000
1463.564200	10002.000000
1464.661884	9871.666667
1465.759153	9887.000000
1466.856008	9790.333333
1467.952449	9808.333333
1469.048476	9683.666667
1470.144089	9647.333333
1471.239288	9539.666667
1472.334074	9516.000000
1473.428447	9490.666667
1474.522407	9449.666667
1475.615955	9442.666667
1476.709089	9406.666667
1477.801812	9389.000000
1478.894122	9299.000000
1479.986020	9302.333333
1481.077506	9324.333333
1482.168581	9274.333333
1483.259245	9299.333333
1484.349498	9261.666667
1485.439339	9167.666667
1486.528770	9217.000000
1487.617790	9237.333333
1488.706400	9175.333333
1489.794600	9133.333333
1490.882390	9227.000000
1491.969771	9118.000000
1493.056742	9121.333333
1494.143303	9119.000000
1495.229456	9096.666667
1496.315199	9107.666667
1497.400534	9135.666667
1498.485460	9037.666667
1499.569978	9106.333333
1500.654088	9047.666667
1501.737790	8964.000000
1502.821085	8947.000000
1503.903972	8991.333333
1504.986451	8912.666667
1506.068524	8907.666667
1507.150189	8794.000000
1508.231448	8856.666667
1509.312301	8772.333333
1510.392747	8797.333333
1511.472787	8741.333333
1512.552422	8774.333333
1513.631650	8803.000000
1514.710473	8726.333333
1515.788891	8678.333333
1516.866904	8716.666667
1517.944512	8712.666667
1519.021715	8650.000000
1520.098513	8724.000000
1521.174908	8619.000000
1522.250898	8602.000000
1523.326485	8639.333333
1524.401667	8704.333333
1525.476447	8662.666667
1526.550823	8676.666667
1527.624796	8655.000000
1528.698365	8604.333333
1529.771533	8616.000000
1530.844298	8658.666667
1531.916660	8589.666667
1532.988620	8605.333333
1534.060179	8575.666667
1535.131336	8556.000000
1536.202091	8560.333333
1537.272445	8552.000000
1538.342398	8493.000000
1539.411950	8534.000000
1540.481101	8460.333333
1541.549851	8492.666667
1542.618202	8474.666667
1543.686152	8332.000000
1544.753702	8406.000000
1545.820853	8393.333333
1546.887604	8438.333333
1547.953955	8295.333333
1549.019908	8275.333333
1550.085461	8239.333333
1551.150616	8269.333333
1552.215372	8278.333333
1553.279730	8283.333333
1554.343690	8337.000000
1555.407252	8243.333333
1556.470415	8252.000000
1557.533182	8195.666667
1558.595551	8221.000000
1559.657522	8258.000000
1560.719097	8224.666667
1561.780275	8253.333333
1562.841056	8236.000000
1563.901441	8185.333333
1564.961429	8218.333333
1566.021022	8264.666667
1567.080219	8154.333333
1568.139020	8233.666667
1569.197425	8163.333333
1570.255436	8197.333333
1571.313051	8152.666667
1572.370271	8205.000000
1573.427097	8120.000000
1574.483528	8109.000000
1575.539565	8135.666667
1576.595208	8083.000000
1577.650457	8068.666667
1578.705312	8046.666667
1579.759774	8081.000000
1580.813842	8018.333333
1581.867517	8026.000000
1582.920799	8034.333333
1583.973689	7922.000000
1585.026186	7946.666667
1586.078290	7899.666667
1587.130002	7834.666667
1588.181323	7866.666667
1589.232251	7852.000000
1590.282788	7844.333333
1591.332933	7788.666667
1592.382688	7822.000000
1593.432051	7844.000000
1594.481023	7842.333333
1595.529605	7772.666667
1596.577796	7809.666667
1597.625597	7818.333333
1598.673007	7781.333333
1599.720028	7848.000000
1600.766660	7941.333333
1601.812901	7912.333333
1602.858753	7850.333333
1603.904217	7828.333333
1604.949291	7819.333333
1605.993976	7867.000000
1607.038273	7839.000000
1608.082182	7757.000000
1609.125702	7823.333333
1610.168834	7773.000000
1611.211579	7716.333333
1612.253935	7805.333333
1613.295905	7736.000000
1614.337487	7761.333333
1615.378682	7726.666667
1616.419490	7684.000000
1617.459912	7671.000000
1618.499946	7701.666667
1619.539595	7680.333333
1620.578858	7627.666667
1621.617734	7682.000000
1622.656225	7590.000000
1623.694330	7653.333333
1624.732050	7599.333333
1625.769385	7579.666667
1626.806334	7558.666667
1627.842899	7532.666667
1628.879079	7545.000000
1629.914875	7584.000000
1630.950286	7506.666667
1631.985314	7537.000000
1633.019957	7496.000000
1634.054217	7539.000000
1635.088093	7544.000000
1636.121586	7577.333333
1637.154696	7585.000000
1638.187423	7558.333333
1639.219767	7513.000000
1640.251728	7530.666667
1641.283307	7503.666667
1642.314504	7584.000000
1643.345319	7604.333333
1644.375751	7498.666667
1645.405803	7532.000000
1646.435472	7565.666667
1647.464761	7517.333333
1648.493668	7550.333333
1649.522194	7507.333333
1650.550340	7536.666667
1651.578105	7482.666667
1652.605490	7497.000000
1653.632494	7436.333333
1654.659119	7477.000000
1655.685363	7442.666667
1656.711228	7448.000000
1657.736714	7382.000000
1658.761820	7436.333333
1659.786547	7348.333333
1660.810895	7343.666667
1661.834865	7253.000000
1662.858456	7315.000000
1663.881668	7279.666667
1664.904503	7251.333333
1665.926959	7213.000000
1666.949038	7269.000000
1667.970739	7252.333333
1668.992062	7181.666667
1670.013008	7190.000000
1671.033577	7117.666667
1672.053770	7177.000000
1673.073585	7121.666667
1674.093024	7129.666667
1675.112086	7085.666667
1676.130773	7065.666667
1677.149083	7099.000000
1678.167017	7103.000000
1679.184576	6989.666667
1680.201760	7005.000000
1681.218568	7026.000000
1682.235001	7011.333333
1683.251059	6988.333333
1684.266742	6976.000000
1685.282051	7013.000000
1686.296985	7000.666667
1687.311546	6914.666667
1688.325732	6928.000000
1689.339544	6820.333333
1690.352983	6857.333333
1691.366048	6802.000000
1692.378740	6792.666667
1693.391058	6763.666667
1694.403004	6788.333333
1695.414577	6672.333333
1696.425778	6603.333333
1697.436606	6643.666667
1698.447061	6629.333333
1699.457145	6592.666667
1700.466857	6531.666667
1701.476197	6463.666667
1702.485166	6503.666667
1703.493763	6445.333333
1704.501989	6462.333333
1705.509844	6359.666667
1706.517328	6389.666667
1707.524442	6419.333333
1708.531185	6416.666667
1709.537558	6382.666667
1710.543561	6290.666667
1711.549194	6365.333333
1712.554457	6246.666667
1713.559351	6251.000000
1714.563875	6287.333333
1715.568030	6285.000000
1716.571816	6316.666667
1717.575233	6314.666667
1718.578282	6347.666667
1719.580962	6330.333333
1720.583273	6300.666667
1721.585217	6292.000000
1722.586792	6308.666667
1723.588000	6308.000000
1724.588840	6340.000000
1725.589312	6343.333333
1726.589418	6298.000000
1727.589156	6277.333333
1728.588527	6309.666667
1729.587532	6278.000000
1730.586170	6283.333333
1731.584441	6243.666667
1732.582346	6239.333333
1733.579886	6255.000000
1734.577059	6220.333333
1735.573867	6176.000000
1736.570309	6190.666667
1737.566386	6171.000000
1738.562097	6163.000000
1739.557444	6220.000000
1740.552426	6084.666667
1741.547043	6010.000000
1742.541295	6031.333333
1743.535184	6012.000000
1744.528708	6003.666667
1745.521868	6031.666667
1746.514664	5940.000000
1747.507097	5928.333333
1748.499166	5887.000000
1749.490873	5869.333333
1750.482216	5916.666667
1751.473196	5968.666667
1752.463813	5938.666667
1753.454068	5856.333333
1754.443960	5958.333333
1755.433490	5900.333333
1756.422658	5951.333333
1757.411464	5853.666667
1758.399908	5858.666667
1759.387991	5859.000000
1760.375713	5910.333333
1761.363073	5897.666667
1762.350072	5845.666667
1763.336711	5796.666667
1764.322988	5892.333333
1765.308905	5826.333333
1766.294462	5848.000000
1767.279659	5786.666667
1768.264496	5825.000000
1769.248972	5722.333333
1770.233089	5767.000000
1771.216847	5713.333333
1772.200245	5790.000000
1773.183284	5715.000000
1774.165965	5714.000000
1775.148286	5675.333333
1776.130249	5662.333333
1777.111853	5696.000000
1778.093099	5665.666667
1779.073987	5608.000000
1780.054517	5562.333333
1781.034689	5598.000000
1782.014503	5514.666667
1782.993960	5467.333333
1783.973060	5515.000000
1784.951802	5441.666667
1785.930188	5460.666667
1786.908217	5356.000000
1787.885889	5465.333333
1788.863205	5445.000000
1789.840164	5415.000000
1790.816768	5341.000000
1791.793015	5371.333333
1792.768907	5331.333333
1793.744443	5377.333333
1794.719624	5327.333333
1795.694449	5290.666667
1796.668919	5321.333333
1797.643035	5303.666667
1798.616795	5333.333333
1799.590201	5292.666667
1800.563253	5385.333333
1801.535950	5336.333333
1802.508294	5315.333333
1803.480283	5295.000000
1804.451919	5333.000000
1805.423201	5316.666667
1806.394129	5327.666667
1807.364705	5335.000000
1808.334927	5298.000000
1809.304796	5319.333333
1810.274313	5317.000000
1811.243477	5314.000000
1812.212288	5301.000000
1813.180747	5285.333333
1814.148855	5314.000000
1815.116610	5250.666667
1816.084013	5291.000000
1817.051065	5259.000000
1818.017766	5224.666667
1818.984115	5229.000000
1819.950113	5235.000000
1820.915760	5195.333333
1821.881057	5218.666667
1822.846003	5220.000000
1823.810598	5123.666667
1824.774843	5178.333333
1825.738738	5112.666667
1826.702283	5104.000000
1827.665479	5080.333333
1828.628324	5045.000000
1829.590821	5085.333333
1830.552968	5080.000000
1831.514765	5010.333333
1832.476214	5062.333333
1833.437314	5043.333333
1834.398066	4982.000000
1835.358469	4991.333333
1836.318524	5046.666667
1837.278230	5015.333333
1838.237589	4991.000000
1839.196600	5024.333333
1840.155263	5007.000000
1841.113578	5015.000000
1842.071547	5052.000000
1843.029168	4993.000000
1843.986442	5012.333333
1844.943369	5070.666667
1845.899950	5008.000000
1846.856184	5047.000000
1847.812072	5006.666667
1848.767614	5033.666667
1849.722809	5020.666667
1850.677659	4976.333333
1851.632163	5046.666667
1852.586322	5055.333333
1853.540135	4991.333333
1854.493603	4998.666667
1855.446726	5037.333333
1856.399504	4990.333333
1857.351937	4995.000000
1858.304026	5001.333333
1859.255770	4953.000000
1860.207170	4864.333333
1861.158227	4884.000000
1862.108939	4855.666667
1863.059307	4844.666667
1864.009332	4840.333333
1864.959013	4798.000000
1865.908351	4785.000000
1866.857346	4811.666667
1867.805998	4727.000000
1868.754307	4703.333333
1869.702274	4726.666667
1870.649898	4781.333333
1871.597180	4720.000000
1872.544119	4643.666667
1873.490717	4661.333333
1874.436973	4668.333333
1875.382887	4666.333333
1876.328459	4651.000000
1877.273691	4614.000000
1878.218581	4586.333333
1879.163130	4605.333333
1880.107338	4671.666667
1881.051205	4624.000000
1881.994732	4615.333333
1882.937919	4562.333333
1883.880765	4630.666667
1884.823271	4620.000000
1885.765437	4637.666667
1886.707264	4680.666667
1887.648750	4656.333333
1888.589898	4624.333333
1889.530706	4690.666667
1890.471175	4646.666667
1891.411305	4658.000000
1892.351096	4608.666667
1893.290548	4675.333333
1894.229662	4646.333333
1895.168438	4648.000000
1896.106876	4593.666667
1897.044975	4629.333333
1897.982737	4568.000000
1898.920160	4556.333333
1899.857247	4559.333333
1900.793996	4567.333333
1901.730407	4543.000000
1902.666482	4570.000000
1903.602219	4496.666667
1904.537620	4491.333333
1905.472685	4426.333333
1906.407412	4495.333333
1907.341804	4441.666667
1908.275859	4414.333333
1909.209579	4376.000000
1910.142962	4388.000000
1911.076010	4331.666667
1912.008722	4311.000000
1912.941099	4334.666667
1913.873141	4308.333333
1914.804848	4264.666667
1915.736219	4294.000000
1916.667256	4295.000000
1917.597959	4274.666667
1918.528327	4267.000000
1919.458360	4236.666667
1920.388060	4244.000000
1921.317426	4198.000000
1922.246457	4230.000000
1923.175156	4231.333333
1924.103520	4268.000000
1925.031552	4250.333333
1925.959250	4244.333333
1926.886615	4213.333333
1927.813647	4224.333333
1928.740346	4273.666667
1929.666713	4218.333333
1930.592748	4260.000000
1931.518450	4230.000000
1932.443820	4223.000000
1933.368858	4207.333333
1934.293564	4198.000000
1935.217939	4258.000000
1936.141982	4207.666667
1937.065694	4227.333333
1937.989074	4212.000000
1938.912124	4229.666667
1939.834842	4167.333333
1940.757230	4111.000000
1941.679287	4176.666667
1942.601014	4121.666667
1943.522411	4117.333333
1944.443477	4145.000000
1945.364214	4105.333333
1946.284621	4110.333333
1947.204698	4041.000000
1948.124445	4050.333333
1949.043863	4013.333333
1949.962952	4060.000000
1950.881712	3979.333333
1951.800143	3979.000000
1952.718245	3974.666667
1953.636019	3922.333333
1954.553464	3956.666667
1955.470581	3956.000000
1956.387369	3896.666667
1957.303830	3916.666667
1958.219963	3889.000000
1959.135768	3857.333333
1960.051246	3876.333333
1960.966396	3897.333333
1961.881219	3908.666667
1962.795715	3906.333333
1963.709883	3918.333333
1964.623726	3902.333333
1965.537241	3894.333333
1966.450430	3942.666667
1967.363293	3921.333333
1968.275829	3887.333333
1969.188040	3922.666667
1970.099924	3938.000000
1971.011483	3923.666667
1971.922716	3893.333333
1972.833624	3901.666667
1973.744206	3889.333333
1974.654464	3954.000000
1975.564396	3914.666667
1976.474004	3944.666667
1977.383286	3906.666667
1978.292245	3928.666667
1979.200878	3890.333333
1980.109188	3894.333333
1981.017174	3866.333333
1981.924835	3927.000000
1982.832173	3800.666667
1983.739187	3803.333333
1984.645878	3839.666667
1985.552245	3823.000000
1986.458289	3821.333333
1987.364010	3808.000000
1988.269408	3777.333333
1989.174484	3745.666667
1990.079236	3682.666667
1990.983667	3704.000000
1991.887775	3665.666667
1992.791561	3721.666667
1993.695024	3642.666667
1994.598166	3703.333333
1995.500986	3629.000000
1996.403485	3684.000000
1997.305662	3650.333333
1998.207518	3614.333333
1999.109053	3643.000000
