200.151048	12652.000000
201.758777	12650.000000
203.365815	12558.666667
204.972162	12482.333333
206.577820	12476.333333
208.182787	12418.000000
209.787065	12377.333333
211.390653	12316.000000
212.993553	12340.000000
214.595765	12236.000000
216.197289	12308.000000
217.798125	12151.000000
219.398274	12117.666667
220.997737	12145.000000
222.596513	12050.666667
224.194603	12077.666667
225.792008	12040.666667
227.388728	12069.333333
228.984763	11980.000000
230.580114	11993.666667
232.174781	11944.000000
233.768765	11928.666667
235.362065	11691.333333
236.954683	11810.000000
238.546619	11748.000000
240.137872	11765.333333
241.728445	11682.333333
243.318336	11712.000000
244.907546	11625.666667
246.496076	11585.000000
248.083926	11507.333333
249.671097	11488.333333
251.257589	11430.000000
252.843402	11475.666667
254.428536	11435.000000
256.012993	11383.333333
257.596772	11255.333333
259.179874	11353.333333
260.762300	11334.666667
262.344049	11217.666667
263.925122	11139.666667
265.505519	11200.333333
267.085241	11109.000000
268.664289	11130.666667
270.242662	11056.333333
271.820361	11057.333333
273.397387	11081.000000
274.973740	11096.666667
276.549419	10946.333333
278.124426	11048.333333
279.698762	10991.666667
281.272425	11010.666667
282.845417	10938.000000
284.417739	10963.000000
285.989390	10944.000000
287.560371	10880.666667
289.130682	10914.333333
290.700324	10953.333333
292.269297	10870.666667
293.837602	10821.666667
295.405238	10900.666667
296.972207	10791.333333
298.538508	10861.333333
300.104142	10792.666667
301.669110	10692.666667
303.233411	10704.000000
304.797047	10671.000000
306.360017	10636.333333
307.922322	10631.666667
309.483963	10393.333333
311.044939	10379.333333
312.605252	10472.000000
314.164900	10443.333333
315.723886	10274.666667
317.282209	10317.333333
318.839870	10281.000000
320.396868	10188.666667
321.953205	10148.333333
323.508881	10150.000000
325.063896	10087.333333
326.618251	10147.666667
328.171945	10065.000000
329.724980	10118.666667
331.277356	10020.666667
332.829072	9969.000000
334.380131	9984.333333
335.930530	9939.333333
337.480273	9924.333333
339.029357	9926.333333
340.577785	9793.000000
342.125556	9897.333333
343.672671	9885.666667
345.219130	9842.333333
346.764933	9699.333333
348.310081	9696.666667
349.854575	9748.666667
351.398414	9693.666667
352.941599	9688.666667
354.484130	9697.333333
356.026008	9650.666667
357.567234	9595.333333
359.107807	9525.333333
360.647727	9580.666667
362.186996	9613.333333
363.725614	9531.666667
365.263580	9490.333333
366.800896	9478.000000
368.337562	9506.000000
369.873578	9497.000000
371.408944	9468.666667
372.943661	9420.000000
374.477730	9523.333333
376.011150	9457.333333
377.543922	9526.000000
379.076046	9542.333333
380.607523	9541.333333
382.138353	9530.000000
383.668537	9584.333333
385.198075	9577.333333
386.726966	9606.666667
388.255213	9624.000000
389.782814	9748.666667
391.309770	9691.000000
392.836083	9732.000000
394.361751	9685.333333
395.886776	9810.666667
397.411157	9913.333333
398.934896	9820.666667
400.457992	9880.000000
401.980446	9877.333333
403.502258	9861.000000
405.023429	9998.000000
406.543959	10066.666667
408.063849	10040.333333
409.583098	10087.000000
411.101707	10186.333333
412.619677	10265.000000
414.137007	10384.000000
415.653699	10409.333333
417.169752	10544.000000
418.685167	10796.333333
420.199945	11023.000000
421.714085	11030.000000
423.227588	11309.333333
424.740454	11335.333333
426.252684	11405.666667
427.764279	11533.000000
429.275238	11555.333333
430.785561	11671.666667
432.295250	11381.333333
433.804304	11381.666667
435.312725	11249.333333
436.820511	11156.000000
438.327664	10906.333333
439.834185	10816.333333
441.340072	10792.333333
442.845327	10723.333333
444.349951	10642.000000
445.853942	10503.333333
447.357303	10504.666667
448.860033	10418.666667
450.362132	10448.333333
451.863601	10359.000000
453.364440	10246.000000
454.864650	10121.000000
456.364231	9944.333333
457.863183	9792.333333
459.361507	9685.333333
460.859203	9663.000000
462.356271	9544.666667
463.852712	9425.000000
465.348526	9317.000000
466.843714	9167.666667
468.338275	9210.000000
469.832210	9097.000000
471.325520	9059.666667
472.818205	9036.000000
474.310265	8927.333333
475.801700	8879.000000
477.292512	8916.333333
478.782700	8800.666667
480.272264	8784.333333
481.761205	8730.000000
483.249524	8774.000000
484.737221	8667.000000
486.224295	8641.333333
487.710748	8543.333333
489.196579	8612.333333
490.681790	8449.000000
492.166380	8513.000000
493.650350	8579.333333
495.133700	8462.333333
496.616431	8534.000000
498.098542	8513.000000
499.580035	8512.000000
501.060909	8447.000000
502.541165	8531.666667
504.020804	8551.000000
505.499825	8524.000000
506.978228	8394.000000
508.456016	8394.000000
509.933186	8353.666667
511.409741	8408.333333
512.885680	8337.000000
514.361004	8358.333333
515.835713	8392.666667
517.309807	8390.000000
518.783287	8428.000000
520.256153	8447.000000
521.728406	8478.666667
523.200045	8525.000000
524.671071	8582.000000
526.141485	8553.000000
527.611287	8432.666667
529.080476	8462.000000
530.549054	8503.000000
532.017021	8533.000000
533.484378	8603.000000
534.951123	8514.000000
536.417259	8578.666667
537.882785	8508.333333
539.347701	8487.333333
540.812008	8463.000000
542.275707	8450.333333
543.738797	8434.000000
545.201279	8515.666667
546.663153	8512.333333
548.124420	8591.333333
549.585080	8665.666667
551.045133	8715.333333
552.504579	8675.666667
553.963420	8758.666667
555.421655	8843.000000
556.879285	8787.333333
558.336309	8738.333333
559.792729	8834.000000
561.248545	8884.333333
562.703756	8912.666667
564.158364	8922.000000
565.612369	8968.333333
567.065770	9049.333333
568.518569	9091.000000
569.970766	9117.333333
571.422361	9202.666667
572.873354	9283.000000
574.323745	9437.666667
575.773536	9537.666667
577.222726	9591.666667
578.671316	9713.333333
580.119306	9694.000000
581.566696	9645.333333
583.013487	9594.000000
584.459679	9632.333333
585.905273	9430.333333
587.350268	9434.666667
588.794665	9462.000000
590.238465	9521.000000
591.681667	9338.666667
593.124272	9367.333333
594.566281	9329.333333
596.007694	9177.666667
597.448510	9060.666667
598.888731	8966.666667
600.328357	8929.000000
601.767388	8908.333333
603.205824	8844.000000
604.643666	8811.666667
606.080914	8771.333333
607.517568	8727.000000
608.953629	8755.333333
610.389097	8736.333333
611.823972	8693.333333
613.258255	8764.666667
614.691946	8630.000000
616.125046	8564.000000
617.557554	8475.333333
618.989471	8414.666667
620.420798	8364.000000
621.851534	8214.666667
623.281680	8165.000000
624.711237	8007.333333
626.140204	7949.000000
627.568582	7952.333333
628.996372	7905.666667
630.423573	7772.333333
631.850186	7795.666667
633.276211	7755.333333
634.701650	7745.666667
636.126501	7758.666667
637.550765	7726.333333
638.974443	7796.333333
640.397535	7847.000000
641.820041	7822.333333
643.241961	7802.333333
644.663297	7735.666667
646.084048	7711.666667
647.504214	7724.000000
648.923796	7705.666667
650.342795	7715.333333
651.761210	7536.333333
653.179041	7520.000000
654.596290	7529.000000
656.012957	7524.333333
657.429041	7641.000000
658.844543	7615.333333
660.259464	7538.666667
661.673804	7542.000000
663.087563	7618.666667
664.500741	7553.333333
665.913339	7529.666667
667.325357	7601.333333
668.736795	7647.333333
670.147654	7604.333333
671.557934	7615.666667
672.967636	7582.666667
674.376759	7588.000000
675.785304	7521.333333
677.193271	7614.666667
678.600661	7504.333333
680.007474	7565.333333
681.413711	7569.000000
682.819370	7553.000000
684.224454	7505.333333
685.628962	7504.000000
687.032895	7584.333333
688.436252	7518.333333
689.839034	7591.666667
691.241242	7522.333333
692.642876	7508.666667
694.043936	7481.000000
695.444422	7471.666667
696.844336	7527.666667
698.243676	7412.333333
699.642443	7514.000000
701.040639	7476.000000
702.438262	7422.666667
703.835313	7473.000000
705.231794	7500.000000
706.627703	7405.333333
708.023041	7353.333333
709.417810	7450.666667
710.812008	7466.666667
712.205636	7387.666667
713.598694	7412.333333
714.991184	7366.333333
716.383105	7361.333333
717.774457	7357.333333
719.165241	7373.333333
720.555457	7318.000000
721.945105	7353.000000
723.334187	7344.666667
724.722701	7325.000000
726.110648	7403.666667
727.498030	7394.333333
728.884845	7368.333333
730.271094	7397.333333
731.656778	7339.666667
733.041897	7316.666667
734.426451	7343.000000
735.810441	7318.000000
737.193866	7300.666667
738.576728	7276.333333
739.959026	7287.333333
741.340760	7287.333333
742.721932	7295.000000
744.102541	7261.333333
745.482588	7223.333333
746.862073	7282.333333
748.240996	7280.666667
749.619358	7587.333333
750.997158	7897.333333
752.374398	7479.666667
753.751077	7404.000000
755.127197	7385.333333
756.502756	7280.333333
757.877756	7393.666667
759.252196	7237.666667
760.626078	7312.000000
761.999400	7291.000000
763.372165	7232.666667
764.744371	7247.666667
766.116020	7322.666667
767.487111	7220.333333
768.857646	7250.666667
770.227623	7219.333333
771.597044	7193.666667
772.965908	7198.000000
774.334217	7164.000000
775.701970	7226.333333
777.069168	7174.666667
778.435811	7101.000000
779.801899	7119.666667
781.167433	7209.000000
782.532412	7142.666667
783.896838	7104.000000
785.260710	7122.666667
786.624029	7094.333333
787.986796	7064.000000
789.349009	7121.333333
790.710671	7103.666667
792.071780	7098.333333
793.432338	7034.666667
794.792344	7063.000000
796.151799	7002.000000
797.510704	7043.666667
798.869058	7016.000000
800.226862	7003.333333
801.584116	7037.666667
802.940820	7034.000000
804.296975	7040.000000
805.652581	7089.333333
807.007638	7120.000000
808.362147	7097.666667
809.716108	7094.333333
811.069521	7090.000000
812.422387	7111.666667
813.774705	7111.000000
815.126476	7041.000000
816.477701	7058.666667
817.828380	7069.000000
819.178512	7096.666667
820.528099	7007.000000
821.877140	7015.666667
823.225637	7017.000000
824.573588	7008.000000
825.920995	7022.000000
827.267857	7040.000000
828.614176	6916.666667
829.959951	6944.000000
831.305183	6942.666667
832.649871	6971.333333
833.994017	6985.333333
835.337620	7049.000000
836.680681	7065.666667
838.023201	7055.333333
839.365178	7090.000000
840.706614	7060.000000
842.047510	7095.000000
843.387864	7205.333333
844.727678	7203.666667
846.066952	7158.000000
847.405687	7206.000000
848.743881	7224.000000
850.081537	7299.666667
851.418653	7305.000000
852.755231	7307.000000
854.091270	7281.666667
855.426771	7375.333333
856.761735	7314.666667
858.096160	7287.666667
859.430049	7201.000000
860.763401	7263.000000
862.096216	7132.000000
863.428495	7184.333333
864.760237	7228.333333
866.091444	7102.333333
867.422115	7167.666667
868.752252	7146.000000
870.081853	7124.333333
871.410919	7184.666667
872.739452	7177.000000
874.067450	7158.000000
875.394914	7172.666667
876.721845	7135.666667
878.048243	7158.000000
879.374108	7163.000000
880.699440	7099.000000
882.024240	7059.333333
883.348508	7040.000000
884.672244	7057.333333
885.995449	7039.666667
887.318122	6987.000000
888.640265	6963.333333
889.961877	6966.000000
891.282959	6942.666667
892.603510	6945.666667
893.923532	6924.000000
895.243024	6870.333333
896.561987	6837.333333
897.880422	6858.333333
899.198327	6914.000000
900.515705	6837.333333
901.832554	6816.333333
903.148875	6857.333333
904.464669	6846.000000
905.779936	6841.666667
907.094676	6885.333333
908.408889	6913.000000
909.722576	6893.333333
911.035737	6944.333333
912.348371	6969.333333
913.660481	6988.666667
914.972065	7114.666667
916.283124	7122.000000
917.593659	7116.333333
918.903669	7167.000000
920.213155	7220.000000
921.522117	7196.000000
922.830556	7210.666667
924.138471	7209.666667
925.445864	7257.000000
926.752733	7208.666667
928.059081	7265.000000
929.364906	7317.333333
930.670209	7404.333333
931.974991	7470.000000
933.279251	7570.000000
934.582990	7602.666667
935.886209	7786.666667
937.188907	7936.666667
938.491085	8103.000000
939.792743	8361.333333
941.093881	8468.000000
942.394500	8766.666667
943.694600	9041.333333
944.994181	9348.000000
946.293243	9782.000000
947.591787	10271.333333
948.889813	10922.666667
950.187322	11494.000000
951.484313	12302.333333
952.780787	13069.666667
954.076744	14005.333333
955.372184	14722.000000
956.667108	15488.000000
957.961516	15822.666667
959.255409	15944.000000
960.548785	15640.666667
961.841647	15060.333333
963.133993	14230.000000
964.425825	13239.000000
965.717142	12310.666667
967.007946	11295.000000
968.298235	10387.666667
969.588011	9645.666667
970.877273	8988.333333
972.166023	8265.666667
973.454259	7964.333333
974.741984	7693.333333
976.029196	7332.000000
977.315895	7155.000000
978.602084	6990.000000
979.887761	6966.000000
981.172926	6730.333333
982.457581	6843.666667
983.741725	6733.333333
985.025359	6657.666667
986.308483	6610.000000
987.591097	6532.000000
988.873202	6553.333333
990.154797	6546.000000
991.435883	6554.666667
992.716461	6504.333333
993.996530	6541.333333
995.276091	6500.666667
996.555144	6528.666667
997.833690	6597.000000
999.111728	6628.666667
1000.389259	6719.666667
1001.666283	6718.333333
1002.942800	6752.333333
1004.218812	6738.333333
1005.494317	6761.666667
1006.769317	6653.333333
1008.043811	6663.333333
1009.317799	6670.666667
1010.591283	6651.000000
1011.864263	6634.000000
1013.136737	6690.333333
1014.408708	6672.333333
1015.680175	6696.666667
1016.951138	6728.666667
1018.221598	6665.666667
1019.491554	6746.000000
1020.761008	6733.333333
1022.029959	6720.333333
1023.298408	6748.333333
1024.566355	6752.000000
1025.833800	6774.000000
1027.100744	6843.333333
1028.367187	6791.666667
1029.633128	6787.333333
1030.898569	6779.333333
1032.163509	6798.000000
1033.427949	6790.000000
1034.691890	6808.333333
1035.955330	6850.666667
1037.218271	6834.000000
1038.480714	6893.666667
1039.742657	6915.333333
1041.004101	6982.666667
1042.265048	6872.000000
1043.525496	6944.000000
1044.785446	6970.666667
1046.044899	6936.666667
1047.303855	6971.000000
1048.562313	6883.000000
1049.820275	6909.333333
1051.077740	6814.333333
1052.334709	6804.666667
1053.591182	6856.333333
1054.847160	6819.000000
1056.102641	6875.333333
1057.357628	6945.666667
1058.612120	6906.666667
1059.866117	7069.000000
1061.119619	7009.333333
1062.372628	7101.333333
1063.625142	7143.333333
1064.877163	7159.000000
1066.128691	7213.000000
1067.379725	7188.000000
1068.630267	7296.666667
1069.880316	7252.666667
1071.129872	7270.000000
1072.378937	7143.333333
1073.627509	7100.666667
1074.875590	7052.333333
1076.123180	7020.333333
1077.370279	6861.666667
1078.616887	6805.333333
1079.863004	6693.000000
1081.108631	6585.333333
1082.353768	6488.000000
1083.598415	6328.000000
1084.842573	6285.333333
1086.086241	6281.333333
1087.329421	6136.333333
1088.572111	6160.666667
1089.814314	6124.000000
1091.056028	6035.333333
1092.297253	6051.666667
1093.537992	6013.666667
1094.778242	5997.000000
1096.018006	5975.333333
1097.257282	6009.333333
1098.496072	5969.666667
1099.734376	5966.666667
1100.972193	5974.666667
1102.209524	5897.000000
1103.446370	5852.666667
1104.682730	5852.666667
1105.918604	5921.666667
1107.153994	5794.000000
1108.388900	5741.333333
1109.623320	5726.333333
1110.857257	5713.666667
1112.090710	5598.333333
1113.323679	5594.333333
1114.556164	5531.333333
1115.788167	5618.333333
1117.019686	5533.666667
1118.250723	5523.333333
1119.481278	5491.000000
1120.711350	5489.000000
1121.940940	5553.000000
1123.170049	5475.000000
1124.398676	5479.333333
1125.626823	5439.333333
1126.854488	5437.333333
1128.081672	5443.333333
1129.308376	5380.000000
1130.534600	5436.666667
1131.760345	5397.666667
1132.985609	5373.666667
1134.210394	5348.000000
1135.434700	5443.333333
1136.658527	5420.000000
1137.881875	5355.000000
1139.104745	5332.666667
1140.327136	5299.666667
1141.549050	5333.000000
1142.770486	5299.000000
1143.991445	5317.333333
1145.211926	5377.333333
1146.431931	5347.333333
1147.651459	5377.666667
1148.870510	5370.666667
1150.089086	5316.333333
1151.307185	5313.666667
1152.524808	5294.000000
1153.741957	5329.000000
1154.958630	5401.666667
1156.174828	5350.333333
1157.390551	5332.666667
1158.605800	5383.666667
1159.820574	5334.000000
1161.034875	5352.666667
1162.248702	5319.000000
1163.462055	5330.666667
1164.674936	5342.000000
1165.887343	5308.666667
1167.099277	5326.000000
1168.310739	5320.333333
1169.521729	5337.000000
1170.732247	5341.333333
1171.942293	5286.333333
1173.151867	5325.666667
1174.360970	5312.666667
1175.569602	5239.000000
1176.777764	5302.666667
1177.985454	5238.000000
1179.192675	5239.666667
1180.399425	5266.333333
1181.605706	5194.666667
1182.811517	5250.000000
1184.016859	5233.000000
1185.221731	5178.000000
1186.426135	5179.000000
1187.630070	5211.000000
1188.833537	5177.000000
1190.036535	5130.333333
1191.239066	5148.000000
1192.441129	5054.333333
1193.642725	5085.333333
1194.843853	5091.333333
1196.044515	5093.333333
1197.244710	5058.000000
1198.444438	5108.333333
1199.643701	5147.666667
1200.842497	5126.666667
1202.040827	5177.333333
1203.238693	5161.666667
1204.436092	5120.666667
1205.633027	5159.333333
1206.829497	5114.333333
1208.025503	5087.666667
1209.221044	5077.666667
1210.416122	5059.000000
1211.610735	5059.333333
1212.804885	5075.666667
1213.998572	5061.000000
1215.191795	4975.666667
1216.384556	4976.000000
1217.576854	5020.666667
1218.768689	5000.000000
1219.960063	5007.333333
1221.150974	5038.666667
1222.341424	5113.666667
1223.531413	5033.666667
1224.720940	5083.000000
1225.910006	5064.333333
1227.098612	5145.666667
1228.286757	5140.333333
1229.474442	5166.000000
1230.661667	5211.333333
1231.848432	5235.000000
1233.034738	5250.666667
1234.220584	5313.000000
1235.405971	5264.000000
1236.590900	5314.666667
1237.775369	5410.666667
1238.959381	5392.000000
1240.142934	5385.333333
1241.326029	5426.333333
1242.508667	5432.333333
1243.690848	5428.333333
1244.872571	5418.333333
1246.053837	5329.000000
1247.234646	5375.333333
1248.414999	5384.333333
1249.594896	5310.333333
1250.774337	5342.000000
1251.953322	5352.333333
1253.131851	5307.333333
1254.309925	5348.666667
1255.487544	5201.000000
1256.664708	5260.666667
1257.841417	5235.666667
1259.017673	5253.000000
1260.193473	5237.333333
1261.368820	5296.000000
1262.543714	5299.666667
1263.718154	5356.333333
1264.892140	5302.333333
1266.065674	5347.333333
1267.238755	5299.666667
1268.411383	5305.666667
1269.583559	5324.000000
1270.755283	5266.333333
1271.926555	5339.333333
1273.097375	5314.666667
1274.267744	5275.666667
1275.437662	5251.000000
1276.607129	5276.333333
1277.776145	5232.000000
1278.944711	5149.000000
1280.112827	5271.000000
1281.280492	5209.666667
1282.447708	5153.666667
1283.614474	5159.000000
1284.780791	5176.000000
1285.946659	5070.666667
1287.112078	5052.000000
1288.277048	5018.666667
1289.441570	5035.333333
1290.605644	4942.666667
1291.769270	4996.666667
1292.932448	4967.666667
1294.095178	4891.000000
1295.257461	4900.333333
1296.419298	4915.666667
1297.580687	4888.000000
1298.741630	4910.000000
1299.902126	4855.333333
1301.062177	4837.333333
1302.221781	4865.333333
1303.380940	4860.666667
1304.539653	4834.333333
1305.697921	4857.333333
1306.855744	4778.666667
1308.013123	4865.333333
1309.170056	4857.333333
1310.326546	4829.000000
1311.482591	4853.666667
1312.638193	4786.000000
1313.793350	4838.333333
1314.948065	4862.333333
1316.102336	4824.333333
1317.256164	4865.000000
1318.409550	4859.000000
1319.562493	4768.000000
1320.714993	4856.000000
1321.867052	4867.333333
1323.018668	4766.333333
1324.169843	4768.333333
1325.320577	4758.000000
1326.470870	4796.333333
1327.620721	4709.000000
1328.770132	4713.000000
1329.919102	4750.666667
1331.067632	4689.333333
1332.215722	4676.000000
1333.363372	4694.000000
1334.510582	4664.000000
1335.657353	4732.333333
1336.803685	4671.666667
1337.949578	4705.666667
1339.095032	4692.666667
1340.240048	4684.333333
1341.384625	4686.666667
1342.528764	4728.333333
1343.672466	4717.000000
1344.815729	4686.000000
1345.958556	4679.000000
1347.100945	4678.333333
1348.242897	4656.666667
1349.384413	4559.666667
1350.525492	4655.333333
1351.666134	4544.666667
1352.806341	4599.666667
1353.946111	4508.333333
1355.085446	4547.000000
1356.224346	4526.333333
1357.362810	4542.333333
1358.500840	4500.000000
1359.638434	4481.000000
1360.775594	4503.666667
1361.912320	4464.333333
1363.048612	4412.666667
1364.184469	4473.666667
1365.319893	4503.666667
1366.454884	4476.000000
1367.589441	4467.666667
1368.723566	4462.000000
1369.857257	4532.666667
1370.990516	4510.666667
1372.123343	4522.333333
1373.255737	4486.666667
1374.387699	4542.666667
1375.519230	4561.333333
1376.650329	4527.000000
1377.780997	4526.333333
1378.911234	4501.333333
1380.041040	4539.666667
1381.170416	4518.333333
1382.299361	4477.000000
1383.427875	4487.333333
1384.555960	4443.666667
1385.683615	4434.000000
1386.810841	4462.000000
1387.937637	4471.333333
1389.064004	4498.333333
1390.189942	4502.666667
1391.315451	4509.333333
1392.440532	4475.666667
1393.565185	4493.666667
1394.689409	4508.000000
1395.813206	4429.333333
1396.936575	4438.333333
1398.059517	4415.000000
1399.182032	4475.000000
1400.304119	4452.000000
1401.425780	4466.333333
1402.547014	4455.333333
1403.667822	4413.666667
1404.788204	4406.333333
1405.908160	4497.666667
1407.027690	4417.333333
1408.146795	4377.000000
1409.265474	4503.666667
1410.383728	4417.666667
1411.501558	4485.333333
1412.618963	4438.666667
1413.735943	4470.000000
1414.852499	4510.000000
1415.968632	4498.333333
1417.084340	4515.333333
1418.199625	4510.666667
1419.314486	4504.666667
1420.428925	4521.000000
1421.542940	4512.666667
1422.656533	4557.000000
1423.769703	4487.000000
1424.882451	4568.666667
1425.994777	4507.666667
1427.106680	4471.000000
1428.218163	4468.000000
1429.329223	4494.333333
1430.439863	4474.333333
1431.550081	4492.666667
1432.659879	4481.333333
1433.769256	4466.666667
1434.878212	4504.000000
1435.986749	4472.000000
1437.094865	4475.666667
1438.202562	4465.666667
1439.309839	4522.000000
1440.416696	4559.333333
1441.523135	4560.333333
1442.629154	4606.000000
1443.734755	4629.000000
1444.839937	4631.666667
1445.944701	4669.666667
1447.049047	4688.333333
1448.152975	4684.666667
1449.256485	4704.333333
1450.359577	4664.000000
1451.462253	4701.666667
1452.564511	4683.333333
1453.666352	4606.666667
1454.767777	4709.666667
1455.868785	4629.666667
1456.969377	4560.333333
1458.069553	4594.333333
1459.169313	4572.333333
1460.268658	4570.333333
1461.367587	4468.000000
1462.466101	4438.666667
1463.564200	4459.666667
1464.661884	4389.000000
1465.759153	4399.000000
1466.856008	4329.000000
1467.952449	4258.333333
1469.048476	4255.333333
1470.144089	4228.666667
1471.239288	4203.000000
1472.334074	4169.000000
1473.428447	4111.000000
1474.522407	4052.333333
1475.615955	4056.333333
1476.709089	3970.666667
1477.801812	3994.000000
1478.894122	3995.000000
1479.986020	3933.333333
1481.077506	3954.666667
1482.168581	3915.666667
1483.259245	3878.000000
1484.349498	3872.333333
1485.439339	3851.666667
1486.528770	3883.333333
1487.617790	3884.000000
1488.706400	3857.000000
1489.794600	3840.000000
1490.882390	3777.666667
1491.969771	3784.333333
1493.056742	3763.333333
1494.143303	3788.000000
1495.229456	3785.000000
1496.315199	3777.333333
1497.400534	3793.000000
1498.485460	3758.000000
1499.569978	3742.000000
1500.654088	3756.333333
1501.737790	3706.000000
1502.821085	3735.000000
1503.903972	3673.333333
1504.986451	3734.666667
1506.068524	3673.000000
1507.150189	3682.333333
1508.231448	3692.333333
1509.312301	3658.000000
1510.392747	3675.333333
1511.472787	3662.666667
1512.552422	3658.000000
1513.631650	3682.666667
1514.710473	3616.666667
1515.788891	3665.333333
1516.866904	3670.666667
1517.944512	3673.666667
1519.021715	3691.333333
1520.098513	3683.000000
1521.174908	3648.666667
1522.250898	3685.666667
1523.326485	3614.333333
1524.401667	3685.000000
1525.476447	3667.666667
1526.550823	3718.000000
1527.624796	3656.333333
1528.698365	3711.666667
1529.771533	3733.000000
1530.844298	3663.000000
1531.916660	3735.666667
1532.988620	3672.000000
1534.060179	3688.666667
1535.131336	3683.666667
1536.202091	3697.666667
1537.272445	3627.333333
1538.342398	3624.000000
1539.411950	3642.000000
1540.481101	3635.666667
1541.549851	3629.333333
1542.618202	3614.000000
1543.686152	3641.666667
1544.753702	3637.333333
1545.820853	3635.000000
1546.887604	3577.000000
1547.953955	3591.333333
1549.019908	3572.666667
1550.085461	3580.000000
1551.150616	3548.666667
1552.215372	3607.666667
1553.279730	3623.666667
1554.343690	3550.666667
1555.407252	3553.000000
1556.470415	3524.000000
1557.533182	3528.000000
1558.595551	3518.333333
1559.657522	3508.333333
1560.719097	3517.000000
1561.780275	3479.000000
1562.841056	3480.333333
1563.901441	3439.000000
1564.961429	3463.666667
1566.021022	3487.000000
1567.080219	3411.666667
1568.139020	3477.000000
1569.197425	3434.000000
1570.255436	3459.000000
1571.313051	3432.666667
1572.370271	3489.666667
1573.427097	3480.666667
1574.483528	3441.333333
1575.539565	3464.000000
1576.595208	3367.000000
1577.650457	3446.000000
1578.705312	3391.333333
1579.759774	3369.333333
1580.813842	3367.000000
1581.867517	3322.000000
1582.920799	3366.000000
1583.973689	3366.666667
1585.026186	3397.333333
1586.078290	3345.666667
1587.130002	3387.666667
1588.181323	3353.666667
1589.232251	3357.666667
1590.282788	3333.666667
1591.332933	3327.666667
1592.382688	3353.333333
1593.432051	3335.333333
1594.481023	3319.333333
1595.529605	3334.333333
1596.577796	3358.000000
1597.625597	3417.000000
1598.673007	3404.333333
1599.720028	3427.000000
1600.766660	3397.333333
1601.812901	3448.000000
1602.858753	3440.666667
1603.904217	3400.666667
1604.949291	3382.333333
1605.993976	3425.333333
1607.038273	3412.666667
1608.082182	3415.666667
1609.125702	3404.000000
1610.168834	3383.333333
1611.211579	3382.333333
1612.253935	3350.333333
1613.295905	3350.000000
1614.337487	3316.333333
1615.378682	3326.333333
1616.419490	3397.333333
1617.459912	3372.000000
1618.499946	3370.666667
1619.539595	3373.666667
1620.578858	3436.333333
1621.617734	3441.666667
1622.656225	3428.333333
1623.694330	3411.333333
1624.732050	3435.666667
1625.769385	3413.666667
1626.806334	3432.333333
1627.842899	3395.666667
1628.879079	3427.000000
1629.914875	3389.000000
1630.950286	3402.666667
1631.985314	3437.333333
1633.019957	3391.666667
1634.054217	3483.000000
1635.088093	3423.666667
1636.121586	3428.666667
1637.154696	3411.333333
1638.187423	3402.000000
1639.219767	3459.333333
1640.251728	3487.333333
1641.283307	3448.000000
1642.314504	3516.333333
1643.345319	3542.333333
1644.375751	3549.000000
1645.405803	3504.666667
1646.435472	3519.333333
1647.464761	3496.000000
1648.493668	3460.333333
1649.522194	3477.333333
1650.550340	3485.666667
1651.578105	3526.333333
1652.605490	3490.666667
1653.632494	3457.000000
1654.659119	3443.000000
1655.685363	3489.333333
1656.711228	3475.333333
1657.736714	3449.333333
1658.761820	3442.000000
1659.786547	3443.000000
1660.810895	3493.666667
1661.834865	3431.000000
1662.858456	3464.666667
1663.881668	3441.333333
1664.904503	3457.000000
1665.926959	3457.000000
1666.949038	3426.333333
1667.970739	3406.333333
1668.992062	3424.666667
1670.013008	3395.000000
1671.033577	3393.333333
1672.053770	3391.666667
1673.073585	3343.333333
1674.093024	3409.333333
1675.112086	3313.000000
1676.130773	3278.000000
1677.149083	3273.000000
1678.167017	3346.000000
1679.184576	3286.333333
1680.201760	3279.666667
1681.218568	3272.666667
1682.235001	3264.000000
1683.251059	3282.666667
1684.266742	3272.000000
1685.282051	3220.000000
1686.296985	3235.000000
1687.311546	3175.666667
1688.325732	3127.666667
1689.339544	3111.333333
1690.352983	3122.666667
1691.366048	3082.666667
1692.378740	3060.000000
1693.391058	3043.000000
1694.403004	3022.666667
1695.414577	3021.333333
1696.425778	3011.000000
1697.436606	2978.333333
1698.447061	2999.333333
1699.457145	2942.333333
1700.466857	2912.000000
1701.476197	2884.333333
1702.485166	2890.000000
1703.493763	2872.333333
1704.501989	2896.333333
1705.509844	2875.000000
1706.517328	2836.333333
1707.524442	2850.666667
1708.531185	2835.333333
1709.537558	2808.666667
1710.543561	2772.333333
1711.549194	2849.000000
1712.554457	2773.333333
1713.559351	2786.666667
1714.563875	2785.000000
1715.568030	2772.666667
1716.571816	2764.333333
1717.575233	2803.666667
1718.578282	2817.666667
1719.580962	2804.666667
1720.583273	2875.333333
1721.585217	2825.000000
1722.586792	2788.333333
1723.588000	2819.000000
1724.588840	2805.000000
1725.589312	2778.666667
1726.589418	2818.666667
1727.589156	2822.333333
1728.588527	2840.333333
1729.587532	2889.333333
1730.586170	2844.666667
1731.584441	2882.000000
1732.582346	2821.333333
1733.579886	2782.333333
1734.577059	2822.000000
1735.573867	2827.666667
1736.570309	2825.333333
1737.566386	2782.000000
1738.562097	2805.333333
1739.557444	2805.666667
1740.552426	2780.666667
1741.547043	2808.666667
1742.541295	2761.666667
1743.535184	2751.666667
1744.528708	2751.333333
1745.521868	2733.333333
1746.514664	2713.666667
1747.507097	2713.000000
1748.499166	2683.333333
1749.490873	2689.333333
1750.482216	2725.666667
1751.473196	2686.000000
1752.463813	2735.333333
1753.454068	2714.333333
1754.443960	2681.000000
1755.433490	2685.000000
1756.422658	2695.333333
1757.411464	2653.666667
1758.399908	2698.666667
1759.387991	2674.666667
1760.375713	2663.666667
1761.363073	2694.000000
1762.350072	2633.333333
1763.336711	2687.333333
1764.322988	2699.666667
1765.308905	2681.000000
1766.294462	2668.333333
1767.279659	2634.333333
1768.264496	2634.333333
1769.248972	2610.000000
1770.233089	2590.666667
1771.216847	2575.000000
1772.200245	2574.333333
1773.183284	2561.666667
1774.165965	2571.333333
1775.148286	2565.333333
1776.130249	2598.666667
1777.111853	2566.666667
1778.093099	2556.333333
1779.073987	2543.333333
1780.054517	2501.000000
1781.034689	2469.666667
1782.014503	2488.000000
1782.993960	2461.000000
1783.973060	2426.666667
1784.951802	2391.000000
1785.930188	2398.333333
1786.908217	2400.666667
1787.885889	2410.333333
1788.863205	2383.333333
1789.840164	2393.000000
1790.816768	2422.000000
1791.793015	2391.333333
1792.768907	2371.000000
1793.744443	2388.333333
1794.719624	2350.333333
1795.694449	2363.666667
1796.668919	2425.000000
1797.643035	2417.666667
1798.616795	2393.333333
1799.590201	2361.333333
1800.563253	2396.666667
1801.535950	2424.333333
1802.508294	2432.333333
1803.480283	2449.666667
1804.451919	2452.333333
1805.423201	2445.666667
1806.394129	2423.666667
1807.364705	2461.666667
1808.334927	2426.666667
1809.304796	2407.666667
1810.274313	2392.000000
1811.243477	2418.000000
1812.212288	2374.000000
1813.180747	2417.000000
1814.148855	2390.666667
1815.116610	2413.333333
1816.084013	2431.333333
1817.051065	2426.000000
1818.017766	2405.333333
1818.984115	2459.666667
1819.950113	2406.000000
1820.915760	2408.666667
1821.881057	2413.333333
1822.846003	2429.666667
1823.810598	2405.333333
1824.774843	2414.333333
1825.738738	2399.333333
1826.702283	2427.333333
1827.665479	2374.000000
1828.628324	2458.666667
1829.590821	2387.333333
1830.552968	2382.000000
1831.514765	2375.000000
1832.476214	2355.333333
1833.437314	2408.666667
1834.398066	2377.000000
1835.358469	2342.333333
1836.318524	2372.333333
1837.278230	2330.666667
1838.237589	2355.666667
1839.196600	2372.666667
1840.155263	2354.666667
1841.113578	2354.666667
1842.071547	2367.333333
1843.029168	2383.333333
1843.986442	2403.000000
1844.943369	2347.666667
1845.899950	2369.666667
1846.856184	2359.000000
1847.812072	2344.333333
1848.767614	2383.000000
1849.722809	2328.000000
1850.677659	2316.000000
1851.632163	2326.333333
1852.586322	2316.000000
1853.540135	2335.666667
1854.493603	2292.000000
1855.446726	2288.000000
1856.399504	2336.333333
1857.351937	2299.000000
1858.304026	2290.333333
1859.255770	2287.333333
1860.207170	2285.666667
1861.158227	2257.000000
1862.108939	2223.000000
1863.059307	2241.333333
1864.009332	2225.333333
1864.959013	2204.333333
1865.908351	2201.000000
1866.857346	2240.333333
1867.805998	2236.666667
1868.754307	2207.000000
1869.702274	2220.666667
1870.649898	2172.000000
1871.597180	2204.000000
1872.544119	2171.666667
1873.490717	2198.666667
1874.436973	2162.333333
1875.382887	2170.000000
1876.328459	2138.000000
1877.273691	2153.333333
1878.218581	2107.666667
1879.163130	2150.000000
1880.107338	2166.666667
1881.051205	2172.333333
1881.994732	2148.333333
1882.937919	2165.333333
1883.880765	2152.666667
1884.823271	2141.000000
1885.765437	2168.000000
1886.707264	2166.000000
1887.648750	2173.000000
1888.589898	2131.000000
1889.530706	2182.333333
1890.471175	2178.000000
1891.411305	2234.666667
1892.351096	2222.000000
1893.290548	2208.333333
1894.229662	2236.666667
1895.168438	2235.000000
1896.106876	2195.000000
1897.044975	2243.000000
1897.982737	2190.000000
1898.920160	2181.666667
1899.857247	2228.000000
1900.793996	2187.000000
1901.730407	2182.333333
1902.666482	2203.333333
1903.602219	2150.666667
1904.537620	2153.333333
1905.472685	2189.666667
1906.407412	2159.333333
1907.341804	2147.666667
1908.275859	2118.666667
1909.209579	2143.666667
1910.142962	2141.000000
1911.076010	2134.666667
1912.008722	2100.666667
1912.941099	2073.333333
1913.873141	2073.666667
1914.804848	2060.000000
1915.736219	2076.666667
1916.667256	2071.333333
1917.597959	2038.333333
1918.528327	2083.666667
1919.458360	2052.000000
1920.388060	2050.666667
1921.317426	2045.000000
1922.246457	2056.666667
1923.175156	2063.000000
1924.103520	2052.000000
1925.031552	2037.000000
1925.959250	2038.000000
1926.886615	2061.333333
1927.813647	2019.333333
1928.740346	1996.000000
1929.666713	2028.333333
1930.592748	2013.666667
1931.518450	2038.666667
1932.443820	2017.333333
1933.368858	1996.666667
1934.293564	1991.666667
1935.217939	1991.000000
1936.141982	1993.666667
1937.065694	2018.666667
1937.989074	2024.666667
1938.912124	1981.000000
1939.834842	1994.666667
1940.757230	1962.333333
1941.679287	1975.666667
1942.601014	1957.666667
1943.522411	1988.000000
1944.443477	1952.333333
1945.364214	1949.666667
1946.284621	1973.666667
1947.204698	1940.333333
1948.124445	1959.666667
1949.043863	1933.666667
1949.962952	1949.000000
1950.881712	1926.666667
1951.800143	1893.666667
1952.718245	1890.333333
1953.636019	1883.333333
1954.553464	1901.000000
1955.470581	1866.333333
1956.387369	1907.333333
1957.303830	1900.666667
1958.219963	1884.333333
1959.135768	1887.333333
1960.051246	1874.000000
1960.966396	1905.333333
1961.881219	1919.000000
1962.795715	1870.333333
1963.709883	1914.666667
1964.623726	1886.333333
1965.537241	1926.000000
1966.450430	1925.666667
1967.363293	1923.666667
1968.275829	1901.333333
1969.188040	1926.333333
1970.099924	1939.333333
1971.011483	1918.333333
1971.922716	1910.666667
1972.833624	1932.333333
1973.744206	1951.666667
1974.654464	1935.000000
1975.564396	1917.333333
1976.474004	1927.333333
1977.383286	1925.000000
1978.292245	1910.666667
1979.200878	1926.666667
1980.109188	1891.000000
1981.017174	1892.666667
1981.924835	1870.666667
1982.832173	1867.000000
1983.739187	1868.000000
1984.645878	1843.000000
1985.552245	1836.666667
1986.458289	1847.000000
1987.364010	1822.666667
1988.269408	1795.333333
1989.174484	1818.666667
1990.079236	1789.666667
1990.983667	1815.000000
1991.887775	1807.666667
1992.791561	1812.666667
1993.695024	1791.000000
1994.598166	1766.000000
1995.500986	1796.000000
1996.403485	1744.000000
1997.305662	1739.666667
1998.207518	1768.000000
1999.109053	1745.666667
