200.151048	15215.666667
201.758777	15173.000000
203.365815	15146.666667
204.972162	15131.666667
206.577820	15145.666667
208.182787	15113.000000
209.787065	15081.333333
211.390653	14965.666667
212.993553	14948.666667
214.595765	14929.666667
216.197289	14899.000000
217.798125	14851.333333
219.398274	14777.333333
220.997737	14868.666667
222.596513	14888.000000
224.194603	14672.333333
225.792008	14690.333333
227.388728	14680.000000
228.984763	14665.333333
230.580114	14606.000000
232.174781	14565.000000
233.768765	14598.000000
235.362065	14397.333333
236.954683	14461.000000
238.546619	14308.666667
240.137872	14316.000000
241.728445	14233.333333
243.318336	14331.666667
244.907546	14221.666667
246.496076	14151.666667
248.083926	14111.000000
249.671097	14024.000000
251.257589	14045.666667
252.843402	14039.000000
254.428536	13981.000000
256.012993	14009.666667
257.596772	13862.333333
259.179874	13799.000000
260.762300	13789.666667
262.344049	13766.000000
263.925122	13730.666667
265.505519	13757.333333
267.085241	13682.000000
268.664289	13673.666667
270.242662	13707.666667
271.820361	13596.666667
273.397387	13593.333333
274.973740	13545.666667
276.549419	13555.666667
278.124426	13595.333333
279.698762	13550.666667
281.272425	13567.666667
282.845417	13533.000000
284.417739	13550.666667
285.989390	13490.666667
287.560371	13627.000000
289.130682	13593.000000
290.700324	13560.333333
292.269297	13573.666667
293.837602	13525.333333
295.405238	13443.000000
296.972207	13435.666667
298.538508	13355.666667
300.104142	13355.000000
301.669110	13415.333333
303.233411	13302.000000
304.797047	13285.333333
306.360017	13125.666667
307.922322	13132.000000
309.483963	13105.000000
311.044939	13101.666667
312.605252	13001.666667
314.164900	12945.666667
315.723886	12858.666667
317.282209	12859.000000
318.839870	12807.333333
320.396868	12750.000000
321.953205	12764.000000
323.508881	12670.333333
325.063896	12674.333333
326.618251	12723.000000
328.171945	12581.666667
329.724980	12648.666667
331.277356	12544.333333
332.829072	12521.000000
334.380131	12549.666667
335.930530	12599.666667
337.480273	12505.666667
339.029357	12505.333333
340.577785	12418.333333
342.125556	12443.666667
343.672671	12455.000000
345.219130	12349.333333
346.764933	12467.000000
348.310081	12370.333333
349.854575	12336.000000
351.398414	12300.333333
352.941599	12303.000000
354.484130	12312.666667
356.026008	12253.333333
357.567234	12164.333333
359.107807	12222.000000
360.647727	12152.333333
362.186996	12160.000000
363.725614	12077.333333
365.263580	11958.333333
366.800896	12066.000000
368.337562	12088.000000
369.873578	11980.000000
371.408944	12051.333333
372.943661	11989.333333
374.477730	12066.666667
376.011150	12058.666667
377.543922	12084.333333
379.076046	12162.333333
380.607523	12108.333333
382.138353	12176.000000
383.668537	12175.333333
385.198075	12159.333333
386.726966	12256.000000
388.255213	12102.333333
389.782814	12175.333333
391.309770	12209.333333
392.836083	12306.666667
394.361751	12274.666667
395.886776	12304.333333
397.411157	12358.666667
398.934896	12403.666667
400.457992	12329.666667
401.980446	12420.666667
403.502258	12432.666667
405.023429	12543.000000
406.543959	12517.000000
408.063849	12597.666667
409.583098	12602.000000
411.101707	12746.000000
412.619677	12777.666667
414.137007	12829.333333
415.653699	13026.000000
417.169752	13153.666667
418.685167	13315.666667
420.199945	13482.333333
421.714085	13724.666667
423.227588	13850.666667
424.740454	13922.666667
426.252684	13998.666667
427.764279	14090.333333
429.275238	13973.333333
430.785561	14014.333333
432.295250	13830.333333
433.804304	13798.666667
435.312725	13546.333333
436.820511	13541.000000
438.327664	13405.666667
439.834185	13163.333333
441.340072	13144.333333
442.845327	13044.333333
444.349951	13061.666667
445.853942	13006.000000
447.357303	12875.666667
448.860033	12912.333333
450.362132	12827.000000
451.863601	12756.666667
453.364440	12631.333333
454.864650	12418.333333
456.364231	12309.333333
457.863183	12199.000000
459.361507	12100.333333
460.859203	11950.000000
462.356271	11902.666667
463.852712	11893.666667
465.348526	11760.000000
466.843714	11671.666667
468.338275	11575.000000
469.832210	11543.000000
471.325520	11426.333333
472.818205	11403.333333
474.310265	11336.000000
475.801700	11398.333333
477.292512	11326.333333
478.782700	11376.666667
480.272264	11185.666667
481.761205	11226.333333
483.249524	11188.666667
484.737221	11086.333333
486.224295	11084.000000
487.710748	10954.666667
489.196579	10964.333333
490.681790	10961.666667
492.166380	10877.333333
493.650350	10906.666667
495.133700	10974.000000
496.616431	10960.333333
498.098542	10861.333333
499.580035	10896.333333
501.060909	10829.333333
502.541165	10834.333333
504.020804	10929.000000
505.499825	10887.000000
506.978228	10870.000000
508.456016	10856.000000
509.933186	10664.000000
511.409741	10721.333333
512.885680	10648.666667
514.361004	10731.666667
515.835713	10707.333333
517.309807	10694.666667
518.783287	10807.333333
520.256153	10880.333333
521.728406	10861.333333
523.200045	10907.333333
524.671071	10797.666667
526.141485	10815.000000
527.611287	10795.333333
529.080476	10877.666667
530.549054	10797.000000
532.017021	10836.000000
533.484378	10824.000000
534.951123	10846.000000
536.417259	10868.000000
537.882785	10829.000000
539.347701	10742.000000
540.812008	10848.000000
542.275707	10812.000000
543.738797	10762.000000
545.201279	10767.666667
546.663153	10829.333333
548.124420	10908.333333
549.585080	10962.333333
551.045133	11002.333333
552.504579	11009.666667
553.963420	11058.000000
555.421655	11079.666667
556.879285	11109.000000
558.336309	11086.000000
559.792729	11108.666667
561.248545	11137.333333
562.703756	11174.666667
564.158364	11222.000000
565.612369	11352.000000
567.065770	11257.000000
568.518569	11336.000000
569.970766	11413.666667
571.422361	11526.333333
572.873354	11625.666667
574.323745	11673.000000
575.773536	11781.333333
577.222726	11874.000000
578.671316	11958.666667
580.119306	11896.000000
581.566696	11860.000000
583.013487	11802.666667
584.459679	11740.666667
585.905273	11656.666667
587.350268	11648.000000
588.794665	11621.000000
590.238465	11644.666667
591.681667	11658.666667
593.124272	11567.000000
594.566281	11465.333333
596.007694	11333.333333
597.448510	11218.333333
598.888731	11251.000000
600.328357	11212.666667
601.767388	11005.000000
603.205824	11038.000000
604.643666	11009.333333
606.080914	11000.666667
607.517568	11039.666667
608.953629	10890.666667
610.389097	11085.000000
611.823972	10952.000000
613.258255	10874.333333
614.691946	10737.666667
616.125046	10734.000000
617.557554	10670.000000
618.989471	10551.333333
620.420798	10401.666667
621.851534	10483.000000
623.281680	10298.333333
624.711237	10283.333333
626.140204	10134.000000
627.568582	10109.666667
628.996372	10008.333333
630.423573	10027.666667
631.850186	9948.000000
633.276211	9951.000000
634.701650	9912.666667
636.126501	9934.333333
637.550765	9958.333333
638.974443	9892.666667
640.397535	9898.666667
641.820041	9924.000000
643.241961	9913.666667
644.663297	9892.000000
646.084048	9839.666667
647.504214	9812.000000
648.923796	9762.666667
650.342795	9709.666667
651.761210	9726.333333
653.179041	9700.000000
654.596290	9572.000000
656.012957	9709.000000
657.429041	9592.666667
658.844543	9740.000000
660.259464	9659.000000
661.673804	9611.000000
663.087563	9619.666667
664.500741	9682.000000
665.913339	9674.333333
667.325357	9778.666667
668.736795	9755.000000
670.147654	9706.666667
671.557934	9749.000000
672.967636	9687.000000
674.376759	9641.000000
675.785304	9616.000000
677.193271	9725.333333
678.600661	9650.333333
680.007474	9559.000000
681.413711	9536.666667
682.819370	9577.666667
684.224454	9557.333333
685.628962	9607.666667
687.032895	9660.333333
688.436252	9671.333333
689.839034	9681.333333
691.241242	9589.000000
692.642876	9574.666667
694.043936	9553.000000
695.444422	9580.000000
696.844336	9440.333333
698.243676	9518.333333
699.642443	9435.666667
701.040639	9574.666667
702.438262	9555.666667
703.835313	9512.000000
705.231794	9423.000000
706.627703	9561.666667
708.023041	9429.000000
709.417810	9385.333333
710.812008	9410.666667
712.205636	9454.666667
713.598694	9453.333333
714.991184	9413.333333
716.383105	9391.666667
717.774457	9351.666667
719.165241	9341.000000
720.555457	9348.000000
721.945105	9392.000000
723.334187	9365.333333
724.722701	9364.666667
726.110648	9371.000000
727.498030	9397.333333
728.884845	9380.333333
730.271094	9356.666667
731.656778	9362.000000
733.041897	9295.666667
734.426451	9350.333333
735.810441	9286.666667
737.193866	9354.333333
738.576728	9275.000000
739.959026	9254.000000
741.340760	9218.333333
742.721932	9277.333333
744.102541	9275.000000
745.482588	9244.666667
746.862073	9263.333333
748.240996	9282.666667
749.619358	9289.000000
750.997158	9190.000000
752.374398	9281.333333
753.751077	9347.666667
755.127197	9353.000000
756.502756	9250.333333
757.877756	9256.333333
759.252196	9360.666667
760.626078	9198.666667
761.999400	9237.333333
763.372165	9243.000000
764.744371	9259.666667
766.116020	9230.333333
767.487111	9175.000000
768.857646	9167.333333
770.227623	9165.000000
771.597044	9085.333333
772.965908	9182.666667
774.334217	9105.000000
775.701970	9056.000000
777.069168	9101.666667
778.435811	9116.000000
779.801899	9005.666667
781.167433	9081.333333
782.532412	9059.333333
783.896838	9090.333333
785.260710	8966.000000
786.624029	8992.666667
787.986796	8914.333333
789.349009	8986.666667
790.710671	8907.000000
792.071780	8971.000000
793.432338	8978.666667
794.792344	8903.000000
796.151799	9002.666667
797.510704	8865.666667
798.869058	8827.333333
800.226862	8920.000000
801.584116	8915.666667
802.940820	8835.666667
804.296975	8911.000000
805.652581	8869.333333
807.007638	9002.333333
808.362147	8997.000000
809.716108	8982.333333
811.069521	8990.666667
812.422387	9001.666667
813.774705	8908.000000
815.126476	8893.666667
816.477701	9000.333333
817.828380	8959.333333
819.178512	8999.333333
820.528099	8823.000000
821.877140	8878.666667
823.225637	8924.666667
824.573588	8871.666667
825.920995	8841.000000
827.267857	8873.666667
828.614176	8834.666667
829.959951	8804.666667
831.305183	8820.000000
832.649871	8807.000000
833.994017	8812.666667
835.337620	8826.333333
836.680681	8827.333333
838.023201	8809.666667
839.365178	8855.333333
840.706614	8848.666667
842.047510	8875.666667
843.387864	8868.666667
844.727678	8927.333333
846.066952	8922.333333
847.405687	9086.333333
848.743881	9015.333333
850.081537	9041.000000
851.418653	9168.333333
852.755231	9092.666667
854.091270	9116.333333
855.426771	9153.666667
856.761735	9117.666667
858.096160	9108.000000
859.430049	9021.666667
860.763401	9025.666667
862.096216	8986.333333
863.428495	8934.666667
864.760237	8973.666667
866.091444	8915.000000
867.422115	8922.666667
868.752252	8882.333333
870.081853	8890.666667
871.410919	8862.333333
872.739452	8829.666667
874.067450	8936.666667
875.394914	8859.666667
876.721845	8881.333333
878.048243	8887.000000
879.374108	8893.333333
880.699440	8824.666667
882.024240	8753.666667
883.348508	8785.333333
884.672244	8728.666667
885.995449	8699.666667
887.318122	8650.333333
888.640265	8695.000000
889.961877	8667.666667
891.282959	8646.666667
892.603510	8596.000000
893.923532	8646.000000
895.243024	8595.666667
896.561987	8582.333333
897.880422	8555.000000
899.198327	8532.666667
900.515705	8506.666667
901.832554	8493.666667
903.148875	8541.666667
904.464669	8524.000000
905.779936	8527.333333
907.094676	8558.000000
908.408889	8586.666667
909.722576	8547.333333
911.035737	8647.000000
912.348371	8637.666667
913.660481	8678.666667
914.972065	8763.333333
916.283124	8743.666667
917.593659	8792.000000
918.903669	8821.000000
920.213155	8800.000000
921.522117	8855.333333
922.830556	8912.000000
924.138471	8855.333333
925.445864	8921.333333
926.752733	8871.666667
928.059081	8999.000000
929.364906	8950.333333
930.670209	9066.333333
931.974991	9190.333333
933.279251	9271.000000
934.582990	9336.000000
935.886209	9538.333333
937.188907	9627.333333
938.491085	9801.000000
939.792743	10083.000000
941.093881	10319.666667
942.394500	10595.666667
943.694600	10884.333333
944.994181	11141.666667
946.293243	11638.000000
947.591787	12186.666667
948.889813	12686.000000
950.187322	13433.000000
951.484313	14154.000000
952.780787	14990.000000
954.076744	15792.000000
955.372184	16452.666667
956.667108	17102.666667
957.961516	17551.000000
959.255409	17466.333333
960.548785	17195.000000
961.841647	16502.000000
963.133993	15717.000000
964.425825	14834.666667
965.717142	13735.000000
967.007946	12806.000000
968.298235	11974.333333
969.588011	11204.000000
970.877273	10537.000000
972.166023	10019.666667
973.454259	9633.000000
974.741984	9234.666667
976.029196	9014.000000
977.315895	8763.333333
978.602084	8661.666667
979.887761	8461.333333
981.172926	8420.666667
982.457581	8257.333333
983.741725	8213.666667
985.025359	8265.000000
986.308483	8146.000000
987.591097	8106.000000
988.873202	8106.333333
990.154797	8081.000000
991.435883	8144.666667
992.716461	8104.666667
993.996530	8049.000000
995.276091	8109.000000
996.555144	8092.666667
997.833690	8113.000000
999.111728	8196.000000
1000.389259	8300.000000
1001.666283	8264.666667
1002.942800	8323.666667
1004.218812	8307.666667
1005.494317	8238.666667
1006.769317	8299.666667
1008.043811	8146.000000
1009.317799	8213.666667
1010.591283	8117.333333
1011.864263	8161.000000
1013.136737	8154.000000
1014.408708	8201.666667
1015.680175	8286.000000
1016.951138	8281.000000
1018.221598	8155.666667
1019.491554	8174.666667
1020.761008	8211.333333
1022.029959	8286.000000
1023.298408	8263.000000
1024.566355	8240.333333
1025.833800	8360.000000
1027.100744	8264.333333
1028.367187	8278.000000
1029.633128	8330.000000
1030.898569	8304.333333
1032.163509	8291.000000
1033.427949	8291.333333
1034.691890	8273.666667
1035.955330	8293.666667
1037.218271	8314.666667
1038.480714	8389.666667
1039.742657	8368.666667
1041.004101	8432.666667
1042.265048	8403.000000
1043.525496	8389.000000
1044.785446	8505.666667
1046.044899	8355.666667
1047.303855	8393.666667
1048.562313	8310.333333
1049.820275	8289.333333
1051.077740	8289.000000
1052.334709	8285.000000
1053.591182	8324.666667
1054.847160	8398.666667
1056.102641	8301.666667
1057.357628	8346.000000
1058.612120	8347.333333
1059.866117	8479.000000
1061.119619	8493.666667
1062.372628	8574.333333
1063.625142	8549.000000
1064.877163	8754.333333
1066.128691	8801.000000
1067.379725	8679.333333
1068.630267	8773.333333
1069.880316	8702.333333
1071.129872	8685.666667
1072.378937	8652.666667
1073.627509	8576.000000
1074.875590	8470.000000
1076.123180	8311.333333
1077.370279	8388.333333
1078.616887	8225.666667
1079.863004	8171.000000
1081.108631	8132.000000
1082.353768	7930.333333
1083.598415	7918.333333
1084.842573	7821.333333
1086.086241	7681.000000
1087.329421	7660.000000
1088.572111	7572.000000
1089.814314	7627.666667
1091.056028	7531.333333
1092.297253	7498.666667
1093.537992	7382.000000
1094.778242	7404.333333
1096.018006	7378.333333
1097.257282	7360.333333
1098.496072	7339.666667
1099.734376	7367.666667
1100.972193	7322.000000
1102.209524	7240.000000
1103.446370	7249.666667
1104.682730	7305.333333
1105.918604	7170.333333
1107.153994	7244.000000
1108.388900	7105.000000
1109.623320	7157.333333
1110.857257	7089.666667
1112.090710	7065.666667
1113.323679	7005.333333
1114.556164	6946.000000
1115.788167	6868.333333
1117.019686	6925.000000
1118.250723	6880.000000
1119.481278	6964.000000
1120.711350	6889.666667
1121.940940	6858.333333
1123.170049	6807.666667
1124.398676	6814.333333
1125.626823	6864.000000
1126.854488	6813.666667
1128.081672	6801.333333
1129.308376	6788.333333
1130.534600	6690.000000
1131.760345	6736.333333
1132.985609	6759.333333
1134.210394	6696.666667
1135.434700	6704.333333
1136.658527	6728.333333
1137.881875	6713.666667
1139.104745	6668.333333
1140.327136	6707.666667
1141.549050	6755.666667
1142.770486	6663.000000
1143.991445	6743.666667
1145.211926	6672.333333
1146.431931	6689.666667
1147.651459	6671.666667
1148.870510	6652.666667
1150.089086	6717.333333
1151.307185	6654.000000
1152.524808	6695.333333
1153.741957	6622.333333
1154.958630	6681.000000
1156.174828	6721.000000
1157.390551	6734.333333
1158.605800	6661.666667
1159.820574	6663.666667
1161.034875	6676.333333
1162.248702	6650.333333
1163.462055	6646.666667
1164.674936	6602.666667
1165.887343	6617.000000
1167.099277	6610.666667
1168.310739	6564.333333
1169.521729	6634.333333
1170.732247	6609.000000
1171.942293	6576.333333
1173.151867	6608.333333
1174.360970	6601.666667
1175.569602	6579.666667
1176.777764	6585.000000
1177.985454	6567.333333
1179.192675	6569.666667
1180.399425	6479.000000
1181.605706	6563.666667
1182.811517	6517.000000
1184.016859	6457.000000
1185.221731	6443.666667
1186.426135	6429.333333
1187.630070	6388.666667
1188.833537	6408.666667
1190.036535	6438.333333
1191.239066	6372.000000
1192.441129	6350.000000
1193.642725	6368.333333
1194.843853	6331.666667
1196.044515	6297.000000
1197.244710	6376.000000
1198.444438	6401.000000
1199.643701	6316.333333
1200.842497	6395.333333
1202.040827	6399.000000
1203.238693	6433.666667
1204.436092	6402.666667
1205.633027	6325.000000
1206.829497	6342.333333
1208.025503	6349.000000
1209.221044	6321.333333
1210.416122	6296.000000
1211.610735	6306.333333
1212.804885	6227.333333
1213.998572	6254.000000
1215.191795	6298.666667
1216.384556	6259.000000
1217.576854	6240.666667
1218.768689	6233.666667
1219.960063	6216.000000
1221.150974	6245.000000
1222.341424	6205.000000
1223.531413	6255.000000
1224.720940	6266.000000
1225.910006	6296.333333
1227.098612	6296.000000
1228.286757	6311.000000
1229.474442	6378.000000
1230.661667	6354.333333
1231.848432	6486.666667
1233.034738	6422.333333
1234.220584	6531.666667
1235.405971	6512.333333
1236.590900	6561.333333
1237.775369	6607.333333
1238.959381	6597.666667
1240.142934	6621.333333
1241.326029	6638.333333
1242.508667	6700.666667
1243.690848	6605.333333
1244.872571	6678.666667
1246.053837	6572.333333
1247.234646	6604.000000
1248.414999	6484.000000
1249.594896	6535.666667
1250.774337	6473.333333
1251.953322	6555.666667
1253.131851	6482.333333
1254.309925	6439.333333
1255.487544	6446.333333
1256.664708	6460.666667
1257.841417	6452.333333
1259.017673	6419.000000
1260.193473	6405.666667
1261.368820	6376.333333
1262.543714	6503.333333
1263.718154	6465.666667
1264.892140	6465.000000
1266.065674	6534.666667
1267.238755	6532.666667
1268.411383	6477.000000
1269.583559	6480.000000
1270.755283	6569.000000
1271.926555	6452.000000
1273.097375	6464.333333
1274.267744	6460.666667
1275.437662	6342.666667
1276.607129	6407.666667
1277.776145	6407.000000
1278.944711	6413.666667
1280.112827	6354.333333
1281.280492	6348.000000
1282.447708	6307.333333
1283.614474	6295.666667
1284.780791	6259.666667
1285.946659	6213.666667
1287.112078	6215.000000
1288.277048	6187.666667
1289.441570	6152.333333
1290.605644	6077.333333
1291.769270	6042.000000
1292.932448	6077.000000
1294.095178	6015.333333
1295.257461	6020.000000
1296.419298	6046.000000
1297.580687	5987.333333
1298.741630	5959.666667
1299.902126	5953.666667
1301.062177	5951.666667
1302.221781	5930.666667
1303.380940	5966.333333
1304.539653	5921.000000
1305.697921	5877.000000
1306.855744	5930.333333
1308.013123	5906.333333
1309.170056	5989.333333
1310.326546	6011.333333
1311.482591	5890.000000
1312.638193	5905.000000
1313.793350	5962.000000
1314.948065	5940.333333
1316.102336	5931.333333
1317.256164	5987.333333
1318.409550	5951.000000
1319.562493	5911.333333
1320.714993	5900.000000
1321.867052	5884.666667
1323.018668	5839.333333
1324.169843	5883.000000
1325.320577	5794.666667
1326.470870	5799.333333
1327.620721	5780.666667
1328.770132	5767.666667
1329.919102	5708.000000
1331.067632	5736.333333
1332.215722	5676.666667
1333.363372	5748.666667
1334.510582	5786.333333
1335.657353	5733.000000
1336.803685	5814.333333
1337.949578	5803.333333
1339.095032	5786.666667
1340.240048	5718.666667
1341.384625	5755.333333
1342.528764	5798.333333
1343.672466	5708.333333
1344.815729	5711.333333
1345.958556	5702.000000
1347.100945	5718.333333
1348.242897	5684.666667
1349.384413	5676.000000
1350.525492	5647.666667
1351.666134	5626.666667
1352.806341	5548.666667
1353.946111	5635.000000
1355.085446	5623.666667
1356.224346	5588.666667
1357.362810	5593.000000
1358.500840	5571.333333
1359.638434	5514.333333
1360.775594	5525.000000
1361.912320	5474.333333
1363.048612	5511.333333
1364.184469	5509.333333
1365.319893	5556.333333
1366.454884	5464.000000
1367.589441	5533.000000
1368.723566	5497.333333
1369.857257	5465.666667
1370.990516	5508.666667
1372.123343	5497.666667
1373.255737	5594.666667
1374.387699	5506.333333
1375.519230	5554.000000
1376.650329	5496.666667
1377.780997	5521.333333
1378.911234	5575.000000
1380.041040	5510.666667
1381.170416	5511.000000
1382.299361	5553.000000
1383.427875	5469.666667
1384.555960	5537.666667
1385.683615	5478.333333
1386.810841	5473.000000
1387.937637	5476.666667
1389.064004	5450.000000
1390.189942	5488.333333
1391.315451	5501.666667
1392.440532	5544.333333
1393.565185	5463.000000
1394.689409	5530.666667
1395.813206	5520.333333
1396.936575	5482.000000
1398.059517	5399.333333
1399.182032	5480.000000
1400.304119	5477.000000
1401.425780	5409.666667
1402.547014	5434.666667
1403.667822	5376.000000
1404.788204	5408.000000
1405.908160	5372.333333
1407.027690	5437.000000
1408.146795	5433.333333
1409.265474	5405.000000
1410.383728	5449.666667
1411.501558	5464.000000
1412.618963	5425.000000
1413.735943	5436.333333
1414.852499	5510.000000
1415.968632	5432.666667
1417.084340	5465.666667
1418.199625	5452.000000
1419.314486	5462.333333
1420.428925	5461.000000
1421.542940	5441.000000
1422.656533	5568.333333
1423.769703	5500.000000
1424.882451	5468.666667
1425.994777	5466.000000
1427.106680	5403.666667
1428.218163	5419.000000
1429.329223	5431.333333
1430.439863	5444.000000
1431.550081	5360.666667
1432.659879	5370.000000
1433.769256	5346.000000
1434.878212	5403.666667
1435.986749	5383.000000
1437.094865	5399.333333
1438.202562	5438.333333
1439.309839	5433.333333
1440.416696	5411.000000
1441.523135	5465.333333
1442.629154	5593.333333
1443.734755	5617.333333
1444.839937	5579.000000
1445.944701	5596.000000
1447.049047	5668.000000
1448.152975	5664.666667
1449.256485	5595.000000
1450.359577	5606.666667
1451.462253	5630.666667
1452.564511	5603.666667
1453.666352	5585.000000
1454.767777	5604.666667
1455.868785	5522.333333
1456.969377	5517.333333
1458.069553	5500.666667
1459.169313	5427.333333
1460.268658	5467.666667
1461.367587	5422.666667
1462.466101	5384.333333
1463.564200	5396.333333
1464.661884	5372.000000
1465.759153	5281.666667
1466.856008	5265.666667
1467.952449	5211.000000
1469.048476	5175.333333
1470.144089	5152.000000
1471.239288	5088.333333
1472.334074	5008.333333
1473.428447	4987.333333
1474.522407	4963.666667
1475.615955	4873.000000
1476.709089	4890.333333
1477.801812	4853.000000
1478.894122	4855.333333
1479.986020	4817.000000
1481.077506	4828.666667
1482.168581	4751.000000
1483.259245	4744.333333
1484.349498	4757.666667
1485.439339	4777.666667
1486.528770	4707.000000
1487.617790	4712.333333
1488.706400	4739.000000
1489.794600	4664.000000
1490.882390	4686.000000
1491.969771	4686.666667
1493.056742	4684.333333
1494.143303	4659.666667
1495.229456	4633.333333
1496.315199	4646.333333
1497.400534	4679.000000
1498.485460	4643.666667
1499.569978	4602.666667
1500.654088	4593.666667
1501.737790	4591.333333
1502.821085	4584.666667
1503.903972	4628.333333
1504.986451	4527.000000
1506.068524	4529.666667
1507.150189	4519.333333
1508.231448	4508.333333
1509.312301	4526.666667
1510.392747	4500.000000
1511.472787	4487.333333
1512.552422	4491.000000
1513.631650	4485.666667
1514.710473	4436.666667
1515.788891	4493.000000
1516.866904	4456.333333
1517.944512	4543.333333
1519.021715	4481.333333
1520.098513	4496.000000
1521.174908	4440.000000
1522.250898	4504.000000
1523.326485	4510.000000
1524.401667	4471.666667
1525.476447	4487.333333
1526.550823	4528.333333
1527.624796	4478.333333
1528.698365	4453.666667
1529.771533	4558.666667
1530.844298	4525.000000
1531.916660	4509.333333
1532.988620	4507.000000
1534.060179	4482.000000
1535.131336	4484.000000
1536.202091	4494.333333
1537.272445	4489.000000
1538.342398	4475.000000
1539.411950	4402.333333
1540.481101	4549.666667
1541.549851	4410.333333
1542.618202	4402.000000
1543.686152	4426.333333
1544.753702	4360.666667
1545.820853	4346.333333
1546.887604	4393.333333
1547.953955	4368.666667
1549.019908	4390.000000
1550.085461	4413.333333
1551.150616	4342.000000
1552.215372	4282.666667
1553.279730	4376.333333
1554.343690	4297.666667
1555.407252	4315.666667
1556.470415	4344.666667
1557.533182	4318.000000
1558.595551	4269.000000
1559.657522	4293.000000
1560.719097	4253.000000
1561.780275	4245.666667
1562.841056	4248.000000
1563.901441	4221.000000
1564.961429	4255.333333
1566.021022	4262.666667
1567.080219	4218.000000
1568.139020	4241.333333
1569.197425	4269.666667
1570.255436	4211.000000
1571.313051	4280.666667
1572.370271	4196.666667
1573.427097	4252.666667
1574.483528	4169.333333
1575.539565	4177.333333
1576.595208	4158.333333
1577.650457	4221.000000
1578.705312	4134.333333
1579.759774	4195.333333
1580.813842	4150.666667
1581.867517	4093.000000
1582.920799	4096.000000
1583.973689	4147.666667
1585.026186	4099.666667
1586.078290	4054.666667
1587.130002	4063.666667
1588.181323	4059.666667
1589.232251	4048.666667
1590.282788	4103.333333
1591.332933	4053.666667
1592.382688	4052.000000
1593.432051	4046.000000
1594.481023	4052.666667
1595.529605	4057.333333
1596.577796	4093.333333
1597.625597	4107.000000
1598.673007	4138.000000
1599.720028	4093.333333
1600.766660	4099.000000
1601.812901	4160.000000
1602.858753	4099.333333
1603.904217	4174.000000
1604.949291	4147.000000
1605.993976	4160.666667
1607.038273	4147.333333
1608.082182	4123.666667
1609.125702	4150.333333
1610.168834	4064.666667
1611.211579	4090.000000
1612.253935	4095.333333
1613.295905	4068.333333
1614.337487	4044.000000
1615.378682	4083.666667
1616.419490	4028.333333
1617.459912	4005.333333
1618.499946	4115.666667
1619.539595	4069.000000
1620.578858	4120.333333
1621.617734	4166.000000
1622.656225	4170.000000
1623.694330	4188.666667
1624.732050	4124.666667
1625.769385	4088.666667
1626.806334	4109.666667
1627.842899	4056.666667
1628.879079	4110.333333
1629.914875	4076.333333
1630.950286	4089.333333
1631.985314	4169.333333
1633.019957	4143.333333
1634.054217	4135.333333
1635.088093	4153.666667
1636.121586	4196.000000
1637.154696	4141.333333
1638.187423	4145.000000
1639.219767	4193.000000
1640.251728	4125.000000
1641.283307	4139.666667
1642.314504	4187.333333
1643.345319	4197.333333
1644.375751	4146.000000
1645.405803	4134.000000
1646.435472	4170.666667
1647.464761	4112.333333
1648.493668	4130.666667
1649.522194	4153.333333
1650.550340	4186.666667
1651.578105	4181.333333
1652.605490	4174.666667
1653.632494	4164.000000
1654.659119	4162.333333
1655.685363	4128.000000
1656.711228	4172.000000
1657.736714	4105.666667
1658.761820	4108.333333
1659.786547	4142.000000
1660.810895	4094.666667
1661.834865	4127.000000
1662.858456	4128.666667
1663.881668	4096.666667
1664.904503	4093.000000
1665.926959	4022.666667
1666.949038	4051.333333
1667.970739	3982.333333
1668.992062	4030.000000
1670.013008	4011.333333
1671.033577	4010.000000
1672.053770	3998.000000
1673.073585	3969.333333
1674.093024	3946.333333
1675.112086	3963.000000
1676.130773	3983.333333
1677.149083	3918.000000
1678.167017	3899.666667
1679.184576	3915.000000
1680.201760	3912.000000
1681.218568	3922.000000
1682.235001	3900.666667
1683.251059	3877.666667
1684.266742	3865.666667
1685.282051	3845.000000
1686.296985	3851.000000
1687.311546	3846.666667
1688.325732	3790.000000
1689.339544	3787.333333
1690.352983	3681.000000
1691.366048	3722.666667
1692.378740	3691.000000
1693.391058	3700.000000
1694.403004	3660.333333
1695.414577	3670.666667
1696.425778	3636.000000
1697.436606	3588.666667
1698.447061	3610.000000
1699.457145	3566.666667
1700.466857	3548.333333
1701.476197	3474.666667
1702.485166	3469.000000
1703.493763	3468.000000
1704.501989	3416.666667
1705.509844	3414.666667
1706.517328	3428.666667
1707.524442	3413.666667
1708.531185	3372.333333
1709.537558	3408.333333
1710.543561	3417.333333
1711.549194	3406.333333
1712.554457	3404.000000
1713.559351	3372.333333
1714.563875	3339.666667
1715.568030	3353.333333
1716.571816	3344.666667
1717.575233	3424.333333
1718.578282	3453.666667
1719.580962	3418.000000
1720.583273	3444.666667
1721.585217	3409.666667
1722.586792	3405.333333
1723.588000	3443.666667
1724.588840	3421.000000
1725.589312	3361.333333
1726.589418	3404.000000
1727.589156	3413.000000
1728.588527	3439.333333
1729.587532	3435.666667
1730.586170	3399.000000
1731.584441	3480.000000
1732.582346	3433.666667
1733.579886	3368.333333
1734.577059	3415.333333
1735.573867	3422.666667
1736.570309	3380.333333
1737.566386	3389.000000
1738.562097	3322.333333
1739.557444	3397.333333
1740.552426	3280.666667
1741.547043	3298.333333
1742.541295	3333.000000
1743.535184	3274.666667
1744.528708	3291.000000
1745.521868	3280.666667
1746.514664	3253.000000
1747.507097	3272.333333
1748.499166	3202.000000
1749.490873	3253.000000
1750.482216	3267.333333
1751.473196	3259.000000
1752.463813	3247.000000
1753.454068	3307.000000
1754.443960	3235.666667
1755.433490	3284.000000
1756.422658	3177.666667
1757.411464	3188.000000
1758.399908	3215.333333
1759.387991	3138.000000
1760.375713	3182.000000
1761.363073	3226.666667
1762.350072	3184.666667
1763.336711	3215.666667
1764.322988	3192.333333
1765.308905	3161.333333
1766.294462	3228.000000
1767.279659	3207.666667
1768.264496	3149.000000
1769.248972	3123.000000
1770.233089	3138.666667
1771.216847	3131.000000
1772.200245	3097.333333
1773.183284	3116.000000
1774.165965	3100.000000
1775.148286	3094.666667
1776.130249	3138.333333
1777.111853	3121.333333
1778.093099	3036.333333
1779.073987	3070.333333
1780.054517	2999.666667
1781.034689	3024.333333
1782.014503	2997.666667
1782.993960	2974.000000
1783.973060	2954.333333
1784.951802	2911.666667
1785.930188	2913.000000
1786.908217	2891.333333
1787.885889	2876.666667
1788.863205	2879.000000
1789.840164	2909.333333
1790.816768	2862.000000
1791.793015	2857.000000
1792.768907	2856.000000
1793.744443	2859.000000
1794.719624	2903.000000
1795.694449	2891.666667
1796.668919	2879.666667
1797.643035	2888.666667
1798.616795	2877.666667
1799.590201	2849.333333
1800.563253	2893.666667
1801.535950	2884.333333
1802.508294	2880.000000
1803.480283	2859.000000
1804.451919	2871.666667
1805.423201	2942.000000
1806.394129	2890.000000
1807.364705	2890.333333
1808.334927	2923.666667
1809.304796	2865.333333
1810.274313	2939.333333
1811.243477	2912.666667
1812.212288	2847.000000
1813.180747	2877.333333
1814.148855	2892.000000
1815.116610	2850.333333
1816.084013	2853.666667
1817.051065	2886.666667
1818.017766	2914.666667
1818.984115	2877.333333
1819.950113	2854.333333
1820.915760	2897.333333
1821.881057	2907.000000
1822.846003	2860.666667
1823.810598	2815.333333
1824.774843	2908.666667
1825.738738	2885.333333
1826.702283	2912.333333
1827.665479	2905.000000
1828.628324	2840.666667
1829.590821	2876.333333
1830.552968	2819.000000
1831.514765	2865.333333
1832.476214	2832.666667
1833.437314	2867.000000
1834.398066	2832.000000
1835.358469	2800.000000
1836.318524	2802.000000
1837.278230	2739.333333
1838.237589	2782.666667
1839.196600	2793.000000
1840.155263	2810.000000
1841.113578	2807.000000
1842.071547	2801.000000
1843.029168	2765.333333
1843.986442	2793.000000
1844.943369	2836.333333
1845.899950	2805.666667
1846.856184	2798.666667
1847.812072	2808.000000
1848.767614	2787.333333
1849.722809	2749.333333
1850.677659	2777.333333
1851.632163	2735.000000
1852.586322	2754.000000
1853.540135	2794.666667
1854.493603	2754.666667
1855.446726	2764.333333
1856.399504	2748.333333
1857.351937	2746.000000
1858.304026	2758.000000
1859.255770	2706.000000
1860.207170	2718.666667
1861.158227	2687.000000
1862.108939	2737.000000
1863.059307	2677.666667
1864.009332	2654.666667
1864.959013	2686.000000
1865.908351	2667.666667
1866.857346	2644.000000
1867.805998	2645.000000
1868.754307	2660.000000
1869.702274	2597.000000
1870.649898	2619.333333
1871.597180	2637.333333
1872.544119	2630.666667
1873.490717	2595.333333
1874.436973	2572.333333
1875.382887	2598.333333
1876.328459	2573.666667
1877.273691	2558.000000
1878.218581	2550.000000
1879.163130	2582.000000
1880.107338	2522.000000
1881.051205	2564.333333
1881.994732	2556.333333
1882.937919	2573.333333
1883.880765	2559.666667
1884.823271	2552.333333
1885.765437	2579.333333
1886.707264	2626.666667
1887.648750	2603.666667
1888.589898	2535.000000
1889.530706	2618.000000
1890.471175	2577.000000
1891.411305	2591.000000
1892.351096	2590.666667
1893.290548	2637.000000
1894.229662	2612.333333
1895.168438	2619.666667
1896.106876	2616.666667
1897.044975	2580.333333
1897.982737	2618.333333
1898.920160	2616.000000
1899.857247	2613.000000
1900.793996	2592.666667
1901.730407	2556.333333
1902.666482	2565.333333
1903.602219	2588.000000
1904.537620	2529.333333
1905.472685	2584.000000
1906.407412	2574.666667
1907.341804	2525.666667
1908.275859	2544.666667
1909.209579	2521.666667
1910.142962	2506.000000
1911.076010	2537.666667
1912.008722	2469.333333
1912.941099	2478.666667
1913.873141	2451.333333
1914.804848	2444.333333
1915.736219	2434.333333
1916.667256	2449.333333
1917.597959	2474.333333
1918.528327	2436.000000
1919.458360	2405.666667
1920.388060	2426.333333
1921.317426	2366.000000
1922.246457	2386.333333
1923.175156	2383.000000
1924.103520	2408.333333
1925.031552	2413.000000
1925.959250	2373.000000
1926.886615	2436.333333
1927.813647	2410.333333
1928.740346	2418.666667
1929.666713	2407.666667
1930.592748	2376.000000
1931.518450	2395.000000
1932.443820	2389.333333
1933.368858	2387.000000
1934.293564	2373.333333
1935.217939	2397.666667
1936.141982	2371.000000
1937.065694	2349.666667
1937.989074	2329.666667
1938.912124	2335.000000
1939.834842	2341.000000
1940.757230	2348.000000
1941.679287	2317.666667
1942.601014	2317.000000
1943.522411	2299.333333
1944.443477	2351.000000
1945.364214	2321.333333
1946.284621	2331.333333
1947.204698	2279.666667
1948.124445	2289.666667
1949.043863	2268.000000
1949.962952	2308.666667
1950.881712	2296.000000
1951.800143	2253.000000
1952.718245	2296.000000
1953.636019	2242.666667
1954.553464	2264.666667
1955.470581	2228.666667
1956.387369	2227.666667
1957.303830	2221.000000
1958.219963	2208.666667
1959.135768	2249.333333
1960.051246	2224.333333
1960.966396	2200.666667
1961.881219	2176.000000
1962.795715	2247.000000
1963.709883	2220.333333
1964.623726	2239.666667
1965.537241	2253.666667
1966.450430	2277.333333
1967.363293	2303.666667
1968.275829	2249.333333
1969.188040	2258.666667
1970.099924	2282.000000
1971.011483	2266.666667
1971.922716	2284.666667
1972.833624	2226.666667
1973.744206	2268.666667
1974.654464	2242.000000
1975.564396	2260.333333
1976.474004	2258.666667
1977.383286	2235.666667
1978.292245	2212.666667
1979.200878	2211.666667
1980.109188	2199.666667
1981.017174	2209.000000
1981.924835	2217.000000
1982.832173	2206.666667
1983.739187	2190.666667
1984.645878	2189.666667
1985.552245	2186.666667
1986.458289	2172.333333
1987.364010	2141.666667
1988.269408	2121.000000
1989.174484	2138.666667
1990.079236	2147.000000
1990.983667	2084.000000
1991.887775	2145.000000
1992.791561	2090.000000
1993.695024	2060.666667
1994.598166	2083.000000
1995.500986	2053.000000
1996.403485	2075.333333
1997.305662	2083.000000
1998.207518	2073.000000
1999.109053	2077.333333
