398.1873	5067
400.7097	5041
403.2336	5173
405.7547	5162
408.2751	5149
410.7948	5119
413.3138	5196
415.83	5182
418.3497	5298
420.8666	5326
423.3829	5481
425.8985	5442
428.4133	5540
430.9275	5457
433.441	5458
435.9538	5438
438.4639	5511
440.9753	5537
443.4881	5452
445.9982	5459
448.5055	5470
451.0142	5447
453.5201	5417
456.0274	5512
458.5361	5517
461.04	5484
463.5453	5447
466.0478	5542
468.5517	5566
471.0549	5491
473.5574	5399
476.0572	5523
478.5584	5415
481.0568	5492
483.5545	5642
486.0557	5596
488.5521	5524
491.0478	5626
493.5449	5569
496.0392	5618
498.5349	5629
501.0299	5586
503.5222	5556
506.0139	5606
508.5048	5703
510.9991	5581
513.4887	5655
515.9777	5817
518.4659	5771
520.9534	5726
523.4403	5781
525.9306	5588
528.4161	5657
530.9009	5721
533.3851	5706
535.8687	5783
538.3535	5702
540.8356	5650
543.3171	5721
545.7979	5670
548.278	5679
550.7595	5732
553.2383	5704
555.7144	5710
558.1918	5719
560.6685	5872
563.1446	5804
565.6221	5801
568.0968	5916
570.5688	5909
573.0422	5857
575.515	5928
577.989	6008
580.4584	5914
582.9291	5953
585.3991	6043
587.8685	6001
590.3352	5928
592.8052	6036
595.2706	5922
597.7372	6039
600.2033	5899
602.6666	5907
605.1334	5912
607.5953	5840
610.0587	5866
612.5193	5845
614.9814	5965
617.4427	5983
619.9034	5868
622.3615	5881
624.8208	5911
627.2775	5884
629.7335	5704
632.1929	5864
634.6476	5800
637.1016	6047
639.5569	5944
642.0096	5953
644.4637	5962
646.9151	5971
649.3678	5950
651.8179	5954
654.2672	5938
656.7159	5927
659.166	5982
661.6154	5959
664.0622	6022
666.5082	5935
668.9537	6091
671.4005	5937
673.8445	6020
676.288	5951
678.7308	6057
681.1729	6008
683.6163	6132
686.0572	6034
688.4973	6050
690.9368	6098
693.3757	6083
695.8138	6122
698.2534	6280
700.6902	6096
703.1245	6181
705.56	6181
707.9949	6008
710.4311	6163
712.8647	6159
715.2957	6138
717.7279	6162
720.1595	6169
722.5905	6286
725.0208	6260
727.4505	6294
729.8795	6209
732.3058	6370
734.7336	6213
737.1626	6263
739.587	6263
742.0128	6409
744.4359	6353
746.8604	6545
749.2841	6329
751.7073	6430
754.1278	6504
756.5496	6424
758.9688	6459
761.3893	6584
763.8093	6462
766.2285	6579
768.6451	6466
771.0611	6472
773.4784	6501
775.895	6560
778.3091	6519
780.7244	6492
783.1371	6482
785.5493	6601
787.9626	6459
790.3754	6504
792.7856	6572
795.1951	6548
797.6039	6539
800.0121	6579
802.4236	6403
804.8306	6584
807.2369	6570
809.6425	6621
812.0475	6704
814.4538	6761
816.8575	6588
819.2606	6520
821.663	6606
824.0648	6546
826.4659	6592
828.8683	6627
831.2682	6580
833.6674	6603
836.066	6710
838.4639	6685
840.8632	6655
843.2579	6683
845.6539	6623
848.0493	6821
850.444	6739
852.84	6721
855.2315	6901
857.6243	6729
860.0165	6700
862.4081	6593
864.797	6846
867.1892	6825
869.5789	6753
871.9659	6904
874.3542	6853
876.74	6755
879.129	6702
881.5155	6739
883.8994	6759
886.2845	6783
888.6671	6721
891.051	6741
893.4343	6761
895.8169	6678
898.197	6666
900.5783	6785
902.9571	6757
905.3372	6826
907.7167	6757
910.0936	6821
912.4698	6714
914.8474	6804
917.2244	6900
919.5987	6960
921.9744	6997
924.3475	6892
926.72	6952
929.0918	6899
931.4669	7034
933.8375	7037
936.2074	7146
938.5767	7225
940.9454	7247
943.3154	7335
945.6829	7602
948.0497	7662
950.4178	7865
952.7833	8180
955.1483	8478
957.5145	8861
959.8782	8931
962.2412	8765
964.6036	8669
966.9655	8217
969.3266	7957
971.6871	7444
974.0471	7436
976.4064	7270
978.765	7032
981.125	7008
983.4824	6919
985.8373	6951
988.1935	6917
990.549	7013
992.9039	6914
995.2602	6893
997.6119	6923
999.965	7008
1002.317	7078
1004.667	6987
1007.02	7136
1009.371	6903
1011.719	6983
1014.068	6946
1016.415	6894
1018.765	7102
1021.111	7003
1023.458	7027
1025.804	7052
1028.147	7085
1030.49	7167
1032.837	7102
1035.179	7082
1037.522	7246
1039.862	7154
1042.204	7227
1044.546	7135
1046.884	7157
1049.224	7138
1051.562	7069
1053.899	7222
1056.237	7116
1058.575	7142
1060.91	7267
1063.244	7303
1065.58	7248
1067.913	7451
1070.248	7317
1072.579	7413
1074.911	7388
1077.242	7348
1079.572	7238
1081.905	7283
1084.234	7252
1086.562	7204
1088.89	7193
1091.217	7176
1093.544	7256
1095.871	7185
1098.197	7082
1100.521	7198
1102.845	7143
1105.169	7203
1107.491	7260
1109.814	7117
1112.135	7219
1114.456	7258
1116.776	7103
1119.096	7104
1121.415	7206
1123.734	7139
1126.052	7044
1128.369	7276
1130.686	7102
1133.002	7151
1135.318	7052
1137.632	7104
1139.945	7173
1142.258	7173
1144.573	7138
1146.884	7098
1149.196	7285
1151.505	7097
1153.816	7137
1156.124	7126
1158.435	7185
1160.742	7174
1163.051	7023
1165.356	7152
1167.663	7238
1169.97	7170
1172.276	7249
1174.579	7070
1176.881	7219
1179.186	7057
1181.487	7253
1183.79	7208
1186.092	7197
1188.392	7082
1190.691	7122
1192.991	7054
1195.291	7250
1197.588	7157
1199.885	7126
1202.181	7237
1204.479	7235
1206.775	7279
1209.07	7181
1211.363	7275
1213.656	7251
1215.949	7215
1218.241	7240
1220.534	7299
1222.825	7258
1225.115	7271
1227.405	7213
1229.693	7343
1231.984	7321
1234.271	7392
1236.558	7507
1238.845	7340
1241.131	7469
1243.416	7399
1245.703	7516
1247.987	7463
1250.269	7370
1252.552	7368
1254.834	7473
1257.118	7607
1259.399	7424
1261.678	7513
1263.958	7491
1266.237	7488
1268.516	7461
1270.794	7359
1273.072	7527
1275.347	7475
1277.624	7379
1279.899	7427
1282.175	7456
1284.449	7410
1286.722	7398
1288.995	7341
1291.266	7261
1293.54	7429
1295.81	7280
1298.081	7325
1300.35	7327
1302.62	7268
1304.889	7326
1307.156	7359
1309.425	7338
1311.69	7236
1313.957	7288
1316.222	7342
1318.488	7338
1320.751	7270
1323.016	7411
1325.278	7277
1327.54	7255
1329.803	7397
1332.065	7289
1334.325	7419
1336.584	7361
1338.843	7328
1341.101	7347
1343.36	7436
1345.617	7352
1347.876	7338
1350.131	7404
1352.387	7415
1354.643	7347
1356.897	7322
1359.151	7231
1361.403	7406
1363.656	7339
1365.909	7508
1368.16	7435
1370.409	7399
1372.659	7376
1374.909	7275
1377.157	7370
1379.407	7435
1381.655	7568
1383.9	7404
1386.147	7427
1388.393	7490
1390.64	7269
1392.885	7421
1395.127	7472
1397.37	7375
1399.614	7505
1401.854	7426
1404.098	7480
1406.339	7313
1408.578	7446
1410.818	7539
1413.056	7504
1415.297	7476
1417.533	7495
1419.771	7575
1422.006	7530
1424.243	7632
1426.479	7594
1428.715	7656
1430.948	7649
1433.182	7674
1435.414	7681
1437.647	7634
1439.88	7682
1442.11	7703
1444.342	7645
1446.571	7817
1448.799	7711
1451.029	7821
1453.258	7665
1455.485	7634
1457.711	7781
1459.937	7780
1462.164	7700
1464.39	7735
1466.614	7836
1468.838	7565
1471.06	7621
1473.283	7542
1475.506	7642
1477.727	7698
1479.949	7540
1482.169	7665
1484.389	7541
1486.609	7534
1488.828	7474
1491.045	7485
1493.261	7454
1495.477	7471
1497.693	7419
1499.91	7387
1502.125	7386
1504.339	7476
1506.553	7520
1508.766	7405
1510.979	7448
1513.191	7409
1515.402	7453
1517.613	7261
1519.823	7566
1522.033	7507
1524.242	7365
1526.451	7478
1528.657	7248
1530.865	7376
1533.072	7311
1535.278	7353
1537.484	7528
1539.687	7589
1541.892	7531
1544.096	7505
1546.299	7531
1548.502	7530
1550.703	7472
1552.905	7655
1555.104	7463
1557.303	7544
1559.505	7512
1561.703	7561
1563.902	7592
1566.099	7525
1568.295	7682
1570.494	7518
1572.689	7672
1574.883	7557
1577.079	7509
1579.272	7697
1581.467	7716
1583.659	7666
1585.853	7601
1588.044	7782
1590.234	7640
1592.424	7723
1594.615	7648
1596.806	7661
1598.994	7644
1601.182	7749
1603.369	7789
1605.557	7735
1607.744	7763
1609.929	7643
1612.114	7706
1614.298	7580
1616.482	7735
1618.667	7695
1620.85	7733
1623.032	7762
1625.214	7668
1627.395	7806
1629.575	7757
1631.755	7855
1633.935	7781
1636.114	7691
1638.292	7748
1640.471	7745
1642.647	7907
1644.823	7647
1647	7844
1649.175	7975
1651.348	7814
1653.525	7871
1655.698	7830
1657.87	7803
1660.043	7727
1662.213	8046
1664.387	7852
1666.558	7924
1668.727	7921
1670.896	7930
1673.064	7781
1675.233	7960
1677.401	7887
1679.569	7862
1681.735	8019
1683.902	7844
1686.066	7872
1688.233	7840
1690.397	7720
1692.559	7805
1694.723	7758
1696.885	7756
1699.048	7779
1701.21	7876
1703.37	7657
1705.53	7787
1707.689	7816
1709.849	7722
1712.009	7781
1714.166	7766
1716.323	7693
1718.479	7696
1720.634	7699
1722.793	7676
1724.948	7745
1727.102	7644
1729.255	7710
1731.408	7587
1733.562	7783
1735.714	7762
1737.865	7588
1740.016	7516
1742.166	7798
1744.316	7744
1746.467	7751
1748.616	7652
1750.764	7767
1752.911	7769
1755.056	7763
1757.205	7580
1759.35	7660
1761.496	7806
1763.641	7803
1765.785	7739
1767.927	7831
1770.072	7768
1772.214	7777
1774.355	7775
1776.496	7818
1778.637	7829
1780.778	7716
1782.918	7816
1785.057	7708
1787.194	7739
1789.333	7703
1791.472	7860
1793.608	7925
1795.745	7793
1797.879	7826
1800.015	7868
1802.148	7808
1804.284	7821
1806.417	7793
1808.548	7862
1810.682	7770
1812.812	7816
1814.946	7946
1817.075	7854
1819.205	7722
1821.335	7750
1823.463	7761
1825.59	7730
1827.721	7693
1829.847	7842
1831.973	7760
1834.098	7808
1836.223	7740
1838.351	7817
1840.475	7701
1842.598	7731
1844.721	7800
1846.843	7854
1848.966	7744
1851.087	7767
1853.21	7714
1855.33	7677
1857.449	7782
1859.568	7722
1861.688	7872
1863.806	7803
1865.924	7736
1868.039	7818
1870.155	7667
1872.273	7797
1874.388	7755
1876.503	7739
1878.617	7797
1880.73	7721
1882.844	7897
1884.956	7784
1887.068	7671
1889.18	7712
1891.291	7776
1893.4	7898
1895.511	7875
1897.621	7826
1899.73	7803
1901.837	7802
1903.944	7832
1906.053	7823
1908.159	7872
1910.265	7852
1912.369	7950
1914.474	7768
1916.577	7855
1918.683	7911
1920.785	7782
1922.888	7883
1924.989	7754
1927.091	7844
1929.193	7960
1931.294	7825
1933.393	7942
1935.493	7881
1937.59	8004
1939.689	7904
1941.788	7957
1943.884	7931
1945.98	7842
1948.077	7948
1950.171	7838
1952.267	7979
1954.361	7939
1956.455	7923
1958.548	7849
1960.64	7909
1962.733	7853
1964.824	7942
1966.915	7939
1969.005	7919
1971.096	7918
1973.185	7926
1975.275	7807
1977.363	7929
1979.45	7913
1981.537	7881
1983.623	7762
1985.711	7895
1987.796	7882
1989.881	7912
1991.965	7881
1994.047	7880
1996.132	7914
1998.215	7854
2000.297	7829
2002.378	7898
2004.46	7756
2006.54	7754
2008.62	7759
2010.7	7670
2012.779	7842
2014.858	7890
2016.934	7824
2019.013	7838
2021.09	7938
2023.165	7745
2025.241	7935
2027.317	7926
2029.39	7716
2031.466	7755
2033.538	7749
2035.612	7828
2037.683	7905
2039.755	7928
2041.827	7758
2043.898	7720
2045.968	7879
2048.038	7775
2050.106	7813
2052.177	7853
2054.244	7915
2056.313	7730
2058.379	8014
2060.444	7952
2062.511	7842
2064.577	7796
2066.641	7905
2068.705	7964
2070.77	7815
2072.832	7912
2074.896	7914
2076.958	7885
2079.02	7832
2081.081	7930
2083.141	7934
2085.2	7831
2087.261	7857
2089.319	7917
2091.377	7844
2093.435	7966
2095.492	7779
2097.552	7848
2099.607	7890
2101.663	7887
2103.718	7993
2105.771	7930
2107.826	7799
2109.879	7820
2111.932	7992
2113.985	7940
2116.037	7800
2118.088	7814
2120.141	7882
2122.191	7835
2124.239	7882
2126.288	7756
2128.337	7952
2130.387	7842
2132.434	7841
2134.481	7837
2136.528	7922
2138.574	7851
2140.618	7898
2142.665	7878
2144.71	7793
2146.753	7978
2148.797	7777
2150.838	7853
2152.883	7884
2154.923	7880
2156.965	7819
2159.007	7923
2161.046	7737
2163.086	7859
2165.126	7754
2167.163	7864
2169.202	7820
2171.239	7847
2173.277	7789
2175.314	7772
2177.349	7824
2179.385	7802
2181.42	7710
2183.453	7776
2185.49	7822
2187.522	7807
2189.555	7794
2191.586	7712
2193.619	7747
2195.651	7833
2197.682	7888
2199.711	7629
2201.74	7938
2203.769	7774
2205.799	7752
2207.828	7719
2209.855	7733
2211.882	7565
2213.908	7636
2215.934	7649
2217.961	7711
2219.986	7625
2222.01	7784
2224.034	7774
2226.057	7733
2228.08	7709
2230.104	7596
2232.124	7655
2234.145	7749
2236.166	7742
2238.186	7655
2240.207	7672
2242.227	7650
2244.244	7567
2246.262	7653
2248.28	7774
2250.299	7638
2252.314	7680
2254.33	7786
2256.346	7720
2258.36	7765
2260.375	7813
2262.391	7698
2264.403	7756
2266.416	7585
2268.427	7654
2270.44	7713
2272.453	7766
2274.463	7737
2276.474	7691
2278.483	7723
2280.493	7715
2282.501	7736
2284.51	7772
2286.518	7637
2288.524	7744
2290.532	7782
2292.537	7638
2294.544	7632
2296.55	7723
2298.554	7585
2300.557	7684
2302.562	7698
2304.566	7694
2306.568	7724
2308.569	7739
2310.572	7733
2312.573	7699
2314.573	7664
2316.574	7599
2318.573	7685
2320.571	7735
2322.571	7691
2324.569	7578
2326.567	7737
2328.564	7717
2330.56	7550
2332.556	7658
2334.551	7604
2336.546	7646
2338.542	7589
2340.535	7702
2342.529	7668
2344.521	7561
2346.512	7615
2348.505	7609
2350.497	7643
2352.487	7593
2354.478	7490
2356.468	7651
2358.457	7496
2360.446	7467
2362.434	7553
2364.422	7644
2366.408	7539
2368.395	7451
2370.383	7612
2372.369	7450
2374.353	7612
2376.338	7408
2378.321	7482
2380.307	7525
2382.29	7596
2384.272	7593
2386.254	7446
2388.235	7465
2390.218	7549
2392.198	7481
2394.179	7553
2396.157	7543
2398.137	7458
2400.115	7575
2402.095	7482
2404.072	7507
2406.048	7500
2408.026	7449
2410.001	7470
2411.977	7423
2413.953	7411
2415.927	7517
2417.9	7564
2419.875	7515
2421.847	7482
2423.821	7550
2425.792	7474
2427.763	7486
2429.736	7366
2431.706	7497
2433.677	7417
2435.646	7441
2437.615	7445
2439.583	7574
2441.551	7470
2443.519	7414
2445.486	7415
2447.452	7662
2449.418	7574
2451.383	7466
2453.348	7492
2455.314	7423
2457.278	7477
2459.241	7493
2461.205	7529
2463.167	7445
2465.131	7401
2467.091	7407
2469.052	7401
2471.012	7547
2472.972	7436
2474.932	7512
2476.891	7466
2478.85	7508
2480.808	7281
2482.766	7395
2484.722	7343
2486.68	7365
2488.636	7256
2490.591	7386
2492.546	7368
2494.5	7377
2496.456	7402
2498.41	7419
2500.362	7462
2502.315	7397
2504.266	7391
2506.218	7441
2508.169	7335
2510.121	7348
2512.07	7322
2514.019	7283
2515.968	7332
2517.918	7380
2519.866	7421
2521.813	7275
2523.76	7297
2525.707	7337
2527.653	7321
2529.599	7386
2531.543	7353
2533.489	7288
2535.433	7296
2537.376	7210
2539.32	7390
2541.264	7318
2543.205	7370
2545.147	7270
2547.087	7463
2549.029	7339
2550.969	7403
2552.908	7398
2554.847	7274
2556.786	7311
2558.724	7363
2560.663	7372
2562.6	7346
2564.537	7414
2566.473	7376
2568.408	7293
2570.345	7408
2572.28	7371
2574.214	7326
2576.148	7345
2578.081	7324
2580.014	7439
2581.947	7270
2583.879	7376
2585.81	7394
2587.741	7379
2589.67	7331
2591.602	7321
2593.532	7297
2595.461	7299
2597.388	7379
2599.316	7480
2601.244	7347
2603.172	7370
2605.098	7340
2607.023	7355
2608.949	7480
2610.873	7420
2612.8	7427
2614.723	7370
2616.647	7304
2618.569	7377
2620.493	7424
2622.416	7443
2624.338	7377
2626.258	7345
2628.179	7319
2630.099	7436
2632.019	7515
2633.939	7378
2635.857	7426
2637.775	7442
2639.694	7329
2641.61	7403
2643.528	7374
2645.444	7461
2647.361	7265
2649.276	7342
2651.19	7347
2653.105	7460
2655.019	7374
2656.934	7477
2658.846	7386
2660.758	7330
2662.67	7326
2664.583	7359
2666.493	7378
2668.404	7287
2670.313	7304
2672.223	7387
2674.134	7445
2676.042	7375
2677.95	7292
2679.858	7313
2681.765	7316
2683.673	7291
2685.579	7311
2687.483	7285
2689.389	7275
2691.294	7132
2693.198	7202
2695.104	7291
2697.006	7343
2698.909	7184
2700.811	7384
2702.713	7250
2704.615	7300
2706.516	7260
2708.417	7250
2710.316	7333
2712.216	7272
2714.115	7304
2716.014	7298
2717.913	7247
2719.81	7194
2721.707	7254
2723.603	7213
2725.501	7189
2727.396	7195
2729.292	7317
2731.186	7235
2733.081	7159
2734.976	7145
2736.87	7316
2738.762	7251
2740.653	7154
2742.546	7310
2744.437	7208
2746.329	7255
2748.22	7219
2750.11	7254
2751.999	7250
2753.889	7181
2755.778	7232
2757.666	7319
2759.553	7240
2761.44	7222
2763.328	7211
2765.215	7137
2767.101	7168
2768.986	7229
2770.87	7181
2772.754	7166
2774.638	7232
2776.523	7288
2778.405	7199
2780.288	7183
2782.17	7221
2784.051	7273
2785.934	7084
2787.814	7180
2789.694	7156
2791.574	7101
2793.453	7103
2795.332	7122
2797.212	7211
2799.088	7176
2800.966	7184
2802.843	7182
2804.719	7187
2806.597	7148
2808.471	7079
2810.346	7267
2812.221	7161
2814.094	7128
2815.969	7182
2817.843	7171
2819.714	7109
2821.587	7168
2823.459	7103
2825.329	7181
2827.202	7112
2829.072	7119
2830.942	7119
2832.811	7149
2834.68	7207
2836.549	7050
2838.418	7147
2840.284	7122
2842.152	7100
2844.018	7101
2845.885	7011
2847.751	7251
2849.616	7153
2851.482	7209
2853.345	7231
2855.208	7226
2857.074	7211
2858.937	7151
2860.799	7200
2862.66	7252
2864.522	7191
2866.385	7190
2868.245	7410
2870.104	7406
2871.964	7436
2873.824	7392
2875.683	7477
2877.542	7590
2879.4	7524
2881.257	7595
2883.114	7614
2884.97	7683
2886.827	7575
2888.683	7672
2890.537	7626
2892.392	7562
2894.246	7644
2896.1	7543
2897.954	7585
2899.807	7427
2901.66	7535
2903.51	7574
2905.362	7571
2907.214	7565
2909.065	7582
2910.915	7652
2912.765	7644
2914.613	7702
2916.463	7786
2918.311	7876
2920.158	7853
2922.006	7971
2923.853	7991
2925.698	7986
2927.546	8194
2929.392	8225
2931.236	8323
2933.081	8276
2934.924	8354
2936.77	8291
2938.613	8404
2940.455	8429
2942.298	8437
2944.139	8499
2945.982	8461
2947.823	8353
2949.662	8376
2951.503	8389
2953.342	8210
2955.182	8115
2957.021	8064
2958.858	8232
2960.697	7876
2962.534	7999
2964.37	7906
2966.207	7889
2968.044	7736
2969.879	7738
2971.714	7713
2973.548	7742
2975.383	7859
2977.218	7680
2979.051	7687
2980.883	7744
2982.715	7610
2984.547	7577
2986.379	7683
2988.21	7604
2990.04	7523
2991.87	7474
2993.7	7456
2995.53	7542
2997.359	7413
2999.187	7374
3001.015	7384
3002.842	7228
3004.669	7251
3006.497	7144
3008.323	7070
3010.148	7088
3011.974	7023
3013.797	7103
3015.623	7033
3017.447	7028
3019.27	7121
3021.094	6907
3022.915	7029
3024.737	6846
3026.56	6877
3028.38	6847
3030.201	6838
3032.022	6872
3033.84	6902
3035.662	6834
3037.481	6809
3039.298	6876
3041.117	6778
3042.933	6904
3044.752	6824
3046.568	6813
3048.385	6770
3050.2	6885
3052.016	6882
3053.83	6796
3055.646	6843
3057.46	6717
3059.272	6878
3061.086	6776
3062.898	6773
3064.711	6697
3066.524	6866
3068.335	6785
3070.145	6747
3071.956	6794
3073.766	6728
3075.576	6773
3077.385	6661
3079.193	6723
3081.002	6654
3082.81	6753
3084.618	6565
3086.425	6663
3088.231	6717
3090.036	6522
3091.842	6700
3093.648	6654
3095.452	6562
3097.257	6621
3099.06	6584
3100.863	6564
3102.666	6712
3104.47	6560
3106.272	6534
3108.073	6649
3109.875	6482
3111.676	6636
3113.477	6579
3115.277	6498
3117.077	6535
3118.874	6535
3120.673	6475
3122.473	6440
3124.271	6484
3126.066	6551
3127.863	6472
3129.66	6461
3131.456	6578
3133.252	6580
3135.047	6509
3136.842	6535
3138.635	6522
3140.429	6501
3142.223	6482
3144.016	6554
3145.808	6481
3147.6	6503
3149.392	6520
3151.183	6507
3152.975	6488
3154.765	6415
3156.553	6484
3158.344	6419
3160.132	6434
3161.922	6437
3163.71	6379
3165.497	6561
3167.285	6414
3169.071	6426
3170.858	6270
3172.645	6497
3174.429	6375
3176.214	6364
3177.998	6398
3179.783	6358
3181.568	6395
3183.351	6440
3185.133	6445
3186.915	6352
3188.698	6332
3190.481	6396
3192.261	6337
3194.042	6448
3195.822	6292
3197.601	6341
3199.381	6295
3201.161	6375
3202.939	6339
3204.717	6349
3206.495	6282
3208.272	6287
3210.05	6273
3211.826	6417
3213.602	6370
3215.376	6242
3217.151	6277
3218.927	6344
3220.702	6365
3222.476	6287
3224.249	6287
3226.021	6259
3227.793	6237
3229.567	6388
3231.339	6350
3233.109	6275
3234.88	6393
3236.651	6318
3238.421	6270
3240.191	6446
3241.96	6372
3243.728	6409
3245.497	6336
3247.263	6256
3249.033	6328
3250.799	6554
3252.566	6204
3254.331	6475
3256.097	6265
3257.863	6272
3259.628	6404
3261.392	6347
3263.156	6330
3264.919	6386
3266.683	6322
3268.447	6278
3270.208	6231
3271.969	6254
3273.731	6305
3275.492	6297
3277.253	6239
3279.013	6334
3280.773	6212
3282.532	6351
3284.291	6290
3286.05	6408
3287.808	6177
3289.566	6472
3291.323	6261
3293.079	6390
3294.835	6298
3296.593	6377
3298.348	6355
3300.102	6376
3301.857	6396
3303.611	6368
3305.366	6317
3307.119	6293
3308.872	6302
3310.624	6250
3312.376	6448
3314.129	6267
3315.881	6259
3317.631	6153
3319.38	6362
3321.13	6387
3322.88	6285
3324.631	6252
3326.379	6167
3328.126	6367
3329.875	6352
3331.622	6242
3333.371	6325
3335.116	6184
3336.863	6318
3338.609	6295
3340.353	6375
3342.1	6234
3343.845	6303
3345.588	6261
3347.332	6239
3349.074	6305
3350.817	6194
3352.56	6173
3354.303	6236
3356.043	6155
3357.785	6189
3359.525	6218
3361.268	6235
3363.007	6179
3364.745	6149
3366.485	6126
3368.223	6197
3369.962	6077
3371.701	6182
3373.438	6137
3375.174	6186
3376.911	6062
3378.647	6199
3380.384	6100
3382.118	6183
3383.854	6070
3385.588	6210
3387.322	6220
3389.057	6198
3390.79	6224
3392.522	6020
3394.255	6202
3395.987	6226
3397.719	6146
3399.451	6003
3401.181	6216
3402.911	6052
3404.641	6188
3406.371	5974
3408.101	6124
3409.83	6086
3411.558	6067
3413.285	6105
3415.011	6064
3416.739	6114
3418.467	6045
3420.193	6046
3421.919	5993
3423.644	6087
3425.368	6146
3427.094	6039
3428.818	5973
3430.542	5937
3432.264	6030
3433.987	6059
3435.712	5917
3437.434	6019
3439.155	5978
3440.876	6010
3442.596	5922
3444.317	6094
3446.039	5985
3447.757	5844
3449.477	5949
3451.195	5899
3452.914	5883
3454.632	5909
3456.35	5926
3458.067	5848
3459.784	5947
3461.5	5868
3463.216	5946
3464.932	5833
3466.647	5824
3468.362	5857
3470.076	5850
3471.789	5867
3473.505	5887
3475.217	5809
3476.929	5817
3478.641	5920
3480.354	5817
3482.066	5869
3483.777	5779
3485.487	5758
3487.197	5841
3488.908	5750
3490.617	5847
3492.327	5767
3494.035	5712
3495.743	5741
3497.451	5699
3499.158	5778
3500.866	5767
3502.572	5629
3504.278	5622
3505.984	5691
3507.689	5658
3509.396	5645
3511.1	5691
3512.804	5686
3514.508	5710
3516.211	5617
3517.913	5740
3519.616	5590
3521.319	5712
3523.021	5746
3524.722	5604
3526.422	5617
3528.124	5589
3529.824	5602
3531.524	5581
3533.222	5565
3534.921	5603
3536.62	5618
3538.318	5624
3540.016	5703
3541.714	5621
3543.41	5717
3545.107	5541
3546.803	5652
3548.5	5589
3550.194	5570
3551.889	5599
3553.583	5534
3555.279	5623
3556.972	5538
3558.666	5548
3560.358	5489
3562.051	5529
3563.742	5499
3565.435	5639
3567.126	5515
3568.817	5639
3570.507	5482
3572.197	5480
3573.888	5636
3575.577	5487
3577.265	5454
3578.954	5519
3580.642	5494
3582.329	5422
3584.017	5395
3585.704	5479
3587.391	5392
3589.077	5448
3590.762	5416
3592.449	5455
3594.133	5450
3595.817	5470
3597.501	5434
3599.185	5462
3600.869	5521
3602.552	5403
3604.234	5331
3605.916	5459
3607.598	5368
3609.279	5331
3610.961	5384
3612.642	5333
3614.321	5304
3616	5385
3617.68	5335
3619.36	5284
3621.039	5260
3622.716	5308
3624.394	5376
3626.071	5275
3627.748	5354
3629.425	5254
3631.102	5214
3632.778	5226
3634.452	5247
3636.127	5220
3637.803	5257
3639.477	5239
3641.151	5188
3642.823	5106
3644.497	5285
3646.171	5222
3647.842	5286
3649.515	5247
3651.185	5155
3652.857	5103
3654.527	5225
3656.198	5170
3657.868	5187
3659.537	5186
3661.207	5161
3662.875	5146
3664.544	5142
3666.212	5170
3667.879	5169
3669.546	5218
3671.212	5025
3672.88	5158
3674.546	5170
3676.211	5187
3677.875	5148
3679.541	5112
3681.205	5154
3682.87	5112
3684.533	5084
3686.196	5066
3687.859	5080
3689.521	5190
3691.184	5034
3692.845	5088
3694.507	5156
3696.167	5204
3697.827	5041
3699.487	5129
3701.148	5174
3702.808	5041
3704.466	5062
3706.125	5131
3707.783	5117
3709.442	5102
3711.099	5145
3712.757	5078
3714.412	5055
3716.068	5041
3717.725	5048
3719.381	5112
3721.036	5080
3722.689	5081
3724.344	5068
3725.998	4968
3727.652	4984
3729.305	5034
3730.958	5018
3732.61	5079
3734.262	4927
3735.915	4914
3737.565	5028
3739.217	4943
3740.866	5003
3742.516	5019
3744.165	5044
3745.816	4915
3747.464	4922
3749.113	4983
3750.761	4914
3752.409	5019
3754.057	4920
3755.703	5007
3757.35	5013
3758.996	4941
3760.641	4968
3762.289	4971
3763.933	4968
3765.577	4904
3767.222	4896
3768.865	5018
3770.508	4938
3772.152	4959
3773.796	4988
3775.438	4986
3777.079	4851
3778.721	4882
3780.363	4854
3782.003	4925
3783.643	4969
3785.283	4893
3786.923	4844
3788.563	4900
3790.203	4979
3791.841	4830
3793.479	4834
3795.115	4794
3796.753	4858
3798.391	4753
3800.027	4770
3801.664	4888
3803.299	4798
3804.935	4792
3806.571	4847
3808.206	4793
3809.839	4849
3811.473	4819
3813.107	4866
3814.74	4823
3816.375	4841
3818.006	4766
3819.638	4786
3821.27	4853
3822.9	4720
3824.532	4870
3826.163	4760
3827.792	4658
3829.423	4665
3831.051	4759
3832.682	4685
3834.311	4715
3835.938	4748
3837.566	4661
3839.193	4778
3840.821	4725
3842.448	4824
3844.075	4712
3845.7	4752
3847.325	4778
3848.951	4698
3850.576	4657
3852.201	4580
3853.825	4705
3855.448	4732
3857.072	4632
3858.694	4677
3860.318	4691
3861.939	4631
3863.562	4641
3865.183	4605
3866.804	4585
3868.426	4662
3870.045	4766
3871.666	4785
3873.285	4677
3874.904	4674
3876.524	4547
3878.142	4515
3879.76	4591
3881.378	4595
3882.995	4607
3884.612	4655
3886.229	4544
3887.845	4613
3889.461	4665
3891.076	4692
3892.691	4638
3894.307	4691
3895.922	4644
3897.536	4521
3899.149	4625
3900.761	4605
3902.374	4564
3903.988	4552
3905.6	4626
3907.212	4592
3908.822	4617
3910.433	4524
3912.045	4653
3913.655	4615
3915.265	4558
3916.875	4492
3918.483	4559
3920.093	4565
3921.702	4655
3923.309	4549
3924.917	4518
3926.523	4552
3928.13	4754
3929.739	4542
3931.344	4476
3932.95	4534
3934.555	4499
3936.159	4633
3937.766	4458
3939.369	4492
3940.974	4497
3942.577	4554
3944.181	4543
3945.783	4441
3947.386	4538
3948.989	4391
3950.59	4451
3952.191	4497
3953.791	4451
3955.394	4522
3956.994	4495
3958.593	4524
3960.192	4436
3961.791	4558
3963.392	4453
3964.99	4479
3966.588	4510
3968.185	4392
3969.782	4458
3971.379	4450
3972.976	4389
3974.572	4455
3976.168	4402
3977.763	4358
3979.358	4379
3980.954	4464
3982.548	4491
3984.142	4426
3985.736	4391
3987.329	4362
3988.922	4390
3990.516	4413
3992.108	4311
3993.698	4436
3995.29	4434
3996.881	4405
3998.473	4426
4000.064	4401
4001.653	4321
4003.242	4387
4004.832	4323
4006.422	4308
4008.01	4296
4009.598	4276
4011.186	4356
4012.773	4301
4014.36	4278
4015.947	4227
4017.534	4317
4019.119	4229
4020.705	4264
4022.291	4286
4023.876	4240
4025.461	4279
4027.044	4304
4028.627	4305
4030.211	4172
4031.795	4327
4033.378	4263
4034.96	4193
4036.542	4271
4038.124	4118
4039.704	4271
4041.286	4190
4042.867	4097
4044.447	4235
4046.026	4195
4047.606	4120
4049.187	4156
4050.765	4261
4052.343	4266
4053.92	4179
4055.498	4186
4057.076	4221
4058.654	4245
4060.23	4160
4061.806	4219
4063.381	4168
4064.957	4179
4066.533	4134
4068.107	4222
4069.682	4160
4071.256	4088
4072.829	4127
4074.404	4112
4075.977	4146
4077.549	4036
4079.121	4092
4080.693	4118
4082.265	4126
4083.836	4030
4085.407	4118
4086.977	4032
4088.547	4104
4090.117	4035
4091.687	4085
4093.256	4077
4094.825	4071
4096.392	4036
4097.96	4115
4099.528	4103
4101.097	4163
4102.663	4096
4104.229	4000
4105.795	4071
4107.361	4079
4108.928	4089
4110.493	4096
4112.058	4046
4113.621	4009
4115.186	4023
4116.75	3972
4118.313	4064
4119.876	4112
4121.438	4047
4123	3990
4124.562	3947
4126.125	3975
4127.686	3918
4129.246	4046
4130.807	3930
4132.367	3985
4133.927	4029
4135.486	3903
4137.046	4032
4138.604	3920
4140.162	3906
4141.72	4025
4143.279	3961
4144.836	3904
4146.393	3955
4147.949	3848
4149.505	3870
4151.062	3956
4152.617	3897
4154.172	3921
4155.727	3961
4157.281	3850
4158.836	3909
4160.39	3908
4161.943	3869
4163.496	3899
4165.048	3936
4166.601	3851
4168.154	3901
4169.706	3852
4171.257	3946
4172.808	3923
4174.358	3964
4175.909	3910
4177.458	3804
4179.008	3880
4180.558	3845
4182.106	3775
4183.655	3846
4185.204	3871
4186.751	3939
4188.298	3849
4189.845	3826
4191.392	3838
4192.939	3786
4194.485	3875
4196.031	3803
4197.576	3865
4199.121	3772
4200.666	3776
4202.211	3828
4203.754	3758
4205.298	3774
4206.84	3872
4208.384	3731
4209.927	3811
4211.47	3739
4213.011	3702
4214.552	3791
4216.094	3685
4217.635	3782
4219.175	3703
4220.716	3837
4222.255	3788
4223.793	3713
4225.335	3797
4226.873	3752
4228.411	3747
4229.948	3751
4231.486	3757
4233.024	3745
4234.562	3673
4236.098	3753
4237.634	3697
4239.169	3704
4240.705	3805
4242.241	3735
4243.776	3740
4245.31	3687
4246.844	3732
4248.378	3737
4249.911	3732
4251.445	3678
4252.978	3629
4254.51	3727
4256.042	3716
4257.574	3678
4259.107	3672
4260.638	3667
4262.169	3585
4263.699	3662
4265.228	3754
4266.759	3664
4268.289	3680
4269.818	3653
4271.345	3659
4272.874	3673
4274.402	3634
4275.931	3608
4277.458	3628
4278.985	3691
4280.512	3684
4282.037	3592
4283.564	3667
4285.089	3596
4286.615	3571
4288.139	3662
4289.664	3567
4291.187	3653
4292.712	3576
4294.235	3701
4295.759	3605
4297.281	3557
4298.804	3636
4300.327	3543
4301.849	3637
4303.37	3611
4304.891	3638
4306.412	3548
4307.933	3580
4309.453	3581
4310.973	3546
4312.492	3613
