398.1873	2876
400.7097	2857
403.2336	2828
405.7547	2883
408.2751	2835
410.7948	2836
413.3138	2908
415.83	2909
418.3497	2967
420.8666	2835
423.3829	2938
425.8985	2995
428.4133	3058
430.9275	2994
433.441	3085
435.9538	3007
438.4639	3080
440.9753	2977
443.4881	2998
445.9982	2943
448.5055	3039
451.0142	3048
453.5201	3092
456.0274	3042
458.5361	2971
461.04	2984
463.5453	3037
466.0478	2973
468.5517	3074
471.0549	2968
473.5574	3074
476.0572	3023
478.5584	3016
481.0568	3103
483.5545	3107
486.0557	3180
488.5521	3047
491.0478	3151
493.5449	3112
496.0392	3102
498.5349	3138
501.0299	3068
503.5222	3092
506.0139	3055
508.5048	3109
510.9991	3109
513.4887	3130
515.9777	3166
518.4659	3046
520.9534	3136
523.4403	3200
525.9306	3181
528.4161	3094
530.9009	3133
533.3851	3149
535.8687	3087
538.3535	3115
540.8356	3152
543.3171	3175
545.7979	3185
548.278	3140
550.7595	3123
553.2383	3110
555.7144	3094
558.1918	3165
560.6685	3179
563.1446	3171
565.6221	3229
568.0968	3232
570.5688	3241
573.0422	3350
575.515	3246
577.989	3246
580.4584	3243
582.9291	3275
585.3991	3216
587.8685	3257
590.3352	3247
592.8052	3229
595.2706	3258
597.7372	3220
600.2033	3192
602.6666	3262
605.1334	3272
607.5953	3222
610.0587	3281
612.5193	3275
614.9814	3245
617.4427	3317
619.9034	3179
622.3615	3289
624.8208	3187
627.2775	3111
629.7335	3198
632.1929	3212
634.6476	3235
637.1016	3322
639.5569	3187
642.0096	3310
644.4637	3252
646.9151	3282
649.3678	3254
651.8179	3222
654.2672	3319
656.7159	3220
659.166	3308
661.6154	3292
664.0622	3251
666.5082	3308
668.9537	3348
671.4005	3283
673.8445	3319
676.288	3343
678.7308	3334
681.1729	3308
683.6163	3290
686.0572	3354
688.4973	3332
690.9368	3326
693.3757	3338
695.8138	3416
698.2534	3407
700.6902	3393
703.1245	3311
705.56	3350
707.9949	3494
710.4311	3411
712.8647	3405
715.2957	3448
717.7279	3435
720.1595	3343
722.5905	3405
725.0208	3366
727.4505	3467
729.8795	3477
732.3058	3483
734.7336	3453
737.1626	3505
739.587	3480
742.0128	3496
744.4359	3433
746.8604	3496
749.2841	3473
751.7073	3549
754.1278	3550
756.5496	3543
758.9688	3543
761.3893	3659
763.8093	3484
766.2285	3560
768.6451	3584
771.0611	3548
773.4784	3520
775.895	3544
778.3091	3599
780.7244	3647
783.1371	3539
785.5493	3629
787.9626	3484
790.3754	3606
792.7856	3622
795.1951	3514
797.6039	3578
800.0121	3562
802.4236	3568
804.8306	3554
807.2369	3556
809.6425	3599
812.0475	3585
814.4538	3542
816.8575	3640
819.2606	3599
821.663	3695
824.0648	3588
826.4659	3668
828.8683	3682
831.2682	3612
833.6674	3678
836.066	3604
838.4639	3639
840.8632	3641
843.2579	3684
845.6539	3676
848.0493	3636
850.444	3714
852.84	3757
855.2315	3660
857.6243	3795
860.0165	3618
862.4081	3713
864.797	3607
867.1892	3737
869.5789	3698
871.9659	3714
874.3542	3714
876.74	3664
879.129	3675
881.5155	3666
883.8994	3737
886.2845	3612
888.6671	3654
891.051	3644
893.4343	3678
895.8169	3635
898.197	3657
900.5783	3628
902.9571	3734
905.3372	3703
907.7167	3706
910.0936	3712
912.4698	3706
914.8474	3779
917.2244	3744
919.5987	3730
921.9744	3785
924.3475	3823
926.72	3800
929.0918	3831
931.4669	3865
933.8375	3847
936.2074	3826
938.5767	3858
940.9454	3946
943.3154	3991
945.6829	3955
948.0497	4142
950.4178	4111
952.7833	4326
955.1483	4286
957.5145	4438
959.8782	4487
962.2412	4424
964.6036	4449
966.9655	4299
969.3266	4172
971.6871	4123
974.0471	3932
976.4064	3894
978.765	3821
981.125	3831
983.4824	3795
985.8373	3852
988.1935	3777
990.549	3826
992.9039	3736
995.2602	3853
997.6119	3870
999.965	3904
1002.317	3838
1004.667	3762
1007.02	3836
1009.371	3853
1011.719	3783
1014.068	3860
1016.415	3824
1018.765	3835
1021.111	3736
1023.458	3936
1025.804	3827
1028.147	3825
1030.49	3841
1032.837	3840
1035.179	3892
1037.522	3812
1039.862	3850
1042.204	3914
1044.546	3908
1046.884	3971
1049.224	3855
1051.562	3929
1053.899	3943
1056.237	3865
1058.575	3800
1060.91	3912
1063.244	4017
1065.58	3965
1067.913	3992
1070.248	3980
1072.579	3970
1074.911	4061
1077.242	3944
1079.572	3931
1081.905	3936
1084.234	3902
1086.562	3952
1088.89	4005
1091.217	3898
1093.544	3926
1095.871	3969
1098.197	4008
1100.521	3938
1102.845	3888
1105.169	3938
1107.491	3987
1109.814	4052
1112.135	3969
1114.456	3959
1116.776	3975
1119.096	3925
1121.415	3983
1123.734	3854
1126.052	3981
1128.369	3951
1130.686	3981
1133.002	3924
1135.318	3963
1137.632	3954
1139.945	3968
1142.258	3914
1144.573	3995
1146.884	3960
1149.196	3959
1151.505	4024
1153.816	3964
1156.124	3943
1158.435	3989
1160.742	4007
1163.051	3971
1165.356	4020
1167.663	3986
1169.97	4009
1172.276	3944
1174.579	3959
1176.881	3894
1179.186	3995
1181.487	3930
1183.79	3970
1186.092	3988
1188.392	3877
1190.691	4087
1192.991	3933
1195.291	3867
1197.588	3935
1199.885	4021
1202.181	3971
1204.479	3858
1206.775	4000
1209.07	4020
1211.363	3972
1213.656	3874
1215.949	3941
1218.241	3931
1220.534	4014
1222.825	3915
1225.115	4008
1227.405	4024
1229.693	4032
1231.984	4029
1234.271	4059
1236.558	3999
1238.845	4028
1241.131	4136
1243.416	4056
1245.703	4115
1247.987	4072
1250.269	4083
1252.552	4059
1254.834	4158
1257.118	4082
1259.399	4181
1261.678	4004
1263.958	4072
1266.237	4054
1268.516	4180
1270.794	4101
1273.072	4167
1275.347	4038
1277.624	4034
1279.899	4138
1282.175	3967
1284.449	4089
1286.722	4080
1288.995	4096
1291.266	4054
1293.54	4132
1295.81	4068
1298.081	4098
1300.35	4059
1302.62	4053
1304.889	4171
1307.156	4039
1309.425	4114
1311.69	4050
1313.957	4006
1316.222	4024
1318.488	4088
1320.751	4068
1323.016	4030
1325.278	4054
1327.54	4106
1329.803	4067
1332.065	4030
1334.325	4055
1336.584	4081
1338.843	4080
1341.101	4009
1343.36	4073
1345.617	4106
1347.876	4076
1350.131	4037
1352.387	4038
1354.643	4133
1356.897	4110
1359.151	4015
1361.403	4130
1363.656	4067
1365.909	4127
1368.16	4082
1370.409	3987
1372.659	4057
1374.909	4228
1377.157	4093
1379.407	4157
1381.655	4085
1383.9	4052
1386.147	4143
1388.393	4090
1390.64	4139
1392.885	4206
1395.127	4067
1397.37	4191
1399.614	4171
1401.854	4180
1404.098	4075
1406.339	4226
1408.578	4062
1410.818	4154
1413.056	4107
1415.297	4149
1417.533	4129
1419.771	4136
1422.006	4211
1424.243	4202
1426.479	4180
1428.715	4108
1430.948	4230
1433.182	4237
1435.414	4204
1437.647	4183
1439.88	4232
1442.11	4229
1444.342	4250
1446.571	4194
1448.799	4145
1451.029	4241
1453.258	4301
1455.485	4284
1457.711	4199
1459.937	4258
1462.164	4256
1464.39	4225
1466.614	4231
1468.838	4161
1471.06	4172
1473.283	4216
1475.506	4137
1477.727	4125
1479.949	4174
1482.169	4134
1484.389	4214
1486.609	4147
1488.828	4217
1491.045	4152
1493.261	4084
1495.477	4117
1497.693	4132
1499.91	4092
1502.125	4130
1504.339	4172
1506.553	4123
1508.766	4171
1510.979	4185
1513.191	4198
1515.402	4067
1517.613	4187
1519.823	3963
1522.033	4141
1524.242	4222
1526.451	4177
1528.657	4144
1530.865	4106
1533.072	4152
1535.278	4098
1537.484	4160
1539.687	4062
1541.892	4130
1544.096	4123
1546.299	4102
1548.502	4204
1550.703	4154
1552.905	4217
1555.104	4192
1557.303	4284
1559.505	4121
1561.703	4196
1563.902	4227
1566.099	4260
1568.295	4261
1570.494	4214
1572.689	4232
1574.883	4206
1577.079	4195
1579.272	4280
1581.467	4268
1583.659	4342
1585.853	4283
1588.044	4199
1590.234	4254
1592.424	4293
1594.615	4263
1596.806	4205
1598.994	4389
1601.182	4242
1603.369	4269
1605.557	4289
1607.744	4381
1609.929	4283
1612.114	4246
1614.298	4327
1616.482	4209
1618.667	4316
1620.85	4244
1623.032	4297
1625.214	4317
1627.395	4357
1629.575	4265
1631.755	4374
1633.935	4384
1636.114	4350
1638.292	4407
1640.471	4298
1642.647	4387
1644.823	4399
1647	4331
1649.175	4388
1651.348	4306
1653.525	4319
1655.698	4387
1657.87	4347
1660.043	4411
1662.213	4369
1664.387	4313
1666.558	4411
1668.727	4378
1670.896	4360
1673.064	4375
1675.233	4390
1677.401	4352
1679.569	4314
1681.735	4353
1683.902	4383
1686.066	4353
1688.233	4354
1690.397	4342
1692.559	4454
1694.723	4360
1696.885	4246
1699.048	4342
1701.21	4373
1703.37	4330
1705.53	4273
1707.689	4284
1709.849	4399
1712.009	4299
1714.166	4324
1716.323	4267
1718.479	4272
1720.634	4368
1722.793	4298
1724.948	4201
1727.102	4386
1729.255	4333
1731.408	4374
1733.562	4344
1735.714	4312
1737.865	4232
1740.016	4347
1742.166	4302
1744.316	4302
1746.467	4377
1748.616	4302
1750.764	4290
1752.911	4239
1755.056	4331
1757.205	4332
1759.35	4339
1761.496	4437
1763.641	4294
1765.785	4317
1767.927	4470
1770.072	4269
1772.214	4397
1774.355	4408
1776.496	4300
1778.637	4411
1780.778	4385
1782.918	4402
1785.057	4382
1787.194	4313
1789.333	4321
1791.472	4388
1793.608	4403
1795.745	4311
1797.879	4407
1800.015	4458
1802.148	4372
1804.284	4333
1806.417	4374
1808.548	4405
1810.682	4303
1812.812	4422
1814.946	4434
1817.075	4389
1819.205	4417
1821.335	4408
1823.463	4410
1825.59	4457
1827.721	4357
1829.847	4367
1831.973	4399
1834.098	4396
1836.223	4369
1838.351	4347
1840.475	4302
1842.598	4331
1844.721	4454
1846.843	4312
1848.966	4321
1851.087	4341
1853.21	4343
1855.33	4324
1857.449	4336
1859.568	4302
1861.688	4350
1863.806	4355
1865.924	4334
1868.039	4382
1870.155	4319
1872.273	4307
1874.388	4287
1876.503	4357
1878.617	4308
1880.73	4353
1882.844	4377
1884.956	4406
1887.068	4349
1889.18	4328
1891.291	4339
1893.4	4423
1895.511	4412
1897.621	4363
1899.73	4381
1901.837	4392
1903.944	4426
1906.053	4403
1908.159	4504
1910.265	4374
1912.369	4475
1914.474	4403
1916.577	4424
1918.683	4397
1920.785	4351
1922.888	4401
1924.989	4432
1927.091	4391
1929.193	4492
1931.294	4311
1933.393	4457
1935.493	4428
1937.59	4470
1939.689	4449
1941.788	4495
1943.884	4417
1945.98	4451
1948.077	4449
1950.171	4380
1952.267	4536
1954.361	4509
1956.455	4431
1958.548	4446
1960.64	4410
1962.733	4433
1964.824	4411
1966.915	4347
1969.005	4410
1971.096	4439
1973.185	4387
1975.275	4437
1977.363	4408
1979.45	4451
1981.537	4448
1983.623	4431
1985.711	4439
1987.796	4511
1989.881	4342
1991.965	4536
1994.047	4433
1996.132	4454
1998.215	4420
2000.297	4411
2002.378	4556
2004.46	4370
2006.54	4469
2008.62	4428
2010.7	4448
2012.779	4476
2014.858	4459
2016.934	4397
2019.013	4393
2021.09	4455
2023.165	4451
2025.241	4417
2027.317	4441
2029.39	4425
2031.466	4433
2033.538	4488
2035.612	4549
2037.683	4401
2039.755	4460
2041.827	4506
2043.898	4414
2045.968	4478
2048.038	4444
2050.106	4496
2052.177	4453
2054.244	4452
2056.313	4507
2058.379	4454
2060.444	4421
2062.511	4497
2064.577	4466
2066.641	4449
2068.705	4481
2070.77	4419
2072.832	4409
2074.896	4454
2076.958	4554
2079.02	4490
2081.081	4505
2083.141	4394
2085.2	4412
2087.261	4501
2089.319	4486
2091.377	4418
2093.435	4498
2095.492	4521
2097.552	4486
2099.607	4420
2101.663	4476
2103.718	4491
2105.771	4491
2107.826	4463
2109.879	4452
2111.932	4402
2113.985	4432
2116.037	4509
2118.088	4563
2120.141	4574
2122.191	4529
2124.239	4512
2126.288	4547
2128.337	4465
2130.387	4459
2132.434	4522
2134.481	4554
2136.528	4388
2138.574	4414
2140.618	4408
2142.665	4413
2144.71	4452
2146.753	4513
2148.797	4520
2150.838	4453
2152.883	4367
2154.923	4439
2156.965	4445
2159.007	4466
2161.046	4524
2163.086	4410
2165.126	4540
2167.163	4387
2169.202	4422
2171.239	4402
2173.277	4474
2175.314	4450
2177.349	4366
2179.385	4491
2181.42	4389
2183.453	4465
2185.49	4343
2187.522	4339
2189.555	4371
2191.586	4441
2193.619	4369
2195.651	4414
2197.682	4363
2199.711	4404
2201.74	4404
2203.769	4408
2205.799	4372
2207.828	4388
2209.855	4346
2211.882	4387
2213.908	4432
2215.934	4376
2217.961	4363
2219.986	4364
2222.01	4375
2224.034	4352
2226.057	4386
2228.08	4313
2230.104	4390
2232.124	4386
2234.145	4405
2236.166	4351
2238.186	4352
2240.207	4392
2242.227	4428
2244.244	4381
2246.262	4345
2248.28	4407
2250.299	4340
2252.314	4393
2254.33	4359
2256.346	4319
2258.36	4346
2260.375	4440
2262.391	4375
2264.403	4429
2266.416	4410
2268.427	4410
2270.44	4407
2272.453	4456
2274.463	4471
2276.474	4335
2278.483	4452
2280.493	4381
2282.501	4407
2284.51	4483
2286.518	4366
2288.524	4381
2290.532	4487
2292.537	4445
2294.544	4398
2296.55	4431
2298.554	4361
2300.557	4431
2302.562	4395
2304.566	4421
2306.568	4469
2308.569	4447
2310.572	4383
2312.573	4337
2314.573	4424
2316.574	4318
2318.573	4313
2320.571	4474
2322.571	4444
2324.569	4324
2326.567	4405
2328.564	4435
2330.56	4279
2332.556	4322
2334.551	4332
2336.546	4447
2338.542	4390
2340.535	4285
2342.529	4368
2344.521	4347
2346.512	4328
2348.505	4377
2350.497	4364
2352.487	4292
2354.478	4268
2356.468	4333
2358.457	4329
2360.446	4319
2362.434	4363
2364.422	4394
2366.408	4325
2368.395	4355
2370.383	4281
2372.369	4253
2374.353	4395
2376.338	4294
2378.321	4322
2380.307	4280
2382.29	4295
2384.272	4204
2386.254	4337
2388.235	4346
2390.218	4297
2392.198	4430
2394.179	4282
2396.157	4297
2398.137	4354
2400.115	4339
2402.095	4244
2404.072	4417
2406.048	4285
2408.026	4315
2410.001	4265
2411.977	4248
2413.953	4340
2415.927	4313
2417.9	4274
2419.875	4338
2421.847	4274
2423.821	4249
2425.792	4246
2427.763	4291
2429.736	4377
2431.706	4284
2433.677	4306
2435.646	4338
2437.615	4332
2439.583	4332
2441.551	4344
2443.519	4368
2445.486	4295
2447.452	4314
2449.418	4321
2451.383	4305
2453.348	4284
2455.314	4320
2457.278	4193
2459.241	4223
2461.205	4228
2463.167	4335
2465.131	4199
2467.091	4388
2469.052	4295
2471.012	4260
2472.972	4256
2474.932	4230
2476.891	4269
2478.85	4269
2480.808	4194
2482.766	4343
2484.722	4267
2486.68	4307
2488.636	4297
2490.591	4306
2492.546	4261
2494.5	4301
2496.456	4211
2498.41	4276
2500.362	4365
2502.315	4232
2504.266	4349
2506.218	4248
2508.169	4243
2510.121	4285
2512.07	4270
2514.019	4232
2515.968	4265
2517.918	4289
2519.866	4333
2521.813	4260
2523.76	4207
2525.707	4214
2527.653	4267
2529.599	4283
2531.543	4261
2533.489	4260
2535.433	4217
2537.376	4147
2539.32	4220
2541.264	4314
2543.205	4194
2545.147	4215
2547.087	4245
2549.029	4307
2550.969	4249
2552.908	4165
2554.847	4251
2556.786	4289
2558.724	4268
2560.663	4214
2562.6	4205
2564.537	4264
2566.473	4215
2568.408	4239
2570.345	4228
2572.28	4236
2574.214	4225
2576.148	4245
2578.081	4253
2580.014	4268
2581.947	4207
2583.879	4321
2585.81	4225
2587.741	4218
2589.67	4230
2591.602	4260
2593.532	4255
2595.461	4308
2597.388	4289
2599.316	4279
2601.244	4322
2603.172	4200
2605.098	4261
2607.023	4298
2608.949	4280
2610.873	4207
2612.8	4324
2614.723	4244
2616.647	4227
2618.569	4288
2620.493	4341
2622.416	4303
2624.338	4254
2626.258	4252
2628.179	4232
2630.099	4261
2632.019	4287
2633.939	4336
2635.857	4248
2637.775	4257
2639.694	4286
2641.61	4268
2643.528	4219
2645.444	4264
2647.361	4302
2649.276	4312
2651.19	4223
2653.105	4232
2655.019	4288
2656.934	4294
2658.846	4264
2660.758	4273
2662.67	4227
2664.583	4263
2666.493	4239
2668.404	4310
2670.313	4346
2672.223	4272
2674.134	4264
2676.042	4303
2677.95	4250
2679.858	4304
2681.765	4278
2683.673	4239
2685.579	4273
2687.483	4160
2689.389	4256
2691.294	4220
2693.198	4182
2695.104	4236
2697.006	4267
2698.909	4200
2700.811	4260
2702.713	4281
2704.615	4269
2706.516	4112
2708.417	4282
2710.316	4187
2712.216	4168
2714.115	4179
2716.014	4227
2717.913	4141
2719.81	4167
2721.707	4195
2723.603	4167
2725.501	4230
2727.396	4150
2729.292	4206
2731.186	4285
2733.081	4209
2734.976	4108
2736.87	4263
2738.762	4173
2740.653	4215
2742.546	4344
2744.437	4167
2746.329	4245
2748.22	4153
2750.11	4180
2751.999	4204
2753.889	4196
2755.778	4168
2757.666	4204
2759.553	4172
2761.44	4194
2763.328	4137
2765.215	4230
2767.101	4145
2768.986	4141
2770.87	4209
2772.754	4162
2774.638	4116
2776.523	4240
2778.405	4203
2780.288	4179
2782.17	4220
2784.051	4177
2785.934	4126
2787.814	4219
2789.694	4194
2791.574	4214
2793.453	4133
2795.332	4184
2797.212	4151
2799.088	4127
2800.966	4152
2802.843	4202
2804.719	4130
2806.597	4130
2808.471	4215
2810.346	4184
2812.221	4116
2814.094	4130
2815.969	4140
2817.843	4132
2819.714	4148
2821.587	4159
2823.459	4095
2825.329	4091
2827.202	4145
2829.072	4091
2830.942	4189
2832.811	4179
2834.68	4126
2836.549	4192
2838.418	4074
2840.284	4180
2842.152	4151
2844.018	4239
2845.885	4271
2847.751	4193
2849.616	4181
2851.482	4187
2853.345	4187
2855.208	4156
2857.074	4175
2858.937	4109
2860.799	4112
2862.66	4337
2864.522	4252
2866.385	4179
2868.245	4292
2870.104	4185
2871.964	4284
2873.824	4243
2875.683	4256
2877.542	4305
2879.4	4332
2881.257	4358
2883.114	4302
2884.97	4270
2886.827	4375
2888.683	4230
2890.537	4485
2892.392	4318
2894.246	4351
2896.1	4241
2897.954	4298
2899.807	4314
2901.66	4302
2903.51	4248
2905.362	4255
2907.214	4347
2909.065	4360
2910.915	4379
2912.765	4391
2914.613	4361
2916.463	4494
2918.311	4439
2920.158	4385
2922.006	4430
2923.853	4383
2925.698	4523
2927.546	4632
2929.392	4503
2931.236	4540
2933.081	4587
2934.924	4594
2936.77	4639
2938.613	4629
2940.455	4647
2942.298	4658
2944.139	4718
2945.982	4692
2947.823	4605
2949.662	4609
2951.503	4659
2953.342	4523
2955.182	4643
2957.021	4512
2958.858	4459
2960.697	4464
2962.534	4480
2964.37	4445
2966.207	4476
2968.044	4354
2969.879	4434
2971.714	4423
2973.548	4398
2975.383	4371
2977.218	4274
2979.051	4324
2980.883	4303
2982.715	4408
2984.547	4394
2986.379	4316
2988.21	4307
2990.04	4318
2991.87	4240
2993.7	4255
2995.53	4347
2997.359	4308
2999.187	4253
3001.015	4134
3002.842	4199
3004.669	4196
3006.497	4049
3008.323	4078
3010.148	4054
3011.974	4120
3013.797	4080
3015.623	4020
3017.447	4076
3019.27	4128
3021.094	4101
3022.915	4045
3024.737	4082
3026.56	4009
3028.38	4064
3030.201	3973
3032.022	3973
3033.84	3938
3035.662	3976
3037.481	4022
3039.298	4034
3041.117	3951
3042.933	4026
3044.752	4001
3046.568	3949
3048.385	3997
3050.2	3952
3052.016	4001
3053.83	4031
3055.646	3931
3057.46	3966
3059.272	3945
3061.086	4024
3062.898	4011
3064.711	3863
3066.524	3969
3068.335	3954
3070.145	4061
3071.956	4024
3073.766	4020
3075.576	3981
3077.385	3960
3079.193	3900
3081.002	3950
3082.81	3888
3084.618	3899
3086.425	3864
3088.231	3981
3090.036	3878
3091.842	3936
3093.648	3937
3095.452	3897
3097.257	3828
3099.06	3925
3100.863	3860
3102.666	3839
3104.47	3893
3106.272	3912
3108.073	3953
3109.875	3884
3111.676	3855
3113.477	3914
3115.277	3831
3117.077	3887
3118.874	3862
3120.673	3849
3122.473	3798
3124.271	3784
3126.066	3810
3127.863	3813
3129.66	3799
3131.456	3839
3133.252	3797
3135.047	3826
3136.842	3803
3138.635	3770
3140.429	3913
3142.223	3854
3144.016	3807
3145.808	3820
3147.6	3783
3149.392	3828
3151.183	3749
3152.975	3821
3154.765	3803
3156.553	3768
3158.344	3796
3160.132	3731
3161.922	3755
3163.71	3885
3165.497	3874
3167.285	3775
3169.071	3759
3170.858	3775
3172.645	3829
3174.429	3807
3176.214	3735
3177.998	3783
3179.783	3862
3181.568	3655
3183.351	3784
3185.133	3758
3186.915	3756
3188.698	3777
3190.481	3728
3192.261	3683
3194.042	3708
3195.822	3671
3197.601	3858
3199.381	3704
3201.161	3839
3202.939	3725
3204.717	3784
3206.495	3740
3208.272	3821
3210.05	3731
3211.826	3694
3213.602	3785
3215.376	3790
3217.151	3823
3218.927	3748
3220.702	3742
3222.476	3799
3224.249	3730
3226.021	3734
3227.793	3716
3229.567	3821
3231.339	3781
3233.109	3740
3234.88	3665
3236.651	3736
3238.421	3713
3240.191	3631
3241.96	3751
3243.728	3665
3245.497	3688
3247.263	3734
3249.033	3693
3250.799	3717
3252.566	3749
3254.331	3712
3256.097	3688
3257.863	3724
3259.628	3754
3261.392	3721
3263.156	3736
3264.919	3694
3266.683	3709
3268.447	3776
3270.208	3680
3271.969	3652
3273.731	3778
3275.492	3750
3277.253	3676
3279.013	3761
3280.773	3692
3282.532	3792
3284.291	3709
3286.05	3711
3287.808	3732
3289.566	3713
3291.323	3738
3293.079	3639
3294.835	3685
3296.593	3676
3298.348	3708
3300.102	3669
3301.857	3651
3303.611	3787
3305.366	3690
3307.119	3723
3308.872	3742
3310.624	3691
3312.376	3652
3314.129	3659
3315.881	3674
3317.631	3757
3319.38	3696
3321.13	3716
3322.88	3690
3324.631	3686
3326.379	3697
3328.126	3718
3329.875	3735
3331.622	3761
3333.371	3709
3335.116	3733
3336.863	3668
3338.609	3692
3340.353	3644
3342.1	3687
3343.845	3685
3345.588	3655
3347.332	3652
3349.074	3709
3350.817	3705
3352.56	3569
3354.303	3729
3356.043	3781
3357.785	3681
3359.525	3656
3361.268	3625
3363.007	3673
3364.745	3643
3366.485	3587
3368.223	3634
3369.962	3631
3371.701	3667
3373.438	3616
3375.174	3640
3376.911	3580
3378.647	3671
3380.384	3623
3382.118	3586
3383.854	3637
3385.588	3586
3387.322	3581
3389.057	3648
3390.79	3613
3392.522	3623
3394.255	3615
3395.987	3644
3397.719	3642
3399.451	3574
3401.181	3558
3402.911	3609
3404.641	3591
3406.371	3651
3408.101	3579
3409.83	3521
3411.558	3611
3413.285	3622
3415.011	3542
3416.739	3607
3418.467	3560
3420.193	3524
3421.919	3599
3423.644	3536
3425.368	3513
3427.094	3617
3428.818	3598
3430.542	3565
3432.264	3632
3433.987	3580
3435.712	3559
3437.434	3627
3439.155	3622
3440.876	3549
3442.596	3521
3444.317	3544
3446.039	3553
3447.757	3566
3449.477	3563
3451.195	3533
3452.914	3542
3454.632	3535
3456.35	3579
3458.067	3552
3459.784	3579
3461.5	3553
3463.216	3509
3464.932	3499
3466.647	3564
3468.362	3490
3470.076	3419
3471.789	3460
3473.505	3516
3475.217	3440
3476.929	3580
3478.641	3413
3480.354	3429
3482.066	3503
3483.777	3520
3485.487	3467
3487.197	3399
3488.908	3541
3490.617	3480
3492.327	3395
3494.035	3424
3495.743	3472
3497.451	3443
3499.158	3437
3500.866	3421
3502.572	3447
3504.278	3457
3505.984	3440
3507.689	3463
3509.396	3423
3511.1	3446
3512.804	3356
3514.508	3432
3516.211	3425
3517.913	3460
3519.616	3478
3521.319	3419
3523.021	3357
3524.722	3341
3526.422	3339
3528.124	3466
3529.824	3385
3531.524	3445
3533.222	3379
3534.921	3362
3536.62	3415
3538.318	3314
3540.016	3312
3541.714	3358
3543.41	3331
3545.107	3371
3546.803	3376
3548.5	3428
3550.194	3262
3551.889	3299
3553.583	3314
3555.279	3350
3556.972	3293
3558.666	3306
3560.358	3335
3562.051	3340
3563.742	3386
3565.435	3315
3567.126	3309
3568.817	3322
3570.507	3400
3572.197	3305
3573.888	3280
3575.577	3341
3577.265	3355
3578.954	3307
3580.642	3281
3582.329	3386
3584.017	3183
3585.704	3373
3587.391	3277
3589.077	3254
3590.762	3269
3592.449	3287
3594.133	3334
3595.817	3260
3597.501	3191
3599.185	3271
3600.869	3244
3602.552	3260
3604.234	3317
3605.916	3269
3607.598	3233
3609.279	3226
3610.961	3267
3612.642	3289
3614.321	3303
3616	3291
3617.68	3206
3619.36	3268
3621.039	3187
3622.716	3243
3624.394	3222
3626.071	3200
3627.748	3191
3629.425	3180
3631.102	3212
3632.778	3233
3634.452	3142
3636.127	3231
3637.803	3248
3639.477	3139
3641.151	3101
3642.823	3163
3644.497	3098
3646.171	3207
3647.842	3189
3649.515	3138
3651.185	3162
3652.857	3064
3654.527	3096
3656.198	3228
3657.868	3194
3659.537	3109
3661.207	3091
3662.875	3100
3664.544	3196
3666.212	3138
3667.879	3133
3669.546	3099
3671.212	3135
3672.88	3114
3674.546	3107
3676.211	3177
3677.875	3198
3679.541	3154
3681.205	3076
3682.87	3131
3684.533	3148
3686.196	3132
3687.859	3120
3689.521	3075
3691.184	3106
3692.845	3050
3694.507	3141
3696.167	3144
3697.827	3123
3699.487	3130
3701.148	3186
3702.808	3134
3704.466	3038
3706.125	3083
3707.783	3063
3709.442	3140
3711.099	3082
3712.757	3033
3714.412	3112
3716.068	3083
3717.725	3092
3719.381	3062
3721.036	3043
3722.689	3085
3724.344	3126
3725.998	3046
3727.652	3018
3729.305	3081
3730.958	3064
3732.61	3034
3734.262	3061
3735.915	3111
3737.565	3077
3739.217	3031
3740.866	3020
3742.516	3034
3744.165	3041
3745.816	3059
3747.464	3029
3749.113	3051
3750.761	3072
3752.409	3068
3754.057	3058
3755.703	3032
3757.35	2991
3758.996	3018
3760.641	2997
3762.289	3044
3763.933	2958
3765.577	3024
3767.222	3062
3768.865	3019
3770.508	3041
3772.152	2969
3773.796	3026
3775.438	3007
3777.079	2990
3778.721	3004
3780.363	3006
3782.003	2924
3783.643	3063
3785.283	2973
3786.923	2976
3788.563	3012
3790.203	2944
3791.841	2966
3793.479	2925
3795.115	3052
3796.753	2986
3798.391	2930
3800.027	3017
3801.664	2943
3803.299	2931
3804.935	2955
3806.571	2954
3808.206	2982
3809.839	2982
3811.473	2915
3813.107	2901
3814.74	2949
3816.375	2952
3818.006	2966
3819.638	2941
3821.27	2935
3822.9	2926
3824.532	2953
3826.163	2906
3827.792	2929
3829.423	2914
3831.051	2911
3832.682	2920
3834.311	2987
3835.938	2863
3837.566	2896
3839.193	2973
3840.821	2925
3842.448	2948
3844.075	2900
3845.7	2920
3847.325	2936
3848.951	2871
3850.576	2889
3852.201	2870
3853.825	2963
3855.448	2840
3857.072	2895
3858.694	2777
3860.318	2952
3861.939	2851
3863.562	2900
3865.183	2854
3866.804	2812
3868.426	2890
3870.045	2856
3871.666	2918
3873.285	2927
3874.904	2832
3876.524	2901
3878.142	2916
3879.76	2819
3881.378	2839
3882.995	2914
3884.612	2870
3886.229	2900
3887.845	2763
3889.461	2857
3891.076	2863
3892.691	2837
3894.307	2842
3895.922	2812
3897.536	2844
3899.149	2892
3900.761	2820
3902.374	2845
3903.988	2832
3905.6	2833
3907.212	2867
3908.822	2831
3910.433	2875
3912.045	2881
3913.655	2815
3915.265	2843
3916.875	2862
3918.483	2819
3920.093	2828
3921.702	2831
3923.309	2842
3924.917	2814
3926.523	2858
3928.13	2764
3929.739	2826
3931.344	2897
3932.95	2909
3934.555	2809
3936.159	2809
3937.766	2884
3939.369	2787
3940.974	2774
3942.577	2769
3944.181	2802
3945.783	2787
3947.386	2790
3948.989	2784
3950.59	2823
3952.191	2857
3953.791	2874
3955.394	2830
3956.994	2795
3958.593	2792
3960.192	2822
3961.791	2794
3963.392	2703
3964.99	2694
3966.588	2752
3968.185	2777
3969.782	2744
3971.379	2710
3972.976	2789
3974.572	2764
3976.168	2760
3977.763	2721
3979.358	2805
3980.954	2706
3982.548	2719
3984.142	2723
3985.736	2721
3987.329	2718
3988.922	2711
3990.516	2735
3992.108	2734
3993.698	2756
3995.29	2725
3996.881	2660
3998.473	2692
4000.064	2691
4001.653	2680
4003.242	2687
4004.832	2720
4006.422	2735
4008.01	2768
4009.598	2703
4011.186	2675
4012.773	2713
4014.36	2734
4015.947	2623
4017.534	2667
4019.119	2681
4020.705	2650
4022.291	2642
4023.876	2675
4025.461	2658
4027.044	2648
4028.627	2635
4030.211	2774
4031.795	2631
4033.378	2700
4034.96	2616
4036.542	2671
4038.124	2681
4039.704	2669
4041.286	2603
4042.867	2597
4044.447	2652
4046.026	2592
4047.606	2644
4049.187	2578
4050.765	2593
4052.343	2561
4053.92	2592
4055.498	2592
4057.076	2626
4058.654	2617
4060.23	2642
4061.806	2664
4063.381	2667
4064.957	2636
4066.533	2627
4068.107	2601
4069.682	2556
4071.256	2630
4072.829	2637
4074.404	2609
4075.977	2590
4077.549	2597
4079.121	2594
4080.693	2652
4082.265	2541
4083.836	2665
4085.407	2623
4086.977	2585
4088.547	2663
4090.117	2530
4091.687	2577
4093.256	2561
4094.825	2650
4096.392	2525
4097.96	2532
4099.528	2598
4101.097	2532
4102.663	2582
4104.229	2576
4105.795	2582
4107.361	2517
4108.928	2631
4110.493	2617
4112.058	2480
4113.621	2497
4115.186	2534
4116.75	2551
4118.313	2581
4119.876	2544
4121.438	2576
4123	2557
4124.562	2576
4126.125	2523
4127.686	2489
4129.246	2533
4130.807	2548
4132.367	2510
4133.927	2476
4135.486	2542
4137.046	2455
4138.604	2484
4140.162	2459
4141.72	2489
4143.279	2520
4144.836	2456
4146.393	2528
4147.949	2541
4149.505	2522
4151.062	2498
4152.617	2512
4154.172	2489
4155.727	2418
4157.281	2508
4158.836	2510
4160.39	2487
4161.943	2477
4163.496	2535
4165.048	2480
4166.601	2465
4168.154	2475
4169.706	2448
4171.257	2477
4172.808	2506
4174.358	2465
4175.909	2369
4177.458	2437
4179.008	2454
4180.558	2487
4182.106	2436
4183.655	2337
4185.204	2414
4186.751	2411
4188.298	2441
4189.845	2523
4191.392	2406
4192.939	2435
4194.485	2447
4196.031	2387
4197.576	2375
4199.121	2377
4200.666	2396
4202.211	2398
4203.754	2435
4205.298	2432
4206.84	2414
4208.384	2403
4209.927	2373
4211.47	2477
4213.011	2451
4214.552	2363
4216.094	2367
4217.635	2370
4219.175	2345
4220.716	2338
4222.255	2458
4223.793	2412
4225.335	2356
4226.873	2399
4228.411	2321
4229.948	2429
4231.486	2404
4233.024	2336
4234.562	2328
4236.098	2381
4237.634	2301
4239.169	2360
4240.705	2299
4242.241	2373
4243.776	2372
4245.31	2359
4246.844	2375
4248.378	2328
4249.911	2399
4251.445	2321
4252.978	2342
4254.51	2339
4256.042	2407
4257.574	2391
4259.107	2325
4260.638	2320
4262.169	2332
4263.699	2293
4265.228	2325
4266.759	2312
4268.289	2373
4269.818	2264
4271.345	2344
4272.874	2368
4274.402	2335
4275.931	2319
4277.458	2323
4278.985	2327
4280.512	2285
4282.037	2306
4283.564	2320
4285.089	2335
4286.615	2310
4288.139	2325
4289.664	2369
4291.187	2294
4292.712	2331
4294.235	2331
4295.759	2301
4297.281	2263
4298.804	2283
4300.327	2367
4301.849	2328
4303.37	2238
4304.891	2265
4306.412	2326
4307.933	2302
4309.453	2298
4310.973	2259
4312.492	2296
