398.1873	7629
400.7097	7602
403.2336	7573
405.7547	7609
408.2751	7740
410.7948	7698
413.3138	7714
415.83	7752
418.3497	7905
420.8666	7952
423.3829	8051
425.8985	7928
428.4133	8068
430.9275	8174
433.441	8117
435.9538	8175
438.4639	8179
440.9753	8205
443.4881	8201
445.9982	8196
448.5055	8182
451.0142	8284
453.5201	8249
456.0274	8210
458.5361	8196
461.04	8182
463.5453	8215
466.0478	8152
468.5517	8095
471.0549	8230
473.5574	8276
476.0572	8328
478.5584	8381
481.0568	8331
483.5545	8373
486.0557	8320
488.5521	8442
491.0478	8513
493.5449	8559
496.0392	8513
498.5349	8362
501.0299	8561
503.5222	8463
506.0139	8462
508.5048	8352
510.9991	8609
513.4887	8559
515.9777	8545
518.4659	8631
520.9534	8566
523.4403	8655
525.9306	8489
528.4161	8615
530.9009	8715
533.3851	8527
535.8687	8718
538.3535	8570
540.8356	8466
543.3171	8618
545.7979	8613
548.278	8803
550.7595	8668
553.2383	8686
555.7144	8573
558.1918	8623
560.6685	8746
563.1446	8709
565.6221	8731
568.0968	8693
570.5688	8739
573.0422	8956
575.515	8870
577.989	8993
580.4584	8983
582.9291	8811
585.3991	8884
587.8685	8895
590.3352	8890
592.8052	9044
595.2706	8994
597.7372	8937
600.2033	8957
602.6666	8859
605.1334	8782
607.5953	8806
610.0587	8907
612.5193	8831
614.9814	8947
617.4427	8942
619.9034	8888
622.3615	8848
624.8208	8893
627.2775	8791
629.7335	8841
632.1929	8923
634.6476	8857
637.1016	8824
639.5569	8845
642.0096	8965
644.4637	8973
646.9151	8957
649.3678	9072
651.8179	8923
654.2672	9102
656.7159	8921
659.166	9157
661.6154	9050
664.0622	8980
666.5082	9098
668.9537	9065
671.4005	9008
673.8445	9201
676.288	9082
678.7308	9238
681.1729	9155
683.6163	9285
686.0572	9129
688.4973	9236
690.9368	9204
693.3757	9180
695.8138	9294
698.2534	9299
700.6902	9258
703.1245	9420
705.56	9325
707.9949	9344
710.4311	9328
712.8647	9205
715.2957	9358
717.7279	9506
720.1595	9404
722.5905	9376
725.0208	9493
727.4505	9553
729.8795	9498
732.3058	9585
734.7336	9464
737.1626	9589
739.587	9628
742.0128	9660
744.4359	9644
746.8604	9688
749.2841	9615
751.7073	9765
754.1278	9707
756.5496	9868
758.9688	9867
761.3893	9782
763.8093	9896
766.2285	9830
768.6451	9782
771.0611	9857
773.4784	9843
775.895	9865
778.3091	9867
780.7244	9942
783.1371	9861
785.5493	9966
787.9626	9866
790.3754	10060
792.7856	9995
795.1951	9907
797.6039	9974
800.0121	9988
802.4236	9990
804.8306	9961
807.2369	9970
809.6425	9904
812.0475	9958
814.4538	9999
816.8575	9966
819.2606	10172
821.663	9932
824.0648	9983
826.4659	9905
828.8683	9981
831.2682	9945
833.6674	9991
836.066	10056
838.4639	9974
840.8632	9964
843.2579	9967
845.6539	10038
848.0493	10159
850.444	10216
852.84	10064
855.2315	10308
857.6243	10120
860.0165	10201
862.4081	10224
864.797	10094
867.1892	10176
869.5789	10055
871.9659	10139
874.3542	10093
876.74	10029
879.129	10209
881.5155	10162
883.8994	10081
886.2845	10178
888.6671	10178
891.051	10211
893.4343	10030
895.8169	10082
898.197	10046
900.5783	10089
902.9571	10109
905.3372	10158
907.7167	10183
910.0936	10184
912.4698	10206
914.8474	10294
917.2244	10268
919.5987	10374
921.9744	10435
924.3475	10465
926.72	10622
929.0918	10550
931.4669	10422
933.8375	10601
936.2074	10585
938.5767	10670
940.9454	10749
943.3154	10755
945.6829	10900
948.0497	11216
950.4178	11262
952.7833	11682
955.1483	11794
957.5145	12206
959.8782	12399
962.2412	12304
964.6036	12166
966.9655	11705
969.3266	11308
971.6871	11162
974.0471	10738
976.4064	10857
978.765	10576
981.125	10638
983.4824	10460
985.8373	10413
988.1935	10488
990.549	10448
992.9039	10398
995.2602	10436
997.6119	10463
999.965	10648
1002.317	10476
1004.667	10615
1007.02	10601
1009.371	10408
1011.719	10543
1014.068	10580
1016.415	10508
1018.765	10549
1021.111	10597
1023.458	10470
1025.804	10520
1028.147	10600
1030.49	10650
1032.837	10585
1035.179	10709
1037.522	10760
1039.862	10709
1042.204	10866
1044.546	10813
1046.884	10697
1049.224	10758
1051.562	10585
1053.899	10864
1056.237	10732
1058.575	10728
1060.91	10718
1063.244	10725
1065.58	10740
1067.913	10944
1070.248	10882
1072.579	10845
1074.911	10917
1077.242	10866
1079.572	10812
1081.905	10731
1084.234	10881
1086.562	10878
1088.89	10664
1091.217	10678
1093.544	10743
1095.871	10767
1098.197	10767
1100.521	10693
1102.845	10860
1105.169	10915
1107.491	10890
1109.814	10725
1112.135	10709
1114.456	10846
1116.776	10682
1119.096	10752
1121.415	10752
1123.734	10834
1126.052	10715
1128.369	10909
1130.686	10859
1133.002	10834
1135.318	10941
1137.632	10923
1139.945	10923
1142.258	10733
1144.573	10798
1146.884	10848
1149.196	10920
1151.505	10936
1153.816	10864
1156.124	10824
1158.435	10959
1160.742	10914
1163.051	10845
1165.356	10770
1167.663	10810
1169.97	10811
1172.276	10864
1174.579	10865
1176.881	10798
1179.186	10762
1181.487	10733
1183.79	10790
1186.092	10854
1188.392	10880
1190.691	10787
1192.991	10868
1195.291	10737
1197.588	10823
1199.885	10914
1202.181	10883
1204.479	10761
1206.775	10761
1209.07	10886
1211.363	10911
1213.656	10804
1215.949	10865
1218.241	10788
1220.534	10902
1222.825	10976
1225.115	10885
1227.405	11009
1229.693	10974
1231.984	11106
1234.271	11088
1236.558	11192
1238.845	11336
1241.131	11128
1243.416	11070
1245.703	11219
1247.987	11140
1250.269	11157
1252.552	11191
1254.834	11066
1257.118	11233
1259.399	11365
1261.678	11089
1263.958	11292
1266.237	11209
1268.516	11122
1270.794	11181
1273.072	11307
1275.347	11133
1277.624	11180
1279.899	11137
1282.175	11214
1284.449	11016
1286.722	11096
1288.995	10955
1291.266	11087
1293.54	11114
1295.81	11065
1298.081	11132
1300.35	11045
1302.62	10985
1304.889	11106
1307.156	11016
1309.425	11064
1311.69	10970
1313.957	11048
1316.222	11114
1318.488	10979
1320.751	10993
1323.016	11074
1325.278	10986
1327.54	11097
1329.803	11040
1332.065	11086
1334.325	11061
1336.584	11101
1338.843	11063
1341.101	11095
1343.36	11303
1345.617	11079
1347.876	11284
1350.131	11070
1352.387	11039
1354.643	11129
1356.897	11127
1359.151	11174
1361.403	11065
1363.656	11113
1365.909	11159
1368.16	11107
1370.409	11254
1372.659	11139
1374.909	11254
1377.157	11023
1379.407	11006
1381.655	11355
1383.9	11077
1386.147	11220
1388.393	11216
1390.64	11201
1392.885	11265
1395.127	11265
1397.37	11260
1399.614	11313
1401.854	11128
1404.098	11260
1406.339	11428
1408.578	11213
1410.818	11232
1413.056	11354
1415.297	11461
1417.533	11398
1419.771	11305
1422.006	11403
1424.243	11242
1426.479	11381
1428.715	11555
1430.948	11575
1433.182	11486
1435.414	11558
1437.647	11353
1439.88	11423
1442.11	11460
1444.342	11486
1446.571	11341
1448.799	11481
1451.029	11547
1453.258	11515
1455.485	11633
1457.711	11381
1459.937	11581
1462.164	11558
1464.39	11521
1466.614	11546
1468.838	11476
1471.06	11255
1473.283	11438
1475.506	11422
1477.727	11362
1479.949	11318
1482.169	11411
1484.389	11422
1486.609	11213
1488.828	11230
1491.045	11384
1493.261	11302
1495.477	11279
1497.693	11227
1499.91	11258
1502.125	11200
1504.339	11191
1506.553	11173
1508.766	11122
1510.979	11142
1513.191	10981
1515.402	11321
1517.613	11134
1519.823	11203
1522.033	11144
1524.242	11241
1526.451	11239
1528.657	11291
1530.865	11328
1533.072	11226
1535.278	11243
1537.484	11334
1539.687	11199
1541.892	11194
1544.096	11316
1546.299	11267
1548.502	11269
1550.703	11242
1552.905	11301
1555.104	11451
1557.303	11310
1559.505	11441
1561.703	11391
1563.902	11225
1566.099	11452
1568.295	11454
1570.494	11432
1572.689	11508
1574.883	11443
1577.079	11513
1579.272	11345
1581.467	11536
1583.659	11732
1585.853	11612
1588.044	11486
1590.234	11562
1592.424	11461
1594.615	11707
1596.806	11722
1598.994	11530
1601.182	11708
1603.369	11580
1605.557	11558
1607.744	11713
1609.929	11632
1612.114	11628
1614.298	11618
1616.482	11558
1618.667	11545
1620.85	11665
1623.032	11602
1625.214	11474
1627.395	11836
1629.575	11564
1631.755	11795
1633.935	11660
1636.114	11576
1638.292	11615
1640.471	11730
1642.647	11776
1644.823	11727
1647	11766
1649.175	11788
1651.348	11627
1653.525	11745
1655.698	11599
1657.87	11745
1660.043	11628
1662.213	11808
1664.387	11721
1666.558	11647
1668.727	11878
1670.896	11742
1673.064	11696
1675.233	11818
1677.401	11593
1679.569	11689
1681.735	11708
1683.902	11727
1686.066	11735
1688.233	11625
1690.397	11696
1692.559	11661
1694.723	11710
1696.885	11658
1699.048	11688
1701.21	11685
1703.37	11488
1705.53	11649
1707.689	11434
1709.849	11671
1712.009	11585
1714.166	11654
1716.323	11617
1718.479	11508
1720.634	11686
1722.793	11634
1724.948	11680
1727.102	11610
1729.255	11566
1731.408	11619
1733.562	11580
1735.714	11467
1737.865	11638
1740.016	11663
1742.166	11584
1744.316	11683
1746.467	11508
1748.616	11613
1750.764	11576
1752.911	11626
1755.056	11779
1757.205	11625
1759.35	11751
1761.496	11695
1763.641	11573
1765.785	11710
1767.927	11720
1770.072	11740
1772.214	11654
1774.355	11853
1776.496	11843
1778.637	11816
1780.778	11642
1782.918	11721
1785.057	11835
1787.194	11637
1789.333	11756
1791.472	11796
1793.608	11794
1795.745	11714
1797.879	11838
1800.015	11612
1802.148	11725
1804.284	11759
1806.417	11776
1808.548	11743
1810.682	11508
1812.812	11818
1814.946	11581
1817.075	11795
1819.205	11692
1821.335	11598
1823.463	11717
1825.59	11856
1827.721	11641
1829.847	11773
1831.973	11730
1834.098	11639
1836.223	11646
1838.351	11706
1840.475	11661
1842.598	11667
1844.721	11724
1846.843	11639
1848.966	11474
1851.087	11694
1853.21	11597
1855.33	11501
1857.449	11532
1859.568	11712
1861.688	11893
1863.806	11786
1865.924	11635
1868.039	11636
1870.155	11606
1872.273	11648
1874.388	11438
1876.503	11556
1878.617	11384
1880.73	11689
1882.844	11515
1884.956	11608
1887.068	11630
1889.18	11663
1891.291	11706
1893.4	11676
1895.511	11748
1897.621	11671
1899.73	11768
1901.837	11568
1903.944	11793
1906.053	11627
1908.159	11786
1910.265	11826
1912.369	11870
1914.474	11668
1916.577	11797
1918.683	11747
1920.785	11652
1922.888	11748
1924.989	11795
1927.091	11961
1929.193	11732
1931.294	11885
1933.393	11773
1935.493	11661
1937.59	11871
1939.689	11924
1941.788	11955
1943.884	11849
1945.98	11879
1948.077	11849
1950.171	11863
1952.267	11908
1954.361	11793
1956.455	11752
1958.548	11770
1960.64	11802
1962.733	11829
1964.824	11847
1966.915	11857
1969.005	11911
1971.096	11774
1973.185	11988
1975.275	11871
1977.363	11784
1979.45	11848
1981.537	11901
1983.623	11896
1985.711	11568
1987.796	11616
1989.881	11794
1991.965	11782
1994.047	11730
1996.132	11744
1998.215	11672
2000.297	11704
2002.378	11686
2004.46	11714
2006.54	11775
2008.62	11652
2010.7	11734
2012.779	11589
2014.858	11532
2016.934	11786
2019.013	11522
2021.09	11782
2023.165	11675
2025.241	11817
2027.317	11688
2029.39	11586
2031.466	11683
2033.538	11899
2035.612	11695
2037.683	11689
2039.755	11762
2041.827	11755
2043.898	11662
2045.968	11605
2048.038	11630
2050.106	11711
2052.177	11673
2054.244	11728
2056.313	11654
2058.379	11656
2060.444	11648
2062.511	11783
2064.577	11724
2066.641	11670
2068.705	11822
2070.77	11814
2072.832	11617
2074.896	11914
2076.958	11730
2079.02	11802
2081.081	11761
2083.141	11766
2085.2	11630
2087.261	11535
2089.319	11614
2091.377	11798
2093.435	11807
2095.492	11744
2097.552	11799
2099.607	11691
2101.663	11766
2103.718	11798
2105.771	11705
2107.826	11817
2109.879	11788
2111.932	11697
2113.985	11674
2116.037	11834
2118.088	11802
2120.141	11711
2122.191	11705
2124.239	11586
2126.288	11830
2128.337	11658
2130.387	11546
2132.434	11817
2134.481	11639
2136.528	11756
2138.574	11823
2140.618	11703
2142.665	11554
2144.71	11704
2146.753	11828
2148.797	11554
2150.838	11702
2152.883	11619
2154.923	11736
2156.965	11667
2159.007	11667
2161.046	11712
2163.086	11525
2165.126	11674
2167.163	11383
2169.202	11683
2171.239	11579
2173.277	11660
2175.314	11573
2177.349	11511
2179.385	11656
2181.42	11464
2183.453	11577
2185.49	11557
2187.522	11501
2189.555	11626
2191.586	11446
2193.619	11382
2195.651	11369
2197.682	11620
2199.711	11517
2201.74	11535
2203.769	11448
2205.799	11417
2207.828	11470
2209.855	11271
2211.882	11449
2213.908	11394
2215.934	11249
2217.961	11322
2219.986	11340
2222.01	11324
2224.034	11271
2226.057	11299
2228.08	11114
2230.104	11366
2232.124	11524
2234.145	11387
2236.166	11471
2238.186	11360
2240.207	11285
2242.227	11404
2244.244	11458
2246.262	11608
2248.28	11327
2250.299	11442
2252.314	11371
2254.33	11459
2256.346	11494
2258.36	11376
2260.375	11377
2262.391	11411
2264.403	11366
2266.416	11438
2268.427	11367
2270.44	11592
2272.453	11395
2274.463	11479
2276.474	11209
2278.483	11505
2280.493	11346
2282.501	11445
2284.51	11366
2286.518	11390
2288.524	11421
2290.532	11544
2292.537	11343
2294.544	11476
2296.55	11308
2298.554	11358
2300.557	11435
2302.562	11235
2304.566	11425
2306.568	11345
2308.569	11360
2310.572	11348
2312.573	11336
2314.573	11217
2316.574	11224
2318.573	11337
2320.571	11319
2322.571	11371
2324.569	11285
2326.567	11248
2328.564	11314
2330.56	11232
2332.556	11304
2334.551	11339
2336.546	11334
2338.542	11157
2340.535	11225
2342.529	11268
2344.521	11204
2346.512	11177
2348.505	11237
2350.497	11128
2352.487	11262
2354.478	11077
2356.468	11063
2358.457	11145
2360.446	11168
2362.434	11185
2364.422	11181
2366.408	11234
2368.395	11075
2370.383	10966
2372.369	10991
2374.353	11193
2376.338	11153
2378.321	11081
2380.307	11140
2382.29	11181
2384.272	11003
2386.254	11177
2388.235	11063
2390.218	10927
2392.198	11044
2394.179	11043
2396.157	10988
2398.137	11082
2400.115	11029
2402.095	10874
2404.072	10971
2406.048	10961
2408.026	11021
2410.001	11006
2411.977	10842
2413.953	11117
2415.927	10907
2417.9	10879
2419.875	11046
2421.847	10993
2423.821	11061
2425.792	10970
2427.763	11048
2429.736	11003
2431.706	11105
2433.677	10992
2435.646	11129
2437.615	10914
2439.583	10839
2441.551	10940
2443.519	11103
2445.486	10922
2447.452	11013
2449.418	10842
2451.383	11020
2453.348	10828
2455.314	11033
2457.278	10893
2459.241	10914
2461.205	10992
2463.167	10983
2465.131	10898
2467.091	10765
2469.052	10794
2471.012	10869
2472.972	10871
2474.932	10922
2476.891	10835
2478.85	10824
2480.808	10750
2482.766	11091
2484.722	10691
2486.68	10811
2488.636	10779
2490.591	10736
2492.546	10836
2494.5	10785
2496.456	10724
2498.41	10792
2500.362	10807
2502.315	10749
2504.266	10890
2506.218	10877
2508.169	10850
2510.121	10793
2512.07	10804
2514.019	10730
2515.968	10777
2517.918	10606
2519.866	10831
2521.813	10750
2523.76	10811
2525.707	10800
2527.653	10785
2529.599	10711
2531.543	10840
2533.489	10811
2535.433	10601
2537.376	10693
2539.32	10784
2541.264	10808
2543.205	10616
2545.147	10683
2547.087	10727
2549.029	10695
2550.969	10620
2552.908	10675
2554.847	10747
2556.786	10632
2558.724	10712
2560.663	10774
2562.6	10812
2564.537	10843
2566.473	10694
2568.408	10724
2570.345	10533
2572.28	10778
2574.214	10762
2576.148	10711
2578.081	10640
2580.014	10849
2581.947	10670
2583.879	10775
2585.81	10742
2587.741	10899
2589.67	10936
2591.602	10816
2593.532	10812
2595.461	10705
2597.388	10850
2599.316	10698
2601.244	10534
2603.172	10815
2605.098	10650
2607.023	10690
2608.949	10783
2610.873	10713
2612.8	10688
2614.723	10763
2616.647	10593
2618.569	10667
2620.493	10828
2622.416	10785
2624.338	10756
2626.258	10877
2628.179	10699
2630.099	10783
2632.019	10804
2633.939	10808
2635.857	10678
2637.775	10959
2639.694	10799
2641.61	10780
2643.528	10632
2645.444	10791
2647.361	10811
2649.276	10749
2651.19	10755
2653.105	10759
2655.019	10748
2656.934	10844
2658.846	10672
2660.758	10888
2662.67	10781
2664.583	10830
2666.493	10750
2668.404	10784
2670.313	10745
2672.223	10674
2674.134	10774
2676.042	10715
2677.95	10724
2679.858	10593
2681.765	10709
2683.673	10655
2685.579	10668
2687.483	10781
2689.389	10591
2691.294	10678
2693.198	10647
2695.104	10582
2697.006	10680
2698.909	10545
2700.811	10638
2702.713	10662
2704.615	10654
2706.516	10682
2708.417	10680
2710.316	10663
2712.216	10511
2714.115	10642
2716.014	10662
2717.913	10459
2719.81	10617
2721.707	10563
2723.603	10518
2725.501	10507
2727.396	10547
2729.292	10492
2731.186	10619
2733.081	10718
2734.976	10545
2736.87	10631
2738.762	10565
2740.653	10450
2742.546	10540
2744.437	10479
2746.329	10487
2748.22	10422
2750.11	10518
2751.999	10417
2753.889	10633
2755.778	10344
2757.666	10561
2759.553	10506
2761.44	10464
2763.328	10476
2765.215	10472
2767.101	10441
2768.986	10503
2770.87	10293
2772.754	10315
2774.638	10436
2776.523	10264
2778.405	10239
2780.288	10447
2782.17	10275
2784.051	10330
2785.934	10468
2787.814	10440
2789.694	10382
2791.574	10287
2793.453	10339
2795.332	10252
2797.212	10412
2799.088	10312
2800.966	10311
2802.843	10446
2804.719	10225
2806.597	10348
2808.471	10197
2810.346	10394
2812.221	10315
2814.094	10392
2815.969	10339
2817.843	10384
2819.714	10362
2821.587	10283
2823.459	10402
2825.329	10333
2827.202	10363
2829.072	10285
2830.942	10306
2832.811	10294
2834.68	10349
2836.549	10468
2838.418	10191
2840.284	10422
2842.152	10256
2844.018	10261
2845.885	10358
2847.751	10326
2849.616	10343
2851.482	10281
2853.345	10254
2855.208	10312
2857.074	10275
2858.937	10342
2860.799	10429
2862.66	10382
2864.522	10466
2866.385	10352
2868.245	10488
2870.104	10549
2871.964	10501
2873.824	10596
2875.683	10641
2877.542	10757
2879.4	10716
2881.257	10645
2883.114	10770
2884.97	10783
2886.827	10644
2888.683	10747
2890.537	10765
2892.392	10661
2894.246	10677
2896.1	10634
2897.954	10623
2899.807	10666
2901.66	10646
2903.51	10679
2905.362	10523
2907.214	10687
2909.065	10782
2910.915	10652
2912.765	10799
2914.613	10781
2916.463	10966
2918.311	10988
2920.158	10964
2922.006	11090
2923.853	10951
2925.698	11007
2927.546	11095
2929.392	11237
2931.236	11246
2933.081	11237
2934.924	11255
2936.77	11326
2938.613	11372
2940.455	11424
2942.298	11395
2944.139	11462
2945.982	11402
2947.823	11312
2949.662	11262
2951.503	11303
2953.342	11187
2955.182	11316
2957.021	11108
2958.858	11061
2960.697	11023
2962.534	10968
2964.37	10996
2966.207	10822
2968.044	10879
2969.879	10752
2971.714	10670
2973.548	10553
2975.383	10803
2977.218	10685
2979.051	10762
2980.883	10581
2982.715	10628
2984.547	10629
2986.379	10649
2988.21	10462
2990.04	10435
2991.87	10449
2993.7	10555
2995.53	10448
2997.359	10453
2999.187	10301
3001.015	10351
3002.842	10184
3004.669	10205
3006.497	10362
3008.323	10152
3010.148	10172
3011.974	9990
3013.797	10025
3015.623	9958
3017.447	9888
3019.27	9881
3021.094	10013
3022.915	10020
3024.737	9874
3026.56	9858
3028.38	9924
3030.201	9775
3032.022	9781
3033.84	9881
3035.662	9734
3037.481	9786
3039.298	9668
3041.117	9742
3042.933	9725
3044.752	9684
3046.568	9782
3048.385	9666
3050.2	9774
3052.016	9785
3053.83	9624
3055.646	9797
3057.46	9810
3059.272	9659
3061.086	9626
3062.898	9708
3064.711	9645
3066.524	9657
3068.335	9489
3070.145	9523
3071.956	9633
3073.766	9558
3075.576	9656
3077.385	9617
3079.193	9723
3081.002	9667
3082.81	9417
3084.618	9520
3086.425	9471
3088.231	9539
3090.036	9501
3091.842	9554
3093.648	9476
3095.452	9513
3097.257	9419
3099.06	9339
3100.863	9315
3102.666	9504
3104.47	9440
3106.272	9311
3108.073	9350
3109.875	9319
3111.676	9394
3113.477	9311
3115.277	9394
3117.077	9426
3118.874	9290
3120.673	9280
3122.473	9330
3124.271	9338
3126.066	9325
3127.863	9294
3129.66	9382
3131.456	9220
3133.252	9184
3135.047	9218
3136.842	9164
3138.635	9158
3140.429	9276
3142.223	9209
3144.016	9237
3145.808	9170
3147.6	9101
3149.392	9167
3151.183	9240
3152.975	9203
3154.765	9259
3156.553	9188
3158.344	9250
3160.132	9109
3161.922	9118
3163.71	9134
3165.497	9034
3167.285	9056
3169.071	9089
3170.858	9075
3172.645	9157
3174.429	9002
3176.214	9106
3177.998	9075
3179.783	9121
3181.568	9122
3183.351	9161
3185.133	9008
3186.915	9144
3188.698	9090
3190.481	8977
3192.261	9036
3194.042	8940
3195.822	8952
3197.601	8986
3199.381	8899
3201.161	8923
3202.939	8962
3204.717	9109
3206.495	8836
3208.272	9025
3210.05	9068
3211.826	9114
3213.602	8881
3215.376	8810
3217.151	8844
3218.927	8945
3220.702	9062
3222.476	9012
3224.249	8902
3226.021	9045
3227.793	9073
3229.567	8902
3231.339	8932
3233.109	8956
3234.88	8936
3236.651	8914
3238.421	8719
3240.191	8951
3241.96	8862
3243.728	8913
3245.497	8854
3247.263	9010
3249.033	9000
3250.799	8828
3252.566	8837
3254.331	8797
3256.097	8882
3257.863	9009
3259.628	8885
3261.392	8853
3263.156	8759
3264.919	8799
3266.683	9023
3268.447	8990
3270.208	8831
3271.969	8742
3273.731	8993
3275.492	8839
3277.253	8764
3279.013	8775
3280.773	8800
3282.532	8959
3284.291	8846
3286.05	8761
3287.808	8844
3289.566	8911
3291.323	8804
3293.079	8703
3294.835	8896
3296.593	8810
3298.348	8865
3300.102	8831
3301.857	8871
3303.611	8916
3305.366	8807
3307.119	8788
3308.872	8827
3310.624	8818
3312.376	8805
3314.129	8685
3315.881	8734
3317.631	8793
3319.38	8808
3321.13	8986
3322.88	8885
3324.631	8720
3326.379	8910
3328.126	8770
3329.875	8800
3331.622	8757
3333.371	8881
3335.116	8784
3336.863	8768
3338.609	8795
3340.353	8618
3342.1	8755
3343.845	8628
3345.588	8844
3347.332	8772
3349.074	8786
3350.817	8691
3352.56	8699
3354.303	8744
3356.043	8720
3357.785	8819
3359.525	8617
3361.268	8747
3363.007	8670
3364.745	8718
3366.485	8582
3368.223	8642
3369.962	8657
3371.701	8656
3373.438	8634
3375.174	8693
3376.911	8660
3378.647	8708
3380.384	8596
3382.118	8566
3383.854	8592
3385.588	8621
3387.322	8619
3389.057	8522
3390.79	8602
3392.522	8513
3394.255	8562
3395.987	8675
3397.719	8370
3399.451	8396
3401.181	8610
3402.911	8571
3404.641	8541
3406.371	8465
3408.101	8584
3409.83	8593
3411.558	8430
3413.285	8525
3415.011	8466
3416.739	8498
3418.467	8533
3420.193	8369
3421.919	8459
3423.644	8487
3425.368	8385
3427.094	8422
3428.818	8269
3430.542	8420
3432.264	8401
3433.987	8485
3435.712	8373
3437.434	8312
3439.155	8383
3440.876	8502
3442.596	8261
3444.317	8381
3446.039	8280
3447.757	8340
3449.477	8370
3451.195	8342
3452.914	8351
3454.632	8203
3456.35	8158
3458.067	8202
3459.784	8235
3461.5	8361
3463.216	8172
3464.932	8208
3466.647	8085
3468.362	8190
3470.076	8238
3471.789	8257
3473.505	8161
3475.217	8183
3476.929	8079
3478.641	8207
3480.354	8198
3482.066	8170
3483.777	8154
3485.487	8160
3487.197	8094
3488.908	7965
3490.617	8171
3492.327	8123
3494.035	8079
3495.743	8126
3497.451	7969
3499.158	7939
3500.866	8056
3502.572	8039
3504.278	8134
3505.984	8018
3507.689	7949
3509.396	7950
3511.1	7993
3512.804	7988
3514.508	8043
3516.211	7970
3517.913	8031
3519.616	7896
3521.319	8016
3523.021	8047
3524.722	7920
3526.422	8067
3528.124	7875
3529.824	7863
3531.524	8026
3533.222	7935
3534.921	7792
3536.62	7899
3538.318	7942
3540.016	7791
3541.714	7831
3543.41	7872
3545.107	7895
3546.803	7825
3548.5	7728
3550.194	7945
3551.889	7870
3553.583	7941
3555.279	7818
3556.972	7893
3558.666	7737
3560.358	7872
3562.051	7795
3563.742	7752
3565.435	7913
3567.126	7755
3568.817	7797
3570.507	7742
3572.197	7813
3573.888	7613
3575.577	7760
3577.265	7727
3578.954	7747
3580.642	7686
3582.329	7775
3584.017	7850
3585.704	7769
3587.391	7630
3589.077	7729
3590.762	7590
3592.449	7643
3594.133	7579
3595.817	7609
3597.501	7646
3599.185	7518
3600.869	7611
3602.552	7555
3604.234	7684
3605.916	7576
3607.598	7488
3609.279	7537
3610.961	7641
3612.642	7584
3614.321	7470
3616	7485
3617.68	7513
3619.36	7404
3621.039	7477
3622.716	7442
3624.394	7440
3626.071	7541
3627.748	7463
3629.425	7447
3631.102	7321
3632.778	7429
3634.452	7347
3636.127	7511
3637.803	7443
3639.477	7505
3641.151	7437
3642.823	7314
3644.497	7352
3646.171	7398
3647.842	7362
3649.515	7251
3651.185	7354
3652.857	7284
3654.527	7414
3656.198	7302
3657.868	7348
3659.537	7352
3661.207	7269
3662.875	7359
3664.544	7258
3666.212	7320
3667.879	7384
3669.546	7195
3671.212	7214
3672.88	7218
3674.546	7197
3676.211	7426
3677.875	7256
3679.541	7237
3681.205	7173
3682.87	7280
3684.533	7167
3686.196	7228
3687.859	7100
3689.521	7223
3691.184	7154
3692.845	7201
3694.507	7119
3696.167	7131
3697.827	7187
3699.487	7172
3701.148	7215
3702.808	7155
3704.466	7168
3706.125	7194
3707.783	7079
3709.442	7088
3711.099	7236
3712.757	7128
3714.412	7143
3716.068	7163
3717.725	7085
3719.381	7160
3721.036	7154
3722.689	7058
3724.344	7143
3725.998	7057
3727.652	7027
3729.305	7041
3730.958	7075
3732.61	7030
3734.262	7094
3735.915	7134
3737.565	6984
3739.217	7028
3740.866	7046
3742.516	7022
3744.165	6995
3745.816	6988
3747.464	6954
3749.113	7102
3750.761	7054
3752.409	7045
3754.057	6909
3755.703	6958
3757.35	6996
3758.996	6999
3760.641	7033
3762.289	6922
3763.933	6940
3765.577	7000
3767.222	6892
3768.865	6899
3770.508	6935
3772.152	6844
3773.796	6812
3775.438	6827
3777.079	6854
3778.721	6976
3780.363	6926
3782.003	6838
3783.643	6840
3785.283	6963
3786.923	6896
3788.563	6905
3790.203	6876
3791.841	6898
3793.479	6769
3795.115	6811
3796.753	6901
3798.391	6836
3800.027	6753
3801.664	6842
3803.299	6796
3804.935	6810
3806.571	6871
3808.206	6681
3809.839	6773
3811.473	6780
3813.107	6779
3814.74	6675
3816.375	6783
3818.006	6737
3819.638	6603
3821.27	6633
3822.9	6756
3824.532	6686
3826.163	6743
3827.792	6755
3829.423	6681
3831.051	6800
3832.682	6630
3834.311	6660
3835.938	6752
3837.566	6627
3839.193	6564
3840.821	6664
3842.448	6732
3844.075	6624
3845.7	6754
3847.325	6609
3848.951	6578
3850.576	6597
3852.201	6569
3853.825	6668
3855.448	6660
3857.072	6589
3858.694	6625
3860.318	6568
3861.939	6549
3863.562	6572
3865.183	6575
3866.804	6479
3868.426	6508
3870.045	6477
3871.666	6524
3873.285	6445
3874.904	6542
3876.524	6551
3878.142	6497
3879.76	6546
3881.378	6589
3882.995	6384
3884.612	6493
3886.229	6539
3887.845	6404
3889.461	6515
3891.076	6399
3892.691	6547
3894.307	6548
3895.922	6395
3897.536	6462
3899.149	6489
3900.761	6514
3902.374	6455
3903.988	6411
3905.6	6592
3907.212	6309
3908.822	6443
3910.433	6418
3912.045	6392
3913.655	6392
3915.265	6328
3916.875	6367
3918.483	6327
3920.093	6379
3921.702	6408
3923.309	6485
3924.917	6400
3926.523	6403
3928.13	6385
3929.739	6380
3931.344	6359
3932.95	6339
3934.555	6366
3936.159	6315
3937.766	6320
3939.369	6362
3940.974	6470
3942.577	6336
3944.181	6376
3945.783	6268
3947.386	6364
3948.989	6265
3950.59	6331
3952.191	6332
3953.791	6299
3955.394	6340
3956.994	6280
3958.593	6302
3960.192	6312
3961.791	6312
3963.392	6336
3964.99	6217
3966.588	6435
3968.185	6157
3969.782	6274
3971.379	6209
3972.976	6279
3974.572	6162
3976.168	6182
3977.763	6108
3979.358	6172
3980.954	6102
3982.548	6163
3984.142	6138
3985.736	6182
3987.329	6114
3988.922	6229
3990.516	6052
3992.108	6165
3993.698	6122
3995.29	6080
3996.881	6139
3998.473	6036
4000.064	6095
4001.653	6161
4003.242	6099
4004.832	6003
4006.422	5940
4008.01	5987
4009.598	6097
4011.186	6014
4012.773	5973
4014.36	6052
4015.947	5976
4017.534	6059
4019.119	5987
4020.705	5952
4022.291	6025
4023.876	6014
4025.461	6042
4027.044	5927
4028.627	5890
4030.211	5896
4031.795	5952
4033.378	5922
4034.96	5995
4036.542	5877
4038.124	5958
4039.704	6006
4041.286	5784
4042.867	5905
4044.447	5831
4046.026	5924
4047.606	5760
4049.187	5808
4050.765	5888
4052.343	5807
4053.92	5891
4055.498	5809
4057.076	5796
4058.654	5770
4060.23	5799
4061.806	5723
4063.381	5839
4064.957	5870
4066.533	5779
4068.107	5741
4069.682	5860
4071.256	5740
4072.829	5742
4074.404	5826
4075.977	5755
4077.549	5739
4079.121	5801
4080.693	5757
4082.265	5718
4083.836	5819
4085.407	5774
4086.977	5725
4088.547	5685
4090.117	5725
4091.687	5760
4093.256	5761
4094.825	5696
4096.392	5716
4097.96	5754
4099.528	5682
4101.097	5680
4102.663	5727
4104.229	5628
4105.795	5661
4107.361	5615
4108.928	5658
4110.493	5668
4112.058	5691
4113.621	5599
4115.186	5584
4116.75	5666
4118.313	5679
4119.876	5601
4121.438	5592
4123	5673
4124.562	5685
4126.125	5554
4127.686	5669
4129.246	5510
4130.807	5630
4132.367	5473
4133.927	5567
4135.486	5500
4137.046	5536
4138.604	5519
4140.162	5452
4141.72	5538
4143.279	5538
4144.836	5505
4146.393	5494
4147.949	5459
4149.505	5430
4151.062	5600
4152.617	5389
4154.172	5411
4155.727	5368
4157.281	5427
4158.836	5360
4160.39	5444
4161.943	5445
4163.496	5369
4165.048	5285
4166.601	5373
4168.154	5413
4169.706	5374
4171.257	5369
4172.808	5370
4174.358	5330
4175.909	5414
4177.458	5377
4179.008	5362
4180.558	5292
4182.106	5400
4183.655	5297
4185.204	5333
4186.751	5268
4188.298	5285
4189.845	5284
4191.392	5327
4192.939	5273
4194.485	5363
4196.031	5299
4197.576	5359
4199.121	5256
4200.666	5324
4202.211	5346
4203.754	5209
4205.298	5220
4206.84	5315
4208.384	5233
4209.927	5168
4211.47	5227
4213.011	5175
4214.552	5383
4216.094	5389
4217.635	5177
4219.175	5120
4220.716	5225
4222.255	5189
4223.793	5125
4225.335	5185
4226.873	5239
4228.411	5171
4229.948	5220
4231.486	5225
4233.024	5191
4234.562	5226
4236.098	5184
4237.634	5266
4239.169	5016
4240.705	5160
4242.241	5071
4243.776	5190
4245.31	5159
4246.844	5102
4248.378	5177
4249.911	5065
4251.445	5155
4252.978	5119
4254.51	5193
4256.042	5220
4257.574	5091
4259.107	5154
4260.638	5184
4262.169	5135
4263.699	5136
4265.228	5090
4266.759	5071
4268.289	5075
4269.818	4999
4271.345	5162
4272.874	4996
4274.402	5068
4275.931	5111
4277.458	5002
4278.985	5005
4280.512	5149
4282.037	5091
4283.564	5000
4285.089	5022
4286.615	5087
4288.139	4982
4289.664	4983
4291.187	4961
4292.712	4932
4294.235	4950
4295.759	4920
4297.281	5023
4298.804	5039
4300.327	4913
4301.849	5024
4303.37	4951
4304.891	4990
4306.412	4872
4307.933	4913
4309.453	4977
4310.973	4942
4312.492	4882
