398.1873	13037
400.7097	13101
403.2336	13152
405.7547	13183
408.2751	13242
410.7948	13359
413.3138	13322
415.83	13294
418.3497	13348
420.8666	13650
423.3829	13498
425.8985	13662
428.4133	13756
430.9275	13737
433.441	13903
435.9538	13880
438.4639	13916
440.9753	14014
443.4881	14080
445.9982	13969
448.5055	13958
451.0142	14205
453.5201	14124
456.0274	14119
458.5361	14201
461.04	14079
463.5453	14073
466.0478	14339
468.5517	14145
471.0549	14240
473.5574	14257
476.0572	14284
478.5584	14319
481.0568	14260
483.5545	14396
486.0557	14477
488.5521	14468
491.0478	14563
493.5449	14598
496.0392	14791
498.5349	14638
501.0299	14740
503.5222	14717
506.0139	14727
508.5048	14895
510.9991	15105
513.4887	14795
515.9777	14752
518.4659	14841
520.9534	14913
523.4403	14770
525.9306	14799
528.4161	14950
530.9009	14915
533.3851	14906
535.8687	15005
538.3535	14989
540.8356	14835
543.3171	14832
545.7979	14880
548.278	15063
550.7595	14922
553.2383	14922
555.7144	14982
558.1918	15163
560.6685	15067
563.1446	15105
565.6221	15169
568.0968	15070
570.5688	15164
573.0422	15206
575.515	15267
577.989	15419
580.4584	15358
582.9291	15274
585.3991	15365
587.8685	15478
590.3352	15615
592.8052	15461
595.2706	15522
597.7372	15475
600.2033	15442
602.6666	15447
605.1334	15386
607.5953	15425
610.0587	15336
612.5193	15490
614.9814	15541
617.4427	15210
619.9034	15549
622.3615	15474
624.8208	15463
627.2775	15389
629.7335	15364
632.1929	15417
634.6476	15506
637.1016	15411
639.5569	15457
642.0096	15696
644.4637	15711
646.9151	15695
649.3678	15717
651.8179	15699
654.2672	15838
656.7159	15846
659.166	15940
661.6154	15886
664.0622	15760
666.5082	15901
668.9537	15807
671.4005	15874
673.8445	16070
676.288	15837
678.7308	16150
681.1729	15812
683.6163	15865
686.0572	16056
688.4973	16237
690.9368	16157
693.3757	16289
695.8138	16073
698.2534	16214
700.6902	16159
703.1245	16195
705.56	16084
707.9949	16276
710.4311	16456
712.8647	16212
715.2957	16400
717.7279	16438
720.1595	16379
722.5905	16433
725.0208	16590
727.4505	16603
729.8795	16480
732.3058	16777
734.7336	16805
737.1626	16984
739.587	16660
742.0128	16806
744.4359	16939
746.8604	16971
749.2841	16946
751.7073	17179
754.1278	16993
756.5496	17164
758.9688	17287
761.3893	17222
763.8093	17163
766.2285	17424
768.6451	17207
771.0611	17328
773.4784	17055
775.895	17292
778.3091	17180
780.7244	17074
783.1371	17299
785.5493	17379
787.9626	17275
790.3754	17398
792.7856	17442
795.1951	17293
797.6039	17425
800.0121	17443
802.4236	17280
804.8306	17431
807.2369	17500
809.6425	17509
812.0475	17396
814.4538	17549
816.8575	17316
819.2606	17439
821.663	17577
824.0648	17388
826.4659	17572
828.8683	17330
831.2682	17323
833.6674	17607
836.066	17578
838.4639	17660
840.8632	17487
843.2579	17656
845.6539	17643
848.0493	17655
850.444	17666
852.84	17640
855.2315	17633
857.6243	17840
860.0165	17730
862.4081	17722
864.797	17384
867.1892	17786
869.5789	17649
871.9659	17804
874.3542	17617
876.74	17697
879.129	17535
881.5155	17635
883.8994	17690
886.2845	17732
888.6671	17743
891.051	17582
893.4343	17573
895.8169	17634
898.197	17469
900.5783	17761
902.9571	17591
905.3372	17715
907.7167	17891
910.0936	17854
912.4698	17938
914.8474	17923
917.2244	17918
919.5987	17962
921.9744	17997
924.3475	18206
926.72	18244
929.0918	18175
931.4669	18293
933.8375	18245
936.2074	18371
938.5767	18387
940.9454	18513
943.3154	18515
945.6829	18822
948.0497	18947
950.4178	19090
952.7833	19464
955.1483	19806
957.5145	20376
959.8782	20208
962.2412	20364
964.6036	20103
966.9655	19757
969.3266	19254
971.6871	18866
974.0471	18633
976.4064	18546
978.765	18519
981.125	18282
983.4824	18252
985.8373	18098
988.1935	18200
990.549	18299
992.9039	18412
995.2602	18317
997.6119	18136
999.965	17948
1002.317	18143
1004.667	18158
1007.02	18318
1009.371	18046
1011.719	18438
1014.068	18238
1016.415	18345
1018.765	18178
1021.111	18256
1023.458	18250
1025.804	18374
1028.147	18379
1030.49	18479
1032.837	18541
1035.179	18494
1037.522	18428
1039.862	18644
1042.204	18671
1044.546	18746
1046.884	18463
1049.224	18315
1051.562	18309
1053.899	18519
1056.237	18454
1058.575	18410
1060.91	18621
1063.244	18617
1065.58	18785
1067.913	18982
1070.248	18777
1072.579	18724
1074.911	18817
1077.242	18677
1079.572	18786
1081.905	18811
1084.234	18640
1086.562	18701
1088.89	18736
1091.217	18600
1093.544	18954
1095.871	18573
1098.197	18782
1100.521	18548
1102.845	18631
1105.169	18808
1107.491	18572
1109.814	18784
1112.135	18827
1114.456	18912
1116.776	18745
1119.096	18780
1121.415	18813
1123.734	18967
1126.052	18829
1128.369	18831
1130.686	18747
1133.002	18743
1135.318	19025
1137.632	18799
1139.945	18894
1142.258	18784
1144.573	18764
1146.884	18872
1149.196	18771
1151.505	18991
1153.816	18895
1156.124	18898
1158.435	18765
1160.742	18982
1163.051	18927
1165.356	19090
1167.663	19124
1169.97	18808
1172.276	18983
1174.579	18887
1176.881	19001
1179.186	18630
1181.487	18807
1183.79	18746
1186.092	18767
1188.392	18713
1190.691	18738
1192.991	18964
1195.291	18886
1197.588	18925
1199.885	18753
1202.181	18891
1204.479	18876
1206.775	18801
1209.07	18901
1211.363	18874
1213.656	18856
1215.949	18863
1218.241	18908
1220.534	19064
1222.825	18976
1225.115	19243
1227.405	18903
1229.693	19224
1231.984	19186
1234.271	19420
1236.558	19271
1238.845	19309
1241.131	19408
1243.416	19292
1245.703	19204
1247.987	19208
1250.269	19363
1252.552	19458
1254.834	19396
1257.118	19361
1259.399	19269
1261.678	19291
1263.958	19400
1266.237	19225
1268.516	19286
1270.794	19297
1273.072	19512
1275.347	19269
1277.624	19292
1279.899	19258
1282.175	19412
1284.449	19309
1286.722	19374
1288.995	19218
1291.266	19148
1293.54	19355
1295.81	19168
1298.081	19154
1300.35	19172
1302.62	18880
1304.889	19304
1307.156	19194
1309.425	18992
1311.69	19269
1313.957	18976
1316.222	19213
1318.488	19362
1320.751	19244
1323.016	19159
1325.278	18994
1327.54	19153
1329.803	19237
1332.065	19271
1334.325	19153
1336.584	19475
1338.843	19312
1341.101	19127
1343.36	19402
1345.617	19476
1347.876	19330
1350.131	19123
1352.387	19245
1354.643	19352
1356.897	19243
1359.151	19231
1361.403	19263
1363.656	19265
1365.909	19429
1368.16	19448
1370.409	19451
1372.659	19318
1374.909	19381
1377.157	19160
1379.407	19223
1381.655	19388
1383.9	19491
1386.147	19460
1388.393	19321
1390.64	19563
1392.885	19470
1395.127	19431
1397.37	19433
1399.614	19548
1401.854	19439
1404.098	19470
1406.339	19553
1408.578	19261
1410.818	19625
1413.056	19656
1415.297	19711
1417.533	19586
1419.771	19514
1422.006	19706
1424.243	19749
1426.479	19636
1428.715	19720
1430.948	19746
1433.182	19856
1435.414	19656
1437.647	19831
1439.88	19888
1442.11	19860
1444.342	19870
1446.571	19680
1448.799	19801
1451.029	20200
1453.258	19904
1455.485	20074
1457.711	19910
1459.937	19938
1462.164	19990
1464.39	19967
1466.614	19804
1468.838	19944
1471.06	19866
1473.283	19648
1475.506	19699
1477.727	19446
1479.949	19677
1482.169	19676
1484.389	19394
1486.609	19680
1488.828	19649
1491.045	19723
1493.261	19331
1495.477	19478
1497.693	19382
1499.91	19573
1502.125	19262
1504.339	19347
1506.553	19328
1508.766	19308
1510.979	19113
1513.191	19378
1515.402	19468
1517.613	19289
1519.823	19189
1522.033	19525
1524.242	19482
1526.451	19255
1528.657	19455
1530.865	19541
1533.072	19514
1535.278	19253
1537.484	19504
1539.687	19544
1541.892	19540
1544.096	19374
1546.299	19302
1548.502	19609
1550.703	19653
1552.905	19761
1555.104	19608
1557.303	19756
1559.505	19699
1561.703	19650
1563.902	19772
1566.099	20009
1568.295	19757
1570.494	19764
1572.689	19746
1574.883	19619
1577.079	19820
1579.272	19867
1581.467	19979
1583.659	19863
1585.853	19953
1588.044	19829
1590.234	20037
1592.424	20039
1594.615	20153
1596.806	20115
1598.994	20195
1601.182	20014
1603.369	20181
1605.557	19969
1607.744	20231
1609.929	20087
1612.114	19990
1614.298	20093
1616.482	20014
1618.667	19992
1620.85	20127
1623.032	20064
1625.214	20171
1627.395	19937
1629.575	20102
1631.755	20473
1633.935	19957
1636.114	20054
1638.292	20151
1640.471	20211
1642.647	20228
1644.823	20161
1647	19933
1649.175	20074
1651.348	20080
1653.525	20259
1655.698	20118
1657.87	20420
1660.043	20172
1662.213	20329
1664.387	20309
1666.558	20061
1668.727	20089
1670.896	20182
1673.064	20272
1675.233	20253
1677.401	20266
1679.569	20097
1681.735	20208
1683.902	20272
1686.066	20216
1688.233	20244
1690.397	20305
1692.559	20111
1694.723	19923
1696.885	20156
1699.048	19968
1701.21	20452
1703.37	20099
1705.53	20118
1707.689	20109
1709.849	20042
1712.009	20100
1714.166	19983
1716.323	19956
1718.479	19828
1720.634	19998
1722.793	19999
1724.948	20150
1727.102	20231
1729.255	20123
1731.408	20054
1733.562	20181
1735.714	19829
1737.865	19903
1740.016	20172
1742.166	20034
1744.316	20095
1746.467	20024
1748.616	20136
1750.764	20059
1752.911	20185
1755.056	20103
1757.205	20058
1759.35	20107
1761.496	20148
1763.641	20130
1765.785	20195
1767.927	20445
1770.072	20202
1772.214	20048
1774.355	20203
1776.496	20249
1778.637	20238
1780.778	20254
1782.918	20188
1785.057	20359
1787.194	20230
1789.333	20454
1791.472	20169
1793.608	20262
1795.745	20394
1797.879	20343
1800.015	20244
1802.148	20441
1804.284	20128
1806.417	20319
1808.548	20193
1810.682	20354
1812.812	20438
1814.946	20036
1817.075	20237
1819.205	20374
1821.335	20533
1823.463	20248
1825.59	20216
1827.721	20067
1829.847	20400
1831.973	20225
1834.098	20223
1836.223	20056
1838.351	20172
1840.475	20195
1842.598	20080
1844.721	20056
1846.843	20097
1848.966	20177
1851.087	20078
1853.21	20020
1855.33	20195
1857.449	19903
1859.568	20014
1861.688	20175
1863.806	20032
1865.924	19889
1868.039	20060
1870.155	19919
1872.273	20287
1874.388	19945
1876.503	19943
1878.617	20100
1880.73	20027
1882.844	20006
1884.956	20220
1887.068	20176
1889.18	20155
1891.291	20174
1893.4	20219
1895.511	20072
1897.621	19869
1899.73	19990
1901.837	20145
1903.944	20236
1906.053	20351
1908.159	20139
1910.265	20209
1912.369	20411
1914.474	20212
1916.577	20497
1918.683	20295
1920.785	20328
1922.888	20493
1924.989	20332
1927.091	20462
1929.193	20447
1931.294	20257
1933.393	20481
1935.493	20475
1937.59	20376
1939.689	20305
1941.788	20405
1943.884	20232
1945.98	20365
1948.077	20278
1950.171	20439
1952.267	20370
1954.361	20298
1956.455	20176
1958.548	20440
1960.64	20312
1962.733	20395
1964.824	20218
1966.915	20279
1969.005	20289
1971.096	20129
1973.185	20337
1975.275	20305
1977.363	20139
1979.45	20112
1981.537	20156
1983.623	20328
1985.711	20130
1987.796	20176
1989.881	20168
1991.965	20114
1994.047	19989
1996.132	20181
1998.215	19881
2000.297	19940
2002.378	20246
2004.46	19916
2006.54	20028
2008.62	20154
2010.7	20179
2012.779	20009
2014.858	19999
2016.934	20171
2019.013	20084
2021.09	19988
2023.165	20144
2025.241	20151
2027.317	20097
2029.39	19954
2031.466	20008
2033.538	20083
2035.612	19885
2037.683	20185
2039.755	20039
2041.827	19875
2043.898	20036
2045.968	20120
2048.038	19857
2050.106	20103
2052.177	20139
2054.244	20152
2056.313	20164
2058.379	20100
2060.444	20148
2062.511	20224
2064.577	20063
2066.641	20191
2068.705	20226
2070.77	20102
2072.832	20096
2074.896	19795
2076.958	20334
2079.02	20054
2081.081	20214
2083.141	20209
2085.2	20068
2087.261	20034
2089.319	19964
2091.377	19857
2093.435	20127
2095.492	20134
2097.552	19972
2099.607	20350
2101.663	20275
2103.718	19974
2105.771	20035
2107.826	20049
2109.879	20076
2111.932	20043
2113.985	20203
2116.037	20076
2118.088	19883
2120.141	19880
2122.191	20211
2124.239	20001
2126.288	20120
2128.337	20147
2130.387	20091
2132.434	20044
2134.481	20046
2136.528	20069
2138.574	19944
2140.618	19957
2142.665	19922
2144.71	19948
2146.753	19920
2148.797	20229
2150.838	19804
2152.883	19849
2154.923	19691
2156.965	19892
2159.007	19694
2161.046	19866
2163.086	19683
2165.126	19845
2167.163	19825
2169.202	19979
2171.239	19885
2173.277	19848
2175.314	19731
2177.349	19673
2179.385	19777
2181.42	19912
2183.453	19641
2185.49	19714
2187.522	19499
2189.555	19675
2191.586	19652
2193.619	19665
2195.651	19535
2197.682	19602
2199.711	19592
2201.74	19328
2203.769	19552
2205.799	19530
2207.828	19732
2209.855	19402
2211.882	19532
2213.908	19432
2215.934	19480
2217.961	19538
2219.986	19370
2222.01	19465
2224.034	19411
2226.057	19353
2228.08	19332
2230.104	19407
2232.124	19506
2234.145	19401
2236.166	19261
2238.186	19332
2240.207	19413
2242.227	19377
2244.244	19235
2246.262	19182
2248.28	19333
2250.299	19450
2252.314	19527
2254.33	19417
2256.346	19500
2258.36	19347
2260.375	19533
2262.391	19193
2264.403	19221
2266.416	19367
2268.427	19281
2270.44	19434
2272.453	19374
2274.463	19276
2276.474	19376
2278.483	19113
2280.493	19407
2282.501	19592
2284.51	19597
2286.518	19214
2288.524	19503
2290.532	19393
2292.537	19285
2294.544	19324
2296.55	19455
2298.554	19318
2300.557	19406
2302.562	19256
2304.566	19420
2306.568	19351
2308.569	19198
2310.572	19370
2312.573	19349
2314.573	19283
2316.574	19112
2318.573	19052
2320.571	19250
2322.571	19178
2324.569	19265
2326.567	19288
2328.564	19314
2330.56	18927
2332.556	19105
2334.551	19042
2336.546	19052
2338.542	19073
2340.535	19043
2342.529	18918
2344.521	18928
2346.512	19003
2348.505	18970
2350.497	19004
2352.487	18998
2354.478	19011
2356.468	18901
2358.457	18897
2360.446	18854
2362.434	18927
2364.422	18987
2366.408	19118
2368.395	18796
2370.383	18913
2372.369	18887
2374.353	18938
2376.338	18774
2378.321	18814
2380.307	18846
2382.29	18775
2384.272	18935
2386.254	18639
2388.235	18861
2390.218	18769
2392.198	18615
2394.179	18900
2396.157	18650
2398.137	18930
2400.115	18649
2402.095	18837
2404.072	18649
2406.048	18773
2408.026	18632
2410.001	18668
2411.977	18768
2413.953	18619
2415.927	18583
2417.9	18747
2419.875	18610
2421.847	18697
2423.821	18375
2425.792	18734
2427.763	18803
2429.736	18610
2431.706	18692
2433.677	18413
2435.646	18424
2437.615	18566
2439.583	18542
2441.551	18586
2443.519	18573
2445.486	18627
2447.452	18616
2449.418	18618
2451.383	18407
2453.348	18529
2455.314	18555
2457.278	18622
2459.241	18416
2461.205	18274
2463.167	18558
2465.131	18443
2467.091	18428
2469.052	18286
2471.012	18574
2472.972	18527
2474.932	18434
2476.891	18249
2478.85	18414
2480.808	18278
2482.766	18311
2484.722	18306
2486.68	18172
2488.636	18549
2490.591	18288
2492.546	18340
2494.5	18237
2496.456	18303
2498.41	18215
2500.362	18282
2502.315	18177
2504.266	18541
2506.218	18281
2508.169	18269
2510.121	18081
2512.07	18041
2514.019	18140
2515.968	18073
2517.918	18132
2519.866	18022
2521.813	18305
2523.76	17944
2525.707	18286
2527.653	18111
2529.599	18069
2531.543	18157
2533.489	18056
2535.433	17905
2537.376	18141
2539.32	18097
2541.264	18024
2543.205	18078
2545.147	18164
2547.087	18283
2549.029	18094
2550.969	18175
2552.908	18081
2554.847	18162
2556.786	17974
2558.724	18131
2560.663	17958
2562.6	18004
2564.537	18081
2566.473	18049
2568.408	18195
2570.345	18097
2572.28	18174
2574.214	18026
2576.148	18099
2578.081	18004
2580.014	18026
2581.947	18122
2583.879	18174
2585.81	18178
2587.741	18255
2589.67	18196
2591.602	18218
2593.532	18222
2595.461	18096
2597.388	18305
2599.316	18106
2601.244	17941
2603.172	18121
2605.098	17942
2607.023	18164
2608.949	18050
2610.873	18093
2612.8	18153
2614.723	18052
2616.647	18047
2618.569	17949
2620.493	18096
2622.416	18214
2624.338	18133
2626.258	18072
2628.179	18206
2630.099	17999
2632.019	18105
2633.939	18056
2635.857	18168
2637.775	18194
2639.694	18182
2641.61	17978
2643.528	18279
2645.444	18244
2647.361	18018
2649.276	18259
2651.19	18048
2653.105	17873
2655.019	17980
2656.934	17816
2658.846	18209
2660.758	18046
2662.67	18094
2664.583	18128
2666.493	17965
2668.404	17920
2670.313	17937
2672.223	18097
2674.134	17990
2676.042	18075
2677.95	18031
2679.858	17910
2681.765	17838
2683.673	17746
2685.579	17962
2687.483	17927
2689.389	17803
2691.294	17991
2693.198	17859
2695.104	17788
2697.006	17946
2698.909	17831
2700.811	17900
2702.713	17726
2704.615	17880
2706.516	17746
2708.417	17612
2710.316	17796
2712.216	17545
2714.115	17792
2716.014	17666
2717.913	17682
2719.81	17778
2721.707	17741
2723.603	17588
2725.501	17799
2727.396	17584
2729.292	17623
2731.186	17609
2733.081	17505
2734.976	17674
2736.87	17664
2738.762	17706
2740.653	17484
2742.546	17671
2744.437	17450
2746.329	17623
2748.22	17731
2750.11	17651
2751.999	17378
2753.889	17624
2755.778	17535
2757.666	17636
2759.553	17426
2761.44	17620
2763.328	17327
2765.215	17521
2767.101	17296
2768.986	17458
2770.87	17452
2772.754	17559
2774.638	17585
2776.523	17421
2778.405	17395
2780.288	17452
2782.17	17348
2784.051	17242
2785.934	17453
2787.814	17266
2789.694	17412
2791.574	17474
2793.453	17336
2795.332	17357
2797.212	17416
2799.088	17093
2800.966	17315
2802.843	17190
2804.719	17324
2806.597	17319
2808.471	17268
2810.346	17288
2812.221	17213
2814.094	17198
2815.969	17283
2817.843	17309
2819.714	17195
2821.587	17236
2823.459	17224
2825.329	17143
2827.202	17253
2829.072	17168
2830.942	17194
2832.811	17143
2834.68	17252
2836.549	17272
2838.418	17067
2840.284	17066
2842.152	16905
2844.018	17082
2845.885	17141
2847.751	17249
2849.616	17152
2851.482	17126
2853.345	17106
2855.208	17182
2857.074	17152
2858.937	17236
2860.799	17168
2862.66	17179
2864.522	17328
2866.385	17106
2868.245	17284
2870.104	17426
2871.964	17064
2873.824	17501
2875.683	17550
2877.542	17416
2879.4	17588
2881.257	17363
2883.114	17466
2884.97	17449
2886.827	17383
2888.683	17466
2890.537	17454
2892.392	17409
2894.246	17385
2896.1	17554
2897.954	17533
2899.807	17345
2901.66	17461
2903.51	17268
2905.362	17276
2907.214	17300
2909.065	17450
2910.915	17468
2912.765	17493
2914.613	17500
2916.463	17630
2918.311	17676
2920.158	17675
2922.006	17751
2923.853	17816
2925.698	17883
2927.546	17870
2929.392	17731
2931.236	18131
2933.081	18151
2934.924	18165
2936.77	18181
2938.613	18178
2940.455	18300
2942.298	18276
2944.139	18121
2945.982	18087
2947.823	18079
2949.662	18209
2951.503	18124
2953.342	17930
2955.182	17905
2957.021	17594
2958.858	17786
2960.697	17589
2962.534	17497
2964.37	17778
2966.207	17595
2968.044	17240
2969.879	17541
2971.714	17419
2973.548	17286
2975.383	17369
2977.218	17377
2979.051	17578
2980.883	17170
2982.715	17263
2984.547	17254
2986.379	17290
2988.21	17200
2990.04	17153
2991.87	17035
2993.7	16915
2995.53	17201
2997.359	16917
2999.187	16957
3001.015	16874
3002.842	16845
3004.669	16674
3006.497	16688
3008.323	16415
3010.148	16437
3011.974	16449
3013.797	16246
3015.623	16318
3017.447	16311
3019.27	16303
3021.094	16381
3022.915	16251
3024.737	16211
3026.56	16234
3028.38	16269
3030.201	16109
3032.022	16184
3033.84	16231
3035.662	16069
3037.481	15985
3039.298	16115
3041.117	16063
3042.933	16132
3044.752	15952
3046.568	16062
3048.385	15968
3050.2	15968
3052.016	15986
3053.83	15930
3055.646	16099
3057.46	16095
3059.272	15957
3061.086	15860
3062.898	16042
3064.711	16043
3066.524	16123
3068.335	15986
3070.145	15845
3071.956	15826
3073.766	15881
3075.576	15717
3077.385	15667
3079.193	15984
3081.002	15785
3082.81	15530
3084.618	15734
3086.425	15836
3088.231	15964
3090.036	15422
3091.842	15676
3093.648	15586
3095.452	15645
3097.257	15664
3099.06	15481
3100.863	15493
3102.666	15600
3104.47	15609
3106.272	15634
3108.073	15509
3109.875	15595
3111.676	15498
3113.477	15333
3115.277	15606
3117.077	15412
3118.874	15354
3120.673	15448
3122.473	15131
3124.271	15194
3126.066	15440
3127.863	15251
3129.66	15470
3131.456	15382
3133.252	15310
3135.047	15391
3136.842	15280
3138.635	15212
3140.429	14982
3142.223	15152
3144.016	15273
3145.808	15121
3147.6	14987
3149.392	15075
3151.183	14999
3152.975	14986
3154.765	14997
3156.553	14924
3158.344	14994
3160.132	14933
3161.922	15020
3163.71	14950
3165.497	14912
3167.285	14933
3169.071	14989
3170.858	14997
3172.645	14863
3174.429	14814
3176.214	14854
3177.998	15105
3179.783	14758
3181.568	14784
3183.351	14983
3185.133	14680
3186.915	14900
3188.698	14854
3190.481	14530
3192.261	14754
3194.042	14733
3195.822	14773
3197.601	14734
3199.381	14714
3201.161	14777
3202.939	14726
3204.717	14646
3206.495	14766
3208.272	14662
3210.05	14743
3211.826	14614
3213.602	14691
3215.376	14585
3217.151	14666
3218.927	14705
3220.702	14517
3222.476	14691
3224.249	14611
3226.021	14730
3227.793	14468
3229.567	14675
3231.339	14496
3233.109	14639
3234.88	14554
3236.651	14535
3238.421	14409
3240.191	14854
3241.96	14507
3243.728	14554
3245.497	14524
3247.263	14541
3249.033	14503
3250.799	14371
3252.566	14681
3254.331	14608
3256.097	14459
3257.863	14605
3259.628	14735
3261.392	14584
3263.156	14367
3264.919	14373
3266.683	14389
3268.447	14592
3270.208	14415
3271.969	14389
3273.731	14425
3275.492	14497
3277.253	14433
3279.013	14544
3280.773	14426
3282.532	14503
3284.291	14392
3286.05	14582
3287.808	14394
3289.566	14426
3291.323	14481
3293.079	14493
3294.835	14445
3296.593	14326
3298.348	14553
3300.102	14436
3301.857	14416
3303.611	14363
3305.366	14465
3307.119	14290
3308.872	14461
3310.624	14394
3312.376	14486
3314.129	14294
3315.881	14463
3317.631	14432
3319.38	14289
3321.13	14281
3322.88	14178
3324.631	14375
3326.379	14425
3328.126	14433
3329.875	14166
3331.622	14232
3333.371	14547
3335.116	14269
3336.863	14090
3338.609	14379
3340.353	14280
3342.1	14130
3343.845	14362
3345.588	14234
3347.332	14023
3349.074	14135
3350.817	14015
3352.56	14155
3354.303	14219
3356.043	14035
3357.785	14147
3359.525	14086
3361.268	13878
3363.007	14201
3364.745	14107
3366.485	14007
3368.223	14023
3369.962	14002
3371.701	13955
3373.438	14001
3375.174	14153
3376.911	13890
3378.647	13911
3380.384	14004
3382.118	13863
3383.854	13867
3385.588	13909
3387.322	13963
3389.057	13886
3390.79	13911
3392.522	13772
3394.255	13749
3395.987	13891
3397.719	13763
3399.451	13916
3401.181	13932
3402.911	13869
3404.641	14025
3406.371	13706
3408.101	13786
3409.83	13657
3411.558	13822
3413.285	13792
3415.011	13940
3416.739	13736
3418.467	13685
3420.193	13759
3421.919	13691
3423.644	13731
3425.368	13795
3427.094	13807
3428.818	13627
3430.542	13746
3432.264	13624
3433.987	13535
3435.712	13516
3437.434	13594
3439.155	13598
3440.876	13439
3442.596	13486
3444.317	13640
3446.039	13420
3447.757	13678
3449.477	13534
3451.195	13415
3452.914	13458
3454.632	13429
3456.35	13520
3458.067	13399
3459.784	13381
3461.5	13487
3463.216	13436
3464.932	13297
3466.647	13262
3468.362	13234
3470.076	13076
3471.789	13239
3473.505	13375
3475.217	13061
3476.929	13270
3478.641	13191
3480.354	13203
3482.066	13181
3483.777	13256
3485.487	13198
3487.197	13150
3488.908	13028
3490.617	13173
3492.327	13019
3494.035	13073
3495.743	13113
3497.451	12906
3499.158	12908
3500.866	13126
3502.572	12875
3504.278	12862
3505.984	12978
3507.689	12844
3509.396	12942
3511.1	13020
3512.804	13060
3514.508	12925
3516.211	12859
3517.913	12974
3519.616	12914
3521.319	12912
3523.021	12897
3524.722	13089
3526.422	12812
3528.124	12855
3529.824	12817
3531.524	12871
3533.222	12936
3534.921	12831
3536.62	12857
3538.318	12703
3540.016	12819
3541.714	12497
3543.41	12881
3545.107	12717
3546.803	12627
3548.5	12685
3550.194	12820
3551.889	12773
3553.583	12742
3555.279	12619
3556.972	12750
3558.666	12653
3560.358	12618
3562.051	12712
3563.742	12641
3565.435	12522
3567.126	12637
3568.817	12647
3570.507	12675
3572.197	12695
3573.888	12575
3575.577	12467
3577.265	12510
3578.954	12527
3580.642	12590
3582.329	12401
3584.017	12567
3585.704	12533
3587.391	12536
3589.077	12528
3590.762	12392
3592.449	12468
3594.133	12339
3595.817	12204
3597.501	12460
3599.185	12328
3600.869	12277
3602.552	12232
3604.234	12228
3605.916	12436
3607.598	12165
3609.279	12249
3610.961	12181
3612.642	12306
3614.321	12277
3616	12113
3617.68	12271
3619.36	12207
3621.039	12037
3622.716	12045
3624.394	12147
3626.071	12195
3627.748	12169
3629.425	12027
3631.102	11972
3632.778	12091
3634.452	11964
3636.127	12109
3637.803	11978
3639.477	12016
3641.151	11896
3642.823	11937
3644.497	11963
3646.171	11940
3647.842	12028
3649.515	11695
3651.185	11921
3652.857	11912
3654.527	11908
3656.198	11890
3657.868	11812
3659.537	11778
3661.207	11819
3662.875	11661
3664.544	11921
3666.212	11731
3667.879	11930
3669.546	11713
3671.212	11762
3672.88	11768
3674.546	11583
3676.211	11690
3677.875	11635
3679.541	11616
3681.205	11783
3682.87	11774
3684.533	11812
3686.196	11702
3687.859	11712
3689.521	11601
3691.184	11803
3692.845	11818
3694.507	11622
3696.167	11787
3697.827	11708
3699.487	11791
3701.148	11656
3702.808	11579
3704.466	11515
3706.125	11474
3707.783	11680
3709.442	11661
3711.099	11649
3712.757	11644
3714.412	11492
3716.068	11520
3717.725	11521
3719.381	11581
3721.036	11375
3722.689	11526
3724.344	11671
3725.998	11504
3727.652	11475
3729.305	11520
3730.958	11395
3732.61	11368
3734.262	11256
3735.915	11577
3737.565	11434
3739.217	11574
3740.866	11319
3742.516	11382
3744.165	11393
3745.816	11343
3747.464	11426
3749.113	11371
3750.761	11370
3752.409	11478
3754.057	11463
3755.703	11317
3757.35	11351
3758.996	11276
3760.641	11331
3762.289	11279
3763.933	11224
3765.577	11241
3767.222	11099
3768.865	11219
3770.508	11229
3772.152	11152
3773.796	11252
3775.438	11252
3777.079	11241
3778.721	11014
3780.363	11139
3782.003	11179
3783.643	11230
3785.283	11167
3786.923	11230
3788.563	11191
3790.203	11139
3791.841	11056
3793.479	10972
3795.115	11189
3796.753	11028
3798.391	10991
3800.027	10979
3801.664	11037
3803.299	10937
3804.935	10946
3806.571	11051
3808.206	11064
3809.839	10963
3811.473	10911
3813.107	10882
3814.74	10815
3816.375	10876
3818.006	10919
3819.638	10827
3821.27	10792
3822.9	10817
3824.532	10825
3826.163	10852
3827.792	10774
3829.423	10635
3831.051	10750
3832.682	10795
3834.311	10735
3835.938	10809
3837.566	10671
3839.193	10815
3840.821	10676
3842.448	10625
3844.075	10676
3845.7	10753
3847.325	10640
3848.951	10625
3850.576	10719
3852.201	10661
3853.825	10539
3855.448	10702
3857.072	10654
3858.694	10470
3860.318	10688
3861.939	10493
3863.562	10629
3865.183	10450
3866.804	10492
3868.426	10599
3870.045	10465
3871.666	10464
3873.285	10442
3874.904	10376
3876.524	10587
3878.142	10594
3879.76	10576
3881.378	10432
3882.995	10491
3884.612	10401
3886.229	10277
3887.845	10485
3889.461	10517
3891.076	10458
3892.691	10491
3894.307	10424
3895.922	10510
3897.536	10417
3899.149	10357
3900.761	10275
3902.374	10406
3903.988	10564
3905.6	10353
3907.212	10446
3908.822	10252
3910.433	10317
3912.045	10338
3913.655	10397
3915.265	10288
3916.875	10296
3918.483	10294
3920.093	10254
3921.702	10284
3923.309	10113
3924.917	10276
3926.523	10281
3928.13	10323
3929.739	10344
3931.344	10174
3932.95	10309
3934.555	10229
3936.159	10085
3937.766	10181
3939.369	10264
3940.974	10356
3942.577	10176
3944.181	10190
3945.783	10101
3947.386	10195
3948.989	10218
3950.59	10141
3952.191	10349
3953.791	10179
3955.394	10080
3956.994	10091
3958.593	10151
3960.192	9973
3961.791	10028
3963.392	10242
3964.99	10040
3966.588	9960
3968.185	10074
3969.782	9952
3971.379	10033
3972.976	10118
3974.572	9965
3976.168	10014
3977.763	9952
3979.358	10018
3980.954	9920
3982.548	9989
3984.142	9827
3985.736	9820
3987.329	9845
3988.922	9829
3990.516	9790
3992.108	9794
3993.698	9777
3995.29	9829
3996.881	9815
3998.473	9800
4000.064	9711
4001.653	9794
4003.242	9681
4004.832	9598
4006.422	9821
4008.01	9805
4009.598	9608
4011.186	9710
4012.773	9684
4014.36	9623
4015.947	9643
4017.534	9660
4019.119	9701
4020.705	9544
4022.291	9647
4023.876	9494
4025.461	9432
4027.044	9436
4028.627	9497
4030.211	9545
4031.795	9534
4033.378	9563
4034.96	9459
4036.542	9427
4038.124	9427
4039.704	9512
4041.286	9354
4042.867	9505
4044.447	9352
4046.026	9436
4047.606	9521
4049.187	9272
4050.765	9205
4052.343	9380
4053.92	9424
4055.498	9306
4057.076	9312
4058.654	9346
4060.23	9351
4061.806	9313
4063.381	9281
4064.957	9207
4066.533	9128
4068.107	9413
4069.682	9263
4071.256	9280
4072.829	9207
4074.404	9266
4075.977	9170
4077.549	9292
4079.121	9200
4080.693	9263
4082.265	9120
4083.836	9226
4085.407	9160
4086.977	9164
4088.547	9132
4090.117	9126
4091.687	9114
4093.256	9004
4094.825	8995
4096.392	9147
4097.96	9104
4099.528	9205
4101.097	9154
4102.663	9100
4104.229	8938
4105.795	9117
4107.361	8994
4108.928	9149
4110.493	9059
4112.058	8914
4113.621	8913
4115.186	8974
4116.75	8959
4118.313	8975
4119.876	8912
4121.438	8971
4123	9017
4124.562	8937
4126.125	8886
4127.686	8956
4129.246	8903
4130.807	8909
4132.367	8863
4133.927	8844
4135.486	8754
4137.046	8849
4138.604	8971
4140.162	8827
4141.72	8747
4143.279	8780
4144.836	8590
4146.393	8894
4147.949	8645
4149.505	8714
4151.062	8750
4152.617	8731
4154.172	8739
4155.727	8722
4157.281	8698
4158.836	8793
4160.39	8583
4161.943	8659
4163.496	8660
4165.048	8647
4166.601	8587
4168.154	8583
4169.706	8589
4171.257	8551
4172.808	8546
4174.358	8543
4175.909	8471
4177.458	8420
4179.008	8540
4180.558	8479
4182.106	8438
4183.655	8599
4185.204	8531
4186.751	8346
4188.298	8522
4189.845	8392
4191.392	8530
4192.939	8523
4194.485	8547
4196.031	8424
4197.576	8418
4199.121	8443
4200.666	8342
4202.211	8177
4203.754	8271
4205.298	8419
4206.84	8410
4208.384	8293
4209.927	8419
4211.47	8259
4213.011	8349
4214.552	8276
4216.094	8274
4217.635	8314
4219.175	8304
4220.716	8271
4222.255	8205
4223.793	8320
4225.335	8279
4226.873	8159
4228.411	8316
4229.948	8169
4231.486	8220
4233.024	8283
4234.562	8169
4236.098	8232
4237.634	8207
4239.169	8148
4240.705	8258
4242.241	8291
4243.776	8117
4245.31	8224
4246.844	8110
4248.378	8103
4249.911	8189
4251.445	8176
4252.978	8140
4254.51	8179
4256.042	8134
4257.574	8119
4259.107	8085
4260.638	8051
4262.169	8051
4263.699	8115
4265.228	8143
4266.759	8048
4268.289	7937
4269.818	8137
4271.345	8056
4272.874	8054
4274.402	8071
4275.931	7971
4277.458	8025
4278.985	8105
4280.512	7844
4282.037	7910
4283.564	8033
4285.089	7991
4286.615	7950
4288.139	8013
4289.664	7853
4291.187	7954
4292.712	7876
4294.235	7780
4295.759	7885
4297.281	7813
4298.804	7900
4300.327	7794
4301.849	7886
4303.37	7876
4304.891	7721
4306.412	7944
4307.933	7869
4309.453	7932
4310.973	7887
4312.492	7764
