398.1873	5151
400.7097	5203
403.2336	5140
405.7547	5146
408.2751	5162
410.7948	5199
413.3138	5174
415.83	5262
418.3497	5333
420.8666	5325
423.3829	5310
425.8985	5455
428.4133	5334
430.9275	5418
433.441	5437
435.9538	5426
438.4639	5443
440.9753	5390
443.4881	5508
445.9982	5436
448.5055	5505
451.0142	5522
453.5201	5424
456.0274	5543
458.5361	5476
461.04	5508
463.5453	5550
466.0478	5482
468.5517	5507
471.0549	5525
473.5574	5568
476.0572	5529
478.5584	5573
481.0568	5496
483.5545	5584
486.0557	5623
488.5521	5623
491.0478	5683
493.5449	5720
496.0392	5655
498.5349	5721
501.0299	5656
503.5222	5705
506.0139	5678
508.5048	5652
510.9991	5743
513.4887	5737
515.9777	5762
518.4659	5756
520.9534	5771
523.4403	5637
525.9306	5699
528.4161	5847
530.9009	5724
533.3851	5800
535.8687	5832
538.3535	5758
540.8356	5718
543.3171	5885
545.7979	5767
548.278	5735
550.7595	5691
553.2383	5698
555.7144	5804
558.1918	5900
560.6685	5773
563.1446	5815
565.6221	5969
568.0968	5821
570.5688	5888
573.0422	5863
575.515	5894
577.989	5984
580.4584	5982
582.9291	5845
585.3991	5915
587.8685	6007
590.3352	5998
592.8052	5894
595.2706	5931
597.7372	5984
600.2033	6039
602.6666	5969
605.1334	5943
607.5953	5917
610.0587	5920
612.5193	5933
614.9814	5926
617.4427	5900
619.9034	5904
622.3615	6057
624.8208	5929
627.2775	5942
629.7335	5976
632.1929	5997
634.6476	6006
637.1016	5940
639.5569	5908
642.0096	6025
644.4637	6010
646.9151	6043
649.3678	5997
651.8179	5987
654.2672	6021
656.7159	5977
659.166	6148
661.6154	6160
664.0622	6041
666.5082	6072
668.9537	6106
671.4005	6185
673.8445	6120
676.288	6219
678.7308	6169
681.1729	6207
683.6163	6163
686.0572	6111
688.4973	6290
690.9368	6150
693.3757	6175
695.8138	6219
698.2534	6154
700.6902	6192
703.1245	6169
705.56	6260
707.9949	6234
710.4311	6206
712.8647	6316
715.2957	6256
717.7279	6328
720.1595	6275
722.5905	6301
725.0208	6374
727.4505	6303
729.8795	6395
732.3058	6409
734.7336	6353
737.1626	6405
739.587	6337
742.0128	6473
744.4359	6445
746.8604	6312
749.2841	6548
751.7073	6531
754.1278	6465
756.5496	6498
758.9688	6566
761.3893	6558
763.8093	6531
766.2285	6634
768.6451	6661
771.0611	6480
773.4784	6653
775.895	6597
778.3091	6598
780.7244	6691
783.1371	6589
785.5493	6624
787.9626	6562
790.3754	6754
792.7856	6696
795.1951	6644
797.6039	6662
800.0121	6664
802.4236	6664
804.8306	6558
807.2369	6569
809.6425	6668
812.0475	6603
814.4538	6785
816.8575	6636
819.2606	6662
821.663	6644
824.0648	6760
826.4659	6683
828.8683	6682
831.2682	6623
833.6674	6714
836.066	6710
838.4639	6723
840.8632	6781
843.2579	6649
845.6539	6876
848.0493	6781
850.444	6801
852.84	6877
855.2315	6803
857.6243	6728
860.0165	6690
862.4081	6849
864.797	6747
867.1892	6814
869.5789	6862
871.9659	6860
874.3542	6867
876.74	6766
879.129	6849
881.5155	6813
883.8994	6821
886.2845	6745
888.6671	6696
891.051	6779
893.4343	6854
895.8169	6880
898.197	6863
900.5783	6822
902.9571	6904
905.3372	6853
907.7167	6785
910.0936	6886
912.4698	6882
914.8474	6866
917.2244	6976
919.5987	6860
921.9744	6995
924.3475	6959
926.72	6995
929.0918	6993
931.4669	7042
933.8375	7169
936.2074	6987
938.5767	7183
940.9454	7065
943.3154	7218
945.6829	7252
948.0497	7400
950.4178	7418
952.7833	7597
955.1483	7727
957.5145	7804
959.8782	7946
962.2412	7937
964.6036	7836
966.9655	7730
969.3266	7584
971.6871	7367
974.0471	7353
976.4064	7188
978.765	7061
981.125	6990
983.4824	7045
985.8373	7042
988.1935	7102
990.549	6991
992.9039	6954
995.2602	7101
997.6119	7025
999.965	7010
1002.317	7085
1004.667	6951
1007.02	7036
1009.371	7142
1011.719	7052
1014.068	7031
1016.415	6960
1018.765	7046
1021.111	7182
1023.458	7069
1025.804	7090
1028.147	7167
1030.49	7010
1032.837	7137
1035.179	7095
1037.522	7079
1039.862	7098
1042.204	7170
1044.546	7220
1046.884	7073
1049.224	7200
1051.562	7272
1053.899	7207
1056.237	7194
1058.575	7078
1060.91	7185
1063.244	7193
1065.58	7310
1067.913	7211
1070.248	7235
1072.579	7267
1074.911	7260
1077.242	7335
1079.572	7167
1081.905	7281
1084.234	7122
1086.562	7244
1088.89	7230
1091.217	7224
1093.544	7429
1095.871	7189
1098.197	7169
1100.521	7363
1102.845	7233
1105.169	7164
1107.491	7189
1109.814	7376
1112.135	7164
1114.456	7324
1116.776	7302
1119.096	7355
1121.415	7251
1123.734	7293
1126.052	7241
1128.369	7167
1130.686	7197
1133.002	7305
1135.318	7303
1137.632	7314
1139.945	7391
1142.258	7367
1144.573	7268
1146.884	7274
1149.196	7317
1151.505	7267
1153.816	7252
1156.124	7255
1158.435	7339
1160.742	7325
1163.051	7288
1165.356	7279
1167.663	7231
1169.97	7369
1172.276	7317
1174.579	7281
1176.881	7259
1179.186	7341
1181.487	7246
1183.79	7338
1186.092	7403
1188.392	7385
1190.691	7280
1192.991	7255
1195.291	7316
1197.588	7226
1199.885	7297
1202.181	7219
1204.479	7277
1206.775	7281
1209.07	7349
1211.363	7310
1213.656	7426
1215.949	7425
1218.241	7254
1220.534	7219
1222.825	7388
1225.115	7390
1227.405	7335
1229.693	7354
1231.984	7384
1234.271	7408
1236.558	7458
1238.845	7453
1241.131	7433
1243.416	7482
1245.703	7658
1247.987	7508
1250.269	7456
1252.552	7508
1254.834	7487
1257.118	7407
1259.399	7495
1261.678	7630
1263.958	7427
1266.237	7410
1268.516	7583
1270.794	7560
1273.072	7531
1275.347	7499
1277.624	7528
1279.899	7557
1282.175	7465
1284.449	7480
1286.722	7488
1288.995	7437
1291.266	7460
1293.54	7449
1295.81	7652
1298.081	7476
1300.35	7413
1302.62	7474
1304.889	7494
1307.156	7473
1309.425	7492
1311.69	7653
1313.957	7426
1316.222	7318
1318.488	7505
1320.751	7498
1323.016	7615
1325.278	7409
1327.54	7490
1329.803	7500
1332.065	7431
1334.325	7435
1336.584	7583
1338.843	7517
1341.101	7503
1343.36	7520
1345.617	7531
1347.876	7452
1350.131	7561
1352.387	7564
1354.643	7537
1356.897	7409
1359.151	7528
1361.403	7519
1363.656	7435
1365.909	7573
1368.16	7667
1370.409	7436
1372.659	7451
1374.909	7487
1377.157	7501
1379.407	7542
1381.655	7662
1383.9	7437
1386.147	7402
1388.393	7655
1390.64	7624
1392.885	7727
1395.127	7490
1397.37	7627
1399.614	7631
1401.854	7714
1404.098	7593
1406.339	7578
1408.578	7740
1410.818	7564
1413.056	7614
1415.297	7660
1417.533	7707
1419.771	7771
1422.006	7728
1424.243	7734
1426.479	7756
1428.715	7624
1430.948	7769
1433.182	7616
1435.414	7858
1437.647	7735
1439.88	7824
1442.11	7937
1444.342	7847
1446.571	7762
1448.799	7842
1451.029	7882
1453.258	7853
1455.485	7963
1457.711	7852
1459.937	7742
1462.164	7907
1464.39	7771
1466.614	7761
1468.838	7753
1471.06	7756
1473.283	7734
1475.506	7713
1477.727	7693
1479.949	7798
1482.169	7761
1484.389	7513
1486.609	7783
1488.828	7590
1491.045	7648
1493.261	7680
1495.477	7575
1497.693	7607
1499.91	7551
1502.125	7604
1504.339	7553
1506.553	7574
1508.766	7535
1510.979	7592
1513.191	7522
1515.402	7629
1517.613	7618
1519.823	7482
1522.033	7577
1524.242	7623
1526.451	7662
1528.657	7559
1530.865	7540
1533.072	7679
1535.278	7502
1537.484	7749
1539.687	7631
1541.892	7635
1544.096	7666
1546.299	7702
1548.502	7600
1550.703	7614
1552.905	7694
1555.104	7731
1557.303	7675
1559.505	7736
1561.703	7672
1563.902	7754
1566.099	7830
1568.295	7626
1570.494	7857
1572.689	7788
1574.883	7937
1577.079	7779
1579.272	7942
1581.467	7818
1583.659	7918
1585.853	7859
1588.044	7814
1590.234	7873
1592.424	7761
1594.615	7810
1596.806	7894
1598.994	7876
1601.182	7838
1603.369	7897
1605.557	7693
1607.744	7947
1609.929	7883
1612.114	7944
1614.298	7890
1616.482	7855
1618.667	7884
1620.85	7904
1623.032	7892
1625.214	7855
1627.395	8084
1629.575	7802
1631.755	7889
1633.935	7932
1636.114	7822
1638.292	7923
1640.471	7966
1642.647	7982
1644.823	7858
1647	7889
1649.175	7995
1651.348	7888
1653.525	7922
1655.698	7943
1657.87	8065
1660.043	7968
1662.213	8036
1664.387	8046
1666.558	8019
1668.727	8031
1670.896	7991
1673.064	8129
1675.233	7968
1677.401	7956
1679.569	7995
1681.735	7951
1683.902	8000
1686.066	7871
1688.233	8064
1690.397	7872
1692.559	8020
1694.723	7933
1696.885	7927
1699.048	7984
1701.21	7910
1703.37	7910
1705.53	7851
1707.689	7871
1709.849	7911
1712.009	7875
1714.166	7813
1716.323	7932
1718.479	8019
1720.634	7868
1722.793	7962
1724.948	7885
1727.102	7917
1729.255	7839
1731.408	7895
1733.562	7848
1735.714	7955
1737.865	7865
1740.016	7922
1742.166	7924
1744.316	7861
1746.467	7911
1748.616	7914
1750.764	7885
1752.911	7924
1755.056	7962
1757.205	8020
1759.35	7955
1761.496	7920
1763.641	8054
1765.785	7883
1767.927	8048
1770.072	8008
1772.214	8095
1774.355	8014
1776.496	8050
1778.637	8081
1780.778	8011
1782.918	7919
1785.057	8031
1787.194	7929
1789.333	8095
1791.472	8107
1793.608	8085
1795.745	7942
1797.879	8010
1800.015	8044
1802.148	8041
1804.284	7891
1806.417	7912
1808.548	8017
1810.682	8089
1812.812	8003
1814.946	8004
1817.075	8026
1819.205	8035
1821.335	8003
1823.463	8028
1825.59	7965
1827.721	7933
1829.847	8001
1831.973	7977
1834.098	8049
1836.223	7899
1838.351	7838
1840.475	7872
1842.598	8052
1844.721	7999
1846.843	8040
1848.966	7942
1851.087	7835
1853.21	7923
1855.33	7923
1857.449	7988
1859.568	8007
1861.688	7870
1863.806	7968
1865.924	8063
1868.039	7925
1870.155	7913
1872.273	7989
1874.388	7969
1876.503	7766
1878.617	7998
1880.73	8026
1882.844	7930
1884.956	8022
1887.068	7929
1889.18	7961
1891.291	8037
1893.4	8021
1895.511	8073
1897.621	7973
1899.73	7914
1901.837	7990
1903.944	8031
1906.053	8076
1908.159	8022
1910.265	8052
1912.369	8128
1914.474	8055
1916.577	8062
1918.683	8016
1920.785	8131
1922.888	8072
1924.989	8062
1927.091	8207
1929.193	8126
1931.294	8185
1933.393	8138
1935.493	8010
1937.59	8026
1939.689	8137
1941.788	8111
1943.884	8046
1945.98	8174
1948.077	8140
1950.171	8149
1952.267	7978
1954.361	8189
1956.455	8071
1958.548	8192
1960.64	8198
1962.733	8136
1964.824	8111
1966.915	8179
1969.005	7990
1971.096	8095
1973.185	8028
1975.275	8017
1977.363	8061
1979.45	7992
1981.537	8122
1983.623	8040
1985.711	8143
1987.796	8061
1989.881	8007
1991.965	8241
1994.047	8143
1996.132	8000
1998.215	7955
2000.297	7989
2002.378	8080
2004.46	7865
2006.54	8028
2008.62	7947
2010.7	8030
2012.779	8083
2014.858	8030
2016.934	8096
2019.013	8120
2021.09	8024
2023.165	8052
2025.241	8097
2027.317	8035
2029.39	8003
2031.466	7917
2033.538	8115
2035.612	8102
2037.683	8025
2039.755	8070
2041.827	8040
2043.898	8179
2045.968	8009
2048.038	8056
2050.106	7970
2052.177	8015
2054.244	8018
2056.313	8153
2058.379	8105
2060.444	8054
2062.511	8163
2064.577	8055
2066.641	8035
2068.705	7979
2070.77	8106
2072.832	8194
2074.896	7955
2076.958	8038
2079.02	8049
2081.081	8000
2083.141	7983
2085.2	8055
2087.261	8099
2089.319	8141
2091.377	8056
2093.435	7971
2095.492	8105
2097.552	8064
2099.607	8054
2101.663	8132
2103.718	7946
2105.771	8081
2107.826	8098
2109.879	8094
2111.932	8099
2113.985	7964
2116.037	8077
2118.088	8080
2120.141	8016
2122.191	8154
2124.239	8075
2126.288	8127
2128.337	8025
2130.387	8093
2132.434	7974
2134.481	8148
2136.528	8099
2138.574	8027
2140.618	7976
2142.665	7969
2144.71	7935
2146.753	8164
2148.797	8013
2150.838	8167
2152.883	8106
2154.923	8034
2156.965	8003
2159.007	8005
2161.046	7981
2163.086	7976
2165.126	8107
2167.163	7966
2169.202	7976
2171.239	8113
2173.277	7999
2175.314	7888
2177.349	7977
2179.385	8009
2181.42	7979
2183.453	7866
2185.49	7892
2187.522	8008
2189.555	7907
2191.586	7994
2193.619	7934
2195.651	7957
2197.682	7836
2199.711	7995
2201.74	7968
2203.769	7944
2205.799	7863
2207.828	7888
2209.855	7910
2211.882	7913
2213.908	7948
2215.934	7865
2217.961	7752
2219.986	7897
2222.01	7840
2224.034	7912
2226.057	7926
2228.08	7863
2230.104	7760
2232.124	7773
2234.145	7888
2236.166	7877
2238.186	7850
2240.207	7824
2242.227	7900
2244.244	7981
2246.262	7751
2248.28	7756
2250.299	7873
2252.314	7931
2254.33	7901
2256.346	8000
2258.36	7905
2260.375	7876
2262.391	7797
2264.403	7990
2266.416	7874
2268.427	7871
2270.44	7953
2272.453	7857
2274.463	7865
2276.474	7894
2278.483	7786
2280.493	8044
2282.501	7893
2284.51	7930
2286.518	7847
2288.524	7970
2290.532	7858
2292.537	7889
2294.544	7954
2296.55	8030
2298.554	7805
2300.557	7908
2302.562	8001
2304.566	7899
2306.568	7916
2308.569	7886
2310.572	7919
2312.573	7815
2314.573	7883
2316.574	7901
2318.573	7844
2320.571	7711
2322.571	7839
2324.569	7828
2326.567	7829
2328.564	7882
2330.56	7856
2332.556	7870
2334.551	7700
2336.546	7714
2338.542	7848
2340.535	7769
2342.529	7860
2344.521	7876
2346.512	7851
2348.505	7738
2350.497	7692
2352.487	7715
2354.478	7758
2356.468	7677
2358.457	7738
2360.446	7690
2362.434	7782
2364.422	7827
2366.408	7801
2368.395	7819
2370.383	7724
2372.369	7613
2374.353	7705
2376.338	7704
2378.321	7680
2380.307	7814
2382.29	7704
2384.272	7725
2386.254	7745
2388.235	7710
2390.218	7814
2392.198	7648
2394.179	7649
2396.157	7651
2398.137	7632
2400.115	7652
2402.095	7642
2404.072	7742
2406.048	7585
2408.026	7752
2410.001	7499
2411.977	7667
2413.953	7586
2415.927	7671
2417.9	7667
2419.875	7698
2421.847	7624
2423.821	7673
2425.792	7666
2427.763	7565
2429.736	7635
2431.706	7640
2433.677	7629
2435.646	7697
2437.615	7674
2439.583	7628
2441.551	7694
2443.519	7606
2445.486	7580
2447.452	7583
2449.418	7552
2451.383	7592
2453.348	7616
2455.314	7764
2457.278	7654
2459.241	7559
2461.205	7684
2463.167	7666
2465.131	7508
2467.091	7543
2469.052	7601
2471.012	7607
2472.972	7644
2474.932	7607
2476.891	7729
2478.85	7504
2480.808	7579
2482.766	7506
2484.722	7609
2486.68	7661
2488.636	7597
2490.591	7582
2492.546	7695
2494.5	7523
2496.456	7525
2498.41	7529
2500.362	7634
2502.315	7654
2504.266	7473
2506.218	7646
2508.169	7525
2510.121	7486
2512.07	7489
2514.019	7470
2515.968	7601
2517.918	7442
2519.866	7545
2521.813	7528
2523.76	7601
2525.707	7537
2527.653	7550
2529.599	7558
2531.543	7481
2533.489	7514
2535.433	7617
2537.376	7531
2539.32	7467
2541.264	7611
2543.205	7411
2545.147	7569
2547.087	7503
2549.029	7508
2550.969	7403
2552.908	7509
2554.847	7555
2556.786	7497
2558.724	7592
2560.663	7516
2562.6	7558
2564.537	7571
2566.473	7394
2568.408	7657
2570.345	7578
2572.28	7498
2574.214	7430
2576.148	7572
2578.081	7591
2580.014	7492
2581.947	7573
2583.879	7466
2585.81	7503
2587.741	7495
2589.67	7550
2591.602	7520
2593.532	7406
2595.461	7533
2597.388	7555
2599.316	7570
2601.244	7474
2603.172	7481
2605.098	7617
2607.023	7524
2608.949	7572
2610.873	7587
2612.8	7522
2614.723	7517
2616.647	7528
2618.569	7446
2620.493	7578
2622.416	7520
2624.338	7506
2626.258	7595
2628.179	7534
2630.099	7554
2632.019	7521
2633.939	7467
2635.857	7485
2637.775	7596
2639.694	7707
2641.61	7531
2643.528	7637
2645.444	7538
2647.361	7524
2649.276	7548
2651.19	7664
2653.105	7506
2655.019	7573
2656.934	7566
2658.846	7634
2660.758	7594
2662.67	7532
2664.583	7525
2666.493	7516
2668.404	7592
2670.313	7651
2672.223	7613
2674.134	7506
2676.042	7598
2677.95	7461
2679.858	7424
2681.765	7615
2683.673	7449
2685.579	7510
2687.483	7576
2689.389	7518
2691.294	7478
2693.198	7515
2695.104	7475
2697.006	7484
2698.909	7484
2700.811	7444
2702.713	7280
2704.615	7523
2706.516	7392
2708.417	7373
2710.316	7448
2712.216	7410
2714.115	7385
2716.014	7464
2717.913	7325
2719.81	7212
2721.707	7505
2723.603	7552
2725.501	7331
2727.396	7320
2729.292	7491
2731.186	7484
2733.081	7431
2734.976	7492
2736.87	7348
2738.762	7400
2740.653	7419
2742.546	7395
2744.437	7358
2746.329	7443
2748.22	7281
2750.11	7369
2751.999	7504
2753.889	7294
2755.778	7401
2757.666	7429
2759.553	7356
2761.44	7297
2763.328	7425
2765.215	7419
2767.101	7331
2768.986	7256
2770.87	7397
2772.754	7290
2774.638	7421
2776.523	7270
2778.405	7289
2780.288	7336
2782.17	7376
2784.051	7226
2785.934	7400
2787.814	7283
2789.694	7368
2791.574	7249
2793.453	7409
2795.332	7298
2797.212	7354
2799.088	7426
2800.966	7255
2802.843	7323
2804.719	7367
2806.597	7280
2808.471	7234
2810.346	7340
2812.221	7234
2814.094	7434
2815.969	7279
2817.843	7300
2819.714	7305
2821.587	7197
2823.459	7254
2825.329	7269
2827.202	7328
2829.072	7350
2830.942	7292
2832.811	7375
2834.68	7241
2836.549	7324
2838.418	7259
2840.284	7315
2842.152	7260
2844.018	7358
2845.885	7298
2847.751	7335
2849.616	7350
2851.482	7388
2853.345	7224
2855.208	7357
2857.074	7326
2858.937	7327
2860.799	7271
2862.66	7464
2864.522	7354
2866.385	7387
2868.245	7418
2870.104	7544
2871.964	7397
2873.824	7411
2875.683	7469
2877.542	7463
2879.4	7577
2881.257	7513
2883.114	7808
2884.97	7612
2886.827	7625
2888.683	7521
2890.537	7591
2892.392	7607
2894.246	7561
2896.1	7592
2897.954	7553
2899.807	7418
2901.66	7507
2903.51	7531
2905.362	7574
2907.214	7538
2909.065	7603
2910.915	7576
2912.765	7561
2914.613	7609
2916.463	7692
2918.311	7634
2920.158	7761
2922.006	7756
2923.853	7630
2925.698	7830
2927.546	7816
2929.392	7900
2931.236	7843
2933.081	7876
2934.924	7908
2936.77	8020
2938.613	7815
2940.455	7983
2942.298	7902
2944.139	7985
2945.982	8025
2947.823	8030
2949.662	8064
2951.503	7978
2953.342	7840
2955.182	7729
2957.021	7789
2958.858	7906
2960.697	7722
2962.534	7786
2964.37	7742
2966.207	7589
2968.044	7631
2969.879	7589
2971.714	7626
2973.548	7419
2975.383	7549
2977.218	7537
2979.051	7602
2980.883	7572
2982.715	7520
2984.547	7555
2986.379	7510
2988.21	7352
2990.04	7256
2991.87	7359
2993.7	7409
2995.53	7222
2997.359	7277
2999.187	7296
3001.015	7219
3002.842	7254
3004.669	7207
3006.497	7205
3008.323	6976
3010.148	7155
3011.974	7087
3013.797	7131
3015.623	7048
3017.447	7072
3019.27	7124
3021.094	6951
3022.915	6942
3024.737	7013
3026.56	6983
3028.38	7065
3030.201	7039
3032.022	6992
3033.84	6841
3035.662	6932
3037.481	6852
3039.298	7055
3041.117	7097
3042.933	6894
3044.752	7031
3046.568	6907
3048.385	6895
3050.2	6897
3052.016	6868
3053.83	6855
3055.646	6957
3057.46	6847
3059.272	6855
3061.086	6896
3062.898	6948
3064.711	6800
3066.524	6841
3068.335	6895
3070.145	6842
3071.956	6861
3073.766	6857
3075.576	6822
3077.385	6900
3079.193	6860
3081.002	6902
3082.81	6745
3084.618	6825
3086.425	6798
3088.231	6809
3090.036	6605
3091.842	6794
3093.648	6718
3095.452	6784
3097.257	6770
3099.06	6705
3100.863	6674
3102.666	6725
3104.47	6756
3106.272	6744
3108.073	6663
3109.875	6741
3111.676	6677
3113.477	6659
3115.277	6602
3117.077	6719
3118.874	6626
3120.673	6666
3122.473	6569
3124.271	6652
3126.066	6729
3127.863	6709
3129.66	6703
3131.456	6586
3133.252	6610
3135.047	6659
3136.842	6498
3138.635	6556
3140.429	6604
3142.223	6495
3144.016	6542
3145.808	6727
3147.6	6524
3149.392	6576
3151.183	6515
3152.975	6605
3154.765	6454
3156.553	6572
3158.344	6469
3160.132	6552
3161.922	6580
3163.71	6505
3165.497	6472
3167.285	6459
3169.071	6552
3170.858	6560
3172.645	6430
3174.429	6383
3176.214	6549
3177.998	6393
3179.783	6455
3181.568	6472
3183.351	6575
3185.133	6456
3186.915	6526
3188.698	6438
3190.481	6528
3192.261	6492
3194.042	6447
3195.822	6427
3197.601	6457
3199.381	6498
3201.161	6485
3202.939	6351
3204.717	6365
3206.495	6522
3208.272	6351
3210.05	6496
3211.826	6390
3213.602	6472
3215.376	6425
3217.151	6381
3218.927	6422
3220.702	6476
3222.476	6444
3224.249	6370
3226.021	6380
3227.793	6395
3229.567	6310
3231.339	6355
3233.109	6438
3234.88	6351
3236.651	6316
3238.421	6291
3240.191	6422
3241.96	6510
3243.728	6282
3245.497	6263
3247.263	6417
3249.033	6360
3250.799	6336
3252.566	6425
3254.331	6406
3256.097	6357
3257.863	6269
3259.628	6345
3261.392	6388
3263.156	6401
3264.919	6455
3266.683	6303
3268.447	6394
3270.208	6402
3271.969	6339
3273.731	6409
3275.492	6374
3277.253	6331
3279.013	6393
3280.773	6295
3282.532	6329
3284.291	6409
3286.05	6267
3287.808	6389
3289.566	6308
3291.323	6456
3293.079	6312
3294.835	6310
3296.593	6383
3298.348	6255
3300.102	6337
3301.857	6223
3303.611	6415
3305.366	6326
3307.119	6319
3308.872	6334
3310.624	6306
3312.376	6211
3314.129	6359
3315.881	6321
3317.631	6302
3319.38	6236
3321.13	6358
3322.88	6271
3324.631	6374
3326.379	6340
3328.126	6320
3329.875	6210
3331.622	6268
3333.371	6370
3335.116	6237
3336.863	6230
3338.609	6299
3340.353	6273
3342.1	6298
3343.845	6346
3345.588	6326
3347.332	6178
3349.074	6221
3350.817	6258
3352.56	6308
3354.303	6257
3356.043	6287
3357.785	6204
3359.525	6252
3361.268	6158
3363.007	6255
3364.745	6157
3366.485	6283
3368.223	6184
3369.962	6217
3371.701	6239
3373.438	6201
3375.174	6214
3376.911	6204
3378.647	6222
3380.384	6172
3382.118	6168
3383.854	6167
3385.588	6222
3387.322	6089
3389.057	6149
3390.79	6054
3392.522	6061
3394.255	6095
3395.987	6191
3397.719	6109
3399.451	6010
3401.181	6200
3402.911	6031
3404.641	6110
3406.371	6129
3408.101	6183
3409.83	6173
3411.558	6062
3413.285	6025
3415.011	6163
3416.739	6118
3418.467	6018
3420.193	6066
3421.919	6092
3423.644	5997
3425.368	6025
3427.094	6118
3428.818	6046
3430.542	6011
3432.264	6026
3433.987	5994
3435.712	5891
3437.434	5975
3439.155	5869
3440.876	5948
3442.596	5923
3444.317	5995
3446.039	5956
3447.757	5831
3449.477	6020
3451.195	5884
3452.914	5989
3454.632	5949
3456.35	5846
3458.067	6083
3459.784	5894
3461.5	5971
3463.216	5985
3464.932	5952
3466.647	5971
3468.362	5936
3470.076	5941
3471.789	5912
3473.505	5881
3475.217	5872
3476.929	5811
3478.641	5827
3480.354	5880
3482.066	5811
3483.777	5954
3485.487	5915
3487.197	5836
3488.908	5753
3490.617	5840
3492.327	5737
3494.035	5781
3495.743	5820
3497.451	5813
3499.158	5772
3500.866	5866
3502.572	5756
3504.278	5774
3505.984	5807
3507.689	5722
3509.396	5789
3511.1	5726
3512.804	5818
3514.508	5745
3516.211	5813
3517.913	5825
3519.616	5679
3521.319	5660
3523.021	5785
3524.722	5792
3526.422	5762
3528.124	5720
3529.824	5641
3531.524	5681
3533.222	5637
3534.921	5643
3536.62	5855
3538.318	5690
3540.016	5686
3541.714	5735
3543.41	5598
3545.107	5683
3546.803	5655
3548.5	5727
3550.194	5679
3551.889	5677
3553.583	5648
3555.279	5709
3556.972	5605
3558.666	5628
3560.358	5720
3562.051	5633
3563.742	5696
3565.435	5713
3567.126	5697
3568.817	5602
3570.507	5652
3572.197	5781
3573.888	5611
3575.577	5596
3577.265	5592
3578.954	5727
3580.642	5662
3582.329	5561
3584.017	5617
3585.704	5647
3587.391	5516
3589.077	5670
3590.762	5502
3592.449	5516
3594.133	5516
3595.817	5490
3597.501	5573
3599.185	5504
3600.869	5571
3602.552	5454
3604.234	5368
3605.916	5513
3607.598	5384
3609.279	5375
3610.961	5488
3612.642	5482
3614.321	5481
3616	5433
3617.68	5390
3619.36	5411
3621.039	5412
3622.716	5487
3624.394	5466
3626.071	5302
3627.748	5504
3629.425	5349
3631.102	5407
3632.778	5416
3634.452	5348
3636.127	5420
3637.803	5377
3639.477	5331
3641.151	5436
3642.823	5370
3644.497	5428
3646.171	5353
3647.842	5338
3649.515	5368
3651.185	5332
3652.857	5254
3654.527	5277
3656.198	5275
3657.868	5350
3659.537	5296
3661.207	5384
3662.875	5263
3664.544	5275
3666.212	5211
3667.879	5299
3669.546	5249
3671.212	5324
3672.88	5331
3674.546	5282
3676.211	5253
3677.875	5233
3679.541	5213
3681.205	5300
3682.87	5189
3684.533	5323
3686.196	5133
3687.859	5302
3689.521	5324
3691.184	5232
3692.845	5252
3694.507	5175
3696.167	5309
3697.827	5217
3699.487	5211
3701.148	5168
3702.808	5058
3704.466	5276
3706.125	5380
3707.783	5190
3709.442	5162
3711.099	5239
3712.757	5234
3714.412	5231
3716.068	5196
3717.725	5132
3719.381	5228
3721.036	5263
3722.689	5217
3724.344	5123
3725.998	5120
3727.652	5237
3729.305	5173
3730.958	5153
3732.61	5227
3734.262	5212
3735.915	5234
3737.565	5045
3739.217	5173
3740.866	5039
3742.516	5149
3744.165	5171
3745.816	5088
3747.464	5132
3749.113	5107
3750.761	5126
3752.409	5119
3754.057	5114
3755.703	5180
3757.35	5060
3758.996	5080
3760.641	5076
3762.289	5167
3763.933	5047
3765.577	5068
3767.222	5103
3768.865	5069
3770.508	4970
3772.152	5199
3773.796	5101
3775.438	5041
3777.079	5029
3778.721	5052
3780.363	5040
3782.003	4972
3783.643	5087
3785.283	4999
3786.923	4998
3788.563	5012
3790.203	5002
3791.841	5015
3793.479	5059
3795.115	4957
3796.753	4975
3798.391	4969
3800.027	4948
3801.664	4975
3803.299	4962
3804.935	4989
3806.571	4948
3808.206	4968
3809.839	4911
3811.473	5001
3813.107	4895
3814.74	4871
3816.375	4920
3818.006	4863
3819.638	4913
3821.27	5009
3822.9	4856
3824.532	4954
3826.163	4974
3827.792	4949
3829.423	4790
3831.051	4838
3832.682	4907
3834.311	4861
3835.938	4889
3837.566	4883
3839.193	4868
3840.821	4909
3842.448	4912
3844.075	4833
3845.7	4955
3847.325	4865
3848.951	4887
3850.576	4822
3852.201	4746
3853.825	4837
3855.448	4847
3857.072	4767
3858.694	4784
3860.318	4827
3861.939	4878
3863.562	4790
3865.183	4854
3866.804	4719
3868.426	4831
3870.045	4781
3871.666	4850
3873.285	4793
3874.904	4801
3876.524	4881
3878.142	4770
3879.76	4769
3881.378	4830
3882.995	4667
3884.612	4716
3886.229	4829
3887.845	4673
3889.461	4876
3891.076	4714
3892.691	4821
3894.307	4768
3895.922	4692
3897.536	4702
3899.149	4797
3900.761	4690
3902.374	4711
3903.988	4757
3905.6	4678
3907.212	4739
3908.822	4644
3910.433	4759
3912.045	4732
3913.655	4736
3915.265	4710
3916.875	4628
3918.483	4673
3920.093	4690
3921.702	4677
3923.309	4758
3924.917	4696
3926.523	4641
3928.13	4748
3929.739	4699
3931.344	4624
3932.95	4678
3934.555	4668
3936.159	4719
3937.766	4702
3939.369	4687
3940.974	4674
3942.577	4661
3944.181	4671
3945.783	4733
3947.386	4634
3948.989	4565
3950.59	4626
3952.191	4686
3953.791	4665
3955.394	4638
3956.994	4613
3958.593	4724
3960.192	4661
3961.791	4651
3963.392	4609
3964.99	4630
3966.588	4554
3968.185	4629
3969.782	4516
3971.379	4515
3972.976	4667
3974.572	4503
3976.168	4629
3977.763	4550
3979.358	4477
3980.954	4600
3982.548	4544
3984.142	4466
3985.736	4572
3987.329	4543
3988.922	4503
3990.516	4541
3992.108	4550
3993.698	4499
3995.29	4467
3996.881	4533
3998.473	4512
4000.064	4499
4001.653	4478
4003.242	4411
4004.832	4532
4006.422	4468
4008.01	4369
4009.598	4379
4011.186	4429
4012.773	4526
4014.36	4415
4015.947	4384
4017.534	4454
4019.119	4441
4020.705	4381
4022.291	4465
4023.876	4345
4025.461	4323
4027.044	4376
4028.627	4337
4030.211	4415
4031.795	4521
4033.378	4294
4034.96	4355
4036.542	4247
4038.124	4334
4039.704	4334
4041.286	4401
4042.867	4362
4044.447	4391
4046.026	4320
4047.606	4372
4049.187	4323
4050.765	4258
4052.343	4220
4053.92	4277
4055.498	4307
4057.076	4363
4058.654	4333
4060.23	4255
4061.806	4346
4063.381	4375
4064.957	4284
4066.533	4314
4068.107	4223
4069.682	4262
4071.256	4294
4072.829	4364
4074.404	4223
4075.977	4327
4077.549	4220
4079.121	4238
4080.693	4273
4082.265	4235
4083.836	4291
4085.407	4274
4086.977	4280
4088.547	4230
4090.117	4277
4091.687	4179
4093.256	4332
4094.825	4240
4096.392	4228
4097.96	4218
4099.528	4230
4101.097	4174
4102.663	4187
4104.229	4132
4105.795	4240
4107.361	4178
4108.928	4130
4110.493	4327
4112.058	4234
4113.621	4238
4115.186	4224
4116.75	4173
4118.313	4127
4119.876	4185
4121.438	4145
4123	4044
4124.562	4168
4126.125	4136
4127.686	4092
4129.246	4064
4130.807	4135
4132.367	4202
4133.927	4127
4135.486	4166
4137.046	4092
4138.604	4181
4140.162	4034
4141.72	4059
4143.279	4047
4144.836	4064
4146.393	4170
4147.949	4083
4149.505	4103
4151.062	4051
4152.617	4047
4154.172	4136
4155.727	4049
4157.281	4074
4158.836	4071
4160.39	3942
4161.943	4063
4163.496	4044
4165.048	4008
4166.601	4023
4168.154	4062
4169.706	3960
4171.257	4039
4172.808	3987
4174.358	4011
4175.909	3926
4177.458	3914
4179.008	3955
4180.558	3979
4182.106	4003
4183.655	4014
4185.204	3940
4186.751	3902
4188.298	3952
4189.845	3914
4191.392	3963
4192.939	3935
4194.485	3920
4196.031	3895
4197.576	3905
4199.121	3905
4200.666	3938
4202.211	4048
4203.754	3993
4205.298	3895
4206.84	3889
4208.384	3898
4209.927	3954
4211.47	3959
4213.011	3891
4214.552	3835
4216.094	3858
4217.635	3884
4219.175	3913
4220.716	3898
4222.255	3821
4223.793	3827
4225.335	3916
4226.873	3928
4228.411	3846
4229.948	3881
4231.486	3841
4233.024	3815
4234.562	3848
4236.098	3890
4237.634	3933
4239.169	3836
4240.705	3825
4242.241	3859
4243.776	3721
4245.31	3868
4246.844	3800
4248.378	3750
4249.911	3888
4251.445	3834
4252.978	3897
4254.51	3792
4256.042	3773
4257.574	3843
4259.107	3789
4260.638	3744
4262.169	3772
4263.699	3884
4265.228	3787
4266.759	3803
4268.289	3768
4269.818	3808
4271.345	3815
4272.874	3704
4274.402	3756
4275.931	3698
4277.458	3722
4278.985	3804
4280.512	3780
4282.037	3747
4283.564	3738
4285.089	3707
4286.615	3724
4288.139	3801
4289.664	3687
4291.187	3716
4292.712	3694
4294.235	3701
4295.759	3711
4297.281	3675
4298.804	3710
4300.327	3679
4301.849	3723
4303.37	3739
4304.891	3789
4306.412	3687
4307.933	3641
4309.453	3684
4310.973	3625
4312.492	3711
