398.1873	4024
400.7097	4114
403.2336	4194
405.7547	4051
408.2751	4157
410.7948	4196
413.3138	4130
415.83	4190
418.3497	4196
420.8666	4224
423.3829	4237
425.8985	4284
428.4133	4268
430.9275	4349
433.441	4271
435.9538	4369
438.4639	4413
440.9753	4349
443.4881	4333
445.9982	4420
448.5055	4332
451.0142	4369
453.5201	4366
456.0274	4432
458.5361	4327
461.04	4375
463.5453	4364
466.0478	4325
468.5517	4432
471.0549	4328
473.5574	4374
476.0572	4361
478.5584	4241
481.0568	4385
483.5545	4442
486.0557	4429
488.5521	4427
491.0478	4439
493.5449	4497
496.0392	4472
498.5349	4418
501.0299	4449
503.5222	4511
506.0139	4490
508.5048	4421
510.9991	4505
513.4887	4461
515.9777	4541
518.4659	4517
520.9534	4380
523.4403	4581
525.9306	4477
528.4161	4604
530.9009	4482
533.3851	4522
535.8687	4507
538.3535	4448
540.8356	4484
543.3171	4574
545.7979	4532
548.278	4621
550.7595	4526
553.2383	4461
555.7144	4443
558.1918	4569
560.6685	4502
563.1446	4555
565.6221	4683
568.0968	4611
570.5688	4682
573.0422	4635
575.515	4761
577.989	4660
580.4584	4656
582.9291	4695
585.3991	4716
587.8685	4858
590.3352	4697
592.8052	4715
595.2706	4708
597.7372	4794
600.2033	4666
602.6666	4729
605.1334	4752
607.5953	4716
610.0587	4749
612.5193	4612
614.9814	4670
617.4427	4707
619.9034	4710
622.3615	4735
624.8208	4626
627.2775	4689
629.7335	4677
632.1929	4609
634.6476	4590
637.1016	4721
639.5569	4665
642.0096	4696
644.4637	4631
646.9151	4699
649.3678	4762
651.8179	4727
654.2672	4718
656.7159	4728
659.166	4714
661.6154	4842
664.0622	4656
666.5082	4708
668.9537	4751
671.4005	4771
673.8445	4762
676.288	4840
678.7308	4778
681.1729	4895
683.6163	4776
686.0572	4826
688.4973	4882
690.9368	4805
693.3757	4825
695.8138	4844
698.2534	4841
700.6902	4821
703.1245	4906
705.56	4822
707.9949	4914
710.4311	5019
712.8647	4989
715.2957	4937
717.7279	4918
720.1595	4860
722.5905	4946
725.0208	4997
727.4505	4921
729.8795	4973
732.3058	4921
734.7336	5086
737.1626	5051
739.587	5020
742.0128	5004
744.4359	5040
746.8604	5097
749.2841	5059
751.7073	5178
754.1278	5124
756.5496	4991
758.9688	5111
761.3893	5128
763.8093	5181
766.2285	5203
768.6451	5227
771.0611	5198
773.4784	5168
775.895	5218
778.3091	5256
780.7244	5161
783.1371	5160
785.5493	5195
787.9626	5154
790.3754	5227
792.7856	5118
795.1951	5157
797.6039	5154
800.0121	5172
802.4236	5159
804.8306	5264
807.2369	5201
809.6425	5258
812.0475	5296
814.4538	5128
816.8575	5172
819.2606	5181
821.663	5267
824.0648	5178
826.4659	5243
828.8683	5265
831.2682	5202
833.6674	5241
836.066	5273
838.4639	5313
840.8632	5246
843.2579	5256
845.6539	5344
848.0493	5282
850.444	5237
852.84	5331
855.2315	5301
857.6243	5375
860.0165	5358
862.4081	5289
864.797	5334
867.1892	5345
869.5789	5337
871.9659	5319
874.3542	5290
876.74	5325
879.129	5266
881.5155	5314
883.8994	5311
886.2845	5285
888.6671	5338
891.051	5247
893.4343	5289
895.8169	5426
898.197	5293
900.5783	5351
902.9571	5377
905.3372	5271
907.7167	5396
910.0936	5310
912.4698	5416
914.8474	5341
917.2244	5498
919.5987	5387
921.9744	5464
924.3475	5606
926.72	5562
929.0918	5495
931.4669	5548
933.8375	5531
936.2074	5532
938.5767	5803
940.9454	5737
943.3154	5762
945.6829	5945
948.0497	5982
950.4178	6059
952.7833	6235
955.1483	6590
957.5145	6614
959.8782	6752
962.2412	6690
964.6036	6639
966.9655	6382
969.3266	6187
971.6871	5926
974.0471	5828
976.4064	5721
978.765	5713
981.125	5663
983.4824	5567
985.8373	5598
988.1935	5477
990.549	5496
992.9039	5490
995.2602	5414
997.6119	5473
999.965	5614
1002.317	5540
1004.667	5598
1007.02	5628
1009.371	5529
1011.719	5550
1014.068	5549
1016.415	5597
1018.765	5451
1021.111	5593
1023.458	5547
1025.804	5586
1028.147	5557
1030.49	5528
1032.837	5641
1035.179	5608
1037.522	5667
1039.862	5636
1042.204	5613
1044.546	5679
1046.884	5778
1049.224	5575
1051.562	5642
1053.899	5690
1056.237	5682
1058.575	5462
1060.91	5713
1063.244	5646
1065.58	5669
1067.913	5707
1070.248	5670
1072.579	5831
1074.911	5713
1077.242	5791
1079.572	5715
1081.905	5634
1084.234	5716
1086.562	5683
1088.89	5788
1091.217	5735
1093.544	5664
1095.871	5660
1098.197	5660
1100.521	5626
1102.845	5683
1105.169	5701
1107.491	5683
1109.814	5678
1112.135	5598
1114.456	5658
1116.776	5584
1119.096	5647
1121.415	5668
1123.734	5705
1126.052	5646
1128.369	5565
1130.686	5721
1133.002	5638
1135.318	5713
1137.632	5650
1139.945	5663
1142.258	5825
1144.573	5716
1146.884	5698
1149.196	5731
1151.505	5699
1153.816	5682
1156.124	5682
1158.435	5663
1160.742	5842
1163.051	5603
1165.356	5734
1167.663	5730
1169.97	5658
1172.276	5785
1174.579	5743
1176.881	5724
1179.186	5705
1181.487	5817
1183.79	5666
1186.092	5645
1188.392	5718
1190.691	5690
1192.991	5647
1195.291	5756
1197.588	5627
1199.885	5736
1202.181	5642
1204.479	5609
1206.775	5738
1209.07	5717
1211.363	5718
1213.656	5742
1215.949	5758
1218.241	5681
1220.534	5705
1222.825	5700
1225.115	5742
1227.405	5738
1229.693	5861
1231.984	5869
1234.271	5836
1236.558	5970
1238.845	5812
1241.131	5833
1243.416	5946
1245.703	5966
1247.987	5964
1250.269	5838
1252.552	5929
1254.834	5792
1257.118	5807
1259.399	5809
1261.678	5849
1263.958	5932
1266.237	5944
1268.516	5967
1270.794	5876
1273.072	5892
1275.347	5925
1277.624	5939
1279.899	5876
1282.175	5823
1284.449	5815
1286.722	5813
1288.995	5853
1291.266	5919
1293.54	5920
1295.81	5814
1298.081	5822
1300.35	5752
1302.62	5878
1304.889	5861
1307.156	5759
1309.425	5779
1311.69	5829
1313.957	5881
1316.222	5925
1318.488	5913
1320.751	5789
1323.016	5797
1325.278	5851
1327.54	5903
1329.803	5957
1332.065	5896
1334.325	5829
1336.584	5821
1338.843	5956
1341.101	5906
1343.36	5781
1345.617	5762
1347.876	5889
1350.131	5933
1352.387	5846
1354.643	5818
1356.897	5802
1359.151	5881
1361.403	5837
1363.656	5741
1365.909	5792
1368.16	5923
1370.409	5930
1372.659	5967
1374.909	5888
1377.157	5899
1379.407	5806
1381.655	5913
1383.9	5994
1386.147	5931
1388.393	5939
1390.64	5952
1392.885	6097
1395.127	6003
1397.37	5999
1399.614	5980
1401.854	6124
1404.098	5931
1406.339	5907
1408.578	5977
1410.818	6190
1413.056	6011
1415.297	5905
1417.533	6085
1419.771	5921
1422.006	6090
1424.243	5987
1426.479	6057
1428.715	6063
1430.948	6065
1433.182	6041
1435.414	6071
1437.647	6113
1439.88	6070
1442.11	6106
1444.342	6202
1446.571	6180
1448.799	6162
1451.029	6203
1453.258	6012
1455.485	6213
1457.711	6150
1459.937	6141
1462.164	6149
1464.39	6124
1466.614	6108
1468.838	6079
1471.06	6065
1473.283	6056
1475.506	5961
1477.727	5990
1479.949	6003
1482.169	6075
1484.389	5995
1486.609	5935
1488.828	5937
1491.045	5945
1493.261	5979
1495.477	5880
1497.693	5975
1499.91	5932
1502.125	5868
1504.339	5979
1506.553	6046
1508.766	5988
1510.979	5915
1513.191	5935
1515.402	5887
1517.613	5839
1519.823	5965
1522.033	5820
1524.242	5821
1526.451	5916
1528.657	5845
1530.865	5870
1533.072	5903
1535.278	5998
1537.484	5969
1539.687	5918
1541.892	5980
1544.096	5987
1546.299	6064
1548.502	6003
1550.703	6037
1552.905	6042
1555.104	6020
1557.303	5936
1559.505	6041
1561.703	6080
1563.902	6020
1566.099	6024
1568.295	6024
1570.494	6088
1572.689	6067
1574.883	5964
1577.079	5994
1579.272	6047
1581.467	6138
1583.659	6063
1585.853	6164
1588.044	6092
1590.234	6111
1592.424	6141
1594.615	6151
1596.806	6059
1598.994	6114
1601.182	6187
1603.369	6117
1605.557	6054
1607.744	6143
1609.929	6192
1612.114	6105
1614.298	6142
1616.482	6162
1618.667	6244
1620.85	6140
1623.032	6155
1625.214	6197
1627.395	6155
1629.575	6189
1631.755	6211
1633.935	6263
1636.114	6243
1638.292	6204
1640.471	6142
1642.647	6322
1644.823	6193
1647	6237
1649.175	6167
1651.348	6170
1653.525	6240
1655.698	6274
1657.87	6264
1660.043	6236
1662.213	6353
1664.387	6269
1666.558	6166
1668.727	6346
1670.896	6325
1673.064	6265
1675.233	6328
1677.401	6147
1679.569	6252
1681.735	6188
1683.902	6275
1686.066	6246
1688.233	6232
1690.397	6227
1692.559	6361
1694.723	6268
1696.885	6169
1699.048	6212
1701.21	6244
1703.37	6107
1705.53	6172
1707.689	6107
1709.849	6089
1712.009	6149
1714.166	6092
1716.323	6150
1718.479	6138
1720.634	6152
1722.793	6039
1724.948	6195
1727.102	6139
1729.255	6129
1731.408	6186
1733.562	6158
1735.714	6249
1737.865	6079
1740.016	6299
1742.166	6143
1744.316	6246
1746.467	6072
1748.616	6059
1750.764	6202
1752.911	6126
1755.056	6247
1757.205	6218
1759.35	6240
1761.496	6232
1763.641	6256
1765.785	6099
1767.927	6279
1770.072	6236
1772.214	6101
1774.355	6290
1776.496	6270
1778.637	6276
1780.778	6079
1782.918	6190
1785.057	6165
1787.194	6213
1789.333	6306
1791.472	6261
1793.608	6212
1795.745	6156
1797.879	6318
1800.015	6345
1802.148	6251
1804.284	6270
1806.417	6190
1808.548	6228
1810.682	6207
1812.812	6175
1814.946	6217
1817.075	6233
1819.205	6094
1821.335	6302
1823.463	6353
1825.59	6379
1827.721	6213
1829.847	6125
1831.973	6271
1834.098	6188
1836.223	6148
1838.351	6235
1840.475	6209
1842.598	6178
1844.721	6224
1846.843	6190
1848.966	6304
1851.087	6278
1853.21	6291
1855.33	6180
1857.449	6180
1859.568	6209
1861.688	6152
1863.806	6185
1865.924	6206
1868.039	6250
1870.155	6053
1872.273	6133
1874.388	6181
1876.503	6147
1878.617	6226
1880.73	6291
1882.844	6348
1884.956	6141
1887.068	6168
1889.18	6236
1891.291	6239
1893.4	6143
1895.511	6304
1897.621	6148
1899.73	6028
1901.837	6187
1903.944	6215
1906.053	6222
1908.159	6261
1910.265	6254
1912.369	6191
1914.474	6380
1916.577	6297
1918.683	6321
1920.785	6323
1922.888	6333
1924.989	6303
1927.091	6275
1929.193	6249
1931.294	6166
1933.393	6246
1935.493	6333
1937.59	6191
1939.689	6258
1941.788	6292
1943.884	6343
1945.98	6368
1948.077	6377
1950.171	6243
1952.267	6370
1954.361	6370
1956.455	6409
1958.548	6326
1960.64	6308
1962.733	6262
1964.824	6314
1966.915	6282
1969.005	6261
1971.096	6303
1973.185	6413
1975.275	6183
1977.363	6278
1979.45	6312
1981.537	6311
1983.623	6287
1985.711	6333
1987.796	6246
1989.881	6316
1991.965	6264
1994.047	6340
1996.132	6320
1998.215	6222
2000.297	6297
2002.378	6358
2004.46	6178
2006.54	6179
2008.62	6284
2010.7	6325
2012.779	6264
2014.858	6301
2016.934	6386
2019.013	6368
2021.09	6224
2023.165	6281
2025.241	6225
2027.317	6366
2029.39	6192
2031.466	6266
2033.538	6258
2035.612	6250
2037.683	6301
2039.755	6248
2041.827	6331
2043.898	6322
2045.968	6358
2048.038	6217
2050.106	6321
2052.177	6251
2054.244	6312
2056.313	6330
2058.379	6297
2060.444	6196
2062.511	6319
2064.577	6218
2066.641	6312
2068.705	6301
2070.77	6403
2072.832	6223
2074.896	6302
2076.958	6319
2079.02	6300
2081.081	6304
2083.141	6357
2085.2	6307
2087.261	6340
2089.319	6268
2091.377	6300
2093.435	6348
2095.492	6265
2097.552	6268
2099.607	6272
2101.663	6200
2103.718	6343
2105.771	6290
2107.826	6307
2109.879	6282
2111.932	6318
2113.985	6226
2116.037	6172
2118.088	6315
2120.141	6221
2122.191	6352
2124.239	6203
2126.288	6212
2128.337	6316
2130.387	6284
2132.434	6326
2134.481	6275
2136.528	6169
2138.574	6235
2140.618	6348
2142.665	6295
2144.71	6147
2146.753	6281
2148.797	6233
2150.838	6273
2152.883	6267
2154.923	6329
2156.965	6243
2159.007	6241
2161.046	6243
2163.086	6338
2165.126	6303
2167.163	6263
2169.202	6237
2171.239	6200
2173.277	6188
2175.314	6283
2177.349	6143
2179.385	6251
2181.42	6362
2183.453	6161
2185.49	6199
2187.522	6257
2189.555	6127
2191.586	6226
2193.619	6159
2195.651	6197
2197.682	6127
2199.711	6196
2201.74	6124
2203.769	6195
2205.799	6099
2207.828	6197
2209.855	6152
2211.882	6156
2213.908	6031
2215.934	6182
2217.961	6125
2219.986	6115
2222.01	6090
2224.034	6208
2226.057	6024
2228.08	6166
2230.104	6200
2232.124	6193
2234.145	6131
2236.166	6220
2238.186	6212
2240.207	6061
2242.227	6236
2244.244	6150
2246.262	6195
2248.28	6118
2250.299	6069
2252.314	6242
2254.33	6155
2256.346	6131
2258.36	6214
2260.375	6204
2262.391	6120
2264.403	6160
2266.416	6139
2268.427	6183
2270.44	6207
2272.453	6218
2274.463	6244
2276.474	6066
2278.483	6161
2280.493	6212
2282.501	6080
2284.51	6219
2286.518	6174
2288.524	6143
2290.532	6181
2292.537	6134
2294.544	5986
2296.55	6151
2298.554	6206
2300.557	6184
2302.562	6133
2304.566	6184
2306.568	6194
2308.569	6143
2310.572	6199
2312.573	6134
2314.573	6085
2316.574	6147
2318.573	6192
2320.571	6082
2322.571	6195
2324.569	6065
2326.567	6161
2328.564	6152
2330.56	6040
2332.556	6095
2334.551	6217
2336.546	5957
2338.542	6117
2340.535	6070
2342.529	6144
2344.521	6058
2346.512	6170
2348.505	6154
2350.497	6046
2352.487	6083
2354.478	6018
2356.468	5968
2358.457	6090
2360.446	6107
2362.434	6070
2364.422	6102
2366.408	6025
2368.395	5986
2370.383	6025
2372.369	6069
2374.353	6171
2376.338	6029
2378.321	6074
2380.307	5984
2382.29	6120
2384.272	5898
2386.254	5910
2388.235	6062
2390.218	5989
2392.198	5931
2394.179	5994
2396.157	5906
2398.137	6032
2400.115	5834
2402.095	5938
2404.072	6048
2406.048	6019
2408.026	5952
2410.001	5879
2411.977	5954
2413.953	6019
2415.927	5923
2417.9	5962
2419.875	5904
2421.847	5960
2423.821	5978
2425.792	5977
2427.763	6055
2429.736	5993
2431.706	6019
2433.677	5999
2435.646	5949
2437.615	6009
2439.583	5973
2441.551	6004
2443.519	5947
2445.486	5868
2447.452	6039
2449.418	6000
2451.383	6007
2453.348	5994
2455.314	6053
2457.278	5892
2459.241	5986
2461.205	5931
2463.167	5967
2465.131	5961
2467.091	6016
2469.052	5904
2471.012	5981
2472.972	6148
2474.932	5936
2476.891	5810
2478.85	6042
2480.808	5931
2482.766	5985
2484.722	5945
2486.68	5938
2488.636	6029
2490.591	5959
2492.546	6011
2494.5	5965
2496.456	5857
2498.41	5968
2500.362	5912
2502.315	5913
2504.266	5983
2506.218	6064
2508.169	5913
2510.121	5839
2512.07	5903
2514.019	5916
2515.968	5955
2517.918	5860
2519.866	6033
2521.813	5921
2523.76	5901
2525.707	6006
2527.653	5945
2529.599	5832
2531.543	5881
2533.489	5930
2535.433	5841
2537.376	5960
2539.32	5846
2541.264	5890
2543.205	5836
2545.147	5857
2547.087	5979
2549.029	5799
2550.969	5996
2552.908	5883
2554.847	5860
2556.786	5906
2558.724	5880
2560.663	5905
2562.6	5937
2564.537	5891
2566.473	5915
2568.408	5855
2570.345	6047
2572.28	5871
2574.214	5883
2576.148	5991
2578.081	5860
2580.014	5860
2581.947	5911
2583.879	5894
2585.81	6023
2587.741	5946
2589.67	5882
2591.602	6004
2593.532	5829
2595.461	5877
2597.388	5840
2599.316	6011
2601.244	5793
2603.172	5923
2605.098	5886
2607.023	5932
2608.949	5860
2610.873	5916
2612.8	5934
2614.723	5969
2616.647	5895
2618.569	5922
2620.493	5915
2622.416	5880
2624.338	5983
2626.258	5873
2628.179	5920
2630.099	5921
2632.019	5928
2633.939	5923
2635.857	5890
2637.775	5988
2639.694	5827
2641.61	5915
2643.528	5964
2645.444	5930
2647.361	5982
2649.276	6022
2651.19	5893
2653.105	5916
2655.019	5991
2656.934	5962
2658.846	5954
2660.758	5926
2662.67	5915
2664.583	5877
2666.493	5870
2668.404	5990
2670.313	5934
2672.223	6023
2674.134	5909
2676.042	5922
2677.95	5857
2679.858	5873
2681.765	5969
2683.673	5831
2685.579	5901
2687.483	5837
2689.389	5954
2691.294	5912
2693.198	5773
2695.104	5848
2697.006	5959
2698.909	5895
2700.811	5855
2702.713	5903
2704.615	5802
2706.516	5833
2708.417	5868
2710.316	5845
2712.216	5778
2714.115	5976
2716.014	6001
2717.913	5802
2719.81	5761
2721.707	5859
2723.603	5950
2725.501	5833
2727.396	5774
2729.292	5715
2731.186	5768
2733.081	5816
2734.976	5675
2736.87	5765
2738.762	5908
2740.653	5865
2742.546	5860
2744.437	5723
2746.329	5826
2748.22	5748
2750.11	5809
2751.999	5858
2753.889	5714
2755.778	5799
2757.666	5835
2759.553	5825
2761.44	5819
2763.328	5850
2765.215	5821
2767.101	5726
2768.986	5816
2770.87	5792
2772.754	5826
2774.638	5781
2776.523	5805
2778.405	5703
2780.288	5884
2782.17	5898
2784.051	5810
2785.934	5907
2787.814	5898
2789.694	5786
2791.574	5865
2793.453	5730
2795.332	5834
2797.212	5834
2799.088	5729
2800.966	5695
2802.843	5701
2804.719	5802
2806.597	5726
2808.471	5778
2810.346	5693
2812.221	5769
2814.094	5877
2815.969	5711
2817.843	5759
2819.714	5670
2821.587	5767
2823.459	5688
2825.329	5659
2827.202	5844
2829.072	5780
2830.942	5713
2832.811	5718
2834.68	5650
2836.549	5802
2838.418	5772
2840.284	5738
2842.152	5800
2844.018	5719
2845.885	5826
2847.751	5716
2849.616	5769
2851.482	5803
2853.345	5857
2855.208	5766
2857.074	5781
2858.937	5841
2860.799	5887
2862.66	5767
2864.522	5858
2866.385	5951
2868.245	5880
2870.104	5868
2871.964	5965
2873.824	5995
2875.683	6080
2877.542	6091
2879.4	5980
2881.257	5978
2883.114	6158
2884.97	6103
2886.827	6169
2888.683	6153
2890.537	6141
2892.392	6100
2894.246	6148
2896.1	6053
2897.954	6107
2899.807	6074
2901.66	6116
2903.51	6114
2905.362	6148
2907.214	6098
2909.065	6076
2910.915	6101
2912.765	6164
2914.613	6191
2916.463	6246
2918.311	6295
2920.158	6264
2922.006	6313
2923.853	6381
2925.698	6325
2927.546	6411
2929.392	6485
2931.236	6470
2933.081	6582
2934.924	6598
2936.77	6721
2938.613	6604
2940.455	6767
2942.298	6546
2944.139	6749
2945.982	6709
2947.823	6611
2949.662	6727
2951.503	6730
2953.342	6492
2955.182	6563
2957.021	6577
2958.858	6346
2960.697	6475
2962.534	6424
2964.37	6438
2966.207	6361
2968.044	6313
2969.879	6277
2971.714	6134
2973.548	6233
2975.383	6199
2977.218	6258
2979.051	6213
2980.883	6091
2982.715	6083
2984.547	6253
2986.379	6161
2988.21	5997
2990.04	5919
2991.87	6047
2993.7	5973
2995.53	5926
2997.359	5945
2999.187	5886
3001.015	5832
3002.842	5855
3004.669	5813
3006.497	5894
3008.323	5774
3010.148	5751
3011.974	5671
3013.797	5751
3015.623	5640
3017.447	5620
3019.27	5596
3021.094	5550
3022.915	5523
3024.737	5671
3026.56	5639
3028.38	5566
3030.201	5713
3032.022	5645
3033.84	5474
3035.662	5515
3037.481	5575
3039.298	5529
3041.117	5473
3042.933	5515
3044.752	5534
3046.568	5439
3048.385	5450
3050.2	5583
3052.016	5449
3053.83	5350
3055.646	5565
3057.46	5418
3059.272	5481
3061.086	5509
3062.898	5486
3064.711	5458
3066.524	5482
3068.335	5453
3070.145	5470
3071.956	5438
3073.766	5417
3075.576	5445
3077.385	5411
3079.193	5427
3081.002	5443
3082.81	5382
3084.618	5421
3086.425	5462
3088.231	5360
3090.036	5402
3091.842	5440
3093.648	5247
3095.452	5412
3097.257	5328
3099.06	5396
3100.863	5294
3102.666	5253
3104.47	5389
3106.272	5418
3108.073	5356
3109.875	5396
3111.676	5363
3113.477	5402
3115.277	5210
3117.077	5320
3118.874	5354
3120.673	5255
3122.473	5292
3124.271	5270
3126.066	5381
3127.863	5305
3129.66	5235
3131.456	5280
3133.252	5220
3135.047	5292
3136.842	5254
3138.635	5227
3140.429	5314
3142.223	5260
3144.016	5216
3145.808	5247
3147.6	5270
3149.392	5236
3151.183	5166
3152.975	5131
3154.765	5338
3156.553	5218
3158.344	5314
3160.132	5179
3161.922	5265
3163.71	5221
3165.497	5288
3167.285	5208
3169.071	5135
3170.858	5163
3172.645	5218
3174.429	5197
3176.214	5247
3177.998	5211
3179.783	5171
3181.568	5143
3183.351	5141
3185.133	5039
3186.915	5201
3188.698	5175
3190.481	5319
3192.261	5139
3194.042	5109
3195.822	5215
3197.601	5134
3199.381	5221
3201.161	5125
3202.939	5242
3204.717	5293
3206.495	5105
3208.272	5108
3210.05	5216
3211.826	5180
3213.602	5138
3215.376	5185
3217.151	5153
3218.927	5150
3220.702	5225
3222.476	5136
3224.249	5107
3226.021	5245
3227.793	5153
3229.567	5182
3231.339	5174
3233.109	5037
3234.88	5190
3236.651	5197
3238.421	5103
3240.191	5067
3241.96	5135
3243.728	5144
3245.497	5168
3247.263	5279
3249.033	5120
3250.799	5266
3252.566	5129
3254.331	5159
3256.097	5049
3257.863	5184
3259.628	5110
3261.392	5156
3263.156	5118
3264.919	5125
3266.683	5152
3268.447	5119
3270.208	5162
3271.969	5151
3273.731	5141
3275.492	5114
3277.253	5125
3279.013	5133
3280.773	5126
3282.532	5072
3284.291	5235
3286.05	5107
3287.808	5098
3289.566	5235
3291.323	5117
3293.079	5169
3294.835	5114
3296.593	5126
3298.348	5038
3300.102	5100
3301.857	5084
3303.611	5111
3305.366	5074
3307.119	5135
3308.872	5208
3310.624	5097
3312.376	5144
3314.129	5078
3315.881	5158
3317.631	5121
3319.38	5059
3321.13	5052
3322.88	5164
3324.631	5037
3326.379	5105
3328.126	5078
3329.875	5078
3331.622	5088
3333.371	5037
3335.116	5150
3336.863	5164
3338.609	5067
3340.353	5068
3342.1	5060
3343.845	5092
3345.588	5002
3347.332	4971
3349.074	5059
3350.817	5139
3352.56	5072
3354.303	5039
3356.043	5120
3357.785	5010
3359.525	5055
3361.268	5035
3363.007	5024
3364.745	5075
3366.485	4989
3368.223	5035
3369.962	5043
3371.701	4981
3373.438	5082
3375.174	4953
3376.911	5100
3378.647	4966
3380.384	4959
3382.118	4948
3383.854	5034
3385.588	5010
3387.322	4955
3389.057	4954
3390.79	4991
3392.522	5005
3394.255	4903
3395.987	4995
3397.719	4987
3399.451	4952
3401.181	4988
3402.911	4917
3404.641	4992
3406.371	4953
3408.101	4959
3409.83	5055
3411.558	4976
3413.285	4902
3415.011	4915
3416.739	4912
3418.467	4945
3420.193	4925
3421.919	4962
3423.644	4964
3425.368	4983
3427.094	4896
3428.818	4915
3430.542	4898
3432.264	4816
3433.987	4962
3435.712	4865
3437.434	4970
3439.155	4942
3440.876	4882
3442.596	4776
3444.317	4860
3446.039	4845
3447.757	4859
3449.477	4828
3451.195	4822
3452.914	4906
3454.632	4805
3456.35	4796
3458.067	4885
3459.784	4773
3461.5	4781
3463.216	4859
3464.932	4779
3466.647	4798
3468.362	4749
3470.076	4758
3471.789	4744
3473.505	4789
3475.217	4771
3476.929	4744
3478.641	4752
3480.354	4760
3482.066	4713
3483.777	4787
3485.487	4828
3487.197	4646
3488.908	4644
3490.617	4719
3492.327	4672
3494.035	4624
3495.743	4714
3497.451	4659
3499.158	4688
3500.866	4630
3502.572	4646
3504.278	4664
3505.984	4702
3507.689	4640
3509.396	4766
3511.1	4678
3512.804	4770
3514.508	4634
3516.211	4666
3517.913	4672
3519.616	4598
3521.319	4662
3523.021	4593
3524.722	4576
3526.422	4528
3528.124	4702
3529.824	4619
3531.524	4721
3533.222	4550
3534.921	4589
3536.62	4631
3538.318	4566
3540.016	4617
3541.714	4532
3543.41	4639
3545.107	4594
3546.803	4596
3548.5	4587
3550.194	4612
3551.889	4543
3553.583	4575
3555.279	4507
3556.972	4532
3558.666	4525
3560.358	4631
3562.051	4593
3563.742	4447
3565.435	4527
3567.126	4587
3568.817	4448
3570.507	4522
3572.197	4536
3573.888	4441
3575.577	4530
3577.265	4515
3578.954	4503
3580.642	4513
3582.329	4533
3584.017	4536
3585.704	4494
3587.391	4553
3589.077	4505
3590.762	4504
3592.449	4472
3594.133	4489
3595.817	4425
3597.501	4494
3599.185	4377
3600.869	4453
3602.552	4310
3604.234	4492
3605.916	4430
3607.598	4392
3609.279	4387
3610.961	4392
3612.642	4427
3614.321	4402
3616	4282
3617.68	4364
3619.36	4423
3621.039	4380
3622.716	4373
3624.394	4408
3626.071	4285
3627.748	4404
3629.425	4394
3631.102	4304
3632.778	4308
3634.452	4290
3636.127	4344
3637.803	4320
3639.477	4360
3641.151	4246
3642.823	4381
3644.497	4269
3646.171	4270
3647.842	4323
3649.515	4303
3651.185	4271
3652.857	4359
3654.527	4264
3656.198	4238
3657.868	4232
3659.537	4326
3661.207	4314
3662.875	4260
3664.544	4355
3666.212	4270
3667.879	4208
3669.546	4255
3671.212	4314
3672.88	4218
3674.546	4115
3676.211	4288
3677.875	4216
3679.541	4215
3681.205	4207
3682.87	4206
3684.533	4128
3686.196	4156
3687.859	4238
3689.521	4238
3691.184	4155
3692.845	4186
3694.507	4160
3696.167	4202
3697.827	4241
3699.487	4279
3701.148	4189
3702.808	4194
3704.466	4225
3706.125	4201
3707.783	4167
3709.442	4155
3711.099	4146
3712.757	4192
3714.412	4159
3716.068	4182
3717.725	4231
3719.381	4264
3721.036	4123
3722.689	4149
3724.344	4197
3725.998	4188
3727.652	4213
3729.305	4204
3730.958	4182
3732.61	4193
3734.262	4093
3735.915	4163
3737.565	4163
3739.217	4081
3740.866	4095
3742.516	4105
3744.165	4187
3745.816	4032
3747.464	4018
3749.113	4093
3750.761	4078
3752.409	4103
3754.057	4060
3755.703	4035
3757.35	4042
3758.996	4063
3760.641	4126
3762.289	4169
3763.933	4113
3765.577	4078
3767.222	4008
3768.865	4194
3770.508	4109
3772.152	4061
3773.796	4050
3775.438	4074
3777.079	4069
3778.721	4076
3780.363	4065
3782.003	4058
3783.643	3989
3785.283	4016
3786.923	4057
3788.563	4064
3790.203	4037
3791.841	4002
3793.479	4047
3795.115	4023
3796.753	4001
3798.391	3996
3800.027	3968
3801.664	4035
3803.299	4046
3804.935	4031
3806.571	3994
3808.206	4017
3809.839	3905
3811.473	4049
3813.107	3849
3814.74	3976
3816.375	3948
3818.006	4039
3819.638	3918
3821.27	3885
3822.9	3954
3824.532	3972
3826.163	3987
3827.792	3970
3829.423	3894
3831.051	3874
3832.682	4017
3834.311	3957
3835.938	3919
3837.566	3913
3839.193	3933
3840.821	3914
3842.448	3940
3844.075	3894
3845.7	3795
3847.325	3848
3848.951	3958
3850.576	3964
3852.201	3872
3853.825	3897
3855.448	3847
3857.072	3895
3858.694	3891
3860.318	3874
3861.939	3833
3863.562	3912
3865.183	3854
3866.804	3856
3868.426	3847
3870.045	3924
3871.666	3855
3873.285	3884
3874.904	3806
3876.524	3837
3878.142	3906
3879.76	3824
3881.378	3801
3882.995	3760
3884.612	3817
3886.229	3852
3887.845	3856
3889.461	3801
3891.076	3789
3892.691	3835
3894.307	3847
3895.922	3764
3897.536	3777
3899.149	3910
3900.761	3723
3902.374	3813
3903.988	3818
3905.6	3770
3907.212	3870
3908.822	3879
3910.433	3840
3912.045	3836
3913.655	3877
3915.265	3815
3916.875	3882
3918.483	3846
3920.093	3730
3921.702	3843
3923.309	3824
3924.917	3821
3926.523	3713
3928.13	3842
3929.739	3777
3931.344	3837
3932.95	3760
3934.555	3824
3936.159	3772
3937.766	3810
3939.369	3812
3940.974	3792
3942.577	3757
3944.181	3827
3945.783	3764
3947.386	3750
3948.989	3722
3950.59	3740
3952.191	3679
3953.791	3791
3955.394	3703
3956.994	3845
3958.593	3717
3960.192	3844
3961.791	3802
3963.392	3706
3964.99	3741
3966.588	3762
3968.185	3765
3969.782	3716
3971.379	3668
3972.976	3719
3974.572	3668
3976.168	3715
3977.763	3730
3979.358	3647
3980.954	3685
3982.548	3662
3984.142	3617
3985.736	3734
3987.329	3677
3988.922	3633
3990.516	3690
3992.108	3689
3993.698	3668
3995.29	3575
3996.881	3665
3998.473	3530
4000.064	3595
4001.653	3654
4003.242	3543
4004.832	3614
4006.422	3501
4008.01	3685
4009.598	3627
4011.186	3596
4012.773	3608
4014.36	3615
4015.947	3479
4017.534	3596
4019.119	3547
4020.705	3632
4022.291	3559
4023.876	3526
4025.461	3522
4027.044	3551
4028.627	3553
4030.211	3602
4031.795	3592
4033.378	3448
4034.96	3530
4036.542	3506
4038.124	3432
4039.704	3555
4041.286	3478
4042.867	3515
4044.447	3480
4046.026	3572
4047.606	3509
4049.187	3460
4050.765	3436
4052.343	3585
4053.92	3598
4055.498	3501
4057.076	3461
4058.654	3482
4060.23	3472
4061.806	3532
4063.381	3510
4064.957	3546
4066.533	3481
4068.107	3395
4069.682	3500
4071.256	3500
4072.829	3512
4074.404	3451
4075.977	3506
4077.549	3442
4079.121	3436
4080.693	3469
4082.265	3488
4083.836	3416
4085.407	3465
4086.977	3485
4088.547	3499
4090.117	3494
4091.687	3437
4093.256	3518
4094.825	3354
4096.392	3436
4097.96	3436
4099.528	3435
4101.097	3502
4102.663	3452
4104.229	3358
4105.795	3463
4107.361	3449
4108.928	3398
4110.493	3386
4112.058	3442
4113.621	3345
4115.186	3388
4116.75	3387
4118.313	3420
4119.876	3349
4121.438	3381
4123	3386
4124.562	3384
4126.125	3363
4127.686	3354
4129.246	3339
4130.807	3326
4132.367	3343
4133.927	3364
4135.486	3317
4137.046	3319
4138.604	3408
4140.162	3306
4141.72	3290
4143.279	3265
4144.836	3377
4146.393	3349
4147.949	3308
4149.505	3296
4151.062	3294
4152.617	3293
4154.172	3302
4155.727	3307
4157.281	3361
4158.836	3308
4160.39	3232
4161.943	3210
4163.496	3351
4165.048	3340
4166.601	3259
4168.154	3296
4169.706	3260
4171.257	3211
4172.808	3277
4174.358	3325
4175.909	3276
4177.458	3269
4179.008	3197
4180.558	3229
4182.106	3272
4183.655	3253
4185.204	3243
4186.751	3225
4188.298	3146
4189.845	3152
4191.392	3215
4192.939	3268
4194.485	3230
4196.031	3209
4197.576	3184
4199.121	3348
4200.666	3211
4202.211	3170
4203.754	3214
4205.298	3171
4206.84	3140
4208.384	3151
4209.927	3225
4211.47	3221
4213.011	3181
4214.552	3114
4216.094	3174
4217.635	3149
4219.175	3119
4220.716	3214
4222.255	3211
4223.793	3200
4225.335	3183
4226.873	3124
4228.411	3209
4229.948	3160
4231.486	3170
4233.024	3098
4234.562	3178
4236.098	3128
4237.634	3130
4239.169	3121
4240.705	3106
4242.241	3140
4243.776	3194
4245.31	3129
4246.844	3171
4248.378	3136
4249.911	3200
4251.445	3162
4252.978	3151
4254.51	3140
4256.042	3063
4257.574	3116
4259.107	3122
4260.638	3131
4262.169	3126
4263.699	3187
4265.228	3083
4266.759	3143
4268.289	3105
4269.818	3044
4271.345	3102
4272.874	3104
4274.402	3135
4275.931	3074
4277.458	3087
4278.985	3113
4280.512	3052
4282.037	3053
4283.564	3126
4285.089	3113
4286.615	3045
4288.139	3052
4289.664	3039
4291.187	3077
4292.712	3049
4294.235	3041
4295.759	3008
4297.281	3098
4298.804	3127
4300.327	3035
4301.849	3049
4303.37	3053
4304.891	3037
4306.412	3057
4307.933	3054
4309.453	3024
4310.973	3027
4312.492	2999
