398.1873	5264
400.7097	5248
403.2336	5201
405.7547	5348
408.2751	5368
410.7948	5372
413.3138	5403
415.83	5382
418.3497	5569
420.8666	5497
423.3829	5502
425.8985	5572
428.4133	5582
430.9275	5553
433.441	5615
435.9538	5592
438.4639	5701
440.9753	5566
443.4881	5706
445.9982	5606
448.5055	5614
451.0142	5697
453.5201	5700
456.0274	5596
458.5361	5723
461.04	5669
463.5453	5677
466.0478	5648
468.5517	5777
471.0549	5805
473.5574	5691
476.0572	5668
478.5584	5662
481.0568	5788
483.5545	5718
486.0557	5812
488.5521	5760
491.0478	5780
493.5449	5772
496.0392	5832
498.5349	5798
501.0299	5921
503.5222	5874
506.0139	5864
508.5048	5961
510.9991	5991
513.4887	5932
515.9777	5867
518.4659	5906
520.9534	5897
523.4403	5854
525.9306	5919
528.4161	5905
530.9009	5991
533.3851	5879
535.8687	5982
538.3535	5965
540.8356	5915
543.3171	5890
545.7979	5806
548.278	6022
550.7595	5926
553.2383	5844
555.7144	5877
558.1918	5993
560.6685	6002
563.1446	6003
565.6221	6020
568.0968	6016
570.5688	6108
573.0422	6100
575.515	6231
577.989	6111
580.4584	6190
582.9291	6115
585.3991	6176
587.8685	6200
590.3352	6237
592.8052	6183
595.2706	6156
597.7372	6102
600.2033	6103
602.6666	6108
605.1334	6132
607.5953	6120
610.0587	6136
612.5193	6151
614.9814	6161
617.4427	6193
619.9034	6165
622.3615	6201
624.8208	6122
627.2775	6056
629.7335	6079
632.1929	6164
634.6476	5984
637.1016	6245
639.5569	6202
642.0096	6207
644.4637	6269
646.9151	6093
649.3678	6276
651.8179	6144
654.2672	6289
656.7159	6225
659.166	6281
661.6154	6227
664.0622	6226
666.5082	6354
668.9537	6317
671.4005	6286
673.8445	6288
676.288	6296
678.7308	6500
681.1729	6266
683.6163	6338
686.0572	6277
688.4973	6340
690.9368	6338
693.3757	6309
695.8138	6366
698.2534	6400
700.6902	6342
703.1245	6367
705.56	6386
707.9949	6559
710.4311	6402
712.8647	6379
715.2957	6388
717.7279	6506
720.1595	6358
722.5905	6535
725.0208	6513
727.4505	6539
729.8795	6614
732.3058	6584
734.7336	6559
737.1626	6636
739.587	6577
742.0128	6581
744.4359	6664
746.8604	6785
749.2841	6682
751.7073	6675
754.1278	6803
756.5496	6779
758.9688	6801
761.3893	6786
763.8093	6809
766.2285	6826
768.6451	6823
771.0611	6749
773.4784	6772
775.895	6861
778.3091	6875
780.7244	6827
783.1371	6690
785.5493	6723
787.9626	6724
790.3754	6832
792.7856	6755
795.1951	6745
797.6039	6881
800.0121	6889
802.4236	6721
804.8306	6868
807.2369	6902
809.6425	6866
812.0475	6862
814.4538	6855
816.8575	6877
819.2606	6881
821.663	6961
824.0648	6975
826.4659	6777
828.8683	6851
831.2682	6759
833.6674	6845
836.066	7081
838.4639	6854
840.8632	6915
843.2579	7010
845.6539	6999
848.0493	6894
850.444	7033
852.84	6946
855.2315	7105
857.6243	6945
860.0165	6977
862.4081	7073
864.797	7061
867.1892	7009
869.5789	6892
871.9659	7064
874.3542	7075
876.74	6928
879.129	7010
881.5155	6836
883.8994	6869
886.2845	6956
888.6671	6940
891.051	6925
893.4343	6964
895.8169	7022
898.197	6868
900.5783	6943
902.9571	6984
905.3372	7191
907.7167	7050
910.0936	7022
912.4698	7092
914.8474	7136
917.2244	7182
919.5987	7131
921.9744	7206
924.3475	7300
926.72	7198
929.0918	7206
931.4669	7221
933.8375	7280
936.2074	7196
938.5767	7345
940.9454	7271
943.3154	7399
945.6829	7446
948.0497	7653
950.4178	7725
952.7833	7824
955.1483	7956
957.5145	8088
959.8782	8111
962.2412	8219
964.6036	8146
966.9655	7890
969.3266	7896
971.6871	7586
974.0471	7383
976.4064	7349
978.765	7332
981.125	7187
983.4824	7228
985.8373	7166
988.1935	7194
990.549	7319
992.9039	7301
995.2602	7266
997.6119	7211
999.965	7173
1002.317	7218
1004.667	7167
1007.02	7252
1009.371	7268
1011.719	7229
1014.068	7221
1016.415	7264
1018.765	7257
1021.111	7372
1023.458	7289
1025.804	7284
1028.147	7312
1030.49	7234
1032.837	7374
1035.179	7337
1037.522	7400
1039.862	7312
1042.204	7351
1044.546	7419
1046.884	7394
1049.224	7333
1051.562	7289
1053.899	7391
1056.237	7398
1058.575	7321
1060.91	7498
1063.244	7481
1065.58	7536
1067.913	7494
1070.248	7563
1072.579	7493
1074.911	7444
1077.242	7497
1079.572	7496
1081.905	7534
1084.234	7400
1086.562	7394
1088.89	7446
1091.217	7469
1093.544	7463
1095.871	7359
1098.197	7464
1100.521	7434
1102.845	7377
1105.169	7444
1107.491	7350
1109.814	7430
1112.135	7360
1114.456	7396
1116.776	7519
1119.096	7484
1121.415	7443
1123.734	7457
1126.052	7466
1128.369	7500
1130.686	7333
1133.002	7464
1135.318	7481
1137.632	7437
1139.945	7534
1142.258	7436
1144.573	7556
1146.884	7494
1149.196	7594
1151.505	7552
1153.816	7458
1156.124	7398
1158.435	7536
1160.742	7429
1163.051	7457
1165.356	7552
1167.663	7427
1169.97	7554
1172.276	7472
1174.579	7431
1176.881	7361
1179.186	7544
1181.487	7499
1183.79	7490
1186.092	7562
1188.392	7498
1190.691	7526
1192.991	7521
1195.291	7529
1197.588	7582
1199.885	7496
1202.181	7491
1204.479	7618
1206.775	7539
1209.07	7644
1211.363	7485
1213.656	7586
1215.949	7509
1218.241	7642
1220.534	7636
1222.825	7635
1225.115	7711
1227.405	7684
1229.693	7738
1231.984	7643
1234.271	7821
1236.558	7688
1238.845	7615
1241.131	7830
1243.416	7736
1245.703	7727
1247.987	7838
1250.269	7729
1252.552	7805
1254.834	7784
1257.118	7805
1259.399	7739
1261.678	7752
1263.958	7675
1266.237	7827
1268.516	7872
1270.794	7668
1273.072	7666
1275.347	7821
1277.624	7706
1279.899	7742
1282.175	7753
1284.449	7681
1286.722	7771
1288.995	7646
1291.266	7727
1293.54	7803
1295.81	7721
1298.081	7667
1300.35	7623
1302.62	7676
1304.889	7639
1307.156	7697
1309.425	7610
1311.69	7745
1313.957	7748
1316.222	7677
1318.488	7689
1320.751	7681
1323.016	7677
1325.278	7663
1327.54	7750
1329.803	7709
1332.065	7769
1334.325	7788
1336.584	7575
1338.843	7832
1341.101	7724
1343.36	7701
1345.617	7737
1347.876	7779
1350.131	7839
1352.387	7665
1354.643	7791
1356.897	7716
1359.151	7773
1361.403	7705
1363.656	7633
1365.909	7853
1368.16	7761
1370.409	7783
1372.659	7701
1374.909	7714
1377.157	7880
1379.407	7795
1381.655	7793
1383.9	7822
1386.147	7888
1388.393	7921
1390.64	7865
1392.885	7832
1395.127	7942
1397.37	7859
1399.614	7807
1401.854	7983
1404.098	7846
1406.339	7908
1408.578	7962
1410.818	7974
1413.056	7845
1415.297	7974
1417.533	7853
1419.771	7940
1422.006	7940
1424.243	7855
1426.479	7883
1428.715	7970
1430.948	7870
1433.182	7902
1435.414	7895
1437.647	8165
1439.88	8134
1442.11	8019
1444.342	7990
1446.571	8145
1448.799	8180
1451.029	8074
1453.258	8040
1455.485	8047
1457.711	8042
1459.937	8092
1462.164	8035
1464.39	8136
1466.614	8060
1468.838	8109
1471.06	7974
1473.283	8006
1475.506	7993
1477.727	7987
1479.949	7844
1482.169	7979
1484.389	7884
1486.609	8045
1488.828	7869
1491.045	7922
1493.261	7881
1495.477	7849
1497.693	7934
1499.91	7934
1502.125	7881
1504.339	7877
1506.553	7809
1508.766	7821
1510.979	7792
1513.191	7889
1515.402	7886
1517.613	7915
1519.823	7722
1522.033	7842
1524.242	7738
1526.451	7789
1528.657	7833
1530.865	7724
1533.072	7856
1535.278	7783
1537.484	7926
1539.687	7959
1541.892	7873
1544.096	7855
1546.299	7882
1548.502	7940
1550.703	7977
1552.905	8036
1555.104	7938
1557.303	7979
1559.505	8032
1561.703	7974
1563.902	7997
1566.099	8082
1568.295	8018
1570.494	8118
1572.689	7943
1574.883	8049
1577.079	8222
1579.272	8008
1581.467	8010
1583.659	8090
1585.853	7965
1588.044	8112
1590.234	8160
1592.424	8082
1594.615	8200
1596.806	8098
1598.994	8141
1601.182	8114
1603.369	8110
1605.557	8109
1607.744	8248
1609.929	8134
1612.114	8215
1614.298	8107
1616.482	8217
1618.667	8077
1620.85	8110
1623.032	8126
1625.214	8183
1627.395	8237
1629.575	8275
1631.755	8072
1633.935	8179
1636.114	8178
1638.292	8208
1640.471	8140
1642.647	8242
1644.823	8331
1647	8147
1649.175	8287
1651.348	8132
1653.525	8299
1655.698	8175
1657.87	8392
1660.043	8256
1662.213	8227
1664.387	8281
1666.558	8179
1668.727	8289
1670.896	8154
1673.064	8183
1675.233	8260
1677.401	8313
1679.569	8294
1681.735	8220
1683.902	8356
1686.066	7981
1688.233	8219
1690.397	8247
1692.559	8147
1694.723	8208
1696.885	8315
1699.048	8136
1701.21	8174
1703.37	8142
1705.53	8249
1707.689	8002
1709.849	8275
1712.009	8064
1714.166	8113
1716.323	8053
1718.479	8163
1720.634	8055
1722.793	8259
1724.948	8149
1727.102	8185
1729.255	8145
1731.408	8139
1733.562	8148
1735.714	8089
1737.865	8162
1740.016	8138
1742.166	8148
1744.316	8154
1746.467	8020
1748.616	8212
1750.764	8263
1752.911	8189
1755.056	8275
1757.205	8188
1759.35	8279
1761.496	8202
1763.641	8198
1765.785	8304
1767.927	8292
1770.072	8325
1772.214	8186
1774.355	8179
1776.496	8320
1778.637	8286
1780.778	8283
1782.918	8384
1785.057	8250
1787.194	8399
1789.333	8403
1791.472	8269
1793.608	8353
1795.745	8200
1797.879	8378
1800.015	8218
1802.148	8331
1804.284	8194
1806.417	8308
1808.548	8219
1810.682	8306
1812.812	8370
1814.946	8308
1817.075	8290
1819.205	8336
1821.335	8227
1823.463	8262
1825.59	8350
1827.721	8110
1829.847	8124
1831.973	8340
1834.098	8311
1836.223	8128
1838.351	8344
1840.475	8165
1842.598	8321
1844.721	8190
1846.843	8261
1848.966	8204
1851.087	8335
1853.21	8181
1855.33	8304
1857.449	8260
1859.568	8209
1861.688	8165
1863.806	8295
1865.924	8299
1868.039	8242
1870.155	8234
1872.273	8197
1874.388	8229
1876.503	8257
1878.617	8211
1880.73	8253
1882.844	8172
1884.956	8277
1887.068	8285
1889.18	8425
1891.291	8274
1893.4	8270
1895.511	8200
1897.621	8184
1899.73	8204
1901.837	8276
1903.944	8401
1906.053	8272
1908.159	8245
1910.265	8256
1912.369	8393
1914.474	8346
1916.577	8392
1918.683	8434
1920.785	8351
1922.888	8307
1924.989	8240
1927.091	8445
1929.193	8371
1931.294	8393
1933.393	8339
1935.493	8374
1937.59	8428
1939.689	8413
1941.788	8441
1943.884	8271
1945.98	8493
1948.077	8328
1950.171	8389
1952.267	8451
1954.361	8415
1956.455	8302
1958.548	8368
1960.64	8344
1962.733	8258
1964.824	8377
1966.915	8322
1969.005	8380
1971.096	8383
1973.185	8277
1975.275	8416
1977.363	8417
1979.45	8395
1981.537	8368
1983.623	8304
1985.711	8316
1987.796	8244
1989.881	8382
1991.965	8263
1994.047	8371
1996.132	8239
1998.215	8285
2000.297	8346
2002.378	8381
2004.46	8368
2006.54	8323
2008.62	8308
2010.7	8410
2012.779	8369
2014.858	8289
2016.934	8367
2019.013	8439
2021.09	8282
2023.165	8214
2025.241	8212
2027.317	8302
2029.39	8271
2031.466	8320
2033.538	8235
2035.612	8333
2037.683	8333
2039.755	8245
2041.827	8357
2043.898	8249
2045.968	8367
2048.038	8348
2050.106	8240
2052.177	8294
2054.244	8413
2056.313	8205
2058.379	8358
2060.444	8170
2062.511	8390
2064.577	8259
2066.641	8389
2068.705	8421
2070.77	8372
2072.832	8222
2074.896	8325
2076.958	8428
2079.02	8438
2081.081	8331
2083.141	8265
2085.2	8349
2087.261	8374
2089.319	8474
2091.377	8431
2093.435	8406
2095.492	8316
2097.552	8407
2099.607	8341
2101.663	8403
2103.718	8359
2105.771	8251
2107.826	8342
2109.879	8418
2111.932	8316
2113.985	8278
2116.037	8408
2118.088	8392
2120.141	8312
2122.191	8330
2124.239	8342
2126.288	8244
2128.337	8277
2130.387	8336
2132.434	8310
2134.481	8308
2136.528	8502
2138.574	8242
2140.618	8187
2142.665	8341
2144.71	8289
2146.753	8250
2148.797	8303
2150.838	8278
2152.883	8416
2154.923	8312
2156.965	8295
2159.007	8219
2161.046	8313
2163.086	8307
2165.126	8342
2167.163	8240
2169.202	8260
2171.239	8214
2173.277	8397
2175.314	8375
2177.349	8305
2179.385	8262
2181.42	8227
2183.453	8261
2185.49	8253
2187.522	8160
2189.555	8331
2191.586	8154
2193.619	8187
2195.651	8123
2197.682	8198
2199.711	8219
2201.74	8205
2203.769	8225
2205.799	8112
2207.828	8197
2209.855	8210
2211.882	8239
2213.908	8223
2215.934	8043
2217.961	8251
2219.986	8130
2222.01	8210
2224.034	8105
2226.057	8088
2228.08	8104
2230.104	8182
2232.124	8170
2234.145	8282
2236.166	8201
2238.186	8136
2240.207	8118
2242.227	8307
2244.244	8059
2246.262	8099
2248.28	8133
2250.299	8204
2252.314	8091
2254.33	8198
2256.346	8157
2258.36	8132
2260.375	8207
2262.391	8148
2264.403	8119
2266.416	8137
2268.427	8089
2270.44	8062
2272.453	8155
2274.463	8192
2276.474	8223
2278.483	8264
2280.493	8269
2282.501	8114
2284.51	8160
2286.518	8342
2288.524	8149
2290.532	8102
2292.537	8183
2294.544	8276
2296.55	8161
2298.554	8114
2300.557	8091
2302.562	8094
2304.566	8120
2306.568	7988
2308.569	8135
2310.572	8219
2312.573	8194
2314.573	8192
2316.574	8218
2318.573	8165
2320.571	8205
2322.571	8171
2324.569	8000
2326.567	8172
2328.564	8144
2330.56	8069
2332.556	8116
2334.551	7999
2336.546	8000
2338.542	8045
2340.535	8125
2342.529	7982
2344.521	8001
2346.512	8177
2348.505	8055
2350.497	8013
2352.487	7896
2354.478	8075
2356.468	8063
2358.457	8018
2360.446	8102
2362.434	8135
2364.422	8055
2366.408	7997
2368.395	7904
2370.383	8057
2372.369	7798
2374.353	8049
2376.338	7990
2378.321	8090
2380.307	7900
2382.29	7983
2384.272	7931
2386.254	7873
2388.235	7947
2390.218	8011
2392.198	7860
2394.179	8032
2396.157	8029
2398.137	7988
2400.115	7969
2402.095	7908
2404.072	8107
2406.048	7831
2408.026	7830
2410.001	7999
2411.977	7961
2413.953	7946
2415.927	7834
2417.9	8039
2419.875	7857
2421.847	7833
2423.821	7921
2425.792	7929
2427.763	7982
2429.736	8027
2431.706	7804
2433.677	7975
2435.646	7917
2437.615	8031
2439.583	7902
2441.551	7948
2443.519	8018
2445.486	7932
2447.452	7957
2449.418	7897
2451.383	7961
2453.348	7923
2455.314	7951
2457.278	7860
2459.241	7882
2461.205	7817
2463.167	7832
2465.131	7812
2467.091	7961
2469.052	8015
2471.012	7887
2472.972	7887
2474.932	7870
2476.891	7862
2478.85	7846
2480.808	7870
2482.766	8011
2484.722	7702
2486.68	7755
2488.636	7835
2490.591	7818
2492.546	8108
2494.5	7803
2496.456	7893
2498.41	7799
2500.362	7840
2502.315	7827
2504.266	7823
2506.218	7931
2508.169	7768
2510.121	7816
2512.07	7834
2514.019	7725
2515.968	7892
2517.918	7786
2519.866	7719
2521.813	7803
2523.76	7853
2525.707	7953
2527.653	7684
2529.599	7738
2531.543	7724
2533.489	7838
2535.433	7649
2537.376	7720
2539.32	7838
2541.264	7735
2543.205	7710
2545.147	7857
2547.087	7714
2549.029	7811
2550.969	7861
2552.908	7876
2554.847	7798
2556.786	7779
2558.724	7732
2560.663	7762
2562.6	7814
2564.537	7866
2566.473	7762
2568.408	7926
2570.345	7806
2572.28	7766
2574.214	7899
2576.148	7799
2578.081	7777
2580.014	7741
2581.947	7807
2583.879	7783
2585.81	7720
2587.741	7842
2589.67	7857
2591.602	7789
2593.532	7751
2595.461	7809
2597.388	7943
2599.316	7821
2601.244	7910
2603.172	7647
2605.098	7883
2607.023	7794
2608.949	7868
2610.873	7805
2612.8	7874
2614.723	7899
2616.647	7775
2618.569	7782
2620.493	7849
2622.416	7797
2624.338	7949
2626.258	7794
2628.179	7817
2630.099	7823
2632.019	7791
2633.939	7856
2635.857	7769
2637.775	7897
2639.694	7988
2641.61	7747
2643.528	7936
2645.444	8028
2647.361	7830
2649.276	7819
2651.19	7810
2653.105	7869
2655.019	7880
2656.934	7899
2658.846	7897
2660.758	7861
2662.67	7833
2664.583	7914
2666.493	7883
2668.404	7843
2670.313	7831
2672.223	7840
2674.134	7819
2676.042	7860
2677.95	7781
2679.858	7750
2681.765	7814
2683.673	7720
2685.579	7654
2687.483	7792
2689.389	7821
2691.294	7779
2693.198	7759
2695.104	7768
2697.006	7796
2698.909	7758
2700.811	7745
2702.713	7701
2704.615	7794
2706.516	7776
2708.417	7780
2710.316	7712
2712.216	7731
2714.115	7787
2716.014	7732
2717.913	7712
2719.81	7763
2721.707	7742
2723.603	7775
2725.501	7812
2727.396	7622
2729.292	7687
2731.186	7685
2733.081	7710
2734.976	7568
2736.87	7596
2738.762	7740
2740.653	7704
2742.546	7839
2744.437	7547
2746.329	7642
2748.22	7687
2750.11	7745
2751.999	7603
2753.889	7643
2755.778	7634
2757.666	7701
2759.553	7578
2761.44	7710
2763.328	7685
2765.215	7662
2767.101	7716
2768.986	7648
2770.87	7607
2772.754	7653
2774.638	7521
2776.523	7641
2778.405	7627
2780.288	7682
2782.17	7689
2784.051	7512
2785.934	7658
2787.814	7613
2789.694	7668
2791.574	7582
2793.453	7570
2795.332	7625
2797.212	7631
2799.088	7585
2800.966	7619
2802.843	7568
2804.719	7685
2806.597	7572
2808.471	7574
2810.346	7628
2812.221	7549
2814.094	7550
2815.969	7605
2817.843	7650
2819.714	7628
2821.587	7566
2823.459	7709
2825.329	7646
2827.202	7596
2829.072	7584
2830.942	7588
2832.811	7539
2834.68	7626
2836.549	7624
2838.418	7634
2840.284	7547
2842.152	7482
2844.018	7569
2845.885	7636
2847.751	7625
2849.616	7707
2851.482	7585
2853.345	7565
2855.208	7584
2857.074	7529
2858.937	7629
2860.799	7637
2862.66	7738
2864.522	7758
2866.385	7799
2868.245	7753
2870.104	7813
2871.964	7730
2873.824	7871
2875.683	7922
2877.542	7814
2879.4	7966
2881.257	8016
2883.114	7972
2884.97	7938
2886.827	7960
2888.683	7898
2890.537	7982
2892.392	8013
2894.246	7958
2896.1	7957
2897.954	7928
2899.807	7882
2901.66	8019
2903.51	8025
2905.362	7892
2907.214	7901
2909.065	7842
2910.915	7947
2912.765	8005
2914.613	7907
2916.463	7990
2918.311	8001
2920.158	8046
2922.006	8009
2923.853	8177
2925.698	8130
2927.546	8198
2929.392	8181
2931.236	8330
2933.081	8148
2934.924	8238
2936.77	8322
2938.613	8320
2940.455	8505
2942.298	8423
2944.139	8506
2945.982	8411
2947.823	8535
2949.662	8300
2951.503	8331
2953.342	8320
2955.182	8366
2957.021	8268
2958.858	8352
2960.697	8093
2962.534	8125
2964.37	8119
2966.207	8148
2968.044	7990
2969.879	8047
2971.714	7926
2973.548	7987
2975.383	7952
2977.218	8073
2979.051	7910
2980.883	7846
2982.715	7980
2984.547	7828
2986.379	7761
2988.21	7838
2990.04	7802
2991.87	7799
2993.7	7864
2995.53	7743
2997.359	7678
2999.187	7677
3001.015	7515
3002.842	7700
3004.669	7546
3006.497	7515
3008.323	7566
3010.148	7403
3011.974	7432
3013.797	7473
3015.623	7430
3017.447	7398
3019.27	7349
3021.094	7406
3022.915	7430
3024.737	7282
3026.56	7201
3028.38	7316
3030.201	7243
3032.022	7256
3033.84	7314
3035.662	7188
3037.481	7145
3039.298	7212
3041.117	7311
3042.933	7313
3044.752	7145
3046.568	7245
3048.385	7272
3050.2	7199
3052.016	7199
3053.83	7128
3055.646	7209
3057.46	7314
3059.272	7239
3061.086	7064
3062.898	7187
3064.711	7178
3066.524	7250
3068.335	7144
3070.145	7180
3071.956	7129
3073.766	7158
3075.576	7103
3077.385	7163
3079.193	7299
3081.002	7101
3082.81	7131
3084.618	7098
3086.425	7105
3088.231	7191
3090.036	7087
3091.842	7069
3093.648	7090
3095.452	7215
3097.257	7105
3099.06	7005
3100.863	6995
3102.666	7031
3104.47	7111
3106.272	6967
3108.073	7134
3109.875	6970
3111.676	7050
3113.477	7079
3115.277	6959
3117.077	6991
3118.874	7020
3120.673	6943
3122.473	6934
3124.271	6936
3126.066	7016
3127.863	6855
3129.66	6981
3131.456	6846
3133.252	6888
3135.047	6977
3136.842	6951
3138.635	6967
3140.429	6884
3142.223	6953
3144.016	6875
3145.808	6866
3147.6	6924
3149.392	6916
3151.183	6795
3152.975	6872
3154.765	6978
3156.553	6967
3158.344	6896
3160.132	6863
3161.922	6910
3163.71	6856
3165.497	6920
3167.285	6878
3169.071	6823
3170.858	6884
3172.645	6781
3174.429	6814
3176.214	6861
3177.998	6788
3179.783	6803
3181.568	6761
3183.351	6834
3185.133	6836
3186.915	6889
3188.698	6756
3190.481	6767
3192.261	6791
3194.042	6809
3195.822	6632
3197.601	6895
3199.381	6779
3201.161	6745
3202.939	6789
3204.717	6738
3206.495	6737
3208.272	6696
3210.05	6676
3211.826	6857
3213.602	6656
3215.376	6738
3217.151	6738
3218.927	6646
3220.702	6705
3222.476	6800
3224.249	6686
3226.021	6694
3227.793	6764
3229.567	6770
3231.339	6674
3233.109	6736
3234.88	6763
3236.651	6677
3238.421	6679
3240.191	6681
3241.96	6703
3243.728	6734
3245.497	6610
3247.263	6785
3249.033	6776
3250.799	6679
3252.566	6601
3254.331	6799
3256.097	6728
3257.863	6687
3259.628	6683
3261.392	6750
3263.156	6695
3264.919	6613
3266.683	6695
3268.447	6802
3270.208	6666
3271.969	6652
3273.731	6714
3275.492	6580
3277.253	6778
3279.013	6693
3280.773	6721
3282.532	6771
3284.291	6686
3286.05	6816
3287.808	6580
3289.566	6726
3291.323	6760
3293.079	6668
3294.835	6709
3296.593	6686
3298.348	6685
3300.102	6609
3301.857	6710
3303.611	6742
3305.366	6658
3307.119	6592
3308.872	6620
3310.624	6672
3312.376	6582
3314.129	6725
3315.881	6650
3317.631	6616
3319.38	6599
3321.13	6674
3322.88	6688
3324.631	6582
3326.379	6624
3328.126	6663
3329.875	6679
3331.622	6682
3333.371	6578
3335.116	6590
3336.863	6651
3338.609	6549
3340.353	6646
3342.1	6601
3343.845	6621
3345.588	6708
3347.332	6671
3349.074	6629
3350.817	6555
3352.56	6521
3354.303	6596
3356.043	6550
3357.785	6467
3359.525	6587
3361.268	6575
3363.007	6603
3364.745	6622
3366.485	6595
3368.223	6617
3369.962	6465
3371.701	6547
3373.438	6461
3375.174	6578
3376.911	6552
3378.647	6537
3380.384	6480
3382.118	6488
3383.854	6468
3385.588	6536
3387.322	6434
3389.057	6544
3390.79	6486
3392.522	6522
3394.255	6356
3395.987	6454
3397.719	6455
3399.451	6392
3401.181	6443
3402.911	6465
3404.641	6581
3406.371	6442
3408.101	6560
3409.83	6507
3411.558	6409
3413.285	6454
3415.011	6504
3416.739	6406
3418.467	6430
3420.193	6375
3421.919	6430
3423.644	6493
3425.368	6427
3427.094	6378
3428.818	6360
3430.542	6375
3432.264	6389
3433.987	6430
3435.712	6350
3437.434	6376
3439.155	6418
3440.876	6329
3442.596	6357
3444.317	6301
3446.039	6344
3447.757	6395
3449.477	6397
3451.195	6264
3452.914	6308
3454.632	6302
3456.35	6274
3458.067	6228
3459.784	6345
3461.5	6345
3463.216	6240
3464.932	6167
3466.647	6203
3468.362	6196
3470.076	6262
3471.789	6210
3473.505	6248
3475.217	6201
3476.929	6111
3478.641	6171
3480.354	6100
3482.066	6158
3483.777	6231
3485.487	6157
3487.197	6169
3488.908	6070
3490.617	6202
3492.327	6099
3494.035	6071
3495.743	6172
3497.451	6083
3499.158	6071
3500.866	6151
3502.572	6175
3504.278	6087
3505.984	6157
3507.689	6125
3509.396	6182
3511.1	6056
3512.804	6067
3514.508	6099
3516.211	6153
3517.913	5995
3519.616	6159
3521.319	6048
3523.021	6050
3524.722	5932
3526.422	6022
3528.124	6110
3529.824	6113
3531.524	6109
3533.222	6046
3534.921	5975
3536.62	6082
3538.318	5982
3540.016	6099
3541.714	5982
3543.41	5957
3545.107	5864
3546.803	6103
3548.5	5961
3550.194	5947
3551.889	6040
3553.583	5955
3555.279	6088
3556.972	6030
3558.666	6011
3560.358	5946
3562.051	5974
3563.742	5894
3565.435	5902
3567.126	5923
3568.817	5903
3570.507	5917
3572.197	5936
3573.888	5947
3575.577	5797
3577.265	5932
3578.954	5813
3580.642	5801
3582.329	5949
3584.017	5886
3585.704	5837
3587.391	5886
3589.077	5878
3590.762	5941
3592.449	5881
3594.133	5769
3595.817	5820
3597.501	5767
3599.185	5829
3600.869	5936
3602.552	5737
3604.234	5870
3605.916	5908
3607.598	5778
3609.279	5759
3610.961	5756
3612.642	5741
3614.321	5709
3616	5787
3617.68	5796
3619.36	5818
3621.039	5678
3622.716	5608
3624.394	5674
3626.071	5685
3627.748	5755
3629.425	5641
3631.102	5756
3632.778	5802
3634.452	5708
3636.127	5717
3637.803	5619
3639.477	5655
3641.151	5620
3642.823	5614
3644.497	5630
3646.171	5532
3647.842	5676
3649.515	5649
3651.185	5647
3652.857	5756
3654.527	5600
3656.198	5511
3657.868	5679
3659.537	5633
3661.207	5595
3662.875	5605
3664.544	5587
3666.212	5546
3667.879	5520
3669.546	5633
3671.212	5554
3672.88	5658
3674.546	5608
3676.211	5595
3677.875	5599
3679.541	5490
3681.205	5626
3682.87	5648
3684.533	5554
3686.196	5606
3687.859	5535
3689.521	5624
3691.184	5553
3692.845	5439
3694.507	5544
3696.167	5572
3697.827	5480
3699.487	5502
3701.148	5493
3702.808	5540
3704.466	5587
3706.125	5558
3707.783	5513
3709.442	5447
3711.099	5515
3712.757	5484
3714.412	5625
3716.068	5417
3717.725	5451
3719.381	5524
3721.036	5443
3722.689	5464
3724.344	5586
3725.998	5393
3727.652	5460
3729.305	5361
3730.958	5439
3732.61	5447
3734.262	5388
3735.915	5365
3737.565	5440
3739.217	5502
3740.866	5399
3742.516	5308
3744.165	5341
3745.816	5464
3747.464	5447
3749.113	5442
3750.761	5429
3752.409	5373
3754.057	5491
3755.703	5453
3757.35	5335
3758.996	5419
3760.641	5442
3762.289	5387
3763.933	5384
3765.577	5495
3767.222	5298
3768.865	5328
3770.508	5232
3772.152	5302
3773.796	5342
3775.438	5278
3777.079	5290
3778.721	5388
3780.363	5331
3782.003	5466
3783.643	5379
3785.283	5224
3786.923	5390
3788.563	5315
3790.203	5308
3791.841	5322
3793.479	5342
3795.115	5329
3796.753	5310
3798.391	5229
3800.027	5240
3801.664	5336
3803.299	5254
3804.935	5307
3806.571	5211
3808.206	5191
3809.839	5179
3811.473	5200
3813.107	5217
3814.74	5248
3816.375	5277
3818.006	5226
3819.638	5197
3821.27	5215
3822.9	5218
3824.532	5280
3826.163	5200
3827.792	5254
3829.423	5175
3831.051	5162
3832.682	5189
3834.311	5298
3835.938	5105
3837.566	5122
3839.193	5171
3840.821	5151
3842.448	5214
3844.075	5082
3845.7	5271
3847.325	5152
3848.951	5175
3850.576	5134
3852.201	5058
3853.825	5135
3855.448	5246
3857.072	5046
3858.694	5044
3860.318	5050
3861.939	5085
3863.562	5108
3865.183	5099
3866.804	5130
3868.426	5022
3870.045	5149
3871.666	5013
3873.285	5089
3874.904	4983
3876.524	5105
3878.142	5003
3879.76	5117
3881.378	5046
3882.995	5035
3884.612	5094
3886.229	5113
3887.845	4978
3889.461	5031
3891.076	5013
3892.691	4998
3894.307	5097
3895.922	4996
3897.536	4986
3899.149	5101
3900.761	4970
3902.374	5079
3903.988	4983
3905.6	4976
3907.212	4964
3908.822	4918
3910.433	5049
3912.045	5043
3913.655	4966
3915.265	5022
3916.875	5032
3918.483	5003
3920.093	4958
3921.702	5028
3923.309	4990
3924.917	5017
3926.523	5047
3928.13	5036
3929.739	4925
3931.344	4978
3932.95	4912
3934.555	4867
3936.159	4915
3937.766	5040
3939.369	4990
3940.974	5035
3942.577	4886
3944.181	5000
3945.783	4938
3947.386	4915
3948.989	4953
3950.59	4969
3952.191	4978
3953.791	4810
3955.394	4927
3956.994	4918
3958.593	4919
3960.192	4946
3961.791	4939
3963.392	4901
3964.99	4778
3966.588	4879
3968.185	4865
3969.782	4829
3971.379	4857
3972.976	4835
3974.572	4832
3976.168	4833
3977.763	4804
3979.358	4805
3980.954	4916
3982.548	4788
3984.142	4840
3985.736	4925
3987.329	4890
3988.922	4829
3990.516	4709
3992.108	4833
3993.698	4811
3995.29	4796
3996.881	4726
3998.473	4709
4000.064	4685
4001.653	4731
4003.242	4700
4004.832	4706
4006.422	4749
4008.01	4771
4009.598	4764
4011.186	4693
4012.773	4738
4014.36	4806
4015.947	4670
4017.534	4648
4019.119	4622
4020.705	4577
4022.291	4689
4023.876	4626
4025.461	4712
4027.044	4635
4028.627	4696
4030.211	4657
4031.795	4685
4033.378	4659
4034.96	4509
4036.542	4622
4038.124	4640
4039.704	4642
4041.286	4635
4042.867	4642
4044.447	4685
4046.026	4564
4047.606	4655
4049.187	4610
4050.765	4536
4052.343	4632
4053.92	4537
4055.498	4567
4057.076	4494
4058.654	4538
4060.23	4499
4061.806	4634
4063.381	4593
4064.957	4502
4066.533	4517
4068.107	4614
4069.682	4646
4071.256	4544
4072.829	4512
4074.404	4552
4075.977	4543
4077.549	4570
4079.121	4541
4080.693	4591
4082.265	4566
4083.836	4504
4085.407	4489
4086.977	4473
4088.547	4428
4090.117	4476
4091.687	4608
4093.256	4463
4094.825	4529
4096.392	4571
4097.96	4423
4099.528	4501
4101.097	4483
4102.663	4491
4104.229	4440
4105.795	4469
4107.361	4533
4108.928	4404
4110.493	4515
4112.058	4431
4113.621	4476
4115.186	4439
4116.75	4426
4118.313	4389
4119.876	4457
4121.438	4537
4123	4440
4124.562	4428
4126.125	4390
4127.686	4395
4129.246	4506
4130.807	4372
4132.367	4344
4133.927	4286
4135.486	4378
4137.046	4356
4138.604	4346
4140.162	4377
4141.72	4386
4143.279	4386
4144.836	4395
4146.393	4274
4147.949	4323
4149.505	4327
4151.062	4325
4152.617	4308
4154.172	4271
4155.727	4310
4157.281	4304
4158.836	4386
4160.39	4345
4161.943	4308
4163.496	4296
4165.048	4270
4166.601	4264
4168.154	4329
4169.706	4146
4171.257	4230
4172.808	4247
4174.358	4179
4175.909	4180
4177.458	4196
4179.008	4256
4180.558	4267
4182.106	4198
4183.655	4206
4185.204	4237
4186.751	4296
4188.298	4239
4189.845	4219
4191.392	4174
4192.939	4110
4194.485	4144
4196.031	4169
4197.576	4219
4199.121	4207
4200.666	4259
4202.211	4130
4203.754	4257
4205.298	4110
4206.84	4202
4208.384	4094
4209.927	4157
4211.47	4180
4213.011	4074
4214.552	4152
4216.094	4138
4217.635	4155
4219.175	4189
4220.716	4064
4222.255	4072
4223.793	4074
4225.335	4025
4226.873	4061
4228.411	4181
4229.948	4126
4231.486	4093
4233.024	4156
4234.562	4126
4236.098	4105
4237.634	4173
4239.169	4085
4240.705	4124
4242.241	4089
4243.776	4137
4245.31	4073
4246.844	4100
4248.378	4131
4249.911	4124
4251.445	4046
4252.978	4097
4254.51	4057
4256.042	4097
4257.574	3963
4259.107	4080
4260.638	4071
4262.169	4051
4263.699	3991
4265.228	4135
4266.759	4007
4268.289	4057
4269.818	4046
4271.345	3985
4272.874	4119
4274.402	4010
4275.931	4047
4277.458	4140
4278.985	4084
4280.512	4077
4282.037	3982
4283.564	4005
4285.089	3908
4286.615	4051
4288.139	4016
4289.664	4018
4291.187	4043
4292.712	4004
4294.235	3935
4295.759	3969
4297.281	3969
4298.804	4106
4300.327	4003
4301.849	3957
4303.37	3989
4304.891	3992
4306.412	4004
4307.933	4015
4309.453	4044
4310.973	4025
4312.492	3954
