398.1873	3227
400.7097	3138
403.2336	3221
405.7547	3174
408.2751	3202
410.7948	3202
413.3138	3206
415.83	3232
418.3497	3260
420.8666	3237
423.3829	3287
425.8985	3317
428.4133	3319
430.9275	3416
433.441	3373
435.9538	3394
438.4639	3383
440.9753	3390
443.4881	3335
445.9982	3437
448.5055	3314
451.0142	3353
453.5201	3369
456.0274	3371
458.5361	3410
461.04	3444
463.5453	3334
466.0478	3409
468.5517	3386
471.0549	3296
473.5574	3314
476.0572	3433
478.5584	3446
481.0568	3405
483.5545	3488
486.0557	3489
488.5521	3465
491.0478	3424
493.5449	3351
496.0392	3422
498.5349	3521
501.0299	3431
503.5222	3482
506.0139	3487
508.5048	3526
510.9991	3507
513.4887	3417
515.9777	3524
518.4659	3536
520.9534	3475
523.4403	3443
525.9306	3536
528.4161	3445
530.9009	3515
533.3851	3478
535.8687	3542
538.3535	3448
540.8356	3536
543.3171	3464
545.7979	3516
548.278	3464
550.7595	3527
553.2383	3491
555.7144	3507
558.1918	3527
560.6685	3529
563.1446	3513
565.6221	3608
568.0968	3556
570.5688	3596
573.0422	3654
575.515	3614
577.989	3580
580.4584	3642
582.9291	3668
585.3991	3632
587.8685	3681
590.3352	3621
592.8052	3498
595.2706	3620
597.7372	3633
600.2033	3682
602.6666	3631
605.1334	3612
607.5953	3588
610.0587	3611
612.5193	3547
614.9814	3675
617.4427	3663
619.9034	3666
622.3615	3589
624.8208	3520
627.2775	3552
629.7335	3594
632.1929	3558
634.6476	3616
637.1016	3541
639.5569	3606
642.0096	3606
644.4637	3684
646.9151	3661
649.3678	3591
651.8179	3622
654.2672	3598
656.7159	3692
659.166	3629
661.6154	3684
664.0622	3673
666.5082	3723
668.9537	3598
671.4005	3715
673.8445	3676
676.288	3601
678.7308	3679
681.1729	3680
683.6163	3728
686.0572	3669
688.4973	3713
690.9368	3697
693.3757	3721
695.8138	3676
698.2534	3751
700.6902	3735
703.1245	3742
705.56	3728
707.9949	3694
710.4311	3757
712.8647	3739
715.2957	3738
717.7279	3850
720.1595	3784
722.5905	3777
725.0208	3873
727.4505	3787
729.8795	3736
732.3058	3813
734.7336	3812
737.1626	3808
739.587	3935
742.0128	3870
744.4359	3822
746.8604	3911
749.2841	3904
751.7073	3935
754.1278	3898
756.5496	3929
758.9688	3957
761.3893	3970
763.8093	3893
766.2285	3985
768.6451	4119
771.0611	3937
773.4784	3894
775.895	3933
778.3091	3993
780.7244	3906
783.1371	4002
785.5493	3938
787.9626	4033
790.3754	3970
792.7856	3951
795.1951	4005
797.6039	4027
800.0121	4033
802.4236	4059
804.8306	4050
807.2369	3880
809.6425	4003
812.0475	4021
814.4538	3990
816.8575	4086
819.2606	4047
821.663	4043
824.0648	4077
826.4659	3978
828.8683	4021
831.2682	4011
833.6674	4030
836.066	4095
838.4639	4022
840.8632	4031
843.2579	4147
845.6539	4111
848.0493	4053
850.444	4098
852.84	4148
855.2315	4128
857.6243	4127
860.0165	4034
862.4081	4070
864.797	4088
867.1892	4067
869.5789	4083
871.9659	4097
874.3542	4050
876.74	4080
879.129	4081
881.5155	4095
883.8994	4107
886.2845	4050
888.6671	4177
891.051	4032
893.4343	4112
895.8169	4087
898.197	4142
900.5783	4142
902.9571	4059
905.3372	4175
907.7167	4012
910.0936	4166
912.4698	4217
914.8474	4141
917.2244	4216
919.5987	4203
921.9744	4286
924.3475	4231
926.72	4307
929.0918	4234
931.4669	4328
933.8375	4353
936.2074	4302
938.5767	4340
940.9454	4342
943.3154	4344
945.6829	4497
948.0497	4654
950.4178	4706
952.7833	4869
955.1483	4908
957.5145	5058
959.8782	5170
962.2412	5128
964.6036	5004
966.9655	4861
969.3266	4760
971.6871	4678
974.0471	4410
976.4064	4392
978.765	4358
981.125	4267
983.4824	4252
985.8373	4294
988.1935	4321
990.549	4224
992.9039	4196
995.2602	4292
997.6119	4154
999.965	4324
1002.317	4319
1004.667	4246
1007.02	4311
1009.371	4245
1011.719	4168
1014.068	4250
1016.415	4251
1018.765	4235
1021.111	4319
1023.458	4260
1025.804	4263
1028.147	4316
1030.49	4300
1032.837	4271
1035.179	4346
1037.522	4380
1039.862	4310
1042.204	4404
1044.546	4465
1046.884	4343
1049.224	4331
1051.562	4268
1053.899	4336
1056.237	4381
1058.575	4379
1060.91	4301
1063.244	4449
1065.58	4350
1067.913	4435
1070.248	4490
1072.579	4437
1074.911	4361
1077.242	4423
1079.572	4365
1081.905	4467
1084.234	4520
1086.562	4314
1088.89	4384
1091.217	4345
1093.544	4372
1095.871	4332
1098.197	4435
1100.521	4363
1102.845	4380
1105.169	4359
1107.491	4307
1109.814	4394
1112.135	4353
1114.456	4350
1116.776	4342
1119.096	4398
1121.415	4300
1123.734	4372
1126.052	4380
1128.369	4403
1130.686	4392
1133.002	4360
1135.318	4381
1137.632	4450
1139.945	4455
1142.258	4360
1144.573	4345
1146.884	4357
1149.196	4410
1151.505	4336
1153.816	4365
1156.124	4411
1158.435	4419
1160.742	4360
1163.051	4348
1165.356	4389
1167.663	4377
1169.97	4302
1172.276	4379
1174.579	4324
1176.881	4319
1179.186	4497
1181.487	4330
1183.79	4407
1186.092	4328
1188.392	4398
1190.691	4453
1192.991	4387
1195.291	4410
1197.588	4366
1199.885	4466
1202.181	4361
1204.479	4412
1206.775	4443
1209.07	4386
1211.363	4393
1213.656	4382
1215.949	4364
1218.241	4369
1220.534	4421
1222.825	4405
1225.115	4436
1227.405	4432
1229.693	4494
1231.984	4470
1234.271	4569
1236.558	4531
1238.845	4552
1241.131	4563
1243.416	4569
1245.703	4454
1247.987	4616
1250.269	4509
1252.552	4637
1254.834	4691
1257.118	4526
1259.399	4581
1261.678	4551
1263.958	4624
1266.237	4527
1268.516	4550
1270.794	4508
1273.072	4553
1275.347	4572
1277.624	4602
1279.899	4579
1282.175	4492
1284.449	4464
1286.722	4492
1288.995	4532
1291.266	4547
1293.54	4429
1295.81	4572
1298.081	4524
1300.35	4567
1302.62	4481
1304.889	4543
1307.156	4550
1309.425	4469
1311.69	4478
1313.957	4557
1316.222	4528
1318.488	4502
1320.751	4475
1323.016	4560
1325.278	4537
1327.54	4525
1329.803	4457
1332.065	4577
1334.325	4521
1336.584	4569
1338.843	4562
1341.101	4535
1343.36	4511
1345.617	4570
1347.876	4485
1350.131	4554
1352.387	4522
1354.643	4552
1356.897	4488
1359.151	4531
1361.403	4531
1363.656	4584
1365.909	4454
1368.16	4561
1370.409	4529
1372.659	4606
1374.909	4566
1377.157	4545
1379.407	4586
1381.655	4580
1383.9	4607
1386.147	4562
1388.393	4570
1390.64	4652
1392.885	4622
1395.127	4709
1397.37	4530
1399.614	4652
1401.854	4691
1404.098	4543
1406.339	4715
1408.578	4674
1410.818	4721
1413.056	4612
1415.297	4726
1417.533	4644
1419.771	4623
1422.006	4599
1424.243	4622
1426.479	4674
1428.715	4615
1430.948	4662
1433.182	4694
1435.414	4784
1437.647	4680
1439.88	4845
1442.11	4780
1444.342	4719
1446.571	4728
1448.799	4667
1451.029	4766
1453.258	4715
1455.485	4802
1457.711	4703
1459.937	4802
1462.164	4752
1464.39	4776
1466.614	4748
1468.838	4662
1471.06	4689
1473.283	4668
1475.506	4681
1477.727	4689
1479.949	4567
1482.169	4654
1484.389	4625
1486.609	4659
1488.828	4677
1491.045	4520
1493.261	4574
1495.477	4463
1497.693	4588
1499.91	4541
1502.125	4563
1504.339	4554
1506.553	4630
1508.766	4645
1510.979	4537
1513.191	4517
1515.402	4610
1517.613	4568
1519.823	4545
1522.033	4574
1524.242	4636
1526.451	4572
1528.657	4614
1530.865	4593
1533.072	4584
1535.278	4518
1537.484	4545
1539.687	4584
1541.892	4606
1544.096	4543
1546.299	4627
1548.502	4642
1550.703	4724
1552.905	4673
1555.104	4649
1557.303	4621
1559.505	4671
1561.703	4607
1563.902	4738
1566.099	4707
1568.295	4730
1570.494	4647
1572.689	4643
1574.883	4699
1577.079	4745
1579.272	4715
1581.467	4698
1583.659	4706
1585.853	4698
1588.044	4703
1590.234	4766
1592.424	4702
1594.615	4750
1596.806	4764
1598.994	4734
1601.182	4758
1603.369	4800
1605.557	4662
1607.744	4718
1609.929	4766
1612.114	4807
1614.298	4733
1616.482	4823
1618.667	4777
1620.85	4837
1623.032	4837
1625.214	4777
1627.395	4752
1629.575	4776
1631.755	4800
1633.935	4823
1636.114	4808
1638.292	4797
1640.471	4811
1642.647	4897
1644.823	4803
1647	4763
1649.175	4854
1651.348	4831
1653.525	4865
1655.698	4788
1657.87	4798
1660.043	4825
1662.213	4798
1664.387	4864
1666.558	4837
1668.727	4876
1670.896	4850
1673.064	4842
1675.233	4941
1677.401	4823
1679.569	4814
1681.735	4812
1683.902	4840
1686.066	4820
1688.233	4870
1690.397	4848
1692.559	4953
1694.723	4797
1696.885	4868
1699.048	4842
1701.21	4718
1703.37	4746
1705.53	4858
1707.689	4766
1709.849	4754
1712.009	4753
1714.166	4785
1716.323	4735
1718.479	4875
1720.634	4791
1722.793	4781
1724.948	4725
1727.102	4869
1729.255	4792
1731.408	4806
1733.562	4873
1735.714	4728
1737.865	4870
1740.016	4738
1742.166	4801
1744.316	4729
1746.467	4733
1748.616	4802
1750.764	4797
1752.911	4780
1755.056	4884
1757.205	4714
1759.35	4866
1761.496	4823
1763.641	4813
1765.785	4766
1767.927	4830
1770.072	4835
1772.214	4850
1774.355	4839
1776.496	4784
1778.637	4864
1780.778	4761
1782.918	4802
1785.057	4845
1787.194	4815
1789.333	4819
1791.472	4777
1793.608	4846
1795.745	4740
1797.879	4867
1800.015	4978
1802.148	4932
1804.284	4764
1806.417	4814
1808.548	4875
1810.682	4865
1812.812	4847
1814.946	4813
1817.075	4732
1819.205	4899
1821.335	4836
1823.463	4823
1825.59	4768
1827.721	4848
1829.847	4881
1831.973	4977
1834.098	4803
1836.223	4801
1838.351	4762
1840.475	4850
1842.598	4819
1844.721	4883
1846.843	4892
1848.966	4824
1851.087	4840
1853.21	4814
1855.33	4850
1857.449	4775
1859.568	4871
1861.688	4814
1863.806	4787
1865.924	4786
1868.039	4881
1870.155	4850
1872.273	4794
1874.388	4915
1876.503	4738
1878.617	4883
1880.73	4791
1882.844	4844
1884.956	4809
1887.068	4832
1889.18	4906
1891.291	4772
1893.4	4760
1895.511	4851
1897.621	4781
1899.73	4843
1901.837	4893
1903.944	4937
1906.053	4939
1908.159	4887
1910.265	4833
1912.369	4867
1914.474	4931
1916.577	4890
1918.683	4962
1920.785	4910
1922.888	4869
1924.989	4854
1927.091	4953
1929.193	4918
1931.294	4909
1933.393	4937
1935.493	4879
1937.59	4927
1939.689	5020
1941.788	5013
1943.884	4852
1945.98	4896
1948.077	4977
1950.171	4857
1952.267	4872
1954.361	4913
1956.455	4919
1958.548	4976
1960.64	4884
1962.733	5004
1964.824	4861
1966.915	4979
1969.005	4850
1971.096	4882
1973.185	4852
1975.275	4914
1977.363	4859
1979.45	4905
1981.537	4846
1983.623	4930
1985.711	4908
1987.796	4920
1989.881	4863
1991.965	5002
1994.047	5019
1996.132	4964
1998.215	5029
2000.297	4977
2002.378	4912
2004.46	4857
2006.54	4929
2008.62	4981
2010.7	4922
2012.779	4910
2014.858	4794
2016.934	4892
2019.013	4906
2021.09	4915
2023.165	4841
2025.241	4968
2027.317	4950
2029.39	4967
2031.466	4897
2033.538	4948
2035.612	4877
2037.683	4972
2039.755	4930
2041.827	4930
2043.898	4858
2045.968	4909
2048.038	4951
2050.106	4888
2052.177	4984
2054.244	4854
2056.313	4961
2058.379	4916
2060.444	4952
2062.511	4916
2064.577	4864
2066.641	4975
2068.705	4934
2070.77	4925
2072.832	4879
2074.896	4895
2076.958	4983
2079.02	4870
2081.081	4891
2083.141	4936
2085.2	4933
2087.261	4933
2089.319	4992
2091.377	4913
2093.435	5035
2095.492	5065
2097.552	4936
2099.607	4881
2101.663	4988
2103.718	4858
2105.771	4889
2107.826	4880
2109.879	4937
2111.932	4996
2113.985	4979
2116.037	4975
2118.088	5060
2120.141	4791
2122.191	5045
2124.239	4876
2126.288	4895
2128.337	4937
2130.387	4890
2132.434	5017
2134.481	4979
2136.528	4921
2138.574	5035
2140.618	4932
2142.665	4889
2144.71	4894
2146.753	4975
2148.797	4963
2150.838	4922
2152.883	5031
2154.923	4955
2156.965	4975
2159.007	4863
2161.046	4906
2163.086	5052
2165.126	4987
2167.163	4909
2169.202	4881
2171.239	4940
2173.277	4916
2175.314	4899
2177.349	4849
2179.385	4905
2181.42	4926
2183.453	4949
2185.49	4879
2187.522	4865
2189.555	4852
2191.586	4846
2193.619	4901
2195.651	4789
2197.682	4932
2199.711	4859
2201.74	4855
2203.769	4847
2205.799	4805
2207.828	5031
2209.855	4908
2211.882	4944
2213.908	4885
2215.934	4905
2217.961	4890
2219.986	4865
2222.01	4828
2224.034	4918
2226.057	4781
2228.08	4907
2230.104	4834
2232.124	4878
2234.145	4881
2236.166	5022
2238.186	4847
2240.207	4848
2242.227	4919
2244.244	4800
2246.262	4810
2248.28	4881
2250.299	4914
2252.314	4950
2254.33	4957
2256.346	4975
2258.36	4791
2260.375	4869
2262.391	4866
2264.403	4885
2266.416	4851
2268.427	4893
2270.44	4813
2272.453	4860
2274.463	4918
2276.474	4848
2278.483	4842
2280.493	4907
2282.501	4890
2284.51	4937
2286.518	4855
2288.524	4896
2290.532	4924
2292.537	4768
2294.544	4839
2296.55	4958
2298.554	4997
2300.557	4896
2302.562	4759
2304.566	4956
2306.568	4840
2308.569	4825
2310.572	4872
2312.573	4837
2314.573	4970
2316.574	4896
2318.573	4833
2320.571	4772
2322.571	4887
2324.569	4791
2326.567	4873
2328.564	4779
2330.56	4820
2332.556	4878
2334.551	4799
2336.546	4829
2338.542	4843
2340.535	4926
2342.529	4792
2344.521	4895
2346.512	4812
2348.505	4752
2350.497	4822
2352.487	4854
2354.478	4898
2356.468	4794
2358.457	4833
2360.446	4816
2362.434	4814
2364.422	4800
2366.408	4858
2368.395	4835
2370.383	4811
2372.369	4690
2374.353	4919
2376.338	4771
2378.321	4753
2380.307	4757
2382.29	4780
2384.272	4798
2386.254	4811
2388.235	4817
2390.218	4736
2392.198	4802
2394.179	4716
2396.157	4715
2398.137	4805
2400.115	4764
2402.095	4835
2404.072	4814
2406.048	4825
2408.026	4813
2410.001	4728
2411.977	4791
2413.953	4870
2415.927	4776
2417.9	4805
2419.875	4873
2421.847	4809
2423.821	4713
2425.792	4715
2427.763	4778
2429.736	4757
2431.706	4731
2433.677	4740
2435.646	4709
2437.615	4670
2439.583	4741
2441.551	4776
2443.519	4726
2445.486	4743
2447.452	4747
2449.418	4841
2451.383	4930
2453.348	4800
2455.314	4717
2457.278	4678
2459.241	4779
2461.205	4736
2463.167	4731
2465.131	4791
2467.091	4763
2469.052	4699
2471.012	4780
2472.972	4734
2474.932	4696
2476.891	4735
2478.85	4743
2480.808	4660
2482.766	4708
2484.722	4704
2486.68	4688
2488.636	4746
2490.591	4725
2492.546	4665
2494.5	4803
2496.456	4687
2498.41	4698
2500.362	4648
2502.315	4680
2504.266	4742
2506.218	4742
2508.169	4678
2510.121	4704
2512.07	4766
2514.019	4629
2515.968	4737
2517.918	4718
2519.866	4691
2521.813	4606
2523.76	4583
2525.707	4728
2527.653	4693
2529.599	4699
2531.543	4677
2533.489	4594
2535.433	4642
2537.376	4779
2539.32	4924
2541.264	4723
2543.205	4656
2545.147	4674
2547.087	4649
2549.029	4709
2550.969	4691
2552.908	4685
2554.847	4756
2556.786	4752
2558.724	4652
2560.663	4681
2562.6	4751
2564.537	4672
2566.473	4734
2568.408	4713
2570.345	4739
2572.28	4661
2574.214	4625
2576.148	4700
2578.081	4756
2580.014	4673
2581.947	4749
2583.879	4708
2585.81	4736
2587.741	4797
2589.67	4690
2591.602	4785
2593.532	4855
2595.461	4691
2597.388	4661
2599.316	4652
2601.244	4654
2603.172	4656
2605.098	4743
2607.023	4768
2608.949	4710
2610.873	4779
2612.8	4765
2614.723	4780
2616.647	4773
2618.569	4707
2620.493	4758
2622.416	4785
2624.338	4694
2626.258	4720
2628.179	4638
2630.099	4777
2632.019	4788
2633.939	4838
2635.857	4821
2637.775	4718
2639.694	4824
2641.61	4877
2643.528	4808
2645.444	4782
2647.361	4703
2649.276	4777
2651.19	4660
2653.105	4697
2655.019	4736
2656.934	4665
2658.846	4793
2660.758	4620
2662.67	4792
2664.583	4724
2666.493	4736
2668.404	4697
2670.313	4742
2672.223	4766
2674.134	4673
2676.042	4790
2677.95	4672
2679.858	4636
2681.765	4608
2683.673	4697
2685.579	4676
2687.483	4727
2689.389	4749
2691.294	4737
2693.198	4650
2695.104	4652
2697.006	4706
2698.909	4694
2700.811	4689
2702.713	4654
2704.615	4712
2706.516	4695
2708.417	4638
2710.316	4709
2712.216	4760
2714.115	4746
2716.014	4682
2717.913	4612
2719.81	4656
2721.707	4676
2723.603	4712
2725.501	4710
2727.396	4618
2729.292	4737
2731.186	4713
2733.081	4685
2734.976	4549
2736.87	4686
2738.762	4685
2740.653	4673
2742.546	4549
2744.437	4691
2746.329	4570
2748.22	4656
2750.11	4736
2751.999	4770
2753.889	4737
2755.778	4641
2757.666	4671
2759.553	4696
2761.44	4676
2763.328	4651
2765.215	4674
2767.101	4710
2768.986	4602
2770.87	4707
2772.754	4588
2774.638	4629
2776.523	4684
2778.405	4651
2780.288	4574
2782.17	4713
2784.051	4577
2785.934	4711
2787.814	4671
2789.694	4690
2791.574	4556
2793.453	4643
2795.332	4677
2797.212	4580
2799.088	4676
2800.966	4674
2802.843	4555
2804.719	4633
2806.597	4654
2808.471	4559
2810.346	4707
2812.221	4579
2814.094	4683
2815.969	4577
2817.843	4706
2819.714	4636
2821.587	4603
2823.459	4619
2825.329	4605
2827.202	4682
2829.072	4637
2830.942	4631
2832.811	4598
2834.68	4724
2836.549	4667
2838.418	4662
2840.284	4658
2842.152	4518
2844.018	4738
2845.885	4567
2847.751	4608
2849.616	4763
2851.482	4641
2853.345	4659
2855.208	4630
2857.074	4731
2858.937	4682
2860.799	4649
2862.66	4743
2864.522	4753
2866.385	4805
2868.245	4831
2870.104	4747
2871.964	4786
2873.824	4816
2875.683	4963
2877.542	4912
2879.4	4985
2881.257	5014
2883.114	5079
2884.97	5031
2886.827	5010
2888.683	5015
2890.537	5047
2892.392	4912
2894.246	5102
2896.1	5034
2897.954	4988
2899.807	4988
2901.66	4976
2903.51	4972
2905.362	5006
2907.214	5066
2909.065	5017
2910.915	5017
2912.765	4979
2914.613	4963
2916.463	5042
2918.311	5050
2920.158	5136
2922.006	5229
2923.853	5205
2925.698	5197
2927.546	5244
2929.392	5179
2931.236	5383
2933.081	5254
2934.924	5317
2936.77	5506
2938.613	5451
2940.455	5506
2942.298	5464
2944.139	5506
2945.982	5485
2947.823	5508
2949.662	5523
2951.503	5532
2953.342	5434
2955.182	5378
2957.021	5453
2958.858	5356
2960.697	5330
2962.534	5240
2964.37	5232
2966.207	5293
2968.044	5099
2969.879	5179
2971.714	5120
2973.548	5005
2975.383	4998
2977.218	5032
2979.051	5082
2980.883	4991
2982.715	4944
2984.547	4987
2986.379	5031
2988.21	4973
2990.04	4939
2991.87	4901
2993.7	4946
2995.53	4844
2997.359	4831
2999.187	4934
3001.015	4783
3002.842	4831
3004.669	4687
3006.497	4731
3008.323	4624
3010.148	4751
3011.974	4594
3013.797	4662
3015.623	4646
3017.447	4543
3019.27	4617
3021.094	4552
3022.915	4537
3024.737	4567
3026.56	4438
3028.38	4492
3030.201	4576
3032.022	4600
3033.84	4459
3035.662	4553
3037.481	4439
3039.298	4370
3041.117	4582
3042.933	4518
3044.752	4444
3046.568	4441
3048.385	4470
3050.2	4464
3052.016	4396
3053.83	4415
3055.646	4514
3057.46	4308
3059.272	4442
3061.086	4423
3062.898	4563
3064.711	4412
3066.524	4439
3068.335	4474
3070.145	4454
3071.956	4485
3073.766	4458
3075.576	4469
3077.385	4391
3079.193	4456
3081.002	4442
3082.81	4401
3084.618	4385
3086.425	4517
3088.231	4424
3090.036	4334
3091.842	4316
3093.648	4430
3095.452	4422
3097.257	4410
3099.06	4350
3100.863	4364
3102.666	4429
3104.47	4327
3106.272	4356
3108.073	4357
3109.875	4257
3111.676	4368
3113.477	4312
3115.277	4362
3117.077	4336
3118.874	4314
3120.673	4351
3122.473	4278
3124.271	4196
3126.066	4318
3127.863	4248
3129.66	4388
3131.456	4238
3133.252	4331
3135.047	4290
3136.842	4342
3138.635	4305
3140.429	4371
3142.223	4298
3144.016	4254
3145.808	4275
3147.6	4323
3149.392	4281
3151.183	4229
3152.975	4291
3154.765	4323
3156.553	4233
3158.344	4253
3160.132	4262
3161.922	4246
3163.71	4347
3165.497	4250
3167.285	4271
3169.071	4248
3170.858	4272
3172.645	4276
3174.429	4239
3176.214	4312
3177.998	4206
3179.783	4256
3181.568	4253
3183.351	4253
3185.133	4175
3186.915	4149
3188.698	4253
3190.481	4144
3192.261	4247
3194.042	4327
3195.822	4190
3197.601	4258
3199.381	4259
3201.161	4279
3202.939	4218
3204.717	4210
3206.495	4243
3208.272	4239
3210.05	4251
3211.826	4282
3213.602	4158
3215.376	4264
3217.151	4266
3218.927	4195
3220.702	4292
3222.476	4134
3224.249	4232
3226.021	4207
3227.793	4202
3229.567	4223
3231.339	4205
3233.109	4188
3234.88	4161
3236.651	4209
3238.421	4163
3240.191	4198
3241.96	4206
3243.728	4234
3245.497	4155
3247.263	4283
3249.033	4158
3250.799	4220
3252.566	4251
3254.331	4188
3256.097	4222
3257.863	4175
3259.628	4171
3261.392	4276
3263.156	4210
3264.919	4197
3266.683	4176
3268.447	4219
3270.208	4170
3271.969	4163
3273.731	4215
3275.492	4238
3277.253	4302
3279.013	4155
3280.773	4269
3282.532	4189
3284.291	4216
3286.05	4262
3287.808	4206
3289.566	4217
3291.323	4272
3293.079	4185
3294.835	4165
3296.593	4238
3298.348	4237
3300.102	4170
3301.857	4255
3303.611	4206
3305.366	4228
3307.119	4189
3308.872	4194
3310.624	4170
3312.376	4196
3314.129	4192
3315.881	4207
3317.631	4220
3319.38	4127
3321.13	4213
3322.88	4166
3324.631	4209
3326.379	4111
3328.126	4224
3329.875	4198
3331.622	4212
3333.371	4181
3335.116	4106
3336.863	4148
3338.609	4221
3340.353	4128
3342.1	4181
3343.845	4224
3345.588	4203
3347.332	4159
3349.074	4114
3350.817	4099
3352.56	4164
3354.303	4112
3356.043	4106
3357.785	4127
3359.525	4125
3361.268	4125
3363.007	4137
3364.745	4080
3366.485	4090
3368.223	4084
3369.962	4127
3371.701	4150
3373.438	4031
3375.174	4089
3376.911	4070
3378.647	4153
3380.384	4083
3382.118	4007
3383.854	4144
3385.588	4066
3387.322	4081
3389.057	4104
3390.79	4146
3392.522	4089
3394.255	4122
3395.987	4110
3397.719	4061
3399.451	4025
3401.181	4135
3402.911	4120
3404.641	4106
3406.371	4052
3408.101	4022
3409.83	4011
3411.558	4115
3413.285	4086
3415.011	3977
3416.739	4062
3418.467	4126
3420.193	3995
3421.919	3995
3423.644	4051
3425.368	4060
3427.094	3971
3428.818	4060
3430.542	3986
3432.264	4007
3433.987	3966
3435.712	4037
3437.434	4040
3439.155	4011
3440.876	4085
3442.596	3957
3444.317	3976
3446.039	3958
3447.757	3936
3449.477	4035
3451.195	3894
3452.914	3990
3454.632	3970
3456.35	3910
3458.067	3979
3459.784	3971
3461.5	3977
3463.216	3899
3464.932	3937
3466.647	3941
3468.362	3947
3470.076	3917
3471.789	3903
3473.505	3897
3475.217	3975
3476.929	3863
3478.641	3867
3480.354	3897
3482.066	3931
3483.777	3891
3485.487	3905
3487.197	3901
3488.908	3892
3490.617	3916
3492.327	3888
3494.035	3809
3495.743	3882
3497.451	3879
3499.158	3799
3500.866	3885
3502.572	3786
3504.278	3892
3505.984	3865
3507.689	3842
3509.396	3911
3511.1	3844
3512.804	3852
3514.508	3777
3516.211	3836
3517.913	3858
3519.616	3700
3521.319	3807
3523.021	3906
3524.722	3801
3526.422	3834
3528.124	3795
3529.824	3776
3531.524	3798
3533.222	3756
3534.921	3754
3536.62	3752
3538.318	3780
3540.016	3878
3541.714	3765
3543.41	3812
3545.107	3772
3546.803	3722
3548.5	3754
3550.194	3770
3551.889	3737
3553.583	3790
3555.279	3740
3556.972	3806
3558.666	3745
3560.358	3734
3562.051	3741
3563.742	3776
3565.435	3751
3567.126	3738
3568.817	3770
3570.507	3735
3572.197	3756
3573.888	3677
3575.577	3789
3577.265	3642
3578.954	3776
3580.642	3778
3582.329	3677
3584.017	3771
3585.704	3688
3587.391	3797
3589.077	3673
3590.762	3667
3592.449	3699
3594.133	3693
3595.817	3620
3597.501	3681
3599.185	3626
3600.869	3590
3602.552	3706
3604.234	3643
3605.916	3645
3607.598	3619
3609.279	3606
3610.961	3595
3612.642	3658
3614.321	3698
3616	3624
3617.68	3670
3619.36	3659
3621.039	3565
3622.716	3597
3624.394	3589
3626.071	3488
3627.748	3608
3629.425	3627
3631.102	3574
3632.778	3608
3634.452	3593
3636.127	3621
3637.803	3547
3639.477	3573
3641.151	3536
3642.823	3610
3644.497	3558
3646.171	3485
3647.842	3566
3649.515	3534
3651.185	3540
3652.857	3563
3654.527	3408
3656.198	3637
3657.868	3442
3659.537	3521
3661.207	3492
3662.875	3472
3664.544	3559
3666.212	3526
3667.879	3413
3669.546	3525
3671.212	3527
3672.88	3389
3674.546	3475
3676.211	3501
3677.875	3480
3679.541	3489
3681.205	3474
3682.87	3483
3684.533	3372
3686.196	3476
3687.859	3481
3689.521	3462
3691.184	3470
3692.845	3465
3694.507	3467
3696.167	3517
3697.827	3554
3699.487	3449
3701.148	3509
3702.808	3521
3704.466	3391
3706.125	3440
3707.783	3475
3709.442	3445
3711.099	3493
3712.757	3458
3714.412	3443
3716.068	3401
3717.725	3454
3719.381	3480
3721.036	3371
3722.689	3428
3724.344	3424
3725.998	3412
3727.652	3442
3729.305	3431
3730.958	3506
3732.61	3415
3734.262	3412
3735.915	3487
3737.565	3384
3739.217	3357
3740.866	3432
3742.516	3458
3744.165	3530
3745.816	3392
3747.464	3312
3749.113	3418
3750.761	3399
3752.409	3395
3754.057	3397
3755.703	3375
3757.35	3428
3758.996	3391
3760.641	3405
3762.289	3411
3763.933	3342
3765.577	3386
3767.222	3369
3768.865	3407
3770.508	3300
3772.152	3424
3773.796	3442
3775.438	3362
3777.079	3349
3778.721	3375
3780.363	3309
3782.003	3330
3783.643	3299
3785.283	3309
3786.923	3349
3788.563	3385
3790.203	3391
3791.841	3332
3793.479	3289
3795.115	3397
3796.753	3350
3798.391	3307
3800.027	3334
3801.664	3305
3803.299	3207
3804.935	3317
3806.571	3253
3808.206	3362
3809.839	3276
3811.473	3411
3813.107	3252
3814.74	3301
3816.375	3218
3818.006	3358
3819.638	3277
3821.27	3296
3822.9	3329
3824.532	3237
3826.163	3317
3827.792	3300
3829.423	3232
3831.051	3305
3832.682	3242
3834.311	3245
3835.938	3282
3837.566	3296
3839.193	3246
3840.821	3301
3842.448	3260
3844.075	3266
3845.7	3251
3847.325	3211
3848.951	3246
3850.576	3315
3852.201	3296
3853.825	3198
3855.448	3307
3857.072	3232
3858.694	3264
3860.318	3231
3861.939	3247
3863.562	3212
3865.183	3243
3866.804	3251
3868.426	3217
3870.045	3167
3871.666	3255
3873.285	3145
3874.904	3142
3876.524	3222
3878.142	3167
3879.76	3230
3881.378	3246
3882.995	3240
3884.612	3225
3886.229	3231
3887.845	3203
3889.461	3183
3891.076	3170
3892.691	3193
3894.307	3197
3895.922	3153
3897.536	3270
3899.149	3163
3900.761	3201
3902.374	3137
3903.988	3204
3905.6	3215
3907.212	3214
3908.822	3144
3910.433	3250
3912.045	3176
3913.655	3097
3915.265	3189
3916.875	3214
3918.483	3139
3920.093	3127
3921.702	3220
3923.309	3197
3924.917	3182
3926.523	3223
3928.13	3192
3929.739	3131
3931.344	3188
3932.95	3222
3934.555	3198
3936.159	3164
3937.766	3172
3939.369	3173
3940.974	3027
3942.577	3122
3944.181	3163
3945.783	3091
3947.386	3150
3948.989	3179
3950.59	3152
3952.191	3120
3953.791	3125
3955.394	3166
3956.994	3102
3958.593	3159
3960.192	3070
3961.791	3101
3963.392	3110
3964.99	3100
3966.588	3103
3968.185	3084
3969.782	3134
3971.379	3104
3972.976	3183
3974.572	3150
3976.168	3017
3977.763	3076
3979.358	3138
3980.954	3067
3982.548	3081
3984.142	3099
3985.736	3085
3987.329	3067
3988.922	3061
3990.516	3082
3992.108	2966
3993.698	3076
3995.29	3129
3996.881	3042
3998.473	3022
4000.064	3092
4001.653	3008
4003.242	2988
4004.832	2966
4006.422	3043
4008.01	3035
4009.598	3003
4011.186	3048
4012.773	2950
4014.36	2960
4015.947	2980
4017.534	3092
4019.119	2992
4020.705	2995
4022.291	3028
4023.876	3002
4025.461	2944
4027.044	2985
4028.627	2941
4030.211	2910
4031.795	2898
4033.378	2966
4034.96	2930
4036.542	2928
4038.124	2957
4039.704	2935
4041.286	2997
4042.867	2984
4044.447	3021
4046.026	2946
4047.606	2913
4049.187	2894
4050.765	2993
4052.343	2915
4053.92	2945
4055.498	2922
4057.076	2931
4058.654	2869
4060.23	2916
4061.806	2966
4063.381	2927
4064.957	2917
4066.533	2897
4068.107	2995
4069.682	2944
4071.256	2966
4072.829	2864
4074.404	3006
4075.977	2904
4077.549	2993
4079.121	2864
4080.693	2918
4082.265	2930
4083.836	2917
4085.407	2894
4086.977	2848
4088.547	2918
4090.117	2893
4091.687	2877
4093.256	2886
4094.825	2891
4096.392	2899
4097.96	2811
4099.528	2835
4101.097	2904
4102.663	2883
4104.229	2831
4105.795	2829
4107.361	2869
4108.928	2827
4110.493	2845
4112.058	2874
4113.621	2847
4115.186	2841
4116.75	2816
4118.313	2819
4119.876	2840
4121.438	2878
4123	2900
4124.562	2877
4126.125	2831
4127.686	2874
4129.246	2810
4130.807	2869
4132.367	2756
4133.927	2813
4135.486	2790
4137.046	2808
4138.604	2834
4140.162	2793
4141.72	2807
4143.279	2785
4144.836	2739
4146.393	2804
4147.949	2737
4149.505	2753
4151.062	2808
4152.617	2800
4154.172	2783
4155.727	2851
4157.281	2748
4158.836	2746
4160.39	2702
4161.943	2807
4163.496	2848
4165.048	2762
4166.601	2746
4168.154	2823
4169.706	2720
4171.257	2742
4172.808	2720
4174.358	2750
4175.909	2749
4177.458	2726
4179.008	2679
4180.558	2715
4182.106	2716
4183.655	2684
4185.204	2670
4186.751	2743
4188.298	2712
4189.845	2712
4191.392	2739
4192.939	2775
4194.485	2764
4196.031	2709
4197.576	2690
4199.121	2683
4200.666	2658
4202.211	2754
4203.754	2714
4205.298	2682
4206.84	2745
4208.384	2706
4209.927	2683
4211.47	2738
4213.011	2663
4214.552	2695
4216.094	2653
4217.635	2708
4219.175	2647
4220.716	2682
4222.255	2649
4223.793	2652
4225.335	2626
4226.873	2639
4228.411	2765
4229.948	2703
4231.486	2627
4233.024	2654
4234.562	2677
4236.098	2669
4237.634	2667
4239.169	2746
4240.705	2636
4242.241	2664
4243.776	2666
4245.31	2708
4246.844	2627
4248.378	2616
4249.911	2678
4251.445	2652
4252.978	2640
4254.51	2663
4256.042	2555
4257.574	2680
4259.107	2614
4260.638	2561
4262.169	2664
4263.699	2571
4265.228	2614
4266.759	2570
4268.289	2645
4269.818	2601
4271.345	2654
4272.874	2648
4274.402	2739
4275.931	2635
4277.458	2661
4278.985	2601
4280.512	2630
4282.037	2636
4283.564	2660
4285.089	2546
4286.615	2602
4288.139	2653
4289.664	2628
4291.187	2598
4292.712	2614
4294.235	2539
4295.759	2509
4297.281	2584
4298.804	2510
4300.327	2592
4301.849	2540
4303.37	2588
4304.891	2583
4306.412	2625
4307.933	2588
4309.453	2581
4310.973	2545
4312.492	2509
