398.1873	2978
400.7097	2986
403.2336	3023
405.7547	3084
408.2751	3042
410.7948	3111
413.3138	3058
415.83	3060
418.3497	3114
420.8666	3095
423.3829	3149
425.8985	3158
428.4133	3249
430.9275	3127
433.441	3169
435.9538	3224
438.4639	3190
440.9753	3218
443.4881	3216
445.9982	3162
448.5055	3163
451.0142	3229
453.5201	3248
456.0274	3200
458.5361	3210
461.04	3277
463.5453	3215
466.0478	3230
468.5517	3203
471.0549	3177
473.5574	3189
476.0572	3237
478.5584	3321
481.0568	3284
483.5545	3269
486.0557	3318
488.5521	3243
491.0478	3302
493.5449	3223
496.0392	3290
498.5349	3318
501.0299	3242
503.5222	3321
506.0139	3305
508.5048	3380
510.9991	3392
513.4887	3360
515.9777	3266
518.4659	3279
520.9534	3326
523.4403	3342
525.9306	3239
528.4161	3358
530.9009	3340
533.3851	3372
535.8687	3261
538.3535	3326
540.8356	3330
543.3171	3411
545.7979	3338
548.278	3376
550.7595	3303
553.2383	3308
555.7144	3393
558.1918	3386
560.6685	3399
563.1446	3399
565.6221	3375
568.0968	3414
570.5688	3458
573.0422	3418
575.515	3477
577.989	3459
580.4584	3385
582.9291	3500
585.3991	3441
587.8685	3439
590.3352	3484
592.8052	3507
595.2706	3533
597.7372	3483
600.2033	3469
602.6666	3396
605.1334	3504
607.5953	3412
610.0587	3460
612.5193	3526
614.9814	3454
617.4427	3416
619.9034	3469
622.3615	3480
624.8208	3457
627.2775	3454
629.7335	3421
632.1929	3480
634.6476	3474
637.1016	3432
639.5569	3444
642.0096	3422
644.4637	3441
646.9151	3440
649.3678	3476
651.8179	3457
654.2672	3500
656.7159	3432
659.166	3513
661.6154	3483
664.0622	3549
666.5082	3473
668.9537	3572
671.4005	3495
673.8445	3484
676.288	3426
678.7308	3487
681.1729	3465
683.6163	3510
686.0572	3526
688.4973	3574
690.9368	3488
693.3757	3566
695.8138	3633
698.2534	3592
700.6902	3644
703.1245	3541
705.56	3547
707.9949	3604
710.4311	3574
712.8647	3566
715.2957	3623
717.7279	3631
720.1595	3611
722.5905	3651
725.0208	3724
727.4505	3622
729.8795	3690
732.3058	3607
734.7336	3713
737.1626	3762
739.587	3642
742.0128	3730
744.4359	3744
746.8604	3730
749.2841	3739
751.7073	3800
754.1278	3679
756.5496	3761
758.9688	3804
761.3893	3783
763.8093	3750
766.2285	3781
768.6451	3872
771.0611	3824
773.4784	3845
775.895	3817
778.3091	3772
780.7244	3740
783.1371	3827
785.5493	3758
787.9626	3870
790.3754	3876
792.7856	3735
795.1951	3783
797.6039	3847
800.0121	3862
802.4236	3797
804.8306	3798
807.2369	3777
809.6425	3773
812.0475	3833
814.4538	3848
816.8575	3814
819.2606	3940
821.663	3868
824.0648	3846
826.4659	3842
828.8683	3775
831.2682	3925
833.6674	3881
836.066	3859
838.4639	3864
840.8632	3903
843.2579	3858
845.6539	3883
848.0493	3979
850.444	3946
852.84	3884
855.2315	3869
857.6243	3926
860.0165	3794
862.4081	3907
864.797	3933
867.1892	3876
869.5789	3909
871.9659	4028
874.3542	3959
876.74	3852
879.129	3898
881.5155	3852
883.8994	3875
886.2845	4053
888.6671	3924
891.051	3802
893.4343	3991
895.8169	3904
898.197	3902
900.5783	3936
902.9571	3916
905.3372	3965
907.7167	3960
910.0936	3926
912.4698	4024
914.8474	3955
917.2244	3948
919.5987	4106
921.9744	3967
924.3475	4085
926.72	4086
929.0918	4028
931.4669	4187
933.8375	4076
936.2074	4128
938.5767	4219
940.9454	4194
943.3154	4144
945.6829	4339
948.0497	4325
950.4178	4351
952.7833	4425
955.1483	4679
957.5145	4740
959.8782	4778
962.2412	4851
964.6036	4660
966.9655	4587
969.3266	4457
971.6871	4334
974.0471	4209
976.4064	4305
978.765	4104
981.125	4071
983.4824	4141
985.8373	4012
988.1935	4040
990.549	4053
992.9039	4102
995.2602	4057
997.6119	3996
999.965	4097
1002.317	3972
1004.667	4093
1007.02	4139
1009.371	4024
1011.719	3992
1014.068	4040
1016.415	4010
1018.765	4091
1021.111	4077
1023.458	4084
1025.804	4114
1028.147	4191
1030.49	4186
1032.837	4144
1035.179	4104
1037.522	4175
1039.862	4198
1042.204	4155
1044.546	4088
1046.884	4156
1049.224	4206
1051.562	4152
1053.899	4215
1056.237	4142
1058.575	4151
1060.91	4176
1063.244	4142
1065.58	4180
1067.913	4145
1070.248	4179
1072.579	4249
1074.911	4177
1077.242	4203
1079.572	4147
1081.905	4170
1084.234	4212
1086.562	4183
1088.89	4214
1091.217	4114
1093.544	4172
1095.871	4259
1098.197	4173
1100.521	4232
1102.845	4181
1105.169	4243
1107.491	4277
1109.814	4188
1112.135	4271
1114.456	4068
1116.776	4143
1119.096	4214
1121.415	4112
1123.734	4215
1126.052	4175
1128.369	4122
1130.686	4189
1133.002	4190
1135.318	4210
1137.632	4148
1139.945	4190
1142.258	4275
1144.573	4191
1146.884	4143
1149.196	4258
1151.505	4200
1153.816	4195
1156.124	4181
1158.435	4143
1160.742	4214
1163.051	4180
1165.356	4185
1167.663	4139
1169.97	4142
1172.276	4276
1174.579	4174
1176.881	4157
1179.186	4169
1181.487	4203
1183.79	4232
1186.092	4190
1188.392	4234
1190.691	4181
1192.991	4189
1195.291	4220
1197.588	4141
1199.885	4174
1202.181	4155
1204.479	4180
1206.775	4291
1209.07	4187
1211.363	4161
1213.656	4277
1215.949	4264
1218.241	4253
1220.534	4186
1222.825	4253
1225.115	4305
1227.405	4288
1229.693	4255
1231.984	4256
1234.271	4231
1236.558	4377
1238.845	4284
1241.131	4449
1243.416	4379
1245.703	4335
1247.987	4302
1250.269	4252
1252.552	4387
1254.834	4282
1257.118	4358
1259.399	4367
1261.678	4330
1263.958	4308
1266.237	4275
1268.516	4295
1270.794	4260
1273.072	4397
1275.347	4403
1277.624	4352
1279.899	4312
1282.175	4378
1284.449	4281
1286.722	4312
1288.995	4292
1291.266	4359
1293.54	4297
1295.81	4412
1298.081	4311
1300.35	4247
1302.62	4319
1304.889	4340
1307.156	4344
1309.425	4377
1311.69	4304
1313.957	4333
1316.222	4235
1318.488	4325
1320.751	4334
1323.016	4301
1325.278	4268
1327.54	4380
1329.803	4360
1332.065	4374
1334.325	4335
1336.584	4335
1338.843	4383
1341.101	4315
1343.36	4327
1345.617	4249
1347.876	4342
1350.131	4405
1352.387	4262
1354.643	4336
1356.897	4336
1359.151	4339
1361.403	4320
1363.656	4303
1365.909	4359
1368.16	4288
1370.409	4348
1372.659	4343
1374.909	4431
1377.157	4416
1379.407	4415
1381.655	4328
1383.9	4378
1386.147	4402
1388.393	4358
1390.64	4384
1392.885	4397
1395.127	4400
1397.37	4328
1399.614	4454
1401.854	4428
1404.098	4531
1406.339	4403
1408.578	4342
1410.818	4453
1413.056	4443
1415.297	4497
1417.533	4542
1419.771	4502
1422.006	4430
1424.243	4420
1426.479	4484
1428.715	4493
1430.948	4440
1433.182	4414
1435.414	4480
1437.647	4581
1439.88	4541
1442.11	4552
1444.342	4482
1446.571	4538
1448.799	4496
1451.029	4525
1453.258	4511
1455.485	4507
1457.711	4479
1459.937	4540
1462.164	4598
1464.39	4488
1466.614	4517
1468.838	4487
1471.06	4493
1473.283	4530
1475.506	4524
1477.727	4432
1479.949	4383
1482.169	4469
1484.389	4511
1486.609	4392
1488.828	4498
1491.045	4381
1493.261	4379
1495.477	4388
1497.693	4413
1499.91	4408
1502.125	4338
1504.339	4402
1506.553	4496
1508.766	4397
1510.979	4340
1513.191	4309
1515.402	4374
1517.613	4382
1519.823	4372
1522.033	4456
1524.242	4403
1526.451	4404
1528.657	4392
1530.865	4430
1533.072	4423
1535.278	4431
1537.484	4328
1539.687	4403
1541.892	4311
1544.096	4437
1546.299	4400
1548.502	4397
1550.703	4448
1552.905	4475
1555.104	4452
1557.303	4478
1559.505	4477
1561.703	4520
1563.902	4510
1566.099	4498
1568.295	4543
1570.494	4498
1572.689	4423
1574.883	4413
1577.079	4498
1579.272	4449
1581.467	4557
1583.659	4550
1585.853	4563
1588.044	4498
1590.234	4526
1592.424	4498
1594.615	4437
1596.806	4661
1598.994	4521
1601.182	4507
1603.369	4554
1605.557	4492
1607.744	4560
1609.929	4588
1612.114	4615
1614.298	4532
1616.482	4603
1618.667	4567
1620.85	4537
1623.032	4577
1625.214	4565
1627.395	4543
1629.575	4542
1631.755	4659
1633.935	4609
1636.114	4577
1638.292	4595
1640.471	4525
1642.647	4644
1644.823	4631
1647	4588
1649.175	4589
1651.348	4702
1653.525	4698
1655.698	4498
1657.87	4702
1660.043	4584
1662.213	4670
1664.387	4630
1666.558	4680
1668.727	4710
1670.896	4683
1673.064	4666
1675.233	4665
1677.401	4604
1679.569	4583
1681.735	4627
1683.902	4637
1686.066	4700
1688.233	4671
1690.397	4624
1692.559	4634
1694.723	4657
1696.885	4627
1699.048	4573
1701.21	4608
1703.37	4597
1705.53	4713
1707.689	4610
1709.849	4584
1712.009	4626
1714.166	4528
1716.323	4579
1718.479	4582
1720.634	4533
1722.793	4542
1724.948	4604
1727.102	4613
1729.255	4624
1731.408	4467
1733.562	4600
1735.714	4639
1737.865	4640
1740.016	4633
1742.166	4637
1744.316	4597
1746.467	4552
1748.616	4608
1750.764	4536
1752.911	4599
1755.056	4605
1757.205	4665
1759.35	4589
1761.496	4575
1763.641	4577
1765.785	4597
1767.927	4682
1770.072	4636
1772.214	4635
1774.355	4687
1776.496	4657
1778.637	4578
1780.778	4675
1782.918	4557
1785.057	4603
1787.194	4657
1789.333	4666
1791.472	4646
1793.608	4714
1795.745	4607
1797.879	4652
1800.015	4625
1802.148	4724
1804.284	4664
1806.417	4679
1808.548	4718
1810.682	4662
1812.812	4678
1814.946	4752
1817.075	4587
1819.205	4656
1821.335	4660
1823.463	4683
1825.59	4753
1827.721	4593
1829.847	4675
1831.973	4515
1834.098	4752
1836.223	4676
1838.351	4658
1840.475	4669
1842.598	4623
1844.721	4675
1846.843	4575
1848.966	4646
1851.087	4700
1853.21	4636
1855.33	4601
1857.449	4559
1859.568	4612
1861.688	4694
1863.806	4650
1865.924	4683
1868.039	4665
1870.155	4610
1872.273	4622
1874.388	4649
1876.503	4617
1878.617	4686
1880.73	4694
1882.844	4577
1884.956	4645
1887.068	4616
1889.18	4616
1891.291	4644
1893.4	4762
1895.511	4758
1897.621	4634
1899.73	4643
1901.837	4673
1903.944	4744
1906.053	4805
1908.159	4693
1910.265	4741
1912.369	4628
1914.474	4610
1916.577	4756
1918.683	4787
1920.785	4765
1922.888	4739
1924.989	4731
1927.091	4751
1929.193	4773
1931.294	4632
1933.393	4826
1935.493	4765
1937.59	4786
1939.689	4753
1941.788	4860
1943.884	4729
1945.98	4837
1948.077	4775
1950.171	4725
1952.267	4670
1954.361	4721
1956.455	4749
1958.548	4722
1960.64	4695
1962.733	4724
1964.824	4761
1966.915	4716
1969.005	4827
1971.096	4781
1973.185	4730
1975.275	4729
1977.363	4804
1979.45	4705
1981.537	4668
1983.623	4718
1985.711	4705
1987.796	4756
1989.881	4756
1991.965	4690
1994.047	4717
1996.132	4695
1998.215	4690
2000.297	4658
2002.378	4703
2004.46	4722
2006.54	4611
2008.62	4675
2010.7	4820
2012.779	4772
2014.858	4708
2016.934	4673
2019.013	4753
2021.09	4669
2023.165	4699
2025.241	4741
2027.317	4668
2029.39	4714
2031.466	4728
2033.538	4723
2035.612	4777
2037.683	4779
2039.755	4682
2041.827	4739
2043.898	4706
2045.968	4792
2048.038	4689
2050.106	4720
2052.177	4829
2054.244	4753
2056.313	4697
2058.379	4864
2060.444	4710
2062.511	4622
2064.577	4748
2066.641	4760
2068.705	4670
2070.77	4743
2072.832	4684
2074.896	4705
2076.958	4760
2079.02	4893
2081.081	4754
2083.141	4785
2085.2	4724
2087.261	4721
2089.319	4707
2091.377	4732
2093.435	4761
2095.492	4783
2097.552	4821
2099.607	4754
2101.663	4713
2103.718	4799
2105.771	4747
2107.826	4778
2109.879	4725
2111.932	4723
2113.985	4767
2116.037	4793
2118.088	4692
2120.141	4745
2122.191	4773
2124.239	4839
2126.288	4731
2128.337	4755
2130.387	4651
2132.434	4741
2134.481	4747
2136.528	4731
2138.574	4838
2140.618	4840
2142.665	4826
2144.71	4648
2146.753	4852
2148.797	4731
2150.838	4745
2152.883	4791
2154.923	4770
2156.965	4728
2159.007	4706
2161.046	4761
2163.086	4726
2165.126	4777
2167.163	4810
2169.202	4719
2171.239	4700
2173.277	4760
2175.314	4677
2177.349	4632
2179.385	4702
2181.42	4699
2183.453	4741
2185.49	4614
2187.522	4713
2189.555	4618
2191.586	4713
2193.619	4781
2195.651	4673
2197.682	4663
2199.711	4634
2201.74	4755
2203.769	4684
2205.799	4707
2207.828	4789
2209.855	4570
2211.882	4599
2213.908	4703
2215.934	4715
2217.961	4700
2219.986	4675
2222.01	4608
2224.034	4645
2226.057	4641
2228.08	4710
2230.104	4692
2232.124	4612
2234.145	4694
2236.166	4711
2238.186	4606
2240.207	4761
2242.227	4672
2244.244	4684
2246.262	4655
2248.28	4669
2250.299	4590
2252.314	4692
2254.33	4808
2256.346	4706
2258.36	4652
2260.375	4745
2262.391	4690
2264.403	4730
2266.416	4710
2268.427	4671
2270.44	4694
2272.453	4854
2274.463	4629
2276.474	4655
2278.483	4611
2280.493	4713
2282.501	4705
2284.51	4665
2286.518	4720
2288.524	4609
2290.532	4648
2292.537	4663
2294.544	4713
2296.55	4674
2298.554	4771
2300.557	4697
2302.562	4665
2304.566	4688
2306.568	4650
2308.569	4740
2310.572	4751
2312.573	4701
2314.573	4628
2316.574	4669
2318.573	4672
2320.571	4633
2322.571	4567
2324.569	4615
2326.567	4635
2328.564	4589
2330.56	4618
2332.556	4697
2334.551	4565
2336.546	4665
2338.542	4518
2340.535	4682
2342.529	4646
2344.521	4628
2346.512	4626
2348.505	4618
2350.497	4679
2352.487	4700
2354.478	4585
2356.468	4554
2358.457	4657
2360.446	4609
2362.434	4648
2364.422	4580
2366.408	4516
2368.395	4564
2370.383	4555
2372.369	4425
2374.353	4649
2376.338	4709
2378.321	4622
2380.307	4570
2382.29	4520
2384.272	4604
2386.254	4562
2388.235	4652
2390.218	4622
2392.198	4558
2394.179	4590
2396.157	4636
2398.137	4633
2400.115	4541
2402.095	4584
2404.072	4648
2406.048	4566
2408.026	4553
2410.001	4551
2411.977	4678
2413.953	4554
2415.927	4544
2417.9	4563
2419.875	4546
2421.847	4524
2423.821	4625
2425.792	4543
2427.763	4596
2429.736	4705
2431.706	4470
2433.677	4572
2435.646	4605
2437.615	4570
2439.583	4598
2441.551	4579
2443.519	4587
2445.486	4517
2447.452	4624
2449.418	4536
2451.383	4600
2453.348	4565
2455.314	4574
2457.278	4650
2459.241	4495
2461.205	4590
2463.167	4626
2465.131	4607
2467.091	4598
2469.052	4536
2471.012	4541
2472.972	4582
2474.932	4480
2476.891	4626
2478.85	4637
2480.808	4504
2482.766	4600
2484.722	4550
2486.68	4575
2488.636	4621
2490.591	4524
2492.546	4517
2494.5	4538
2496.456	4481
2498.41	4596
2500.362	4590
2502.315	4449
2504.266	4530
2506.218	4515
2508.169	4594
2510.121	4558
2512.07	4478
2514.019	4518
2515.968	4675
2517.918	4518
2519.866	4527
2521.813	4493
2523.76	4528
2525.707	4570
2527.653	4465
2529.599	4497
2531.543	4427
2533.489	4561
2535.433	4517
2537.376	4617
2539.32	4500
2541.264	4564
2543.205	4545
2545.147	4624
2547.087	4506
2549.029	4529
2550.969	4569
2552.908	4514
2554.847	4561
2556.786	4519
2558.724	4464
2560.663	4410
2562.6	4476
2564.537	4397
2566.473	4600
2568.408	4501
2570.345	4437
2572.28	4620
2574.214	4534
2576.148	4551
2578.081	4637
2580.014	4552
2581.947	4406
2583.879	4676
2585.81	4559
2587.741	4542
2589.67	4592
2591.602	4570
2593.532	4482
2595.461	4501
2597.388	4565
2599.316	4528
2601.244	4623
2603.172	4497
2605.098	4561
2607.023	4533
2608.949	4531
2610.873	4606
2612.8	4575
2614.723	4513
2616.647	4475
2618.569	4573
2620.493	4406
2622.416	4539
2624.338	4543
2626.258	4542
2628.179	4590
2630.099	4525
2632.019	4601
2633.939	4555
2635.857	4649
2637.775	4699
2639.694	4506
2641.61	4576
2643.528	4525
2645.444	4680
2647.361	4582
2649.276	4566
2651.19	4687
2653.105	4477
2655.019	4568
2656.934	4580
2658.846	4553
2660.758	4494
2662.67	4593
2664.583	4542
2666.493	4555
2668.404	4474
2670.313	4576
2672.223	4578
2674.134	4604
2676.042	4563
2677.95	4469
2679.858	4643
2681.765	4564
2683.673	4546
2685.579	4554
2687.483	4482
2689.389	4486
2691.294	4538
2693.198	4512
2695.104	4549
2697.006	4496
2698.909	4490
2700.811	4591
2702.713	4516
2704.615	4562
2706.516	4465
2708.417	4561
2710.316	4538
2712.216	4504
2714.115	4518
2716.014	4475
2717.913	4491
2719.81	4511
2721.707	4453
2723.603	4529
2725.501	4548
2727.396	4429
2729.292	4463
2731.186	4496
2733.081	4525
2734.976	4510
2736.87	4488
2738.762	4455
2740.653	4542
2742.546	4545
2744.437	4493
2746.329	4500
2748.22	4467
2750.11	4460
2751.999	4502
2753.889	4569
2755.778	4485
2757.666	4508
2759.553	4508
2761.44	4496
2763.328	4459
2765.215	4431
2767.101	4485
2768.986	4449
2770.87	4609
2772.754	4434
2774.638	4501
2776.523	4483
2778.405	4444
2780.288	4520
2782.17	4537
2784.051	4377
2785.934	4504
2787.814	4445
2789.694	4524
2791.574	4498
2793.453	4389
2795.332	4546
2797.212	4479
2799.088	4414
2800.966	4367
2802.843	4443
2804.719	4509
2806.597	4351
2808.471	4494
2810.346	4495
2812.221	4456
2814.094	4520
2815.969	4413
2817.843	4430
2819.714	4411
2821.587	4441
2823.459	4441
2825.329	4313
2827.202	4478
2829.072	4401
2830.942	4524
2832.811	4440
2834.68	4447
2836.549	4575
2838.418	4441
2840.284	4517
2842.152	4476
2844.018	4350
2845.885	4441
2847.751	4526
2849.616	4486
2851.482	4466
2853.345	4553
2855.208	4482
2857.074	4388
2858.937	4438
2860.799	4502
2862.66	4486
2864.522	4486
2866.385	4467
2868.245	4519
2870.104	4632
2871.964	4634
2873.824	4560
2875.683	4623
2877.542	4579
2879.4	4703
2881.257	4571
2883.114	4636
2884.97	4628
2886.827	4750
2888.683	4672
2890.537	4571
2892.392	4692
2894.246	4726
2896.1	4618
2897.954	4816
2899.807	4606
2901.66	4666
2903.51	4672
2905.362	4638
2907.214	4703
2909.065	4638
2910.915	4776
2912.765	4649
2914.613	4699
2916.463	4699
2918.311	4764
2920.158	4778
2922.006	4918
2923.853	4754
2925.698	4857
2927.546	4796
2929.392	4910
2931.236	4954
2933.081	4969
2934.924	4888
2936.77	4958
2938.613	4963
2940.455	4984
2942.298	4972
2944.139	5048
2945.982	5250
2947.823	5049
2949.662	4900
2951.503	5032
2953.342	4932
2955.182	5034
2957.021	4910
2958.858	4956
2960.697	4881
2962.534	4908
2964.37	4794
2966.207	4796
2968.044	4759
2969.879	4811
2971.714	4845
2973.548	4685
2975.383	4755
2977.218	4793
2979.051	4653
2980.883	4650
2982.715	4624
2984.547	4694
2986.379	4648
2988.21	4584
2990.04	4604
2991.87	4622
2993.7	4629
2995.53	4604
2997.359	4482
2999.187	4475
3001.015	4494
3002.842	4408
3004.669	4490
3006.497	4440
3008.323	4466
3010.148	4351
3011.974	4340
3013.797	4424
3015.623	4351
3017.447	4339
3019.27	4360
3021.094	4351
3022.915	4278
3024.737	4300
3026.56	4290
3028.38	4281
3030.201	4312
3032.022	4343
3033.84	4237
3035.662	4283
3037.481	4269
3039.298	4342
3041.117	4266
3042.933	4300
3044.752	4317
3046.568	4280
3048.385	4349
3050.2	4322
3052.016	4290
3053.83	4304
3055.646	4260
3057.46	4205
3059.272	4258
3061.086	4217
3062.898	4230
3064.711	4272
3066.524	4240
3068.335	4191
3070.145	4289
3071.956	4318
3073.766	4194
3075.576	4241
3077.385	4206
3079.193	4179
3081.002	4297
3082.81	4177
3084.618	4220
3086.425	4206
3088.231	4232
3090.036	4080
3091.842	4208
3093.648	4136
3095.452	4177
3097.257	4183
3099.06	4147
3100.863	4103
3102.666	4134
3104.47	4149
3106.272	4237
3108.073	4170
3109.875	4172
3111.676	4130
3113.477	4115
3115.277	4161
3117.077	4047
3118.874	4100
3120.673	4143
3122.473	4136
3124.271	4172
3126.066	4113
3127.863	4163
3129.66	4108
3131.456	4088
3133.252	4168
3135.047	4088
3136.842	4073
3138.635	4055
3140.429	4140
3142.223	3970
3144.016	4108
3145.808	4041
3147.6	4077
3149.392	4082
3151.183	4096
3152.975	4015
3154.765	4091
3156.553	4116
3158.344	4106
3160.132	4011
3161.922	4166
3163.71	4019
3165.497	4118
3167.285	4052
3169.071	4048
3170.858	4021
3172.645	4038
3174.429	3977
3176.214	4089
3177.998	4036
3179.783	4029
3181.568	3993
3183.351	4100
3185.133	4048
3186.915	4014
3188.698	4019
3190.481	4052
3192.261	4066
3194.042	4070
3195.822	3981
3197.601	4078
3199.381	3982
3201.161	3979
3202.939	3989
3204.717	4042
3206.495	4036
3208.272	3981
3210.05	4111
3211.826	3998
3213.602	4026
3215.376	3937
3217.151	3938
3218.927	4024
3220.702	3934
3222.476	3986
3224.249	4057
3226.021	4099
3227.793	3991
3229.567	3952
3231.339	3957
3233.109	3940
3234.88	3973
3236.651	4043
3238.421	3966
3240.191	3945
3241.96	3951
3243.728	3958
3245.497	4039
3247.263	4025
3249.033	3943
3250.799	4090
3252.566	3977
3254.331	4024
3256.097	4006
3257.863	4061
3259.628	4035
3261.392	4077
3263.156	3979
3264.919	3947
3266.683	3982
3268.447	4001
3270.208	4031
3271.969	3896
3273.731	3967
3275.492	3971
3277.253	4018
3279.013	3995
3280.773	4047
3282.532	3981
3284.291	3968
3286.05	4026
3287.808	3953
3289.566	4014
3291.323	4077
3293.079	4018
3294.835	3927
3296.593	3934
3298.348	3964
3300.102	3929
3301.857	3965
3303.611	4054
3305.366	3924
3307.119	3928
3308.872	3992
3310.624	3966
3312.376	4057
3314.129	3997
3315.881	4045
3317.631	3950
3319.38	3983
3321.13	4022
3322.88	4000
3324.631	3901
3326.379	3972
3328.126	3980
3329.875	4015
3331.622	3972
3333.371	3929
3335.116	3989
3336.863	3900
3338.609	3957
3340.353	3996
3342.1	3999
3343.845	3956
3345.588	3981
3347.332	4033
3349.074	3932
3350.817	3856
3352.56	4008
3354.303	3888
3356.043	3992
3357.785	3954
3359.525	3911
3361.268	3920
3363.007	3939
3364.745	3948
3366.485	3959
3368.223	3880
3369.962	3840
3371.701	3833
3373.438	3875
3375.174	3909
3376.911	3981
3378.647	3913
3380.384	3793
3382.118	3892
3383.854	3829
3385.588	3887
3387.322	3862
3389.057	3861
3390.79	3861
3392.522	3846
3394.255	3920
3395.987	3894
3397.719	3871
3399.451	3801
3401.181	3842
3402.911	3820
3404.641	3889
3406.371	3850
3408.101	3809
3409.83	3855
3411.558	3892
3413.285	3837
3415.011	3828
3416.739	3926
3418.467	3864
3420.193	3900
3421.919	3920
3423.644	3896
3425.368	3928
3427.094	3860
3428.818	3775
3430.542	3846
3432.264	3903
3433.987	3796
3435.712	3842
3437.434	3807
3439.155	3729
3440.876	3804
3442.596	3845
3444.317	3844
3446.039	3884
3447.757	3746
3449.477	3767
3451.195	3776
3452.914	3867
3454.632	3803
3456.35	3780
3458.067	3767
3459.784	3792
3461.5	3838
3463.216	3786
3464.932	3715
3466.647	3793
3468.362	3721
3470.076	3732
3471.789	3692
3473.505	3800
3475.217	3776
3476.929	3729
3478.641	3674
3480.354	3663
3482.066	3771
3483.777	3737
3485.487	3706
3487.197	3776
3488.908	3738
3490.617	3673
3492.327	3736
3494.035	3643
3495.743	3718
3497.451	3730
3499.158	3662
3500.866	3695
3502.572	3607
3504.278	3666
3505.984	3657
3507.689	3637
3509.396	3641
3511.1	3659
3512.804	3726
3514.508	3664
3516.211	3682
3517.913	3729
3519.616	3716
3521.319	3542
3523.021	3643
3524.722	3684
3526.422	3676
3528.124	3633
3529.824	3651
3531.524	3601
3533.222	3645
3534.921	3695
3536.62	3624
3538.318	3624
3540.016	3738
3541.714	3719
3543.41	3630
3545.107	3645
3546.803	3588
3548.5	3671
3550.194	3605
3551.889	3617
3553.583	3538
3555.279	3584
3556.972	3635
3558.666	3586
3560.358	3517
3562.051	3525
3563.742	3558
3565.435	3544
3567.126	3581
3568.817	3525
3570.507	3590
3572.197	3633
3573.888	3572
3575.577	3518
3577.265	3595
3578.954	3518
3580.642	3546
3582.329	3542
3584.017	3589
3585.704	3482
3587.391	3445
3589.077	3569
3590.762	3453
3592.449	3488
3594.133	3529
3595.817	3468
3597.501	3523
3599.185	3478
3600.869	3501
3602.552	3392
3604.234	3451
3605.916	3484
3607.598	3435
3609.279	3498
3610.961	3539
3612.642	3418
3614.321	3475
3616	3466
3617.68	3487
3619.36	3433
3621.039	3430
3622.716	3449
3624.394	3469
3626.071	3376
3627.748	3540
3629.425	3450
3631.102	3365
3632.778	3467
3634.452	3440
3636.127	3418
3637.803	3448
3639.477	3453
3641.151	3454
3642.823	3323
3644.497	3527
3646.171	3378
3647.842	3280
3649.515	3362
3651.185	3465
3652.857	3362
3654.527	3436
3656.198	3467
3657.868	3290
3659.537	3379
3661.207	3385
3662.875	3331
3664.544	3365
3666.212	3380
3667.879	3394
3669.546	3415
3671.212	3361
3672.88	3376
3674.546	3331
3676.211	3326
3677.875	3356
3679.541	3349
3681.205	3440
3682.87	3344
3684.533	3361
3686.196	3379
3687.859	3374
3689.521	3303
3691.184	3358
3692.845	3328
3694.507	3395
3696.167	3357
3697.827	3372
3699.487	3378
3701.148	3294
3702.808	3372
3704.466	3334
3706.125	3256
3707.783	3306
3709.442	3272
3711.099	3314
3712.757	3204
3714.412	3387
3716.068	3342
3717.725	3340
3719.381	3326
3721.036	3301
3722.689	3326
3724.344	3318
3725.998	3254
3727.652	3345
3729.305	3273
3730.958	3332
3732.61	3319
3734.262	3279
3735.915	3328
3737.565	3262
3739.217	3276
3740.866	3283
3742.516	3227
3744.165	3204
3745.816	3260
3747.464	3256
3749.113	3302
3750.761	3220
3752.409	3287
3754.057	3278
3755.703	3291
3757.35	3227
3758.996	3242
3760.641	3295
3762.289	3281
3763.933	3236
3765.577	3298
3767.222	3217
3768.865	3266
3770.508	3204
3772.152	3225
3773.796	3230
3775.438	3197
3777.079	3264
3778.721	3190
3780.363	3226
3782.003	3190
3783.643	3179
3785.283	3187
3786.923	3195
3788.563	3186
3790.203	3277
3791.841	3249
3793.479	3152
3795.115	3168
3796.753	3192
3798.391	3162
3800.027	3156
3801.664	3222
3803.299	3139
3804.935	3249
3806.571	3109
3808.206	3169
3809.839	3209
3811.473	3189
3813.107	3126
3814.74	3149
3816.375	3268
3818.006	3147
3819.638	3094
3821.27	3138
3822.9	3107
3824.532	3137
3826.163	3153
3827.792	3153
3829.423	3183
3831.051	3131
3832.682	3060
3834.311	3182
3835.938	3146
3837.566	3223
3839.193	3155
3840.821	3156
3842.448	3113
3844.075	3094
3845.7	3154
3847.325	3110
3848.951	3085
3850.576	3075
3852.201	3143
3853.825	3104
3855.448	3080
3857.072	3091
3858.694	3109
3860.318	3084
3861.939	3112
3863.562	3132
3865.183	3055
3866.804	3043
3868.426	3078
3870.045	3106
3871.666	3059
3873.285	3093
3874.904	3013
3876.524	3108
3878.142	3125
3879.76	3022
3881.378	3011
3882.995	3081
3884.612	3033
3886.229	3047
3887.845	3035
3889.461	3081
3891.076	3072
3892.691	3067
3894.307	3024
3895.922	2985
3897.536	3076
3899.149	3041
3900.761	3038
3902.374	3050
3903.988	3024
3905.6	3009
3907.212	3011
3908.822	3027
3910.433	3016
3912.045	3008
3913.655	3093
3915.265	3038
3916.875	3044
3918.483	3021
3920.093	3048
3921.702	2955
3923.309	3036
3924.917	3066
3926.523	3050
3928.13	3063
3929.739	3019
3931.344	3029
3932.95	3018
3934.555	3059
3936.159	2961
3937.766	3029
3939.369	3053
3940.974	3040
3942.577	3011
3944.181	3022
3945.783	2977
3947.386	3046
3948.989	2977
3950.59	2960
3952.191	2912
3953.791	2943
3955.394	2960
3956.994	2958
3958.593	2949
3960.192	2895
3961.791	2944
3963.392	3005
3964.99	2975
3966.588	2981
3968.185	2946
3969.782	2916
3971.379	2961
3972.976	2943
3974.572	2941
3976.168	2981
3977.763	2928
3979.358	2967
3980.954	2941
3982.548	2936
3984.142	2900
3985.736	2926
3987.329	2893
3988.922	2910
3990.516	2875
3992.108	2930
3993.698	2968
3995.29	2916
3996.881	2940
3998.473	2879
4000.064	2922
4001.653	2880
4003.242	2828
4004.832	2869
4006.422	2848
4008.01	2909
4009.598	2913
4011.186	2874
4012.773	2916
4014.36	2897
4015.947	2848
4017.534	2806
4019.119	2862
4020.705	2864
4022.291	2812
4023.876	2806
4025.461	2833
4027.044	2832
4028.627	2834
4030.211	2804
4031.795	2834
4033.378	2796
4034.96	2802
4036.542	2839
4038.124	2892
4039.704	2850
4041.286	2791
4042.867	2862
4044.447	2832
4046.026	2790
4047.606	2835
4049.187	2760
4050.765	2750
4052.343	2827
4053.92	2838
4055.498	2793
4057.076	2804
4058.654	2790
4060.23	2829
4061.806	2783
4063.381	2729
4064.957	2748
4066.533	2814
4068.107	2829
4069.682	2823
4071.256	2776
4072.829	2759
4074.404	2771
4075.977	2753
4077.549	2756
4079.121	2775
4080.693	2792
4082.265	2779
4083.836	2728
4085.407	2793
4086.977	2808
4088.547	2760
4090.117	2786
4091.687	2722
4093.256	2744
4094.825	2706
4096.392	2697
4097.96	2790
4099.528	2739
4101.097	2752
4102.663	2749
4104.229	2798
4105.795	2731
4107.361	2783
4108.928	2735
4110.493	2739
4112.058	2719
4113.621	2723
4115.186	2627
4116.75	2709
4118.313	2741
4119.876	2755
4121.438	2654
4123	2717
4124.562	2706
4126.125	2708
4127.686	2735
4129.246	2692
4130.807	2723
4132.367	2704
4133.927	2610
4135.486	2699
4137.046	2687
4138.604	2662
4140.162	2664
4141.72	2666
4143.279	2674
4144.836	2655
4146.393	2648
4147.949	2622
4149.505	2585
4151.062	2676
4152.617	2639
4154.172	2659
4155.727	2649
4157.281	2656
4158.836	2615
4160.39	2658
4161.943	2601
4163.496	2642
4165.048	2630
4166.601	2594
4168.154	2686
4169.706	2624
4171.257	2694
4172.808	2611
4174.358	2550
4175.909	2621
4177.458	2561
4179.008	2675
4180.558	2565
4182.106	2581
4183.655	2645
4185.204	2544
4186.751	2566
4188.298	2557
4189.845	2589
4191.392	2580
4192.939	2583
4194.485	2609
4196.031	2557
4197.576	2577
4199.121	2632
4200.666	2600
4202.211	2552
4203.754	2557
4205.298	2586
4206.84	2574
4208.384	2528
4209.927	2560
4211.47	2611
4213.011	2551
4214.552	2568
4216.094	2550
4217.635	2554
4219.175	2533
4220.716	2547
4222.255	2575
4223.793	2529
4225.335	2530
4226.873	2481
4228.411	2530
4229.948	2546
4231.486	2576
4233.024	2559
4234.562	2540
4236.098	2497
4237.634	2479
4239.169	2537
4240.705	2525
4242.241	2537
4243.776	2500
4245.31	2510
4246.844	2535
4248.378	2479
4249.911	2546
4251.445	2440
4252.978	2476
4254.51	2494
4256.042	2552
4257.574	2480
4259.107	2526
4260.638	2482
4262.169	2532
4263.699	2424
4265.228	2492
4266.759	2473
4268.289	2544
4269.818	2480
4271.345	2500
4272.874	2542
4274.402	2395
4275.931	2486
4277.458	2469
4278.985	2488
4280.512	2532
4282.037	2498
4283.564	2505
4285.089	2475
4286.615	2449
4288.139	2482
4289.664	2480
4291.187	2480
4292.712	2438
4294.235	2442
4295.759	2423
4297.281	2448
4298.804	2461
4300.327	2443
4301.849	2468
4303.37	2478
4304.891	2376
4306.412	2431
4307.933	2440
4309.453	2451
4310.973	2423
4312.492	2455
