398.1873	4068
400.7097	4069
403.2336	4101
405.7547	4105
408.2751	4147
410.7948	4215
413.3138	4186
415.83	4198
418.3497	4164
420.8666	4191
423.3829	4245
425.8985	4369
428.4133	4239
430.9275	4433
433.441	4457
435.9538	4378
438.4639	4302
440.9753	4360
443.4881	4379
445.9982	4346
448.5055	4349
451.0142	4367
453.5201	4303
456.0274	4376
458.5361	4382
461.04	4351
463.5453	4401
466.0478	4277
468.5517	4447
471.0549	4285
473.5574	4388
476.0572	4535
478.5584	4373
481.0568	4452
483.5545	4554
486.0557	4437
488.5521	4458
491.0478	4440
493.5449	4486
496.0392	4496
498.5349	4467
501.0299	4444
503.5222	4514
506.0139	4476
508.5048	4530
510.9991	4408
513.4887	4501
515.9777	4533
518.4659	4580
520.9534	4540
523.4403	4494
525.9306	4570
528.4161	4460
530.9009	4524
533.3851	4537
535.8687	4449
538.3535	4493
540.8356	4525
543.3171	4586
545.7979	4482
548.278	4593
550.7595	4426
553.2383	4471
555.7144	4563
558.1918	4545
560.6685	4642
563.1446	4620
565.6221	4611
568.0968	4711
570.5688	4618
573.0422	4730
575.515	4591
577.989	4668
580.4584	4666
582.9291	4638
585.3991	4705
587.8685	4734
590.3352	4679
592.8052	4771
595.2706	4696
597.7372	4665
600.2033	4808
602.6666	4613
605.1334	4610
607.5953	4764
610.0587	4653
612.5193	4655
614.9814	4652
617.4427	4711
619.9034	4685
622.3615	4503
624.8208	4620
627.2775	4575
629.7335	4649
632.1929	4563
634.6476	4706
637.1016	4634
639.5569	4671
642.0096	4662
644.4637	4753
646.9151	4612
649.3678	4701
651.8179	4633
654.2672	4801
656.7159	4700
659.166	4752
661.6154	4751
664.0622	4838
666.5082	4741
668.9537	4749
671.4005	4844
673.8445	4791
676.288	4823
678.7308	4776
681.1729	4858
683.6163	4749
686.0572	4864
688.4973	4800
690.9368	4840
693.3757	4831
695.8138	4818
698.2534	4867
700.6902	4884
703.1245	4967
705.56	4962
707.9949	4899
710.4311	4880
712.8647	4859
715.2957	4928
717.7279	4953
720.1595	4995
722.5905	4888
725.0208	4933
727.4505	5004
729.8795	4978
732.3058	4920
734.7336	5020
737.1626	5028
739.587	5058
742.0128	5047
744.4359	5049
746.8604	5105
749.2841	5016
751.7073	5127
754.1278	5077
756.5496	5025
758.9688	5192
761.3893	5194
763.8093	5172
766.2285	5108
768.6451	5189
771.0611	5227
773.4784	5150
775.895	5175
778.3091	5123
780.7244	5159
783.1371	5173
785.5493	5247
787.9626	5234
790.3754	5159
792.7856	5105
795.1951	5183
797.6039	5204
800.0121	5089
802.4236	5226
804.8306	5211
807.2369	5214
809.6425	5249
812.0475	5251
814.4538	5191
816.8575	5188
819.2606	5174
821.663	5329
824.0648	5315
826.4659	5228
828.8683	5121
831.2682	5233
833.6674	5276
836.066	5185
838.4639	5335
840.8632	5250
843.2579	5194
845.6539	5331
848.0493	5244
850.444	5485
852.84	5350
855.2315	5324
857.6243	5304
860.0165	5250
862.4081	5310
864.797	5395
867.1892	5347
869.5789	5345
871.9659	5303
874.3542	5369
876.74	5423
879.129	5355
881.5155	5386
883.8994	5386
886.2845	5231
888.6671	5385
891.051	5274
893.4343	5335
895.8169	5308
898.197	5334
900.5783	5357
902.9571	5378
905.3372	5343
907.7167	5347
910.0936	5341
912.4698	5433
914.8474	5379
917.2244	5382
919.5987	5509
921.9744	5565
924.3475	5622
926.72	5615
929.0918	5579
931.4669	5533
933.8375	5642
936.2074	5607
938.5767	5643
940.9454	5773
943.3154	5735
945.6829	5901
948.0497	6133
950.4178	6214
952.7833	6378
955.1483	6533
957.5145	6678
959.8782	6774
962.2412	6791
964.6036	6478
966.9655	6384
969.3266	6138
971.6871	5857
974.0471	5745
976.4064	5729
978.765	5678
981.125	5476
983.4824	5504
985.8373	5485
988.1935	5570
990.549	5614
992.9039	5481
995.2602	5589
997.6119	5574
999.965	5646
1002.317	5564
1004.667	5543
1007.02	5658
1009.371	5617
1011.719	5487
1014.068	5524
1016.415	5548
1018.765	5434
1021.111	5567
1023.458	5563
1025.804	5564
1028.147	5595
1030.49	5672
1032.837	5570
1035.179	5574
1037.522	5650
1039.862	5740
1042.204	5606
1044.546	5680
1046.884	5558
1049.224	5723
1051.562	5768
1053.899	5747
1056.237	5674
1058.575	5804
1060.91	5696
1063.244	5785
1065.58	5746
1067.913	5787
1070.248	5747
1072.579	5839
1074.911	5787
1077.242	5834
1079.572	5746
1081.905	5765
1084.234	5582
1086.562	5681
1088.89	5743
1091.217	5667
1093.544	5682
1095.871	5711
1098.197	5665
1100.521	5705
1102.845	5676
1105.169	5720
1107.491	5675
1109.814	5632
1112.135	5633
1114.456	5622
1116.776	5763
1119.096	5683
1121.415	5684
1123.734	5679
1126.052	5725
1128.369	5794
1130.686	5695
1133.002	5786
1135.318	5681
1137.632	5758
1139.945	5723
1142.258	5702
1144.573	5726
1146.884	5779
1149.196	5771
1151.505	5720
1153.816	5736
1156.124	5769
1158.435	5699
1160.742	5738
1163.051	5649
1165.356	5737
1167.663	5710
1169.97	5781
1172.276	5792
1174.579	5785
1176.881	5804
1179.186	5764
1181.487	5606
1183.79	5698
1186.092	5755
1188.392	5629
1190.691	5770
1192.991	5703
1195.291	5813
1197.588	5686
1199.885	5682
1202.181	5725
1204.479	5716
1206.775	5797
1209.07	5826
1211.363	5811
1213.656	5708
1215.949	5690
1218.241	5732
1220.534	5820
1222.825	5744
1225.115	5736
1227.405	5775
1229.693	5839
1231.984	5850
1234.271	5827
1236.558	5882
1238.845	5955
1241.131	5904
1243.416	5908
1245.703	5940
1247.987	6017
1250.269	5962
1252.552	5919
1254.834	6010
1257.118	5942
1259.399	5959
1261.678	6041
1263.958	5970
1266.237	5982
1268.516	5945
1270.794	5983
1273.072	5941
1275.347	5984
1277.624	5965
1279.899	5864
1282.175	5795
1284.449	5920
1286.722	5972
1288.995	5835
1291.266	5860
1293.54	5913
1295.81	5977
1298.081	5909
1300.35	5939
1302.62	5848
1304.889	5893
1307.156	5903
1309.425	5749
1311.69	5999
1313.957	5879
1316.222	5978
1318.488	5906
1320.751	5868
1323.016	5935
1325.278	5853
1327.54	5925
1329.803	5928
1332.065	5891
1334.325	5913
1336.584	5927
1338.843	5925
1341.101	5913
1343.36	6000
1345.617	5875
1347.876	5938
1350.131	5901
1352.387	5827
1354.643	5958
1356.897	5994
1359.151	5863
1361.403	5862
1363.656	6060
1365.909	5974
1368.16	5925
1370.409	5883
1372.659	5809
1374.909	6044
1377.157	5988
1379.407	5929
1381.655	5911
1383.9	5973
1386.147	5956
1388.393	5984
1390.64	6007
1392.885	5949
1395.127	6010
1397.37	6057
1399.614	5937
1401.854	6060
1404.098	6115
1406.339	5974
1408.578	6031
1410.818	6036
1413.056	6068
1415.297	6137
1417.533	6132
1419.771	6154
1422.006	6053
1424.243	6052
1426.479	6050
1428.715	6080
1430.948	6117
1433.182	6151
1435.414	6231
1437.647	6136
1439.88	6080
1442.11	6084
1444.342	6080
1446.571	6143
1448.799	6140
1451.029	6204
1453.258	6267
1455.485	6267
1457.711	6264
1459.937	6118
1462.164	6202
1464.39	6172
1466.614	6172
1468.838	6149
1471.06	6077
1473.283	6075
1475.506	6062
1477.727	6133
1479.949	6084
1482.169	5960
1484.389	5963
1486.609	5997
1488.828	6117
1491.045	5988
1493.261	5872
1495.477	6111
1497.693	6028
1499.91	6042
1502.125	5921
1504.339	5971
1506.553	5945
1508.766	5924
1510.979	5848
1513.191	5887
1515.402	5985
1517.613	5917
1519.823	5877
1522.033	5965
1524.242	5971
1526.451	5965
1528.657	5941
1530.865	5873
1533.072	5933
1535.278	5949
1537.484	6020
1539.687	5938
1541.892	5943
1544.096	5981
1546.299	6057
1548.502	5939
1550.703	5985
1552.905	5963
1555.104	5980
1557.303	6020
1559.505	6012
1561.703	6024
1563.902	6020
1566.099	6053
1568.295	6166
1570.494	5959
1572.689	6077
1574.883	6079
1577.079	5997
1579.272	6177
1581.467	6015
1583.659	6172
1585.853	5998
1588.044	6135
1590.234	6287
1592.424	6136
1594.615	6103
1596.806	6136
1598.994	6215
1601.182	6100
1603.369	6300
1605.557	6261
1607.744	6218
1609.929	6170
1612.114	6112
1614.298	6245
1616.482	6106
1618.667	6050
1620.85	6247
1623.032	6207
1625.214	6133
1627.395	6139
1629.575	6297
1631.755	6267
1633.935	6173
1636.114	6289
1638.292	6264
1640.471	6309
1642.647	6167
1644.823	6209
1647	6195
1649.175	6192
1651.348	6297
1653.525	6230
1655.698	6260
1657.87	6333
1660.043	6220
1662.213	6458
1664.387	6331
1666.558	6278
1668.727	6275
1670.896	6366
1673.064	6284
1675.233	6337
1677.401	6243
1679.569	6153
1681.735	6192
1683.902	6248
1686.066	6229
1688.233	6220
1690.397	6282
1692.559	6141
1694.723	6314
1696.885	6303
1699.048	6228
1701.21	6167
1703.37	6212
1705.53	6218
1707.689	6149
1709.849	6234
1712.009	6225
1714.166	6153
1716.323	6153
1718.479	6166
1720.634	6186
1722.793	6233
1724.948	6125
1727.102	6149
1729.255	6110
1731.408	6158
1733.562	6246
1735.714	6128
1737.865	6155
1740.016	6238
1742.166	6090
1744.316	6129
1746.467	6172
1748.616	6117
1750.764	6235
1752.911	6237
1755.056	6185
1757.205	6168
1759.35	6276
1761.496	6245
1763.641	6244
1765.785	6108
1767.927	6174
1770.072	6198
1772.214	6181
1774.355	6215
1776.496	6170
1778.637	6275
1780.778	6207
1782.918	6218
1785.057	6324
1787.194	6210
1789.333	6288
1791.472	6240
1793.608	6159
1795.745	6310
1797.879	6283
1800.015	6250
1802.148	6167
1804.284	6291
1806.417	6316
1808.548	6164
1810.682	6185
1812.812	6361
1814.946	6233
1817.075	6179
1819.205	6202
1821.335	6263
1823.463	6248
1825.59	6289
1827.721	6224
1829.847	6291
1831.973	6333
1834.098	6124
1836.223	6213
1838.351	6190
1840.475	6211
1842.598	6275
1844.721	6174
1846.843	6235
1848.966	6261
1851.087	6245
1853.21	6217
1855.33	6284
1857.449	6209
1859.568	6219
1861.688	6225
1863.806	6152
1865.924	6239
1868.039	6175
1870.155	6113
1872.273	6249
1874.388	6143
1876.503	6215
1878.617	6245
1880.73	6181
1882.844	6317
1884.956	6221
1887.068	6166
1889.18	6290
1891.291	6291
1893.4	6315
1895.511	6272
1897.621	6336
1899.73	6264
1901.837	6270
1903.944	6183
1906.053	6189
1908.159	6341
1910.265	6151
1912.369	6394
1914.474	6282
1916.577	6337
1918.683	6472
1920.785	6342
1922.888	6288
1924.989	6386
1927.091	6488
1929.193	6375
1931.294	6405
1933.393	6290
1935.493	6272
1937.59	6344
1939.689	6364
1941.788	6332
1943.884	6326
1945.98	6341
1948.077	6406
1950.171	6341
1952.267	6385
1954.361	6385
1956.455	6455
1958.548	6344
1960.64	6320
1962.733	6331
1964.824	6287
1966.915	6340
1969.005	6309
1971.096	6439
1973.185	6324
1975.275	6270
1977.363	6297
1979.45	6242
1981.537	6275
1983.623	6399
1985.711	6401
1987.796	6283
1989.881	6325
1991.965	6262
1994.047	6323
1996.132	6292
1998.215	6283
2000.297	6359
2002.378	6191
2004.46	6330
2006.54	6240
2008.62	6289
2010.7	6303
2012.779	6232
2014.858	6298
2016.934	6282
2019.013	6311
2021.09	6340
2023.165	6340
2025.241	6353
2027.317	6345
2029.39	6294
2031.466	6277
2033.538	6312
2035.612	6319
2037.683	6311
2039.755	6218
2041.827	6437
2043.898	6325
2045.968	6300
2048.038	6270
2050.106	6198
2052.177	6224
2054.244	6259
2056.313	6351
2058.379	6257
2060.444	6423
2062.511	6381
2064.577	6315
2066.641	6397
2068.705	6287
2070.77	6412
2072.832	6397
2074.896	6279
2076.958	6303
2079.02	6307
2081.081	6408
2083.141	6420
2085.2	6250
2087.261	6347
2089.319	6246
2091.377	6297
2093.435	6469
2095.492	6335
2097.552	6348
2099.607	6307
2101.663	6335
2103.718	6340
2105.771	6425
2107.826	6319
2109.879	6418
2111.932	6293
2113.985	6387
2116.037	6296
2118.088	6345
2120.141	6398
2122.191	6350
2124.239	6271
2126.288	6311
2128.337	6403
2130.387	6221
2132.434	6305
2134.481	6295
2136.528	6255
2138.574	6320
2140.618	6333
2142.665	6297
2144.71	6306
2146.753	6278
2148.797	6331
2150.838	6404
2152.883	6269
2154.923	6326
2156.965	6271
2159.007	6198
2161.046	6352
2163.086	6296
2165.126	6353
2167.163	6247
2169.202	6319
2171.239	6417
2173.277	6344
2175.314	6214
2177.349	6310
2179.385	6337
2181.42	6126
2183.453	6278
2185.49	6143
2187.522	6200
2189.555	6351
2191.586	6200
2193.619	6276
2195.651	6286
2197.682	6186
2199.711	6205
2201.74	6131
2203.769	6193
2205.799	6179
2207.828	6248
2209.855	6148
2211.882	6243
2213.908	6251
2215.934	6296
2217.961	6257
2219.986	6195
2222.01	6202
2224.034	6331
2226.057	6155
2228.08	6211
2230.104	6110
2232.124	6216
2234.145	6242
2236.166	6118
2238.186	6158
2240.207	6191
2242.227	6084
2244.244	6215
2246.262	6216
2248.28	6138
2250.299	6194
2252.314	6160
2254.33	6205
2256.346	6248
2258.36	6226
2260.375	6283
2262.391	6166
2264.403	6280
2266.416	6204
2268.427	6271
2270.44	6159
2272.453	6228
2274.463	6340
2276.474	6189
2278.483	6183
2280.493	6193
2282.501	6304
2284.51	6198
2286.518	6214
2288.524	6187
2290.532	6098
2292.537	6216
2294.544	6161
2296.55	6226
2298.554	6230
2300.557	6168
2302.562	6251
2304.566	6304
2306.568	6301
2308.569	6141
2310.572	6217
2312.573	6218
2314.573	6268
2316.574	6149
2318.573	6068
2320.571	6192
2322.571	6209
2324.569	6125
2326.567	6167
2328.564	6230
2330.56	6149
2332.556	6288
2334.551	6229
2336.546	6094
2338.542	6265
2340.535	6135
2342.529	6100
2344.521	6259
2346.512	6236
2348.505	6093
2350.497	6165
2352.487	6193
2354.478	6190
2356.468	6161
2358.457	6136
2360.446	6112
2362.434	6246
2364.422	6100
2366.408	6081
2368.395	6031
2370.383	6019
2372.369	6091
2374.353	6206
2376.338	6240
2378.321	6104
2380.307	6190
2382.29	5979
2384.272	6089
2386.254	6142
2388.235	6101
2390.218	6115
2392.198	6055
2394.179	6060
2396.157	5945
2398.137	6108
2400.115	6106
2402.095	6180
2404.072	6111
2406.048	6125
2408.026	6093
2410.001	6024
2411.977	6148
2413.953	5999
2415.927	6149
2417.9	6119
2419.875	6057
2421.847	6060
2423.821	6008
2425.792	6039
2427.763	6006
2429.736	6091
2431.706	6122
2433.677	6033
2435.646	6084
2437.615	6086
2439.583	6005
2441.551	6120
2443.519	6130
2445.486	6017
2447.452	6086
2449.418	6048
2451.383	6125
2453.348	6072
2455.314	6033
2457.278	6123
2459.241	6074
2461.205	6101
2463.167	6021
2465.131	5988
2467.091	6069
2469.052	6047
2471.012	6022
2472.972	6045
2474.932	5975
2476.891	6064
2478.85	6020
2480.808	5990
2482.766	6060
2484.722	5958
2486.68	6012
2488.636	5988
2490.591	5891
2492.546	6040
2494.5	5965
2496.456	6007
2498.41	5941
2500.362	6016
2502.315	5896
2504.266	6021
2506.218	5986
2508.169	6072
2510.121	6040
2512.07	5985
2514.019	5945
2515.968	6043
2517.918	5898
2519.866	5990
2521.813	5974
2523.76	5987
2525.707	5914
2527.653	6006
2529.599	6055
2531.543	6060
2533.489	6080
2535.433	5905
2537.376	5984
2539.32	5988
2541.264	5973
2543.205	5968
2545.147	6047
2547.087	5914
2549.029	5935
2550.969	5976
2552.908	5941
2554.847	5911
2556.786	5863
2558.724	5980
2560.663	6019
2562.6	6028
2564.537	5975
2566.473	5877
2568.408	6005
2570.345	5981
2572.28	6032
2574.214	5967
2576.148	5888
2578.081	6002
2580.014	5936
2581.947	5975
2583.879	5997
2585.81	6002
2587.741	6091
2589.67	6032
2591.602	5940
2593.532	6152
2595.461	5987
2597.388	6004
2599.316	6077
2601.244	6048
2603.172	5981
2605.098	5938
2607.023	5999
2608.949	5984
2610.873	6056
2612.8	6122
2614.723	6021
2616.647	6025
2618.569	6104
2620.493	6059
2622.416	6073
2624.338	5929
2626.258	6052
2628.179	6038
2630.099	5986
2632.019	6113
2633.939	5923
2635.857	5988
2637.775	5974
2639.694	6048
2641.61	6113
2643.528	5978
2645.444	5964
2647.361	5912
2649.276	6005
2651.19	6051
2653.105	6017
2655.019	6112
2656.934	6118
2658.846	5948
2660.758	6002
2662.67	5942
2664.583	5946
2666.493	5998
2668.404	6035
2670.313	6010
2672.223	6003
2674.134	6015
2676.042	6079
2677.95	5958
2679.858	5953
2681.765	5992
2683.673	5975
2685.579	5960
2687.483	5999
2689.389	6079
2691.294	5995
2693.198	5931
2695.104	5934
2697.006	5976
2698.909	5973
2700.811	5960
2702.713	6005
2704.615	5974
2706.516	5957
2708.417	5945
2710.316	5907
2712.216	5989
2714.115	5862
2716.014	5957
2717.913	5879
2719.81	5948
2721.707	5892
2723.603	6069
2725.501	5906
2727.396	5872
2729.292	5873
2731.186	5862
2733.081	5935
2734.976	5915
2736.87	5935
2738.762	5940
2740.653	5964
2742.546	5872
2744.437	5881
2746.329	5878
2748.22	5788
2750.11	5850
2751.999	5868
2753.889	5898
2755.778	5941
2757.666	5868
2759.553	5910
2761.44	5885
2763.328	5881
2765.215	5824
2767.101	5841
2768.986	5873
2770.87	5945
2772.754	5988
2774.638	5830
2776.523	5805
2778.405	5901
2780.288	5909
2782.17	5913
2784.051	5889
2785.934	5928
2787.814	5930
2789.694	5933
2791.574	5861
2793.453	5852
2795.332	5906
2797.212	5876
2799.088	5828
2800.966	5834
2802.843	5887
2804.719	5805
2806.597	5899
2808.471	5816
2810.346	5829
2812.221	5844
2814.094	5903
2815.969	5833
2817.843	5849
2819.714	5870
2821.587	5889
2823.459	5838
2825.329	5846
2827.202	5858
2829.072	5853
2830.942	5749
2832.811	5884
2834.68	5850
2836.549	5961
2838.418	5824
2840.284	5893
2842.152	5747
2844.018	5834
2845.885	5890
2847.751	5968
2849.616	5844
2851.482	5948
2853.345	6034
2855.208	6017
2857.074	5765
2858.937	5966
2860.799	5982
2862.66	5980
2864.522	5986
2866.385	6036
2868.245	6022
2870.104	6100
2871.964	6143
2873.824	6106
2875.683	6205
2877.542	6204
2879.4	6333
2881.257	6235
2883.114	6459
2884.97	6439
2886.827	6289
2888.683	6392
2890.537	6403
2892.392	6357
2894.246	6295
2896.1	6231
2897.954	6271
2899.807	6234
2901.66	6349
2903.51	6219
2905.362	6278
2907.214	6244
2909.065	6316
2910.915	6320
2912.765	6328
2914.613	6378
2916.463	6407
2918.311	6464
2920.158	6500
2922.006	6525
2923.853	6424
2925.698	6723
2927.546	6677
2929.392	6721
2931.236	6722
2933.081	6699
2934.924	6942
2936.77	6837
2938.613	6817
2940.455	6951
2942.298	6898
2944.139	6961
2945.982	6935
2947.823	7038
2949.662	6918
2951.503	6884
2953.342	6766
2955.182	6845
2957.021	6727
2958.858	6700
2960.697	6655
2962.534	6647
2964.37	6683
2966.207	6582
2968.044	6423
2969.879	6525
2971.714	6493
2973.548	6365
2975.383	6329
2977.218	6343
2979.051	6316
2980.883	6250
2982.715	6316
2984.547	6352
2986.379	6304
2988.21	6204
2990.04	6241
2991.87	6149
2993.7	6166
2995.53	6088
2997.359	6114
2999.187	5985
3001.015	6067
3002.842	5912
3004.669	5992
3006.497	5895
3008.323	5889
3010.148	5829
3011.974	5930
3013.797	5839
3015.623	5833
3017.447	5741
3019.27	5692
3021.094	5740
3022.915	5720
3024.737	5745
3026.56	5685
3028.38	5698
3030.201	5618
3032.022	5606
3033.84	5683
3035.662	5838
3037.481	5556
3039.298	5669
3041.117	5660
3042.933	5691
3044.752	5583
3046.568	5573
3048.385	5609
3050.2	5602
3052.016	5564
3053.83	5583
3055.646	5595
3057.46	5637
3059.272	5624
3061.086	5570
3062.898	5685
3064.711	5561
3066.524	5504
3068.335	5611
3070.145	5663
3071.956	5543
3073.766	5574
3075.576	5576
3077.385	5551
3079.193	5517
3081.002	5599
3082.81	5539
3084.618	5505
3086.425	5552
3088.231	5594
3090.036	5349
3091.842	5539
3093.648	5477
3095.452	5474
3097.257	5408
3099.06	5507
3100.863	5419
3102.666	5429
3104.47	5368
3106.272	5416
3108.073	5534
3109.875	5542
3111.676	5432
3113.477	5366
3115.277	5394
3117.077	5385
3118.874	5373
3120.673	5488
3122.473	5404
3124.271	5436
3126.066	5397
3127.863	5433
3129.66	5366
3131.456	5358
3133.252	5367
3135.047	5324
3136.842	5265
3138.635	5367
3140.429	5512
3142.223	5319
3144.016	5361
3145.808	5279
3147.6	5316
3149.392	5395
3151.183	5329
3152.975	5257
3154.765	5335
3156.553	5255
3158.344	5346
3160.132	5385
3161.922	5356
3163.71	5359
3165.497	5275
3167.285	5250
3169.071	5321
3170.858	5237
3172.645	5300
3174.429	5349
3176.214	5350
3177.998	5254
3179.783	5295
3181.568	5362
3183.351	5260
3185.133	5199
3186.915	5280
3188.698	5331
3190.481	5307
3192.261	5261
3194.042	5232
3195.822	5309
3197.601	5350
3199.381	5168
3201.161	5285
3202.939	5150
3204.717	5275
3206.495	5344
3208.272	5196
3210.05	5265
3211.826	5168
3213.602	5281
3215.376	5176
3217.151	5275
3218.927	5187
3220.702	5259
3222.476	5230
3224.249	5316
3226.021	5190
3227.793	5288
3229.567	5297
3231.339	5201
3233.109	5191
3234.88	5289
3236.651	5290
3238.421	5256
3240.191	5289
3241.96	5212
3243.728	5204
3245.497	5159
3247.263	5275
3249.033	5234
3250.799	5190
3252.566	5195
3254.331	5220
3256.097	5194
3257.863	5199
3259.628	5189
3261.392	5197
3263.156	5195
3264.919	5230
3266.683	5134
3268.447	5189
3270.208	5279
3271.969	5259
3273.731	5252
3275.492	5233
3277.253	5229
3279.013	5269
3280.773	5221
3282.532	5189
3284.291	5213
3286.05	5256
3287.808	5096
3289.566	5139
3291.323	5201
3293.079	5184
3294.835	5268
3296.593	5239
3298.348	5147
3300.102	5216
3301.857	5108
3303.611	5257
3305.366	5201
3307.119	5209
3308.872	5216
3310.624	5158
3312.376	5159
3314.129	5287
3315.881	5225
3317.631	5221
3319.38	5172
3321.13	5250
3322.88	5159
3324.631	5139
3326.379	5118
3328.126	5180
3329.875	5224
3331.622	5171
3333.371	5262
3335.116	5210
3336.863	5165
3338.609	5156
3340.353	5126
3342.1	5121
3343.845	5149
3345.588	5115
3347.332	5198
3349.074	5137
3350.817	5138
3352.56	5108
3354.303	5138
3356.043	5139
3357.785	5073
3359.525	5104
3361.268	5163
3363.007	5122
3364.745	5048
3366.485	5068
3368.223	5234
3369.962	4999
3371.701	5142
3373.438	5132
3375.174	5098
3376.911	5148
3378.647	5079
3380.384	5083
3382.118	5129
3383.854	5011
3385.588	5028
3387.322	5040
3389.057	5045
3390.79	5090
3392.522	5083
3394.255	5125
3395.987	5033
3397.719	5134
3399.451	4966
3401.181	5013
3402.911	5000
3404.641	4949
3406.371	5010
3408.101	5158
3409.83	5003
3411.558	5010
3413.285	5105
3415.011	5147
3416.739	5077
3418.467	5006
3420.193	5031
3421.919	5008
3423.644	4970
3425.368	5026
3427.094	4999
3428.818	4982
3430.542	4907
3432.264	5113
3433.987	5047
3435.712	5004
3437.434	4906
3439.155	4986
3440.876	4977
3442.596	4954
3444.317	4920
3446.039	4991
3447.757	4883
3449.477	4919
3451.195	5006
3452.914	4833
3454.632	4928
3456.35	4938
3458.067	4800
3459.784	4854
3461.5	4893
3463.216	4881
3464.932	4856
3466.647	4884
3468.362	4834
3470.076	4917
3471.789	4935
3473.505	4876
3475.217	4844
3476.929	4800
3478.641	4773
3480.354	4873
3482.066	4765
3483.777	4718
3485.487	4713
3487.197	4820
3488.908	4767
3490.617	4855
3492.327	4785
3494.035	4890
3495.743	4845
3497.451	4761
3499.158	4767
3500.866	4740
3502.572	4705
3504.278	4734
3505.984	4778
3507.689	4628
3509.396	4728
3511.1	4724
3512.804	4673
3514.508	4702
3516.211	4801
3517.913	4667
3519.616	4731
3521.319	4733
3523.021	4703
3524.722	4750
3526.422	4703
3528.124	4758
3529.824	4786
3531.524	4758
3533.222	4607
3534.921	4662
3536.62	4696
3538.318	4744
3540.016	4628
3541.714	4711
3543.41	4677
3545.107	4734
3546.803	4641
3548.5	4669
3550.194	4704
3551.889	4581
3553.583	4617
3555.279	4650
3556.972	4625
3558.666	4688
3560.358	4575
3562.051	4565
3563.742	4620
3565.435	4674
3567.126	4538
3568.817	4618
3570.507	4635
3572.197	4688
3573.888	4619
3575.577	4575
3577.265	4596
3578.954	4607
3580.642	4585
3582.329	4602
3584.017	4645
3585.704	4522
3587.391	4616
3589.077	4563
3590.762	4578
3592.449	4593
3594.133	4612
3595.817	4483
3597.501	4528
3599.185	4487
3600.869	4539
3602.552	4526
3604.234	4536
3605.916	4540
3607.598	4572
3609.279	4499
3610.961	4537
3612.642	4502
3614.321	4585
3616	4434
3617.68	4488
3619.36	4485
3621.039	4519
3622.716	4454
3624.394	4466
3626.071	4362
3627.748	4478
3629.425	4454
3631.102	4332
3632.778	4432
3634.452	4463
3636.127	4411
3637.803	4376
3639.477	4399
3641.151	4357
3642.823	4365
3644.497	4360
3646.171	4378
3647.842	4440
3649.515	4325
3651.185	4360
3652.857	4358
3654.527	4418
3656.198	4398
3657.868	4293
3659.537	4427
3661.207	4323
3662.875	4347
3664.544	4341
3666.212	4281
3667.879	4293
3669.546	4299
3671.212	4221
3672.88	4354
3674.546	4340
3676.211	4298
3677.875	4330
3679.541	4288
3681.205	4311
3682.87	4332
3684.533	4270
3686.196	4270
3687.859	4253
3689.521	4351
3691.184	4257
3692.845	4329
3694.507	4292
3696.167	4346
3697.827	4268
3699.487	4235
3701.148	4231
3702.808	4312
3704.466	4239
3706.125	4268
3707.783	4243
3709.442	4247
3711.099	4240
3712.757	4278
3714.412	4274
3716.068	4250
3717.725	4186
3719.381	4219
3721.036	4258
3722.689	4191
3724.344	4310
3725.998	4284
3727.652	4250
3729.305	4224
3730.958	4287
3732.61	4243
3734.262	4208
3735.915	4221
3737.565	4194
3739.217	4237
3740.866	4244
3742.516	4178
3744.165	4183
3745.816	4195
3747.464	4255
3749.113	4195
3750.761	4157
3752.409	4175
3754.057	4079
3755.703	4181
3757.35	4129
3758.996	4157
3760.641	4121
3762.289	4231
3763.933	4220
3765.577	4217
3767.222	4197
3768.865	4133
3770.508	4124
3772.152	4160
3773.796	4122
3775.438	4137
3777.079	4171
3778.721	4146
3780.363	4140
3782.003	4064
3783.643	4148
3785.283	4068
3786.923	4146
3788.563	4061
3790.203	4047
3791.841	4068
3793.479	4062
3795.115	4040
3796.753	4060
3798.391	4098
3800.027	3990
3801.664	4105
3803.299	4076
3804.935	4068
3806.571	4101
3808.206	4101
3809.839	4025
3811.473	4062
3813.107	3976
3814.74	4071
3816.375	4084
3818.006	4074
3819.638	3946
3821.27	4005
3822.9	4014
3824.532	4068
3826.163	4065
3827.792	4016
3829.423	3897
3831.051	3948
3832.682	4040
3834.311	4017
3835.938	4022
3837.566	4023
3839.193	3986
3840.821	3978
3842.448	3957
3844.075	3950
3845.7	3909
3847.325	3966
3848.951	3970
3850.576	3939
3852.201	3951
3853.825	3998
3855.448	4087
3857.072	3931
3858.694	3943
3860.318	3987
3861.939	4096
3863.562	3923
3865.183	3978
3866.804	3971
3868.426	3921
3870.045	3953
3871.666	3938
3873.285	3939
3874.904	3953
3876.524	3894
3878.142	3958
3879.76	3937
3881.378	3994
3882.995	3981
3884.612	3990
3886.229	3840
3887.845	3921
3889.461	3944
3891.076	3871
3892.691	3864
3894.307	3914
3895.922	3951
3897.536	3885
3899.149	3894
3900.761	3926
3902.374	3927
3903.988	3953
3905.6	3894
3907.212	3820
3908.822	3814
3910.433	3866
3912.045	3895
3913.655	3888
3915.265	3894
3916.875	3889
3918.483	3943
3920.093	3786
3921.702	3939
3923.309	3849
3924.917	3836
3926.523	3894
3928.13	3957
3929.739	3892
3931.344	3873
3932.95	3846
3934.555	3888
3936.159	3788
3937.766	3837
3939.369	3783
3940.974	3806
3942.577	3867
3944.181	3884
3945.783	3857
3947.386	3828
3948.989	3736
3950.59	3813
3952.191	3881
3953.791	3854
3955.394	3786
3956.994	3763
3958.593	3806
3960.192	3862
3961.791	3696
3963.392	3757
3964.99	3821
3966.588	3779
3968.185	3837
3969.782	3866
3971.379	3792
3972.976	3760
3974.572	3793
3976.168	3720
3977.763	3757
3979.358	3678
3980.954	3868
3982.548	3794
3984.142	3798
3985.736	3753
3987.329	3732
3988.922	3699
3990.516	3695
3992.108	3833
3993.698	3662
3995.29	3738
3996.881	3700
3998.473	3686
4000.064	3668
4001.653	3727
4003.242	3622
4004.832	3657
4006.422	3556
4008.01	3720
4009.598	3661
4011.186	3631
4012.773	3771
4014.36	3657
4015.947	3611
4017.534	3633
4019.119	3704
4020.705	3645
4022.291	3649
4023.876	3573
4025.461	3648
4027.044	3605
4028.627	3614
4030.211	3588
4031.795	3594
4033.378	3547
4034.96	3649
4036.542	3607
4038.124	3608
4039.704	3564
4041.286	3498
4042.867	3648
4044.447	3582
4046.026	3606
4047.606	3533
4049.187	3555
4050.765	3503
4052.343	3560
4053.92	3510
4055.498	3547
4057.076	3623
4058.654	3592
4060.23	3508
4061.806	3560
4063.381	3555
4064.957	3548
4066.533	3615
4068.107	3528
4069.682	3498
4071.256	3550
4072.829	3563
4074.404	3478
4075.977	3489
4077.549	3603
4079.121	3586
4080.693	3560
4082.265	3513
4083.836	3518
4085.407	3513
4086.977	3495
4088.547	3488
4090.117	3448
4091.687	3536
4093.256	3396
4094.825	3435
4096.392	3480
4097.96	3397
4099.528	3498
4101.097	3467
4102.663	3475
4104.229	3413
4105.795	3491
4107.361	3489
4108.928	3494
4110.493	3441
4112.058	3516
4113.621	3509
4115.186	3493
4116.75	3443
4118.313	3475
4119.876	3424
4121.438	3474
4123	3500
4124.562	3390
4126.125	3480
4127.686	3445
4129.246	3402
4130.807	3409
4132.367	3388
4133.927	3408
4135.486	3427
4137.046	3426
4138.604	3452
4140.162	3357
4141.72	3357
4143.279	3342
4144.836	3273
4146.393	3451
4147.949	3340
4149.505	3389
4151.062	3341
4152.617	3364
4154.172	3335
4155.727	3350
4157.281	3386
4158.836	3319
4160.39	3290
4161.943	3396
4163.496	3343
4165.048	3240
4166.601	3404
4168.154	3309
4169.706	3323
4171.257	3271
4172.808	3298
4174.358	3241
4175.909	3333
4177.458	3302
4179.008	3295
4180.558	3312
4182.106	3314
4183.655	3295
4185.204	3343
4186.751	3309
4188.298	3275
4189.845	3250
4191.392	3234
4192.939	3249
4194.485	3245
4196.031	3261
4197.576	3275
4199.121	3221
4200.666	3239
4202.211	3291
4203.754	3222
4205.298	3191
4206.84	3222
4208.384	3220
4209.927	3221
4211.47	3247
4213.011	3269
4214.552	3215
4216.094	3189
4217.635	3248
4219.175	3214
4220.716	3192
4222.255	3153
4223.793	3270
4225.335	3205
4226.873	3235
4228.411	3269
4229.948	3174
4231.486	3247
4233.024	3135
4234.562	3139
4236.098	3112
4237.634	3223
4239.169	3178
4240.705	3160
4242.241	3189
4243.776	3186
4245.31	3224
4246.844	3118
4248.378	3189
4249.911	3264
4251.445	3158
4252.978	3189
4254.51	3157
4256.042	3170
4257.574	3218
4259.107	3250
4260.638	3132
4262.169	3183
4263.699	3132
4265.228	3169
4266.759	3149
4268.289	3229
4269.818	3202
4271.345	3035
4272.874	3116
4274.402	3094
4275.931	3113
4277.458	3138
4278.985	3132
4280.512	3127
4282.037	3072
4283.564	3099
4285.089	3084
4286.615	3142
4288.139	3076
4289.664	3098
4291.187	3110
4292.712	3075
4294.235	3118
4295.759	3106
4297.281	3063
4298.804	3086
4300.327	3138
4301.849	3092
4303.37	3123
4304.891	3041
4306.412	3055
4307.933	3023
4309.453	3106
4310.973	3128
4312.492	3021
