398.1873	3287
400.7097	3243
403.2336	3261
405.7547	3291
408.2751	3287
410.7948	3266
413.3138	3345
415.83	3298
418.3497	3348
420.8666	3385
423.3829	3400
425.8985	3478
428.4133	3395
430.9275	3404
433.441	3453
435.9538	3417
438.4639	3439
440.9753	3455
443.4881	3489
445.9982	3517
448.5055	3590
451.0142	3473
453.5201	3438
456.0274	3525
458.5361	3455
461.04	3456
463.5453	3430
466.0478	3543
468.5517	3473
471.0549	3451
473.5574	3473
476.0572	3473
478.5584	3504
481.0568	3385
483.5545	3579
486.0557	3533
488.5521	3553
491.0478	3487
493.5449	3454
496.0392	3574
498.5349	3513
501.0299	3557
503.5222	3593
506.0139	3586
508.5048	3529
510.9991	3576
513.4887	3532
515.9777	3536
518.4659	3545
520.9534	3559
523.4403	3586
525.9306	3564
528.4161	3563
530.9009	3652
533.3851	3627
535.8687	3566
538.3535	3593
540.8356	3610
543.3171	3590
545.7979	3627
548.278	3627
550.7595	3580
553.2383	3617
555.7144	3604
558.1918	3598
560.6685	3669
563.1446	3597
565.6221	3662
568.0968	3655
570.5688	3630
573.0422	3730
575.515	3699
577.989	3620
580.4584	3739
582.9291	3730
585.3991	3719
587.8685	3743
590.3352	3784
592.8052	3752
595.2706	3749
597.7372	3738
600.2033	3683
602.6666	3726
605.1334	3685
607.5953	3682
610.0587	3774
612.5193	3660
614.9814	3681
617.4427	3683
619.9034	3742
622.3615	3699
624.8208	3634
627.2775	3615
629.7335	3684
632.1929	3712
634.6476	3692
637.1016	3720
639.5569	3746
642.0096	3740
644.4637	3716
646.9151	3750
649.3678	3685
651.8179	3742
654.2672	3686
656.7159	3731
659.166	3748
661.6154	3758
664.0622	3800
666.5082	3738
668.9537	3772
671.4005	3766
673.8445	3812
676.288	3792
678.7308	3702
681.1729	3834
683.6163	3800
686.0572	3777
688.4973	3863
690.9368	3817
693.3757	3854
695.8138	3793
698.2534	3832
700.6902	3866
703.1245	3820
705.56	3850
707.9949	3921
710.4311	3929
712.8647	3878
715.2957	3859
717.7279	3889
720.1595	3887
722.5905	3913
725.0208	3941
727.4505	3932
729.8795	3930
732.3058	3897
734.7336	3915
737.1626	3994
739.587	3952
742.0128	4005
744.4359	4038
746.8604	3983
749.2841	4069
751.7073	4045
754.1278	3958
756.5496	4081
758.9688	4026
761.3893	4047
763.8093	4044
766.2285	4146
768.6451	4071
771.0611	4166
773.4784	4100
775.895	4046
778.3091	4032
780.7244	4081
783.1371	4020
785.5493	4126
787.9626	4124
790.3754	4048
792.7856	4115
795.1951	4106
797.6039	4141
800.0121	4097
802.4236	4148
804.8306	4024
807.2369	4097
809.6425	4118
812.0475	4101
814.4538	4197
816.8575	4087
819.2606	4168
821.663	4187
824.0648	4163
826.4659	4067
828.8683	4208
831.2682	4086
833.6674	4159
836.066	4170
838.4639	4191
840.8632	4113
843.2579	4214
845.6539	4228
848.0493	4228
850.444	4188
852.84	4302
855.2315	4186
857.6243	4240
860.0165	4241
862.4081	4245
864.797	4224
867.1892	4298
869.5789	4222
871.9659	4242
874.3542	4237
876.74	4271
879.129	4185
881.5155	4284
883.8994	4189
886.2845	4177
888.6671	4192
891.051	4192
893.4343	4174
895.8169	4250
898.197	4192
900.5783	4233
902.9571	4175
905.3372	4199
907.7167	4224
910.0936	4229
912.4698	4344
914.8474	4304
917.2244	4306
919.5987	4427
921.9744	4425
924.3475	4439
926.72	4372
929.0918	4412
931.4669	4417
933.8375	4505
936.2074	4397
938.5767	4482
940.9454	4576
943.3154	4482
945.6829	4511
948.0497	4705
950.4178	4769
952.7833	4942
955.1483	5057
957.5145	5117
959.8782	5168
962.2412	5199
964.6036	5144
966.9655	4933
969.3266	4718
971.6871	4725
974.0471	4588
976.4064	4402
978.765	4450
981.125	4426
983.4824	4434
985.8373	4339
988.1935	4338
990.549	4348
992.9039	4403
995.2602	4334
997.6119	4362
999.965	4416
1002.317	4445
1004.667	4241
1007.02	4392
1009.371	4343
1011.719	4372
1014.068	4423
1016.415	4440
1018.765	4392
1021.111	4471
1023.458	4484
1025.804	4370
1028.147	4341
1030.49	4468
1032.837	4443
1035.179	4443
1037.522	4361
1039.862	4427
1042.204	4540
1044.546	4395
1046.884	4392
1049.224	4446
1051.562	4507
1053.899	4447
1056.237	4489
1058.575	4541
1060.91	4571
1063.244	4506
1065.58	4541
1067.913	4550
1070.248	4542
1072.579	4493
1074.911	4438
1077.242	4578
1079.572	4503
1081.905	4558
1084.234	4460
1086.562	4519
1088.89	4442
1091.217	4439
1093.544	4502
1095.871	4482
1098.197	4508
1100.521	4510
1102.845	4418
1105.169	4504
1107.491	4493
1109.814	4384
1112.135	4504
1114.456	4402
1116.776	4557
1119.096	4443
1121.415	4536
1123.734	4541
1126.052	4581
1128.369	4521
1130.686	4476
1133.002	4625
1135.318	4498
1137.632	4457
1139.945	4500
1142.258	4505
1144.573	4480
1146.884	4543
1149.196	4478
1151.505	4493
1153.816	4558
1156.124	4471
1158.435	4499
1160.742	4593
1163.051	4544
1165.356	4604
1167.663	4433
1169.97	4520
1172.276	4486
1174.579	4424
1176.881	4440
1179.186	4455
1181.487	4553
1183.79	4527
1186.092	4559
1188.392	4483
1190.691	4518
1192.991	4522
1195.291	4474
1197.588	4526
1199.885	4420
1202.181	4529
1204.479	4515
1206.775	4448
1209.07	4540
1211.363	4510
1213.656	4462
1215.949	4459
1218.241	4528
1220.534	4487
1222.825	4580
1225.115	4593
1227.405	4532
1229.693	4632
1231.984	4622
1234.271	4627
1236.558	4602
1238.845	4688
1241.131	4770
1243.416	4677
1245.703	4658
1247.987	4628
1250.269	4732
1252.552	4674
1254.834	4700
1257.118	4726
1259.399	4738
1261.678	4683
1263.958	4774
1266.237	4650
1268.516	4646
1270.794	4736
1273.072	4723
1275.347	4690
1277.624	4683
1279.899	4759
1282.175	4636
1284.449	4692
1286.722	4703
1288.995	4611
1291.266	4696
1293.54	4622
1295.81	4646
1298.081	4680
1300.35	4646
1302.62	4682
1304.889	4581
1307.156	4606
1309.425	4581
1311.69	4652
1313.957	4731
1316.222	4676
1318.488	4684
1320.751	4619
1323.016	4623
1325.278	4731
1327.54	4735
1329.803	4661
1332.065	4652
1334.325	4565
1336.584	4759
1338.843	4692
1341.101	4721
1343.36	4730
1345.617	4604
1347.876	4642
1350.131	4675
1352.387	4625
1354.643	4644
1356.897	4707
1359.151	4659
1361.403	4632
1363.656	4750
1365.909	4672
1368.16	4629
1370.409	4673
1372.659	4754
1374.909	4682
1377.157	4723
1379.407	4762
1381.655	4675
1383.9	4670
1386.147	4785
1388.393	4832
1390.64	4716
1392.885	4864
1395.127	4760
1397.37	4746
1399.614	4847
1401.854	4788
1404.098	4864
1406.339	4802
1408.578	4804
1410.818	4797
1413.056	4830
1415.297	4826
1417.533	4811
1419.771	4833
1422.006	4811
1424.243	4794
1426.479	4882
1428.715	4773
1430.948	4873
1433.182	4809
1435.414	4836
1437.647	4825
1439.88	4841
1442.11	4806
1444.342	4922
1446.571	4938
1448.799	4858
1451.029	4936
1453.258	4942
1455.485	5019
1457.711	4848
1459.937	4911
1462.164	4939
1464.39	4865
1466.614	4943
1468.838	4827
1471.06	4843
1473.283	4814
1475.506	4835
1477.727	4698
1479.949	4796
1482.169	4733
1484.389	4764
1486.609	4704
1488.828	4679
1491.045	4715
1493.261	4763
1495.477	4734
1497.693	4710
1499.91	4749
1502.125	4789
1504.339	4701
1506.553	4723
1508.766	4759
1510.979	4742
1513.191	4608
1515.402	4742
1517.613	4755
1519.823	4676
1522.033	4746
1524.242	4779
1526.451	4774
1528.657	4658
1530.865	4707
1533.072	4839
1535.278	4734
1537.484	4936
1539.687	4768
1541.892	4739
1544.096	4781
1546.299	4815
1548.502	4805
1550.703	4755
1552.905	4812
1555.104	4723
1557.303	4842
1559.505	4814
1561.703	4853
1563.902	4842
1566.099	4762
1568.295	4842
1570.494	4933
1572.689	4829
1574.883	4932
1577.079	4745
1579.272	4790
1581.467	4800
1583.659	4927
1585.853	4851
1588.044	4951
1590.234	4861
1592.424	4946
1594.615	4915
1596.806	4922
1598.994	4975
1601.182	4901
1603.369	4964
1605.557	4931
1607.744	4881
1609.929	4847
1612.114	4969
1614.298	4888
1616.482	4955
1618.667	4964
1620.85	4927
1623.032	4884
1625.214	4991
1627.395	4918
1629.575	5025
1631.755	5038
1633.935	5030
1636.114	4931
1638.292	4900
1640.471	4907
1642.647	5039
1644.823	5032
1647	5087
1649.175	5061
1651.348	4976
1653.525	5009
1655.698	4911
1657.87	4908
1660.043	5042
1662.213	5060
1664.387	4953
1666.558	5144
1668.727	4954
1670.896	5020
1673.064	5018
1675.233	5013
1677.401	4993
1679.569	4961
1681.735	5078
1683.902	4988
1686.066	4906
1688.233	5086
1690.397	5048
1692.559	5015
1694.723	5016
1696.885	4971
1699.048	4970
1701.21	4920
1703.37	4951
1705.53	4906
1707.689	4941
1709.849	4892
1712.009	4975
1714.166	4888
1716.323	4963
1718.479	4925
1720.634	4902
1722.793	4944
1724.948	4957
1727.102	4912
1729.255	4905
1731.408	4918
1733.562	4927
1735.714	4957
1737.865	4994
1740.016	4947
1742.166	4878
1744.316	4936
1746.467	4936
1748.616	4878
1750.764	5017
1752.911	5046
1755.056	5037
1757.205	4974
1759.35	4842
1761.496	5037
1763.641	5031
1765.785	4957
1767.927	4968
1770.072	5017
1772.214	4939
1774.355	4977
1776.496	4961
1778.637	4962
1780.778	5033
1782.918	4988
1785.057	4984
1787.194	4993
1789.333	5006
1791.472	5066
1793.608	5009
1795.745	5004
1797.879	5035
1800.015	5006
1802.148	5021
1804.284	5059
1806.417	5046
1808.548	4976
1810.682	4948
1812.812	5066
1814.946	5000
1817.075	4892
1819.205	4934
1821.335	4997
1823.463	5090
1825.59	5071
1827.721	4959
1829.847	4897
1831.973	4976
1834.098	4996
1836.223	5058
1838.351	5017
1840.475	4947
1842.598	4924
1844.721	4982
1846.843	4990
1848.966	4924
1851.087	4942
1853.21	4944
1855.33	5000
1857.449	4974
1859.568	4904
1861.688	4961
1863.806	5012
1865.924	5015
1868.039	5056
1870.155	4883
1872.273	4988
1874.388	5051
1876.503	4991
1878.617	4963
1880.73	4991
1882.844	4939
1884.956	4991
1887.068	5049
1889.18	5007
1891.291	5031
1893.4	5087
1895.511	5046
1897.621	5009
1899.73	5010
1901.837	4936
1903.944	5026
1906.053	5013
1908.159	5055
1910.265	5008
1912.369	4989
1914.474	5008
1916.577	5068
1918.683	5031
1920.785	5062
1922.888	5012
1924.989	5096
1927.091	5030
1929.193	5038
1931.294	5071
1933.393	5145
1935.493	5158
1937.59	5119
1939.689	5007
1941.788	5183
1943.884	5091
1945.98	5015
1948.077	5187
1950.171	5022
1952.267	5055
1954.361	5137
1956.455	5035
1958.548	5106
1960.64	5110
1962.733	5100
1964.824	5053
1966.915	5073
1969.005	5096
1971.096	5027
1973.185	5140
1975.275	5122
1977.363	5047
1979.45	5091
1981.537	4992
1983.623	5080
1985.711	5091
1987.796	5173
1989.881	5038
1991.965	5092
1994.047	5079
1996.132	5075
1998.215	5097
2000.297	5111
2002.378	5100
2004.46	4990
2006.54	4988
2008.62	5015
2010.7	5038
2012.779	5052
2014.858	5082
2016.934	5089
2019.013	5030
2021.09	5014
2023.165	5092
2025.241	5134
2027.317	5100
2029.39	4934
2031.466	5072
2033.538	5039
2035.612	4991
2037.683	5092
2039.755	5039
2041.827	5040
2043.898	4977
2045.968	5117
2048.038	5167
2050.106	5054
2052.177	5090
2054.244	5084
2056.313	5088
2058.379	5114
2060.444	5043
2062.511	5084
2064.577	5005
2066.641	5193
2068.705	5042
2070.77	5159
2072.832	5099
2074.896	4981
2076.958	5083
2079.02	5092
2081.081	5134
2083.141	5060
2085.2	5135
2087.261	5067
2089.319	5160
2091.377	5165
2093.435	5101
2095.492	5009
2097.552	5002
2099.607	5126
2101.663	5025
2103.718	5138
2105.771	5056
2107.826	5076
2109.879	5034
2111.932	5182
2113.985	5112
2116.037	5031
2118.088	5066
2120.141	5132
2122.191	5142
2124.239	5065
2126.288	5108
2128.337	4984
2130.387	5021
2132.434	5045
2134.481	5066
2136.528	5023
2138.574	5094
2140.618	5053
2142.665	5122
2144.71	5094
2146.753	5035
2148.797	5088
2150.838	5207
2152.883	5115
2154.923	5115
2156.965	5130
2159.007	5044
2161.046	5173
2163.086	5100
2165.126	4953
2167.163	5123
2169.202	5061
2171.239	5048
2173.277	5017
2175.314	5074
2177.349	5067
2179.385	4978
2181.42	5043
2183.453	5179
2185.49	5050
2187.522	5049
2189.555	5011
2191.586	4963
2193.619	5051
2195.651	5068
2197.682	4908
2199.711	4975
2201.74	5088
2203.769	4989
2205.799	4905
2207.828	4997
2209.855	5023
2211.882	5009
2213.908	5019
2215.934	4983
2217.961	4940
2219.986	4961
2222.01	4996
2224.034	4995
2226.057	4987
2228.08	4978
2230.104	4880
2232.124	5027
2234.145	4989
2236.166	4952
2238.186	4908
2240.207	4925
2242.227	5136
2244.244	5045
2246.262	4992
2248.28	4865
2250.299	4969
2252.314	5056
2254.33	5053
2256.346	5045
2258.36	5052
2260.375	4908
2262.391	4928
2264.403	5058
2266.416	5088
2268.427	5025
2270.44	5027
2272.453	5025
2274.463	5016
2276.474	5009
2278.483	4967
2280.493	5020
2282.501	5096
2284.51	4989
2286.518	4942
2288.524	5031
2290.532	5013
2292.537	5074
2294.544	4982
2296.55	5023
2298.554	4991
2300.557	5033
2302.562	4959
2304.566	4952
2306.568	4934
2308.569	4984
2310.572	4967
2312.573	4986
2314.573	4987
2316.574	4929
2318.573	5014
2320.571	4987
2322.571	4913
2324.569	4963
2326.567	4982
2328.564	4946
2330.56	4955
2332.556	4959
2334.551	4970
2336.546	5006
2338.542	4902
2340.535	5002
2342.529	4961
2344.521	4943
2346.512	4979
2348.505	5033
2350.497	4879
2352.487	5019
2354.478	5004
2356.468	4910
2358.457	4891
2360.446	4989
2362.434	4974
2364.422	5007
2366.408	4890
2368.395	4990
2370.383	4957
2372.369	4909
2374.353	4959
2376.338	4901
2378.321	4957
2380.307	4909
2382.29	4975
2384.272	4942
2386.254	4892
2388.235	4910
2390.218	4907
2392.198	4945
2394.179	4838
2396.157	4911
2398.137	4929
2400.115	4839
2402.095	4867
2404.072	4885
2406.048	4880
2408.026	4867
2410.001	4961
2411.977	4843
2413.953	4919
2415.927	4851
2417.9	4842
2419.875	4896
2421.847	4966
2423.821	4874
2425.792	4935
2427.763	4967
2429.736	4848
2431.706	4894
2433.677	4838
2435.646	5018
2437.615	5024
2439.583	4766
2441.551	4841
2443.519	4967
2445.486	4898
2447.452	4965
2449.418	4985
2451.383	4917
2453.348	4850
2455.314	4878
2457.278	4818
2459.241	4870
2461.205	4898
2463.167	4811
2465.131	4853
2467.091	4849
2469.052	4786
2471.012	4805
2472.972	4918
2474.932	4892
2476.891	4942
2478.85	4838
2480.808	4811
2482.766	4876
2484.722	4868
2486.68	4873
2488.636	4837
2490.591	4710
2492.546	4890
2494.5	4890
2496.456	4855
2498.41	4768
2500.362	4788
2502.315	4802
2504.266	4876
2506.218	4945
2508.169	4824
2510.121	4772
2512.07	4762
2514.019	4778
2515.968	4809
2517.918	4901
2519.866	4828
2521.813	4834
2523.76	4838
2525.707	4902
2527.653	4746
2529.599	4769
2531.543	4777
2533.489	4810
2535.433	4762
2537.376	4886
2539.32	4766
2541.264	4787
2543.205	4867
2545.147	4826
2547.087	4835
2549.029	4832
2550.969	4813
2552.908	4912
2554.847	4930
2556.786	4792
2558.724	4826
2560.663	4792
2562.6	4949
2564.537	4851
2566.473	4798
2568.408	4765
2570.345	4786
2572.28	4804
2574.214	4821
2576.148	4845
2578.081	4917
2580.014	4792
2581.947	4854
2583.879	4880
2585.81	4821
2587.741	4853
2589.67	4924
2591.602	4838
2593.532	4832
2595.461	4913
2597.388	4880
2599.316	4804
2601.244	4850
2603.172	4876
2605.098	4801
2607.023	4824
2608.949	4852
2610.873	4893
2612.8	4905
2614.723	4865
2616.647	4897
2618.569	4879
2620.493	4849
2622.416	4802
2624.338	4797
2626.258	4868
2628.179	4934
2630.099	4837
2632.019	4901
2633.939	4874
2635.857	4846
2637.775	4948
2639.694	4861
2641.61	4884
2643.528	4721
2645.444	4835
2647.361	4927
2649.276	4745
2651.19	4873
2653.105	4785
2655.019	4808
2656.934	4884
2658.846	4876
2660.758	4785
2662.67	4849
2664.583	4858
2666.493	4851
2668.404	4802
2670.313	4739
2672.223	4819
2674.134	4748
2676.042	4895
2677.95	4867
2679.858	4882
2681.765	4856
2683.673	4926
2685.579	4839
2687.483	4814
2689.389	4853
2691.294	4795
2693.198	4883
2695.104	4833
2697.006	4837
2698.909	4758
2700.811	4775
2702.713	4742
2704.615	4728
2706.516	4754
2708.417	4845
2710.316	4876
2712.216	4781
2714.115	4830
2716.014	4841
2717.913	4837
2719.81	4788
2721.707	4746
2723.603	4875
2725.501	4848
2727.396	4807
2729.292	4782
2731.186	4866
2733.081	4867
2734.976	4793
2736.87	4786
2738.762	4727
2740.653	4791
2742.546	4819
2744.437	4719
2746.329	4738
2748.22	4765
2750.11	4830
2751.999	4776
2753.889	4803
2755.778	4741
2757.666	4744
2759.553	4765
2761.44	4748
2763.328	4742
2765.215	4764
2767.101	4802
2768.986	4843
2770.87	4797
2772.754	4756
2774.638	4802
2776.523	4815
2778.405	4694
2780.288	4776
2782.17	4831
2784.051	4720
2785.934	4729
2787.814	4795
2789.694	4768
2791.574	4740
2793.453	4814
2795.332	4711
2797.212	4778
2799.088	4843
2800.966	4650
2802.843	4783
2804.719	4714
2806.597	4829
2808.471	4691
2810.346	4709
2812.221	4724
2814.094	4798
2815.969	4658
2817.843	4798
2819.714	4805
2821.587	4686
2823.459	4783
2825.329	4654
2827.202	4724
2829.072	4724
2830.942	4789
2832.811	4728
2834.68	4757
2836.549	4742
2838.418	4813
2840.284	4774
2842.152	4754
2844.018	4712
2845.885	4688
2847.751	4762
2849.616	4749
2851.482	4753
2853.345	4743
2855.208	4787
2857.074	4851
2858.937	4877
2860.799	4911
2862.66	4859
2864.522	4972
2866.385	4860
2868.245	4895
2870.104	5033
2871.964	4873
2873.824	5042
2875.683	4962
2877.542	5037
2879.4	5033
2881.257	5105
2883.114	5159
2884.97	5105
2886.827	5036
2888.683	5163
2890.537	5060
2892.392	5190
2894.246	5076
2896.1	5101
2897.954	5134
2899.807	5084
2901.66	5144
2903.51	4963
2905.362	5167
2907.214	5083
2909.065	5049
2910.915	5137
2912.765	5214
2914.613	5171
2916.463	5224
2918.311	5217
2920.158	5236
2922.006	5272
2923.853	5290
2925.698	5331
2927.546	5325
2929.392	5311
2931.236	5462
2933.081	5449
2934.924	5506
2936.77	5490
2938.613	5482
2940.455	5663
2942.298	5508
2944.139	5483
2945.982	5555
2947.823	5572
2949.662	5558
2951.503	5574
2953.342	5473
2955.182	5423
2957.021	5324
2958.858	5507
2960.697	5385
2962.534	5435
2964.37	5432
2966.207	5342
2968.044	5220
2969.879	5222
2971.714	5180
2973.548	5280
2975.383	5151
2977.218	5101
2979.051	5141
2980.883	5116
2982.715	5067
2984.547	5107
2986.379	5034
2988.21	5102
2990.04	4953
2991.87	4878
2993.7	5025
2995.53	4912
2997.359	4882
2999.187	4840
3001.015	4925
3002.842	4812
3004.669	4809
3006.497	4823
3008.323	4763
3010.148	4750
3011.974	4836
3013.797	4668
3015.623	4672
3017.447	4692
3019.27	4689
3021.094	4648
3022.915	4622
3024.737	4691
3026.56	4615
3028.38	4547
3030.201	4624
3032.022	4584
3033.84	4678
3035.662	4543
3037.481	4572
3039.298	4564
3041.117	4606
3042.933	4587
3044.752	4611
3046.568	4519
3048.385	4481
3050.2	4635
3052.016	4604
3053.83	4560
3055.646	4650
3057.46	4605
3059.272	4554
3061.086	4477
3062.898	4450
3064.711	4550
3066.524	4504
3068.335	4530
3070.145	4595
3071.956	4470
3073.766	4548
3075.576	4492
3077.385	4454
3079.193	4558
3081.002	4526
3082.81	4452
3084.618	4470
3086.425	4452
3088.231	4501
3090.036	4432
3091.842	4420
3093.648	4460
3095.452	4501
3097.257	4422
3099.06	4481
3100.863	4401
3102.666	4456
3104.47	4490
3106.272	4459
3108.073	4505
3109.875	4390
3111.676	4356
3113.477	4437
3115.277	4359
3117.077	4514
3118.874	4384
3120.673	4401
3122.473	4371
3124.271	4347
3126.066	4465
3127.863	4277
3129.66	4402
3131.456	4319
3133.252	4377
3135.047	4459
3136.842	4343
3138.635	4317
3140.429	4317
3142.223	4381
3144.016	4407
3145.808	4306
3147.6	4372
3149.392	4410
3151.183	4371
3152.975	4274
3154.765	4258
3156.553	4330
3158.344	4328
3160.132	4263
3161.922	4422
3163.71	4286
3165.497	4271
3167.285	4402
3169.071	4305
3170.858	4330
3172.645	4398
3174.429	4311
3176.214	4371
3177.998	4302
3179.783	4331
3181.568	4254
3183.351	4196
3185.133	4270
3186.915	4331
3188.698	4363
3190.481	4297
3192.261	4324
3194.042	4271
3195.822	4258
3197.601	4378
3199.381	4207
3201.161	4240
3202.939	4363
3204.717	4337
3206.495	4317
3208.272	4272
3210.05	4268
3211.826	4256
3213.602	4256
3215.376	4171
3217.151	4274
3218.927	4296
3220.702	4285
3222.476	4279
3224.249	4278
3226.021	4277
3227.793	4239
3229.567	4271
3231.339	4325
3233.109	4253
3234.88	4261
3236.651	4356
3238.421	4336
3240.191	4286
3241.96	4190
3243.728	4270
3245.497	4268
3247.263	4384
3249.033	4322
3250.799	4283
3252.566	4263
3254.331	4293
3256.097	4277
3257.863	4287
3259.628	4149
3261.392	4285
3263.156	4236
3264.919	4307
3266.683	4245
3268.447	4293
3270.208	4253
3271.969	4257
3273.731	4297
3275.492	4211
3277.253	4233
3279.013	4219
3280.773	4292
3282.532	4319
3284.291	4281
3286.05	4301
3287.808	4237
3289.566	4264
3291.323	4233
3293.079	4249
3294.835	4278
3296.593	4224
3298.348	4211
3300.102	4252
3301.857	4160
3303.611	4197
3305.366	4276
3307.119	4212
3308.872	4151
3310.624	4331
3312.376	4296
3314.129	4263
3315.881	4285
3317.631	4319
3319.38	4214
3321.13	4318
3322.88	4225
3324.631	4217
3326.379	4326
3328.126	4257
3329.875	4292
3331.622	4272
3333.371	4355
3335.116	4243
3336.863	4183
3338.609	4251
3340.353	4220
3342.1	4224
3343.845	4284
3345.588	4283
3347.332	4126
3349.074	4294
3350.817	4167
3352.56	4237
3354.303	4130
3356.043	4241
3357.785	4219
3359.525	4186
3361.268	4181
3363.007	4230
3364.745	4212
3366.485	4220
3368.223	4251
3369.962	4116
3371.701	4215
3373.438	4140
3375.174	4137
3376.911	4141
3378.647	4142
3380.384	4181
3382.118	4121
3383.854	4193
3385.588	4162
3387.322	4114
3389.057	4174
3390.79	4123
3392.522	4184
3394.255	4141
3395.987	4167
3397.719	4118
3399.451	4119
3401.181	4141
3402.911	4076
3404.641	4176
3406.371	4184
3408.101	4160
3409.83	4073
3411.558	4070
3413.285	4139
3415.011	4093
3416.739	4201
3418.467	4113
3420.193	4050
3421.919	4079
3423.644	4100
3425.368	4089
3427.094	4037
3428.818	3999
3430.542	4130
3432.264	4051
3433.987	4037
3435.712	4117
3437.434	4051
3439.155	4008
3440.876	4083
3442.596	4033
3444.317	4087
3446.039	4059
3447.757	4066
3449.477	4117
3451.195	3979
3452.914	4018
3454.632	4053
3456.35	4028
3458.067	4027
3459.784	3992
3461.5	3997
3463.216	3949
3464.932	4059
3466.647	3914
3468.362	3913
3470.076	3951
3471.789	3906
3473.505	3907
3475.217	3961
3476.929	3991
3478.641	3942
3480.354	3898
3482.066	3971
3483.777	3873
3485.487	3928
3487.197	3976
3488.908	3842
3490.617	3965
3492.327	3948
3494.035	3901
3495.743	3913
3497.451	3939
3499.158	3915
3500.866	3916
3502.572	3904
3504.278	3901
3505.984	3996
3507.689	3809
3509.396	3962
3511.1	3885
3512.804	3875
3514.508	3882
3516.211	3895
3517.913	3872
3519.616	3903
3521.319	3837
3523.021	3904
3524.722	3898
3526.422	3728
3528.124	3831
3529.824	3910
3531.524	3848
3533.222	3842
3534.921	3803
3536.62	3878
3538.318	3892
3540.016	3837
3541.714	3854
3543.41	3772
3545.107	3791
3546.803	3745
3548.5	3831
3550.194	3735
3551.889	3804
3553.583	3849
3555.279	3825
3556.972	3785
3558.666	3821
3560.358	3750
3562.051	3723
3563.742	3858
3565.435	3861
3567.126	3778
3568.817	3833
3570.507	3754
3572.197	3788
3573.888	3777
3575.577	3807
3577.265	3714
3578.954	3771
3580.642	3785
3582.329	3708
3584.017	3655
3585.704	3804
3587.391	3680
3589.077	3739
3590.762	3737
3592.449	3716
3594.133	3727
3595.817	3704
3597.501	3725
3599.185	3647
3600.869	3759
3602.552	3755
3604.234	3684
3605.916	3703
3607.598	3689
3609.279	3618
3610.961	3687
3612.642	3702
3614.321	3614
3616	3751
3617.68	3590
3619.36	3679
3621.039	3695
3622.716	3683
3624.394	3699
3626.071	3646
3627.748	3609
3629.425	3694
3631.102	3679
3632.778	3647
3634.452	3694
3636.127	3580
3637.803	3615
3639.477	3604
3641.151	3552
3642.823	3626
3644.497	3622
3646.171	3534
3647.842	3582
3649.515	3589
3651.185	3560
3652.857	3572
3654.527	3557
3656.198	3575
3657.868	3540
3659.537	3515
3661.207	3576
3662.875	3497
3664.544	3573
3666.212	3521
3667.879	3521
3669.546	3508
3671.212	3515
3672.88	3481
3674.546	3580
3676.211	3570
3677.875	3521
3679.541	3538
3681.205	3537
3682.87	3521
3684.533	3570
3686.196	3509
3687.859	3555
3689.521	3550
3691.184	3418
3692.845	3508
3694.507	3597
3696.167	3507
3697.827	3523
3699.487	3490
3701.148	3556
3702.808	3536
3704.466	3477
3706.125	3411
3707.783	3439
3709.442	3517
3711.099	3415
3712.757	3475
3714.412	3509
3716.068	3487
3717.725	3405
3719.381	3515
3721.036	3456
3722.689	3512
3724.344	3518
3725.998	3460
3727.652	3476
3729.305	3530
3730.958	3516
3732.61	3439
3734.262	3461
3735.915	3453
3737.565	3484
3739.217	3519
3740.866	3378
3742.516	3479
3744.165	3496
3745.816	3513
3747.464	3449
3749.113	3518
3750.761	3522
3752.409	3479
3754.057	3431
3755.703	3491
3757.35	3419
3758.996	3460
3760.641	3471
3762.289	3408
3763.933	3364
3765.577	3395
3767.222	3465
3768.865	3451
3770.508	3496
3772.152	3395
3773.796	3419
3775.438	3375
3777.079	3396
3778.721	3386
3780.363	3385
3782.003	3342
3783.643	3403
3785.283	3452
3786.923	3391
3788.563	3399
3790.203	3312
3791.841	3342
3793.479	3355
3795.115	3388
3796.753	3447
3798.391	3378
3800.027	3412
3801.664	3440
3803.299	3349
3804.935	3408
3806.571	3328
3808.206	3336
3809.839	3343
3811.473	3373
3813.107	3405
3814.74	3243
3816.375	3391
3818.006	3304
3819.638	3328
3821.27	3369
3822.9	3360
3824.532	3280
3826.163	3310
3827.792	3338
3829.423	3291
3831.051	3360
3832.682	3260
3834.311	3239
3835.938	3323
3837.566	3376
3839.193	3311
3840.821	3344
3842.448	3271
3844.075	3326
3845.7	3321
3847.325	3342
3848.951	3336
3850.576	3242
3852.201	3279
3853.825	3329
3855.448	3238
3857.072	3280
3858.694	3295
3860.318	3291
3861.939	3229
3863.562	3323
3865.183	3209
3866.804	3241
3868.426	3307
3870.045	3261
3871.666	3320
3873.285	3320
3874.904	3294
3876.524	3245
3878.142	3156
3879.76	3244
3881.378	3288
3882.995	3247
3884.612	3239
3886.229	3193
3887.845	3198
3889.461	3205
3891.076	3148
3892.691	3171
3894.307	3210
3895.922	3223
3897.536	3326
3899.149	3282
3900.761	3256
3902.374	3225
3903.988	3308
3905.6	3214
3907.212	3240
3908.822	3189
3910.433	3227
3912.045	3201
3913.655	3134
3915.265	3208
3916.875	3231
3918.483	3231
3920.093	3213
3921.702	3216
3923.309	3206
3924.917	3228
3926.523	3174
3928.13	3264
3929.739	3277
3931.344	3220
3932.95	3126
3934.555	3127
3936.159	3196
3937.766	3205
3939.369	3120
3940.974	3206
3942.577	3158
3944.181	3173
3945.783	3131
3947.386	3183
3948.989	3203
3950.59	3225
3952.191	3163
3953.791	3216
3955.394	3184
3956.994	3187
3958.593	3234
3960.192	3170
3961.791	3147
3963.392	3183
3964.99	3158
3966.588	3151
3968.185	3174
3969.782	3157
3971.379	3150
3972.976	3117
3974.572	3110
3976.168	3112
3977.763	3113
3979.358	3109
3980.954	3138
3982.548	3152
3984.142	3072
3985.736	3081
3987.329	3072
3988.922	3120
3990.516	3170
3992.108	3088
3993.698	3096
3995.29	3036
3996.881	3160
3998.473	3054
4000.064	3041
4001.653	3064
4003.242	3089
4004.832	3030
4006.422	3088
4008.01	3052
4009.598	3062
4011.186	3064
4012.773	2997
4014.36	3067
4015.947	3009
4017.534	3002
4019.119	2999
4020.705	2936
4022.291	3059
4023.876	3015
4025.461	2978
4027.044	3009
4028.627	2941
4030.211	3045
4031.795	3001
4033.378	2989
4034.96	3057
4036.542	2933
4038.124	3040
4039.704	3100
4041.286	3005
4042.867	2932
4044.447	2986
4046.026	2971
4047.606	2917
4049.187	3000
4050.765	2924
4052.343	2986
4053.92	2955
4055.498	3015
4057.076	2901
4058.654	2983
4060.23	2953
4061.806	2906
4063.381	2928
4064.957	2924
4066.533	2915
4068.107	2968
4069.682	2962
4071.256	2974
4072.829	2947
4074.404	2898
4075.977	3007
4077.549	2915
4079.121	2930
4080.693	2983
4082.265	2884
4083.836	2868
4085.407	2861
4086.977	2923
4088.547	2892
4090.117	2931
4091.687	2902
4093.256	2919
4094.825	2895
4096.392	2913
4097.96	2930
4099.528	2866
4101.097	2885
4102.663	2957
4104.229	2924
4105.795	2934
4107.361	2816
4108.928	2898
4110.493	2872
4112.058	2879
4113.621	2873
4115.186	2886
4116.75	2860
4118.313	2907
4119.876	2846
4121.438	2883
4123	2810
4124.562	2946
4126.125	2876
4127.686	2904
4129.246	2876
4130.807	2792
4132.367	2870
4133.927	2895
4135.486	2865
4137.046	2809
4138.604	2820
4140.162	2824
4141.72	2824
4143.279	2842
4144.836	2844
4146.393	2957
4147.949	2817
4149.505	2805
4151.062	2827
4152.617	2814
4154.172	2837
4155.727	2804
4157.281	2824
4158.836	2767
4160.39	2810
4161.943	2812
4163.496	2769
4165.048	2846
4166.601	2765
4168.154	2752
4169.706	2818
4171.257	2726
4172.808	2815
4174.358	2664
4175.909	2810
4177.458	2768
4179.008	2768
4180.558	2744
4182.106	2741
4183.655	2817
4185.204	2743
4186.751	2759
4188.298	2697
4189.845	2639
4191.392	2705
4192.939	2764
4194.485	2779
4196.031	2681
4197.576	2749
4199.121	2738
4200.666	2742
4202.211	2716
4203.754	2774
4205.298	2789
4206.84	2738
4208.384	2753
4209.927	2718
4211.47	2709
4213.011	2734
4214.552	2739
4216.094	2719
4217.635	2729
4219.175	2723
4220.716	2768
4222.255	2717
4223.793	2735
4225.335	2689
4226.873	2721
4228.411	2707
4229.948	2706
4231.486	2647
4233.024	2690
4234.562	2733
4236.098	2635
4237.634	2684
4239.169	2656
4240.705	2665
4242.241	2704
4243.776	2630
4245.31	2670
4246.844	2678
4248.378	2656
4249.911	2658
4251.445	2668
4252.978	2665
4254.51	2625
4256.042	2686
4257.574	2692
4259.107	2621
4260.638	2649
4262.169	2687
4263.699	2691
4265.228	2708
4266.759	2653
4268.289	2585
4269.818	2653
4271.345	2653
4272.874	2643
4274.402	2653
4275.931	2628
4277.458	2644
4278.985	2622
4280.512	2563
4282.037	2618
4283.564	2573
4285.089	2599
4286.615	2635
4288.139	2638
4289.664	2647
4291.187	2608
4292.712	2579
4294.235	2615
4295.759	2599
4297.281	2590
4298.804	2559
4300.327	2683
4301.849	2579
4303.37	2510
4304.891	2609
4306.412	2643
4307.933	2638
4309.453	2640
4310.973	2557
4312.492	2561
