398.1873	5630
400.7097	5579
403.2336	5600
405.7547	5562
408.2751	5591
410.7948	5642
413.3138	5777
415.83	5772
418.3497	5782
420.8666	5733
423.3829	5924
425.8985	5828
428.4133	5892
430.9275	5968
433.441	5996
435.9538	6051
438.4639	5944
440.9753	6006
443.4881	6081
445.9982	6026
448.5055	6071
451.0142	6123
453.5201	5992
456.0274	6007
458.5361	6109
461.04	6023
463.5453	6009
466.0478	6029
468.5517	6129
471.0549	6043
473.5574	5988
476.0572	6020
478.5584	6088
481.0568	6036
483.5545	6107
486.0557	6177
488.5521	6109
491.0478	6116
493.5449	6104
496.0392	6182
498.5349	6233
501.0299	6153
503.5222	6136
506.0139	6173
508.5048	6189
510.9991	6194
513.4887	6318
515.9777	6286
518.4659	6330
520.9534	6242
523.4403	6362
525.9306	6342
528.4161	6305
530.9009	6257
533.3851	6292
535.8687	6327
538.3535	6266
540.8356	6163
543.3171	6298
545.7979	6258
548.278	6359
550.7595	6204
553.2383	6317
555.7144	6313
558.1918	6353
560.6685	6297
563.1446	6289
565.6221	6484
568.0968	6435
570.5688	6470
573.0422	6439
575.515	6449
577.989	6364
580.4584	6520
582.9291	6548
585.3991	6555
587.8685	6550
590.3352	6464
592.8052	6560
595.2706	6583
597.7372	6614
600.2033	6453
602.6666	6453
605.1334	6532
607.5953	6368
610.0587	6578
612.5193	6528
614.9814	6480
617.4427	6546
619.9034	6524
622.3615	6455
624.8208	6509
627.2775	6414
629.7335	6466
632.1929	6370
634.6476	6418
637.1016	6396
639.5569	6511
642.0096	6503
644.4637	6615
646.9151	6471
649.3678	6580
651.8179	6591
654.2672	6598
656.7159	6529
659.166	6617
661.6154	6629
664.0622	6562
666.5082	6695
668.9537	6620
671.4005	6633
673.8445	6656
676.288	6681
678.7308	6667
681.1729	6712
683.6163	6699
686.0572	6732
688.4973	6738
690.9368	6638
693.3757	6698
695.8138	6686
698.2534	6733
700.6902	6792
703.1245	6687
705.56	6735
707.9949	6790
710.4311	6864
712.8647	6817
715.2957	6802
717.7279	6995
720.1595	6811
722.5905	6826
725.0208	6968
727.4505	6889
729.8795	6920
732.3058	6940
734.7336	6939
737.1626	6988
739.587	7000
742.0128	6982
744.4359	7056
746.8604	6982
749.2841	7051
751.7073	7141
754.1278	7089
756.5496	7268
758.9688	7139
761.3893	7197
763.8093	7162
766.2285	7134
768.6451	7207
771.0611	7254
773.4784	7168
775.895	7128
778.3091	7072
780.7244	7149
783.1371	7205
785.5493	7216
787.9626	7126
790.3754	7174
792.7856	7188
795.1951	7233
797.6039	7256
800.0121	7109
802.4236	7210
804.8306	7222
807.2369	7386
809.6425	7285
812.0475	7324
814.4538	7210
816.8575	7359
819.2606	7274
821.663	7315
824.0648	7293
826.4659	7203
828.8683	7279
831.2682	7310
833.6674	7372
836.066	7346
838.4639	7246
840.8632	7280
843.2579	7287
845.6539	7422
848.0493	7458
850.444	7473
852.84	7458
855.2315	7496
857.6243	7476
860.0165	7341
862.4081	7373
864.797	7372
867.1892	7370
869.5789	7359
871.9659	7477
874.3542	7356
876.74	7363
879.129	7492
881.5155	7382
883.8994	7360
886.2845	7432
888.6671	7539
891.051	7544
893.4343	7399
895.8169	7383
898.197	7479
900.5783	7497
902.9571	7413
905.3372	7454
907.7167	7387
910.0936	7474
912.4698	7515
914.8474	7595
917.2244	7634
919.5987	7656
921.9744	7701
924.3475	7668
926.72	7683
929.0918	7847
931.4669	7771
933.8375	7790
936.2074	7738
938.5767	7894
940.9454	7843
943.3154	8018
945.6829	7961
948.0497	8082
950.4178	8502
952.7833	8510
955.1483	8746
957.5145	9101
959.8782	9202
962.2412	9026
964.6036	8850
966.9655	8632
969.3266	8374
971.6871	8261
974.0471	7932
976.4064	7872
978.765	7800
981.125	7789
983.4824	7721
985.8373	7670
988.1935	7630
990.549	7529
992.9039	7664
995.2602	7732
997.6119	7687
999.965	7664
1002.317	7704
1004.667	7684
1007.02	7644
1009.371	7755
1011.719	7686
1014.068	7655
1016.415	7710
1018.765	7591
1021.111	7685
1023.458	7740
1025.804	7767
1028.147	7732
1030.49	7823
1032.837	7760
1035.179	7817
1037.522	7873
1039.862	7782
1042.204	7726
1044.546	7813
1046.884	7816
1049.224	7809
1051.562	7844
1053.899	7789
1056.237	7920
1058.575	7793
1060.91	7908
1063.244	7907
1065.58	7907
1067.913	8010
1070.248	7932
1072.579	7937
1074.911	8070
1077.242	7933
1079.572	8003
1081.905	7943
1084.234	7907
1086.562	7851
1088.89	7790
1091.217	7917
1093.544	7868
1095.871	7852
1098.197	7777
1100.521	7888
1102.845	7824
1105.169	7853
1107.491	7790
1109.814	7833
1112.135	7919
1114.456	7995
1116.776	7873
1119.096	7910
1121.415	7913
1123.734	7833
1126.052	7875
1128.369	7953
1130.686	7883
1133.002	7918
1135.318	7871
1137.632	7843
1139.945	7931
1142.258	7963
1144.573	7900
1146.884	7804
1149.196	7819
1151.505	7977
1153.816	7900
1156.124	8025
1158.435	7836
1160.742	7929
1163.051	7939
1165.356	7880
1167.663	7884
1169.97	8079
1172.276	7981
1174.579	7885
1176.881	7763
1179.186	7971
1181.487	8030
1183.79	8071
1186.092	7872
1188.392	7829
1190.691	7876
1192.991	7851
1195.291	7798
1197.588	7816
1199.885	7965
1202.181	7856
1204.479	7915
1206.775	7993
1209.07	7945
1211.363	7885
1213.656	8000
1215.949	7891
1218.241	7912
1220.534	8086
1222.825	7885
1225.115	8059
1227.405	8069
1229.693	8092
1231.984	8006
1234.271	8016
1236.558	8087
1238.845	8066
1241.131	8195
1243.416	8209
1245.703	8133
1247.987	8234
1250.269	8152
1252.552	8227
1254.834	7967
1257.118	8288
1259.399	8187
1261.678	8267
1263.958	8164
1266.237	8076
1268.516	8292
1270.794	8267
1273.072	8300
1275.347	8060
1277.624	8106
1279.899	8239
1282.175	8059
1284.449	8144
1286.722	8150
1288.995	8054
1291.266	8172
1293.54	8183
1295.81	8099
1298.081	8180
1300.35	7998
1302.62	8097
1304.889	8052
1307.156	8186
1309.425	8018
1311.69	8132
1313.957	8102
1316.222	8080
1318.488	8026
1320.751	8154
1323.016	8211
1325.278	8069
1327.54	8054
1329.803	8174
1332.065	8118
1334.325	8142
1336.584	8003
1338.843	8170
1341.101	8062
1343.36	8165
1345.617	8133
1347.876	8167
1350.131	8104
1352.387	8211
1354.643	8105
1356.897	8254
1359.151	8183
1361.403	8137
1363.656	8235
1365.909	8266
1368.16	8219
1370.409	8170
1372.659	8233
1374.909	8199
1377.157	8202
1379.407	8214
1381.655	8223
1383.9	8174
1386.147	8097
1388.393	8361
1390.64	8331
1392.885	8320
1395.127	8231
1397.37	8338
1399.614	8413
1401.854	8368
1404.098	8321
1406.339	8326
1408.578	8265
1410.818	8243
1413.056	8287
1415.297	8331
1417.533	8449
1419.771	8338
1422.006	8351
1424.243	8388
1426.479	8227
1428.715	8373
1430.948	8411
1433.182	8417
1435.414	8372
1437.647	8504
1439.88	8431
1442.11	8417
1444.342	8448
1446.571	8548
1448.799	8547
1451.029	8466
1453.258	8463
1455.485	8564
1457.711	8510
1459.937	8471
1462.164	8538
1464.39	8551
1466.614	8414
1468.838	8379
1471.06	8432
1473.283	8447
1475.506	8379
1477.727	8381
1479.949	8261
1482.169	8247
1484.389	8198
1486.609	8313
1488.828	8373
1491.045	8241
1493.261	8203
1495.477	8340
1497.693	8324
1499.91	8321
1502.125	8161
1504.339	8205
1506.553	8108
1508.766	8265
1510.979	8142
1513.191	8215
1515.402	8225
1517.613	8257
1519.823	8271
1522.033	8221
1524.242	8206
1526.451	8172
1528.657	8299
1530.865	8225
1533.072	8148
1535.278	8179
1537.484	8299
1539.687	8262
1541.892	8176
1544.096	8381
1546.299	8375
1548.502	8311
1550.703	8302
1552.905	8373
1555.104	8344
1557.303	8274
1559.505	8461
1561.703	8212
1563.902	8322
1566.099	8316
1568.295	8344
1570.494	8469
1572.689	8458
1574.883	8438
1577.079	8340
1579.272	8473
1581.467	8432
1583.659	8447
1585.853	8476
1588.044	8522
1590.234	8492
1592.424	8535
1594.615	8491
1596.806	8435
1598.994	8512
1601.182	8690
1603.369	8539
1605.557	8527
1607.744	8542
1609.929	8486
1612.114	8695
1614.298	8585
1616.482	8398
1618.667	8516
1620.85	8456
1623.032	8414
1625.214	8376
1627.395	8568
1629.575	8525
1631.755	8598
1633.935	8439
1636.114	8565
1638.292	8677
1640.471	8534
1642.647	8536
1644.823	8660
1647	8603
1649.175	8786
1651.348	8594
1653.525	8640
1655.698	8714
1657.87	8660
1660.043	8623
1662.213	8689
1664.387	8716
1666.558	8697
1668.727	8698
1670.896	8696
1673.064	8592
1675.233	8679
1677.401	8612
1679.569	8612
1681.735	8650
1683.902	8654
1686.066	8668
1688.233	8581
1690.397	8548
1692.559	8680
1694.723	8549
1696.885	8551
1699.048	8554
1701.21	8521
1703.37	8561
1705.53	8528
1707.689	8575
1709.849	8421
1712.009	8474
1714.166	8559
1716.323	8592
1718.479	8569
1720.634	8508
1722.793	8589
1724.948	8564
1727.102	8614
1729.255	8464
1731.408	8544
1733.562	8439
1735.714	8578
1737.865	8502
1740.016	8631
1742.166	8548
1744.316	8552
1746.467	8602
1748.616	8510
1750.764	8570
1752.911	8654
1755.056	8557
1757.205	8609
1759.35	8530
1761.496	8556
1763.641	8644
1765.785	8575
1767.927	8666
1770.072	8525
1772.214	8692
1774.355	8692
1776.496	8577
1778.637	8669
1780.778	8537
1782.918	8797
1785.057	8620
1787.194	8572
1789.333	8657
1791.472	8762
1793.608	8507
1795.745	8663
1797.879	8707
1800.015	8703
1802.148	8703
1804.284	8621
1806.417	8667
1808.548	8719
1810.682	8597
1812.812	8681
1814.946	8622
1817.075	8715
1819.205	8620
1821.335	8564
1823.463	8747
1825.59	8667
1827.721	8511
1829.847	8611
1831.973	8676
1834.098	8539
1836.223	8594
1838.351	8571
1840.475	8644
1842.598	8605
1844.721	8634
1846.843	8640
1848.966	8516
1851.087	8604
1853.21	8666
1855.33	8561
1857.449	8523
1859.568	8560
1861.688	8614
1863.806	8514
1865.924	8565
1868.039	8498
1870.155	8594
1872.273	8636
1874.388	8601
1876.503	8524
1878.617	8572
1880.73	8559
1882.844	8549
1884.956	8507
1887.068	8528
1889.18	8585
1891.291	8721
1893.4	8383
1895.511	8596
1897.621	8629
1899.73	8591
1901.837	8622
1903.944	8721
1906.053	8543
1908.159	8616
1910.265	8622
1912.369	8653
1914.474	8533
1916.577	8701
1918.683	8857
1920.785	8645
1922.888	8724
1924.989	8780
1927.091	8800
1929.193	8679
1931.294	8603
1933.393	8763
1935.493	8608
1937.59	8750
1939.689	8665
1941.788	8738
1943.884	8763
1945.98	8825
1948.077	8648
1950.171	8720
1952.267	8712
1954.361	8797
1956.455	8675
1958.548	8712
1960.64	8793
1962.733	8608
1964.824	8791
1966.915	8782
1969.005	8827
1971.096	8617
1973.185	8759
1975.275	8633
1977.363	8690
1979.45	8808
1981.537	8765
1983.623	8649
1985.711	8701
1987.796	8595
1989.881	8674
1991.965	8725
1994.047	8587
1996.132	8646
1998.215	8538
2000.297	8644
2002.378	8598
2004.46	8701
2006.54	8637
2008.62	8823
2010.7	8596
2012.779	8580
2014.858	8673
2016.934	8692
2019.013	8541
2021.09	8725
2023.165	8603
2025.241	8648
2027.317	8696
2029.39	8608
2031.466	8513
2033.538	8571
2035.612	8539
2037.683	8569
2039.755	8587
2041.827	8543
2043.898	8790
2045.968	8719
2048.038	8720
2050.106	8795
2052.177	8760
2054.244	8673
2056.313	8636
2058.379	8652
2060.444	8618
2062.511	8605
2064.577	8679
2066.641	8707
2068.705	8623
2070.77	8650
2072.832	8675
2074.896	8789
2076.958	8653
2079.02	8598
2081.081	8705
2083.141	8652
2085.2	8761
2087.261	8655
2089.319	8686
2091.377	8719
2093.435	8663
2095.492	8703
2097.552	8685
2099.607	8669
2101.663	8635
2103.718	8633
2105.771	8638
2107.826	8691
2109.879	8598
2111.932	8593
2113.985	8654
2116.037	8751
2118.088	8734
2120.141	8516
2122.191	8797
2124.239	8593
2126.288	8762
2128.337	8759
2130.387	8571
2132.434	8663
2134.481	8662
2136.528	8665
2138.574	8697
2140.618	8625
2142.665	8739
2144.71	8547
2146.753	8611
2148.797	8541
2150.838	8519
2152.883	8731
2154.923	8605
2156.965	8513
2159.007	8618
2161.046	8499
2163.086	8644
2165.126	8550
2167.163	8527
2169.202	8640
2171.239	8456
2173.277	8658
2175.314	8634
2177.349	8575
2179.385	8614
2181.42	8682
2183.453	8509
2185.49	8543
2187.522	8532
2189.555	8593
2191.586	8586
2193.619	8462
2195.651	8693
2197.682	8454
2199.711	8481
2201.74	8526
2203.769	8594
2205.799	8529
2207.828	8543
2209.855	8449
2211.882	8413
2213.908	8340
2215.934	8454
2217.961	8403
2219.986	8551
2222.01	8506
2224.034	8369
2226.057	8416
2228.08	8374
2230.104	8352
2232.124	8414
2234.145	8347
2236.166	8435
2238.186	8522
2240.207	8424
2242.227	8518
2244.244	8392
2246.262	8449
2248.28	8464
2250.299	8510
2252.314	8437
2254.33	8517
2256.346	8514
2258.36	8339
2260.375	8377
2262.391	8584
2264.403	8399
2266.416	8454
2268.427	8449
2270.44	8388
2272.453	8481
2274.463	8429
2276.474	8423
2278.483	8471
2280.493	8489
2282.501	8479
2284.51	8450
2286.518	8450
2288.524	8373
2290.532	8486
2292.537	8438
2294.544	8488
2296.55	8355
2298.554	8301
2300.557	8456
2302.562	8534
2304.566	8352
2306.568	8511
2308.569	8358
2310.572	8566
2312.573	8587
2314.573	8390
2316.574	8421
2318.573	8454
2320.571	8445
2322.571	8431
2324.569	8401
2326.567	8277
2328.564	8483
2330.56	8203
2332.556	8486
2334.551	8370
2336.546	8287
2338.542	8250
2340.535	8339
2342.529	8292
2344.521	8340
2346.512	8288
2348.505	8340
2350.497	8213
2352.487	8409
2354.478	8191
2356.468	8246
2358.457	8282
2360.446	8290
2362.434	8200
2364.422	8281
2366.408	8407
2368.395	8229
2370.383	8355
2372.369	8277
2374.353	8277
2376.338	8245
2378.321	8414
2380.307	8232
2382.29	8350
2384.272	8340
2386.254	8276
2388.235	8270
2390.218	8255
2392.198	8204
2394.179	8220
2396.157	8186
2398.137	8196
2400.115	8160
2402.095	8242
2404.072	8243
2406.048	8240
2408.026	8209
2410.001	8179
2411.977	8237
2413.953	8283
2415.927	8086
2417.9	8262
2419.875	8238
2421.847	8218
2423.821	8230
2425.792	8114
2427.763	8221
2429.736	8231
2431.706	8296
2433.677	8205
2435.646	8227
2437.615	8140
2439.583	8166
2441.551	8106
2443.519	8189
2445.486	8138
2447.452	8082
2449.418	8184
2451.383	8294
2453.348	8099
2455.314	8126
2457.278	8170
2459.241	8305
2461.205	8064
2463.167	8110
2465.131	8121
2467.091	8287
2469.052	8144
2471.012	8169
2472.972	8166
2474.932	8100
2476.891	8197
2478.85	8228
2480.808	8098
2482.766	8118
2484.722	8244
2486.68	8149
2488.636	8149
2490.591	8148
2492.546	8003
2494.5	8044
2496.456	8018
2498.41	8127
2500.362	7870
2502.315	8003
2504.266	8177
2506.218	8132
2508.169	8041
2510.121	8088
2512.07	8007
2514.019	7973
2515.968	8020
2517.918	8078
2519.866	8086
2521.813	8007
2523.76	8111
2525.707	8079
2527.653	7934
2529.599	8049
2531.543	8144
2533.489	8113
2535.433	7947
2537.376	7930
2539.32	8099
2541.264	8134
2543.205	8034
2545.147	8176
2547.087	8138
2549.029	7955
2550.969	8114
2552.908	8203
2554.847	8044
2556.786	8068
2558.724	8132
2560.663	8081
2562.6	8148
2564.537	8021
2566.473	7953
2568.408	8038
2570.345	7971
2572.28	8140
2574.214	8076
2576.148	8045
2578.081	8027
2580.014	8098
2581.947	7931
2583.879	8020
2585.81	7841
2587.741	8070
2589.67	7986
2591.602	8061
2593.532	8043
2595.461	8096
2597.388	8107
2599.316	8060
2601.244	7946
2603.172	8100
2605.098	7999
2607.023	8015
2608.949	8006
2610.873	7992
2612.8	8133
2614.723	8057
2616.647	8113
2618.569	7965
2620.493	8026
2622.416	8104
2624.338	8120
2626.258	8094
2628.179	8100
2630.099	7979
2632.019	8146
2633.939	8062
2635.857	8109
2637.775	8156
2639.694	8057
2641.61	8117
2643.528	8260
2645.444	8011
2647.361	8089
2649.276	8036
2651.19	8168
2653.105	8091
2655.019	8029
2656.934	8093
2658.846	8107
2660.758	8212
2662.67	8051
2664.583	8025
2666.493	8003
2668.404	8061
2670.313	8129
2672.223	8011
2674.134	8060
2676.042	8054
2677.95	8067
2679.858	8054
2681.765	8006
2683.673	8075
2685.579	7981
2687.483	8028
2689.389	7985
2691.294	8000
2693.198	7863
2695.104	8039
2697.006	7966
2698.909	8053
2700.811	7950
2702.713	7928
2704.615	7927
2706.516	7904
2708.417	8013
2710.316	7985
2712.216	7827
2714.115	7936
2716.014	7899
2717.913	7927
2719.81	7895
2721.707	7854
2723.603	8083
2725.501	7925
2727.396	7914
2729.292	7856
2731.186	7960
2733.081	8001
2734.976	7913
2736.87	7929
2738.762	7946
2740.653	7954
2742.546	8005
2744.437	7795
2746.329	8006
2748.22	7977
2750.11	7917
2751.999	7853
2753.889	7893
2755.778	7853
2757.666	7879
2759.553	7710
2761.44	7898
2763.328	7938
2765.215	7943
2767.101	7850
2768.986	7877
2770.87	7912
2772.754	7901
2774.638	7832
2776.523	7945
2778.405	7849
2780.288	7834
2782.17	7929
2784.051	7863
2785.934	7908
2787.814	7789
2789.694	7972
2791.574	7818
2793.453	7780
2795.332	7738
2797.212	7891
2799.088	7782
2800.966	7870
2802.843	7929
2804.719	7811
2806.597	7741
2808.471	7812
2810.346	7802
2812.221	7810
2814.094	7970
2815.969	7880
2817.843	7772
2819.714	7846
2821.587	7830
2823.459	7787
2825.329	7810
2827.202	7910
2829.072	7820
2830.942	7820
2832.811	7892
2834.68	7755
2836.549	7759
2838.418	7781
2840.284	7768
2842.152	7890
2844.018	7844
2845.885	7736
2847.751	7791
2849.616	7911
2851.482	7781
2853.345	8043
2855.208	7790
2857.074	7943
2858.937	7974
2860.799	7907
2862.66	7853
2864.522	7872
2866.385	7923
2868.245	7933
2870.104	7970
2871.964	8002
2873.824	7951
2875.683	8188
2877.542	8151
2879.4	8199
2881.257	8227
2883.114	8123
2884.97	8313
2886.827	8303
2888.683	8185
2890.537	8303
2892.392	8195
2894.246	8296
2896.1	8232
2897.954	8155
2899.807	8115
2901.66	7976
2903.51	8095
2905.362	8235
2907.214	8281
2909.065	8151
2910.915	8312
2912.765	8346
2914.613	8216
2916.463	8375
2918.311	8311
2920.158	8286
2922.006	8381
2923.853	8442
2925.698	8456
2927.546	8459
2929.392	8613
2931.236	8529
2933.081	8729
2934.924	8641
2936.77	8698
2938.613	8644
2940.455	8870
2942.298	8915
2944.139	8830
2945.982	8801
2947.823	8763
2949.662	8640
2951.503	8820
2953.342	8566
2955.182	8578
2957.021	8599
2958.858	8668
2960.697	8471
2962.534	8681
2964.37	8469
2966.207	8353
2968.044	8394
2969.879	8324
2971.714	8244
2973.548	8186
2975.383	8269
2977.218	8247
2979.051	8206
2980.883	8109
2982.715	8166
2984.547	8111
2986.379	8147
2988.21	8155
2990.04	8022
2991.87	7975
2993.7	8110
2995.53	8007
2997.359	7893
2999.187	7912
3001.015	7781
3002.842	7835
3004.669	7878
3006.497	7778
3008.323	7696
3010.148	7712
3011.974	7739
3013.797	7695
3015.623	7561
3017.447	7545
3019.27	7405
3021.094	7531
3022.915	7528
3024.737	7545
3026.56	7411
3028.38	7521
3030.201	7501
3032.022	7515
3033.84	7517
3035.662	7491
3037.481	7514
3039.298	7473
3041.117	7448
3042.933	7448
3044.752	7461
3046.568	7591
3048.385	7395
3050.2	7390
3052.016	7412
3053.83	7334
3055.646	7346
3057.46	7414
3059.272	7415
3061.086	7508
3062.898	7317
3064.711	7262
3066.524	7397
3068.335	7430
3070.145	7299
3071.956	7248
3073.766	7354
3075.576	7342
3077.385	7233
3079.193	7308
3081.002	7353
3082.81	7183
3084.618	7207
3086.425	7235
3088.231	7399
3090.036	7283
3091.842	7221
3093.648	7152
3095.452	7235
3097.257	7252
3099.06	7098
3100.863	7241
3102.666	7319
3104.47	7159
3106.272	7219
3108.073	7203
3109.875	7161
3111.676	7163
3113.477	7167
3115.277	7161
3117.077	7076
3118.874	7120
3120.673	7006
3122.473	7066
3124.271	7034
3126.066	7143
3127.863	7078
3129.66	7233
3131.456	7096
3133.252	7066
3135.047	7079
3136.842	7087
3138.635	7067
3140.429	7040
3142.223	7068
3144.016	7195
3145.808	7009
3147.6	7023
3149.392	7024
3151.183	7101
3152.975	6989
3154.765	7217
3156.553	6980
3158.344	7033
3160.132	7102
3161.922	6965
3163.71	6922
3165.497	7062
3167.285	7044
3169.071	6902
3170.858	6966
3172.645	6932
3174.429	7073
3176.214	7081
3177.998	6967
3179.783	6971
3181.568	6989
3183.351	6918
3185.133	6882
3186.915	6922
3188.698	6943
3190.481	6899
3192.261	6929
3194.042	6929
3195.822	6984
3197.601	6910
3199.381	6793
3201.161	6881
3202.939	6932
3204.717	6914
3206.495	6860
3208.272	6932
3210.05	6782
3211.826	6893
3213.602	6918
3215.376	6917
3217.151	6878
3218.927	6947
3220.702	6838
3222.476	6862
3224.249	6828
3226.021	6844
3227.793	6853
3229.567	6925
3231.339	6782
3233.109	6876
3234.88	6758
3236.651	6836
3238.421	6785
3240.191	6842
3241.96	6842
3243.728	6945
3245.497	6850
3247.263	6836
3249.033	6768
3250.799	6779
3252.566	6899
3254.331	6807
3256.097	6767
3257.863	6751
3259.628	6747
3261.392	6944
3263.156	6837
3264.919	6900
3266.683	6843
3268.447	6805
3270.208	6857
3271.969	6807
3273.731	6813
3275.492	6868
3277.253	6855
3279.013	6751
3280.773	6695
3282.532	6821
3284.291	6826
3286.05	6874
3287.808	6847
3289.566	6878
3291.323	6904
3293.079	6855
3294.835	6913
3296.593	6702
3298.348	6763
3300.102	6799
3301.857	6755
3303.611	6820
3305.366	6765
3307.119	6846
3308.872	6826
3310.624	6704
3312.376	6828
3314.129	6865
3315.881	6859
3317.631	6783
3319.38	6743
3321.13	6742
3322.88	6748
3324.631	6737
3326.379	6743
3328.126	6838
3329.875	6840
3331.622	6824
3333.371	6736
3335.116	6780
3336.863	6779
3338.609	6815
3340.353	6675
3342.1	6970
3343.845	6625
3345.588	6577
3347.332	6809
3349.074	6696
3350.817	6737
3352.56	6842
3354.303	6662
3356.043	6664
3357.785	6775
3359.525	6630
3361.268	6630
3363.007	6642
3364.745	6627
3366.485	6735
3368.223	6693
3369.962	6602
3371.701	6621
3373.438	6658
3375.174	6628
3376.911	6632
3378.647	6675
3380.384	6639
3382.118	6559
3383.854	6561
3385.588	6572
3387.322	6653
3389.057	6677
3390.79	6670
3392.522	6657
3394.255	6618
3395.987	6637
3397.719	6518
3399.451	6517
3401.181	6561
3402.911	6513
3404.641	6547
3406.371	6414
3408.101	6516
3409.83	6500
3411.558	6540
3413.285	6508
3415.011	6514
3416.739	6482
3418.467	6517
3420.193	6492
3421.919	6455
3423.644	6507
3425.368	6539
3427.094	6500
3428.818	6483
3430.542	6495
3432.264	6512
3433.987	6449
3435.712	6510
3437.434	6442
3439.155	6445
3440.876	6482
3442.596	6324
3444.317	6446
3446.039	6518
3447.757	6345
3449.477	6484
3451.195	6359
3452.914	6319
3454.632	6347
3456.35	6270
3458.067	6326
3459.784	6359
3461.5	6442
3463.216	6319
3464.932	6342
3466.647	6299
3468.362	6319
3470.076	6304
3471.789	6292
3473.505	6265
3475.217	6275
3476.929	6245
3478.641	6233
3480.354	6335
3482.066	6133
3483.777	6257
3485.487	6304
3487.197	6338
3488.908	6215
3490.617	6280
3492.327	6165
3494.035	6291
3495.743	6135
3497.451	6176
3499.158	6326
3500.866	6301
3502.572	6164
3504.278	6221
3505.984	6267
3507.689	6134
3509.396	6156
3511.1	6239
3512.804	6209
3514.508	6185
3516.211	6239
3517.913	6226
3519.616	6212
3521.319	6185
3523.021	6160
3524.722	6010
3526.422	6083
3528.124	6162
3529.824	6134
3531.524	6061
3533.222	6185
3534.921	6161
3536.62	6269
3538.318	6150
3540.016	6075
3541.714	6005
3543.41	6101
3545.107	6122
3546.803	6033
3548.5	6067
3550.194	6039
3551.889	6002
3553.583	6042
3555.279	6095
3556.972	6105
3558.666	5956
3560.358	6053
3562.051	5975
3563.742	5975
3565.435	5993
3567.126	6028
3568.817	6013
3570.507	6015
3572.197	6055
3573.888	5869
3575.577	5966
3577.265	6006
3578.954	5920
3580.642	5919
3582.329	5916
3584.017	5906
3585.704	6004
3587.391	5907
3589.077	5883
3590.762	5894
3592.449	5893
3594.133	5878
3595.817	5867
3597.501	5839
3599.185	5821
3600.869	5924
3602.552	5917
3604.234	5871
3605.916	5764
3607.598	5814
3609.279	5791
3610.961	5907
3612.642	5785
3614.321	5893
3616	5699
3617.68	5673
3619.36	5851
3621.039	5822
3622.716	5758
3624.394	5732
3626.071	5796
3627.748	5693
3629.425	5728
3631.102	5696
3632.778	5699
3634.452	5717
3636.127	5682
3637.803	5645
3639.477	5852
3641.151	5714
3642.823	5728
3644.497	5680
3646.171	5667
3647.842	5615
3649.515	5625
3651.185	5633
3652.857	5660
3654.527	5521
3656.198	5678
3657.868	5692
3659.537	5680
3661.207	5629
3662.875	5610
3664.544	5735
3666.212	5616
3667.879	5679
3669.546	5606
3671.212	5551
3672.88	5548
3674.546	5525
3676.211	5627
3677.875	5554
3679.541	5623
3681.205	5569
3682.87	5553
3684.533	5590
3686.196	5578
3687.859	5708
3689.521	5609
3691.184	5660
3692.845	5545
3694.507	5599
3696.167	5642
3697.827	5530
3699.487	5491
3701.148	5535
3702.808	5633
3704.466	5558
3706.125	5470
3707.783	5514
3709.442	5488
3711.099	5555
3712.757	5423
3714.412	5503
3716.068	5547
3717.725	5554
3719.381	5524
3721.036	5445
3722.689	5517
3724.344	5553
3725.998	5432
3727.652	5575
3729.305	5639
3730.958	5424
3732.61	5471
3734.262	5530
3735.915	5448
3737.565	5376
3739.217	5508
3740.866	5335
3742.516	5438
3744.165	5330
3745.816	5430
3747.464	5488
3749.113	5493
3750.761	5315
3752.409	5287
3754.057	5474
3755.703	5307
3757.35	5378
3758.996	5303
3760.641	5377
3762.289	5386
3763.933	5359
3765.577	5418
3767.222	5432
3768.865	5384
3770.508	5278
3772.152	5345
3773.796	5439
3775.438	5250
3777.079	5364
3778.721	5461
3780.363	5323
3782.003	5342
3783.643	5374
3785.283	5312
3786.923	5243
3788.563	5356
3790.203	5214
3791.841	5345
3793.479	5333
3795.115	5302
3796.753	5356
3798.391	5248
3800.027	5259
3801.664	5369
3803.299	5251
3804.935	5259
3806.571	5256
3808.206	5232
3809.839	5329
3811.473	5343
3813.107	5334
3814.74	5232
3816.375	5107
3818.006	5166
3819.638	5214
3821.27	5268
3822.9	5143
3824.532	5249
3826.163	5217
3827.792	5316
3829.423	5117
3831.051	5227
3832.682	5173
3834.311	5178
3835.938	5212
3837.566	5195
3839.193	5179
3840.821	5191
3842.448	5166
3844.075	5129
3845.7	5146
3847.325	5123
3848.951	5156
3850.576	5168
3852.201	5159
3853.825	5131
3855.448	5103
3857.072	5173
3858.694	5182
3860.318	5115
3861.939	5081
3863.562	5080
3865.183	4998
3866.804	5056
3868.426	5071
3870.045	5104
3871.666	5056
3873.285	5095
3874.904	5112
3876.524	4965
3878.142	5081
3879.76	5041
3881.378	4997
3882.995	4959
3884.612	4992
3886.229	5063
3887.845	5097
3889.461	4941
3891.076	5066
3892.691	5056
3894.307	5059
3895.922	4990
3897.536	5006
3899.149	4959
3900.761	4988
3902.374	5050
3903.988	4977
3905.6	4996
3907.212	5048
3908.822	5056
3910.433	5039
3912.045	5010
3913.655	4989
3915.265	4976
3916.875	4972
3918.483	4948
3920.093	5068
3921.702	5028
3923.309	5017
3924.917	4990
3926.523	4940
3928.13	5016
3929.739	4900
3931.344	4964
3932.95	4840
3934.555	4938
3936.159	4975
3937.766	4973
3939.369	5004
3940.974	5028
3942.577	4927
3944.181	4981
3945.783	4864
3947.386	4982
3948.989	4963
3950.59	4845
3952.191	4926
3953.791	4818
3955.394	4945
3956.994	4914
3958.593	4784
3960.192	4890
3961.791	4929
3963.392	4963
3964.99	4803
3966.588	4951
3968.185	4960
3969.782	4905
3971.379	4866
3972.976	4902
3974.572	4900
3976.168	4702
3977.763	4865
3979.358	4892
3980.954	4827
3982.548	4866
3984.142	4737
3985.736	4837
3987.329	4772
3988.922	4717
3990.516	4779
3992.108	4764
3993.698	4792
3995.29	4787
3996.881	4833
3998.473	4756
4000.064	4739
4001.653	4747
4003.242	4736
4004.832	4616
4006.422	4654
4008.01	4676
4009.598	4726
4011.186	4697
4012.773	4715
4014.36	4796
4015.947	4724
4017.534	4687
4019.119	4682
4020.705	4662
4022.291	4677
4023.876	4584
4025.461	4565
4027.044	4687
4028.627	4652
4030.211	4633
4031.795	4519
4033.378	4700
4034.96	4544
4036.542	4619
4038.124	4628
4039.704	4586
4041.286	4542
4042.867	4639
4044.447	4497
4046.026	4630
4047.606	4595
4049.187	4633
4050.765	4574
4052.343	4490
4053.92	4571
4055.498	4483
4057.076	4504
4058.654	4600
4060.23	4560
4061.806	4558
4063.381	4573
4064.957	4554
4066.533	4523
4068.107	4534
4069.682	4514
4071.256	4600
4072.829	4439
4074.404	4512
4075.977	4522
4077.549	4550
4079.121	4542
4080.693	4450
4082.265	4526
4083.836	4558
4085.407	4478
4086.977	4489
4088.547	4420
4090.117	4507
4091.687	4475
4093.256	4448
4094.825	4548
4096.392	4453
4097.96	4467
4099.528	4429
4101.097	4503
4102.663	4520
4104.229	4369
4105.795	4464
4107.361	4436
4108.928	4474
4110.493	4332
4112.058	4448
4113.621	4386
4115.186	4340
4116.75	4512
4118.313	4479
4119.876	4471
4121.438	4366
4123	4405
4124.562	4407
4126.125	4391
4127.686	4349
4129.246	4316
4130.807	4295
4132.367	4369
4133.927	4349
4135.486	4353
4137.046	4237
4138.604	4345
4140.162	4438
4141.72	4211
4143.279	4283
4144.836	4354
4146.393	4332
4147.949	4250
4149.505	4255
4151.062	4324
4152.617	4260
4154.172	4269
4155.727	4357
4157.281	4297
4158.836	4230
4160.39	4340
4161.943	4251
4163.496	4191
4165.048	4204
4166.601	4266
4168.154	4281
4169.706	4236
4171.257	4351
4172.808	4268
4174.358	4200
4175.909	4283
4177.458	4199
4179.008	4244
4180.558	4151
4182.106	4218
4183.655	4230
4185.204	4163
4186.751	4154
4188.298	4234
4189.845	4232
4191.392	4226
4192.939	4115
4194.485	4238
4196.031	4106
4197.576	4159
4199.121	4111
4200.666	4090
4202.211	4141
4203.754	4057
4205.298	4045
4206.84	4225
4208.384	4081
4209.927	4089
4211.47	4121
4213.011	4157
4214.552	4196
4216.094	4081
4217.635	4120
4219.175	4144
4220.716	4129
4222.255	4082
4223.793	4110
4225.335	4083
4226.873	4137
4228.411	4099
4229.948	4030
4231.486	4058
4233.024	4066
4234.562	4040
4236.098	4069
4237.634	4104
4239.169	4071
4240.705	4118
4242.241	4082
4243.776	3968
4245.31	4025
4246.844	4016
4248.378	4061
4249.911	3982
4251.445	4110
4252.978	4106
4254.51	4002
4256.042	4083
4257.574	4045
4259.107	4030
4260.638	4029
4262.169	4003
4263.699	3987
4265.228	4011
4266.759	3962
4268.289	4032
4269.818	4031
4271.345	3925
4272.874	3957
4274.402	3998
4275.931	4029
4277.458	3936
4278.985	4022
4280.512	3990
4282.037	3974
4283.564	4009
4285.089	4042
4286.615	3969
4288.139	4017
4289.664	3995
4291.187	4039
4292.712	3930
4294.235	3916
4295.759	3916
4297.281	4035
4298.804	3976
4300.327	3966
4301.849	3954
4303.37	3946
4304.891	3970
4306.412	3998
4307.933	3927
4309.453	3922
4310.973	3880
4312.492	3848
