398.1873	6493
400.7097	6551
403.2336	6696
405.7547	6611
408.2751	6739
410.7948	6651
413.3138	6661
415.83	6742
418.3497	6841
420.8666	6903
423.3829	6791
425.8985	7012
428.4133	6891
430.9275	7009
433.441	6979
435.9538	7145
438.4639	7008
440.9753	7080
443.4881	7099
445.9982	7106
448.5055	7180
451.0142	7177
453.5201	7140
456.0274	7173
458.5361	7160
461.04	7027
463.5453	7124
466.0478	7119
468.5517	7174
471.0549	7003
473.5574	7156
476.0572	7152
478.5584	7146
481.0568	7302
483.5545	7121
486.0557	7201
488.5521	7362
491.0478	7121
493.5449	7238
496.0392	7289
498.5349	7198
501.0299	7289
503.5222	7373
506.0139	7372
508.5048	7402
510.9991	7384
513.4887	7541
515.9777	7427
518.4659	7303
520.9534	7372
523.4403	7317
525.9306	7348
528.4161	7385
530.9009	7473
533.3851	7459
535.8687	7464
538.3535	7378
540.8356	7394
543.3171	7356
545.7979	7623
548.278	7627
550.7595	7484
553.2383	7395
555.7144	7331
558.1918	7515
560.6685	7605
563.1446	7436
565.6221	7570
568.0968	7565
570.5688	7660
573.0422	7505
575.515	7590
577.989	7859
580.4584	7801
582.9291	7755
585.3991	7867
587.8685	7867
590.3352	7666
592.8052	7780
595.2706	7727
597.7372	7686
600.2033	7659
602.6666	7640
605.1334	7666
607.5953	7874
610.0587	7708
612.5193	7711
614.9814	7683
617.4427	7680
619.9034	7770
622.3615	7539
624.8208	7644
627.2775	7558
629.7335	7663
632.1929	7675
634.6476	7646
637.1016	7608
639.5569	7747
642.0096	7741
644.4637	7806
646.9151	7763
649.3678	7830
651.8179	7714
654.2672	7790
656.7159	7722
659.166	7838
661.6154	7907
664.0622	7840
666.5082	7815
668.9537	7913
671.4005	7771
673.8445	7825
676.288	7895
678.7308	7835
681.1729	7834
683.6163	7858
686.0572	7968
688.4973	8015
690.9368	7866
693.3757	7987
695.8138	7965
698.2534	7915
700.6902	7975
703.1245	8027
705.56	8142
707.9949	8049
710.4311	8076
712.8647	8083
715.2957	8160
717.7279	8083
720.1595	8076
722.5905	8084
725.0208	8154
727.4505	8163
729.8795	8201
732.3058	8222
734.7336	8301
737.1626	8299
739.587	8316
742.0128	8303
744.4359	8366
746.8604	8386
749.2841	8299
751.7073	8335
754.1278	8385
756.5496	8343
758.9688	8503
761.3893	8565
763.8093	8538
766.2285	8429
768.6451	8540
771.0611	8457
773.4784	8531
775.895	8421
778.3091	8524
780.7244	8490
783.1371	8503
785.5493	8509
787.9626	8561
790.3754	8568
792.7856	8671
795.1951	8407
797.6039	8515
800.0121	8513
802.4236	8512
804.8306	8595
807.2369	8654
809.6425	8568
812.0475	8595
814.4538	8703
816.8575	8456
819.2606	8649
821.663	8635
824.0648	8864
826.4659	8579
828.8683	8644
831.2682	8570
833.6674	8599
836.066	8743
838.4639	8764
840.8632	8817
843.2579	8735
845.6539	8775
848.0493	8695
850.444	8812
852.84	8697
855.2315	8716
857.6243	8673
860.0165	8860
862.4081	8828
864.797	8723
867.1892	8794
869.5789	8869
871.9659	8819
874.3542	8815
876.74	8805
879.129	8752
881.5155	8719
883.8994	8769
886.2845	8784
888.6671	8747
891.051	8829
893.4343	8721
895.8169	8705
898.197	8667
900.5783	8737
902.9571	8849
905.3372	8841
907.7167	8877
910.0936	8804
912.4698	8848
914.8474	8907
917.2244	9014
919.5987	8893
921.9744	9014
924.3475	9067
926.72	9024
929.0918	8988
931.4669	9108
933.8375	9162
936.2074	9175
938.5767	9322
940.9454	9255
943.3154	9546
945.6829	9619
948.0497	9606
950.4178	9933
952.7833	10052
955.1483	10487
957.5145	10732
959.8782	10957
962.2412	10760
964.6036	10726
966.9655	10499
969.3266	9979
971.6871	9744
974.0471	9528
976.4064	9311
978.765	9126
981.125	9274
983.4824	9092
985.8373	9091
988.1935	9079
990.549	8962
992.9039	8992
995.2602	8968
997.6119	9001
999.965	9187
1002.317	9101
1004.667	9098
1007.02	9150
1009.371	9038
1011.719	9074
1014.068	9202
1016.415	9122
1018.765	9131
1021.111	9036
1023.458	9177
1025.804	9206
1028.147	9111
1030.49	9245
1032.837	9285
1035.179	9147
1037.522	9178
1039.862	9296
1042.204	9269
1044.546	9269
1046.884	9328
1049.224	9277
1051.562	9374
1053.899	9246
1056.237	9238
1058.575	9260
1060.91	9346
1063.244	9519
1065.58	9412
1067.913	9508
1070.248	9462
1072.579	9548
1074.911	9472
1077.242	9476
1079.572	9255
1081.905	9175
1084.234	9342
1086.562	9219
1088.89	9351
1091.217	9233
1093.544	9397
1095.871	9291
1098.197	9397
1100.521	9324
1102.845	9373
1105.169	9331
1107.491	9292
1109.814	9262
1112.135	9286
1114.456	9470
1116.776	9223
1119.096	9326
1121.415	9241
1123.734	9295
1126.052	9279
1128.369	9284
1130.686	9373
1133.002	9436
1135.318	9201
1137.632	9372
1139.945	9409
1142.258	9191
1144.573	9323
1146.884	9447
1149.196	9396
1151.505	9366
1153.816	9361
1156.124	9331
1158.435	9380
1160.742	9235
1163.051	9337
1165.356	9330
1167.663	9285
1169.97	9294
1172.276	9188
1174.579	9505
1176.881	9318
1179.186	9389
1181.487	9189
1183.79	9385
1186.092	9376
1188.392	9351
1190.691	9265
1192.991	9290
1195.291	9381
1197.588	9332
1199.885	9302
1202.181	9323
1204.479	9321
1206.775	9470
1209.07	9382
1211.363	9376
1213.656	9455
1215.949	9435
1218.241	9390
1220.534	9449
1222.825	9467
1225.115	9464
1227.405	9457
1229.693	9403
1231.984	9493
1234.271	9735
1236.558	9593
1238.845	9648
1241.131	9690
1243.416	9648
1245.703	9637
1247.987	9666
1250.269	9691
1252.552	9583
1254.834	9601
1257.118	9528
1259.399	9593
1261.678	9778
1263.958	9594
1266.237	9706
1268.516	9746
1270.794	9717
1273.072	9652
1275.347	9655
1277.624	9619
1279.899	9608
1282.175	9573
1284.449	9657
1286.722	9597
1288.995	9632
1291.266	9596
1293.54	9515
1295.81	9497
1298.081	9478
1300.35	9632
1302.62	9489
1304.889	9655
1307.156	9594
1309.425	9578
1311.69	9575
1313.957	9590
1316.222	9742
1318.488	9571
1320.751	9491
1323.016	9436
1325.278	9593
1327.54	9563
1329.803	9612
1332.065	9636
1334.325	9456
1336.584	9644
1338.843	9552
1341.101	9599
1343.36	9719
1345.617	9581
1347.876	9679
1350.131	9617
1352.387	9643
1354.643	9563
1356.897	9599
1359.151	9615
1361.403	9537
1363.656	9623
1365.909	9534
1368.16	9463
1370.409	9473
1372.659	9494
1374.909	9745
1377.157	9695
1379.407	9749
1381.655	9655
1383.9	9642
1386.147	9639
1388.393	9725
1390.64	9663
1392.885	9716
1395.127	9625
1397.37	9725
1399.614	9720
1401.854	9764
1404.098	9623
1406.339	9759
1408.578	9714
1410.818	9778
1413.056	9852
1415.297	9785
1417.533	9731
1419.771	9816
1422.006	9891
1424.243	9784
1426.479	9819
1428.715	9848
1430.948	9910
1433.182	9964
1435.414	9914
1437.647	9874
1439.88	9926
1442.11	9942
1444.342	10005
1446.571	9903
1448.799	9978
1451.029	9989
1453.258	9966
1455.485	10063
1457.711	10142
1459.937	9975
1462.164	10010
1464.39	9993
1466.614	9975
1468.838	10016
1471.06	9841
1473.283	9796
1475.506	9789
1477.727	9771
1479.949	9794
1482.169	9785
1484.389	9729
1486.609	9885
1488.828	9748
1491.045	9597
1493.261	9637
1495.477	9665
1497.693	9646
1499.91	9562
1502.125	9741
1504.339	9690
1506.553	9468
1508.766	9714
1510.979	9628
1513.191	9694
1515.402	9651
1517.613	9535
1519.823	9648
1522.033	9600
1524.242	9679
1526.451	9662
1528.657	9664
1530.865	9646
1533.072	9713
1535.278	9670
1537.484	9799
1539.687	9605
1541.892	9704
1544.096	9750
1546.299	9819
1548.502	9702
1550.703	9871
1552.905	9830
1555.104	9673
1557.303	9757
1559.505	9779
1561.703	9727
1563.902	9737
1566.099	9802
1568.295	9821
1570.494	9837
1572.689	9993
1574.883	9777
1577.079	9811
1579.272	9882
1581.467	10040
1583.659	9785
1585.853	9955
1588.044	9921
1590.234	9930
1592.424	9963
1594.615	9916
1596.806	10084
1598.994	9941
1601.182	9923
1603.369	10094
1605.557	10087
1607.744	9978
1609.929	9990
1612.114	10103
1614.298	9988
1616.482	9965
1618.667	10035
1620.85	10167
1623.032	10090
1625.214	9986
1627.395	10090
1629.575	10049
1631.755	10113
1633.935	10096
1636.114	9986
1638.292	10097
1640.471	10009
1642.647	10076
1644.823	10128
1647	10081
1649.175	10092
1651.348	10081
1653.525	10146
1655.698	10170
1657.87	10229
1660.043	10087
1662.213	10201
1664.387	10134
1666.558	10290
1668.727	10079
1670.896	10226
1673.064	10194
1675.233	10346
1677.401	10078
1679.569	10184
1681.735	10211
1683.902	10121
1686.066	10137
1688.233	10130
1690.397	10125
1692.559	10200
1694.723	9938
1696.885	10185
1699.048	9960
1701.21	10005
1703.37	10075
1705.53	9916
1707.689	10073
1709.849	9868
1712.009	9983
1714.166	9917
1716.323	10008
1718.479	10122
1720.634	9967
1722.793	10031
1724.948	9982
1727.102	10049
1729.255	10047
1731.408	9924
1733.562	10136
1735.714	9931
1737.865	9990
1740.016	10011
1742.166	10018
1744.316	10104
1746.467	10038
1748.616	9917
1750.764	10094
1752.911	10103
1755.056	10000
1757.205	10066
1759.35	10002
1761.496	10076
1763.641	10136
1765.785	9990
1767.927	10114
1770.072	10126
1772.214	10083
1774.355	10168
1776.496	10127
1778.637	10174
1780.778	10095
1782.918	10161
1785.057	10106
1787.194	10021
1789.333	9996
1791.472	10093
1793.608	10168
1795.745	10118
1797.879	10159
1800.015	10220
1802.148	10239
1804.284	10129
1806.417	10040
1808.548	10112
1810.682	10207
1812.812	10255
1814.946	10105
1817.075	10057
1819.205	10121
1821.335	10086
1823.463	10198
1825.59	9973
1827.721	10216
1829.847	10087
1831.973	9968
1834.098	10121
1836.223	10012
1838.351	10183
1840.475	10010
1842.598	10087
1844.721	10068
1846.843	10093
1848.966	10052
1851.087	10034
1853.21	9957
1855.33	9956
1857.449	9977
1859.568	10065
1861.688	10041
1863.806	10030
1865.924	10067
1868.039	10020
1870.155	9993
1872.273	9966
1874.388	10107
1876.503	9914
1878.617	10260
1880.73	10108
1882.844	10008
1884.956	10051
1887.068	9931
1889.18	10093
1891.291	9993
1893.4	10056
1895.511	9981
1897.621	10071
1899.73	10044
1901.837	10137
1903.944	10120
1906.053	10233
1908.159	10160
1910.265	10228
1912.369	10099
1914.474	10095
1916.577	10052
1918.683	10036
1920.785	10221
1922.888	10112
1924.989	10185
1927.091	10325
1929.193	10267
1931.294	10200
1933.393	10268
1935.493	10221
1937.59	10217
1939.689	10197
1941.788	10304
1943.884	10170
1945.98	10220
1948.077	10229
1950.171	10065
1952.267	10110
1954.361	10294
1956.455	10188
1958.548	10264
1960.64	10082
1962.733	10186
1964.824	10169
1966.915	10226
1969.005	10064
1971.096	10221
1973.185	10173
1975.275	10100
1977.363	10096
1979.45	10239
1981.537	10193
1983.623	10191
1985.711	10107
1987.796	10160
1989.881	10040
1991.965	10167
1994.047	10155
1996.132	10132
1998.215	10077
2000.297	10097
2002.378	10100
2004.46	10060
2006.54	10163
2008.62	10054
2010.7	10100
2012.779	9985
2014.858	10080
2016.934	9980
2019.013	10141
2021.09	10125
2023.165	10076
2025.241	10106
2027.317	10179
2029.39	10139
2031.466	9999
2033.538	10123
2035.612	10220
2037.683	10316
2039.755	10095
2041.827	10249
2043.898	10053
2045.968	10170
2048.038	10037
2050.106	10109
2052.177	10112
2054.244	10083
2056.313	10087
2058.379	10065
2060.444	10244
2062.511	10087
2064.577	10169
2066.641	10179
2068.705	10105
2070.77	10082
2072.832	10011
2074.896	10232
2076.958	10106
2079.02	10245
2081.081	9963
2083.141	10081
2085.2	10139
2087.261	10215
2089.319	10177
2091.377	10162
2093.435	10353
2095.492	10099
2097.552	10143
2099.607	10096
2101.663	10050
2103.718	10066
2105.771	10038
2107.826	10151
2109.879	10133
2111.932	9977
2113.985	10020
2116.037	10125
2118.088	10028
2120.141	10115
2122.191	10076
2124.239	10049
2126.288	10146
2128.337	10129
2130.387	10021
2132.434	10104
2134.481	10081
2136.528	10077
2138.574	10061
2140.618	10098
2142.665	10177
2144.71	10053
2146.753	10130
2148.797	9859
2150.838	10151
2152.883	10148
2154.923	10032
2156.965	10014
2159.007	10059
2161.046	9992
2163.086	10008
2165.126	9984
2167.163	10067
2169.202	10139
2171.239	10016
2173.277	10007
2175.314	10000
2177.349	10017
2179.385	10110
2181.42	9903
2183.453	9920
2185.49	9980
2187.522	9986
2189.555	10042
2191.586	9973
2193.619	9935
2195.651	9968
2197.682	10009
2199.711	9852
2201.74	10034
2203.769	9986
2205.799	9855
2207.828	9731
2209.855	9782
2211.882	9802
2213.908	9810
2215.934	9903
2217.961	9710
2219.986	9703
2222.01	9763
2224.034	9940
2226.057	9882
2228.08	9880
2230.104	9694
2232.124	10083
2234.145	9710
2236.166	9694
2238.186	9787
2240.207	9889
2242.227	9930
2244.244	9887
2246.262	9894
2248.28	9747
2250.299	9623
2252.314	9728
2254.33	9720
2256.346	9789
2258.36	9757
2260.375	9940
2262.391	9805
2264.403	9798
2266.416	9841
2268.427	9782
2270.44	9888
2272.453	9775
2274.463	9861
2276.474	9909
2278.483	9649
2280.493	9761
2282.501	9852
2284.51	9964
2286.518	10001
2288.524	9806
2290.532	9833
2292.537	9776
2294.544	9750
2296.55	9849
2298.554	10030
2300.557	9919
2302.562	9775
2304.566	9846
2306.568	9819
2308.569	9854
2310.572	9883
2312.573	9714
2314.573	9754
2316.574	9665
2318.573	9654
2320.571	9771
2322.571	9754
2324.569	9737
2326.567	9873
2328.564	9663
2330.56	9768
2332.556	9740
2334.551	9677
2336.546	9684
2338.542	9750
2340.535	9640
2342.529	9730
2344.521	9918
2346.512	9607
2348.505	9574
2350.497	9786
2352.487	9648
2354.478	9671
2356.468	9626
2358.457	9738
2360.446	9738
2362.434	9626
2364.422	9746
2366.408	9639
2368.395	9591
2370.383	9692
2372.369	9484
2374.353	9729
2376.338	9521
2378.321	9580
2380.307	9665
2382.29	9439
2384.272	9570
2386.254	9553
2388.235	9558
2390.218	9512
2392.198	9550
2394.179	9533
2396.157	9586
2398.137	9543
2400.115	9556
2402.095	9650
2404.072	9508
2406.048	9499
2408.026	9519
2410.001	9500
2411.977	9515
2413.953	9480
2415.927	9424
2417.9	9563
2419.875	9530
2421.847	9632
2423.821	9545
2425.792	9498
2427.763	9538
2429.736	9562
2431.706	9543
2433.677	9625
2435.646	9390
2437.615	9481
2439.583	9527
2441.551	9525
2443.519	9594
2445.486	9419
2447.452	9461
2449.418	9516
2451.383	9449
2453.348	9546
2455.314	9537
2457.278	9439
2459.241	9564
2461.205	9503
2463.167	9411
2465.131	9473
2467.091	9489
2469.052	9338
2471.012	9388
2472.972	9225
2474.932	9329
2476.891	9441
2478.85	9390
2480.808	9601
2482.766	9393
2484.722	9294
2486.68	9300
2488.636	9309
2490.591	9378
2492.546	9322
2494.5	9381
2496.456	9295
2498.41	9376
2500.362	9226
2502.315	9274
2504.266	9509
2506.218	9341
2508.169	9231
2510.121	9305
2512.07	9316
2514.019	9199
2515.968	9387
2517.918	9311
2519.866	9188
2521.813	9310
2523.76	9344
2525.707	9334
2527.653	9272
2529.599	9264
2531.543	9283
2533.489	9330
2535.433	9382
2537.376	9357
2539.32	9335
2541.264	9320
2543.205	9264
2545.147	9182
2547.087	9323
2549.029	9295
2550.969	9273
2552.908	9371
2554.847	9363
2556.786	9348
2558.724	9248
2560.663	9270
2562.6	9316
2564.537	9278
2566.473	9273
2568.408	9418
2570.345	9287
2572.28	9364
2574.214	9274
2576.148	9176
2578.081	9392
2580.014	9218
2581.947	9298
2583.879	9196
2585.81	9358
2587.741	9337
2589.67	9205
2591.602	9230
2593.532	9290
2595.461	9201
2597.388	9320
2599.316	9453
2601.244	9305
2603.172	9412
2605.098	9360
2607.023	9362
2608.949	9231
2610.873	9259
2612.8	9377
2614.723	9310
2616.647	9383
2618.569	9355
2620.493	9324
2622.416	9161
2624.338	9284
2626.258	9286
2628.179	9406
2630.099	9417
2632.019	9320
2633.939	9485
2635.857	9271
2637.775	9291
2639.694	9191
2641.61	9420
2643.528	9403
2645.444	9281
2647.361	9281
2649.276	9334
2651.19	9321
2653.105	9258
2655.019	9275
2656.934	9340
2658.846	9188
2660.758	9387
2662.67	9300
2664.583	9248
2666.493	9263
2668.404	9211
2670.313	9241
2672.223	9257
2674.134	9174
2676.042	9293
2677.95	9172
2679.858	9335
2681.765	9266
2683.673	9198
2685.579	9331
2687.483	9069
2689.389	9256
2691.294	9118
2693.198	9216
2695.104	9190
2697.006	9265
2698.909	9116
2700.811	9303
2702.713	9217
2704.615	9323
2706.516	9047
2708.417	9223
2710.316	9171
2712.216	9121
2714.115	9182
2716.014	9191
2717.913	9125
2719.81	9128
2721.707	9007
2723.603	9211
2725.501	9129
2727.396	9062
2729.292	9121
2731.186	9030
2733.081	9080
2734.976	9072
2736.87	9109
2738.762	9068
2740.653	9014
2742.546	8957
2744.437	9106
2746.329	9000
2748.22	9180
2750.11	8952
2751.999	9247
2753.889	9098
2755.778	8967
2757.666	9022
2759.553	9252
2761.44	9064
2763.328	9073
2765.215	9100
2767.101	9094
2768.986	9176
2770.87	9055
2772.754	8992
2774.638	9060
2776.523	9193
2778.405	8927
2780.288	9048
2782.17	8999
2784.051	9072
2785.934	9165
2787.814	9061
2789.694	9003
2791.574	9012
2793.453	8834
2795.332	8923
2797.212	8978
2799.088	9073
2800.966	8967
2802.843	9061
2804.719	8930
2806.597	8906
2808.471	8912
2810.346	9074
2812.221	8986
2814.094	8864
2815.969	9077
2817.843	8938
2819.714	8954
2821.587	8964
2823.459	9054
2825.329	8908
2827.202	9021
2829.072	9003
2830.942	8854
2832.811	8969
2834.68	8806
2836.549	9073
2838.418	8951
2840.284	9020
2842.152	8967
2844.018	8884
2845.885	8959
2847.751	9056
2849.616	8993
2851.482	8959
2853.345	8904
2855.208	9023
2857.074	9062
2858.937	9014
2860.799	8959
2862.66	9105
2864.522	9033
2866.385	9084
2868.245	9176
2870.104	9228
2871.964	9188
2873.824	9136
2875.683	9345
2877.542	9412
2879.4	9483
2881.257	9354
2883.114	9476
2884.97	9435
2886.827	9510
2888.683	9356
2890.537	9430
2892.392	9532
2894.246	9441
2896.1	9477
2897.954	9318
2899.807	9310
2901.66	9280
2903.51	9443
2905.362	9405
2907.214	9346
2909.065	9371
2910.915	9407
2912.765	9309
2914.613	9453
2916.463	9563
2918.311	9756
2920.158	9617
2922.006	9713
2923.853	9756
2925.698	9968
2927.546	9864
2929.392	10010
2931.236	10062
2933.081	10038
2934.924	10046
2936.77	10082
2938.613	10005
2940.455	10206
2942.298	10202
2944.139	10343
2945.982	10362
2947.823	10123
2949.662	10130
2951.503	10273
2953.342	10014
2955.182	10076
2957.021	9858
2958.858	9984
2960.697	9831
2962.534	9911
2964.37	9798
2966.207	9705
2968.044	9598
2969.879	9573
2971.714	9419
2973.548	9424
2975.383	9545
2977.218	9440
2979.051	9616
2980.883	9421
2982.715	9494
2984.547	9293
2986.379	9521
2988.21	9491
2990.04	9401
2991.87	9213
2993.7	9217
2995.53	9216
2997.359	9097
2999.187	9175
3001.015	9106
3002.842	8962
3004.669	8985
3006.497	8930
3008.323	8784
3010.148	8811
3011.974	8730
3013.797	8771
3015.623	8736
3017.447	8732
3019.27	8690
3021.094	8818
3022.915	8542
3024.737	8615
3026.56	8497
3028.38	8594
3030.201	8469
3032.022	8568
3033.84	8471
3035.662	8521
3037.481	8647
3039.298	8510
3041.117	8599
3042.933	8586
3044.752	8430
3046.568	8505
3048.385	8461
3050.2	8514
3052.016	8556
3053.83	8446
3055.646	8520
3057.46	8508
3059.272	8480
3061.086	8398
3062.898	8358
3064.711	8488
3066.524	8427
3068.335	8315
3070.145	8409
3071.956	8355
3073.766	8396
3075.576	8428
3077.385	8263
3079.193	8405
3081.002	8268
3082.81	8262
3084.618	8397
3086.425	8298
3088.231	8247
3090.036	8223
3091.842	8259
3093.648	8301
3095.452	8193
3097.257	8187
3099.06	8203
3100.863	8236
3102.666	8215
3104.47	8204
3106.272	8232
3108.073	8272
3109.875	8108
3111.676	8176
3113.477	8172
3115.277	8119
3117.077	8143
3118.874	8021
3120.673	8166
3122.473	8189
3124.271	8015
3126.066	8180
3127.863	8064
3129.66	8077
3131.456	8095
3133.252	8011
3135.047	7969
3136.842	7977
3138.635	8053
3140.429	7922
3142.223	7914
3144.016	8078
3145.808	7910
3147.6	8042
3149.392	8004
3151.183	7991
3152.975	8049
3154.765	8112
3156.553	7790
3158.344	7948
3160.132	7925
3161.922	7879
3163.71	7960
3165.497	7925
3167.285	7973
3169.071	7955
3170.858	7911
3172.645	7807
3174.429	8002
3176.214	7996
3177.998	7830
3179.783	7948
3181.568	7979
3183.351	7795
3185.133	7940
3186.915	7769
3188.698	7882
3190.481	7868
3192.261	7869
3194.042	7894
3195.822	7906
3197.601	7906
3199.381	7936
3201.161	7884
3202.939	7833
3204.717	7759
3206.495	7948
3208.272	7905
3210.05	7825
3211.826	7898
3213.602	7788
3215.376	7820
3217.151	7939
3218.927	7806
3220.702	7812
3222.476	7913
3224.249	7762
3226.021	7796
3227.793	7687
3229.567	7961
3231.339	7770
3233.109	7667
3234.88	7762
3236.651	7644
3238.421	7810
3240.191	7748
3241.96	7824
3243.728	7842
3245.497	7818
3247.263	7741
3249.033	7707
3250.799	7665
3252.566	7831
3254.331	7780
3256.097	7670
3257.863	7872
3259.628	7749
3261.392	7733
3263.156	7674
3264.919	7726
3266.683	7915
3268.447	7847
3270.208	7836
3271.969	7737
3273.731	7638
3275.492	7709
3277.253	7839
3279.013	7727
3280.773	7820
3282.532	7838
3284.291	7713
3286.05	7760
3287.808	7826
3289.566	7801
3291.323	7744
3293.079	7805
3294.835	7671
3296.593	7753
3298.348	7695
3300.102	7837
3301.857	7771
3303.611	7801
3305.366	7650
3307.119	7651
3308.872	7771
3310.624	7770
3312.376	7758
3314.129	7704
3315.881	7824
3317.631	7749
3319.38	7772
3321.13	7730
3322.88	7665
3324.631	7705
3326.379	7714
3328.126	7797
3329.875	7806
3331.622	7779
3333.371	7577
3335.116	7604
3336.863	7650
3338.609	7741
3340.353	7654
3342.1	7760
3343.845	7554
3345.588	7623
3347.332	7740
3349.074	7609
3350.817	7598
3352.56	7675
3354.303	7531
3356.043	7693
3357.785	7613
3359.525	7603
3361.268	7574
3363.007	7579
3364.745	7588
3366.485	7549
3368.223	7581
3369.962	7517
3371.701	7577
3373.438	7615
3375.174	7512
3376.911	7653
3378.647	7646
3380.384	7567
3382.118	7414
3383.854	7511
3385.588	7447
3387.322	7498
3389.057	7534
3390.79	7510
3392.522	7448
3394.255	7445
3395.987	7494
3397.719	7488
3399.451	7472
3401.181	7536
3402.911	7525
3404.641	7377
3406.371	7417
3408.101	7465
3409.83	7421
3411.558	7482
3413.285	7512
3415.011	7411
3416.739	7530
3418.467	7491
3420.193	7351
3421.919	7420
3423.644	7501
3425.368	7286
3427.094	7440
3428.818	7404
3430.542	7281
3432.264	7348
3433.987	7375
3435.712	7347
3437.434	7317
3439.155	7398
3440.876	7448
3442.596	7180
3444.317	7312
3446.039	7426
3447.757	7309
3449.477	7348
3451.195	7339
3452.914	7264
3454.632	7281
3456.35	7311
3458.067	7311
3459.784	7110
3461.5	7257
3463.216	7207
3464.932	7153
3466.647	7240
3468.362	7235
3470.076	7103
3471.789	7143
3473.505	7063
3475.217	7155
3476.929	7014
3478.641	7156
3480.354	7189
3482.066	7106
3483.777	7116
3485.487	7081
3487.197	7168
3488.908	7036
3490.617	6954
3492.327	7073
3494.035	6947
3495.743	7056
3497.451	6986
3499.158	7045
3500.866	6989
3502.572	6945
3504.278	7074
3505.984	7095
3507.689	6981
3509.396	7002
3511.1	6969
3512.804	6996
3514.508	6952
3516.211	7037
3517.913	6887
3519.616	6948
3521.319	6992
3523.021	6913
3524.722	6927
3526.422	6923
3528.124	7048
3529.824	6963
3531.524	6881
3533.222	6872
3534.921	6902
3536.62	6860
3538.318	6985
3540.016	6890
3541.714	6790
3543.41	6882
3545.107	6834
3546.803	6761
3548.5	6752
3550.194	6899
3551.889	6820
3553.583	6727
3555.279	6808
3556.972	6964
3558.666	6714
3560.358	6701
3562.051	6878
3563.742	6808
3565.435	6750
3567.126	6818
3568.817	6789
3570.507	6784
3572.197	6695
3573.888	6668
3575.577	6760
3577.265	6833
3578.954	6734
3580.642	6580
3582.329	6675
3584.017	6616
3585.704	6699
3587.391	6547
3589.077	6656
3590.762	6532
3592.449	6769
3594.133	6695
3595.817	6643
3597.501	6585
3599.185	6608
3600.869	6578
3602.552	6494
3604.234	6494
3605.916	6682
3607.598	6589
3609.279	6601
3610.961	6624
3612.642	6559
3614.321	6590
3616	6495
3617.68	6498
3619.36	6462
3621.039	6525
3622.716	6436
3624.394	6545
3626.071	6352
3627.748	6499
3629.425	6491
3631.102	6364
3632.778	6447
3634.452	6395
3636.127	6296
3637.803	6330
3639.477	6450
3641.151	6365
3642.823	6484
3644.497	6358
3646.171	6381
3647.842	6439
3649.515	6307
3651.185	6381
3652.857	6426
3654.527	6413
3656.198	6385
3657.868	6283
3659.537	6377
3661.207	6322
3662.875	6381
3664.544	6393
3666.212	6290
3667.879	6246
3669.546	6429
3671.212	6258
3672.88	6248
3674.546	6217
3676.211	6303
3677.875	6386
3679.541	6265
3681.205	6288
3682.87	6298
3684.533	6241
3686.196	6199
3687.859	6062
3689.521	6234
3691.184	6141
3692.845	6320
3694.507	6177
3696.167	6280
3697.827	6143
3699.487	6267
3701.148	6242
3702.808	6250
3704.466	6231
3706.125	6192
3707.783	6013
3709.442	6189
3711.099	6231
3712.757	6120
3714.412	6103
3716.068	6133
3717.725	6189
3719.381	6185
3721.036	6152
3722.689	6182
3724.344	6147
3725.998	6085
3727.652	6111
3729.305	6161
3730.958	6066
3732.61	6140
3734.262	6061
3735.915	6070
3737.565	6145
3739.217	6147
3740.866	5994
3742.516	6228
3744.165	6079
3745.816	6076
3747.464	6040
3749.113	6003
3750.761	6045
3752.409	6077
3754.057	6082
3755.703	5875
3757.35	6094
3758.996	6112
3760.641	6020
3762.289	6072
3763.933	5924
3765.577	5936
3767.222	6095
3768.865	5983
3770.508	5859
3772.152	6035
3773.796	5966
3775.438	6095
3777.079	5896
3778.721	5936
3780.363	5909
3782.003	5931
3783.643	6030
3785.283	5964
3786.923	5996
3788.563	5965
3790.203	5979
3791.841	5907
3793.479	5877
3795.115	5855
3796.753	5819
3798.391	5826
3800.027	5905
3801.664	5895
3803.299	5930
3804.935	5950
3806.571	5800
3808.206	5772
3809.839	5853
3811.473	5826
3813.107	5846
3814.74	5940
3816.375	5841
3818.006	5769
3819.638	5920
3821.27	5866
3822.9	5730
3824.532	5839
3826.163	5790
3827.792	5794
3829.423	5816
3831.051	5777
3832.682	5795
3834.311	5755
3835.938	5828
3837.566	5754
3839.193	5708
3840.821	5743
3842.448	5752
3844.075	5673
3845.7	5708
3847.325	5764
3848.951	5791
3850.576	5778
3852.201	5743
3853.825	5763
3855.448	5584
3857.072	5571
3858.694	5710
3860.318	5693
3861.939	5667
3863.562	5621
3865.183	5671
3866.804	5683
3868.426	5643
3870.045	5545
3871.666	5677
3873.285	5670
3874.904	5655
3876.524	5661
3878.142	5683
3879.76	5608
3881.378	5617
3882.995	5652
3884.612	5697
3886.229	5562
3887.845	5628
3889.461	5713
3891.076	5606
3892.691	5547
3894.307	5559
3895.922	5607
3897.536	5667
3899.149	5665
3900.761	5550
3902.374	5715
3903.988	5643
3905.6	5563
3907.212	5500
3908.822	5556
3910.433	5599
3912.045	5629
3913.655	5624
3915.265	5614
3916.875	5560
3918.483	5564
3920.093	5511
3921.702	5610
3923.309	5551
3924.917	5532
3926.523	5532
3928.13	5556
3929.739	5530
3931.344	5569
3932.95	5481
3934.555	5534
3936.159	5425
3937.766	5519
3939.369	5525
3940.974	5524
3942.577	5519
3944.181	5519
3945.783	5553
3947.386	5430
3948.989	5496
3950.59	5463
3952.191	5584
3953.791	5492
3955.394	5500
3956.994	5436
3958.593	5456
3960.192	5583
3961.791	5448
3963.392	5565
3964.99	5349
3966.588	5293
3968.185	5453
3969.782	5468
3971.379	5346
3972.976	5376
3974.572	5368
3976.168	5306
3977.763	5468
3979.358	5339
3980.954	5521
3982.548	5350
3984.142	5319
3985.736	5292
3987.329	5294
3988.922	5244
3990.516	5308
3992.108	5296
3993.698	5326
3995.29	5297
3996.881	5243
3998.473	5188
4000.064	5350
4001.653	5174
4003.242	5264
4004.832	5222
4006.422	5144
4008.01	5258
4009.598	5223
4011.186	5161
4012.773	5245
4014.36	5241
4015.947	5223
4017.534	5088
4019.119	5141
4020.705	5210
4022.291	5241
4023.876	5207
4025.461	5122
4027.044	5099
4028.627	5126
4030.211	5096
4031.795	5082
4033.378	5099
4034.96	5157
4036.542	5100
4038.124	5204
4039.704	5127
4041.286	5127
4042.867	5076
4044.447	5093
4046.026	5037
4047.606	5130
4049.187	5131
4050.765	5080
4052.343	5070
4053.92	5071
4055.498	5108
4057.076	5064
4058.654	4965
4060.23	5065
4061.806	4994
4063.381	5050
4064.957	5014
4066.533	5029
4068.107	4971
4069.682	4987
4071.256	4980
4072.829	4976
4074.404	4962
4075.977	4979
4077.549	5017
4079.121	4935
4080.693	4941
4082.265	5030
4083.836	4926
4085.407	5017
4086.977	4857
4088.547	4862
4090.117	5036
4091.687	4965
4093.256	5003
4094.825	4978
4096.392	5017
4097.96	4990
4099.528	4917
4101.097	4910
4102.663	4834
4104.229	4892
4105.795	4889
4107.361	4844
4108.928	4916
4110.493	4964
4112.058	4892
4113.621	4934
4115.186	4839
4116.75	4937
4118.313	4860
4119.876	4766
4121.438	4966
4123	4895
4124.562	4796
4126.125	4821
4127.686	4786
4129.246	4866
4130.807	4895
4132.367	4769
4133.927	4876
4135.486	4776
4137.046	4846
4138.604	4742
4140.162	4791
4141.72	4850
4143.279	4776
4144.836	4803
4146.393	4814
4147.949	4754
4149.505	4870
4151.062	4809
4152.617	4758
4154.172	4748
4155.727	4749
4157.281	4778
4158.836	4609
4160.39	4661
4161.943	4733
4163.496	4687
4165.048	4713
4166.601	4623
4168.154	4674
4169.706	4770
4171.257	4705
4172.808	4759
4174.358	4654
4175.909	4654
4177.458	4640
4179.008	4541
4180.558	4581
4182.106	4637
4183.655	4644
4185.204	4583
4186.751	4651
4188.298	4562
4189.845	4492
4191.392	4629
4192.939	4590
4194.485	4582
4196.031	4428
4197.576	4683
4199.121	4634
4200.666	4577
4202.211	4514
4203.754	4583
4205.298	4550
4206.84	4531
4208.384	4538
4209.927	4541
4211.47	4470
4213.011	4558
4214.552	4513
4216.094	4496
4217.635	4548
4219.175	4569
4220.716	4484
4222.255	4616
4223.793	4461
4225.335	4548
4226.873	4454
4228.411	4582
4229.948	4536
4231.486	4445
4233.024	4479
4234.562	4480
4236.098	4403
4237.634	4467
4239.169	4554
4240.705	4560
4242.241	4478
4243.776	4498
4245.31	4460
4246.844	4528
4248.378	4358
4249.911	4480
4251.445	4525
4252.978	4459
4254.51	4385
4256.042	4363
4257.574	4444
4259.107	4398
4260.638	4475
4262.169	4368
4263.699	4434
4265.228	4397
4266.759	4500
4268.289	4416
4269.818	4389
4271.345	4499
4272.874	4338
4274.402	4413
4275.931	4302
4277.458	4348
4278.985	4377
4280.512	4406
4282.037	4412
4283.564	4339
4285.089	4312
4286.615	4289
4288.139	4403
4289.664	4284
4291.187	4388
4292.712	4297
4294.235	4272
4295.759	4284
4297.281	4343
4298.804	4256
4300.327	4343
4301.849	4328
4303.37	4313
4304.891	4311
4306.412	4286
4307.933	4327
4309.453	4272
4310.973	4283
4312.492	4349
