398.1873	4316
400.7097	4297
403.2336	4338
405.7547	4304
408.2751	4324
410.7948	4330
413.3138	4359
415.83	4287
418.3497	4440
420.8666	4347
423.3829	4344
425.8985	4350
428.4133	4471
430.9275	4424
433.441	4472
435.9538	4495
438.4639	4495
440.9753	4542
443.4881	4579
445.9982	4514
448.5055	4558
451.0142	4510
453.5201	4457
456.0274	4566
458.5361	4495
461.04	4526
463.5453	4545
466.0478	4615
468.5517	4616
471.0549	4521
473.5574	4703
476.0572	4683
478.5584	4667
481.0568	4679
483.5545	4761
486.0557	4676
488.5521	4747
491.0478	4676
493.5449	4687
496.0392	4717
498.5349	4674
501.0299	4767
503.5222	4794
506.0139	4777
508.5048	4851
510.9991	4757
513.4887	4792
515.9777	4729
518.4659	4724
520.9534	4837
523.4403	4818
525.9306	4801
528.4161	4836
530.9009	4812
533.3851	4923
535.8687	4838
538.3535	4773
540.8356	4828
543.3171	4822
545.7979	4788
548.278	4776
550.7595	4766
553.2383	4795
555.7144	4835
558.1918	4782
560.6685	4856
563.1446	4693
565.6221	4835
568.0968	4830
570.5688	4851
573.0422	4828
575.515	5007
577.989	5029
580.4584	4961
582.9291	4928
585.3991	4786
587.8685	4974
590.3352	4930
592.8052	4958
595.2706	4937
597.7372	4948
600.2033	4950
602.6666	4910
605.1334	5023
607.5953	4973
610.0587	4988
612.5193	4934
614.9814	4899
617.4427	4966
619.9034	4831
622.3615	4954
624.8208	5031
627.2775	4921
629.7335	5022
632.1929	4909
634.6476	4986
637.1016	5056
639.5569	5069
642.0096	5035
644.4637	4968
646.9151	5084
649.3678	5056
651.8179	4959
654.2672	5052
656.7159	5173
659.166	5018
661.6154	5180
664.0622	5080
666.5082	5115
668.9537	5007
671.4005	5164
673.8445	5151
676.288	5204
678.7308	5128
681.1729	5118
683.6163	5218
686.0572	5088
688.4973	5132
690.9368	5065
693.3757	5168
695.8138	5149
698.2534	5142
700.6902	5129
703.1245	5129
705.56	5050
707.9949	5188
710.4311	5158
712.8647	5122
715.2957	5195
717.7279	5271
720.1595	5153
722.5905	5184
725.0208	5231
727.4505	5277
729.8795	5282
732.3058	5231
734.7336	5325
737.1626	5386
739.587	5388
742.0128	5386
744.4359	5288
746.8604	5312
749.2841	5434
751.7073	5351
754.1278	5469
756.5496	5503
758.9688	5448
761.3893	5480
763.8093	5529
766.2285	5495
768.6451	5486
771.0611	5501
773.4784	5497
775.895	5567
778.3091	5454
780.7244	5581
783.1371	5529
785.5493	5467
787.9626	5469
790.3754	5489
792.7856	5462
795.1951	5593
797.6039	5435
800.0121	5610
802.4236	5507
804.8306	5540
807.2369	5642
809.6425	5517
812.0475	5529
814.4538	5654
816.8575	5611
819.2606	5691
821.663	5686
824.0648	5677
826.4659	5578
828.8683	5675
831.2682	5653
833.6674	5540
836.066	5635
838.4639	5630
840.8632	5669
843.2579	5611
845.6539	5555
848.0493	5650
850.444	5657
852.84	5681
855.2315	5624
857.6243	5670
860.0165	5651
862.4081	5711
864.797	5564
867.1892	5569
869.5789	5611
871.9659	5682
874.3542	5635
876.74	5705
879.129	5637
881.5155	5630
883.8994	5627
886.2845	5654
888.6671	5677
891.051	5725
893.4343	5723
895.8169	5740
898.197	5772
900.5783	5713
902.9571	5762
905.3372	5735
907.7167	5736
910.0936	5662
912.4698	5890
914.8474	5802
917.2244	5749
919.5987	5872
921.9744	5833
924.3475	5869
926.72	5927
929.0918	5908
931.4669	5830
933.8375	5848
936.2074	5928
938.5767	5959
940.9454	5956
943.3154	5960
945.6829	5909
948.0497	6055
950.4178	6190
952.7833	6117
955.1483	6200
957.5145	6204
959.8782	6237
962.2412	6312
964.6036	6264
966.9655	5991
969.3266	6127
971.6871	6074
974.0471	5993
976.4064	5901
978.765	5937
981.125	6078
983.4824	5904
985.8373	5954
988.1935	5931
990.549	5890
992.9039	5920
995.2602	5867
997.6119	6009
999.965	5917
1002.317	5859
1004.667	5962
1007.02	5952
1009.371	5984
1011.719	5886
1014.068	5909
1016.415	5982
1018.765	5921
1021.111	5978
1023.458	5971
1025.804	6005
1028.147	6090
1030.49	5998
1032.837	6035
1035.179	6066
1037.522	5969
1039.862	5999
1042.204	5996
1044.546	5931
1046.884	5983
1049.224	5998
1051.562	5992
1053.899	6064
1056.237	5962
1058.575	6053
1060.91	6109
1063.244	5998
1065.58	6076
1067.913	6200
1070.248	6086
1072.579	6077
1074.911	6217
1077.242	6133
1079.572	6119
1081.905	6110
1084.234	6136
1086.562	6248
1088.89	6093
1091.217	6049
1093.544	6250
1095.871	6116
1098.197	6085
1100.521	6049
1102.845	6089
1105.169	6202
1107.491	6101
1109.814	6243
1112.135	6216
1114.456	6185
1116.776	6224
1119.096	6207
1121.415	6190
1123.734	6199
1126.052	6242
1128.369	6234
1130.686	6234
1133.002	6229
1135.318	6090
1137.632	6279
1139.945	6251
1142.258	6213
1144.573	6207
1146.884	6253
1149.196	6320
1151.505	6307
1153.816	6290
1156.124	6230
1158.435	6277
1160.742	6198
1163.051	6233
1165.356	6232
1167.663	6285
1169.97	6207
1172.276	6357
1174.579	6179
1176.881	6218
1179.186	6332
1181.487	6374
1183.79	6192
1186.092	6366
1188.392	6289
1190.691	6352
1192.991	6350
1195.291	6426
1197.588	6293
1199.885	6386
1202.181	6260
1204.479	6321
1206.775	6304
1209.07	6327
1211.363	6428
1213.656	6415
1215.949	6422
1218.241	6404
1220.534	6470
1222.825	6421
1225.115	6437
1227.405	6487
1229.693	6570
1231.984	6453
1234.271	6466
1236.558	6531
1238.845	6584
1241.131	6590
1243.416	6565
1245.703	6620
1247.987	6642
1250.269	6647
1252.552	6646
1254.834	6651
1257.118	6663
1259.399	6673
1261.678	6589
1263.958	6609
1266.237	6667
1268.516	6550
1270.794	6544
1273.072	6731
1275.347	6651
1277.624	6658
1279.899	6759
1282.175	6672
1284.449	6625
1286.722	6697
1288.995	6607
1291.266	6640
1293.54	6571
1295.81	6500
1298.081	6638
1300.35	6678
1302.62	6567
1304.889	6654
1307.156	6587
1309.425	6571
1311.69	6679
1313.957	6709
1316.222	6767
1318.488	6727
1320.751	6646
1323.016	6642
1325.278	6486
1327.54	6676
1329.803	6766
1332.065	6650
1334.325	6664
1336.584	6802
1338.843	6784
1341.101	6901
1343.36	6869
1345.617	6792
1347.876	6762
1350.131	6754
1352.387	6865
1354.643	6862
1356.897	6807
1359.151	6885
1361.403	6865
1363.656	6818
1365.909	6907
1368.16	6855
1370.409	6759
1372.659	6845
1374.909	6873
1377.157	6982
1379.407	6761
1381.655	6841
1383.9	6827
1386.147	6993
1388.393	6895
1390.64	6891
1392.885	6948
1395.127	6883
1397.37	6849
1399.614	6985
1401.854	7008
1404.098	6848
1406.339	6854
1408.578	6905
1410.818	6957
1413.056	6821
1415.297	6836
1417.533	6815
1419.771	6906
1422.006	6886
1424.243	6952
1426.479	6811
1428.715	6921
1430.948	6976
1433.182	6980
1435.414	7017
1437.647	7015
1439.88	7046
1442.11	6929
1444.342	6914
1446.571	7079
1448.799	7055
1451.029	7027
1453.258	7138
1455.485	7068
1457.711	7035
1459.937	7060
1462.164	7038
1464.39	6963
1466.614	7045
1468.838	7034
1471.06	7159
1473.283	7064
1475.506	6980
1477.727	6965
1479.949	7043
1482.169	7030
1484.389	6934
1486.609	7053
1488.828	7081
1491.045	6953
1493.261	7026
1495.477	6876
1497.693	6965
1499.91	6897
1502.125	6957
1504.339	6909
1506.553	6810
1508.766	6930
1510.979	6980
1513.191	6933
1515.402	6910
1517.613	6914
1519.823	7043
1522.033	7064
1524.242	6934
1526.451	7007
1528.657	7202
1530.865	6957
1533.072	6957
1535.278	7079
1537.484	7100
1539.687	7009
1541.892	7049
1544.096	7049
1546.299	7043
1548.502	7126
1550.703	7090
1552.905	7134
1555.104	7116
1557.303	7149
1559.505	7147
1561.703	7083
1563.902	7139
1566.099	7293
1568.295	7162
1570.494	7183
1572.689	7212
1574.883	7048
1577.079	7155
1579.272	7184
1581.467	7103
1583.659	7214
1585.853	7234
1588.044	7194
1590.234	7207
1592.424	7251
1594.615	7198
1596.806	7288
1598.994	7209
1601.182	7224
1603.369	7288
1605.557	7277
1607.744	7316
1609.929	7338
1612.114	7292
1614.298	7377
1616.482	7174
1618.667	7260
1620.85	7309
1623.032	7230
1625.214	7382
1627.395	7206
1629.575	7157
1631.755	7267
1633.935	7234
1636.114	7318
1638.292	7257
1640.471	7245
1642.647	7213
1644.823	7069
1647	7214
1649.175	7232
1651.348	7320
1653.525	7204
1655.698	7128
1657.87	7268
1660.043	7144
1662.213	7268
1664.387	7270
1666.558	7282
1668.727	7199
1670.896	7258
1673.064	7216
1675.233	7345
1677.401	7327
1679.569	7255
1681.735	7212
1683.902	7305
1686.066	7199
1688.233	7300
1690.397	7253
1692.559	7314
1694.723	7271
1696.885	7194
1699.048	7257
1701.21	7244
1703.37	7275
1705.53	7230
1707.689	7207
1709.849	7255
1712.009	7279
1714.166	7322
1716.323	7231
1718.479	7287
1720.634	7334
1722.793	7254
1724.948	7152
1727.102	7260
1729.255	7229
1731.408	7339
1733.562	7366
1735.714	7280
1737.865	7435
1740.016	7256
1742.166	7251
1744.316	7393
1746.467	7162
1748.616	7315
1750.764	7323
1752.911	7317
1755.056	7345
1757.205	7324
1759.35	7318
1761.496	7325
1763.641	7419
1765.785	7284
1767.927	7468
1770.072	7411
1772.214	7371
1774.355	7369
1776.496	7462
1778.637	7457
1780.778	7442
1782.918	7426
1785.057	7449
1787.194	7457
1789.333	7493
1791.472	7375
1793.608	7488
1795.745	7510
1797.879	7498
1800.015	7438
1802.148	7464
1804.284	7590
1806.417	7455
1808.548	7364
1810.682	7556
1812.812	7448
1814.946	7474
1817.075	7500
1819.205	7650
1821.335	7545
1823.463	7457
1825.59	7438
1827.721	7569
1829.847	7442
1831.973	7395
1834.098	7272
1836.223	7533
1838.351	7405
1840.475	7393
1842.598	7277
1844.721	7485
1846.843	7543
1848.966	7395
1851.087	7443
1853.21	7352
1855.33	7448
1857.449	7341
1859.568	7542
1861.688	7535
1863.806	7391
1865.924	7511
1868.039	7519
1870.155	7429
1872.273	7471
1874.388	7554
1876.503	7491
1878.617	7523
1880.73	7572
1882.844	7560
1884.956	7567
1887.068	7464
1889.18	7648
1891.291	7462
1893.4	7517
1895.511	7488
1897.621	7558
1899.73	7683
1901.837	7578
1903.944	7537
1906.053	7668
1908.159	7602
1910.265	7634
1912.369	7667
1914.474	7657
1916.577	7773
1918.683	7591
1920.785	7680
1922.888	7581
1924.989	7552
1927.091	7628
1929.193	7679
1931.294	7792
1933.393	7674
1935.493	7700
1937.59	7669
1939.689	7724
1941.788	7714
1943.884	7749
1945.98	7810
1948.077	7824
1950.171	7742
1952.267	7774
1954.361	7796
1956.455	7655
1958.548	7852
1960.64	7727
1962.733	7607
1964.824	7722
1966.915	7735
1969.005	7665
1971.096	7622
1973.185	7788
1975.275	7708
1977.363	7836
1979.45	7576
1981.537	7850
1983.623	7762
1985.711	7826
1987.796	7697
1989.881	7598
1991.965	7677
1994.047	7695
1996.132	7750
1998.215	7747
2000.297	7682
2002.378	7712
2004.46	7662
2006.54	7683
2008.62	7742
2010.7	7661
2012.779	7657
2014.858	7697
2016.934	7759
2019.013	7788
2021.09	7729
2023.165	7775
2025.241	7661
2027.317	7737
2029.39	7776
2031.466	7887
2033.538	7810
2035.612	7617
2037.683	7905
2039.755	7626
2041.827	7792
2043.898	7837
2045.968	7777
2048.038	7807
2050.106	7837
2052.177	7789
2054.244	7810
2056.313	7825
2058.379	7775
2060.444	7882
2062.511	7896
2064.577	7860
2066.641	7741
2068.705	7885
2070.77	7859
2072.832	7859
2074.896	7765
2076.958	7808
2079.02	7785
2081.081	7958
2083.141	7874
2085.2	7894
2087.261	7904
2089.319	7741
2091.377	7968
2093.435	8007
2095.492	8116
2097.552	7904
2099.607	7983
2101.663	8012
2103.718	7891
2105.771	7943
2107.826	7911
2109.879	8019
2111.932	8082
2113.985	7815
2116.037	7899
2118.088	7961
2120.141	7832
2122.191	7994
2124.239	7966
2126.288	7944
2128.337	7990
2130.387	7893
2132.434	7908
2134.481	7938
2136.528	7979
2138.574	7846
2140.618	7954
2142.665	8027
2144.71	7812
2146.753	8088
2148.797	7958
2150.838	7991
2152.883	7971
2154.923	8005
2156.965	7914
2159.007	7798
2161.046	7912
2163.086	7945
2165.126	8010
2167.163	7833
2169.202	7960
2171.239	8040
2173.277	7926
2175.314	7894
2177.349	7790
2179.385	7893
2181.42	7925
2183.453	7904
2185.49	7981
2187.522	7861
2189.555	7788
2191.586	7878
2193.619	7846
2195.651	7782
2197.682	7969
2199.711	7801
2201.74	7926
2203.769	7855
2205.799	7755
2207.828	7950
2209.855	7975
2211.882	7769
2213.908	7768
2215.934	7820
2217.961	7784
2219.986	7829
2222.01	7904
2224.034	7853
2226.057	7872
2228.08	7859
2230.104	7827
2232.124	7909
2234.145	7881
2236.166	7951
2238.186	7966
2240.207	7782
2242.227	7852
2244.244	7837
2246.262	7861
2248.28	7903
2250.299	7755
2252.314	7932
2254.33	7934
2256.346	7796
2258.36	7891
2260.375	7944
2262.391	7981
2264.403	7915
2266.416	8036
2268.427	7891
2270.44	7854
2272.453	7916
2274.463	7884
2276.474	7913
2278.483	8041
2280.493	7986
2282.501	8034
2284.51	7861
2286.518	7975
2288.524	7956
2290.532	7889
2292.537	7962
2294.544	7979
2296.55	8010
2298.554	7887
2300.557	7920
2302.562	8013
2304.566	7956
2306.568	7827
2308.569	7879
2310.572	8048
2312.573	7850
2314.573	8059
2316.574	7913
2318.573	7967
2320.571	8020
2322.571	7949
2324.569	7970
2326.567	7925
2328.564	7887
2330.56	7969
2332.556	7921
2334.551	7823
2336.546	7974
2338.542	8009
2340.535	7922
2342.529	7946
2344.521	7923
2346.512	7954
2348.505	7846
2350.497	7843
2352.487	7923
2354.478	7806
2356.468	7837
2358.457	7983
2360.446	7895
2362.434	7861
2364.422	7833
2366.408	7942
2368.395	7796
2370.383	7947
2372.369	7968
2374.353	7899
2376.338	7874
2378.321	7777
2380.307	7879
2382.29	7976
2384.272	7816
2386.254	7840
2388.235	7760
2390.218	7876
2392.198	7910
2394.179	7782
2396.157	7798
2398.137	7870
2400.115	7871
2402.095	7883
2404.072	7908
2406.048	7755
2408.026	7829
2410.001	7857
2411.977	7902
2413.953	7875
2415.927	7832
2417.9	7914
2419.875	7895
2421.847	7750
2423.821	7867
2425.792	7975
2427.763	7974
2429.736	7864
2431.706	7782
2433.677	7888
2435.646	7894
2437.615	7859
2439.583	7940
2441.551	8106
2443.519	7866
2445.486	7898
2447.452	7919
2449.418	7814
2451.383	7823
2453.348	7919
2455.314	7839
2457.278	7763
2459.241	7883
2461.205	7893
2463.167	7889
2465.131	7836
2467.091	7938
2469.052	7821
2471.012	7861
2472.972	7862
2474.932	7824
2476.891	7774
2478.85	7931
2480.808	7813
2482.766	7774
2484.722	7898
2486.68	7789
2488.636	7838
2490.591	7888
2492.546	7858
2494.5	7890
2496.456	7722
2498.41	7824
2500.362	7957
2502.315	7865
2504.266	7911
2506.218	7912
2508.169	7854
2510.121	7823
2512.07	7814
2514.019	7818
2515.968	7808
2517.918	7870
2519.866	7886
2521.813	7791
2523.76	7857
2525.707	7847
2527.653	7781
2529.599	7787
2531.543	7852
2533.489	7911
2535.433	7861
2537.376	7812
2539.32	8032
2541.264	7819
2543.205	7991
2545.147	7995
2547.087	7904
2549.029	7882
2550.969	7941
2552.908	7901
2554.847	7879
2556.786	7898
2558.724	7969
2560.663	7753
2562.6	7979
2564.537	7951
2566.473	7949
2568.408	7910
2570.345	7964
2572.28	7995
2574.214	7931
2576.148	7820
2578.081	7862
2580.014	7957
2581.947	7853
2583.879	8012
2585.81	7887
2587.741	8007
2589.67	7914
2591.602	8008
2593.532	7830
2595.461	7934
2597.388	7995
2599.316	8090
2601.244	7929
2603.172	7953
2605.098	8129
2607.023	7981
2608.949	7960
2610.873	7968
2612.8	8006
2614.723	8092
2616.647	8098
2618.569	8036
2620.493	8050
2622.416	8081
2624.338	8074
2626.258	8146
2628.179	8156
2630.099	8172
2632.019	8104
2633.939	8120
2635.857	8047
2637.775	8145
2639.694	8200
2641.61	7962
2643.528	8174
2645.444	8110
2647.361	8029
2649.276	8013
2651.19	8219
2653.105	8134
2655.019	8004
2656.934	8230
2658.846	8181
2660.758	8113
2662.67	8165
2664.583	8240
2666.493	8249
2668.404	8011
2670.313	8192
2672.223	8097
2674.134	8049
2676.042	8258
2677.95	8121
2679.858	8155
2681.765	8103
2683.673	8168
2685.579	8062
2687.483	8036
2689.389	8083
2691.294	8218
2693.198	8049
2695.104	8174
2697.006	8165
2698.909	8286
2700.811	8082
2702.713	8093
2704.615	8070
2706.516	8083
2708.417	8124
2710.316	8180
2712.216	8111
2714.115	8243
2716.014	8042
2717.913	8167
2719.81	8187
2721.707	8015
2723.603	8168
2725.501	8096
2727.396	8211
2729.292	8190
2731.186	8123
2733.081	8241
2734.976	8102
2736.87	8144
2738.762	8148
2740.653	8185
2742.546	8254
2744.437	8156
2746.329	8133
2748.22	8025
2750.11	8127
2751.999	8124
2753.889	8147
2755.778	8126
2757.666	8053
2759.553	8055
2761.44	7997
2763.328	8068
2765.215	8150
2767.101	8098
2768.986	7934
2770.87	8079
2772.754	8051
2774.638	8149
2776.523	8009
2778.405	8132
2780.288	8158
2782.17	8193
2784.051	8010
2785.934	8215
2787.814	8228
2789.694	8092
2791.574	7949
2793.453	8067
2795.332	8222
2797.212	8204
2799.088	8095
2800.966	8181
2802.843	7997
2804.719	8126
2806.597	8174
2808.471	8227
2810.346	8242
2812.221	8161
2814.094	8036
2815.969	8206
2817.843	8122
2819.714	8082
2821.587	8043
2823.459	8144
2825.329	8025
2827.202	8148
2829.072	8198
2830.942	8142
2832.811	8161
2834.68	8149
2836.549	8095
2838.418	7989
2840.284	8143
2842.152	8264
2844.018	8260
2845.885	8182
2847.751	8231
2849.616	8232
2851.482	8159
2853.345	8235
2855.208	8065
2857.074	8071
2858.937	8177
2860.799	8195
2862.66	8211
2864.522	8186
2866.385	8100
2868.245	8254
2870.104	8193
2871.964	8218
2873.824	8273
2875.683	8362
2877.542	8350
2879.4	8296
2881.257	8197
2883.114	8402
2884.97	8364
2886.827	8210
2888.683	8396
2890.537	8377
2892.392	8410
2894.246	8185
2896.1	8381
2897.954	8484
2899.807	8374
2901.66	8343
2903.51	8356
2905.362	8360
2907.214	8286
2909.065	8249
2910.915	8479
2912.765	8320
2914.613	8337
2916.463	8387
2918.311	8389
2920.158	8301
2922.006	8423
2923.853	8475
2925.698	8368
2927.546	8362
2929.392	8474
2931.236	8657
2933.081	8404
2934.924	8492
2936.77	8584
2938.613	8470
2940.455	8600
2942.298	8658
2944.139	8652
2945.982	8617
2947.823	8520
2949.662	8610
2951.503	8578
2953.342	8636
2955.182	8500
2957.021	8589
2958.858	8463
2960.697	8504
2962.534	8470
2964.37	8616
2966.207	8334
2968.044	8332
2969.879	8415
2971.714	8330
2973.548	8431
2975.383	8315
2977.218	8191
2979.051	8450
2980.883	8295
2982.715	8336
2984.547	8327
2986.379	8296
2988.21	8327
2990.04	8300
2991.87	8245
2993.7	8283
2995.53	8219
2997.359	8165
2999.187	8106
3001.015	8187
3002.842	8245
3004.669	8146
3006.497	8133
3008.323	8231
3010.148	8040
3011.974	8215
3013.797	8034
3015.623	8143
3017.447	8025
3019.27	8054
3021.094	8104
3022.915	8047
3024.737	8100
3026.56	7906
3028.38	8050
3030.201	7951
3032.022	8042
3033.84	7963
3035.662	8026
3037.481	8128
3039.298	8006
3041.117	7979
3042.933	8034
3044.752	8080
3046.568	8023
3048.385	8018
3050.2	8089
3052.016	7958
3053.83	8050
3055.646	8114
3057.46	8152
3059.272	8105
3061.086	8001
3062.898	8015
3064.711	7990
3066.524	7943
3068.335	7935
3070.145	8080
3071.956	8013
3073.766	8014
3075.576	7864
3077.385	7914
3079.193	7913
3081.002	7918
3082.81	7910
3084.618	7895
3086.425	7983
3088.231	7975
3090.036	7957
3091.842	8019
3093.648	7862
3095.452	7849
3097.257	8017
3099.06	7924
3100.863	7804
3102.666	7740
3104.47	7866
3106.272	7865
3108.073	7834
3109.875	7883
3111.676	7868
3113.477	7735
3115.277	7889
3117.077	7850
3118.874	7843
3120.673	7881
3122.473	7801
3124.271	7844
3126.066	7948
3127.863	7732
3129.66	7777
3131.456	7780
3133.252	7694
3135.047	7809
3136.842	7906
3138.635	7767
3140.429	7615
3142.223	7741
3144.016	7709
3145.808	7751
3147.6	7657
3149.392	7709
3151.183	7755
3152.975	7764
3154.765	7808
3156.553	7713
3158.344	7838
3160.132	7580
3161.922	7896
3163.71	7678
3165.497	7818
3167.285	7764
3169.071	7597
3170.858	7674
3172.645	7685
3174.429	7647
3176.214	7786
3177.998	7762
3179.783	7647
3181.568	7636
3183.351	7748
3185.133	7496
3186.915	7655
3188.698	7674
3190.481	7671
3192.261	7620
3194.042	7716
3195.822	7623
3197.601	7631
3199.381	7613
3201.161	7629
3202.939	7747
3204.717	7631
3206.495	7665
3208.272	7544
3210.05	7671
3211.826	7606
3213.602	7623
3215.376	7561
3217.151	7613
3218.927	7704
3220.702	7586
3222.476	7543
3224.249	7535
3226.021	7603
3227.793	7623
3229.567	7555
3231.339	7654
3233.109	7588
3234.88	7756
3236.651	7616
3238.421	7629
3240.191	7643
3241.96	7499
3243.728	7638
3245.497	7712
3247.263	7615
3249.033	7727
3250.799	7556
3252.566	7603
3254.331	7672
3256.097	7421
3257.863	7529
3259.628	7534
3261.392	7714
3263.156	7565
3264.919	7772
3266.683	7667
3268.447	7713
3270.208	7615
3271.969	7606
3273.731	7715
3275.492	7619
3277.253	7610
3279.013	7603
3280.773	7600
3282.532	7700
3284.291	7702
3286.05	7804
3287.808	7552
3289.566	7686
3291.323	7658
3293.079	7602
3294.835	7585
3296.593	7568
3298.348	7430
3300.102	7590
3301.857	7544
3303.611	7642
3305.366	7486
3307.119	7737
3308.872	7703
3310.624	7717
3312.376	7583
3314.129	7679
3315.881	7785
3317.631	7727
3319.38	7739
3321.13	7616
3322.88	7796
3324.631	7678
3326.379	7644
3328.126	7767
3329.875	7575
3331.622	7696
3333.371	7653
3335.116	7654
3336.863	7715
3338.609	7785
3340.353	7630
3342.1	7533
3343.845	7666
3345.588	7702
3347.332	7705
3349.074	7518
3350.817	7670
3352.56	7538
3354.303	7753
3356.043	7617
3357.785	7627
3359.525	7753
3361.268	7591
3363.007	7662
3364.745	7643
3366.485	7671
3368.223	7657
3369.962	7677
3371.701	7761
3373.438	7557
3375.174	7518
3376.911	7594
3378.647	7613
3380.384	7660
3382.118	7670
3383.854	7536
3385.588	7572
3387.322	7621
3389.057	7516
3390.79	7749
3392.522	7433
3394.255	7681
3395.987	7557
3397.719	7613
3399.451	7649
3401.181	7528
3402.911	7593
3404.641	7565
3406.371	7519
3408.101	7601
3409.83	7591
3411.558	7729
3413.285	7636
3415.011	7519
3416.739	7509
3418.467	7587
3420.193	7489
3421.919	7630
3423.644	7532
3425.368	7572
3427.094	7607
3428.818	7542
3430.542	7533
3432.264	7549
3433.987	7546
3435.712	7553
3437.434	7559
3439.155	7462
3440.876	7574
3442.596	7494
3444.317	7485
3446.039	7445
3447.757	7438
3449.477	7423
3451.195	7537
3452.914	7519
3454.632	7514
3456.35	7378
3458.067	7435
3459.784	7559
3461.5	7529
3463.216	7365
3464.932	7346
3466.647	7427
3468.362	7416
3470.076	7398
3471.789	7417
3473.505	7398
3475.217	7495
3476.929	7371
3478.641	7307
3480.354	7424
3482.066	7282
3483.777	7518
3485.487	7298
3487.197	7374
3488.908	7418
3490.617	7345
3492.327	7446
3494.035	7382
3495.743	7438
3497.451	7356
3499.158	7246
3500.866	7425
3502.572	7320
3504.278	7426
3505.984	7324
3507.689	7362
3509.396	7358
3511.1	7303
3512.804	7338
3514.508	7256
3516.211	7344
3517.913	7301
3519.616	7294
3521.319	7389
3523.021	7417
3524.722	7287
3526.422	7218
3528.124	7263
3529.824	7323
3531.524	7356
3533.222	7265
3534.921	7230
3536.62	7473
3538.318	7398
3540.016	7272
3541.714	7234
3543.41	7440
3545.107	7246
3546.803	7236
3548.5	7309
3550.194	7319
3551.889	7312
3553.583	7278
3555.279	7291
3556.972	7333
3558.666	7209
3560.358	7344
3562.051	7234
3563.742	7328
3565.435	7250
3567.126	7245
3568.817	7267
3570.507	7255
3572.197	7204
3573.888	7422
3575.577	7191
3577.265	7321
3578.954	7135
3580.642	7220
3582.329	7166
3584.017	7239
3585.704	7283
3587.391	7240
3589.077	7273
3590.762	7337
3592.449	7238
3594.133	7300
3595.817	7159
3597.501	7325
3599.185	7118
3600.869	7194
3602.552	7090
3604.234	7249
3605.916	7265
3607.598	7083
3609.279	7129
3610.961	7133
3612.642	7212
3614.321	7199
3616	7203
3617.68	7235
3619.36	7124
3621.039	7020
3622.716	7173
3624.394	7151
3626.071	6895
3627.748	7040
3629.425	7069
3631.102	7065
3632.778	7159
3634.452	7040
3636.127	7181
3637.803	7120
3639.477	7148
3641.151	7104
3642.823	7085
3644.497	7083
3646.171	7139
3647.842	7058
3649.515	7033
3651.185	7135
3652.857	7082
3654.527	6973
3656.198	7055
3657.868	7138
3659.537	7102
3661.207	6971
3662.875	7156
3664.544	7134
3666.212	7006
3667.879	7019
3669.546	7023
3671.212	7059
3672.88	7147
3674.546	7032
3676.211	7021
3677.875	7082
3679.541	6985
3681.205	7117
3682.87	6995
3684.533	7111
3686.196	7062
3687.859	7111
3689.521	7150
3691.184	7055
3692.845	6966
3694.507	7126
3696.167	7059
3697.827	7009
3699.487	6970
3701.148	7113
3702.808	7083
3704.466	7079
3706.125	7039
3707.783	7061
3709.442	6981
3711.099	7104
3712.757	7024
3714.412	7130
3716.068	6985
3717.725	7041
3719.381	6917
3721.036	7110
3722.689	6871
3724.344	7103
3725.998	7077
3727.652	7085
3729.305	7030
3730.958	7087
3732.61	6935
3734.262	6901
3735.915	7030
3737.565	6970
3739.217	6941
3740.866	7082
3742.516	7117
3744.165	7083
3745.816	6979
3747.464	6922
3749.113	7019
3750.761	6939
3752.409	7044
3754.057	7055
3755.703	6996
3757.35	7010
3758.996	6883
3760.641	6975
3762.289	6797
3763.933	7070
3765.577	6962
3767.222	6939
3768.865	6943
3770.508	6935
3772.152	6914
3773.796	6968
3775.438	6921
3777.079	6950
3778.721	6940
3780.363	6900
3782.003	6971
3783.643	6852
3785.283	6943
3786.923	6983
3788.563	6906
3790.203	6902
3791.841	6879
3793.479	6844
3795.115	6911
3796.753	6926
3798.391	6845
3800.027	6841
3801.664	6855
3803.299	6808
3804.935	6803
3806.571	6830
3808.206	6785
3809.839	6788
3811.473	6898
3813.107	6820
3814.74	6750
3816.375	6854
3818.006	6745
3819.638	6836
3821.27	6808
3822.9	6757
3824.532	6851
3826.163	6854
3827.792	6815
3829.423	6785
3831.051	6699
3832.682	6736
3834.311	6784
3835.938	6824
3837.566	6781
3839.193	6798
3840.821	6829
3842.448	6811
3844.075	6829
3845.7	6834
3847.325	6821
3848.951	6674
3850.576	6772
3852.201	6798
3853.825	6702
3855.448	6765
3857.072	6798
3858.694	6806
3860.318	6725
3861.939	6829
3863.562	6746
3865.183	6751
3866.804	6763
3868.426	6665
3870.045	6742
3871.666	6671
3873.285	6753
3874.904	6714
3876.524	6628
3878.142	6873
3879.76	6772
3881.378	6782
3882.995	6696
3884.612	6662
3886.229	6750
3887.845	6612
3889.461	6656
3891.076	6623
3892.691	6626
3894.307	6789
3895.922	6682
3897.536	6715
3899.149	6587
3900.761	6706
3902.374	6617
3903.988	6730
3905.6	6700
3907.212	6621
3908.822	6689
3910.433	6716
3912.045	6574
3913.655	6724
3915.265	6760
3916.875	6698
3918.483	6750
3920.093	6678
3921.702	6642
3923.309	6693
3924.917	6683
3926.523	6684
3928.13	6635
3929.739	6740
3931.344	6767
3932.95	6649
3934.555	6615
3936.159	6745
3937.766	6691
3939.369	6551
3940.974	6755
3942.577	6689
3944.181	6704
3945.783	6747
3947.386	6660
3948.989	6713
3950.59	6697
3952.191	6765
3953.791	6741
3955.394	6847
3956.994	6671
3958.593	6693
3960.192	6556
3961.791	6594
3963.392	6572
3964.99	6559
3966.588	6628
3968.185	6583
3969.782	6646
3971.379	6549
3972.976	6662
3974.572	6700
3976.168	6546
3977.763	6466
3979.358	6508
3980.954	6523
3982.548	6623
3984.142	6558
3985.736	6538
3987.329	6624
3988.922	6632
3990.516	6536
3992.108	6554
3993.698	6546
3995.29	6558
3996.881	6430
3998.473	6546
4000.064	6568
4001.653	6442
4003.242	6424
4004.832	6411
4006.422	6494
4008.01	6500
4009.598	6578
4011.186	6503
4012.773	6435
4014.36	6453
4015.947	6362
4017.534	6530
4019.119	6497
4020.705	6413
4022.291	6532
4023.876	6412
4025.461	6370
4027.044	6412
4028.627	6403
4030.211	6376
4031.795	6432
4033.378	6412
4034.96	6415
4036.542	6452
4038.124	6404
4039.704	6483
4041.286	6348
4042.867	6415
4044.447	6375
4046.026	6380
4047.606	6418
4049.187	6285
4050.765	6449
4052.343	6387
4053.92	6341
4055.498	6358
4057.076	6295
4058.654	6461
4060.23	6323
4061.806	6250
4063.381	6292
4064.957	6449
4066.533	6368
4068.107	6421
4069.682	6310
4071.256	6432
4072.829	6338
4074.404	6346
4075.977	6296
4077.549	6372
4079.121	6361
4080.693	6383
4082.265	6246
4083.836	6224
4085.407	6211
4086.977	6358
4088.547	6348
4090.117	6363
4091.687	6344
4093.256	6377
4094.825	6356
4096.392	6244
4097.96	6237
4099.528	6274
4101.097	6272
4102.663	6275
4104.229	6343
4105.795	6212
4107.361	6316
4108.928	6206
4110.493	6363
4112.058	6366
4113.621	6166
4115.186	6277
4116.75	6231
4118.313	6044
4119.876	6196
4121.438	6243
4123	6282
4124.562	6235
4126.125	6156
4127.686	6244
4129.246	6154
4130.807	6245
4132.367	6242
4133.927	6226
4135.486	6149
4137.046	6135
4138.604	6137
4140.162	6176
4141.72	6092
4143.279	6062
4144.836	6177
4146.393	6227
4147.949	6057
4149.505	6138
4151.062	6099
4152.617	6073
4154.172	6152
4155.727	6020
4157.281	6067
4158.836	6014
4160.39	6004
4161.943	6102
4163.496	6109
4165.048	6085
4166.601	6065
4168.154	6158
4169.706	6061
4171.257	6026
4172.808	6034
4174.358	6045
4175.909	6055
4177.458	5982
4179.008	5959
4180.558	6090
4182.106	5964
4183.655	6018
4185.204	5970
4186.751	6011
4188.298	6088
4189.845	5875
4191.392	6050
4192.939	6041
4194.485	5942
4196.031	6024
4197.576	6015
4199.121	5987
4200.666	6052
4202.211	5966
4203.754	5968
4205.298	5935
4206.84	6019
4208.384	5985
4209.927	5879
4211.47	5854
4213.011	5960
4214.552	5971
4216.094	5887
4217.635	5922
4219.175	5957
4220.716	5998
4222.255	5936
4223.793	5944
4225.335	5966
4226.873	6016
4228.411	6086
4229.948	6070
4231.486	5907
4233.024	5992
4234.562	5884
4236.098	5996
4237.634	5887
4239.169	5871
4240.705	5928
4242.241	5914
4243.776	5911
4245.31	5967
4246.844	5970
4248.378	5923
4249.911	5992
4251.445	5956
4252.978	5914
4254.51	5904
4256.042	5883
4257.574	5963
4259.107	5862
4260.638	5933
4262.169	5899
4263.699	5862
4265.228	5889
4266.759	5838
4268.289	5934
4269.818	5974
4271.345	5942
4272.874	5825
4274.402	5885
4275.931	5876
4277.458	5907
4278.985	5987
4280.512	5824
4282.037	5874
4283.564	5954
4285.089	5793
4286.615	5888
4288.139	5952
4289.664	5831
4291.187	5802
4292.712	5840
4294.235	5833
4295.759	5825
4297.281	5819
4298.804	5883
4300.327	5896
4301.849	5814
4303.37	5812
4304.891	5790
4306.412	5801
4307.933	5675
4309.453	5793
4310.973	5850
4312.492	5739
