398.1873	5686
400.7097	5701
403.2336	5731
405.7547	5679
408.2751	5707
410.7948	5651
413.3138	5748
415.83	5763
418.3497	5862
420.8666	5870
423.3829	5899
425.8985	5824
428.4133	5969
430.9275	6000
433.441	6022
435.9538	6015
438.4639	6171
440.9753	6092
443.4881	6119
445.9982	6012
448.5055	6227
451.0142	6077
453.5201	6118
456.0274	6075
458.5361	6061
461.04	6071
463.5453	6070
466.0478	6054
468.5517	6063
471.0549	6069
473.5574	6094
476.0572	6103
478.5584	6169
481.0568	6043
483.5545	6127
486.0557	6292
488.5521	6234
491.0478	6286
493.5449	6262
496.0392	6264
498.5349	6291
501.0299	6257
503.5222	6257
506.0139	6274
508.5048	6209
510.9991	6258
513.4887	6450
515.9777	6384
518.4659	6427
520.9534	6255
523.4403	6408
525.9306	6415
528.4161	6322
530.9009	6370
533.3851	6391
535.8687	6292
538.3535	6290
540.8356	6399
543.3171	6481
545.7979	6290
548.278	6404
550.7595	6417
553.2383	6430
555.7144	6396
558.1918	6369
560.6685	6397
563.1446	6403
565.6221	6451
568.0968	6436
570.5688	6523
573.0422	6474
575.515	6617
577.989	6694
580.4584	6527
582.9291	6552
585.3991	6622
587.8685	6758
590.3352	6727
592.8052	6662
595.2706	6643
597.7372	6649
600.2033	6536
602.6666	6526
605.1334	6570
607.5953	6635
610.0587	6698
612.5193	6595
614.9814	6729
617.4427	6621
619.9034	6537
622.3615	6541
624.8208	6604
627.2775	6614
629.7335	6513
632.1929	6516
634.6476	6580
637.1016	6466
639.5569	6568
642.0096	6638
644.4637	6621
646.9151	6595
649.3678	6686
651.8179	6646
654.2672	6597
656.7159	6716
659.166	6705
661.6154	6696
664.0622	6701
666.5082	6636
668.9537	6831
671.4005	6797
673.8445	6771
676.288	6697
678.7308	6844
681.1729	6743
683.6163	6740
686.0572	6833
688.4973	6870
690.9368	6738
693.3757	6817
695.8138	6798
698.2534	6901
700.6902	6797
703.1245	6845
705.56	6819
707.9949	6898
710.4311	6975
712.8647	6946
715.2957	6818
717.7279	7005
720.1595	6966
722.5905	6965
725.0208	6962
727.4505	6965
729.8795	7037
732.3058	6995
734.7336	7001
737.1626	7093
739.587	7097
742.0128	7199
744.4359	7146
746.8604	7221
749.2841	7112
751.7073	7259
754.1278	7217
756.5496	7369
758.9688	7232
761.3893	7274
763.8093	7316
766.2285	7228
768.6451	7300
771.0611	7228
773.4784	7259
775.895	7437
778.3091	7212
780.7244	7376
783.1371	7219
785.5493	7326
787.9626	7356
790.3754	7440
792.7856	7279
795.1951	7357
797.6039	7252
800.0121	7284
802.4236	7257
804.8306	7372
807.2369	7302
809.6425	7405
812.0475	7196
814.4538	7441
816.8575	7404
819.2606	7476
821.663	7359
824.0648	7484
826.4659	7396
828.8683	7465
831.2682	7384
833.6674	7487
836.066	7482
838.4639	7476
840.8632	7487
843.2579	7487
845.6539	7429
848.0493	7525
850.444	7517
852.84	7554
855.2315	7488
857.6243	7423
860.0165	7457
862.4081	7551
864.797	7447
867.1892	7463
869.5789	7581
871.9659	7538
874.3542	7618
876.74	7481
879.129	7483
881.5155	7463
883.8994	7464
886.2845	7407
888.6671	7425
891.051	7500
893.4343	7491
895.8169	7533
898.197	7421
900.5783	7665
902.9571	7577
905.3372	7520
907.7167	7552
910.0936	7600
912.4698	7669
914.8474	7727
917.2244	7746
919.5987	7726
921.9744	7849
924.3475	7762
926.72	7835
929.0918	7783
931.4669	7883
933.8375	7763
936.2074	7739
938.5767	7932
940.9454	7787
943.3154	8094
945.6829	8121
948.0497	8193
950.4178	8283
952.7833	8379
955.1483	8679
957.5145	8928
959.8782	9157
962.2412	9016
964.6036	8697
966.9655	8587
969.3266	8374
971.6871	8265
974.0471	8058
976.4064	7974
978.765	7883
981.125	7946
983.4824	7744
985.8373	7664
988.1935	7745
990.549	7822
992.9039	7775
995.2602	7827
997.6119	7758
999.965	7860
1002.317	7908
1004.667	7695
1007.02	7868
1009.371	7847
1011.719	7809
1014.068	7783
1016.415	7770
1018.765	7767
1021.111	7720
1023.458	7848
1025.804	7996
1028.147	7823
1030.49	7902
1032.837	7912
1035.179	7962
1037.522	7837
1039.862	7902
1042.204	7902
1044.546	7898
1046.884	7837
1049.224	7956
1051.562	7963
1053.899	7916
1056.237	7930
1058.575	7926
1060.91	7967
1063.244	7986
1065.58	8064
1067.913	8014
1070.248	8001
1072.579	8090
1074.911	8083
1077.242	8002
1079.572	7959
1081.905	8020
1084.234	7914
1086.562	8047
1088.89	7980
1091.217	7900
1093.544	8018
1095.871	7918
1098.197	8048
1100.521	7987
1102.845	8016
1105.169	8040
1107.491	8035
1109.814	8216
1112.135	7917
1114.456	7898
1116.776	8101
1119.096	8072
1121.415	8030
1123.734	8073
1126.052	8090
1128.369	7983
1130.686	8010
1133.002	8053
1135.318	8136
1137.632	8085
1139.945	8127
1142.258	8042
1144.573	8077
1146.884	7926
1149.196	8047
1151.505	8061
1153.816	8115
1156.124	8159
1158.435	7962
1160.742	8055
1163.051	8148
1165.356	8112
1167.663	8029
1169.97	7895
1172.276	8045
1174.579	8150
1176.881	7960
1179.186	8013
1181.487	8115
1183.79	8076
1186.092	8102
1188.392	8033
1190.691	7975
1192.991	7982
1195.291	8144
1197.588	7967
1199.885	8132
1202.181	8102
1204.479	8015
1206.775	8085
1209.07	8003
1211.363	8113
1213.656	8076
1215.949	8106
1218.241	8130
1220.534	8254
1222.825	8125
1225.115	8142
1227.405	8122
1229.693	8415
1231.984	8275
1234.271	8246
1236.558	8192
1238.845	8321
1241.131	8328
1243.416	8325
1245.703	8206
1247.987	8356
1250.269	8260
1252.552	8417
1254.834	8380
1257.118	8360
1259.399	8434
1261.678	8267
1263.958	8299
1266.237	8365
1268.516	8438
1270.794	8257
1273.072	8254
1275.347	8319
1277.624	8348
1279.899	8319
1282.175	8427
1284.449	8263
1286.722	8279
1288.995	8251
1291.266	8264
1293.54	8229
1295.81	8259
1298.081	8130
1300.35	8229
1302.62	8264
1304.889	8364
1307.156	8367
1309.425	8203
1311.69	8318
1313.957	8312
1316.222	8169
1318.488	8291
1320.751	8257
1323.016	8420
1325.278	8167
1327.54	8374
1329.803	8208
1332.065	8279
1334.325	8179
1336.584	8304
1338.843	8300
1341.101	8423
1343.36	8504
1345.617	8187
1347.876	8333
1350.131	8372
1352.387	8175
1354.643	8336
1356.897	8219
1359.151	8313
1361.403	8303
1363.656	8383
1365.909	8443
1368.16	8311
1370.409	8422
1372.659	8212
1374.909	8469
1377.157	8250
1379.407	8416
1381.655	8376
1383.9	8335
1386.147	8459
1388.393	8411
1390.64	8476
1392.885	8444
1395.127	8439
1397.37	8454
1399.614	8520
1401.854	8553
1404.098	8597
1406.339	8521
1408.578	8546
1410.818	8489
1413.056	8502
1415.297	8511
1417.533	8546
1419.771	8466
1422.006	8635
1424.243	8604
1426.479	8708
1428.715	8627
1430.948	8733
1433.182	8746
1435.414	8637
1437.647	8731
1439.88	8669
1442.11	8596
1444.342	8784
1446.571	8659
1448.799	8762
1451.029	8740
1453.258	8835
1455.485	8809
1457.711	8782
1459.937	8711
1462.164	8723
1464.39	8665
1466.614	8590
1468.838	8596
1471.06	8556
1473.283	8496
1475.506	8668
1477.727	8394
1479.949	8500
1482.169	8599
1484.389	8395
1486.609	8541
1488.828	8488
1491.045	8437
1493.261	8492
1495.477	8412
1497.693	8337
1499.91	8376
1502.125	8498
1504.339	8553
1506.553	8383
1508.766	8463
1510.979	8321
1513.191	8442
1515.402	8472
1517.613	8364
1519.823	8324
1522.033	8384
1524.242	8384
1526.451	8433
1528.657	8451
1530.865	8442
1533.072	8370
1535.278	8462
1537.484	8484
1539.687	8492
1541.892	8426
1544.096	8503
1546.299	8376
1548.502	8547
1550.703	8422
1552.905	8610
1555.104	8440
1557.303	8506
1559.505	8491
1561.703	8533
1563.902	8634
1566.099	8574
1568.295	8655
1570.494	8776
1572.689	8602
1574.883	8474
1577.079	8579
1579.272	8586
1581.467	8615
1583.659	8702
1585.853	8701
1588.044	8831
1590.234	8569
1592.424	8719
1594.615	8612
1596.806	8673
1598.994	8725
1601.182	8667
1603.369	8724
1605.557	8683
1607.744	8800
1609.929	8740
1612.114	8614
1614.298	8736
1616.482	8859
1618.667	8718
1620.85	8719
1623.032	8754
1625.214	8762
1627.395	8859
1629.575	8848
1631.755	8734
1633.935	8865
1636.114	8820
1638.292	8646
1640.471	8691
1642.647	8778
1644.823	8873
1647	8720
1649.175	8806
1651.348	8732
1653.525	8766
1655.698	8740
1657.87	8829
1660.043	8858
1662.213	8890
1664.387	8903
1666.558	8804
1668.727	8860
1670.896	8860
1673.064	8696
1675.233	8959
1677.401	8795
1679.569	8753
1681.735	8730
1683.902	8747
1686.066	8810
1688.233	8866
1690.397	8716
1692.559	8756
1694.723	8869
1696.885	8796
1699.048	8647
1701.21	8799
1703.37	8684
1705.53	8744
1707.689	8888
1709.849	8702
1712.009	8753
1714.166	8740
1716.323	8761
1718.479	8720
1720.634	8740
1722.793	8703
1724.948	8785
1727.102	8676
1729.255	8653
1731.408	8711
1733.562	8633
1735.714	8671
1737.865	8665
1740.016	8766
1742.166	8798
1744.316	8795
1746.467	8681
1748.616	8801
1750.764	8806
1752.911	8676
1755.056	8847
1757.205	8688
1759.35	8742
1761.496	8663
1763.641	8783
1765.785	8605
1767.927	8770
1770.072	8787
1772.214	8811
1774.355	8709
1776.496	8819
1778.637	8743
1780.778	8800
1782.918	8726
1785.057	8788
1787.194	8824
1789.333	8823
1791.472	8895
1793.608	8772
1795.745	8826
1797.879	8749
1800.015	8845
1802.148	8919
1804.284	8750
1806.417	8878
1808.548	8770
1810.682	8820
1812.812	8813
1814.946	8836
1817.075	8841
1819.205	8777
1821.335	8917
1823.463	8806
1825.59	8713
1827.721	8853
1829.847	8653
1831.973	8698
1834.098	8753
1836.223	8751
1838.351	8736
1840.475	8745
1842.598	8756
1844.721	8725
1846.843	8630
1848.966	8680
1851.087	8662
1853.21	8766
1855.33	8648
1857.449	8663
1859.568	8744
1861.688	8702
1863.806	8625
1865.924	8877
1868.039	8565
1870.155	8849
1872.273	8830
1874.388	8699
1876.503	8696
1878.617	8664
1880.73	8795
1882.844	8778
1884.956	8735
1887.068	8778
1889.18	8721
1891.291	8825
1893.4	8680
1895.511	8866
1897.621	8696
1899.73	8814
1901.837	8783
1903.944	8849
1906.053	8706
1908.159	8856
1910.265	8739
1912.369	8868
1914.474	8842
1916.577	8900
1918.683	8862
1920.785	8811
1922.888	8883
1924.989	8965
1927.091	8797
1929.193	8816
1931.294	8978
1933.393	9007
1935.493	8898
1937.59	8951
1939.689	8993
1941.788	8881
1943.884	8932
1945.98	8916
1948.077	8745
1950.171	8895
1952.267	8943
1954.361	8964
1956.455	8855
1958.548	8958
1960.64	8800
1962.733	8915
1964.824	8881
1966.915	8907
1969.005	8770
1971.096	8895
1973.185	8786
1975.275	8831
1977.363	8852
1979.45	8813
1981.537	8899
1983.623	8914
1985.711	8808
1987.796	8813
1989.881	8863
1991.965	8805
1994.047	8893
1996.132	8747
1998.215	8698
2000.297	8817
2002.378	8733
2004.46	8765
2006.54	8716
2008.62	8796
2010.7	8822
2012.779	8913
2014.858	8792
2016.934	8837
2019.013	8788
2021.09	8765
2023.165	8738
2025.241	8855
2027.317	8612
2029.39	8724
2031.466	8721
2033.538	8721
2035.612	8747
2037.683	8729
2039.755	8855
2041.827	8700
2043.898	8641
2045.968	8780
2048.038	8869
2050.106	8757
2052.177	8821
2054.244	8767
2056.313	8767
2058.379	8656
2060.444	8820
2062.511	8786
2064.577	8754
2066.641	8930
2068.705	8733
2070.77	8664
2072.832	8778
2074.896	8827
2076.958	8768
2079.02	8811
2081.081	8758
2083.141	8752
2085.2	8901
2087.261	8848
2089.319	8775
2091.377	8866
2093.435	8869
2095.492	8715
2097.552	8873
2099.607	8780
2101.663	8752
2103.718	8732
2105.771	8809
2107.826	8930
2109.879	8742
2111.932	8958
2113.985	8769
2116.037	8847
2118.088	8784
2120.141	8663
2122.191	8781
2124.239	8790
2126.288	8796
2128.337	8787
2130.387	8759
2132.434	8641
2134.481	8750
2136.528	8820
2138.574	8762
2140.618	8824
2142.665	8808
2144.71	8643
2146.753	8771
2148.797	8615
2150.838	8878
2152.883	8771
2154.923	8711
2156.965	8708
2159.007	8651
2161.046	8638
2163.086	8783
2165.126	8739
2167.163	8661
2169.202	8824
2171.239	8642
2173.277	8612
2175.314	8625
2177.349	8714
2179.385	8748
2181.42	8585
2183.453	8557
2185.49	8607
2187.522	8587
2189.555	8605
2191.586	8598
2193.619	8709
2195.651	8676
2197.682	8631
2199.711	8648
2201.74	8618
2203.769	8501
2205.799	8573
2207.828	8461
2209.855	8644
2211.882	8480
2213.908	8520
2215.934	8539
2217.961	8515
2219.986	8612
2222.01	8666
2224.034	8602
2226.057	8539
2228.08	8599
2230.104	8506
2232.124	8512
2234.145	8522
2236.166	8397
2238.186	8615
2240.207	8584
2242.227	8568
2244.244	8543
2246.262	8622
2248.28	8573
2250.299	8520
2252.314	8487
2254.33	8684
2256.346	8635
2258.36	8635
2260.375	8596
2262.391	8496
2264.403	8585
2266.416	8414
2268.427	8520
2270.44	8536
2272.453	8489
2274.463	8497
2276.474	8553
2278.483	8460
2280.493	8555
2282.501	8516
2284.51	8531
2286.518	8664
2288.524	8531
2290.532	8601
2292.537	8506
2294.544	8455
2296.55	8686
2298.554	8572
2300.557	8520
2302.562	8484
2304.566	8515
2306.568	8582
2308.569	8507
2310.572	8603
2312.573	8499
2314.573	8384
2316.574	8415
2318.573	8450
2320.571	8512
2322.571	8363
2324.569	8469
2326.567	8485
2328.564	8319
2330.56	8431
2332.556	8529
2334.551	8441
2336.546	8427
2338.542	8567
2340.535	8424
2342.529	8336
2344.521	8540
2346.512	8370
2348.505	8412
2350.497	8297
2352.487	8487
2354.478	8358
2356.468	8447
2358.457	8351
2360.446	8488
2362.434	8338
2364.422	8329
2366.408	8333
2368.395	8339
2370.383	8348
2372.369	8388
2374.353	8343
2376.338	8342
2378.321	8431
2380.307	8382
2382.29	8203
2384.272	8347
2386.254	8336
2388.235	8395
2390.218	8432
2392.198	8379
2394.179	8325
2396.157	8346
2398.137	8365
2400.115	8309
2402.095	8317
2404.072	8346
2406.048	8238
2408.026	8309
2410.001	8353
2411.977	8280
2413.953	8288
2415.927	8193
2417.9	8388
2419.875	8289
2421.847	8387
2423.821	8336
2425.792	8146
2427.763	8424
2429.736	8316
2431.706	8281
2433.677	8283
2435.646	8328
2437.615	8168
2439.583	8326
2441.551	8335
2443.519	8185
2445.486	8252
2447.452	8378
2449.418	8116
2451.383	8269
2453.348	8353
2455.314	8319
2457.278	8238
2459.241	8329
2461.205	8233
2463.167	8254
2465.131	8196
2467.091	8342
2469.052	8200
2471.012	8165
2472.972	8190
2474.932	8108
2476.891	8358
2478.85	8331
2480.808	8258
2482.766	8095
2484.722	8108
2486.68	8161
2488.636	8114
2490.591	8224
2492.546	8229
2494.5	8167
2496.456	8124
2498.41	8168
2500.362	8114
2502.315	8106
2504.266	8057
2506.218	8152
2508.169	8072
2510.121	8201
2512.07	8272
2514.019	8187
2515.968	8148
2517.918	8147
2519.866	8203
2521.813	8159
2523.76	8078
2525.707	8042
2527.653	8117
2529.599	8204
2531.543	8186
2533.489	8157
2535.433	8203
2537.376	8123
2539.32	8273
2541.264	8165
2543.205	8114
2545.147	8115
2547.087	8081
2549.029	8059
2550.969	8143
2552.908	8091
2554.847	8299
2556.786	8154
2558.724	8236
2560.663	8145
2562.6	8079
2564.537	8144
2566.473	7986
2568.408	8227
2570.345	8137
2572.28	8267
2574.214	8169
2576.148	8157
2578.081	8154
2580.014	8243
2581.947	8081
2583.879	8120
2585.81	8021
2587.741	8162
2589.67	8248
2591.602	8189
2593.532	8118
2595.461	8099
2597.388	8115
2599.316	8160
2601.244	8091
2603.172	8009
2605.098	8130
2607.023	8114
2608.949	8008
2610.873	8124
2612.8	8138
2614.723	8258
2616.647	8018
2618.569	8104
2620.493	8050
2622.416	8123
2624.338	8123
2626.258	8136
2628.179	8192
2630.099	8231
2632.019	8124
2633.939	8130
2635.857	8180
2637.775	8066
2639.694	8213
2641.61	8117
2643.528	8184
2645.444	8130
2647.361	8183
2649.276	8169
2651.19	8176
2653.105	8067
2655.019	8122
2656.934	8075
2658.846	8051
2660.758	8099
2662.67	8095
2664.583	8147
2666.493	8133
2668.404	8066
2670.313	8181
2672.223	8122
2674.134	8136
2676.042	8148
2677.95	8131
2679.858	7986
2681.765	8086
2683.673	8037
2685.579	8016
2687.483	8114
2689.389	7999
2691.294	8079
2693.198	8057
2695.104	8078
2697.006	7961
2698.909	8143
2700.811	8079
2702.713	8088
2704.615	8058
2706.516	7963
2708.417	7926
2710.316	7919
2712.216	7977
2714.115	8079
2716.014	8000
2717.913	7919
2719.81	8024
2721.707	8035
2723.603	8153
2725.501	7929
2727.396	8012
2729.292	7901
2731.186	7866
2733.081	7874
2734.976	7939
2736.87	8045
2738.762	7905
2740.653	8051
2742.546	7977
2744.437	7964
2746.329	7909
2748.22	8039
2750.11	7982
2751.999	7982
2753.889	7890
2755.778	8076
2757.666	7846
2759.553	7894
2761.44	7965
2763.328	7980
2765.215	7921
2767.101	7949
2768.986	8002
2770.87	7872
2772.754	8042
2774.638	7972
2776.523	7848
2778.405	7975
2780.288	7924
2782.17	7862
2784.051	7886
2785.934	7915
2787.814	7848
2789.694	7967
2791.574	7873
2793.453	7858
2795.332	7850
2797.212	7900
2799.088	7809
2800.966	7854
2802.843	7858
2804.719	8041
2806.597	7897
2808.471	7817
2810.346	7869
2812.221	7918
2814.094	7772
2815.969	7781
2817.843	7897
2819.714	7885
2821.587	7873
2823.459	7851
2825.329	7821
2827.202	7949
2829.072	7890
2830.942	7967
2832.811	7897
2834.68	7999
2836.549	8065
2838.418	7789
2840.284	7841
2842.152	8013
2844.018	7848
2845.885	7861
2847.751	7866
2849.616	7996
2851.482	8010
2853.345	7941
2855.208	8009
2857.074	8106
2858.937	7977
2860.799	8002
2862.66	8170
2864.522	8013
2866.385	8015
2868.245	8008
2870.104	8176
2871.964	8228
2873.824	8202
2875.683	8242
2877.542	8232
2879.4	8284
2881.257	8244
2883.114	8389
2884.97	8433
2886.827	8329
2888.683	8383
2890.537	8352
2892.392	8333
2894.246	8459
2896.1	8402
2897.954	8386
2899.807	8402
2901.66	8356
2903.51	8219
2905.362	8405
2907.214	8192
2909.065	8359
2910.915	8408
2912.765	8360
2914.613	8375
2916.463	8534
2918.311	8446
2920.158	8528
2922.006	8484
2923.853	8709
2925.698	8519
2927.546	8531
2929.392	8694
2931.236	8658
2933.081	8641
2934.924	8916
2936.77	8771
2938.613	8739
2940.455	8797
2942.298	8813
2944.139	8858
2945.982	9082
2947.823	8897
2949.662	8987
2951.503	9015
2953.342	8656
2955.182	8816
2957.021	8791
2958.858	8894
2960.697	8773
2962.534	8820
2964.37	8761
2966.207	8594
2968.044	8543
2969.879	8535
2971.714	8477
2973.548	8344
2975.383	8391
2977.218	8152
2979.051	8296
2980.883	8182
2982.715	8162
2984.547	8116
2986.379	8273
2988.21	8208
2990.04	8101
2991.87	8075
2993.7	8002
2995.53	7885
2997.359	7909
2999.187	7928
3001.015	7863
3002.842	7961
3004.669	7771
3006.497	7703
3008.323	7836
3010.148	7721
3011.974	7800
3013.797	7734
3015.623	7574
3017.447	7698
3019.27	7462
3021.094	7547
3022.915	7584
3024.737	7555
3026.56	7483
3028.38	7720
3030.201	7540
3032.022	7552
3033.84	7512
3035.662	7538
3037.481	7513
3039.298	7564
3041.117	7448
3042.933	7524
3044.752	7348
3046.568	7410
3048.385	7388
3050.2	7399
3052.016	7364
3053.83	7405
3055.646	7447
3057.46	7378
3059.272	7423
3061.086	7361
3062.898	7403
3064.711	7370
3066.524	7406
3068.335	7420
3070.145	7456
3071.956	7429
3073.766	7411
3075.576	7396
3077.385	7336
3079.193	7393
3081.002	7335
3082.81	7349
3084.618	7198
3086.425	7254
3088.231	7378
3090.036	7245
3091.842	7335
3093.648	7191
3095.452	7313
3097.257	7228
3099.06	7194
3100.863	7213
3102.666	7153
3104.47	7215
3106.272	7189
3108.073	7209
3109.875	7114
3111.676	7165
3113.477	7113
3115.277	7184
3117.077	7286
3118.874	7062
3120.673	7132
3122.473	7106
3124.271	7011
3126.066	7220
3127.863	7035
3129.66	7173
3131.456	7090
3133.252	7173
3135.047	7102
3136.842	7097
3138.635	6953
3140.429	7029
3142.223	6966
3144.016	7082
3145.808	7082
3147.6	7107
3149.392	7075
3151.183	6969
3152.975	7063
3154.765	7018
3156.553	6959
3158.344	7061
3160.132	7029
3161.922	7055
3163.71	6976
3165.497	7157
3167.285	7058
3169.071	7076
3170.858	7050
3172.645	6879
3174.429	7142
3176.214	7022
3177.998	6970
3179.783	6945
3181.568	6873
3183.351	6940
3185.133	7028
3186.915	6987
3188.698	6984
3190.481	6911
3192.261	6897
3194.042	6779
3195.822	6975
3197.601	6857
3199.381	6909
3201.161	7012
3202.939	6945
3204.717	6883
3206.495	7119
3208.272	6891
3210.05	6873
3211.826	6926
3213.602	6832
3215.376	6928
3217.151	6942
3218.927	6916
3220.702	6871
3222.476	6898
3224.249	6888
3226.021	6856
3227.793	6855
3229.567	6987
3231.339	6820
3233.109	6846
3234.88	6749
3236.651	6924
3238.421	6737
3240.191	6885
3241.96	6935
3243.728	6822
3245.497	6940
3247.263	6876
3249.033	6932
3250.799	6859
3252.566	6853
3254.331	6817
3256.097	6807
3257.863	6864
3259.628	6836
3261.392	6911
3263.156	6838
3264.919	6800
3266.683	6803
3268.447	6894
3270.208	6798
3271.969	6739
3273.731	6797
3275.492	6953
3277.253	6941
3279.013	6713
3280.773	6716
3282.532	6850
3284.291	6864
3286.05	6871
3287.808	6802
3289.566	6834
3291.323	6908
3293.079	6862
3294.835	6813
3296.593	6803
3298.348	6844
3300.102	6776
3301.857	6795
3303.611	6744
3305.366	6760
3307.119	6783
3308.872	6824
3310.624	6905
3312.376	6850
3314.129	6765
3315.881	6756
3317.631	6821
3319.38	6735
3321.13	6802
3322.88	6791
3324.631	6803
3326.379	6786
3328.126	6852
3329.875	6776
3331.622	6771
3333.371	6859
3335.116	6655
3336.863	6733
3338.609	6884
3340.353	6744
3342.1	6714
3343.845	6688
3345.588	6769
3347.332	6771
3349.074	6643
3350.817	6682
3352.56	6860
3354.303	6707
3356.043	6683
3357.785	6633
3359.525	6720
3361.268	6597
3363.007	6821
3364.745	6530
3366.485	6480
3368.223	6751
3369.962	6631
3371.701	6606
3373.438	6617
3375.174	6644
3376.911	6605
3378.647	6665
3380.384	6654
3382.118	6639
3383.854	6704
3385.588	6566
3387.322	6562
3389.057	6679
3390.79	6687
3392.522	6545
3394.255	6590
3395.987	6490
3397.719	6521
3399.451	6580
3401.181	6526
3402.911	6478
3404.641	6602
3406.371	6491
3408.101	6673
3409.83	6459
3411.558	6469
3413.285	6580
3415.011	6583
3416.739	6511
3418.467	6513
3420.193	6445
3421.919	6457
3423.644	6532
3425.368	6527
3427.094	6505
3428.818	6513
3430.542	6494
3432.264	6463
3433.987	6597
3435.712	6416
3437.434	6414
3439.155	6401
3440.876	6409
3442.596	6394
3444.317	6455
3446.039	6340
3447.757	6444
3449.477	6506
3451.195	6356
3452.914	6374
3454.632	6472
3456.35	6261
3458.067	6243
3459.784	6307
3461.5	6340
3463.216	6300
3464.932	6286
3466.647	6262
3468.362	6354
3470.076	6169
3471.789	6326
3473.505	6239
3475.217	6390
3476.929	6309
3478.641	6161
3480.354	6286
3482.066	6193
3483.777	6386
3485.487	6169
3487.197	6247
3488.908	6312
3490.617	6310
3492.327	6220
3494.035	6139
3495.743	6128
3497.451	6163
3499.158	6207
3500.866	6219
3502.572	6137
3504.278	6194
3505.984	6149
3507.689	6141
3509.396	6236
3511.1	6166
3512.804	6179
3514.508	6149
3516.211	6181
3517.913	6138
3519.616	6104
3521.319	6108
3523.021	6084
3524.722	6125
3526.422	6060
3528.124	6133
3529.824	6119
3531.524	6174
3533.222	6094
3534.921	5932
3536.62	6033
3538.318	6072
3540.016	6032
3541.714	5943
3543.41	6025
3545.107	6173
3546.803	6100
3548.5	5926
3550.194	6103
3551.889	6042
3553.583	5949
3555.279	5915
3556.972	5959
3558.666	6010
3560.358	5983
3562.051	6092
3563.742	5975
3565.435	6005
3567.126	5917
3568.817	6019
3570.507	5968
3572.197	6051
3573.888	5953
3575.577	5964
3577.265	5927
3578.954	5926
3580.642	5974
3582.329	5845
3584.017	5929
3585.704	5961
3587.391	5912
3589.077	5729
3590.762	5896
3592.449	5985
3594.133	5919
3595.817	5832
3597.501	5982
3599.185	5837
3600.869	5777
3602.552	5827
3604.234	5814
3605.916	5861
3607.598	5857
3609.279	5848
3610.961	5718
3612.642	5856
3614.321	5856
3616	5714
3617.68	5738
3619.36	5775
3621.039	5698
3622.716	5795
3624.394	5739
3626.071	5722
3627.748	5746
3629.425	5752
3631.102	5629
3632.778	5646
3634.452	5661
3636.127	5692
3637.803	5669
3639.477	5652
3641.151	5725
3642.823	5627
3644.497	5651
3646.171	5671
3647.842	5769
3649.515	5518
3651.185	5632
3652.857	5531
3654.527	5656
3656.198	5699
3657.868	5584
3659.537	5513
3661.207	5561
3662.875	5626
3664.544	5559
3666.212	5617
3667.879	5530
3669.546	5572
3671.212	5544
3672.88	5659
3674.546	5647
3676.211	5535
3677.875	5588
3679.541	5576
3681.205	5581
3682.87	5543
3684.533	5634
3686.196	5538
3687.859	5544
3689.521	5572
3691.184	5552
3692.845	5493
3694.507	5511
3696.167	5552
3697.827	5466
3699.487	5582
3701.148	5578
3702.808	5539
3704.466	5643
3706.125	5453
3707.783	5470
3709.442	5503
3711.099	5445
3712.757	5425
3714.412	5382
3716.068	5497
3717.725	5609
3719.381	5541
3721.036	5476
3722.689	5425
3724.344	5492
3725.998	5374
3727.652	5466
3729.305	5573
3730.958	5399
3732.61	5531
3734.262	5461
3735.915	5404
3737.565	5486
3739.217	5332
3740.866	5249
3742.516	5458
3744.165	5349
3745.816	5354
3747.464	5390
3749.113	5391
3750.761	5513
3752.409	5392
3754.057	5388
3755.703	5408
3757.35	5397
3758.996	5381
3760.641	5335
3762.289	5323
3763.933	5261
3765.577	5404
3767.222	5391
3768.865	5411
3770.508	5319
3772.152	5370
3773.796	5305
3775.438	5288
3777.079	5338
3778.721	5340
3780.363	5249
3782.003	5288
3783.643	5329
3785.283	5315
3786.923	5260
3788.563	5200
3790.203	5336
3791.841	5316
3793.479	5134
3795.115	5312
3796.753	5226
3798.391	5228
3800.027	5270
3801.664	5253
3803.299	5219
3804.935	5121
3806.571	5284
3808.206	5170
3809.839	5243
3811.473	5244
3813.107	5282
3814.74	5166
3816.375	5167
3818.006	5257
3819.638	5218
3821.27	5170
3822.9	5139
3824.532	5180
3826.163	5144
3827.792	5086
3829.423	5103
3831.051	5168
3832.682	5113
3834.311	5195
3835.938	5178
3837.566	5092
3839.193	5101
3840.821	5126
3842.448	5111
3844.075	5130
3845.7	5075
3847.325	5105
3848.951	4992
3850.576	5068
3852.201	5201
3853.825	5085
3855.448	5087
3857.072	5067
3858.694	5074
3860.318	5030
3861.939	5018
3863.562	5149
3865.183	4978
3866.804	5082
3868.426	5027
3870.045	5040
3871.666	5024
3873.285	5005
3874.904	5089
3876.524	5043
3878.142	5090
3879.76	5105
3881.378	5098
3882.995	4945
3884.612	5025
3886.229	5035
3887.845	5086
3889.461	5082
3891.076	5073
3892.691	5029
3894.307	4961
3895.922	4932
3897.536	5102
3899.149	4964
3900.761	4966
3902.374	5021
3903.988	4954
3905.6	5002
3907.212	4968
3908.822	5014
3910.433	4967
3912.045	4905
3913.655	5017
3915.265	4984
3916.875	5007
3918.483	5001
3920.093	4860
3921.702	4982
3923.309	4889
3924.917	4900
3926.523	4953
3928.13	4984
3929.739	4931
3931.344	4920
3932.95	4941
3934.555	4993
3936.159	4915
3937.766	4897
3939.369	4855
3940.974	4984
3942.577	4999
3944.181	4923
3945.783	4871
3947.386	4861
3948.989	4835
3950.59	4882
3952.191	4884
3953.791	4889
3955.394	4912
3956.994	4849
3958.593	4910
3960.192	4750
3961.791	4824
3963.392	4853
3964.99	4880
3966.588	4824
3968.185	4834
3969.782	4807
3971.379	4800
3972.976	4815
3974.572	4756
3976.168	4754
3977.763	4863
3979.358	4814
3980.954	4802
3982.548	4807
3984.142	4628
3985.736	4749
3987.329	4708
3988.922	4692
3990.516	4794
3992.108	4721
3993.698	4820
3995.29	4671
3996.881	4678
3998.473	4697
4000.064	4551
4001.653	4792
4003.242	4678
4004.832	4715
4006.422	4656
4008.01	4653
4009.598	4577
4011.186	4703
4012.773	4655
4014.36	4669
4015.947	4668
4017.534	4642
4019.119	4635
4020.705	4623
4022.291	4608
4023.876	4573
4025.461	4580
4027.044	4622
4028.627	4608
4030.211	4615
4031.795	4488
4033.378	4550
4034.96	4600
4036.542	4538
4038.124	4490
4039.704	4504
4041.286	4594
4042.867	4464
4044.447	4563
4046.026	4586
4047.606	4557
4049.187	4558
4050.765	4515
4052.343	4533
4053.92	4455
4055.498	4521
4057.076	4523
4058.654	4440
4060.23	4514
4061.806	4526
4063.381	4375
4064.957	4440
4066.533	4473
4068.107	4468
4069.682	4529
4071.256	4469
4072.829	4507
4074.404	4539
4075.977	4448
4077.549	4471
4079.121	4415
4080.693	4498
4082.265	4418
4083.836	4441
4085.407	4495
4086.977	4499
4088.547	4468
4090.117	4478
4091.687	4497
4093.256	4450
4094.825	4496
4096.392	4481
4097.96	4514
4099.528	4421
4101.097	4500
4102.663	4457
4104.229	4385
4105.795	4484
4107.361	4382
4108.928	4313
4110.493	4421
4112.058	4428
4113.621	4351
4115.186	4308
4116.75	4306
4118.313	4430
4119.876	4327
4121.438	4387
4123	4328
4124.562	4346
4126.125	4375
4127.686	4339
4129.246	4337
4130.807	4321
4132.367	4261
4133.927	4406
4135.486	4253
4137.046	4227
4138.604	4297
4140.162	4233
4141.72	4231
4143.279	4268
4144.836	4385
4146.393	4261
4147.949	4332
4149.505	4285
4151.062	4278
4152.617	4275
4154.172	4155
4155.727	4213
4157.281	4338
4158.836	4222
4160.39	4266
4161.943	4169
4163.496	4306
4165.048	4213
4166.601	4185
4168.154	4243
4169.706	4205
4171.257	4268
4172.808	4141
4174.358	4212
4175.909	4219
4177.458	4126
4179.008	4152
4180.558	4203
4182.106	4101
4183.655	4195
4185.204	4201
4186.751	4109
4188.298	4112
4189.845	4094
4191.392	4059
4192.939	4167
4194.485	4125
4196.031	4174
4197.576	4205
4199.121	4072
4200.666	4060
4202.211	4151
4203.754	4147
4205.298	4037
4206.84	4140
4208.384	4139
4209.927	4036
4211.47	4056
4213.011	3991
4214.552	4156
4216.094	4042
4217.635	4186
4219.175	4210
4220.716	4121
4222.255	4101
4223.793	4104
4225.335	4059
4226.873	4015
4228.411	4076
4229.948	4064
4231.486	4058
4233.024	4074
4234.562	4072
4236.098	4056
4237.634	4033
4239.169	4017
4240.705	3993
4242.241	4001
4243.776	4017
4245.31	4011
4246.844	4027
4248.378	4026
4249.911	3981
4251.445	4059
4252.978	4034
4254.51	3913
4256.042	4062
4257.574	4049
4259.107	3995
4260.638	4012
4262.169	4025
4263.699	3935
4265.228	3979
4266.759	4017
4268.289	3943
4269.818	3962
4271.345	3956
4272.874	3823
4274.402	3924
4275.931	3936
4277.458	4086
4278.985	4019
4280.512	3968
4282.037	3950
4283.564	3935
4285.089	3858
4286.615	3900
4288.139	3915
4289.664	3840
4291.187	3856
4292.712	3864
4294.235	3924
4295.759	3945
4297.281	3960
4298.804	3884
4300.327	3898
4301.849	3779
4303.37	3862
4304.891	3860
4306.412	3916
4307.933	3779
4309.453	3903
4310.973	3927
4312.492	3949
