398.1873	6212
400.7097	6354
403.2336	6390
405.7547	6253
408.2751	6259
410.7948	6379
413.3138	6372
415.83	6461
418.3497	6406
420.8666	6459
423.3829	6613
425.8985	6634
428.4133	6589
430.9275	6767
433.441	6645
435.9538	6715
438.4639	6766
440.9753	6750
443.4881	6818
445.9982	6667
448.5055	6727
451.0142	6675
453.5201	6679
456.0274	6688
458.5361	6795
461.04	6764
463.5453	6777
466.0478	6697
468.5517	6771
471.0549	6719
473.5574	6792
476.0572	6720
478.5584	6732
481.0568	6943
483.5545	6823
486.0557	6854
488.5521	6892
491.0478	6888
493.5449	6887
496.0392	6979
498.5349	6876
501.0299	6964
503.5222	7033
506.0139	6940
508.5048	7041
510.9991	6981
513.4887	7215
515.9777	6904
518.4659	6991
520.9534	6999
523.4403	7061
525.9306	7097
528.4161	6984
530.9009	7062
533.3851	7050
535.8687	7118
538.3535	7071
540.8356	6932
543.3171	7003
545.7979	7147
548.278	7124
550.7595	7050
553.2383	7080
555.7144	7165
558.1918	7121
560.6685	7108
563.1446	7161
565.6221	7169
568.0968	7193
570.5688	7247
573.0422	7184
575.515	7300
577.989	7316
580.4584	7406
582.9291	7302
585.3991	7351
587.8685	7289
590.3352	7417
592.8052	7318
595.2706	7272
597.7372	7368
600.2033	7337
602.6666	7261
605.1334	7294
607.5953	7380
610.0587	7269
612.5193	7284
614.9814	7464
617.4427	7358
619.9034	7278
622.3615	7194
624.8208	7277
627.2775	7119
629.7335	7299
632.1929	7276
634.6476	7256
637.1016	7278
639.5569	7233
642.0096	7360
644.4637	7337
646.9151	7289
649.3678	7414
651.8179	7370
654.2672	7348
656.7159	7357
659.166	7393
661.6154	7331
664.0622	7407
666.5082	7500
668.9537	7262
671.4005	7629
673.8445	7458
676.288	7339
678.7308	7606
681.1729	7548
683.6163	7590
686.0572	7491
688.4973	7603
690.9368	7562
693.3757	7655
695.8138	7540
698.2534	7645
700.6902	7380
703.1245	7689
705.56	7638
707.9949	7720
710.4311	7649
712.8647	7677
715.2957	7647
717.7279	7815
720.1595	7580
722.5905	7714
725.0208	7715
727.4505	7678
729.8795	7778
732.3058	7814
734.7336	7732
737.1626	7893
739.587	7899
742.0128	7868
744.4359	7823
746.8604	7934
749.2841	7972
751.7073	7921
754.1278	8018
756.5496	8026
758.9688	8081
761.3893	8094
763.8093	8078
766.2285	8148
768.6451	8063
771.0611	8116
773.4784	8124
775.895	8204
778.3091	7970
780.7244	8093
783.1371	7941
785.5493	8066
787.9626	8074
790.3754	8077
792.7856	8109
795.1951	8159
797.6039	8061
800.0121	7966
802.4236	7942
804.8306	8108
807.2369	8104
809.6425	8327
812.0475	8102
814.4538	8175
816.8575	7987
819.2606	8241
821.663	8165
824.0648	8231
826.4659	8159
828.8683	8100
831.2682	8079
833.6674	8156
836.066	8273
838.4639	8355
840.8632	8322
843.2579	8164
845.6539	8293
848.0493	8222
850.444	8268
852.84	8264
855.2315	8189
857.6243	8283
860.0165	8323
862.4081	8239
864.797	8248
867.1892	8374
869.5789	8363
871.9659	8344
874.3542	8183
876.74	8250
879.129	8314
881.5155	8288
883.8994	8217
886.2845	8292
888.6671	8363
891.051	8370
893.4343	8364
895.8169	8353
898.197	8331
900.5783	8375
902.9571	8452
905.3372	8505
907.7167	8303
910.0936	8397
912.4698	8420
914.8474	8599
917.2244	8634
919.5987	8535
921.9744	8668
924.3475	8679
926.72	8694
929.0918	8612
931.4669	8808
933.8375	8820
936.2074	8651
938.5767	8815
940.9454	8875
943.3154	8814
945.6829	9113
948.0497	9224
950.4178	9427
952.7833	9542
955.1483	9781
957.5145	9902
959.8782	10058
962.2412	10271
964.6036	9927
966.9655	9635
969.3266	9514
971.6871	9159
974.0471	9049
976.4064	8921
978.765	8754
981.125	8755
983.4824	8742
985.8373	8756
988.1935	8626
990.549	8618
992.9039	8715
995.2602	8562
997.6119	8626
999.965	8717
1002.317	8681
1004.667	8632
1007.02	8564
1009.371	8773
1011.719	8771
1014.068	8574
1016.415	8766
1018.765	8664
1021.111	8673
1023.458	8654
1025.804	8714
1028.147	8772
1030.49	8786
1032.837	8834
1035.179	8801
1037.522	8832
1039.862	8746
1042.204	8812
1044.546	8913
1046.884	8831
1049.224	8872
1051.562	8744
1053.899	8842
1056.237	8858
1058.575	8789
1060.91	8962
1063.244	8915
1065.58	8981
1067.913	9018
1070.248	8923
1072.579	9061
1074.911	8899
1077.242	8846
1079.572	8964
1081.905	8920
1084.234	8901
1086.562	8829
1088.89	8821
1091.217	8887
1093.544	8800
1095.871	8963
1098.197	8711
1100.521	8864
1102.845	8772
1105.169	8912
1107.491	8964
1109.814	8951
1112.135	8794
1114.456	8849
1116.776	8844
1119.096	8827
1121.415	8827
1123.734	9017
1126.052	8801
1128.369	8850
1130.686	8917
1133.002	8874
1135.318	8830
1137.632	9075
1139.945	9021
1142.258	8872
1144.573	8937
1146.884	8909
1149.196	8875
1151.505	9036
1153.816	8844
1156.124	9027
1158.435	8930
1160.742	8900
1163.051	8931
1165.356	9060
1167.663	9011
1169.97	8919
1172.276	9033
1174.579	8992
1176.881	8822
1179.186	8885
1181.487	8905
1183.79	8871
1186.092	9011
1188.392	8990
1190.691	8909
1192.991	8897
1195.291	8853
1197.588	8796
1199.885	8999
1202.181	8816
1204.479	8855
1206.775	9000
1209.07	9031
1211.363	9035
1213.656	8947
1215.949	8981
1218.241	8986
1220.534	8939
1222.825	8984
1225.115	9152
1227.405	9101
1229.693	9234
1231.984	9039
1234.271	9039
1236.558	9016
1238.845	9116
1241.131	9088
1243.416	9131
1245.703	9178
1247.987	9250
1250.269	9175
1252.552	9210
1254.834	9323
1257.118	9312
1259.399	9250
1261.678	9191
1263.958	9182
1266.237	9227
1268.516	9101
1270.794	9165
1273.072	9264
1275.347	9222
1277.624	9090
1279.899	9285
1282.175	9238
1284.449	9118
1286.722	9123
1288.995	9217
1291.266	9071
1293.54	9219
1295.81	9200
1298.081	9034
1300.35	9171
1302.62	9100
1304.889	9076
1307.156	9166
1309.425	9101
1311.69	9061
1313.957	9076
1316.222	9140
1318.488	9126
1320.751	9091
1323.016	9232
1325.278	9127
1327.54	9192
1329.803	9199
1332.065	9091
1334.325	9093
1336.584	9090
1338.843	9110
1341.101	9061
1343.36	9048
1345.617	9149
1347.876	9217
1350.131	9066
1352.387	9336
1354.643	9247
1356.897	9044
1359.151	9079
1361.403	9275
1363.656	9288
1365.909	9251
1368.16	9253
1370.409	9084
1372.659	9204
1374.909	9318
1377.157	9267
1379.407	9236
1381.655	9222
1383.9	9313
1386.147	9252
1388.393	9274
1390.64	9177
1392.885	9313
1395.127	9340
1397.37	9402
1399.614	9320
1401.854	9419
1404.098	9415
1406.339	9314
1408.578	9393
1410.818	9551
1413.056	9265
1415.297	9379
1417.533	9461
1419.771	9574
1422.006	9445
1424.243	9500
1426.479	9511
1428.715	9291
1430.948	9644
1433.182	9504
1435.414	9350
1437.647	9431
1439.88	9476
1442.11	9447
1444.342	9496
1446.571	9590
1448.799	9571
1451.029	9494
1453.258	9531
1455.485	9494
1457.711	9556
1459.937	9524
1462.164	9620
1464.39	9628
1466.614	9383
1468.838	9558
1471.06	9454
1473.283	9516
1475.506	9478
1477.727	9333
1479.949	9429
1482.169	9413
1484.389	9190
1486.609	9309
1488.828	9378
1491.045	9372
1493.261	9230
1495.477	9227
1497.693	9183
1499.91	9310
1502.125	9441
1504.339	9292
1506.553	9351
1508.766	9341
1510.979	9278
1513.191	9165
1515.402	9233
1517.613	9192
1519.823	9295
1522.033	9302
1524.242	9170
1526.451	9108
1528.657	9233
1530.865	9383
1533.072	9253
1535.278	9242
1537.484	9467
1539.687	9242
1541.892	9287
1544.096	9359
1546.299	9159
1548.502	9262
1550.703	9479
1552.905	9344
1555.104	9349
1557.303	9465
1559.505	9348
1561.703	9283
1563.902	9507
1566.099	9435
1568.295	9487
1570.494	9475
1572.689	9472
1574.883	9548
1577.079	9510
1579.272	9437
1581.467	9468
1583.659	9534
1585.853	9437
1588.044	9441
1590.234	9345
1592.424	9581
1594.615	9614
1596.806	9643
1598.994	9484
1601.182	9657
1603.369	9609
1605.557	9549
1607.744	9617
1609.929	9662
1612.114	9540
1614.298	9713
1616.482	9615
1618.667	9521
1620.85	9736
1623.032	9650
1625.214	9634
1627.395	9708
1629.575	9671
1631.755	9625
1633.935	9657
1636.114	9779
1638.292	9622
1640.471	9805
1642.647	9692
1644.823	9662
1647	9636
1649.175	9660
1651.348	9779
1653.525	9555
1655.698	9566
1657.87	9819
1660.043	9698
1662.213	9672
1664.387	9641
1666.558	9785
1668.727	9632
1670.896	9831
1673.064	9716
1675.233	9746
1677.401	9604
1679.569	9665
1681.735	9729
1683.902	9715
1686.066	9677
1688.233	9768
1690.397	9854
1692.559	9654
1694.723	9786
1696.885	9818
1699.048	9624
1701.21	9659
1703.37	9610
1705.53	9639
1707.689	9581
1709.849	9513
1712.009	9627
1714.166	9554
1716.323	9758
1718.479	9738
1720.634	9670
1722.793	9580
1724.948	9726
1727.102	9596
1729.255	9642
1731.408	9626
1733.562	9600
1735.714	9698
1737.865	9703
1740.016	9597
1742.166	9709
1744.316	9668
1746.467	9449
1748.616	9729
1750.764	9821
1752.911	9585
1755.056	9577
1757.205	9598
1759.35	9890
1761.496	9572
1763.641	9821
1765.785	9726
1767.927	9741
1770.072	9653
1772.214	9641
1774.355	9658
1776.496	9671
1778.637	9688
1780.778	9767
1782.918	9736
1785.057	9766
1787.194	9699
1789.333	9743
1791.472	9634
1793.608	9706
1795.745	9725
1797.879	9728
1800.015	9800
1802.148	9825
1804.284	9777
1806.417	9803
1808.548	9694
1810.682	9919
1812.812	9706
1814.946	9617
1817.075	9717
1819.205	9669
1821.335	9716
1823.463	9720
1825.59	9804
1827.721	9485
1829.847	9770
1831.973	9620
1834.098	9740
1836.223	9825
1838.351	9724
1840.475	9548
1842.598	9673
1844.721	9646
1846.843	9714
1848.966	9759
1851.087	9769
1853.21	9529
1855.33	9589
1857.449	9692
1859.568	9627
1861.688	9614
1863.806	9558
1865.924	9797
1868.039	9747
1870.155	9538
1872.273	9602
1874.388	9609
1876.503	9699
1878.617	9797
1880.73	9695
1882.844	9636
1884.956	9641
1887.068	9775
1889.18	9777
1891.291	9755
1893.4	9789
1895.511	9786
1897.621	9707
1899.73	9784
1901.837	9734
1903.944	9719
1906.053	9797
1908.159	9825
1910.265	9825
1912.369	9986
1914.474	9782
1916.577	9844
1918.683	9776
1920.785	9740
1922.888	9912
1924.989	9874
1927.091	9911
1929.193	9929
1931.294	9822
1933.393	9876
1935.493	9927
1937.59	9938
1939.689	9783
1941.788	9905
1943.884	9954
1945.98	9911
1948.077	9871
1950.171	9907
1952.267	9905
1954.361	9984
1956.455	9963
1958.548	9835
1960.64	9759
1962.733	9802
1964.824	9963
1966.915	9990
1969.005	9820
1971.096	9829
1973.185	10022
1975.275	9788
1977.363	9810
1979.45	9736
1981.537	9941
1983.623	9831
1985.711	9899
1987.796	9723
1989.881	9867
1991.965	9834
1994.047	9848
1996.132	9871
1998.215	9757
2000.297	9680
2002.378	9851
2004.46	9633
2006.54	9708
2008.62	9759
2010.7	9810
2012.779	9760
2014.858	9803
2016.934	9759
2019.013	9778
2021.09	9772
2023.165	9785
2025.241	9784
2027.317	9758
2029.39	9742
2031.466	9765
2033.538	9696
2035.612	9841
2037.683	9722
2039.755	9912
2041.827	9877
2043.898	9874
2045.968	9597
2048.038	9773
2050.106	9715
2052.177	9726
2054.244	9726
2056.313	9786
2058.379	9738
2060.444	9751
2062.511	9766
2064.577	9707
2066.641	9972
2068.705	9761
2070.77	9894
2072.832	9916
2074.896	9901
2076.958	9871
2079.02	9786
2081.081	9929
2083.141	9726
2085.2	9819
2087.261	9794
2089.319	9690
2091.377	9848
2093.435	9813
2095.492	9758
2097.552	9829
2099.607	9960
2101.663	9843
2103.718	9732
2105.771	9871
2107.826	9768
2109.879	9822
2111.932	9903
2113.985	9875
2116.037	9770
2118.088	9845
2120.141	9770
2122.191	9766
2124.239	9893
2126.288	9759
2128.337	9810
2130.387	9705
2132.434	9923
2134.481	9760
2136.528	9747
2138.574	9866
2140.618	9733
2142.665	9675
2144.71	9681
2146.753	9827
2148.797	9799
2150.838	9771
2152.883	9740
2154.923	9855
2156.965	9662
2159.007	9710
2161.046	9799
2163.086	9550
2165.126	9772
2167.163	9646
2169.202	9635
2171.239	9747
2173.277	9764
2175.314	9716
2177.349	9669
2179.385	9677
2181.42	9683
2183.453	9764
2185.49	9694
2187.522	9592
2189.555	9637
2191.586	9698
2193.619	9589
2195.651	9657
2197.682	9615
2199.711	9805
2201.74	9563
2203.769	9564
2205.799	9736
2207.828	9563
2209.855	9618
2211.882	9643
2213.908	9726
2215.934	9530
2217.961	9600
2219.986	9394
2222.01	9680
2224.034	9558
2226.057	9612
2228.08	9662
2230.104	9587
2232.124	9594
2234.145	9631
2236.166	9614
2238.186	9672
2240.207	9509
2242.227	9572
2244.244	9602
2246.262	9609
2248.28	9517
2250.299	9662
2252.314	9587
2254.33	9517
2256.346	9528
2258.36	9729
2260.375	9677
2262.391	9543
2264.403	9457
2266.416	9492
2268.427	9606
2270.44	9633
2272.453	9571
2274.463	9553
2276.474	9425
2278.483	9599
2280.493	9647
2282.501	9643
2284.51	9502
2286.518	9566
2288.524	9548
2290.532	9648
2292.537	9573
2294.544	9663
2296.55	9531
2298.554	9704
2300.557	9655
2302.562	9568
2304.566	9543
2306.568	9453
2308.569	9444
2310.572	9533
2312.573	9514
2314.573	9478
2316.574	9572
2318.573	9479
2320.571	9587
2322.571	9379
2324.569	9428
2326.567	9600
2328.564	9668
2330.56	9427
2332.556	9421
2334.551	9440
2336.546	9492
2338.542	9519
2340.535	9447
2342.529	9452
2344.521	9543
2346.512	9263
2348.505	9300
2350.497	9321
2352.487	9455
2354.478	9442
2356.468	9369
2358.457	9464
2360.446	9475
2362.434	9404
2364.422	9427
2366.408	9387
2368.395	9343
2370.383	9503
2372.369	9318
2374.353	9316
2376.338	9360
2378.321	9379
2380.307	9336
2382.29	9313
2384.272	9361
2386.254	9434
2388.235	9310
2390.218	9369
2392.198	9453
2394.179	9284
2396.157	9180
2398.137	9307
2400.115	9221
2402.095	9383
2404.072	9423
2406.048	9239
2408.026	9285
2410.001	9180
2411.977	9381
2413.953	9333
2415.927	9313
2417.9	9335
2419.875	9208
2421.847	9379
2423.821	9309
2425.792	9181
2427.763	9330
2429.736	9201
2431.706	9410
2433.677	9211
2435.646	9293
2437.615	9308
2439.583	9077
2441.551	9234
2443.519	9413
2445.486	9395
2447.452	9281
2449.418	9310
2451.383	9354
2453.348	9171
2455.314	9260
2457.278	9099
2459.241	9286
2461.205	9270
2463.167	9192
2465.131	9262
2467.091	9249
2469.052	9250
2471.012	9213
2472.972	9206
2474.932	9158
2476.891	9278
2478.85	9167
2480.808	9222
2482.766	9265
2484.722	9315
2486.68	9177
2488.636	9348
2490.591	9157
2492.546	9130
2494.5	9129
2496.456	9178
2498.41	9120
2500.362	8986
2502.315	9192
2504.266	9119
2506.218	9101
2508.169	9198
2510.121	9178
2512.07	9171
2514.019	9171
2515.968	9129
2517.918	9014
2519.866	9150
2521.813	9120
2523.76	9191
2525.707	9119
2527.653	9109
2529.599	9188
2531.543	9128
2533.489	9240
2535.433	8989
2537.376	9074
2539.32	9196
2541.264	9139
2543.205	9109
2545.147	9153
2547.087	9106
2549.029	9150
2550.969	9109
2552.908	9173
2554.847	9015
2556.786	9203
2558.724	9089
2560.663	9051
2562.6	9094
2564.537	9192
2566.473	9120
2568.408	9035
2570.345	9254
2572.28	9229
2574.214	9111
2576.148	9157
2578.081	9114
2580.014	9184
2581.947	8961
2583.879	9195
2585.81	9137
2587.741	9167
2589.67	9063
2591.602	9157
2593.532	9100
2595.461	9051
2597.388	9087
2599.316	9146
2601.244	8996
2603.172	9108
2605.098	9125
2607.023	9161
2608.949	9169
2610.873	9332
2612.8	9424
2614.723	9027
2616.647	9100
2618.569	9161
2620.493	9216
2622.416	9288
2624.338	9213
2626.258	9119
2628.179	9291
2630.099	9118
2632.019	9258
2633.939	9246
2635.857	9079
2637.775	9203
2639.694	9121
2641.61	9244
2643.528	9148
2645.444	9123
2647.361	9132
2649.276	9254
2651.19	9242
2653.105	9112
2655.019	9263
2656.934	9024
2658.846	9156
2660.758	9266
2662.67	9106
2664.583	9215
2666.493	9172
2668.404	9196
2670.313	9184
2672.223	9192
2674.134	9072
2676.042	9057
2677.95	9162
2679.858	9059
2681.765	9287
2683.673	9014
2685.579	9068
2687.483	9167
2689.389	9112
2691.294	9093
2693.198	9095
2695.104	8991
2697.006	9062
2698.909	9141
2700.811	9012
2702.713	8982
2704.615	9030
2706.516	9017
2708.417	9025
2710.316	9065
2712.216	9066
2714.115	9118
2716.014	9186
2717.913	9091
2719.81	8988
2721.707	8959
2723.603	9067
2725.501	8990
2727.396	8840
2729.292	9057
2731.186	9035
2733.081	9061
2734.976	8840
2736.87	9038
2738.762	8887
2740.653	8977
2742.546	8883
2744.437	9023
2746.329	8985
2748.22	8853
2750.11	9013
2751.999	8982
2753.889	8908
2755.778	8996
2757.666	9090
2759.553	8977
2761.44	8920
2763.328	9083
2765.215	8913
2767.101	8886
2768.986	8887
2770.87	8897
2772.754	8834
2774.638	8989
2776.523	8981
2778.405	8946
2780.288	8864
2782.17	8987
2784.051	8826
2785.934	8951
2787.814	8970
2789.694	8895
2791.574	8955
2793.453	8943
2795.332	8987
2797.212	8981
2799.088	8830
2800.966	9083
2802.843	8850
2804.719	8774
2806.597	8814
2808.471	8848
2810.346	8792
2812.221	8840
2814.094	8892
2815.969	8850
2817.843	8773
2819.714	8784
2821.587	8842
2823.459	8827
2825.329	8890
2827.202	8847
2829.072	8684
2830.942	8884
2832.811	8812
2834.68	8828
2836.549	8917
2838.418	8790
2840.284	9007
2842.152	9043
2844.018	8908
2845.885	8910
2847.751	8817
2849.616	8897
2851.482	8855
2853.345	8886
2855.208	8804
2857.074	8962
2858.937	9046
2860.799	9187
2862.66	8980
2864.522	8941
2866.385	9033
2868.245	9031
2870.104	9102
2871.964	9040
2873.824	9197
2875.683	9060
2877.542	9286
2879.4	9164
2881.257	9239
2883.114	9303
2884.97	9471
2886.827	9149
2888.683	9367
2890.537	9294
2892.392	9363
2894.246	9406
2896.1	9265
2897.954	9262
2899.807	9293
2901.66	9337
2903.51	9375
2905.362	9203
2907.214	9176
2909.065	9260
2910.915	9366
2912.765	9382
2914.613	9495
2916.463	9412
2918.311	9489
2920.158	9475
2922.006	9659
2923.853	9584
2925.698	9576
2927.546	9541
2929.392	9612
2931.236	9770
2933.081	9731
2934.924	9667
2936.77	9860
2938.613	9692
2940.455	10017
2942.298	9967
2944.139	10020
2945.982	10104
2947.823	10019
2949.662	9975
2951.503	9916
2953.342	9723
2955.182	9834
2957.021	9677
2958.858	9982
2960.697	9738
2962.534	9633
2964.37	9745
2966.207	9658
2968.044	9482
2969.879	9453
2971.714	9399
2973.548	9283
2975.383	9309
2977.218	9338
2979.051	9212
2980.883	9218
2982.715	9234
2984.547	9354
2986.379	9073
2988.21	9116
2990.04	9263
2991.87	8999
2993.7	8968
2995.53	8987
2997.359	9008
2999.187	8894
3001.015	8830
3002.842	8819
3004.669	8743
3006.497	8828
3008.323	8748
3010.148	8638
3011.974	8643
3013.797	8612
3015.623	8723
3017.447	8531
3019.27	8646
3021.094	8478
3022.915	8583
3024.737	8516
3026.56	8505
3028.38	8653
3030.201	8493
3032.022	8542
3033.84	8554
3035.662	8371
3037.481	8450
3039.298	8420
3041.117	8374
3042.933	8414
3044.752	8473
3046.568	8485
3048.385	8291
3050.2	8543
3052.016	8377
3053.83	8396
3055.646	8369
3057.46	8413
3059.272	8369
3061.086	8354
3062.898	8407
3064.711	8433
3066.524	8432
3068.335	8408
3070.145	8373
3071.956	8418
3073.766	8337
3075.576	8348
3077.385	8270
3079.193	8439
3081.002	8261
3082.81	8316
3084.618	8300
3086.425	8159
3088.231	8273
3090.036	8118
3091.842	8262
3093.648	8196
3095.452	8275
3097.257	8207
3099.06	8163
3100.863	8171
3102.666	8126
3104.47	8237
3106.272	8142
3108.073	8273
3109.875	8123
3111.676	8233
3113.477	8090
3115.277	8269
3117.077	8123
3118.874	8239
3120.673	8029
3122.473	8128
3124.271	8078
3126.066	8031
3127.863	8108
3129.66	8036
3131.456	7945
3133.252	8067
3135.047	7995
3136.842	8039
3138.635	8162
3140.429	8032
3142.223	8093
3144.016	8018
3145.808	8098
3147.6	8079
3149.392	7936
3151.183	8029
3152.975	8038
3154.765	8115
3156.553	7942
3158.344	8077
3160.132	7924
3161.922	7895
3163.71	7937
3165.497	7941
3167.285	7827
3169.071	7904
3170.858	8026
3172.645	8025
3174.429	7888
3176.214	7936
3177.998	7813
3179.783	7979
3181.568	7899
3183.351	7922
3185.133	7944
3186.915	7813
3188.698	7946
3190.481	7742
3192.261	7847
3194.042	7889
3195.822	7884
3197.601	7804
3199.381	7784
3201.161	7974
3202.939	7942
3204.717	7924
3206.495	7823
3208.272	7760
3210.05	7872
3211.826	7829
3213.602	7867
3215.376	7728
3217.151	7838
3218.927	7754
3220.702	7880
3222.476	7880
3224.249	7862
3226.021	7796
3227.793	7759
3229.567	7713
3231.339	7744
3233.109	7830
3234.88	7825
3236.651	7796
3238.421	7785
3240.191	7897
3241.96	7790
3243.728	7911
3245.497	7791
3247.263	7810
3249.033	7836
3250.799	7767
3252.566	7830
3254.331	7850
3256.097	7840
3257.863	7846
3259.628	7691
3261.392	7843
3263.156	7729
3264.919	7752
3266.683	7825
3268.447	7937
3270.208	7735
3271.969	7842
3273.731	7744
3275.492	7830
3277.253	7745
3279.013	7860
3280.773	7807
3282.532	7817
3284.291	7844
3286.05	7743
3287.808	7698
3289.566	7866
3291.323	7982
3293.079	7743
3294.835	7626
3296.593	7767
3298.348	7697
3300.102	7795
3301.857	7747
3303.611	7839
3305.366	7734
3307.119	7700
3308.872	7684
3310.624	7713
3312.376	7646
3314.129	7676
3315.881	7651
3317.631	7811
3319.38	7686
3321.13	7685
3322.88	7671
3324.631	7737
3326.379	7839
3328.126	7665
3329.875	7665
3331.622	7715
3333.371	7686
3335.116	7705
3336.863	7737
3338.609	7665
3340.353	7725
3342.1	7629
3343.845	7568
3345.588	7717
3347.332	7614
3349.074	7576
3350.817	7644
3352.56	7689
3354.303	7667
3356.043	7609
3357.785	7635
3359.525	7670
3361.268	7544
3363.007	7589
3364.745	7596
3366.485	7651
3368.223	7579
3369.962	7679
3371.701	7538
3373.438	7604
3375.174	7607
3376.911	7579
3378.647	7457
3380.384	7588
3382.118	7464
3383.854	7612
3385.588	7434
3387.322	7511
3389.057	7494
3390.79	7555
3392.522	7531
3394.255	7436
3395.987	7379
3397.719	7452
3399.451	7590
3401.181	7583
3402.911	7484
3404.641	7525
3406.371	7464
3408.101	7460
3409.83	7394
3411.558	7331
3413.285	7540
3415.011	7531
3416.739	7428
3418.467	7419
3420.193	7407
3421.919	7403
3423.644	7289
3425.368	7459
3427.094	7295
3428.818	7331
3430.542	7428
3432.264	7434
3433.987	7410
3435.712	7328
3437.434	7327
3439.155	7317
3440.876	7212
3442.596	7290
3444.317	7310
3446.039	7410
3447.757	7283
3449.477	7271
3451.195	7217
3452.914	7420
3454.632	7249
3456.35	7281
3458.067	7305
3459.784	7223
3461.5	7280
3463.216	7181
3464.932	7214
3466.647	7269
3468.362	7161
3470.076	7204
3471.789	7110
3473.505	7330
3475.217	7135
3476.929	7083
3478.641	7125
3480.354	7119
3482.066	7141
3483.777	7194
3485.487	7166
3487.197	7009
3488.908	7072
3490.617	7075
3492.327	6981
3494.035	7134
3495.743	7107
3497.451	7090
3499.158	7126
3500.866	7151
3502.572	6971
3504.278	6913
3505.984	7001
3507.689	7059
3509.396	7061
3511.1	7006
3512.804	7002
3514.508	7054
3516.211	6970
3517.913	6974
3519.616	6996
3521.319	7077
3523.021	6888
3524.722	6919
3526.422	6998
3528.124	6953
3529.824	7010
3531.524	7059
3533.222	6781
3534.921	6976
3536.62	6915
3538.318	7080
3540.016	6819
3541.714	7007
3543.41	6920
3545.107	6911
3546.803	6884
3548.5	6739
3550.194	7009
3551.889	7033
3553.583	6922
3555.279	6810
3556.972	6948
3558.666	6801
3560.358	6847
3562.051	6861
3563.742	6875
3565.435	6838
3567.126	6892
3568.817	6809
3570.507	6854
3572.197	6841
3573.888	6937
3575.577	6819
3577.265	6799
3578.954	6762
3580.642	6795
3582.329	6879
3584.017	6808
3585.704	6730
3587.391	6734
3589.077	6848
3590.762	6605
3592.449	6750
3594.133	6621
3595.817	6620
3597.501	6692
3599.185	6732
3600.869	6641
3602.552	6766
3604.234	6584
3605.916	6743
3607.598	6670
3609.279	6646
3610.961	6696
3612.642	6633
3614.321	6610
3616	6577
3617.68	6570
3619.36	6635
3621.039	6557
3622.716	6586
3624.394	6499
3626.071	6545
3627.748	6607
3629.425	6575
3631.102	6535
3632.778	6581
3634.452	6529
3636.127	6489
3637.803	6568
3639.477	6466
3641.151	6509
3642.823	6486
3644.497	6525
3646.171	6474
3647.842	6371
3649.515	6450
3651.185	6395
3652.857	6400
3654.527	6459
3656.198	6426
3657.868	6375
3659.537	6509
3661.207	6424
3662.875	6376
3664.544	6429
3666.212	6417
3667.879	6315
3669.546	6337
3671.212	6415
3672.88	6395
3674.546	6398
3676.211	6482
3677.875	6343
3679.541	6378
3681.205	6313
3682.87	6359
3684.533	6445
3686.196	6381
3687.859	6491
3689.521	6295
3691.184	6193
3692.845	6406
3694.507	6321
3696.167	6417
3697.827	6412
3699.487	6363
3701.148	6354
3702.808	6250
3704.466	6337
3706.125	6317
3707.783	6314
3709.442	6206
3711.099	6264
3712.757	6331
3714.412	6221
3716.068	6242
3717.725	6243
3719.381	6247
3721.036	6348
3722.689	6241
3724.344	6395
3725.998	6188
3727.652	6257
3729.305	6251
3730.958	6257
3732.61	6194
3734.262	6204
3735.915	6281
3737.565	6279
3739.217	6144
3740.866	6126
3742.516	6235
3744.165	6178
3745.816	6241
3747.464	6208
3749.113	6224
3750.761	6157
3752.409	6123
3754.057	6128
3755.703	6295
3757.35	6073
3758.996	6127
3760.641	6174
3762.289	6118
3763.933	6137
3765.577	6256
3767.222	6166
3768.865	6114
3770.508	6090
3772.152	6046
3773.796	6071
3775.438	6009
3777.079	6012
3778.721	6128
3780.363	5990
3782.003	6042
3783.643	6128
3785.283	6046
3786.923	6039
3788.563	6158
3790.203	6023
3791.841	6066
3793.479	6036
3795.115	6057
3796.753	6095
3798.391	5957
3800.027	5972
3801.664	5964
3803.299	6045
3804.935	5995
3806.571	5986
3808.206	6047
3809.839	6015
3811.473	6059
3813.107	5981
3814.74	6051
3816.375	5930
3818.006	6014
3819.638	5895
3821.27	5948
3822.9	5819
3824.532	6009
3826.163	5924
3827.792	5883
3829.423	5820
3831.051	5978
3832.682	5890
3834.311	5905
3835.938	5932
3837.566	5748
3839.193	5799
3840.821	5868
3842.448	5892
3844.075	5872
3845.7	5776
3847.325	5889
3848.951	5822
3850.576	5840
3852.201	5757
3853.825	5765
3855.448	5749
3857.072	5813
3858.694	5673
3860.318	5772
3861.939	5797
3863.562	5797
3865.183	5799
3866.804	5742
3868.426	5828
3870.045	5771
3871.666	5867
3873.285	5801
3874.904	5709
3876.524	5828
3878.142	5827
3879.76	5751
3881.378	5701
3882.995	5796
3884.612	5741
3886.229	5735
3887.845	5797
3889.461	5803
3891.076	5744
3892.691	5755
3894.307	5752
3895.922	5644
3897.536	5631
3899.149	5664
3900.761	5716
3902.374	5753
3903.988	5673
3905.6	5733
3907.212	5711
3908.822	5666
3910.433	5668
3912.045	5838
3913.655	5690
3915.265	5721
3916.875	5747
3918.483	5732
3920.093	5756
3921.702	5628
3923.309	5651
3924.917	5643
3926.523	5615
3928.13	5776
3929.739	5682
3931.344	5584
3932.95	5688
3934.555	5575
3936.159	5646
3937.766	5773
3939.369	5609
3940.974	5644
3942.577	5600
3944.181	5521
3945.783	5645
3947.386	5681
3948.989	5584
3950.59	5578
3952.191	5605
3953.791	5609
3955.394	5638
3956.994	5604
3958.593	5605
3960.192	5515
3961.791	5552
3963.392	5579
3964.99	5583
3966.588	5601
3968.185	5582
3969.782	5476
3971.379	5486
3972.976	5539
3974.572	5528
3976.168	5462
3977.763	5549
3979.358	5478
3980.954	5553
3982.548	5418
3984.142	5448
3985.736	5408
3987.329	5496
3988.922	5449
3990.516	5385
3992.108	5392
3993.698	5516
3995.29	5369
3996.881	5332
3998.473	5403
4000.064	5489
4001.653	5431
4003.242	5378
4004.832	5329
4006.422	5428
4008.01	5403
4009.598	5357
4011.186	5297
4012.773	5520
4014.36	5375
4015.947	5396
4017.534	5305
4019.119	5342
4020.705	5288
4022.291	5254
4023.876	5305
4025.461	5299
4027.044	5253
4028.627	5243
4030.211	5274
4031.795	5236
4033.378	5297
4034.96	5358
4036.542	5235
4038.124	5331
4039.704	5233
4041.286	5228
4042.867	5177
4044.447	5344
4046.026	5184
4047.606	5300
4049.187	5126
4050.765	5231
4052.343	5190
4053.92	5178
4055.498	5220
4057.076	5183
4058.654	5147
4060.23	5151
4061.806	5223
4063.381	5206
4064.957	5113
4066.533	5184
4068.107	5140
4069.682	5214
4071.256	5161
4072.829	5099
4074.404	5141
4075.977	5131
4077.549	5195
4079.121	5199
4080.693	5154
4082.265	5174
4083.836	5084
4085.407	5116
4086.977	5112
4088.547	5060
4090.117	5098
4091.687	5142
4093.256	5108
4094.825	5175
4096.392	5061
4097.96	5129
4099.528	5051
4101.097	4993
4102.663	5061
4104.229	5082
4105.795	5076
4107.361	5084
4108.928	5054
4110.493	5081
4112.058	4961
4113.621	4984
4115.186	4925
4116.75	5024
4118.313	5005
4119.876	4841
4121.438	5088
4123	5020
4124.562	5012
4126.125	4973
4127.686	4948
4129.246	4973
4130.807	5007
4132.367	4888
4133.927	5065
4135.486	4992
4137.046	4966
4138.604	4954
4140.162	4931
4141.72	4914
4143.279	4974
4144.836	4900
4146.393	4955
4147.949	4940
4149.505	4864
4151.062	4901
4152.617	4933
4154.172	4815
4155.727	4789
4157.281	4896
4158.836	4846
4160.39	4923
4161.943	4730
4163.496	4899
4165.048	4825
4166.601	4771
4168.154	4745
4169.706	4858
4171.257	4823
4172.808	4867
4174.358	4871
4175.909	4784
4177.458	4792
4179.008	4805
4180.558	4729
4182.106	4796
4183.655	4836
4185.204	4717
4186.751	4818
4188.298	4684
4189.845	4837
4191.392	4780
4192.939	4627
4194.485	4715
4196.031	4790
4197.576	4775
4199.121	4848
4200.666	4746
4202.211	4707
4203.754	4777
4205.298	4620
4206.84	4768
4208.384	4647
4209.927	4597
4211.47	4688
4213.011	4814
4214.552	4607
4216.094	4668
4217.635	4648
4219.175	4668
4220.716	4692
4222.255	4625
4223.793	4699
4225.335	4686
4226.873	4710
4228.411	4680
4229.948	4631
4231.486	4570
4233.024	4666
4234.562	4618
4236.098	4624
4237.634	4713
4239.169	4669
4240.705	4641
4242.241	4609
4243.776	4644
4245.31	4635
4246.844	4600
4248.378	4619
4249.911	4583
4251.445	4562
4252.978	4537
4254.51	4559
4256.042	4585
4257.574	4616
4259.107	4537
4260.638	4584
4262.169	4617
4263.699	4564
4265.228	4530
4266.759	4592
4268.289	4517
4269.818	4578
4271.345	4558
4272.874	4539
4274.402	4488
4275.931	4544
4277.458	4499
4278.985	4490
4280.512	4496
4282.037	4478
4283.564	4563
4285.089	4566
4286.615	4565
4288.139	4447
4289.664	4466
4291.187	4551
4292.712	4469
4294.235	4487
4295.759	4451
4297.281	4529
4298.804	4474
4300.327	4543
4301.849	4429
4303.37	4421
4304.891	4419
4306.412	4472
4307.933	4399
4309.453	4357
4310.973	4424
4312.492	4321
