398.1873	5983
400.7097	6034
403.2336	6125
405.7547	6079
408.2751	6071
410.7948	6056
413.3138	6208
415.83	6171
418.3497	6213
420.8666	6398
423.3829	6316
425.8985	6273
428.4133	6348
430.9275	6368
433.441	6352
435.9538	6366
438.4639	6441
440.9753	6320
443.4881	6519
445.9982	6509
448.5055	6441
451.0142	6352
453.5201	6473
456.0274	6469
458.5361	6494
461.04	6380
463.5453	6605
466.0478	6404
468.5517	6464
471.0549	6510
473.5574	6583
476.0572	6526
478.5584	6653
481.0568	6554
483.5545	6602
486.0557	6615
488.5521	6630
491.0478	6598
493.5449	6718
496.0392	6658
498.5349	6568
501.0299	6704
503.5222	6671
506.0139	6661
508.5048	6712
510.9991	6794
513.4887	6852
515.9777	6794
518.4659	6681
520.9534	6850
523.4403	6655
525.9306	6758
528.4161	6744
530.9009	6735
533.3851	6800
535.8687	6710
538.3535	6750
540.8356	6764
543.3171	6743
545.7979	6754
548.278	6697
550.7595	6793
553.2383	6818
555.7144	6802
558.1918	6958
560.6685	6939
563.1446	6781
565.6221	6918
568.0968	6907
570.5688	6924
573.0422	6924
575.515	6990
577.989	6969
580.4584	7079
582.9291	6916
585.3991	6998
587.8685	7041
590.3352	6990
592.8052	7029
595.2706	6998
597.7372	7010
600.2033	7034
602.6666	6987
605.1334	7021
607.5953	6980
610.0587	6993
612.5193	6944
614.9814	7065
617.4427	7010
619.9034	6876
622.3615	6949
624.8208	7005
627.2775	6945
629.7335	7027
632.1929	6975
634.6476	6988
637.1016	7102
639.5569	7077
642.0096	7019
644.4637	7073
646.9151	7158
649.3678	7085
651.8179	7098
654.2672	7142
656.7159	7112
659.166	7089
661.6154	7090
664.0622	7201
666.5082	7076
668.9537	7145
671.4005	7206
673.8445	7205
676.288	7197
678.7308	7251
681.1729	7248
683.6163	7334
686.0572	7123
688.4973	7315
690.9368	7229
693.3757	7311
695.8138	7286
698.2534	7247
700.6902	7352
703.1245	7371
705.56	7362
707.9949	7268
710.4311	7402
712.8647	7408
715.2957	7387
717.7279	7428
720.1595	7418
722.5905	7507
725.0208	7420
727.4505	7452
729.8795	7500
732.3058	7651
734.7336	7509
737.1626	7568
739.587	7628
742.0128	7687
744.4359	7590
746.8604	7639
749.2841	7787
751.7073	7598
754.1278	7693
756.5496	7763
758.9688	7668
761.3893	7698
763.8093	7889
766.2285	7836
768.6451	7830
771.0611	7730
773.4784	7803
775.895	7772
778.3091	7774
780.7244	7819
783.1371	7740
785.5493	7847
787.9626	7783
790.3754	7849
792.7856	7887
795.1951	7902
797.6039	7785
800.0121	7788
802.4236	7879
804.8306	7853
807.2369	7812
809.6425	7748
812.0475	7924
814.4538	7918
816.8575	7955
819.2606	7934
821.663	7891
824.0648	7894
826.4659	7930
828.8683	7766
831.2682	7934
833.6674	7956
836.066	7954
838.4639	7781
840.8632	7924
843.2579	7984
845.6539	8123
848.0493	8085
850.444	8054
852.84	7930
855.2315	8062
857.6243	8035
860.0165	7999
862.4081	8083
864.797	8042
867.1892	7968
869.5789	8037
871.9659	7960
874.3542	7952
876.74	8196
879.129	8040
881.5155	8043
883.8994	8194
886.2845	7975
888.6671	7980
891.051	8029
893.4343	8014
895.8169	8063
898.197	8012
900.5783	8171
902.9571	8088
905.3372	8138
907.7167	8086
910.0936	8017
912.4698	8200
914.8474	8266
917.2244	8136
919.5987	8250
921.9744	8242
924.3475	8203
926.72	8442
929.0918	8261
931.4669	8410
933.8375	8387
936.2074	8352
938.5767	8322
940.9454	8417
943.3154	8518
945.6829	8637
948.0497	8717
950.4178	8891
952.7833	9084
955.1483	9308
957.5145	9433
959.8782	9435
962.2412	9387
964.6036	9407
966.9655	9096
969.3266	9087
971.6871	8763
974.0471	8633
976.4064	8400
978.765	8345
981.125	8342
983.4824	8342
985.8373	8233
988.1935	8255
990.549	8288
992.9039	8370
995.2602	8428
997.6119	8301
999.965	8368
1002.317	8283
1004.667	8269
1007.02	8261
1009.371	8328
1011.719	8358
1014.068	8434
1016.415	8317
1018.765	8301
1021.111	8312
1023.458	8361
1025.804	8385
1028.147	8378
1030.49	8258
1032.837	8444
1035.179	8390
1037.522	8403
1039.862	8308
1042.204	8618
1044.546	8472
1046.884	8430
1049.224	8556
1051.562	8363
1053.899	8504
1056.237	8506
1058.575	8547
1060.91	8452
1063.244	8519
1065.58	8495
1067.913	8527
1070.248	8631
1072.579	8455
1074.911	8771
1077.242	8561
1079.572	8577
1081.905	8586
1084.234	8493
1086.562	8671
1088.89	8518
1091.217	8572
1093.544	8453
1095.871	8430
1098.197	8477
1100.521	8573
1102.845	8419
1105.169	8478
1107.491	8614
1109.814	8510
1112.135	8578
1114.456	8573
1116.776	8436
1119.096	8600
1121.415	8649
1123.734	8622
1126.052	8653
1128.369	8493
1130.686	8644
1133.002	8542
1135.318	8665
1137.632	8545
1139.945	8667
1142.258	8609
1144.573	8603
1146.884	8623
1149.196	8495
1151.505	8574
1153.816	8586
1156.124	8647
1158.435	8624
1160.742	8649
1163.051	8615
1165.356	8633
1167.663	8653
1169.97	8721
1172.276	8585
1174.579	8574
1176.881	8629
1179.186	8722
1181.487	8533
1183.79	8497
1186.092	8677
1188.392	8573
1190.691	8500
1192.991	8577
1195.291	8577
1197.588	8560
1199.885	8632
1202.181	8665
1204.479	8534
1206.775	8559
1209.07	8610
1211.363	8644
1213.656	8553
1215.949	8691
1218.241	8747
1220.534	8692
1222.825	8578
1225.115	8718
1227.405	8726
1229.693	8817
1231.984	8742
1234.271	8872
1236.558	8766
1238.845	8787
1241.131	8833
1243.416	8943
1245.703	8872
1247.987	8946
1250.269	8720
1252.552	8864
1254.834	8868
1257.118	8840
1259.399	8868
1261.678	8957
1263.958	8830
1266.237	8881
1268.516	9000
1270.794	8782
1273.072	8894
1275.347	8782
1277.624	8879
1279.899	8787
1282.175	8907
1284.449	8890
1286.722	8791
1288.995	8806
1291.266	8757
1293.54	8717
1295.81	8760
1298.081	8670
1300.35	8724
1302.62	8866
1304.889	9008
1307.156	8808
1309.425	8817
1311.69	8814
1313.957	8865
1316.222	8795
1318.488	8865
1320.751	8719
1323.016	8765
1325.278	8933
1327.54	8843
1329.803	8967
1332.065	8844
1334.325	8821
1336.584	8811
1338.843	8745
1341.101	8732
1343.36	8938
1345.617	8871
1347.876	8802
1350.131	8820
1352.387	8886
1354.643	8783
1356.897	8784
1359.151	8730
1361.403	8912
1363.656	8859
1365.909	8864
1368.16	8820
1370.409	8814
1372.659	8816
1374.909	8878
1377.157	8957
1379.407	8954
1381.655	8872
1383.9	8879
1386.147	8935
1388.393	8984
1390.64	8959
1392.885	8930
1395.127	8992
1397.37	9031
1399.614	9027
1401.854	8927
1404.098	9003
1406.339	9054
1408.578	9050
1410.818	9271
1413.056	9093
1415.297	8928
1417.533	9036
1419.771	8986
1422.006	9104
1424.243	9083
1426.479	9089
1428.715	9113
1430.948	9052
1433.182	9102
1435.414	9130
1437.647	9215
1439.88	9233
1442.11	9185
1444.342	9165
1446.571	9248
1448.799	9159
1451.029	9148
1453.258	9275
1455.485	9170
1457.711	9132
1459.937	9171
1462.164	9111
1464.39	9245
1466.614	9166
1468.838	8996
1471.06	8943
1473.283	9112
1475.506	9128
1477.727	9033
1479.949	9023
1482.169	9113
1484.389	8884
1486.609	8950
1488.828	8950
1491.045	8838
1493.261	8939
1495.477	9006
1497.693	8965
1499.91	8941
1502.125	8989
1504.339	8926
1506.553	9048
1508.766	8841
1510.979	8917
1513.191	9064
1515.402	8940
1517.613	8780
1519.823	8839
1522.033	8968
1524.242	8736
1526.451	8792
1528.657	8892
1530.865	8883
1533.072	8937
1535.278	8950
1537.484	8951
1539.687	8955
1541.892	8950
1544.096	8941
1546.299	8963
1548.502	8935
1550.703	8860
1552.905	8936
1555.104	8990
1557.303	9038
1559.505	9058
1561.703	9150
1563.902	9098
1566.099	9147
1568.295	9107
1570.494	9155
1572.689	9106
1574.883	9271
1577.079	9088
1579.272	9127
1581.467	9212
1583.659	9196
1585.853	9037
1588.044	9174
1590.234	9190
1592.424	9357
1594.615	9171
1596.806	9223
1598.994	9257
1601.182	9184
1603.369	9221
1605.557	9234
1607.744	9345
1609.929	9299
1612.114	9380
1614.298	9161
1616.482	9317
1618.667	9231
1620.85	9252
1623.032	9182
1625.214	9278
1627.395	9297
1629.575	9363
1631.755	9306
1633.935	9069
1636.114	9308
1638.292	9322
1640.471	9498
1642.647	9350
1644.823	9378
1647	9314
1649.175	9331
1651.348	9211
1653.525	9222
1655.698	9286
1657.87	9391
1660.043	9311
1662.213	9366
1664.387	9261
1666.558	9288
1668.727	9454
1670.896	9352
1673.064	9429
1675.233	9529
1677.401	9292
1679.569	9415
1681.735	9396
1683.902	9445
1686.066	9485
1688.233	9325
1690.397	9317
1692.559	9301
1694.723	9201
1696.885	9404
1699.048	9256
1701.21	9150
1703.37	9188
1705.53	9189
1707.689	9275
1709.849	9190
1712.009	9129
1714.166	9359
1716.323	9130
1718.479	9297
1720.634	9274
1722.793	9260
1724.948	9156
1727.102	9238
1729.255	9168
1731.408	9040
1733.562	9370
1735.714	9137
1737.865	9273
1740.016	9262
1742.166	9245
1744.316	9278
1746.467	9290
1748.616	9284
1750.764	9342
1752.911	9224
1755.056	9263
1757.205	9167
1759.35	9238
1761.496	9443
1763.641	9281
1765.785	9257
1767.927	9416
1770.072	9299
1772.214	9256
1774.355	9447
1776.496	9330
1778.637	9296
1780.778	9260
1782.918	9413
1785.057	9429
1787.194	9293
1789.333	9362
1791.472	9445
1793.608	9342
1795.745	9364
1797.879	9343
1800.015	9468
1802.148	9234
1804.284	9233
1806.417	9418
1808.548	9478
1810.682	9368
1812.812	9448
1814.946	9332
1817.075	9396
1819.205	9354
1821.335	9297
1823.463	9462
1825.59	9365
1827.721	9366
1829.847	9362
1831.973	9319
1834.098	9296
1836.223	9311
1838.351	9424
1840.475	9244
1842.598	9279
1844.721	9400
1846.843	9198
1848.966	9190
1851.087	9247
1853.21	9242
1855.33	9152
1857.449	9252
1859.568	9273
1861.688	9186
1863.806	9308
1865.924	9289
1868.039	9240
1870.155	9163
1872.273	9247
1874.388	9203
1876.503	9200
1878.617	9362
1880.73	9217
1882.844	9204
1884.956	9335
1887.068	9278
1889.18	9278
1891.291	9332
1893.4	9448
1895.511	9228
1897.621	9290
1899.73	9087
1901.837	9336
1903.944	9381
1906.053	9394
1908.159	9273
1910.265	9428
1912.369	9395
1914.474	9366
1916.577	9434
1918.683	9278
1920.785	9391
1922.888	9433
1924.989	9473
1927.091	9451
1929.193	9390
1931.294	9431
1933.393	9357
1935.493	9230
1937.59	9499
1939.689	9320
1941.788	9330
1943.884	9411
1945.98	9290
1948.077	9349
1950.171	9254
1952.267	9361
1954.361	9313
1956.455	9468
1958.548	9462
1960.64	9480
1962.733	9349
1964.824	9463
1966.915	9384
1969.005	9354
1971.096	9397
1973.185	9425
1975.275	9481
1977.363	9386
1979.45	9328
1981.537	9364
1983.623	9324
1985.711	9453
1987.796	9451
1989.881	9212
1991.965	9370
1994.047	9271
1996.132	9360
1998.215	9181
2000.297	9474
2002.378	9381
2004.46	9150
2006.54	9341
2008.62	9232
2010.7	9319
2012.779	9242
2014.858	9351
2016.934	9299
2019.013	9319
2021.09	9335
2023.165	9241
2025.241	9420
2027.317	9329
2029.39	9246
2031.466	9177
2033.538	9469
2035.612	9360
2037.683	9303
2039.755	9317
2041.827	9244
2043.898	9388
2045.968	9347
2048.038	9432
2050.106	9273
2052.177	9428
2054.244	9428
2056.313	9340
2058.379	9367
2060.444	9321
2062.511	9458
2064.577	9325
2066.641	9485
2068.705	9339
2070.77	9257
2072.832	9265
2074.896	9243
2076.958	9395
2079.02	9309
2081.081	9360
2083.141	9333
2085.2	9460
2087.261	9327
2089.319	9421
2091.377	9318
2093.435	9372
2095.492	9346
2097.552	9343
2099.607	9358
2101.663	9316
2103.718	9500
2105.771	9197
2107.826	9361
2109.879	9363
2111.932	9340
2113.985	9451
2116.037	9411
2118.088	9436
2120.141	9253
2122.191	9274
2124.239	9326
2126.288	9370
2128.337	9349
2130.387	9404
2132.434	9280
2134.481	9250
2136.528	9258
2138.574	9379
2140.618	9337
2142.665	9317
2144.71	9184
2146.753	9249
2148.797	9377
2150.838	9367
2152.883	9225
2154.923	9272
2156.965	9360
2159.007	9358
2161.046	9328
2163.086	9227
2165.126	9263
2167.163	9158
2169.202	9163
2171.239	9258
2173.277	9342
2175.314	9128
2177.349	9287
2179.385	9275
2181.42	9210
2183.453	9198
2185.49	9075
2187.522	9152
2189.555	9118
2191.586	9256
2193.619	9166
2195.651	9176
2197.682	9095
2199.711	9155
2201.74	9163
2203.769	9215
2205.799	9123
2207.828	9016
2209.855	9030
2211.882	9078
2213.908	9162
2215.934	9111
2217.961	8987
2219.986	9109
2222.01	8987
2224.034	9092
2226.057	9129
2228.08	9113
2230.104	9102
2232.124	9254
2234.145	9251
2236.166	9074
2238.186	9031
2240.207	9048
2242.227	9234
2244.244	9114
2246.262	9201
2248.28	9048
2250.299	9082
2252.314	9040
2254.33	9017
2256.346	9124
2258.36	9102
2260.375	9020
2262.391	9076
2264.403	9242
2266.416	9081
2268.427	9118
2270.44	9233
2272.453	9150
2274.463	9168
2276.474	9128
2278.483	9101
2280.493	9150
2282.501	9119
2284.51	9188
2286.518	9194
2288.524	9083
2290.532	9144
2292.537	9098
2294.544	9021
2296.55	9200
2298.554	9100
2300.557	9162
2302.562	9013
2304.566	9065
2306.568	9036
2308.569	9111
2310.572	9147
2312.573	9042
2314.573	9175
2316.574	9106
2318.573	9054
2320.571	8899
2322.571	9150
2324.569	9031
2326.567	8972
2328.564	9003
2330.56	8916
2332.556	9000
2334.551	8913
2336.546	8969
2338.542	8972
2340.535	9006
2342.529	9072
2344.521	9065
2346.512	9042
2348.505	8971
2350.497	8981
2352.487	8955
2354.478	8912
2356.468	8959
2358.457	9081
2360.446	8924
2362.434	9074
2364.422	8827
2366.408	9017
2368.395	8911
2370.383	9014
2372.369	8901
2374.353	8956
2376.338	8965
2378.321	8852
2380.307	8828
2382.29	8910
2384.272	8875
2386.254	8895
2388.235	8771
2390.218	8986
2392.198	8719
2394.179	8781
2396.157	8938
2398.137	8917
2400.115	8739
2402.095	8852
2404.072	8733
2406.048	8996
2408.026	8772
2410.001	8798
2411.977	8836
2413.953	8770
2415.927	8930
2417.9	8741
2419.875	8811
2421.847	8792
2423.821	8791
2425.792	8878
2427.763	8916
2429.736	8800
2431.706	8668
2433.677	8748
2435.646	8677
2437.615	8746
2439.583	8912
2441.551	8859
2443.519	8790
2445.486	8748
2447.452	8916
2449.418	8806
2451.383	8706
2453.348	8902
2455.314	8797
2457.278	8825
2459.241	8796
2461.205	8818
2463.167	8761
2465.131	8680
2467.091	8723
2469.052	8687
2471.012	8698
2472.972	8777
2474.932	8765
2476.891	8765
2478.85	8803
2480.808	8582
2482.766	8815
2484.722	8733
2486.68	8655
2488.636	8823
2490.591	8677
2492.546	8706
2494.5	8687
2496.456	8804
2498.41	8743
2500.362	8650
2502.315	8571
2504.266	8806
2506.218	8681
2508.169	8617
2510.121	8722
2512.07	8600
2514.019	8638
2515.968	8702
2517.918	8711
2519.866	8650
2521.813	8602
2523.76	8727
2525.707	8667
2527.653	8680
2529.599	8605
2531.543	8623
2533.489	8596
2535.433	8569
2537.376	8560
2539.32	8665
2541.264	8504
2543.205	8672
2545.147	8649
2547.087	8583
2549.029	8639
2550.969	8595
2552.908	8575
2554.847	8766
2556.786	8605
2558.724	8561
2560.663	8822
2562.6	8635
2564.537	8531
2566.473	8597
2568.408	8647
2570.345	8708
2572.28	8606
2574.214	8657
2576.148	8785
2578.081	8766
2580.014	8614
2581.947	8662
2583.879	8614
2585.81	8559
2587.741	8713
2589.67	8842
2591.602	8792
2593.532	8651
2595.461	8504
2597.388	8758
2599.316	8624
2601.244	8643
2603.172	8713
2605.098	8547
2607.023	8741
2608.949	8539
2610.873	8619
2612.8	8705
2614.723	8654
2616.647	8660
2618.569	8651
2620.493	8640
2622.416	8580
2624.338	8746
2626.258	8640
2628.179	8570
2630.099	8720
2632.019	8638
2633.939	8694
2635.857	8677
2637.775	8782
2639.694	8710
2641.61	8658
2643.528	8651
2645.444	8649
2647.361	8617
2649.276	8725
2651.19	8616
2653.105	8701
2655.019	8739
2656.934	8536
2658.846	8597
2660.758	8733
2662.67	8610
2664.583	8565
2666.493	8649
2668.404	8574
2670.313	8675
2672.223	8514
2674.134	8641
2676.042	8577
2677.95	8663
2679.858	8628
2681.765	8671
2683.673	8565
2685.579	8531
2687.483	8809
2689.389	8570
2691.294	8587
2693.198	8602
2695.104	8599
2697.006	8580
2698.909	8509
2700.811	8517
2702.713	8548
2704.615	8558
2706.516	8440
2708.417	8549
2710.316	8493
2712.216	8464
2714.115	8526
2716.014	8514
2717.913	8404
2719.81	8455
2721.707	8514
2723.603	8562
2725.501	8524
2727.396	8422
2729.292	8458
2731.186	8445
2733.081	8617
2734.976	8413
2736.87	8454
2738.762	8489
2740.653	8431
2742.546	8539
2744.437	8461
2746.329	8418
2748.22	8346
2750.11	8442
2751.999	8307
2753.889	8456
2755.778	8490
2757.666	8495
2759.553	8571
2761.44	8397
2763.328	8447
2765.215	8455
2767.101	8421
2768.986	8351
2770.87	8380
2772.754	8380
2774.638	8423
2776.523	8300
2778.405	8441
2780.288	8399
2782.17	8368
2784.051	8385
2785.934	8376
2787.814	8415
2789.694	8486
2791.574	8402
2793.453	8284
2795.332	8346
2797.212	8358
2799.088	8304
2800.966	8349
2802.843	8223
2804.719	8440
2806.597	8501
2808.471	8395
2810.346	8248
2812.221	8187
2814.094	8319
2815.969	8502
2817.843	8302
2819.714	8349
2821.587	8332
2823.459	8312
2825.329	8377
2827.202	8354
2829.072	8292
2830.942	8333
2832.811	8444
2834.68	8296
2836.549	8389
2838.418	8313
2840.284	8213
2842.152	8276
2844.018	8280
2845.885	8262
2847.751	8238
2849.616	8238
2851.482	8432
2853.345	8498
2855.208	8301
2857.074	8331
2858.937	8319
2860.799	8487
2862.66	8403
2864.522	8486
2866.385	8383
2868.245	8490
2870.104	8618
2871.964	8595
2873.824	8637
2875.683	8720
2877.542	8522
2879.4	8721
2881.257	8613
2883.114	8847
2884.97	8770
2886.827	8720
2888.683	8772
2890.537	8757
2892.392	8637
2894.246	8627
2896.1	8683
2897.954	8699
2899.807	8611
2901.66	8746
2903.51	8771
2905.362	8835
2907.214	8727
2909.065	8735
2910.915	8836
2912.765	8775
2914.613	8709
2916.463	8825
2918.311	8863
2920.158	8849
2922.006	8996
2923.853	8876
2925.698	8991
2927.546	8999
2929.392	8998
2931.236	9246
2933.081	9073
2934.924	9097
2936.77	9150
2938.613	9302
2940.455	9387
2942.298	9529
2944.139	9320
2945.982	9469
2947.823	9359
2949.662	9258
2951.503	9357
2953.342	9194
2955.182	9152
2957.021	9167
2958.858	9201
2960.697	9043
2962.534	9088
2964.37	8981
2966.207	8997
2968.044	8756
2969.879	8830
2971.714	8710
2973.548	8629
2975.383	8775
2977.218	8696
2979.051	8667
2980.883	8671
2982.715	8652
2984.547	8658
2986.379	8646
2988.21	8627
2990.04	8526
2991.87	8558
2993.7	8508
2995.53	8485
2997.359	8490
2999.187	8336
3001.015	8323
3002.842	8251
3004.669	8266
3006.497	8182
3008.323	8301
3010.148	8224
3011.974	8117
3013.797	8031
3015.623	8167
3017.447	8022
3019.27	8140
3021.094	8050
3022.915	7960
3024.737	7925
3026.56	7978
3028.38	8044
3030.201	7943
3032.022	8053
3033.84	7902
3035.662	7992
3037.481	7867
3039.298	7954
3041.117	7851
3042.933	7896
3044.752	7915
3046.568	7866
3048.385	7891
3050.2	7785
3052.016	7884
3053.83	7809
3055.646	7950
3057.46	7921
3059.272	7906
3061.086	7917
3062.898	7932
3064.711	7820
3066.524	7964
3068.335	7834
3070.145	7851
3071.956	7846
3073.766	7828
3075.576	7889
3077.385	7825
3079.193	7814
3081.002	7724
3082.81	7664
3084.618	7724
3086.425	7708
3088.231	7851
3090.036	7595
3091.842	7779
3093.648	7650
3095.452	7723
3097.257	7634
3099.06	7690
3100.863	7651
3102.666	7603
3104.47	7672
3106.272	7583
3108.073	7629
3109.875	7660
3111.676	7629
3113.477	7585
3115.277	7553
3117.077	7633
3118.874	7516
3120.673	7649
3122.473	7538
3124.271	7596
3126.066	7615
3127.863	7427
3129.66	7538
3131.456	7522
3133.252	7639
3135.047	7452
3136.842	7465
3138.635	7573
3140.429	7475
3142.223	7553
3144.016	7412
3145.808	7540
3147.6	7378
3149.392	7516
3151.183	7394
3152.975	7390
3154.765	7386
3156.553	7421
3158.344	7567
3160.132	7478
3161.922	7460
3163.71	7331
3165.497	7447
3167.285	7354
3169.071	7346
3170.858	7406
3172.645	7492
3174.429	7271
3176.214	7353
3177.998	7400
3179.783	7365
3181.568	7372
3183.351	7306
3185.133	7374
3186.915	7240
3188.698	7316
3190.481	7399
3192.261	7373
3194.042	7239
3195.822	7388
3197.601	7279
3199.381	7300
3201.161	7410
3202.939	7320
3204.717	7291
3206.495	7363
3208.272	7243
3210.05	7288
3211.826	7336
3213.602	7294
3215.376	7375
3217.151	7460
3218.927	7286
3220.702	7290
3222.476	7354
3224.249	7332
3226.021	7296
3227.793	7276
3229.567	7302
3231.339	7156
3233.109	7213
3234.88	7268
3236.651	7363
3238.421	7213
3240.191	7240
3241.96	7210
3243.728	7278
3245.497	7235
3247.263	7312
3249.033	7278
3250.799	7278
3252.566	7324
3254.331	7280
3256.097	7212
3257.863	7218
3259.628	7267
3261.392	7244
3263.156	7275
3264.919	7318
3266.683	7125
3268.447	7317
3270.208	7273
3271.969	7173
3273.731	7227
3275.492	7261
3277.253	7225
3279.013	7110
3280.773	7229
3282.532	7340
3284.291	7180
3286.05	7243
3287.808	7190
3289.566	7269
3291.323	7133
3293.079	7183
3294.835	7267
3296.593	7190
3298.348	7222
3300.102	7168
3301.857	7293
3303.611	7185
3305.366	7248
3307.119	7296
3308.872	7212
3310.624	7275
3312.376	7207
3314.129	7159
3315.881	7182
3317.631	7172
3319.38	7135
3321.13	7164
3322.88	7289
3324.631	7170
3326.379	7228
3328.126	7239
3329.875	7236
3331.622	7117
3333.371	7166
3335.116	7108
3336.863	7123
3338.609	7104
3340.353	7070
3342.1	7190
3343.845	7135
3345.588	7202
3347.332	7062
3349.074	7073
3350.817	7097
3352.56	7094
3354.303	7252
3356.043	7083
3357.785	7090
3359.525	7040
3361.268	7088
3363.007	7094
3364.745	7060
3366.485	7019
3368.223	7078
3369.962	7028
3371.701	6999
3373.438	6917
3375.174	6964
3376.911	6942
3378.647	7029
3380.384	7034
3382.118	7094
3383.854	6933
3385.588	6990
3387.322	7099
3389.057	7003
3390.79	6825
3392.522	6983
3394.255	7032
3395.987	6934
3397.719	7028
3399.451	6977
3401.181	6946
3402.911	6918
3404.641	7007
3406.371	7003
3408.101	6859
3409.83	6938
3411.558	6878
3413.285	6915
3415.011	6871
3416.739	6906
3418.467	6885
3420.193	6913
3421.919	6949
3423.644	6921
3425.368	6909
3427.094	6764
3428.818	6957
3430.542	6864
3432.264	6900
3433.987	6848
3435.712	6754
3437.434	6861
3439.155	6791
3440.876	6843
3442.596	6814
3444.317	6752
3446.039	6877
3447.757	6851
3449.477	6647
3451.195	6733
3452.914	6712
3454.632	6601
3456.35	6737
3458.067	6739
3459.784	6766
3461.5	6700
3463.216	6705
3464.932	6692
3466.647	6708
3468.362	6643
3470.076	6665
3471.789	6683
3473.505	6581
3475.217	6720
3476.929	6544
3478.641	6606
3480.354	6621
3482.066	6639
3483.777	6620
3485.487	6599
3487.197	6543
3488.908	6672
3490.617	6588
3492.327	6580
3494.035	6572
3495.743	6626
3497.451	6526
3499.158	6601
3500.866	6508
3502.572	6522
3504.278	6504
3505.984	6655
3507.689	6554
3509.396	6498
3511.1	6394
3512.804	6592
3514.508	6468
3516.211	6539
3517.913	6533
3519.616	6483
3521.319	6555
3523.021	6489
3524.722	6490
3526.422	6460
3528.124	6473
3529.824	6536
3531.524	6401
3533.222	6448
3534.921	6480
3536.62	6517
3538.318	6409
3540.016	6371
3541.714	6426
3543.41	6337
3545.107	6493
3546.803	6402
3548.5	6339
3550.194	6307
3551.889	6464
3553.583	6435
3555.279	6342
3556.972	6412
3558.666	6278
3560.358	6481
3562.051	6320
3563.742	6293
3565.435	6430
3567.126	6378
3568.817	6341
3570.507	6307
3572.197	6273
3573.888	6351
3575.577	6223
3577.265	6293
3578.954	6215
3580.642	6315
3582.329	6267
3584.017	6353
3585.704	6280
3587.391	6215
3589.077	6167
3590.762	6363
3592.449	6354
3594.133	6272
3595.817	6202
3597.501	6158
3599.185	6195
3600.869	6278
3602.552	6092
3604.234	6166
3605.916	6187
3607.598	6150
3609.279	6171
3610.961	6082
3612.642	6122
3614.321	6111
3616	6071
3617.68	6126
3619.36	6202
3621.039	6014
3622.716	6180
3624.394	6092
3626.071	6177
3627.748	6120
3629.425	6066
3631.102	6082
3632.778	6142
3634.452	5968
3636.127	6111
3637.803	6121
3639.477	5990
3641.151	6034
3642.823	5970
3644.497	5918
3646.171	5926
3647.842	6016
3649.515	6031
3651.185	5924
3652.857	6025
3654.527	6036
3656.198	6013
3657.868	5832
3659.537	6019
3661.207	5949
3662.875	5916
3664.544	6021
3666.212	6007
3667.879	5930
3669.546	5929
3671.212	5926
3672.88	5958
3674.546	5962
3676.211	5860
3677.875	5896
3679.541	5807
3681.205	5735
3682.87	5919
3684.533	5823
3686.196	5892
3687.859	5960
3689.521	5815
3691.184	5898
3692.845	5837
3694.507	5752
3696.167	5795
3697.827	5832
3699.487	6007
3701.148	5792
3702.808	5805
3704.466	5903
3706.125	5874
3707.783	5830
3709.442	5799
3711.099	5802
3712.757	5851
3714.412	5788
3716.068	5816
3717.725	5810
3719.381	5797
3721.036	5833
3722.689	5783
3724.344	5843
3725.998	5832
3727.652	5643
3729.305	5905
3730.958	5839
3732.61	5855
3734.262	5773
3735.915	5767
3737.565	5725
3739.217	5838
3740.866	5839
3742.516	5720
3744.165	5893
3745.816	5796
3747.464	5781
3749.113	5690
3750.761	5803
3752.409	5657
3754.057	5652
3755.703	5672
3757.35	5764
3758.996	5574
3760.641	5664
3762.289	5624
3763.933	5657
3765.577	5622
3767.222	5658
3768.865	5637
3770.508	5666
3772.152	5636
3773.796	5660
3775.438	5670
3777.079	5676
3778.721	5582
3780.363	5696
3782.003	5555
3783.643	5555
3785.283	5602
3786.923	5671
3788.563	5571
3790.203	5604
3791.841	5530
3793.479	5531
3795.115	5560
3796.753	5520
3798.391	5480
3800.027	5523
3801.664	5483
3803.299	5531
3804.935	5641
3806.571	5435
3808.206	5543
3809.839	5478
3811.473	5464
3813.107	5537
3814.74	5479
3816.375	5476
3818.006	5474
3819.638	5425
3821.27	5532
3822.9	5505
3824.532	5530
3826.163	5456
3827.792	5514
3829.423	5567
3831.051	5360
3832.682	5431
3834.311	5402
3835.938	5443
3837.566	5539
3839.193	5365
3840.821	5402
3842.448	5466
3844.075	5383
3845.7	5412
3847.325	5451
3848.951	5380
3850.576	5418
3852.201	5335
3853.825	5387
3855.448	5426
3857.072	5300
3858.694	5323
3860.318	5312
3861.939	5334
3863.562	5283
3865.183	5349
3866.804	5387
3868.426	5399
3870.045	5403
3871.666	5376
3873.285	5288
3874.904	5250
3876.524	5259
3878.142	5274
3879.76	5379
3881.378	5283
3882.995	5351
3884.612	5324
3886.229	5313
3887.845	5232
3889.461	5285
3891.076	5332
3892.691	5279
3894.307	5233
3895.922	5187
3897.536	5324
3899.149	5353
3900.761	5249
3902.374	5256
3903.988	5303
3905.6	5269
3907.212	5253
3908.822	5241
3910.433	5293
3912.045	5276
3913.655	5263
3915.265	5363
3916.875	5263
3918.483	5145
3920.093	5280
3921.702	5204
3923.309	5221
3924.917	5242
3926.523	5246
3928.13	5151
3929.739	5237
3931.344	5096
3932.95	5167
3934.555	5122
3936.159	5230
3937.766	5239
3939.369	5201
3940.974	5218
3942.577	5159
3944.181	5271
3945.783	5056
3947.386	5155
3948.989	5149
3950.59	5134
3952.191	5054
3953.791	5137
3955.394	5247
3956.994	5193
3958.593	5203
3960.192	5047
3961.791	5030
3963.392	5150
3964.99	5115
3966.588	5143
3968.185	5114
3969.782	5155
3971.379	4984
3972.976	5071
3974.572	5032
3976.168	5088
3977.763	5061
3979.358	5072
3980.954	5002
3982.548	5044
3984.142	5040
3985.736	5061
3987.329	5032
3988.922	5069
3990.516	5045
3992.108	5060
3993.698	4965
3995.29	4976
3996.881	5008
3998.473	5000
4000.064	5003
4001.653	4961
4003.242	4935
4004.832	5006
4006.422	4960
4008.01	5019
4009.598	5005
4011.186	4949
4012.773	4930
4014.36	4859
4015.947	4862
4017.534	5037
4019.119	4909
4020.705	4882
4022.291	4956
4023.876	4910
4025.461	4820
4027.044	4930
4028.627	4937
4030.211	4791
4031.795	4920
4033.378	4735
4034.96	4873
4036.542	4806
4038.124	4820
4039.704	4931
4041.286	4751
4042.867	4820
4044.447	4794
4046.026	4834
4047.606	4768
4049.187	4840
4050.765	4877
4052.343	4766
4053.92	4787
4055.498	4788
4057.076	4807
4058.654	4725
4060.23	4729
4061.806	4725
4063.381	4743
4064.957	4783
4066.533	4814
4068.107	4707
4069.682	4758
4071.256	4815
4072.829	4754
4074.404	4758
4075.977	4774
4077.549	4740
4079.121	4717
4080.693	4780
4082.265	4715
4083.836	4662
4085.407	4657
4086.977	4695
4088.547	4730
4090.117	4749
4091.687	4749
4093.256	4673
4094.825	4708
4096.392	4603
4097.96	4687
4099.528	4681
4101.097	4735
4102.663	4683
4104.229	4635
4105.795	4627
4107.361	4669
4108.928	4675
4110.493	4610
4112.058	4655
4113.621	4667
4115.186	4573
4116.75	4603
4118.313	4721
4119.876	4567
4121.438	4685
4123	4557
4124.562	4563
4126.125	4564
4127.686	4634
4129.246	4508
4130.807	4537
4132.367	4526
4133.927	4608
4135.486	4592
4137.046	4445
4138.604	4642
4140.162	4520
4141.72	4429
4143.279	4585
4144.836	4444
4146.393	4569
4147.949	4459
4149.505	4473
4151.062	4533
4152.617	4452
4154.172	4477
4155.727	4530
4157.281	4482
4158.836	4526
4160.39	4483
4161.943	4433
4163.496	4449
4165.048	4431
4166.601	4475
4168.154	4432
4169.706	4420
4171.257	4450
4172.808	4361
4174.358	4479
4175.909	4393
4177.458	4352
4179.008	4520
4180.558	4440
4182.106	4444
4183.655	4432
4185.204	4293
4186.751	4316
4188.298	4385
4189.845	4390
4191.392	4361
4192.939	4365
4194.485	4319
4196.031	4368
4197.576	4377
4199.121	4329
4200.666	4314
4202.211	4301
4203.754	4368
4205.298	4255
4206.84	4320
4208.384	4233
4209.927	4318
4211.47	4310
4213.011	4361
4214.552	4317
4216.094	4264
4217.635	4305
4219.175	4316
4220.716	4272
4222.255	4231
4223.793	4275
4225.335	4251
4226.873	4273
4228.411	4257
4229.948	4262
4231.486	4262
4233.024	4253
4234.562	4278
4236.098	4284
4237.634	4221
4239.169	4345
4240.705	4197
4242.241	4215
4243.776	4312
4245.31	4343
4246.844	4279
4248.378	4209
4249.911	4287
4251.445	4274
4252.978	4205
4254.51	4176
4256.042	4243
4257.574	4210
4259.107	4161
4260.638	4156
4262.169	4168
4263.699	4169
4265.228	4224
4266.759	4180
4268.289	4196
4269.818	4157
4271.345	4288
4272.874	4243
4274.402	4197
4275.931	4161
4277.458	4227
4278.985	4210
4280.512	4171
4282.037	4170
4283.564	4195
4285.089	4217
4286.615	4139
4288.139	4185
4289.664	4102
4291.187	4146
4292.712	4142
4294.235	4179
4295.759	4028
4297.281	4114
4298.804	4060
4300.327	4091
4301.849	4143
4303.37	4178
4304.891	4083
4306.412	4091
4307.933	4111
4309.453	4081
4310.973	4110
4312.492	4071
