398.1873	4535
400.7097	4448
403.2336	4476
405.7547	4487
408.2751	4492
410.7948	4560
413.3138	4607
415.83	4526
418.3497	4606
420.8666	4586
423.3829	4580
425.8985	4614
428.4133	4678
430.9275	4714
433.441	4802
435.9538	4735
438.4639	4769
440.9753	4764
443.4881	4750
445.9982	4730
448.5055	4783
451.0142	4735
453.5201	4721
456.0274	4712
458.5361	4790
461.04	4756
463.5453	4813
466.0478	4785
468.5517	4767
471.0549	4838
473.5574	4867
476.0572	4809
478.5584	4807
481.0568	4886
483.5545	4872
486.0557	4761
488.5521	4915
491.0478	4847
493.5449	4945
496.0392	4984
498.5349	4949
501.0299	4941
503.5222	4965
506.0139	4992
508.5048	4936
510.9991	4921
513.4887	5029
515.9777	4937
518.4659	5061
520.9534	4898
523.4403	4957
525.9306	4943
528.4161	5118
530.9009	5086
533.3851	4983
535.8687	5062
538.3535	5029
540.8356	4982
543.3171	5068
545.7979	5069
548.278	5018
550.7595	4877
553.2383	5078
555.7144	5000
558.1918	5098
560.6685	5042
563.1446	4997
565.6221	5125
568.0968	5129
570.5688	5078
573.0422	5051
575.515	5153
577.989	5161
580.4584	5129
582.9291	5130
585.3991	5173
587.8685	5107
590.3352	5195
592.8052	5241
595.2706	5210
597.7372	5139
600.2033	5238
602.6666	5183
605.1334	5236
607.5953	5115
610.0587	5101
612.5193	5184
614.9814	5177
617.4427	5206
619.9034	5195
622.3615	5105
624.8208	5207
627.2775	5215
629.7335	5140
632.1929	5234
634.6476	5131
637.1016	5120
639.5569	5198
642.0096	5239
644.4637	5202
646.9151	5228
649.3678	5207
651.8179	5223
654.2672	5198
656.7159	5333
659.166	5376
661.6154	5307
664.0622	5233
666.5082	5345
668.9537	5346
671.4005	5323
673.8445	5394
676.288	5347
678.7308	5382
681.1729	5316
683.6163	5357
686.0572	5398
688.4973	5366
690.9368	5272
693.3757	5383
695.8138	5393
698.2534	5360
700.6902	5488
703.1245	5444
705.56	5413
707.9949	5412
710.4311	5414
712.8647	5461
715.2957	5346
717.7279	5568
720.1595	5467
722.5905	5473
725.0208	5514
727.4505	5579
729.8795	5546
732.3058	5610
734.7336	5518
737.1626	5518
739.587	5488
742.0128	5589
744.4359	5557
746.8604	5662
749.2841	5650
751.7073	5672
754.1278	5730
756.5496	5724
758.9688	5692
761.3893	5710
763.8093	5681
766.2285	5756
768.6451	5815
771.0611	5746
773.4784	5614
775.895	5739
778.3091	5742
780.7244	5803
783.1371	5730
785.5493	5681
787.9626	5742
790.3754	5836
792.7856	5736
795.1951	5731
797.6039	5833
800.0121	5690
802.4236	5792
804.8306	5851
807.2369	5663
809.6425	5870
812.0475	5705
814.4538	5795
816.8575	5796
819.2606	5780
821.663	5798
824.0648	5823
826.4659	5830
828.8683	5763
831.2682	5758
833.6674	5921
836.066	5783
838.4639	5732
840.8632	5899
843.2579	5863
845.6539	5900
848.0493	5887
850.444	5849
852.84	6022
855.2315	6016
857.6243	5886
860.0165	5892
862.4081	5790
864.797	5828
867.1892	5997
869.5789	5981
871.9659	5834
874.3542	5879
876.74	5925
879.129	5969
881.5155	5925
883.8994	5951
886.2845	5759
888.6671	5801
891.051	5784
893.4343	5892
895.8169	5861
898.197	5865
900.5783	5833
902.9571	5852
905.3372	5869
907.7167	5874
910.0936	6073
912.4698	6001
914.8474	5922
917.2244	5994
919.5987	6049
921.9744	5966
924.3475	6105
926.72	6286
929.0918	6186
931.4669	6120
933.8375	6111
936.2074	6164
938.5767	6177
940.9454	6213
943.3154	6346
945.6829	6253
948.0497	6420
950.4178	6548
952.7833	6545
955.1483	6629
957.5145	6850
959.8782	6875
962.2412	6864
964.6036	6760
966.9655	6655
969.3266	6423
971.6871	6321
974.0471	6301
976.4064	6220
978.765	6112
981.125	6077
983.4824	6132
985.8373	6024
988.1935	6061
990.549	6071
992.9039	5968
995.2602	6017
997.6119	6094
999.965	6160
1002.317	6118
1004.667	6062
1007.02	6113
1009.371	6061
1011.719	6170
1014.068	6005
1016.415	6060
1018.765	6217
1021.111	6192
1023.458	6100
1025.804	6195
1028.147	6165
1030.49	6058
1032.837	6177
1035.179	6140
1037.522	6173
1039.862	6223
1042.204	6280
1044.546	6179
1046.884	6209
1049.224	6180
1051.562	6211
1053.899	6149
1056.237	6173
1058.575	6179
1060.91	6239
1063.244	6274
1065.58	6302
1067.913	6290
1070.248	6384
1072.579	6343
1074.911	6328
1077.242	6301
1079.572	6140
1081.905	6200
1084.234	6257
1086.562	6203
1088.89	6310
1091.217	6194
1093.544	6275
1095.871	6198
1098.197	6256
1100.521	6182
1102.845	6167
1105.169	6386
1107.491	6295
1109.814	6286
1112.135	6286
1114.456	6273
1116.776	6353
1119.096	6212
1121.415	6233
1123.734	6350
1126.052	6277
1128.369	6370
1130.686	6290
1133.002	6397
1135.318	6251
1137.632	6357
1139.945	6301
1142.258	6354
1144.573	6276
1146.884	6359
1149.196	6348
1151.505	6351
1153.816	6223
1156.124	6335
1158.435	6277
1160.742	6273
1163.051	6270
1165.356	6300
1167.663	6367
1169.97	6254
1172.276	6353
1174.579	6224
1176.881	6339
1179.186	6349
1181.487	6249
1183.79	6343
1186.092	6452
1188.392	6384
1190.691	6412
1192.991	6185
1195.291	6255
1197.588	6267
1199.885	6354
1202.181	6310
1204.479	6413
1206.775	6383
1209.07	6251
1211.363	6332
1213.656	6421
1215.949	6350
1218.241	6419
1220.534	6395
1222.825	6477
1225.115	6364
1227.405	6324
1229.693	6515
1231.984	6414
1234.271	6341
1236.558	6482
1238.845	6408
1241.131	6492
1243.416	6465
1245.703	6454
1247.987	6444
1250.269	6485
1252.552	6545
1254.834	6468
1257.118	6530
1259.399	6502
1261.678	6434
1263.958	6569
1266.237	6489
1268.516	6506
1270.794	6508
1273.072	6479
1275.347	6527
1277.624	6474
1279.899	6564
1282.175	6541
1284.449	6534
1286.722	6518
1288.995	6443
1291.266	6461
1293.54	6445
1295.81	6531
1298.081	6443
1300.35	6446
1302.62	6451
1304.889	6549
1307.156	6414
1309.425	6441
1311.69	6313
1313.957	6438
1316.222	6618
1318.488	6620
1320.751	6399
1323.016	6436
1325.278	6430
1327.54	6568
1329.803	6479
1332.065	6546
1334.325	6530
1336.584	6512
1338.843	6563
1341.101	6416
1343.36	6540
1345.617	6560
1347.876	6467
1350.131	6549
1352.387	6447
1354.643	6620
1356.897	6470
1359.151	6540
1361.403	6501
1363.656	6486
1365.909	6511
1368.16	6550
1370.409	6490
1372.659	6551
1374.909	6658
1377.157	6527
1379.407	6491
1381.655	6500
1383.9	6545
1386.147	6592
1388.393	6582
1390.64	6647
1392.885	6709
1395.127	6566
1397.37	6563
1399.614	6666
1401.854	6616
1404.098	6736
1406.339	6627
1408.578	6606
1410.818	6603
1413.056	6563
1415.297	6624
1417.533	6546
1419.771	6589
1422.006	6700
1424.243	6527
1426.479	6685
1428.715	6598
1430.948	6739
1433.182	6810
1435.414	6796
1437.647	6783
1439.88	6688
1442.11	6753
1444.342	6785
1446.571	6759
1448.799	6770
1451.029	6953
1453.258	6837
1455.485	6729
1457.711	6831
1459.937	6841
1462.164	6748
1464.39	6690
1466.614	6670
1468.838	6761
1471.06	6672
1473.283	6710
1475.506	6636
1477.727	6737
1479.949	6613
1482.169	6661
1484.389	6491
1486.609	6684
1488.828	6737
1491.045	6604
1493.261	6488
1495.477	6693
1497.693	6628
1499.91	6668
1502.125	6540
1504.339	6589
1506.553	6635
1508.766	6536
1510.979	6578
1513.191	6598
1515.402	6516
1517.613	6625
1519.823	6583
1522.033	6608
1524.242	6586
1526.451	6627
1528.657	6645
1530.865	6589
1533.072	6596
1535.278	6664
1537.484	6620
1539.687	6696
1541.892	6635
1544.096	6619
1546.299	6620
1548.502	6685
1550.703	6668
1552.905	6689
1555.104	6722
1557.303	6744
1559.505	6605
1561.703	6672
1563.902	6743
1566.099	6747
1568.295	6751
1570.494	6623
1572.689	6686
1574.883	6806
1577.079	6745
1579.272	6670
1581.467	6892
1583.659	6819
1585.853	6703
1588.044	6761
1590.234	6745
1592.424	6814
1594.615	6722
1596.806	6787
1598.994	6764
1601.182	6809
1603.369	6815
1605.557	6872
1607.744	6769
1609.929	6625
1612.114	6818
1614.298	6829
1616.482	6873
1618.667	6699
1620.85	6956
1623.032	6935
1625.214	6758
1627.395	6913
1629.575	6899
1631.755	7074
1633.935	6831
1636.114	6897
1638.292	6981
1640.471	6846
1642.647	6923
1644.823	6772
1647	6750
1649.175	6811
1651.348	6889
1653.525	6840
1655.698	6822
1657.87	6811
1660.043	6720
1662.213	6903
1664.387	6891
1666.558	6879
1668.727	6920
1670.896	6752
1673.064	6793
1675.233	6874
1677.401	6886
1679.569	6864
1681.735	6803
1683.902	6910
1686.066	7023
1688.233	6982
1690.397	6870
1692.559	6835
1694.723	6827
1696.885	6830
1699.048	6821
1701.21	6842
1703.37	6824
1705.53	6757
1707.689	6815
1709.849	6717
1712.009	6695
1714.166	6901
1716.323	6734
1718.479	6849
1720.634	6869
1722.793	6794
1724.948	6827
1727.102	6771
1729.255	6847
1731.408	6755
1733.562	6864
1735.714	6790
1737.865	6863
1740.016	6773
1742.166	6769
1744.316	6909
1746.467	6838
1748.616	6953
1750.764	6809
1752.911	6831
1755.056	6796
1757.205	6846
1759.35	6818
1761.496	6881
1763.641	6864
1765.785	6869
1767.927	6868
1770.072	6916
1772.214	6887
1774.355	6868
1776.496	6875
1778.637	6935
1780.778	6918
1782.918	6909
1785.057	6870
1787.194	6929
1789.333	6968
1791.472	6954
1793.608	7002
1795.745	7017
1797.879	6763
1800.015	6848
1802.148	6885
1804.284	6881
1806.417	6759
1808.548	6878
1810.682	6966
1812.812	7044
1814.946	6829
1817.075	6968
1819.205	7009
1821.335	6771
1823.463	6811
1825.59	6888
1827.721	6861
1829.847	6885
1831.973	6901
1834.098	6972
1836.223	6880
1838.351	6852
1840.475	6869
1842.598	6761
1844.721	6875
1846.843	6834
1848.966	6889
1851.087	6925
1853.21	6899
1855.33	6918
1857.449	6784
1859.568	6821
1861.688	6760
1863.806	6863
1865.924	6830
1868.039	6797
1870.155	6849
1872.273	6870
1874.388	6804
1876.503	6737
1878.617	6889
1880.73	6847
1882.844	6783
1884.956	6850
1887.068	6831
1889.18	6948
1891.291	6895
1893.4	6758
1895.511	6963
1897.621	6855
1899.73	6934
1901.837	6861
1903.944	6938
1906.053	6848
1908.159	6953
1910.265	6893
1912.369	6951
1914.474	6931
1916.577	7065
1918.683	6948
1920.785	6956
1922.888	7054
1924.989	7082
1927.091	6999
1929.193	7011
1931.294	6875
1933.393	7014
1935.493	7107
1937.59	6907
1939.689	7117
1941.788	7029
1943.884	7097
1945.98	6947
1948.077	6963
1950.171	6961
1952.267	7105
1954.361	6954
1956.455	6937
1958.548	6883
1960.64	6938
1962.733	6979
1964.824	7021
1966.915	6894
1969.005	6978
1971.096	7009
1973.185	6963
1975.275	6984
1977.363	7064
1979.45	6930
1981.537	6883
1983.623	6957
1985.711	6994
1987.796	6833
1989.881	6936
1991.965	6894
1994.047	6964
1996.132	7012
1998.215	6915
2000.297	6862
2002.378	6966
2004.46	6835
2006.54	6922
2008.62	6814
2010.7	6912
2012.779	6806
2014.858	6864
2016.934	6912
2019.013	6918
2021.09	6899
2023.165	6906
2025.241	6849
2027.317	6926
2029.39	6923
2031.466	6921
2033.538	6991
2035.612	6795
2037.683	6919
2039.755	7014
2041.827	6898
2043.898	6916
2045.968	6854
2048.038	6906
2050.106	6875
2052.177	6895
2054.244	6880
2056.313	6846
2058.379	6840
2060.444	7011
2062.511	6989
2064.577	6954
2066.641	7000
2068.705	6760
2070.77	6979
2072.832	6933
2074.896	6908
2076.958	6984
2079.02	6909
2081.081	6947
2083.141	7045
2085.2	6940
2087.261	6775
2089.319	6931
2091.377	6854
2093.435	6916
2095.492	6959
2097.552	6972
2099.607	6863
2101.663	6972
2103.718	6928
2105.771	6905
2107.826	6925
2109.879	6834
2111.932	6992
2113.985	6908
2116.037	6877
2118.088	6935
2120.141	6870
2122.191	6884
2124.239	6774
2126.288	6931
2128.337	6889
2130.387	6881
2132.434	6849
2134.481	6840
2136.528	7004
2138.574	6823
2140.618	6996
2142.665	6893
2144.71	6865
2146.753	6988
2148.797	6985
2150.838	7005
2152.883	6952
2154.923	6935
2156.965	6822
2159.007	6835
2161.046	6790
2163.086	6899
2165.126	6934
2167.163	6816
2169.202	6894
2171.239	6843
2173.277	6750
2175.314	6720
2177.349	6904
2179.385	6854
2181.42	6742
2183.453	6872
2185.49	6908
2187.522	6700
2189.555	6840
2191.586	6739
2193.619	6819
2195.651	6856
2197.682	6778
2199.711	6708
2201.74	6663
2203.769	6760
2205.799	6813
2207.828	6824
2209.855	6775
2211.882	6632
2213.908	6823
2215.934	6786
2217.961	6744
2219.986	6742
2222.01	6726
2224.034	6654
2226.057	6796
2228.08	6745
2230.104	6645
2232.124	6715
2234.145	6722
2236.166	6685
2238.186	6707
2240.207	6626
2242.227	6866
2244.244	6738
2246.262	6720
2248.28	6785
2250.299	6735
2252.314	6724
2254.33	6847
2256.346	6710
2258.36	6747
2260.375	6819
2262.391	6719
2264.403	6778
2266.416	6752
2268.427	6750
2270.44	6823
2272.453	6776
2274.463	6692
2276.474	6835
2278.483	6743
2280.493	6782
2282.501	6758
2284.51	6757
2286.518	6778
2288.524	6785
2290.532	6759
2292.537	6680
2294.544	6696
2296.55	6848
2298.554	6860
2300.557	6739
2302.562	6817
2304.566	6751
2306.568	6685
2308.569	6667
2310.572	6754
2312.573	6767
2314.573	6804
2316.574	6629
2318.573	6773
2320.571	6721
2322.571	6761
2324.569	6620
2326.567	6683
2328.564	6658
2330.56	6663
2332.556	6647
2334.551	6732
2336.546	6738
2338.542	6602
2340.535	6693
2342.529	6675
2344.521	6644
2346.512	6643
2348.505	6719
2350.497	6684
2352.487	6733
2354.478	6632
2356.468	6502
2358.457	6577
2360.446	6632
2362.434	6640
2364.422	6593
2366.408	6527
2368.395	6479
2370.383	6648
2372.369	6561
2374.353	6575
2376.338	6474
2378.321	6554
2380.307	6599
2382.29	6522
2384.272	6562
2386.254	6583
2388.235	6438
2390.218	6612
2392.198	6516
2394.179	6534
2396.157	6547
2398.137	6632
2400.115	6538
2402.095	6527
2404.072	6626
2406.048	6500
2408.026	6575
2410.001	6592
2411.977	6500
2413.953	6467
2415.927	6579
2417.9	6525
2419.875	6571
2421.847	6567
2423.821	6568
2425.792	6505
2427.763	6596
2429.736	6410
2431.706	6563
2433.677	6513
2435.646	6619
2437.615	6595
2439.583	6485
2441.551	6572
2443.519	6573
2445.486	6468
2447.452	6556
2449.418	6604
2451.383	6528
2453.348	6645
2455.314	6579
2457.278	6524
2459.241	6494
2461.205	6523
2463.167	6414
2465.131	6510
2467.091	6515
2469.052	6414
2471.012	6400
2472.972	6421
2474.932	6527
2476.891	6451
2478.85	6370
2480.808	6470
2482.766	6381
2484.722	6575
2486.68	6479
2488.636	6509
2490.591	6435
2492.546	6349
2494.5	6579
2496.456	6470
2498.41	6356
2500.362	6484
2502.315	6397
2504.266	6391
2506.218	6456
2508.169	6324
2510.121	6338
2512.07	6403
2514.019	6414
2515.968	6461
2517.918	6414
2519.866	6433
2521.813	6364
2523.76	6539
2525.707	6408
2527.653	6386
2529.599	6508
2531.543	6326
2533.489	6381
2535.433	6352
2537.376	6382
2539.32	6394
2541.264	6401
2543.205	6324
2545.147	6391
2547.087	6322
2549.029	6450
2550.969	6448
2552.908	6318
2554.847	6330
2556.786	6364
2558.724	6252
2560.663	6460
2562.6	6418
2564.537	6339
2566.473	6344
2568.408	6469
2570.345	6336
2572.28	6421
2574.214	6324
2576.148	6404
2578.081	6285
2580.014	6425
2581.947	6304
2583.879	6445
2585.81	6351
2587.741	6529
2589.67	6352
2591.602	6350
2593.532	6373
2595.461	6478
2597.388	6338
2599.316	6431
2601.244	6324
2603.172	6555
2605.098	6427
2607.023	6432
2608.949	6407
2610.873	6414
2612.8	6435
2614.723	6474
2616.647	6334
2618.569	6317
2620.493	6353
2622.416	6500
2624.338	6501
2626.258	6426
2628.179	6366
2630.099	6428
2632.019	6547
2633.939	6387
2635.857	6393
2637.775	6368
2639.694	6604
2641.61	6368
2643.528	6501
2645.444	6509
2647.361	6426
2649.276	6420
2651.19	6368
2653.105	6508
2655.019	6440
2656.934	6534
2658.846	6403
2660.758	6345
2662.67	6357
2664.583	6401
2666.493	6412
2668.404	6500
2670.313	6433
2672.223	6360
2674.134	6331
2676.042	6534
2677.95	6355
2679.858	6396
2681.765	6426
2683.673	6337
2685.579	6310
2687.483	6488
2689.389	6345
2691.294	6390
2693.198	6342
2695.104	6282
2697.006	6299
2698.909	6327
2700.811	6423
2702.713	6345
2704.615	6366
2706.516	6293
2708.417	6286
2710.316	6309
2712.216	6191
2714.115	6332
2716.014	6230
2717.913	6221
2719.81	6240
2721.707	6241
2723.603	6308
2725.501	6275
2727.396	6267
2729.292	6287
2731.186	6310
2733.081	6267
2734.976	6250
2736.87	6200
2738.762	6191
2740.653	6281
2742.546	6242
2744.437	6181
2746.329	6178
2748.22	6266
2750.11	6307
2751.999	6182
2753.889	6143
2755.778	6273
2757.666	6306
2759.553	6135
2761.44	6207
2763.328	6248
2765.215	6350
2767.101	6239
2768.986	6231
2770.87	6267
2772.754	6262
2774.638	6128
2776.523	6322
2778.405	6281
2780.288	6239
2782.17	6259
2784.051	6334
2785.934	6237
2787.814	6295
2789.694	6232
2791.574	6171
2793.453	6261
2795.332	6184
2797.212	6308
2799.088	6305
2800.966	6350
2802.843	6149
2804.719	6147
2806.597	6256
2808.471	6250
2810.346	6192
2812.221	6155
2814.094	6233
2815.969	6103
2817.843	6134
2819.714	6149
2821.587	6190
2823.459	6180
2825.329	6191
2827.202	6206
2829.072	6266
2830.942	6192
2832.811	6158
2834.68	6261
2836.549	6238
2838.418	6173
2840.284	6124
2842.152	6188
2844.018	6215
2845.885	6140
2847.751	6239
2849.616	6189
2851.482	6239
2853.345	6267
2855.208	6238
2857.074	6227
2858.937	6243
2860.799	6195
2862.66	6454
2864.522	6271
2866.385	6382
2868.245	6303
2870.104	6430
2871.964	6366
2873.824	6337
2875.683	6283
2877.542	6357
2879.4	6385
2881.257	6427
2883.114	6522
2884.97	6544
2886.827	6372
2888.683	6425
2890.537	6450
2892.392	6465
2894.246	6449
2896.1	6422
2897.954	6499
2899.807	6353
2901.66	6356
2903.51	6490
2905.362	6397
2907.214	6461
2909.065	6476
2910.915	6444
2912.765	6602
2914.613	6584
2916.463	6516
2918.311	6520
2920.158	6527
2922.006	6575
2923.853	6514
2925.698	6714
2927.546	6638
2929.392	6565
2931.236	6651
2933.081	6666
2934.924	6730
2936.77	6664
2938.613	6670
2940.455	6844
2942.298	6711
2944.139	6824
2945.982	6860
2947.823	6755
2949.662	6906
2951.503	6838
2953.342	6744
2955.182	6733
2957.021	6748
2958.858	6706
2960.697	6585
2962.534	6641
2964.37	6643
2966.207	6487
2968.044	6533
2969.879	6428
2971.714	6376
2973.548	6404
2975.383	6366
2977.218	6366
2979.051	6353
2980.883	6404
2982.715	6265
2984.547	6314
2986.379	6327
2988.21	6252
2990.04	6230
2991.87	6242
2993.7	6226
2995.53	6258
2997.359	6205
2999.187	6125
3001.015	6188
3002.842	6117
3004.669	6208
3006.497	6017
3008.323	6056
3010.148	6035
3011.974	5978
3013.797	6035
3015.623	6109
3017.447	5895
3019.27	5925
3021.094	5969
3022.915	5960
3024.737	6006
3026.56	5913
3028.38	5766
3030.201	5776
3032.022	5908
3033.84	5948
3035.662	5893
3037.481	5768
3039.298	5833
3041.117	5919
3042.933	5864
3044.752	5813
3046.568	5768
3048.385	5894
3050.2	5862
3052.016	5758
3053.83	5865
3055.646	5961
3057.46	5732
3059.272	5826
3061.086	5781
3062.898	5838
3064.711	5748
3066.524	5816
3068.335	5751
3070.145	5780
3071.956	5803
3073.766	5770
3075.576	5859
3077.385	5632
3079.193	5852
3081.002	5716
3082.81	5690
3084.618	5814
3086.425	5774
3088.231	5756
3090.036	5645
3091.842	5751
3093.648	5648
3095.452	5650
3097.257	5665
3099.06	5757
3100.863	5736
3102.666	5631
3104.47	5653
3106.272	5673
3108.073	5626
3109.875	5570
3111.676	5602
3113.477	5679
3115.277	5544
3117.077	5659
3118.874	5572
3120.673	5653
3122.473	5563
3124.271	5713
3126.066	5529
3127.863	5563
3129.66	5530
3131.456	5553
3133.252	5565
3135.047	5567
3136.842	5538
3138.635	5494
3140.429	5682
3142.223	5487
3144.016	5611
3145.808	5460
3147.6	5631
3149.392	5473
3151.183	5499
3152.975	5573
3154.765	5531
3156.553	5448
3158.344	5552
3160.132	5378
3161.922	5545
3163.71	5577
3165.497	5508
3167.285	5435
3169.071	5492
3170.858	5509
3172.645	5566
3174.429	5393
3176.214	5422
3177.998	5309
3179.783	5507
3181.568	5471
3183.351	5488
3185.133	5418
3186.915	5439
3188.698	5478
3190.481	5460
3192.261	5405
3194.042	5488
3195.822	5497
3197.601	5360
3199.381	5493
3201.161	5404
3202.939	5413
3204.717	5397
3206.495	5393
3208.272	5409
3210.05	5436
3211.826	5340
3213.602	5441
3215.376	5320
3217.151	5325
3218.927	5424
3220.702	5327
3222.476	5349
3224.249	5360
3226.021	5514
3227.793	5391
3229.567	5321
3231.339	5295
3233.109	5341
3234.88	5375
3236.651	5355
3238.421	5448
3240.191	5353
3241.96	5303
3243.728	5350
3245.497	5455
3247.263	5377
3249.033	5373
3250.799	5414
3252.566	5366
3254.331	5253
3256.097	5367
3257.863	5314
3259.628	5333
3261.392	5313
3263.156	5384
3264.919	5273
3266.683	5400
3268.447	5363
3270.208	5371
3271.969	5341
3273.731	5280
3275.492	5330
3277.253	5372
3279.013	5363
3280.773	5270
3282.532	5401
3284.291	5456
3286.05	5242
3287.808	5271
3289.566	5295
3291.323	5313
3293.079	5433
3294.835	5279
3296.593	5332
3298.348	5297
3300.102	5318
3301.857	5366
3303.611	5397
3305.366	5394
3307.119	5247
3308.872	5291
3310.624	5399
3312.376	5211
3314.129	5233
3315.881	5197
3317.631	5248
3319.38	5295
3321.13	5246
3322.88	5314
3324.631	5250
3326.379	5263
3328.126	5295
3329.875	5277
3331.622	5262
3333.371	5191
3335.116	5288
3336.863	5207
3338.609	5204
3340.353	5379
3342.1	5289
3343.845	5413
3345.588	5350
3347.332	5277
3349.074	5196
3350.817	5342
3352.56	5319
3354.303	5177
3356.043	5156
3357.785	5272
3359.525	5180
3361.268	5190
3363.007	5201
3364.745	5156
3366.485	5184
3368.223	5269
3369.962	5256
3371.701	5140
3373.438	5211
3375.174	5179
3376.911	5198
3378.647	5224
3380.384	5199
3382.118	5254
3383.854	5097
3385.588	5132
3387.322	5129
3389.057	5159
3390.79	5137
3392.522	5087
3394.255	5116
3395.987	5215
3397.719	5034
3399.451	5138
3401.181	5116
3402.911	5177
3404.641	5115
3406.371	5116
3408.101	5073
3409.83	5090
3411.558	5086
3413.285	5010
3415.011	5183
3416.739	5108
3418.467	5025
3420.193	5061
3421.919	5099
3423.644	5072
3425.368	5012
3427.094	5061
3428.818	4989
3430.542	5103
3432.264	5009
3433.987	5006
3435.712	5098
3437.434	5086
3439.155	4971
3440.876	4964
3442.596	5063
3444.317	5020
3446.039	5149
3447.757	4966
3449.477	5041
3451.195	4930
3452.914	4999
3454.632	5054
3456.35	4988
3458.067	4961
3459.784	4986
3461.5	4970
3463.216	4936
3464.932	4956
3466.647	4907
3468.362	4884
3470.076	4932
3471.789	4904
3473.505	5035
3475.217	4905
3476.929	4910
3478.641	4796
3480.354	4848
3482.066	4921
3483.777	4822
3485.487	4877
3487.197	4935
3488.908	4910
3490.617	4967
3492.327	4922
3494.035	4954
3495.743	4836
3497.451	4865
3499.158	4742
3500.866	4913
3502.572	4852
3504.278	4810
3505.984	4828
3507.689	4815
3509.396	4823
3511.1	4822
3512.804	4744
3514.508	4745
3516.211	4859
3517.913	4792
3519.616	4727
3521.319	4807
3523.021	4820
3524.722	4895
3526.422	4702
3528.124	4759
3529.824	4728
3531.524	4732
3533.222	4782
3534.921	4749
3536.62	4823
3538.318	4761
3540.016	4702
3541.714	4751
3543.41	4650
3545.107	4727
3546.803	4821
3548.5	4718
3550.194	4805
3551.889	4703
3553.583	4731
3555.279	4704
3556.972	4695
3558.666	4647
3560.358	4679
3562.051	4839
3563.742	4626
3565.435	4623
3567.126	4681
3568.817	4778
3570.507	4652
3572.197	4655
3573.888	4684
3575.577	4628
3577.265	4709
3578.954	4688
3580.642	4710
3582.329	4680
3584.017	4668
3585.704	4744
3587.391	4619
3589.077	4650
3590.762	4604
3592.449	4697
3594.133	4539
3595.817	4558
3597.501	4695
3599.185	4598
3600.869	4646
3602.552	4427
3604.234	4611
3605.916	4599
3607.598	4492
3609.279	4551
3610.961	4587
3612.642	4543
3614.321	4563
3616	4414
3617.68	4396
3619.36	4532
3621.039	4564
3622.716	4450
3624.394	4530
3626.071	4534
3627.748	4464
3629.425	4524
3631.102	4488
3632.778	4473
3634.452	4526
3636.127	4388
3637.803	4521
3639.477	4410
3641.151	4537
3642.823	4517
3644.497	4436
3646.171	4538
3647.842	4380
3649.515	4460
3651.185	4455
3652.857	4398
3654.527	4403
3656.198	4423
3657.868	4426
3659.537	4377
3661.207	4435
3662.875	4502
3664.544	4416
3666.212	4428
3667.879	4335
3669.546	4314
3671.212	4352
3672.88	4328
3674.546	4362
3676.211	4379
3677.875	4361
3679.541	4321
3681.205	4340
3682.87	4371
3684.533	4397
3686.196	4415
3687.859	4286
3689.521	4387
3691.184	4358
3692.845	4385
3694.507	4358
3696.167	4405
3697.827	4420
3699.487	4367
3701.148	4385
3702.808	4388
3704.466	4399
3706.125	4341
3707.783	4308
3709.442	4298
3711.099	4304
3712.757	4332
3714.412	4347
3716.068	4218
3717.725	4370
3719.381	4253
3721.036	4200
3722.689	4335
3724.344	4321
3725.998	4345
3727.652	4254
3729.305	4358
3730.958	4298
3732.61	4241
3734.262	4189
3735.915	4228
3737.565	4243
3739.217	4207
3740.866	4239
3742.516	4266
3744.165	4235
3745.816	4261
3747.464	4378
3749.113	4136
3750.761	4111
3752.409	4293
3754.057	4279
3755.703	4192
3757.35	4247
3758.996	4290
3760.641	4213
3762.289	4288
3763.933	4228
3765.577	4191
3767.222	4192
3768.865	4209
3770.508	4234
3772.152	4258
3773.796	4192
3775.438	4254
3777.079	4106
3778.721	4214
3780.363	4214
3782.003	4249
3783.643	4192
3785.283	4096
3786.923	4158
3788.563	4109
3790.203	4186
3791.841	4137
3793.479	4200
3795.115	4108
3796.753	4012
3798.391	4132
3800.027	4094
3801.664	4191
3803.299	4085
3804.935	4088
3806.571	4065
3808.206	4044
3809.839	4215
3811.473	4058
3813.107	4187
3814.74	4122
3816.375	4120
3818.006	4164
3819.638	4058
3821.27	4099
3822.9	4001
3824.532	4113
3826.163	4106
3827.792	4077
3829.423	4026
3831.051	3974
3832.682	3989
3834.311	3966
3835.938	4030
3837.566	4014
3839.193	3955
3840.821	4022
3842.448	3990
3844.075	3921
3845.7	4066
3847.325	4014
3848.951	4029
3850.576	3958
3852.201	3987
3853.825	3983
3855.448	3927
3857.072	3904
3858.694	4051
3860.318	3958
3861.939	3949
3863.562	4080
3865.183	3988
3866.804	3983
3868.426	4001
3870.045	3940
3871.666	3974
3873.285	3876
3874.904	3955
3876.524	3881
3878.142	3946
3879.76	3967
3881.378	3981
3882.995	3924
3884.612	3854
3886.229	3973
3887.845	3814
3889.461	3910
3891.076	3889
3892.691	3941
3894.307	3897
3895.922	3756
3897.536	3883
3899.149	3877
3900.761	3963
3902.374	3902
3903.988	3868
3905.6	3892
3907.212	3976
3908.822	3875
3910.433	3865
3912.045	3826
3913.655	3860
3915.265	3852
3916.875	3849
3918.483	3883
3920.093	3894
3921.702	3868
3923.309	3891
3924.917	3873
3926.523	3888
3928.13	3918
3929.739	3883
3931.344	3914
3932.95	3798
3934.555	3815
3936.159	3835
3937.766	3894
3939.369	3874
3940.974	3874
3942.577	3858
3944.181	3784
3945.783	3876
3947.386	3801
3948.989	3884
3950.59	3835
3952.191	3806
3953.791	3826
3955.394	3824
3956.994	3833
3958.593	3813
3960.192	3765
3961.791	3853
3963.392	3733
3964.99	3754
3966.588	3812
3968.185	3825
3969.782	3753
3971.379	3802
3972.976	3803
3974.572	3753
3976.168	3674
3977.763	3733
3979.358	3738
3980.954	3669
3982.548	3749
3984.142	3705
3985.736	3667
3987.329	3718
3988.922	3752
3990.516	3724
3992.108	3655
3993.698	3749
3995.29	3681
3996.881	3740
3998.473	3636
4000.064	3644
4001.653	3581
4003.242	3720
4004.832	3639
4006.422	3742
4008.01	3684
4009.598	3695
4011.186	3631
4012.773	3630
4014.36	3627
4015.947	3632
4017.534	3685
4019.119	3546
4020.705	3568
4022.291	3661
4023.876	3668
4025.461	3631
4027.044	3550
4028.627	3625
4030.211	3629
4031.795	3617
4033.378	3595
4034.96	3541
4036.542	3568
4038.124	3548
4039.704	3549
4041.286	3575
4042.867	3552
4044.447	3502
4046.026	3652
4047.606	3586
4049.187	3482
4050.765	3550
4052.343	3500
4053.92	3510
4055.498	3602
4057.076	3550
4058.654	3555
4060.23	3580
4061.806	3511
4063.381	3555
4064.957	3503
4066.533	3571
4068.107	3536
4069.682	3598
4071.256	3558
4072.829	3529
4074.404	3520
4075.977	3545
4077.549	3490
4079.121	3531
4080.693	3455
4082.265	3524
4083.836	3463
4085.407	3538
4086.977	3548
4088.547	3508
4090.117	3481
4091.687	3559
4093.256	3518
4094.825	3452
4096.392	3497
4097.96	3417
4099.528	3405
4101.097	3449
4102.663	3508
4104.229	3410
4105.795	3435
4107.361	3470
4108.928	3421
4110.493	3447
4112.058	3400
4113.621	3466
4115.186	3400
4116.75	3440
4118.313	3430
4119.876	3332
4121.438	3338
4123	3365
4124.562	3476
4126.125	3355
4127.686	3444
4129.246	3449
4130.807	3471
4132.367	3318
4133.927	3421
4135.486	3366
4137.046	3444
4138.604	3395
4140.162	3439
4141.72	3380
4143.279	3329
4144.836	3310
4146.393	3358
4147.949	3388
4149.505	3358
4151.062	3284
4152.617	3320
4154.172	3311
4155.727	3311
4157.281	3374
4158.836	3285
4160.39	3324
4161.943	3313
4163.496	3330
4165.048	3323
4166.601	3253
4168.154	3277
4169.706	3296
4171.257	3295
4172.808	3243
4174.358	3234
4175.909	3225
4177.458	3238
4179.008	3295
4180.558	3339
4182.106	3263
4183.655	3260
4185.204	3277
4186.751	3230
4188.298	3270
4189.845	3201
4191.392	3239
4192.939	3316
4194.485	3198
4196.031	3228
4197.576	3324
4199.121	3225
4200.666	3161
4202.211	3219
4203.754	3285
4205.298	3206
4206.84	3195
4208.384	3249
4209.927	3214
4211.47	3316
4213.011	3221
4214.552	3135
4216.094	3147
4217.635	3216
4219.175	3129
4220.716	3259
4222.255	3184
4223.793	3224
4225.335	3161
4226.873	3142
4228.411	3185
4229.948	3111
4231.486	3156
4233.024	3080
4234.562	3121
4236.098	3136
4237.634	3132
4239.169	3164
4240.705	3178
4242.241	3162
4243.776	3156
4245.31	3189
4246.844	3197
4248.378	3080
4249.911	3115
4251.445	3112
4252.978	3236
4254.51	3048
4256.042	3056
4257.574	3146
4259.107	3088
4260.638	3101
4262.169	3173
4263.699	3123
4265.228	3036
4266.759	3125
4268.289	3125
4269.818	3082
4271.345	3077
4272.874	3101
4274.402	3110
4275.931	3112
4277.458	3116
4278.985	3046
4280.512	3101
4282.037	3118
4283.564	3052
4285.089	3077
4286.615	3127
4288.139	3080
4289.664	3048
4291.187	3029
4292.712	3082
4294.235	2972
4295.759	3066
4297.281	3032
4298.804	3038
4300.327	3013
4301.849	2986
4303.37	3054
4304.891	3022
4306.412	3018
4307.933	2987
4309.453	3032
4310.973	3050
4312.492	3027
