398.1873	2846
400.7097	2878
403.2336	2919
405.7547	2911
408.2751	2940
410.7948	2890
413.3138	3007
415.83	3026
418.3497	2911
420.8666	3005
423.3829	3009
425.8985	3006
428.4133	3029
430.9275	3028
433.441	3080
435.9538	3050
438.4639	3030
440.9753	3052
443.4881	3077
445.9982	3111
448.5055	3138
451.0142	3072
453.5201	3110
456.0274	3044
458.5361	3094
461.04	3089
463.5453	3111
466.0478	3048
468.5517	3122
471.0549	3126
473.5574	3091
476.0572	3063
478.5584	3118
481.0568	3083
483.5545	3082
486.0557	3138
488.5521	3102
491.0478	3087
493.5449	3161
496.0392	3140
498.5349	3058
501.0299	3169
503.5222	3129
506.0139	3113
508.5048	3288
510.9991	3209
513.4887	3186
515.9777	3200
518.4659	3199
520.9534	3128
523.4403	3160
525.9306	3173
528.4161	3152
530.9009	3230
533.3851	3263
535.8687	3145
538.3535	3229
540.8356	3211
543.3171	3275
545.7979	3149
548.278	3178
550.7595	3176
553.2383	3241
555.7144	3277
558.1918	3297
560.6685	3210
563.1446	3271
565.6221	3184
568.0968	3272
570.5688	3306
573.0422	3287
575.515	3312
577.989	3247
580.4584	3327
582.9291	3256
585.3991	3345
587.8685	3368
590.3352	3400
592.8052	3296
595.2706	3375
597.7372	3323
600.2033	3307
602.6666	3288
605.1334	3260
607.5953	3357
610.0587	3271
612.5193	3325
614.9814	3290
617.4427	3266
619.9034	3305
622.3615	3281
624.8208	3294
627.2775	3290
629.7335	3305
632.1929	3317
634.6476	3312
637.1016	3351
639.5569	3343
642.0096	3310
644.4637	3315
646.9151	3361
649.3678	3382
651.8179	3261
654.2672	3285
656.7159	3311
659.166	3309
661.6154	3294
664.0622	3275
666.5082	3362
668.9537	3345
671.4005	3465
673.8445	3412
676.288	3341
678.7308	3311
681.1729	3364
683.6163	3331
686.0572	3408
688.4973	3417
690.9368	3317
693.3757	3396
695.8138	3458
698.2534	3461
700.6902	3441
703.1245	3369
705.56	3464
707.9949	3471
710.4311	3463
712.8647	3443
715.2957	3449
717.7279	3410
720.1595	3505
722.5905	3456
725.0208	3454
727.4505	3544
729.8795	3568
732.3058	3485
734.7336	3563
737.1626	3454
739.587	3528
742.0128	3573
744.4359	3512
746.8604	3620
749.2841	3571
751.7073	3578
754.1278	3528
756.5496	3581
758.9688	3622
761.3893	3580
763.8093	3658
766.2285	3669
768.6451	3604
771.0611	3681
773.4784	3617
775.895	3667
778.3091	3611
780.7244	3639
783.1371	3584
785.5493	3556
787.9626	3589
790.3754	3729
792.7856	3634
795.1951	3649
797.6039	3613
800.0121	3661
802.4236	3740
804.8306	3662
807.2369	3695
809.6425	3676
812.0475	3673
814.4538	3689
816.8575	3647
819.2606	3653
821.663	3703
824.0648	3645
826.4659	3652
828.8683	3697
831.2682	3735
833.6674	3634
836.066	3674
838.4639	3759
840.8632	3764
843.2579	3782
845.6539	3783
848.0493	3708
850.444	3698
852.84	3690
855.2315	3675
857.6243	3750
860.0165	3750
862.4081	3696
864.797	3697
867.1892	3778
869.5789	3710
871.9659	3733
874.3542	3729
876.74	3786
879.129	3740
881.5155	3729
883.8994	3796
886.2845	3660
888.6671	3815
891.051	3729
893.4343	3690
895.8169	3684
898.197	3721
900.5783	3764
902.9571	3710
905.3372	3819
907.7167	3707
910.0936	3805
912.4698	3830
914.8474	3774
917.2244	3717
919.5987	3810
921.9744	3897
924.3475	3864
926.72	3909
929.0918	3851
931.4669	3936
933.8375	3920
936.2074	3956
938.5767	3936
940.9454	3944
943.3154	3997
945.6829	4030
948.0497	4159
950.4178	4206
952.7833	4448
955.1483	4417
957.5145	4555
959.8782	4668
962.2412	4610
964.6036	4612
966.9655	4367
969.3266	4192
971.6871	4219
974.0471	4086
976.4064	3939
978.765	3940
981.125	3873
983.4824	3872
985.8373	3775
988.1935	3878
990.549	3817
992.9039	3841
995.2602	3887
997.6119	3799
999.965	3880
1002.317	3862
1004.667	3862
1007.02	3917
1009.371	3906
1011.719	3863
1014.068	3960
1016.415	3864
1018.765	3891
1021.111	3932
1023.458	3934
1025.804	3883
1028.147	3867
1030.49	3895
1032.837	3962
1035.179	3997
1037.522	3935
1039.862	3882
1042.204	3977
1044.546	3998
1046.884	3985
1049.224	3949
1051.562	3897
1053.899	3974
1056.237	3972
1058.575	4054
1060.91	4086
1063.244	4027
1065.58	3987
1067.913	4026
1070.248	3963
1072.579	3904
1074.911	4075
1077.242	4029
1079.572	4014
1081.905	4020
1084.234	4023
1086.562	4035
1088.89	3969
1091.217	3923
1093.544	3968
1095.871	3956
1098.197	3999
1100.521	3897
1102.845	3985
1105.169	3964
1107.491	4044
1109.814	4005
1112.135	3913
1114.456	4007
1116.776	4039
1119.096	3976
1121.415	4003
1123.734	4022
1126.052	3993
1128.369	4005
1130.686	3973
1133.002	4052
1135.318	3985
1137.632	3904
1139.945	3899
1142.258	4029
1144.573	4042
1146.884	3982
1149.196	4016
1151.505	4005
1153.816	4015
1156.124	4016
1158.435	4025
1160.742	3986
1163.051	4002
1165.356	4008
1167.663	4083
1169.97	3944
1172.276	4143
1174.579	4021
1176.881	4061
1179.186	4048
1181.487	3966
1183.79	4024
1186.092	4076
1188.392	3987
1190.691	3962
1192.991	3967
1195.291	4033
1197.588	4017
1199.885	4043
1202.181	4011
1204.479	3980
1206.775	3997
1209.07	3977
1211.363	4035
1213.656	4029
1215.949	4014
1218.241	4035
1220.534	4047
1222.825	4142
1225.115	4078
1227.405	4132
1229.693	4092
1231.984	4118
1234.271	4037
1236.558	4117
1238.845	4099
1241.131	4230
1243.416	4186
1245.703	4114
1247.987	4165
1250.269	4175
1252.552	4104
1254.834	4182
1257.118	4143
1259.399	4159
1261.678	4077
1263.958	4184
1266.237	4163
1268.516	4241
1270.794	4139
1273.072	4196
1275.347	4189
1277.624	4201
1279.899	4094
1282.175	4104
1284.449	4169
1286.722	4104
1288.995	4140
1291.266	4114
1293.54	4154
1295.81	4192
1298.081	4107
1300.35	4157
1302.62	4142
1304.889	4077
1307.156	3984
1309.425	4092
1311.69	4102
1313.957	4052
1316.222	4146
1318.488	4104
1320.751	4025
1323.016	4154
1325.278	4164
1327.54	4179
1329.803	4155
1332.065	4159
1334.325	4150
1336.584	4071
1338.843	4044
1341.101	4125
1343.36	4095
1345.617	4147
1347.876	4079
1350.131	4180
1352.387	4143
1354.643	4225
1356.897	4129
1359.151	4240
1361.403	4094
1363.656	4128
1365.909	4149
1368.16	4277
1370.409	4178
1372.659	4211
1374.909	4195
1377.157	4183
1379.407	4166
1381.655	4137
1383.9	4229
1386.147	4118
1388.393	4128
1390.64	4206
1392.885	4301
1395.127	4306
1397.37	4170
1399.614	4132
1401.854	4194
1404.098	4271
1406.339	4180
1408.578	4206
1410.818	4142
1413.056	4234
1415.297	4185
1417.533	4236
1419.771	4219
1422.006	4198
1424.243	4224
1426.479	4335
1428.715	4359
1430.948	4247
1433.182	4239
1435.414	4303
1437.647	4215
1439.88	4213
1442.11	4331
1444.342	4293
1446.571	4337
1448.799	4288
1451.029	4382
1453.258	4363
1455.485	4396
1457.711	4293
1459.937	4306
1462.164	4343
1464.39	4325
1466.614	4354
1468.838	4316
1471.06	4349
1473.283	4307
1475.506	4258
1477.727	4204
1479.949	4245
1482.169	4228
1484.389	4195
1486.609	4325
1488.828	4203
1491.045	4265
1493.261	4204
1495.477	4208
1497.693	4206
1499.91	4228
1502.125	4245
1504.339	4219
1506.553	4212
1508.766	4124
1510.979	4249
1513.191	4190
1515.402	4166
1517.613	4181
1519.823	4129
1522.033	4180
1524.242	4137
1526.451	4143
1528.657	4223
1530.865	4267
1533.072	4175
1535.278	4134
1537.484	4272
1539.687	4205
1541.892	4319
1544.096	4194
1546.299	4194
1548.502	4184
1550.703	4294
1552.905	4260
1555.104	4241
1557.303	4262
1559.505	4251
1561.703	4262
1563.902	4313
1566.099	4294
1568.295	4390
1570.494	4267
1572.689	4327
1574.883	4262
1577.079	4328
1579.272	4254
1581.467	4309
1583.659	4334
1585.853	4425
1588.044	4265
1590.234	4400
1592.424	4279
1594.615	4337
1596.806	4417
1598.994	4417
1601.182	4377
1603.369	4374
1605.557	4319
1607.744	4224
1609.929	4418
1612.114	4414
1614.298	4436
1616.482	4363
1618.667	4431
1620.85	4438
1623.032	4366
1625.214	4404
1627.395	4367
1629.575	4349
1631.755	4425
1633.935	4392
1636.114	4402
1638.292	4459
1640.471	4443
1642.647	4417
1644.823	4349
1647	4388
1649.175	4485
1651.348	4420
1653.525	4346
1655.698	4432
1657.87	4473
1660.043	4450
1662.213	4373
1664.387	4391
1666.558	4433
1668.727	4505
1670.896	4393
1673.064	4393
1675.233	4401
1677.401	4445
1679.569	4380
1681.735	4464
1683.902	4444
1686.066	4451
1688.233	4413
1690.397	4393
1692.559	4381
1694.723	4306
1696.885	4449
1699.048	4317
1701.21	4436
1703.37	4374
1705.53	4548
1707.689	4333
1709.849	4343
1712.009	4437
1714.166	4364
1716.323	4328
1718.479	4445
1720.634	4362
1722.793	4350
1724.948	4402
1727.102	4349
1729.255	4462
1731.408	4333
1733.562	4452
1735.714	4421
1737.865	4391
1740.016	4393
1742.166	4431
1744.316	4377
1746.467	4414
1748.616	4458
1750.764	4367
1752.911	4492
1755.056	4512
1757.205	4352
1759.35	4460
1761.496	4487
1763.641	4419
1765.785	4480
1767.927	4463
1770.072	4363
1772.214	4400
1774.355	4491
1776.496	4518
1778.637	4526
1780.778	4424
1782.918	4457
1785.057	4504
1787.194	4365
1789.333	4548
1791.472	4407
1793.608	4488
1795.745	4449
1797.879	4527
1800.015	4455
1802.148	4508
1804.284	4421
1806.417	4509
1808.548	4427
1810.682	4472
1812.812	4471
1814.946	4414
1817.075	4448
1819.205	4614
1821.335	4515
1823.463	4426
1825.59	4434
1827.721	4425
1829.847	4456
1831.973	4474
1834.098	4465
1836.223	4416
1838.351	4488
1840.475	4472
1842.598	4408
1844.721	4469
1846.843	4497
1848.966	4425
1851.087	4460
1853.21	4525
1855.33	4422
1857.449	4341
1859.568	4374
1861.688	4483
1863.806	4470
1865.924	4418
1868.039	4403
1870.155	4445
1872.273	4403
1874.388	4614
1876.503	4424
1878.617	4406
1880.73	4489
1882.844	4462
1884.956	4494
1887.068	4467
1889.18	4455
1891.291	4473
1893.4	4438
1895.511	4508
1897.621	4451
1899.73	4510
1901.837	4502
1903.944	4560
1906.053	4482
1908.159	4464
1910.265	4496
1912.369	4541
1914.474	4513
1916.577	4547
1918.683	4459
1920.785	4594
1922.888	4480
1924.989	4603
1927.091	4565
1929.193	4422
1931.294	4452
1933.393	4517
1935.493	4484
1937.59	4483
1939.689	4612
1941.788	4625
1943.884	4621
1945.98	4494
1948.077	4466
1950.171	4539
1952.267	4466
1954.361	4596
1956.455	4577
1958.548	4615
1960.64	4574
1962.733	4543
1964.824	4485
1966.915	4525
1969.005	4562
1971.096	4458
1973.185	4510
1975.275	4415
1977.363	4472
1979.45	4568
1981.537	4496
1983.623	4548
1985.711	4529
1987.796	4594
1989.881	4549
1991.965	4568
1994.047	4507
1996.132	4583
1998.215	4515
2000.297	4596
2002.378	4504
2004.46	4485
2006.54	4557
2008.62	4529
2010.7	4446
2012.779	4528
2014.858	4511
2016.934	4576
2019.013	4561
2021.09	4509
2023.165	4585
2025.241	4480
2027.317	4545
2029.39	4548
2031.466	4571
2033.538	4524
2035.612	4501
2037.683	4494
2039.755	4429
2041.827	4485
2043.898	4565
2045.968	4602
2048.038	4541
2050.106	4519
2052.177	4647
2054.244	4498
2056.313	4513
2058.379	4628
2060.444	4491
2062.511	4528
2064.577	4594
2066.641	4471
2068.705	4565
2070.77	4549
2072.832	4564
2074.896	4553
2076.958	4487
2079.02	4596
2081.081	4554
2083.141	4500
2085.2	4528
2087.261	4573
2089.319	4509
2091.377	4495
2093.435	4640
2095.492	4640
2097.552	4569
2099.607	4599
2101.663	4428
2103.718	4657
2105.771	4530
2107.826	4560
2109.879	4483
2111.932	4626
2113.985	4484
2116.037	4556
2118.088	4523
2120.141	4623
2122.191	4557
2124.239	4518
2126.288	4591
2128.337	4594
2130.387	4609
2132.434	4593
2134.481	4529
2136.528	4562
2138.574	4444
2140.618	4605
2142.665	4475
2144.71	4599
2146.753	4501
2148.797	4634
2150.838	4561
2152.883	4493
2154.923	4558
2156.965	4496
2159.007	4542
2161.046	4559
2163.086	4523
2165.126	4551
2167.163	4452
2169.202	4609
2171.239	4432
2173.277	4568
2175.314	4504
2177.349	4479
2179.385	4528
2181.42	4499
2183.453	4489
2185.49	4516
2187.522	4525
2189.555	4501
2191.586	4560
2193.619	4557
2195.651	4517
2197.682	4497
2199.711	4506
2201.74	4590
2203.769	4565
2205.799	4492
2207.828	4501
2209.855	4535
2211.882	4473
2213.908	4551
2215.934	4563
2217.961	4447
2219.986	4484
2222.01	4397
2224.034	4443
2226.057	4502
2228.08	4509
2230.104	4517
2232.124	4544
2234.145	4434
2236.166	4474
2238.186	4455
2240.207	4509
2242.227	4502
2244.244	4361
2246.262	4488
2248.28	4480
2250.299	4382
2252.314	4516
2254.33	4485
2256.346	4513
2258.36	4536
2260.375	4446
2262.391	4449
2264.403	4490
2266.416	4546
2268.427	4490
2270.44	4502
2272.453	4506
2274.463	4499
2276.474	4476
2278.483	4479
2280.493	4549
2282.501	4534
2284.51	4479
2286.518	4472
2288.524	4549
2290.532	4521
2292.537	4450
2294.544	4327
2296.55	4499
2298.554	4524
2300.557	4439
2302.562	4465
2304.566	4457
2306.568	4438
2308.569	4436
2310.572	4475
2312.573	4442
2314.573	4464
2316.574	4499
2318.573	4464
2320.571	4514
2322.571	4613
2324.569	4430
2326.567	4427
2328.564	4420
2330.56	4490
2332.556	4546
2334.551	4453
2336.546	4520
2338.542	4407
2340.535	4537
2342.529	4428
2344.521	4471
2346.512	4487
2348.505	4422
2350.497	4458
2352.487	4465
2354.478	4487
2356.468	4382
2358.457	4400
2360.446	4451
2362.434	4400
2364.422	4464
2366.408	4497
2368.395	4382
2370.383	4473
2372.369	4442
2374.353	4346
2376.338	4398
2378.321	4460
2380.307	4465
2382.29	4398
2384.272	4416
2386.254	4370
2388.235	4413
2390.218	4462
2392.198	4427
2394.179	4377
2396.157	4436
2398.137	4435
2400.115	4493
2402.095	4419
2404.072	4420
2406.048	4393
2408.026	4368
2410.001	4415
2411.977	4388
2413.953	4379
2415.927	4386
2417.9	4411
2419.875	4349
2421.847	4353
2423.821	4387
2425.792	4428
2427.763	4469
2429.736	4490
2431.706	4390
2433.677	4407
2435.646	4443
2437.615	4395
2439.583	4479
2441.551	4423
2443.519	4403
2445.486	4449
2447.452	4425
2449.418	4387
2451.383	4365
2453.348	4447
2455.314	4418
2457.278	4300
2459.241	4409
2461.205	4420
2463.167	4338
2465.131	4396
2467.091	4476
2469.052	4393
2471.012	4373
2472.972	4482
2474.932	4421
2476.891	4369
2478.85	4365
2480.808	4359
2482.766	4492
2484.722	4338
2486.68	4352
2488.636	4352
2490.591	4326
2492.546	4332
2494.5	4306
2496.456	4341
2498.41	4448
2500.362	4392
2502.315	4298
2504.266	4400
2506.218	4389
2508.169	4381
2510.121	4294
2512.07	4364
2514.019	4346
2515.968	4373
2517.918	4366
2519.866	4276
2521.813	4419
2523.76	4350
2525.707	4379
2527.653	4362
2529.599	4339
2531.543	4321
2533.489	4301
2535.433	4301
2537.376	4306
2539.32	4381
2541.264	4426
2543.205	4239
2545.147	4345
2547.087	4433
2549.029	4312
2550.969	4275
2552.908	4410
2554.847	4310
2556.786	4342
2558.724	4440
2560.663	4320
2562.6	4394
2564.537	4284
2566.473	4371
2568.408	4330
2570.345	4387
2572.28	4437
2574.214	4375
2576.148	4352
2578.081	4334
2580.014	4343
2581.947	4423
2583.879	4403
2585.81	4290
2587.741	4339
2589.67	4350
2591.602	4389
2593.532	4330
2595.461	4265
2597.388	4320
2599.316	4431
2601.244	4412
2603.172	4388
2605.098	4322
2607.023	4355
2608.949	4359
2610.873	4387
2612.8	4416
2614.723	4409
2616.647	4365
2618.569	4363
2620.493	4320
2622.416	4353
2624.338	4414
2626.258	4373
2628.179	4376
2630.099	4420
2632.019	4447
2633.939	4371
2635.857	4396
2637.775	4467
2639.694	4382
2641.61	4328
2643.528	4368
2645.444	4294
2647.361	4365
2649.276	4317
2651.19	4394
2653.105	4390
2655.019	4362
2656.934	4456
2658.846	4439
2660.758	4379
2662.67	4358
2664.583	4392
2666.493	4268
2668.404	4425
2670.313	4411
2672.223	4417
2674.134	4350
2676.042	4347
2677.95	4426
2679.858	4367
2681.765	4399
2683.673	4287
2685.579	4362
2687.483	4252
2689.389	4383
2691.294	4405
2693.198	4322
2695.104	4277
2697.006	4368
2698.909	4293
2700.811	4283
2702.713	4414
2704.615	4324
2706.516	4356
2708.417	4305
2710.316	4342
2712.216	4350
2714.115	4244
2716.014	4324
2717.913	4318
2719.81	4308
2721.707	4365
2723.603	4284
2725.501	4270
2727.396	4274
2729.292	4310
2731.186	4363
2733.081	4379
2734.976	4289
2736.87	4292
2738.762	4229
2740.653	4339
2742.546	4223
2744.437	4301
2746.329	4356
2748.22	4345
2750.11	4278
2751.999	4308
2753.889	4342
2755.778	4259
2757.666	4312
2759.553	4294
2761.44	4225
2763.328	4280
2765.215	4222
2767.101	4345
2768.986	4216
2770.87	4273
2772.754	4362
2774.638	4312
2776.523	4305
2778.405	4308
2780.288	4387
2782.17	4276
2784.051	4294
2785.934	4281
2787.814	4312
2789.694	4302
2791.574	4265
2793.453	4239
2795.332	4233
2797.212	4229
2799.088	4269
2800.966	4307
2802.843	4319
2804.719	4290
2806.597	4304
2808.471	4289
2810.346	4248
2812.221	4349
2814.094	4339
2815.969	4226
2817.843	4243
2819.714	4312
2821.587	4194
2823.459	4269
2825.329	4232
2827.202	4231
2829.072	4261
2830.942	4330
2832.811	4331
2834.68	4314
2836.549	4357
2838.418	4218
2840.284	4289
2842.152	4417
2844.018	4289
2845.885	4298
2847.751	4236
2849.616	4320
2851.482	4290
2853.345	4307
2855.208	4234
2857.074	4347
2858.937	4315
2860.799	4375
2862.66	4308
2864.522	4386
2866.385	4295
2868.245	4377
2870.104	4392
2871.964	4330
2873.824	4395
2875.683	4495
2877.542	4483
2879.4	4526
2881.257	4533
2883.114	4466
2884.97	4514
2886.827	4575
2888.683	4443
2890.537	4462
2892.392	4496
2894.246	4525
2896.1	4510
2897.954	4530
2899.807	4524
2901.66	4376
2903.51	4397
2905.362	4471
2907.214	4529
2909.065	4506
2910.915	4493
2912.765	4458
2914.613	4580
2916.463	4604
2918.311	4457
2920.158	4620
2922.006	4624
2923.853	4630
2925.698	4595
2927.546	4707
2929.392	4707
2931.236	4799
2933.081	4725
2934.924	4852
2936.77	4780
2938.613	4795
2940.455	4817
2942.298	4860
2944.139	4945
2945.982	4780
2947.823	4835
2949.662	4633
2951.503	4821
2953.342	4757
2955.182	4716
2957.021	4722
2958.858	4793
2960.697	4692
2962.534	4623
2964.37	4747
2966.207	4671
2968.044	4583
2969.879	4568
2971.714	4589
2973.548	4516
2975.383	4564
2977.218	4517
2979.051	4510
2980.883	4554
2982.715	4575
2984.547	4514
2986.379	4413
2988.21	4470
2990.04	4407
2991.87	4497
2993.7	4354
2995.53	4419
2997.359	4438
2999.187	4301
3001.015	4373
3002.842	4359
3004.669	4287
3006.497	4273
3008.323	4307
3010.148	4210
3011.974	4293
3013.797	4191
3015.623	4273
3017.447	4256
3019.27	4217
3021.094	4222
3022.915	4165
3024.737	4203
3026.56	4145
3028.38	4221
3030.201	4107
3032.022	4100
3033.84	4126
3035.662	4132
3037.481	4139
3039.298	4191
3041.117	4148
3042.933	4152
3044.752	4118
3046.568	4221
3048.385	4166
3050.2	4123
3052.016	4044
3053.83	4140
3055.646	4145
3057.46	4053
3059.272	4082
3061.086	4020
3062.898	4144
3064.711	4111
3066.524	4130
3068.335	4032
3070.145	4121
3071.956	4010
3073.766	4111
3075.576	4112
3077.385	4085
3079.193	4091
3081.002	4061
3082.81	4018
3084.618	4063
3086.425	3991
3088.231	4139
3090.036	4012
3091.842	4094
3093.648	4043
3095.452	4004
3097.257	4077
3099.06	4003
3100.863	4012
3102.666	3934
3104.47	3963
3106.272	3985
3108.073	3940
3109.875	3965
3111.676	3966
3113.477	4008
3115.277	3986
3117.077	3963
3118.874	3951
3120.673	4055
3122.473	3957
3124.271	3970
3126.066	3940
3127.863	3933
3129.66	3974
3131.456	3962
3133.252	3955
3135.047	3898
3136.842	3976
3138.635	3958
3140.429	4022
3142.223	3928
3144.016	4002
3145.808	3917
3147.6	3965
3149.392	3898
3151.183	3955
3152.975	3904
3154.765	3982
3156.553	3895
3158.344	3940
3160.132	3938
3161.922	4002
3163.71	3893
3165.497	3928
3167.285	3910
3169.071	3990
3170.858	3955
3172.645	3884
3174.429	3979
3176.214	3928
3177.998	3853
3179.783	3867
3181.568	3893
3183.351	3884
3185.133	3965
3186.915	3906
3188.698	3895
3190.481	3904
3192.261	3880
3194.042	3858
3195.822	3852
3197.601	3887
3199.381	3869
3201.161	3931
3202.939	3909
3204.717	3898
3206.495	3895
3208.272	3864
3210.05	3887
3211.826	3833
3213.602	3859
3215.376	3893
3217.151	3895
3218.927	3852
3220.702	3886
3222.476	3820
3224.249	3880
3226.021	4003
3227.793	3867
3229.567	3892
3231.339	3868
3233.109	3873
3234.88	3970
3236.651	3860
3238.421	3818
3240.191	3819
3241.96	3813
3243.728	3915
3245.497	3797
3247.263	3968
3249.033	3955
3250.799	3892
3252.566	3880
3254.331	3828
3256.097	3845
3257.863	3839
3259.628	3868
3261.392	3878
3263.156	3913
3264.919	3909
3266.683	3864
3268.447	3881
3270.208	3868
3271.969	3904
3273.731	3813
3275.492	3898
3277.253	3870
3279.013	3870
3280.773	3956
3282.532	3801
3284.291	3804
3286.05	3914
3287.808	3874
3289.566	3914
3291.323	3773
3293.079	3822
3294.835	3793
3296.593	3810
3298.348	3826
3300.102	3806
3301.857	3877
3303.611	3867
3305.366	3845
3307.119	3862
3308.872	3925
3310.624	3895
3312.376	3878
3314.129	3861
3315.881	3875
3317.631	3842
3319.38	3893
3321.13	3831
3322.88	3971
3324.631	3807
3326.379	3811
3328.126	3905
3329.875	3841
3331.622	3770
3333.371	3875
3335.116	3793
3336.863	3824
3338.609	3843
3340.353	3815
3342.1	3839
3343.845	3842
3345.588	3783
3347.332	3839
3349.074	3845
3350.817	3859
3352.56	3874
3354.303	3787
3356.043	3911
3357.785	3865
3359.525	3793
3361.268	3846
3363.007	3738
3364.745	3762
3366.485	3811
3368.223	3824
3369.962	3802
3371.701	3755
3373.438	3667
3375.174	3698
3376.911	3766
3378.647	3756
3380.384	3818
3382.118	3777
3383.854	3850
3385.588	3823
3387.322	3728
3389.057	3810
3390.79	3753
3392.522	3771
3394.255	3743
3395.987	3813
3397.719	3743
3399.451	3742
3401.181	3713
3402.911	3739
3404.641	3688
3406.371	3768
3408.101	3690
3409.83	3767
3411.558	3754
3413.285	3769
3415.011	3801
3416.739	3727
3418.467	3732
3420.193	3708
3421.919	3753
3423.644	3677
3425.368	3775
3427.094	3776
3428.818	3669
3430.542	3737
3432.264	3700
3433.987	3727
3435.712	3676
3437.434	3711
3439.155	3673
3440.876	3751
3442.596	3676
3444.317	3713
3446.039	3629
3447.757	3657
3449.477	3666
3451.195	3596
3452.914	3657
3454.632	3667
3456.35	3649
3458.067	3717
3459.784	3591
3461.5	3735
3463.216	3580
3464.932	3663
3466.647	3599
3468.362	3528
3470.076	3612
3471.789	3553
3473.505	3624
3475.217	3617
3476.929	3576
3478.641	3656
3480.354	3605
3482.066	3641
3483.777	3569
3485.487	3566
3487.197	3549
3488.908	3589
3490.617	3617
3492.327	3581
3494.035	3599
3495.743	3602
3497.451	3565
3499.158	3565
3500.866	3546
3502.572	3554
3504.278	3536
3505.984	3627
3507.689	3463
3509.396	3599
3511.1	3550
3512.804	3451
3514.508	3554
3516.211	3500
3517.913	3463
3519.616	3526
3521.319	3580
3523.021	3535
3524.722	3542
3526.422	3570
3528.124	3481
3529.824	3605
3531.524	3511
3533.222	3415
3534.921	3498
3536.62	3533
3538.318	3466
3540.016	3476
3541.714	3438
3543.41	3528
3545.107	3484
3546.803	3487
3548.5	3486
3550.194	3412
3551.889	3424
3553.583	3429
3555.279	3484
3556.972	3487
3558.666	3519
3560.358	3472
3562.051	3462
3563.742	3391
3565.435	3438
3567.126	3468
3568.817	3444
3570.507	3512
3572.197	3448
3573.888	3526
3575.577	3524
3577.265	3397
3578.954	3465
3580.642	3417
3582.329	3500
3584.017	3445
3585.704	3421
3587.391	3427
3589.077	3399
3590.762	3459
3592.449	3394
3594.133	3366
3595.817	3442
3597.501	3438
3599.185	3374
3600.869	3376
3602.552	3407
3604.234	3404
3605.916	3367
3607.598	3435
3609.279	3330
3610.961	3370
3612.642	3337
3614.321	3437
3616	3386
3617.68	3399
3619.36	3375
3621.039	3311
3622.716	3394
3624.394	3289
3626.071	3282
3627.748	3393
3629.425	3372
3631.102	3323
3632.778	3357
3634.452	3288
3636.127	3303
3637.803	3313
3639.477	3319
3641.151	3291
3642.823	3283
3644.497	3240
3646.171	3335
3647.842	3313
3649.515	3359
3651.185	3305
3652.857	3277
3654.527	3331
3656.198	3330
3657.868	3269
3659.537	3339
3661.207	3265
3662.875	3275
3664.544	3263
3666.212	3226
3667.879	3288
3669.546	3258
3671.212	3209
3672.88	3290
3674.546	3156
3676.211	3311
3677.875	3255
3679.541	3268
3681.205	3239
3682.87	3270
3684.533	3248
3686.196	3204
3687.859	3253
3689.521	3227
3691.184	3242
3692.845	3227
3694.507	3181
3696.167	3181
3697.827	3200
3699.487	3180
3701.148	3203
3702.808	3287
3704.466	3188
3706.125	3263
3707.783	3224
3709.442	3256
3711.099	3189
3712.757	3239
3714.412	3203
3716.068	3117
3717.725	3156
3719.381	3226
3721.036	3206
3722.689	3165
3724.344	3218
3725.998	3222
3727.652	3138
3729.305	3191
3730.958	3232
3732.61	3201
3734.262	3129
3735.915	3262
3737.565	3125
3739.217	3164
3740.866	3107
3742.516	3190
3744.165	3178
3745.816	3216
3747.464	3126
3749.113	3154
3750.761	3105
3752.409	3204
3754.057	3199
3755.703	3178
3757.35	3178
3758.996	3144
3760.641	3164
3762.289	3121
3763.933	3223
3765.577	3112
3767.222	3162
3768.865	3205
3770.508	3133
3772.152	3149
3773.796	3132
3775.438	3121
3777.079	3085
3778.721	3180
3780.363	3191
3782.003	3113
3783.643	3108
3785.283	3139
3786.923	3142
3788.563	3132
3790.203	3104
3791.841	3070
3793.479	3082
3795.115	3088
3796.753	3115
3798.391	3096
3800.027	3074
3801.664	3097
3803.299	3096
3804.935	3069
3806.571	3086
3808.206	3086
3809.839	3050
3811.473	3038
3813.107	3131
3814.74	3068
3816.375	3078
3818.006	3015
3819.638	3052
3821.27	3078
3822.9	3070
3824.532	3111
3826.163	3070
3827.792	3084
3829.423	3021
3831.051	3066
3832.682	3022
3834.311	3038
3835.938	3018
3837.566	3017
3839.193	3097
3840.821	3011
3842.448	3047
3844.075	2973
3845.7	3139
3847.325	3030
3848.951	3069
3850.576	3006
3852.201	3033
3853.825	3000
3855.448	3038
3857.072	2958
3858.694	3033
3860.318	3014
3861.939	3033
3863.562	2937
3865.183	3037
3866.804	3016
3868.426	3020
3870.045	3054
3871.666	2983
3873.285	2928
3874.904	2981
3876.524	2971
3878.142	2942
3879.76	2909
3881.378	3013
3882.995	3008
3884.612	2966
3886.229	2990
3887.845	3008
3889.461	2940
3891.076	2998
3892.691	2927
3894.307	2936
3895.922	2974
3897.536	2907
3899.149	2902
3900.761	2980
3902.374	3039
3903.988	2922
3905.6	2947
3907.212	3013
3908.822	2894
3910.433	3023
3912.045	2933
3913.655	3022
3915.265	2956
3916.875	2899
3918.483	3009
3920.093	2981
3921.702	2944
3923.309	2917
3924.917	2906
3926.523	2916
3928.13	2980
3929.739	2847
3931.344	2993
3932.95	2893
3934.555	2964
3936.159	2984
3937.766	2910
3939.369	2914
3940.974	3000
3942.577	2863
3944.181	2908
3945.783	2879
3947.386	2925
3948.989	2940
3950.59	2980
3952.191	2922
3953.791	2850
3955.394	2886
3956.994	2872
3958.593	2883
3960.192	2902
3961.791	2970
3963.392	2906
3964.99	2843
3966.588	2889
3968.185	2873
3969.782	2819
3971.379	2881
3972.976	2895
3974.572	2820
3976.168	2913
3977.763	2928
3979.358	2889
3980.954	2892
3982.548	2833
3984.142	2869
3985.736	2899
3987.329	2886
3988.922	2808
3990.516	2778
3992.108	2841
3993.698	2814
3995.29	2816
3996.881	2837
3998.473	2807
4000.064	2878
4001.653	2816
4003.242	2784
4004.832	2754
4006.422	2761
4008.01	2796
4009.598	2747
4011.186	2754
4012.773	2763
4014.36	2818
4015.947	2763
4017.534	2815
4019.119	2793
4020.705	2810
4022.291	2780
4023.876	2750
4025.461	2776
4027.044	2791
4028.627	2743
4030.211	2719
4031.795	2752
4033.378	2781
4034.96	2751
4036.542	2766
4038.124	2684
4039.704	2802
4041.286	2757
4042.867	2683
4044.447	2783
4046.026	2794
4047.606	2757
4049.187	2677
4050.765	2685
4052.343	2761
4053.92	2744
4055.498	2709
4057.076	2830
4058.654	2713
4060.23	2739
4061.806	2684
4063.381	2655
4064.957	2695
4066.533	2654
4068.107	2768
4069.682	2745
4071.256	2688
4072.829	2660
4074.404	2730
4075.977	2694
4077.549	2626
4079.121	2641
4080.693	2751
4082.265	2685
4083.836	2748
4085.407	2657
4086.977	2705
4088.547	2613
4090.117	2722
4091.687	2729
4093.256	2704
4094.825	2720
4096.392	2638
4097.96	2728
4099.528	2657
4101.097	2749
4102.663	2660
4104.229	2677
4105.795	2689
4107.361	2605
4108.928	2678
4110.493	2715
4112.058	2629
4113.621	2656
4115.186	2611
4116.75	2663
4118.313	2639
4119.876	2688
4121.438	2640
4123	2583
4124.562	2636
4126.125	2620
4127.686	2631
4129.246	2587
4130.807	2582
4132.367	2637
4133.927	2614
4135.486	2644
4137.046	2618
4138.604	2607
4140.162	2592
4141.72	2537
4143.279	2591
4144.836	2616
4146.393	2631
4147.949	2587
4149.505	2539
4151.062	2621
4152.617	2529
4154.172	2628
4155.727	2596
4157.281	2591
4158.836	2517
4160.39	2534
4161.943	2575
4163.496	2548
4165.048	2608
4166.601	2599
4168.154	2594
4169.706	2547
4171.257	2520
4172.808	2608
4174.358	2569
4175.909	2562
4177.458	2561
4179.008	2536
4180.558	2532
4182.106	2547
4183.655	2544
4185.204	2569
4186.751	2592
4188.298	2481
4189.845	2580
4191.392	2538
4192.939	2534
4194.485	2545
4196.031	2440
4197.576	2538
4199.121	2480
4200.666	2549
4202.211	2493
4203.754	2485
4205.298	2543
4206.84	2536
4208.384	2478
4209.927	2546
4211.47	2514
4213.011	2488
4214.552	2489
4216.094	2487
4217.635	2471
4219.175	2444
4220.716	2540
4222.255	2556
4223.793	2482
4225.335	2451
4226.873	2532
4228.411	2494
4229.948	2481
4231.486	2492
4233.024	2519
4234.562	2488
4236.098	2460
4237.634	2516
4239.169	2465
4240.705	2472
4242.241	2508
4243.776	2432
4245.31	2421
4246.844	2474
4248.378	2500
4249.911	2410
4251.445	2493
4252.978	2404
4254.51	2445
4256.042	2531
4257.574	2450
4259.107	2500
4260.638	2472
4262.169	2511
4263.699	2425
4265.228	2386
4266.759	2515
4268.289	2465
4269.818	2496
4271.345	2428
4272.874	2465
4274.402	2456
4275.931	2435
4277.458	2466
4278.985	2407
4280.512	2360
4282.037	2509
4283.564	2374
4285.089	2451
4286.615	2430
4288.139	2367
4289.664	2420
4291.187	2416
4292.712	2460
4294.235	2431
4295.759	2405
4297.281	2443
4298.804	2373
4300.327	2391
4301.849	2438
4303.37	2435
4304.891	2379
4306.412	2302
4307.933	2404
4309.453	2374
4310.973	2407
4312.492	2424
