398.1873	4261
400.7097	4248
403.2336	4248
405.7547	4272
408.2751	4281
410.7948	4263
413.3138	4383
415.83	4343
418.3497	4372
420.8666	4459
423.3829	4449
425.8985	4465
428.4133	4548
430.9275	4565
433.441	4606
435.9538	4630
438.4639	4574
440.9753	4569
443.4881	4690
445.9982	4560
448.5055	4605
451.0142	4587
453.5201	4658
456.0274	4567
458.5361	4590
461.04	4552
463.5453	4548
466.0478	4589
468.5517	4547
471.0549	4607
473.5574	4585
476.0572	4530
478.5584	4547
481.0568	4585
483.5545	4582
486.0557	4704
488.5521	4626
491.0478	4522
493.5449	4729
496.0392	4714
498.5349	4676
501.0299	4726
503.5222	4742
506.0139	4722
508.5048	4646
510.9991	4687
513.4887	4725
515.9777	4698
518.4659	4812
520.9534	4680
523.4403	4783
525.9306	4670
528.4161	4739
530.9009	4822
533.3851	4663
535.8687	4760
538.3535	4771
540.8356	4725
543.3171	4770
545.7979	4883
548.278	4731
550.7595	4819
553.2383	4789
555.7144	4784
558.1918	4743
560.6685	4820
563.1446	4798
565.6221	4865
568.0968	4823
570.5688	4918
573.0422	4965
575.515	4918
577.989	4910
580.4584	4890
582.9291	4967
585.3991	4930
587.8685	5008
590.3352	4949
592.8052	4993
595.2706	5037
597.7372	4854
600.2033	4872
602.6666	4947
605.1334	4961
607.5953	4852
610.0587	4854
612.5193	4771
614.9814	4979
617.4427	4952
619.9034	4821
622.3615	4956
624.8208	4922
627.2775	4894
629.7335	4894
632.1929	4806
634.6476	4878
637.1016	4928
639.5569	4958
642.0096	4954
644.4637	4814
646.9151	4914
649.3678	4936
651.8179	5000
654.2672	4996
656.7159	4901
659.166	5042
661.6154	4969
664.0622	4994
666.5082	4989
668.9537	5040
671.4005	5009
673.8445	4996
676.288	5025
678.7308	4921
681.1729	4964
683.6163	5142
686.0572	4972
688.4973	5116
690.9368	4967
693.3757	4946
695.8138	5106
698.2534	5201
700.6902	5177
703.1245	5139
705.56	5043
707.9949	5038
710.4311	5148
712.8647	5026
715.2957	5075
717.7279	5158
720.1595	5129
722.5905	5205
725.0208	5165
727.4505	5095
729.8795	5283
732.3058	5229
734.7336	5264
737.1626	5262
739.587	5286
742.0128	5222
744.4359	5229
746.8604	5227
749.2841	5227
751.7073	5199
754.1278	5320
756.5496	5425
758.9688	5310
761.3893	5305
763.8093	5430
766.2285	5395
768.6451	5374
771.0611	5319
773.4784	5396
775.895	5467
778.3091	5338
780.7244	5385
783.1371	5539
785.5493	5432
787.9626	5448
790.3754	5443
792.7856	5525
795.1951	5447
797.6039	5439
800.0121	5383
802.4236	5387
804.8306	5485
807.2369	5497
809.6425	5489
812.0475	5489
814.4538	5428
816.8575	5561
819.2606	5502
821.663	5534
824.0648	5413
826.4659	5410
828.8683	5479
831.2682	5533
833.6674	5475
836.066	5507
838.4639	5586
840.8632	5665
843.2579	5647
845.6539	5507
848.0493	5601
850.444	5526
852.84	5648
855.2315	5564
857.6243	5632
860.0165	5644
862.4081	5578
864.797	5567
867.1892	5664
869.5789	5685
871.9659	5597
874.3542	5623
876.74	5614
879.129	5508
881.5155	5440
883.8994	5541
886.2845	5628
888.6671	5434
891.051	5577
893.4343	5495
895.8169	5675
898.197	5652
900.5783	5503
902.9571	5623
905.3372	5575
907.7167	5576
910.0936	5638
912.4698	5755
914.8474	5772
917.2244	5756
919.5987	5666
921.9744	5823
924.3475	5747
926.72	5744
929.0918	5727
931.4669	5752
933.8375	5766
936.2074	5733
938.5767	5915
940.9454	6025
943.3154	6002
945.6829	6084
948.0497	6266
950.4178	6317
952.7833	6502
955.1483	6709
957.5145	6802
959.8782	6977
962.2412	7139
964.6036	6919
966.9655	6561
969.3266	6458
971.6871	6351
974.0471	6205
976.4064	5946
978.765	5981
981.125	5853
983.4824	5782
985.8373	5713
988.1935	5806
990.549	5676
992.9039	5681
995.2602	5802
997.6119	5760
999.965	5838
1002.317	5844
1004.667	5787
1007.02	5857
1009.371	5845
1011.719	5716
1014.068	5743
1016.415	5866
1018.765	5822
1021.111	5858
1023.458	5748
1025.804	5944
1028.147	5930
1030.49	5860
1032.837	5951
1035.179	5856
1037.522	5828
1039.862	5943
1042.204	5912
1044.546	5878
1046.884	5910
1049.224	5923
1051.562	5834
1053.899	5903
1056.237	5889
1058.575	5869
1060.91	5925
1063.244	6037
1065.58	5967
1067.913	6098
1070.248	6086
1072.579	5953
1074.911	5991
1077.242	6085
1079.572	5950
1081.905	5999
1084.234	5875
1086.562	5928
1088.89	5946
1091.217	5852
1093.544	5865
1095.871	5906
1098.197	5858
1100.521	5920
1102.845	5917
1105.169	5955
1107.491	6019
1109.814	5897
1112.135	5940
1114.456	5966
1116.776	5992
1119.096	5850
1121.415	5822
1123.734	5891
1126.052	6012
1128.369	5865
1130.686	5896
1133.002	5970
1135.318	6036
1137.632	5903
1139.945	6033
1142.258	5891
1144.573	5914
1146.884	5924
1149.196	5956
1151.505	6007
1153.816	5830
1156.124	6023
1158.435	5938
1160.742	5886
1163.051	6034
1165.356	5918
1167.663	6005
1169.97	5977
1172.276	5987
1174.579	5951
1176.881	5934
1179.186	5825
1181.487	5914
1183.79	5874
1186.092	5947
1188.392	5915
1190.691	5914
1192.991	5959
1195.291	6008
1197.588	5875
1199.885	5927
1202.181	6025
1204.479	5931
1206.775	5938
1209.07	6024
1211.363	5978
1213.656	6002
1215.949	5910
1218.241	6108
1220.534	5988
1222.825	6035
1225.115	5970
1227.405	6133
1229.693	6107
1231.984	6039
1234.271	6200
1236.558	6231
1238.845	6211
1241.131	6146
1243.416	6172
1245.703	6162
1247.987	6160
1250.269	6288
1252.552	6142
1254.834	6192
1257.118	6105
1259.399	6242
1261.678	6215
1263.958	6186
1266.237	6267
1268.516	6135
1270.794	6129
1273.072	6240
1275.347	6191
1277.624	6312
1279.899	6281
1282.175	6208
1284.449	6238
1286.722	6199
1288.995	6114
1291.266	6094
1293.54	6097
1295.81	6149
1298.081	6045
1300.35	6092
1302.62	6136
1304.889	6182
1307.156	6097
1309.425	6170
1311.69	6141
1313.957	6218
1316.222	6132
1318.488	6060
1320.751	6082
1323.016	6171
1325.278	5960
1327.54	6181
1329.803	6186
1332.065	6255
1334.325	6163
1336.584	6173
1338.843	6062
1341.101	6113
1343.36	6160
1345.617	6133
1347.876	6184
1350.131	6270
1352.387	6108
1354.643	6170
1356.897	6126
1359.151	6207
1361.403	6186
1363.656	6093
1365.909	6166
1368.16	6209
1370.409	6114
1372.659	6157
1374.909	6206
1377.157	6188
1379.407	6226
1381.655	6194
1383.9	6254
1386.147	6204
1388.393	6373
1390.64	6131
1392.885	6250
1395.127	6295
1397.37	6214
1399.614	6200
1401.854	6253
1404.098	6158
1406.339	6312
1408.578	6385
1410.818	6219
1413.056	6274
1415.297	6379
1417.533	6275
1419.771	6231
1422.006	6322
1424.243	6333
1426.479	6386
1428.715	6389
1430.948	6329
1433.182	6339
1435.414	6344
1437.647	6385
1439.88	6407
1442.11	6343
1444.342	6501
1446.571	6405
1448.799	6493
1451.029	6444
1453.258	6471
1455.485	6559
1457.711	6438
1459.937	6422
1462.164	6358
1464.39	6421
1466.614	6318
1468.838	6447
1471.06	6344
1473.283	6371
1475.506	6358
1477.727	6326
1479.949	6284
1482.169	6309
1484.389	6251
1486.609	6105
1488.828	6309
1491.045	6309
1493.261	6258
1495.477	6240
1497.693	6346
1499.91	6184
1502.125	6140
1504.339	6263
1506.553	6069
1508.766	6247
1510.979	6142
1513.191	6219
1515.402	6152
1517.613	6271
1519.823	6196
1522.033	6204
1524.242	6139
1526.451	6250
1528.657	6133
1530.865	6293
1533.072	6185
1535.278	6273
1537.484	6236
1539.687	6331
1541.892	6382
1544.096	6201
1546.299	6217
1548.502	6321
1550.703	6321
1552.905	6228
1555.104	6397
1557.303	6320
1559.505	6381
1561.703	6309
1563.902	6343
1566.099	6372
1568.295	6335
1570.494	6291
1572.689	6324
1574.883	6386
1577.079	6378
1579.272	6332
1581.467	6380
1583.659	6443
1585.853	6271
1588.044	6400
1590.234	6419
1592.424	6398
1594.615	6542
1596.806	6464
1598.994	6378
1601.182	6419
1603.369	6357
1605.557	6627
1607.744	6398
1609.929	6358
1612.114	6402
1614.298	6525
1616.482	6522
1618.667	6488
1620.85	6462
1623.032	6456
1625.214	6482
1627.395	6473
1629.575	6542
1631.755	6557
1633.935	6557
1636.114	6487
1638.292	6539
1640.471	6479
1642.647	6421
1644.823	6457
1647	6552
1649.175	6521
1651.348	6490
1653.525	6585
1655.698	6536
1657.87	6690
1660.043	6420
1662.213	6537
1664.387	6811
1666.558	6574
1668.727	6557
1670.896	6640
1673.064	6498
1675.233	6552
1677.401	6594
1679.569	6497
1681.735	6594
1683.902	6590
1686.066	6542
1688.233	6526
1690.397	6642
1692.559	6438
1694.723	6496
1696.885	6544
1699.048	6466
1701.21	6495
1703.37	6434
1705.53	6420
1707.689	6525
1709.849	6551
1712.009	6435
1714.166	6524
1716.323	6445
1718.479	6366
1720.634	6440
1722.793	6461
1724.948	6400
1727.102	6438
1729.255	6464
1731.408	6533
1733.562	6446
1735.714	6497
1737.865	6441
1740.016	6487
1742.166	6450
1744.316	6357
1746.467	6428
1748.616	6560
1750.764	6565
1752.911	6425
1755.056	6541
1757.205	6467
1759.35	6461
1761.496	6523
1763.641	6595
1765.785	6481
1767.927	6468
1770.072	6588
1772.214	6413
1774.355	6629
1776.496	6492
1778.637	6602
1780.778	6566
1782.918	6488
1785.057	6662
1787.194	6774
1789.333	6508
1791.472	6689
1793.608	6579
1795.745	6521
1797.879	6563
1800.015	6611
1802.148	6588
1804.284	6574
1806.417	6460
1808.548	6632
1810.682	6527
1812.812	6681
1814.946	6518
1817.075	6538
1819.205	6630
1821.335	6542
1823.463	6654
1825.59	6497
1827.721	6627
1829.847	6538
1831.973	6691
1834.098	6469
1836.223	6488
1838.351	6568
1840.475	6414
1842.598	6527
1844.721	6608
1846.843	6491
1848.966	6535
1851.087	6420
1853.21	6404
1855.33	6441
1857.449	6516
1859.568	6609
1861.688	6501
1863.806	6463
1865.924	6443
1868.039	6564
1870.155	6381
1872.273	6517
1874.388	6495
1876.503	6482
1878.617	6551
1880.73	6510
1882.844	6505
1884.956	6390
1887.068	6539
1889.18	6521
1891.291	6500
1893.4	6526
1895.511	6605
1897.621	6518
1899.73	6440
1901.837	6633
1903.944	6610
1906.053	6520
1908.159	6680
1910.265	6533
1912.369	6580
1914.474	6640
1916.577	6575
1918.683	6628
1920.785	6664
1922.888	6516
1924.989	6654
1927.091	6609
1929.193	6558
1931.294	6659
1933.393	6528
1935.493	6631
1937.59	6523
1939.689	6796
1941.788	6715
1943.884	6582
1945.98	6662
1948.077	6622
1950.171	6718
1952.267	6652
1954.361	6676
1956.455	6675
1958.548	6655
1960.64	6594
1962.733	6607
1964.824	6662
1966.915	6620
1969.005	6565
1971.096	6615
1973.185	6710
1975.275	6574
1977.363	6628
1979.45	6575
1981.537	6736
1983.623	6600
1985.711	6590
1987.796	6540
1989.881	6530
1991.965	6465
1994.047	6499
1996.132	6457
1998.215	6555
2000.297	6529
2002.378	6564
2004.46	6513
2006.54	6525
2008.62	6621
2010.7	6581
2012.779	6659
2014.858	6579
2016.934	6510
2019.013	6619
2021.09	6576
2023.165	6536
2025.241	6441
2027.317	6513
2029.39	6574
2031.466	6533
2033.538	6650
2035.612	6612
2037.683	6454
2039.755	6610
2041.827	6559
2043.898	6543
2045.968	6678
2048.038	6612
2050.106	6605
2052.177	6595
2054.244	6581
2056.313	6613
2058.379	6462
2060.444	6699
2062.511	6627
2064.577	6613
2066.641	6658
2068.705	6666
2070.77	6634
2072.832	6616
2074.896	6545
2076.958	6592
2079.02	6515
2081.081	6669
2083.141	6596
2085.2	6670
2087.261	6641
2089.319	6621
2091.377	6464
2093.435	6731
2095.492	6670
2097.552	6580
2099.607	6642
2101.663	6605
2103.718	6579
2105.771	6592
2107.826	6670
2109.879	6551
2111.932	6586
2113.985	6558
2116.037	6615
2118.088	6662
2120.141	6629
2122.191	6582
2124.239	6641
2126.288	6621
2128.337	6596
2130.387	6630
2132.434	6668
2134.481	6688
2136.528	6731
2138.574	6566
2140.618	6674
2142.665	6581
2144.71	6550
2146.753	6546
2148.797	6510
2150.838	6655
2152.883	6664
2154.923	6530
2156.965	6548
2159.007	6552
2161.046	6656
2163.086	6629
2165.126	6656
2167.163	6562
2169.202	6497
2171.239	6471
2173.277	6567
2175.314	6517
2177.349	6505
2179.385	6578
2181.42	6584
2183.453	6535
2185.49	6455
2187.522	6454
2189.555	6525
2191.586	6482
2193.619	6511
2195.651	6491
2197.682	6586
2199.711	6521
2201.74	6429
2203.769	6548
2205.799	6459
2207.828	6336
2209.855	6418
2211.882	6461
2213.908	6544
2215.934	6523
2217.961	6500
2219.986	6479
2222.01	6433
2224.034	6452
2226.057	6436
2228.08	6486
2230.104	6409
2232.124	6474
2234.145	6500
2236.166	6416
2238.186	6423
2240.207	6437
2242.227	6450
2244.244	6391
2246.262	6547
2248.28	6482
2250.299	6566
2252.314	6497
2254.33	6430
2256.346	6512
2258.36	6577
2260.375	6521
2262.391	6549
2264.403	6439
2266.416	6548
2268.427	6454
2270.44	6492
2272.453	6413
2274.463	6358
2276.474	6592
2278.483	6461
2280.493	6470
2282.501	6556
2284.51	6573
2286.518	6456
2288.524	6350
2290.532	6441
2292.537	6554
2294.544	6477
2296.55	6549
2298.554	6481
2300.557	6476
2302.562	6467
2304.566	6507
2306.568	6455
2308.569	6483
2310.572	6401
2312.573	6534
2314.573	6454
2316.574	6311
2318.573	6441
2320.571	6510
2322.571	6449
2324.569	6406
2326.567	6491
2328.564	6534
2330.56	6363
2332.556	6449
2334.551	6378
2336.546	6486
2338.542	6436
2340.535	6499
2342.529	6422
2344.521	6436
2346.512	6402
2348.505	6410
2350.497	6358
2352.487	6454
2354.478	6385
2356.468	6323
2358.457	6370
2360.446	6397
2362.434	6417
2364.422	6341
2366.408	6415
2368.395	6359
2370.383	6326
2372.369	6371
2374.353	6363
2376.338	6383
2378.321	6416
2380.307	6411
2382.29	6443
2384.272	6245
2386.254	6299
2388.235	6247
2390.218	6235
2392.198	6426
2394.179	6385
2396.157	6298
2398.137	6342
2400.115	6349
2402.095	6257
2404.072	6326
2406.048	6282
2408.026	6284
2410.001	6384
2411.977	6243
2413.953	6271
2415.927	6278
2417.9	6311
2419.875	6355
2421.847	6365
2423.821	6192
2425.792	6329
2427.763	6395
2429.736	6347
2431.706	6316
2433.677	6218
2435.646	6348
2437.615	6369
2439.583	6311
2441.551	6377
2443.519	6245
2445.486	6191
2447.452	6247
2449.418	6328
2451.383	6230
2453.348	6320
2455.314	6273
2457.278	6234
2459.241	6281
2461.205	6290
2463.167	6290
2465.131	6236
2467.091	6358
2469.052	6224
2471.012	6306
2472.972	6250
2474.932	6224
2476.891	6260
2478.85	6156
2480.808	6263
2482.766	6265
2484.722	6216
2486.68	6204
2488.636	6186
2490.591	6195
2492.546	6291
2494.5	6122
2496.456	6206
2498.41	6293
2500.362	6189
2502.315	6183
2504.266	6307
2506.218	6295
2508.169	6223
2510.121	6337
2512.07	6308
2514.019	6109
2515.968	6224
2517.918	6267
2519.866	6220
2521.813	6158
2523.76	6259
2525.707	6206
2527.653	6149
2529.599	6131
2531.543	6235
2533.489	6147
2535.433	6347
2537.376	6093
2539.32	6251
2541.264	6142
2543.205	6226
2545.147	6175
2547.087	6091
2549.029	6164
2550.969	6156
2552.908	6102
2554.847	6209
2556.786	6256
2558.724	6196
2560.663	6234
2562.6	6212
2564.537	6170
2566.473	6103
2568.408	6182
2570.345	6163
2572.28	6098
2574.214	6212
2576.148	6143
2578.081	6158
2580.014	6152
2581.947	6150
2583.879	6270
2585.81	6213
2587.741	6279
2589.67	6287
2591.602	6119
2593.532	6140
2595.461	6128
2597.388	6243
2599.316	6097
2601.244	6320
2603.172	6207
2605.098	6221
2607.023	6088
2608.949	6170
2610.873	6233
2612.8	6221
2614.723	6184
2616.647	6084
2618.569	6218
2620.493	6295
2622.416	6188
2624.338	6211
2626.258	6280
2628.179	6274
2630.099	6172
2632.019	6262
2633.939	6181
2635.857	6300
2637.775	6158
2639.694	6306
2641.61	6199
2643.528	6268
2645.444	6289
2647.361	6114
2649.276	6296
2651.19	6218
2653.105	6169
2655.019	6230
2656.934	6157
2658.846	6219
2660.758	6245
2662.67	6145
2664.583	6258
2666.493	6234
2668.404	6234
2670.313	6232
2672.223	6317
2674.134	6240
2676.042	6213
2677.95	6105
2679.858	6158
2681.765	6149
2683.673	6201
2685.579	6151
2687.483	6124
2689.389	6246
2691.294	6329
2693.198	6162
2695.104	6263
2697.006	6244
2698.909	6044
2700.811	6215
2702.713	6035
2704.615	6157
2706.516	6145
2708.417	6227
2710.316	6188
2712.216	6166
2714.115	6172
2716.014	6195
2717.913	6172
2719.81	6085
2721.707	6159
2723.603	6186
2725.501	6067
2727.396	6138
2729.292	6067
2731.186	6172
2733.081	6134
2734.976	6186
2736.87	6175
2738.762	6198
2740.653	6173
2742.546	6199
2744.437	6122
2746.329	6104
2748.22	6193
2750.11	6187
2751.999	6091
2753.889	6022
2755.778	6176
2757.666	6089
2759.553	6223
2761.44	6153
2763.328	6178
2765.215	6080
2767.101	6115
2768.986	6056
2770.87	6048
2772.754	6089
2774.638	6151
2776.523	6202
2778.405	6154
2780.288	6055
2782.17	6097
2784.051	6078
2785.934	6105
2787.814	6086
2789.694	6007
2791.574	6105
2793.453	6099
2795.332	6054
2797.212	6096
2799.088	6038
2800.966	6013
2802.843	6040
2804.719	6086
2806.597	6071
2808.471	6052
2810.346	6010
2812.221	5956
2814.094	6135
2815.969	6086
2817.843	6063
2819.714	6001
2821.587	6113
2823.459	6193
2825.329	6108
2827.202	6036
2829.072	6110
2830.942	6032
2832.811	6161
2834.68	6128
2836.549	6088
2838.418	6089
2840.284	6131
2842.152	6073
2844.018	6058
2845.885	5955
2847.751	6127
2849.616	6117
2851.482	6141
2853.345	6081
2855.208	6145
2857.074	6246
2858.937	6266
2860.799	6265
2862.66	6183
2864.522	6295
2866.385	6251
2868.245	6248
2870.104	6248
2871.964	6232
2873.824	6483
2875.683	6482
2877.542	6391
2879.4	6447
2881.257	6530
2883.114	6533
2884.97	6573
2886.827	6507
2888.683	6566
2890.537	6496
2892.392	6486
2894.246	6563
2896.1	6459
2897.954	6596
2899.807	6547
2901.66	6506
2903.51	6377
2905.362	6474
2907.214	6496
2909.065	6494
2910.915	6558
2912.765	6475
2914.613	6633
2916.463	6547
2918.311	6624
2920.158	6716
2922.006	6770
2923.853	6674
2925.698	6838
2927.546	6888
2929.392	7008
2931.236	7068
2933.081	7012
2934.924	7037
2936.77	6929
2938.613	6883
2940.455	7036
2942.298	7041
2944.139	7137
2945.982	7242
2947.823	7115
2949.662	7001
2951.503	6975
2953.342	7087
2955.182	6886
2957.021	6951
2958.858	7042
2960.697	6867
2962.534	6891
2964.37	6818
2966.207	6647
2968.044	6681
2969.879	6608
2971.714	6621
2973.548	6683
2975.383	6702
2977.218	6538
2979.051	6591
2980.883	6575
2982.715	6461
2984.547	6626
2986.379	6452
2988.21	6416
2990.04	6472
2991.87	6466
2993.7	6276
2995.53	6308
2997.359	6385
2999.187	6234
3001.015	6154
3002.842	6095
3004.669	6031
3006.497	6139
3008.323	6015
3010.148	6029
3011.974	6072
3013.797	6058
3015.623	6013
3017.447	5948
3019.27	6121
3021.094	5887
3022.915	5903
3024.737	5832
3026.56	5824
3028.38	5853
3030.201	5963
3032.022	5894
3033.84	5870
3035.662	5723
3037.481	5919
3039.298	5751
3041.117	5855
3042.933	5819
3044.752	5860
3046.568	5905
3048.385	5897
3050.2	5927
3052.016	5707
3053.83	5808
3055.646	5745
3057.46	5848
3059.272	5727
3061.086	5837
3062.898	5919
3064.711	5776
3066.524	5793
3068.335	6500
3070.145	7866
3071.956	7071
3073.766	5773
3075.576	5884
3077.385	5701
3079.193	5737
3081.002	5694
3082.81	5734
3084.618	5667
3086.425	5652
3088.231	5760
3090.036	5684
3091.842	5561
3093.648	5592
3095.452	5721
3097.257	5581
3099.06	5763
3100.863	5650
3102.666	5647
3104.47	5636
3106.272	5629
3108.073	5588
3109.875	5598
3111.676	5530
3113.477	5676
3115.277	5613
3117.077	5555
3118.874	5620
3120.673	5574
3122.473	5475
3124.271	5595
3126.066	5631
3127.863	5550
3129.66	5540
3131.456	5624
3133.252	5625
3135.047	5526
3136.842	5605
3138.635	5495
3140.429	5446
3142.223	5417
3144.016	5480
3145.808	5572
3147.6	5513
3149.392	5552
3151.183	5547
3152.975	5482
3154.765	5533
3156.553	5359
3158.344	5570
3160.132	5429
3161.922	5395
3163.71	5499
3165.497	5521
3167.285	5520
3169.071	5507
3170.858	5512
3172.645	5524
3174.429	5525
3176.214	5460
3177.998	5382
3179.783	5509
3181.568	5463
3183.351	5504
3185.133	5434
3186.915	5510
3188.698	5452
3190.481	5346
3192.261	5386
3194.042	5516
3195.822	5356
3197.601	5432
3199.381	5335
3201.161	5431
3202.939	5383
3204.717	5466
3206.495	5416
3208.272	5394
3210.05	5352
3211.826	5421
3213.602	5392
3215.376	5355
3217.151	5461
3218.927	5457
3220.702	5458
3222.476	5547
3224.249	5471
3226.021	5413
3227.793	5360
3229.567	5420
3231.339	5342
3233.109	5367
3234.88	5352
3236.651	5377
3238.421	5344
3240.191	5389
3241.96	5423
3243.728	5420
3245.497	5374
3247.263	5351
3249.033	5367
3250.799	5378
3252.566	5484
3254.331	5378
3256.097	5332
3257.863	5392
3259.628	5474
3261.392	5432
3263.156	5437
3264.919	5348
3266.683	5332
3268.447	5405
3270.208	5418
3271.969	5417
3273.731	5394
3275.492	5335
3277.253	5545
3279.013	5350
3280.773	5402
3282.532	5446
3284.291	5479
3286.05	5304
3287.808	5388
3289.566	5426
3291.323	5397
3293.079	5319
3294.835	5389
3296.593	5462
3298.348	5389
3300.102	5441
3301.857	5396
3303.611	5479
3305.366	5433
3307.119	5265
3308.872	5365
3310.624	5452
3312.376	5449
3314.129	5327
3315.881	5489
3317.631	5333
3319.38	5303
3321.13	5458
3322.88	5300
3324.631	5304
3326.379	5333
3328.126	5386
3329.875	5364
3331.622	5362
3333.371	5450
3335.116	5464
3336.863	5405
3338.609	5366
3340.353	5287
3342.1	5316
3343.845	5383
3345.588	5302
3347.332	5270
3349.074	5187
3350.817	5295
3352.56	5293
3354.303	5326
3356.043	5365
3357.785	5334
3359.525	5366
3361.268	5280
3363.007	5319
3364.745	5201
3366.485	5308
3368.223	5324
3369.962	5227
3371.701	5294
3373.438	5259
3375.174	5214
3376.911	5296
3378.647	5258
3380.384	5232
3382.118	5275
3383.854	5247
3385.588	5185
3387.322	5255
3389.057	5168
3390.79	5202
3392.522	5264
3394.255	5219
3395.987	5300
3397.719	5184
3399.451	5222
3401.181	5189
3402.911	5248
3404.641	5184
3406.371	5167
3408.101	5273
3409.83	5184
3411.558	5043
3413.285	5160
3415.011	5120
3416.739	5135
3418.467	5138
3420.193	5061
3421.919	5133
3423.644	5261
3425.368	5146
3427.094	5098
3428.818	5136
3430.542	5114
3432.264	5098
3433.987	5078
3435.712	5137
3437.434	5023
3439.155	5123
3440.876	5060
3442.596	5238
3444.317	5068
3446.039	5172
3447.757	5002
3449.477	5052
3451.195	5061
3452.914	5043
3454.632	5024
3456.35	4943
3458.067	5040
3459.784	5131
3461.5	5053
3463.216	5042
3464.932	4997
3466.647	5007
3468.362	4981
3470.076	5023
3471.789	5012
3473.505	5048
3475.217	4941
3476.929	5002
3478.641	5057
3480.354	4970
3482.066	5027
3483.777	4999
3485.487	4928
3487.197	5050
3488.908	4996
3490.617	4936
3492.327	4938
3494.035	4962
3495.743	4878
3497.451	4852
3499.158	4983
3500.866	4924
3502.572	4996
3504.278	4920
3505.984	4882
3507.689	4863
3509.396	4917
3511.1	4796
3512.804	4787
3514.508	4855
3516.211	4895
3517.913	4882
3519.616	4819
3521.319	4912
3523.021	4866
3524.722	4878
3526.422	4816
3528.124	4884
3529.824	4853
3531.524	4946
3533.222	4811
3534.921	4792
3536.62	4807
3538.318	4824
3540.016	4734
3541.714	4731
3543.41	4817
3545.107	4916
3546.803	4855
3548.5	4783
3550.194	4858
3551.889	4822
3553.583	4783
3555.279	4791
3556.972	4789
3558.666	4673
3560.358	4779
3562.051	4793
3563.742	4756
3565.435	4795
3567.126	4850
3568.817	4698
3570.507	4743
3572.197	4783
3573.888	4700
3575.577	4723
3577.265	4800
3578.954	4774
3580.642	4727
3582.329	4791
3584.017	4604
3585.704	4718
3587.391	4718
3589.077	4612
3590.762	4669
3592.449	4663
3594.133	4661
3595.817	4663
3597.501	4687
3599.185	4577
3600.869	4589
3602.552	4558
3604.234	4655
3605.916	4687
3607.598	4661
3609.279	4594
3610.961	4661
3612.642	4705
3614.321	4640
3616	4556
3617.68	4523
3619.36	4635
3621.039	4565
3622.716	4558
3624.394	4526
3626.071	4599
3627.748	4547
3629.425	4569
3631.102	4560
3632.778	4548
3634.452	4565
3636.127	4628
3637.803	4562
3639.477	4644
3641.151	4516
3642.823	4565
3644.497	4561
3646.171	4449
3647.842	4534
3649.515	4555
3651.185	4518
3652.857	4421
3654.527	4427
3656.198	4446
3657.868	4379
3659.537	4494
3661.207	4490
3662.875	4386
3664.544	4450
3666.212	4459
3667.879	4340
3669.546	4462
3671.212	4438
3672.88	4400
3674.546	4391
3676.211	4518
3677.875	4457
3679.541	4410
3681.205	4345
3682.87	4462
3684.533	4402
3686.196	4378
3687.859	4387
3689.521	4468
3691.184	4392
3692.845	4433
3694.507	4416
3696.167	4277
3697.827	4369
3699.487	4397
3701.148	4414
3702.808	4413
3704.466	4395
3706.125	4357
3707.783	4345
3709.442	4404
3711.099	4355
3712.757	4456
3714.412	4364
3716.068	4354
3717.725	4374
3719.381	4431
3721.036	4267
3722.689	4354
3724.344	4371
3725.998	4325
3727.652	4326
3729.305	4336
3730.958	4335
3732.61	4354
3734.262	4409
3735.915	4366
3737.565	4265
3739.217	4230
3740.866	4208
3742.516	4347
3744.165	4324
3745.816	4305
3747.464	4249
3749.113	4292
3750.761	4293
3752.409	4262
3754.057	4331
3755.703	4285
3757.35	4278
3758.996	4256
3760.641	4246
3762.289	4337
3763.933	4299
3765.577	4240
3767.222	4197
3768.865	4212
3770.508	4222
3772.152	4276
3773.796	4274
3775.438	4235
3777.079	4331
3778.721	4274
3780.363	4259
3782.003	4212
3783.643	4203
3785.283	4226
3786.923	4160
3788.563	4215
3790.203	4238
3791.841	4192
3793.479	4116
3795.115	4279
3796.753	4332
3798.391	4196
3800.027	4163
3801.664	4211
3803.299	4047
3804.935	4195
3806.571	4219
3808.206	4109
3809.839	4237
3811.473	4081
3813.107	4224
3814.74	4216
3816.375	4177
3818.006	4153
3819.638	4151
3821.27	4052
3822.9	4140
3824.532	4108
3826.163	4162
3827.792	4139
3829.423	4088
3831.051	4168
3832.682	4079
3834.311	4103
3835.938	4049
3837.566	4074
3839.193	4115
3840.821	4172
3842.448	4111
3844.075	4123
3845.7	4128
3847.325	4002
3848.951	4089
3850.576	4161
3852.201	4064
3853.825	4096
3855.448	4035
3857.072	4043
3858.694	4074
3860.318	4123
3861.939	4020
3863.562	4107
3865.183	4056
3866.804	4033
3868.426	3990
3870.045	4004
3871.666	4074
3873.285	4073
3874.904	4043
3876.524	4087
3878.142	4005
3879.76	4067
3881.378	3986
3882.995	4064
3884.612	4133
3886.229	3979
3887.845	3999
3889.461	4047
3891.076	4100
3892.691	3974
3894.307	4005
3895.922	3939
3897.536	4035
3899.149	4012
3900.761	3957
3902.374	3961
3903.988	4059
3905.6	4095
3907.212	4037
3908.822	4014
3910.433	4006
3912.045	3997
3913.655	4015
3915.265	4013
3916.875	3973
3918.483	3976
3920.093	3935
3921.702	3950
3923.309	3952
3924.917	3921
3926.523	3928
3928.13	3925
3929.739	4003
3931.344	3887
3932.95	3924
3934.555	3930
3936.159	3943
3937.766	3851
3939.369	4030
3940.974	3933
3942.577	3910
3944.181	3854
3945.783	3887
3947.386	3887
3948.989	3888
3950.59	3849
3952.191	3893
3953.791	3884
3955.394	3886
3956.994	3865
3958.593	3913
3960.192	3834
3961.791	3911
3963.392	3800
3964.99	3902
3966.588	3880
3968.185	3861
3969.782	3874
3971.379	3869
3972.976	3858
3974.572	3862
3976.168	3820
3977.763	3862
3979.358	3832
3980.954	3855
3982.548	3880
3984.142	3922
3985.736	3796
3987.329	3748
3988.922	3842
3990.516	3808
3992.108	3787
3993.698	3825
3995.29	3873
3996.881	3802
3998.473	3765
4000.064	3847
4001.653	3758
4003.242	3768
4004.832	3785
4006.422	3782
4008.01	3678
4009.598	3687
4011.186	3786
4012.773	3767
4014.36	3694
4015.947	3737
4017.534	3757
4019.119	3739
4020.705	3695
4022.291	3749
4023.876	3746
4025.461	3736
4027.044	3707
4028.627	3667
4030.211	3743
4031.795	3742
4033.378	3691
4034.96	3662
4036.542	3669
4038.124	3702
4039.704	3808
4041.286	3695
4042.867	3634
4044.447	3655
4046.026	3571
4047.606	3728
4049.187	3621
4050.765	3651
4052.343	3634
4053.92	3653
4055.498	3622
4057.076	3599
4058.654	3602
4060.23	3728
4061.806	3597
4063.381	3619
4064.957	3713
4066.533	3716
4068.107	3660
4069.682	3664
4071.256	3583
4072.829	3616
4074.404	3636
4075.977	3569
4077.549	3588
4079.121	3673
4080.693	3598
4082.265	3552
4083.836	3500
4085.407	3552
4086.977	3597
4088.547	3617
4090.117	3625
4091.687	3539
4093.256	3629
4094.825	3638
4096.392	3502
4097.96	3584
4099.528	3550
4101.097	3619
4102.663	3546
4104.229	3573
4105.795	3588
4107.361	3547
4108.928	3555
4110.493	3568
4112.058	3539
4113.621	3586
4115.186	3520
4116.75	3515
4118.313	3600
4119.876	3506
4121.438	3503
4123	3432
4124.562	3502
4126.125	3463
4127.686	3516
4129.246	3486
4130.807	3495
4132.367	3388
4133.927	3521
4135.486	3493
4137.046	3504
4138.604	3510
4140.162	3475
4141.72	3386
4143.279	3554
4144.836	3524
4146.393	3441
4147.949	3405
4149.505	3447
4151.062	3429
4152.617	3378
4154.172	3468
4155.727	3422
4157.281	3523
4158.836	3393
4160.39	3436
4161.943	3491
4163.496	3401
4165.048	3463
4166.601	3374
4168.154	3375
4169.706	3463
4171.257	3381
4172.808	3470
4174.358	3287
4175.909	3457
4177.458	3342
4179.008	3417
4180.558	3340
4182.106	3405
4183.655	3328
4185.204	3361
4186.751	3364
4188.298	3335
4189.845	3361
4191.392	3404
4192.939	3356
4194.485	3283
4196.031	3462
4197.576	3310
4199.121	3306
4200.666	3361
4202.211	3298
4203.754	3362
4205.298	3299
4206.84	3300
4208.384	3324
4209.927	3271
4211.47	3307
4213.011	3320
4214.552	3312
4216.094	3316
4217.635	3298
4219.175	3332
4220.716	3375
4222.255	3313
4223.793	3263
4225.335	3343
4226.873	3231
4228.411	3247
4229.948	3243
4231.486	3285
4233.024	3327
4234.562	3256
4236.098	3286
4237.634	3303
4239.169	3281
4240.705	3276
4242.241	3274
4243.776	3356
4245.31	3291
4246.844	3288
4248.378	3264
4249.911	3355
4251.445	3215
4252.978	3260
4254.51	3307
4256.042	3249
4257.574	3267
4259.107	3197
4260.638	3219
4262.169	3335
4263.699	3216
4265.228	3248
4266.759	3251
4268.289	3280
4269.818	3207
4271.345	3289
4272.874	3266
4274.402	3218
4275.931	3186
4277.458	3179
4278.985	3179
4280.512	3208
4282.037	3180
4283.564	3230
4285.089	3208
4286.615	3278
4288.139	3141
4289.664	3232
4291.187	3237
4292.712	3229
4294.235	3070
4295.759	3114
4297.281	3234
4298.804	3144
4300.327	3177
4301.849	3173
4303.37	3161
4304.891	3173
4306.412	3149
4307.933	3170
4309.453	3115
4310.973	3163
4312.492	3168
