398.1873	2584
400.7097	2612
403.2336	2570
405.7547	2594
408.2751	2594
410.7948	2579
413.3138	2579
415.83	2659
418.3497	2657
420.8666	2677
423.3829	2684
425.8985	2618
428.4133	2726
430.9275	2655
433.441	2735
435.9538	2729
438.4639	2724
440.9753	2718
443.4881	2770
445.9982	2720
448.5055	2767
451.0142	2708
453.5201	2722
456.0274	2775
458.5361	2740
461.04	2645
463.5453	2728
466.0478	2765
468.5517	2726
471.0549	2722
473.5574	2699
476.0572	2727
478.5584	2778
481.0568	2766
483.5545	2721
486.0557	2801
488.5521	2837
491.0478	2772
493.5449	2798
496.0392	2802
498.5349	2851
501.0299	2831
503.5222	2835
506.0139	2824
508.5048	2750
510.9991	2833
513.4887	2855
515.9777	2828
518.4659	2833
520.9534	2835
523.4403	2842
525.9306	2822
528.4161	2796
530.9009	2780
533.3851	2821
535.8687	2834
538.3535	2812
540.8356	2785
543.3171	2844
545.7979	2751
548.278	2875
550.7595	2803
553.2383	2824
555.7144	2759
558.1918	2905
560.6685	2840
563.1446	2810
565.6221	2886
568.0968	2841
570.5688	2859
573.0422	2916
575.515	2869
577.989	2903
580.4584	2982
582.9291	2902
585.3991	2902
587.8685	2942
590.3352	2917
592.8052	2945
595.2706	2942
597.7372	2863
600.2033	2942
602.6666	2939
605.1334	2870
607.5953	2954
610.0587	2961
612.5193	2939
614.9814	2916
617.4427	2840
619.9034	2892
622.3615	2884
624.8208	2909
627.2775	2909
629.7335	2877
632.1929	2894
634.6476	2899
637.1016	2900
639.5569	2935
642.0096	2853
644.4637	2962
646.9151	2977
649.3678	2889
651.8179	2878
654.2672	2936
656.7159	2997
659.166	2906
661.6154	2947
664.0622	2995
666.5082	2973
668.9537	2990
671.4005	2989
673.8445	2983
676.288	2948
678.7308	2943
681.1729	2933
683.6163	2995
686.0572	3041
688.4973	2989
690.9368	2989
693.3757	3013
695.8138	3054
698.2534	3030
700.6902	3032
703.1245	3020
705.56	3017
707.9949	3017
710.4311	3006
712.8647	2974
715.2957	3042
717.7279	3100
720.1595	3075
722.5905	3129
725.0208	3083
727.4505	3087
729.8795	3067
732.3058	3079
734.7336	3102
737.1626	3111
739.587	3100
742.0128	3144
744.4359	3195
746.8604	3063
749.2841	3153
751.7073	3089
754.1278	3231
756.5496	3185
758.9688	3223
761.3893	3109
763.8093	3163
766.2285	3213
768.6451	3205
771.0611	3197
773.4784	3181
775.895	3237
778.3091	3169
780.7244	3205
783.1371	3210
785.5493	3209
787.9626	3177
790.3754	3263
792.7856	3221
795.1951	3247
797.6039	3249
800.0121	3230
802.4236	3200
804.8306	3235
807.2369	3233
809.6425	3224
812.0475	3235
814.4538	3207
816.8575	3181
819.2606	3254
821.663	3237
824.0648	3260
826.4659	3229
828.8683	3208
831.2682	3195
833.6674	3248
836.066	3228
838.4639	3271
840.8632	3285
843.2579	3273
845.6539	3306
848.0493	3260
850.444	3297
852.84	3242
855.2315	3352
857.6243	3305
860.0165	3300
862.4081	3314
864.797	3276
867.1892	3310
869.5789	3393
871.9659	3306
874.3542	3281
876.74	3290
879.129	3270
881.5155	3296
883.8994	3338
886.2845	3311
888.6671	3329
891.051	3319
893.4343	3185
895.8169	3268
898.197	3299
900.5783	3236
902.9571	3279
905.3372	3319
907.7167	3372
910.0936	3241
912.4698	3362
914.8474	3353
917.2244	3294
919.5987	3363
921.9744	3380
924.3475	3392
926.72	3390
929.0918	3438
931.4669	3385
933.8375	3399
936.2074	3409
938.5767	3486
940.9454	3510
943.3154	3583
945.6829	3521
948.0497	3685
950.4178	3711
952.7833	3797
955.1483	3944
957.5145	3933
959.8782	4102
962.2412	4126
964.6036	3984
966.9655	3876
969.3266	3743
971.6871	3676
974.0471	3587
976.4064	3530
978.765	3437
981.125	3517
983.4824	3429
985.8373	3391
988.1935	3335
990.549	3401
992.9039	3354
995.2602	3402
997.6119	3407
999.965	3439
1002.317	3406
1004.667	3435
1007.02	3386
1009.371	3390
1011.719	3443
1014.068	3428
1016.415	3419
1018.765	3414
1021.111	3483
1023.458	3468
1025.804	3487
1028.147	3420
1030.49	3513
1032.837	3464
1035.179	3425
1037.522	3523
1039.862	3435
1042.204	3395
1044.546	3532
1046.884	3525
1049.224	3398
1051.562	3481
1053.899	3422
1056.237	3549
1058.575	3528
1060.91	3525
1063.244	3546
1065.58	3566
1067.913	3608
1070.248	3523
1072.579	3602
1074.911	3540
1077.242	3542
1079.572	3563
1081.905	3521
1084.234	3517
1086.562	3501
1088.89	3532
1091.217	3521
1093.544	3509
1095.871	3477
1098.197	3478
1100.521	3611
1102.845	3567
1105.169	3474
1107.491	3459
1109.814	3475
1112.135	3580
1114.456	3612
1116.776	3529
1119.096	3603
1121.415	3490
1123.734	3526
1126.052	3503
1128.369	3468
1130.686	3493
1133.002	3543
1135.318	3493
1137.632	3554
1139.945	3596
1142.258	3562
1144.573	3471
1146.884	3526
1149.196	3476
1151.505	3466
1153.816	3579
1156.124	3559
1158.435	3462
1160.742	3602
1163.051	3476
1165.356	3564
1167.663	3502
1169.97	3532
1172.276	3525
1174.579	3563
1176.881	3591
1179.186	3494
1181.487	3520
1183.79	3492
1186.092	3477
1188.392	3533
1190.691	3585
1192.991	3516
1195.291	3527
1197.588	3511
1199.885	3580
1202.181	3472
1204.479	3634
1206.775	3630
1209.07	3516
1211.363	3600
1213.656	3605
1215.949	3561
1218.241	3544
1220.534	3593
1222.825	3603
1225.115	3690
1227.405	3585
1229.693	3669
1231.984	3693
1234.271	3639
1236.558	3686
1238.845	3666
1241.131	3629
1243.416	3635
1245.703	3648
1247.987	3707
1250.269	3706
1252.552	3697
1254.834	3700
1257.118	3619
1259.399	3747
1261.678	3701
1263.958	3676
1266.237	3688
1268.516	3720
1270.794	3671
1273.072	3669
1275.347	3691
1277.624	3697
1279.899	3655
1282.175	3643
1284.449	3654
1286.722	3650
1288.995	3617
1291.266	3647
1293.54	3670
1295.81	3663
1298.081	3644
1300.35	3575
1302.62	3596
1304.889	3618
1307.156	3577
1309.425	3712
1311.69	3653
1313.957	3566
1316.222	3646
1318.488	3637
1320.751	3642
1323.016	3678
1325.278	3684
1327.54	3643
1329.803	3739
1332.065	3622
1334.325	3675
1336.584	3686
1338.843	3703
1341.101	3665
1343.36	3685
1345.617	3661
1347.876	3688
1350.131	3686
1352.387	3696
1354.643	3729
1356.897	3588
1359.151	3658
1361.403	3646
1363.656	3741
1365.909	3784
1368.16	3705
1370.409	3683
1372.659	3658
1374.909	3683
1377.157	3631
1379.407	3685
1381.655	3663
1383.9	3674
1386.147	3742
1388.393	3639
1390.64	3711
1392.885	3847
1395.127	3666
1397.37	3693
1399.614	3656
1401.854	3760
1404.098	3737
1406.339	3730
1408.578	3775
1410.818	3765
1413.056	3747
1415.297	3784
1417.533	3723
1419.771	3654
1422.006	3803
1424.243	3721
1426.479	3730
1428.715	3833
1430.948	3838
1433.182	3834
1435.414	3764
1437.647	3799
1439.88	3832
1442.11	3885
1444.342	3781
1446.571	3815
1448.799	3845
1451.029	3841
1453.258	3922
1455.485	3776
1457.711	3795
1459.937	3849
1462.164	3793
1464.39	3739
1466.614	3867
1468.838	3784
1471.06	3783
1473.283	3794
1475.506	3829
1477.727	3876
1479.949	3731
1482.169	3753
1484.389	3742
1486.609	3801
1488.828	3803
1491.045	3656
1493.261	3702
1495.477	3733
1497.693	3726
1499.91	3773
1502.125	3757
1504.339	3751
1506.553	3734
1508.766	3761
1510.979	3705
1513.191	3779
1515.402	3683
1517.613	3644
1519.823	3657
1522.033	3759
1524.242	3760
1526.451	3755
1528.657	3695
1530.865	3711
1533.072	3711
1535.278	3765
1537.484	3780
1539.687	3672
1541.892	3777
1544.096	3781
1546.299	3743
1548.502	3657
1550.703	3833
1552.905	3831
1555.104	3783
1557.303	3785
1559.505	3810
1561.703	3779
1563.902	3823
1566.099	3782
1568.295	3754
1570.494	3800
1572.689	3805
1574.883	3813
1577.079	3812
1579.272	3841
1581.467	3843
1583.659	3838
1585.853	3806
1588.044	3830
1590.234	3849
1592.424	3827
1594.615	3917
1596.806	3846
1598.994	3887
1601.182	3823
1603.369	3877
1605.557	3812
1607.744	3913
1609.929	3883
1612.114	3917
1614.298	3807
1616.482	3878
1618.667	3918
1620.85	3861
1623.032	3868
1625.214	3890
1627.395	3855
1629.575	3860
1631.755	3889
1633.935	4010
1636.114	3964
1638.292	3912
1640.471	3877
1642.647	4005
1644.823	3937
1647	3905
1649.175	3878
1651.348	3951
1653.525	3938
1655.698	3917
1657.87	3980
1660.043	3827
1662.213	3950
1664.387	3864
1666.558	3972
1668.727	3964
1670.896	4006
1673.064	3988
1675.233	3976
1677.401	3925
1679.569	3912
1681.735	3934
1683.902	3913
1686.066	3975
1688.233	3936
1690.397	3922
1692.559	3964
1694.723	3998
1696.885	3831
1699.048	3841
1701.21	3902
1703.37	3892
1705.53	3999
1707.689	3915
1709.849	3874
1712.009	3933
1714.166	3889
1716.323	3941
1718.479	3878
1720.634	3841
1722.793	3931
1724.948	3881
1727.102	3912
1729.255	3857
1731.408	3921
1733.562	3841
1735.714	3877
1737.865	3916
1740.016	3893
1742.166	3996
1744.316	3890
1746.467	3860
1748.616	3957
1750.764	3998
1752.911	3868
1755.056	3952
1757.205	3921
1759.35	3950
1761.496	3926
1763.641	4026
1765.785	3856
1767.927	4015
1770.072	3927
1772.214	3877
1774.355	3906
1776.496	3931
1778.637	3921
1780.778	3960
1782.918	4000
1785.057	3951
1787.194	4031
1789.333	3929
1791.472	4049
1793.608	3996
1795.745	4011
1797.879	4068
1800.015	3992
1802.148	4031
1804.284	3911
1806.417	3977
1808.548	3984
1810.682	3956
1812.812	3920
1814.946	4018
1817.075	4001
1819.205	3921
1821.335	3916
1823.463	3903
1825.59	3962
1827.721	3995
1829.847	3994
1831.973	3958
1834.098	3998
1836.223	4033
1838.351	3986
1840.475	3921
1842.598	3938
1844.721	3916
1846.843	3937
1848.966	3876
1851.087	3938
1853.21	3934
1855.33	3918
1857.449	3912
1859.568	3967
1861.688	4001
1863.806	3995
1865.924	3938
1868.039	3949
1870.155	3934
1872.273	4031
1874.388	3961
1876.503	4020
1878.617	4019
1880.73	3926
1882.844	3983
1884.956	4009
1887.068	3901
1889.18	3901
1891.291	3899
1893.4	3933
1895.511	3957
1897.621	4042
1899.73	3981
1901.837	4031
1903.944	4060
1906.053	4049
1908.159	4039
1910.265	4021
1912.369	4105
1914.474	3944
1916.577	4056
1918.683	4073
1920.785	4149
1922.888	4069
1924.989	4119
1927.091	4107
1929.193	3999
1931.294	4026
1933.393	4060
1935.493	4086
1937.59	4131
1939.689	4088
1941.788	4094
1943.884	4003
1945.98	4043
1948.077	4096
1950.171	4067
1952.267	4077
1954.361	4047
1956.455	4026
1958.548	4073
1960.64	4101
1962.733	4176
1964.824	4048
1966.915	4037
1969.005	4033
1971.096	4047
1973.185	4097
1975.275	4034
1977.363	4015
1979.45	4038
1981.537	4046
1983.623	4048
1985.711	4014
1987.796	4089
1989.881	4073
1991.965	4109
1994.047	4011
1996.132	4071
1998.215	3973
2000.297	4064
2002.378	4052
2004.46	4073
2006.54	3987
2008.62	4012
2010.7	4085
2012.779	4065
2014.858	4065
2016.934	4129
2019.013	3971
2021.09	4069
2023.165	4021
2025.241	4023
2027.317	3977
2029.39	4076
2031.466	4065
2033.538	4080
2035.612	4118
2037.683	4095
2039.755	4144
2041.827	4092
2043.898	4010
2045.968	4041
2048.038	4029
2050.106	4023
2052.177	4075
2054.244	4054
2056.313	4136
2058.379	4063
2060.444	4121
2062.511	4065
2064.577	4112
2066.641	4117
2068.705	4062
2070.77	4079
2072.832	4105
2074.896	4081
2076.958	4055
2079.02	4090
2081.081	4165
2083.141	4094
2085.2	4178
2087.261	4198
2089.319	4095
2091.377	4093
2093.435	4163
2095.492	4127
2097.552	4067
2099.607	4031
2101.663	4107
2103.718	4152
2105.771	4042
2107.826	4083
2109.879	4038
2111.932	4152
2113.985	4138
2116.037	4106
2118.088	4067
2120.141	4128
2122.191	4019
2124.239	4123
2126.288	4106
2128.337	4038
2130.387	4122
2132.434	4148
2134.481	4079
2136.528	4174
2138.574	4184
2140.618	4211
2142.665	4188
2144.71	4162
2146.753	4015
2148.797	4122
2150.838	4112
2152.883	4100
2154.923	4114
2156.965	4129
2159.007	4032
2161.046	4160
2163.086	4096
2165.126	4123
2167.163	4071
2169.202	4061
2171.239	4129
2173.277	4150
2175.314	4088
2177.349	4144
2179.385	4115
2181.42	4017
2183.453	4101
2185.49	4115
2187.522	4094
2189.555	4111
2191.586	4189
2193.619	4163
2195.651	4062
2197.682	4092
2199.711	4010
2201.74	4119
2203.769	4094
2205.799	4100
2207.828	4021
2209.855	4141
2211.882	4016
2213.908	4065
2215.934	4088
2217.961	3935
2219.986	4103
2222.01	4046
2224.034	4052
2226.057	4060
2228.08	4115
2230.104	4096
2232.124	4103
2234.145	4069
2236.166	4044
2238.186	4097
2240.207	4063
2242.227	4169
2244.244	4092
2246.262	4041
2248.28	3962
2250.299	4009
2252.314	4054
2254.33	4161
2256.346	4172
2258.36	4151
2260.375	4076
2262.391	4113
2264.403	4082
2266.416	4136
2268.427	4105
2270.44	4101
2272.453	4141
2274.463	4198
2276.474	4143
2278.483	4114
2280.493	4047
2282.501	4083
2284.51	4074
2286.518	4093
2288.524	4086
2290.532	4136
2292.537	4040
2294.544	4102
2296.55	4078
2298.554	4169
2300.557	4062
2302.562	4069
2304.566	4035
2306.568	4026
2308.569	4089
2310.572	4147
2312.573	4087
2314.573	4124
2316.574	4092
2318.573	4107
2320.571	4046
2322.571	4078
2324.569	4086
2326.567	4126
2328.564	4151
2330.56	4127
2332.556	4190
2334.551	4163
2336.546	4118
2338.542	4150
2340.535	4173
2342.529	4121
2344.521	4077
2346.512	4099
2348.505	4007
2350.497	4011
2352.487	4103
2354.478	4148
2356.468	4092
2358.457	4043
2360.446	4113
2362.434	4068
2364.422	4102
2366.408	4125
2368.395	4078
2370.383	4106
2372.369	4102
2374.353	4098
2376.338	4024
2378.321	4059
2380.307	4012
2382.29	3983
2384.272	4085
2386.254	4039
2388.235	3998
2390.218	4097
2392.198	4028
2394.179	3993
2396.157	4120
2398.137	4106
2400.115	4098
2402.095	4098
2404.072	4003
2406.048	4048
2408.026	4103
2410.001	4057
2411.977	4057
2413.953	4025
2415.927	4071
2417.9	4077
2419.875	4104
2421.847	4023
2423.821	4084
2425.792	4082
2427.763	3996
2429.736	3991
2431.706	3970
2433.677	4087
2435.646	4121
2437.615	4173
2439.583	3999
2441.551	4132
2443.519	4079
2445.486	4035
2447.452	4001
2449.418	4054
2451.383	4112
2453.348	4107
2455.314	4105
2457.278	4004
2459.241	4077
2461.205	4083
2463.167	4062
2465.131	4053
2467.091	4139
2469.052	4094
2471.012	4116
2472.972	4111
2474.932	3992
2476.891	4105
2478.85	4024
2480.808	4074
2482.766	4123
2484.722	4038
2486.68	4129
2488.636	4099
2490.591	4047
2492.546	4062
2494.5	4113
2496.456	4096
2498.41	4145
2500.362	4096
2502.315	4102
2504.266	4025
2506.218	4090
2508.169	4037
2510.121	4058
2512.07	4110
2514.019	4023
2515.968	4154
2517.918	3990
2519.866	4115
2521.813	4157
2523.76	4067
2525.707	4139
2527.653	4071
2529.599	4211
2531.543	4067
2533.489	4057
2535.433	4110
2537.376	4097
2539.32	4064
2541.264	4118
2543.205	4107
2545.147	4010
2547.087	4060
2549.029	3991
2550.969	4167
2552.908	4065
2554.847	4171
2556.786	4053
2558.724	4145
2560.663	4064
2562.6	4071
2564.537	4114
2566.473	4051
2568.408	4103
2570.345	4109
2572.28	4177
2574.214	4076
2576.148	4112
2578.081	4114
2580.014	4149
2581.947	4268
2583.879	4004
2585.81	4067
2587.741	4127
2589.67	4114
2591.602	4192
2593.532	4149
2595.461	4204
2597.388	4185
2599.316	4227
2601.244	4134
2603.172	4117
2605.098	4078
2607.023	4165
2608.949	4099
2610.873	4129
2612.8	4114
2614.723	4236
2616.647	4157
2618.569	4127
2620.493	4060
2622.416	4183
2624.338	4170
2626.258	4109
2628.179	4174
2630.099	4079
2632.019	4148
2633.939	4165
2635.857	4151
2637.775	4165
2639.694	4240
2641.61	4140
2643.528	4167
2645.444	4209
2647.361	4121
2649.276	4215
2651.19	4287
2653.105	4138
2655.019	4237
2656.934	4221
2658.846	4294
2660.758	4145
2662.67	4103
2664.583	4216
2666.493	4144
2668.404	4115
2670.313	4195
2672.223	4321
2674.134	4161
2676.042	4264
2677.95	4197
2679.858	4193
2681.765	4210
2683.673	4196
2685.579	4211
2687.483	4217
2689.389	4193
2691.294	4286
2693.198	4189
2695.104	4128
2697.006	4187
2698.909	4175
2700.811	4155
2702.713	4224
2704.615	4164
2706.516	4117
2708.417	4168
2710.316	4255
2712.216	4219
2714.115	4140
2716.014	4190
2717.913	4218
2719.81	4194
2721.707	4100
2723.603	4239
2725.501	4173
2727.396	4159
2729.292	4165
2731.186	4182
2733.081	4258
2734.976	4206
2736.87	4176
2738.762	4207
2740.653	4226
2742.546	4176
2744.437	4121
2746.329	4162
2748.22	4173
2750.11	4206
2751.999	4181
2753.889	4236
2755.778	4207
2757.666	4181
2759.553	4259
2761.44	4239
2763.328	4252
2765.215	4285
2767.101	4265
2768.986	4229
2770.87	4236
2772.754	4246
2774.638	4236
2776.523	4184
2778.405	4312
2780.288	4230
2782.17	4276
2784.051	4200
2785.934	4276
2787.814	4343
2789.694	4226
2791.574	4242
2793.453	4262
2795.332	4187
2797.212	4245
2799.088	4157
2800.966	4232
2802.843	4257
2804.719	4256
2806.597	4330
2808.471	4239
2810.346	4256
2812.221	4212
2814.094	4210
2815.969	4185
2817.843	4237
2819.714	4287
2821.587	4265
2823.459	4251
2825.329	4244
2827.202	4224
2829.072	4241
2830.942	4280
2832.811	4265
2834.68	4140
2836.549	4249
2838.418	4275
2840.284	4241
2842.152	4265
2844.018	4298
2845.885	4292
2847.751	4251
2849.616	4249
2851.482	4360
2853.345	4272
2855.208	4312
2857.074	4223
2858.937	4394
2860.799	4351
2862.66	4394
2864.522	4336
2866.385	4341
2868.245	4425
2870.104	4424
2871.964	4383
2873.824	4324
2875.683	4504
2877.542	4490
2879.4	4462
2881.257	4523
2883.114	4607
2884.97	4461
2886.827	4475
2888.683	4576
2890.537	4495
2892.392	4585
2894.246	4530
2896.1	4560
2897.954	4532
2899.807	4677
2901.66	4599
2903.51	4538
2905.362	4575
2907.214	4611
2909.065	4671
2910.915	4649
2912.765	4556
2914.613	4570
2916.463	4656
2918.311	4666
2920.158	4555
2922.006	4581
2923.853	4713
2925.698	4778
2927.546	4749
2929.392	4894
2931.236	4752
2933.081	4879
2934.924	4898
2936.77	4900
2938.613	4900
2940.455	4944
2942.298	4898
2944.139	4831
2945.982	4916
2947.823	4907
2949.662	4932
2951.503	4949
2953.342	4908
2955.182	4869
2957.021	4896
2958.858	4814
2960.697	4745
2962.534	4864
2964.37	4794
2966.207	4784
2968.044	4713
2969.879	4718
2971.714	4724
2973.548	4673
2975.383	4642
2977.218	4695
2979.051	4740
2980.883	4684
2982.715	4626
2984.547	4635
2986.379	4780
2988.21	4692
2990.04	4582
2991.87	4670
2993.7	4581
2995.53	4494
2997.359	4606
2999.187	4558
3001.015	4586
3002.842	4467
3004.669	4478
3006.497	4555
3008.323	4526
3010.148	4417
3011.974	4401
3013.797	4460
3015.623	4371
3017.447	4394
3019.27	4417
3021.094	4443
3022.915	4422
3024.737	4431
3026.56	4353
3028.38	4441
3030.201	4336
3032.022	4417
3033.84	4499
3035.662	4471
3037.481	4333
3039.298	4346
3041.117	4403
3042.933	4462
3044.752	4410
3046.568	4520
3048.385	4347
3050.2	4338
3052.016	4412
3053.83	4430
3055.646	4362
3057.46	4397
3059.272	4488
3061.086	4425
3062.898	4486
3064.711	4369
3066.524	4433
3068.335	4337
3070.145	4414
3071.956	4439
3073.766	4395
3075.576	4513
3077.385	4417
3079.193	4437
3081.002	4345
3082.81	4399
3084.618	4427
3086.425	4528
3088.231	4343
3090.036	4306
3091.842	4442
3093.648	4355
3095.452	4456
3097.257	4353
3099.06	4356
3100.863	4460
3102.666	4291
3104.47	4407
3106.272	4377
3108.073	4456
3109.875	4432
3111.676	4499
3113.477	4416
3115.277	4462
3117.077	4347
3118.874	4404
3120.673	4418
3122.473	4445
3124.271	4453
3126.066	4378
3127.863	4412
3129.66	4376
3131.456	4383
3133.252	4393
3135.047	4444
3136.842	4456
3138.635	4340
3140.429	4362
3142.223	4389
3144.016	4356
3145.808	4471
3147.6	4345
3149.392	4353
3151.183	4456
3152.975	4346
3154.765	4372
3156.553	4365
3158.344	4527
3160.132	4421
3161.922	4375
3163.71	4345
3165.497	4405
3167.285	4416
3169.071	4365
3170.858	4458
3172.645	4462
3174.429	4396
3176.214	4351
3177.998	4438
3179.783	4403
3181.568	4488
3183.351	4389
3185.133	4429
3186.915	4503
3188.698	4364
3190.481	4379
3192.261	4545
3194.042	4454
3195.822	4473
3197.601	4435
3199.381	4430
3201.161	4489
3202.939	4435
3204.717	4492
3206.495	4414
3208.272	4388
3210.05	4406
3211.826	4512
3213.602	4417
3215.376	4411
3217.151	4423
3218.927	4470
3220.702	4430
3222.476	4478
3224.249	4482
3226.021	4458
3227.793	4485
3229.567	4443
3231.339	4525
3233.109	4493
3234.88	4334
3236.651	4515
3238.421	4422
3240.191	4562
3241.96	4490
3243.728	4463
3245.497	4481
3247.263	4566
3249.033	4527
3250.799	4529
3252.566	4561
3254.331	4538
3256.097	4507
3257.863	4563
3259.628	4525
3261.392	4591
3263.156	4552
3264.919	4568
3266.683	4559
3268.447	4523
3270.208	4577
3271.969	4535
3273.731	4599
3275.492	4557
3277.253	4564
3279.013	4535
3280.773	4537
3282.532	4576
3284.291	4604
3286.05	4666
3287.808	4643
3289.566	4671
3291.323	4621
3293.079	4612
3294.835	4623
3296.593	4649
3298.348	4597
3300.102	4663
3301.857	4557
3303.611	4547
3305.366	4643
3307.119	4584
3308.872	4639
3310.624	4594
3312.376	4699
3314.129	4558
3315.881	4670
3317.631	4649
3319.38	4607
3321.13	4641
3322.88	4715
3324.631	4703
3326.379	4654
3328.126	4669
3329.875	4718
3331.622	4616
3333.371	4700
3335.116	4630
3336.863	4718
3338.609	4749
3340.353	4680
3342.1	4630
3343.845	4666
3345.588	4665
3347.332	4724
3349.074	4672
3350.817	4724
3352.56	4740
3354.303	4691
3356.043	4858
3357.785	4686
3359.525	4699
3361.268	4705
3363.007	4755
3364.745	4718
3366.485	4700
3368.223	4816
3369.962	4775
3371.701	4742
3373.438	4609
3375.174	4836
3376.911	4842
3378.647	4754
3380.384	4749
3382.118	4819
3383.854	4710
3385.588	4752
3387.322	4821
3389.057	4883
3390.79	4714
3392.522	4766
3394.255	4732
3395.987	4746
3397.719	4743
3399.451	4759
3401.181	4831
3402.911	4702
3404.641	4779
3406.371	4841
3408.101	4733
3409.83	4784
3411.558	4742
3413.285	4774
3415.011	4750
3416.739	4731
3418.467	4813
3420.193	4789
3421.919	4851
3423.644	4834
3425.368	4830
3427.094	4730
3428.818	4788
3430.542	4828
3432.264	4822
3433.987	4832
3435.712	4817
3437.434	4889
3439.155	4859
3440.876	4866
3442.596	4738
3444.317	4793
3446.039	4766
3447.757	4847
3449.477	4899
3451.195	4798
3452.914	4797
3454.632	4755
3456.35	4833
3458.067	4871
3459.784	4819
3461.5	4833
3463.216	4778
3464.932	4881
3466.647	4736
3468.362	4799
3470.076	4762
3471.789	4796
3473.505	4843
3475.217	4857
3476.929	4784
3478.641	4892
3480.354	4818
3482.066	4858
3483.777	4915
3485.487	4744
3487.197	4786
3488.908	4850
3490.617	4982
3492.327	4752
3494.035	4833
3495.743	4889
3497.451	4781
3499.158	4983
3500.866	4891
3502.572	4900
3504.278	4786
3505.984	4822
3507.689	4822
3509.396	4938
3511.1	4859
3512.804	4925
3514.508	4901
3516.211	4950
3517.913	4870
3519.616	4800
3521.319	5037
3523.021	4875
3524.722	4829
3526.422	4907
3528.124	4846
3529.824	4910
3531.524	4913
3533.222	4994
3534.921	4931
3536.62	4918
3538.318	4882
3540.016	4953
3541.714	4950
3543.41	4980
3545.107	5010
3546.803	4994
3548.5	4930
3550.194	4912
3551.889	5047
3553.583	4967
3555.279	4973
3556.972	4938
3558.666	5028
3560.358	4939
3562.051	4957
3563.742	4970
3565.435	4889
3567.126	5034
3568.817	5040
3570.507	5006
3572.197	4964
3573.888	5034
3575.577	4974
3577.265	4982
3578.954	5025
3580.642	5067
3582.329	5004
3584.017	5082
3585.704	5022
3587.391	5065
3589.077	5052
3590.762	4974
3592.449	5007
3594.133	5050
3595.817	5061
3597.501	5040
3599.185	5033
3600.869	5020
3602.552	4991
3604.234	4969
3605.916	5093
3607.598	5052
3609.279	5008
3610.961	5054
3612.642	5094
3614.321	5038
3616	5109
3617.68	5102
3619.36	5045
3621.039	4955
3622.716	5036
3624.394	5084
3626.071	5006
3627.748	5072
3629.425	5019
3631.102	5035
3632.778	5122
3634.452	5041
3636.127	5069
3637.803	5152
3639.477	5169
3641.151	5145
3642.823	5166
3644.497	5064
3646.171	5064
3647.842	5138
3649.515	5067
3651.185	5078
3652.857	5073
3654.527	5096
3656.198	5205
3657.868	5135
3659.537	5138
3661.207	5138
3662.875	5163
3664.544	5173
3666.212	5061
3667.879	5159
3669.546	5147
3671.212	5165
3672.88	5221
3674.546	5226
3676.211	5207
3677.875	5051
3679.541	5140
3681.205	5127
3682.87	5177
3684.533	5080
3686.196	5147
3687.859	5233
3689.521	5261
3691.184	5143
3692.845	5231
3694.507	5165
3696.167	5250
3697.827	5237
3699.487	5218
3701.148	5314
3702.808	5242
3704.466	5221
3706.125	5323
3707.783	5289
3709.442	5285
3711.099	5328
3712.757	5217
3714.412	5327
3716.068	5324
3717.725	5275
3719.381	5238
3721.036	5260
3722.689	5365
3724.344	5281
3725.998	5268
3727.652	5319
3729.305	5342
3730.958	5272
3732.61	5294
3734.262	5296
3735.915	5250
3737.565	5254
3739.217	5303
3740.866	5408
3742.516	5316
3744.165	5263
3745.816	5255
3747.464	5421
3749.113	5380
3750.761	5379
3752.409	5398
3754.057	5310
3755.703	5361
3757.35	5368
3758.996	5413
3760.641	5380
3762.289	5418
3763.933	5314
3765.577	5379
3767.222	5514
3768.865	5360
3770.508	5386
3772.152	5363
3773.796	5399
3775.438	5475
3777.079	5489
3778.721	5465
3780.363	5422
3782.003	5402
3783.643	5546
3785.283	5433
3786.923	5478
3788.563	5478
3790.203	5414
3791.841	5494
3793.479	5299
3795.115	5435
3796.753	5405
3798.391	5441
3800.027	5608
3801.664	5589
3803.299	5497
3804.935	5529
3806.571	5486
3808.206	5496
3809.839	5573
3811.473	5471
3813.107	5486
3814.74	5454
3816.375	5509
3818.006	5555
3819.638	5447
3821.27	5554
3822.9	5526
3824.532	5672
3826.163	5594
3827.792	5495
3829.423	5586
3831.051	5556
3832.682	5497
3834.311	5583
3835.938	5673
3837.566	5566
3839.193	5559
3840.821	5569
3842.448	5601
3844.075	5549
3845.7	5652
3847.325	5560
3848.951	5602
3850.576	5605
3852.201	5536
3853.825	5511
3855.448	5501
3857.072	5549
3858.694	5653
3860.318	5579
3861.939	5706
3863.562	5576
3865.183	5705
3866.804	5517
3868.426	5581
3870.045	5684
3871.666	5626
3873.285	5623
3874.904	5757
3876.524	5580
3878.142	5723
3879.76	5740
3881.378	5718
3882.995	5622
3884.612	5718
3886.229	5719
3887.845	5820
3889.461	5720
3891.076	5791
3892.691	5808
3894.307	5711
3895.922	5628
3897.536	5774
3899.149	5694
3900.761	5811
3902.374	5769
3903.988	5807
3905.6	5799
3907.212	5817
3908.822	5783
3910.433	5847
3912.045	5828
3913.655	5785
3915.265	5868
3916.875	5840
3918.483	5794
3920.093	5859
3921.702	5896
3923.309	5775
3924.917	5854
3926.523	5921
3928.13	5858
3929.739	5821
3931.344	5900
3932.95	5720
3934.555	5856
3936.159	5960
3937.766	5988
3939.369	5839
3940.974	5875
3942.577	5883
3944.181	6094
3945.783	5874
3947.386	5866
3948.989	5939
3950.59	5952
3952.191	5988
3953.791	5946
3955.394	5995
3956.994	5886
3958.593	5990
3960.192	5876
3961.791	5952
3963.392	6049
3964.99	5976
3966.588	6020
3968.185	6032
3969.782	6025
3971.379	6010
3972.976	6104
3974.572	6050
3976.168	5992
3977.763	5979
3979.358	5877
3980.954	5957
3982.548	5988
3984.142	5961
3985.736	5923
3987.329	5972
3988.922	5960
3990.516	5887
3992.108	6035
3993.698	6080
3995.29	6053
3996.881	5882
3998.473	6070
4000.064	6032
4001.653	5896
4003.242	6029
4004.832	6096
4006.422	6011
4008.01	6001
4009.598	6035
4011.186	6088
4012.773	6069
4014.36	6154
4015.947	5959
4017.534	6108
4019.119	5986
4020.705	6111
4022.291	6113
4023.876	6128
4025.461	6079
4027.044	6065
4028.627	6063
4030.211	6100
4031.795	6093
4033.378	6189
4034.96	6129
4036.542	6022
4038.124	6039
4039.704	6129
4041.286	6058
4042.867	6042
4044.447	6165
4046.026	6134
4047.606	6146
4049.187	6146
4050.765	6149
4052.343	6272
4053.92	6116
4055.498	6162
4057.076	6230
4058.654	6130
4060.23	6198
4061.806	6117
4063.381	6181
4064.957	6255
4066.533	6082
4068.107	6339
4069.682	6190
4071.256	6264
4072.829	6134
4074.404	6312
4075.977	6261
4077.549	6286
4079.121	6242
4080.693	6267
4082.265	6216
4083.836	6160
4085.407	6289
4086.977	6328
4088.547	6300
4090.117	6265
4091.687	6377
4093.256	6286
4094.825	6316
4096.392	6291
4097.96	6263
4099.528	6383
4101.097	6323
4102.663	6286
4104.229	6313
4105.795	6347
4107.361	6283
4108.928	6404
4110.493	6461
4112.058	6454
4113.621	6296
4115.186	6478
4116.75	6267
4118.313	6392
4119.876	6406
4121.438	6338
4123	6184
4124.562	6379
4126.125	6351
4127.686	6343
4129.246	6372
4130.807	6392
4132.367	6310
4133.927	6396
4135.486	6379
4137.046	6480
4138.604	6430
4140.162	6297
4141.72	6380
4143.279	6500
4144.836	6470
4146.393	6442
4147.949	6456
4149.505	6427
4151.062	6498
4152.617	6408
4154.172	6417
4155.727	6358
4157.281	6393
4158.836	6508
4160.39	6379
4161.943	6371
4163.496	6465
4165.048	6356
4166.601	6425
4168.154	6490
4169.706	6515
4171.257	6441
4172.808	6554
4174.358	6457
4175.909	6473
4177.458	6407
4179.008	6563
4180.558	6441
4182.106	6508
4183.655	6510
4185.204	6548
4186.751	6540
4188.298	6509
4189.845	6516
4191.392	6510
4192.939	6455
4194.485	6531
4196.031	6407
4197.576	6565
4199.121	6470
4200.666	6475
4202.211	6441
4203.754	6609
4205.298	6544
4206.84	6655
4208.384	6657
4209.927	6552
4211.47	6691
4213.011	6730
4214.552	6709
4216.094	6623
4217.635	6678
4219.175	6671
4220.716	6521
4222.255	6699
4223.793	6595
4225.335	6726
4226.873	6624
4228.411	6705
4229.948	6597
4231.486	6674
4233.024	6616
4234.562	6656
4236.098	6799
4237.634	6728
4239.169	6710
4240.705	6737
4242.241	6732
4243.776	6734
4245.31	6652
4246.844	6630
4248.378	6744
4249.911	6801
4251.445	6801
4252.978	6739
4254.51	6817
4256.042	6600
4257.574	6758
4259.107	6733
4260.638	6871
4262.169	6868
4263.699	6739
4265.228	6821
4266.759	6804
4268.289	6804
4269.818	6843
4271.345	6840
4272.874	6933
4274.402	6746
4275.931	6797
4277.458	6875
4278.985	6951
4280.512	6961
4282.037	6769
4283.564	6826
4285.089	6920
4286.615	6827
4288.139	6961
4289.664	6824
4291.187	6794
4292.712	6849
4294.235	6797
4295.759	6711
4297.281	6982
4298.804	6896
4300.327	6851
4301.849	6944
4303.37	6948
4304.891	6804
4306.412	6947
4307.933	7022
4309.453	6943
4310.973	6953
4312.492	6945
