398.1873	3164
400.7097	3161
403.2336	3166
405.7547	3141
408.2751	3184
410.7948	3103
413.3138	3231
415.83	3260
418.3497	3165
420.8666	3142
423.3829	3297
425.8985	3276
428.4133	3263
430.9275	3311
433.441	3248
435.9538	3350
438.4639	3357
440.9753	3258
443.4881	3363
445.9982	3352
448.5055	3382
451.0142	3350
453.5201	3294
456.0274	3358
458.5361	3330
461.04	3331
463.5453	3377
466.0478	3329
468.5517	3372
471.0549	3392
473.5574	3446
476.0572	3459
478.5584	3392
481.0568	3324
483.5545	3439
486.0557	3458
488.5521	3402
491.0478	3465
493.5449	3460
496.0392	3457
498.5349	3351
501.0299	3409
503.5222	3525
506.0139	3476
508.5048	3516
510.9991	3482
513.4887	3433
515.9777	3488
518.4659	3535
520.9534	3470
523.4403	3545
525.9306	3462
528.4161	3432
530.9009	3481
533.3851	3528
535.8687	3538
538.3535	3477
540.8356	3464
543.3171	3456
545.7979	3593
548.278	3500
550.7595	3539
553.2383	3502
555.7144	3524
558.1918	3503
560.6685	3488
563.1446	3388
565.6221	3539
568.0968	3573
570.5688	3529
573.0422	3529
575.515	3556
577.989	3581
580.4584	3643
582.9291	3608
585.3991	3572
587.8685	3664
590.3352	3577
592.8052	3615
595.2706	3660
597.7372	3621
600.2033	3586
602.6666	3602
605.1334	3572
607.5953	3578
610.0587	3603
612.5193	3659
614.9814	3647
617.4427	3518
619.9034	3641
622.3615	3577
624.8208	3638
627.2775	3568
629.7335	3592
632.1929	3613
634.6476	3612
637.1016	3547
639.5569	3651
642.0096	3665
644.4637	3582
646.9151	3699
649.3678	3606
651.8179	3581
654.2672	3606
656.7159	3674
659.166	3584
661.6154	3751
664.0622	3672
666.5082	3684
668.9537	3734
671.4005	3743
673.8445	3677
676.288	3737
678.7308	3842
681.1729	3774
683.6163	3713
686.0572	3741
688.4973	3678
690.9368	3759
693.3757	3716
695.8138	3815
698.2534	3790
700.6902	3735
703.1245	3714
705.56	3711
707.9949	3833
710.4311	3886
712.8647	3801
715.2957	3774
717.7279	3767
720.1595	3842
722.5905	3765
725.0208	3818
727.4505	3781
729.8795	3897
732.3058	3867
734.7336	3827
737.1626	3862
739.587	3886
742.0128	3853
744.4359	3882
746.8604	3961
749.2841	3927
751.7073	3848
754.1278	3982
756.5496	4028
758.9688	4027
761.3893	3976
763.8093	4013
766.2285	4017
768.6451	4051
771.0611	3937
773.4784	4005
775.895	3987
778.3091	3974
780.7244	3974
783.1371	4007
785.5493	3947
787.9626	3973
790.3754	3973
792.7856	3951
795.1951	4054
797.6039	3926
800.0121	4001
802.4236	3945
804.8306	4000
807.2369	4011
809.6425	4023
812.0475	4088
814.4538	3912
816.8575	4057
819.2606	4039
821.663	3926
824.0648	4034
826.4659	3985
828.8683	3996
831.2682	4072
833.6674	4097
836.066	4049
838.4639	4042
840.8632	4096
843.2579	3984
845.6539	4128
848.0493	4074
850.444	4064
852.84	4051
855.2315	4147
857.6243	4108
860.0165	4079
862.4081	4095
864.797	4133
867.1892	4066
869.5789	4161
871.9659	4107
874.3542	4046
876.74	4054
879.129	4006
881.5155	4037
883.8994	3948
886.2845	4082
888.6671	4031
891.051	4100
893.4343	4092
895.8169	4017
898.197	4080
900.5783	4134
902.9571	4139
905.3372	4104
907.7167	4171
910.0936	4080
912.4698	4094
914.8474	4112
917.2244	4089
919.5987	4199
921.9744	4218
924.3475	4289
926.72	4158
929.0918	4175
931.4669	4128
933.8375	4303
936.2074	4203
938.5767	4260
940.9454	4168
943.3154	4275
945.6829	4290
948.0497	4359
950.4178	4480
952.7833	4448
955.1483	4593
957.5145	4648
959.8782	4694
962.2412	4737
964.6036	4596
966.9655	4526
969.3266	4545
971.6871	4503
974.0471	4455
976.4064	4285
978.765	4274
981.125	4351
983.4824	4163
985.8373	4223
988.1935	4235
990.549	4242
992.9039	4216
995.2602	4161
997.6119	4194
999.965	4197
1002.317	4121
1004.667	4250
1007.02	4361
1009.371	4248
1011.719	4167
1014.068	4184
1016.415	4301
1018.765	4202
1021.111	4179
1023.458	4208
1025.804	4265
1028.147	4147
1030.49	4276
1032.837	4286
1035.179	4319
1037.522	4274
1039.862	4322
1042.204	4290
1044.546	4244
1046.884	4319
1049.224	4252
1051.562	4339
1053.899	4313
1056.237	4347
1058.575	4290
1060.91	4289
1063.244	4311
1065.58	4316
1067.913	4475
1070.248	4343
1072.579	4378
1074.911	4274
1077.242	4380
1079.572	4370
1081.905	4471
1084.234	4232
1086.562	4323
1088.89	4349
1091.217	4357
1093.544	4318
1095.871	4348
1098.197	4357
1100.521	4394
1102.845	4382
1105.169	4392
1107.491	4417
1109.814	4317
1112.135	4358
1114.456	4338
1116.776	4293
1119.096	4372
1121.415	4373
1123.734	4337
1126.052	4339
1128.369	4386
1130.686	4533
1133.002	4437
1135.318	4388
1137.632	4359
1139.945	4338
1142.258	4385
1144.573	4402
1146.884	4401
1149.196	4416
1151.505	4456
1153.816	4373
1156.124	4473
1158.435	4342
1160.742	4380
1163.051	4377
1165.356	4471
1167.663	4408
1169.97	4323
1172.276	4355
1174.579	4383
1176.881	4480
1179.186	4368
1181.487	4393
1183.79	4367
1186.092	4381
1188.392	4400
1190.691	4487
1192.991	4435
1195.291	4451
1197.588	4413
1199.885	4361
1202.181	4393
1204.479	4433
1206.775	4409
1209.07	4421
1211.363	4374
1213.656	4502
1215.949	4434
1218.241	4474
1220.534	4507
1222.825	4436
1225.115	4462
1227.405	4494
1229.693	4512
1231.984	4442
1234.271	4449
1236.558	4460
1238.845	4451
1241.131	4468
1243.416	4555
1245.703	4573
1247.987	4472
1250.269	4557
1252.552	4520
1254.834	4627
1257.118	4594
1259.399	4592
1261.678	4599
1263.958	4517
1266.237	4581
1268.516	4580
1270.794	4498
1273.072	4598
1275.347	4526
1277.624	4511
1279.899	4433
1282.175	4455
1284.449	4492
1286.722	4495
1288.995	4531
1291.266	4660
1293.54	4455
1295.81	4492
1298.081	4490
1300.35	4524
1302.62	4584
1304.889	4362
1307.156	4516
1309.425	4538
1311.69	4456
1313.957	4509
1316.222	4528
1318.488	4570
1320.751	4640
1323.016	4573
1325.278	4586
1327.54	4550
1329.803	4546
1332.065	4634
1334.325	4595
1336.584	4564
1338.843	4540
1341.101	4455
1343.36	4552
1345.617	4526
1347.876	4484
1350.131	4624
1352.387	4506
1354.643	4534
1356.897	4589
1359.151	4550
1361.403	4498
1363.656	4515
1365.909	4528
1368.16	4571
1370.409	4512
1372.659	4636
1374.909	4622
1377.157	4570
1379.407	4533
1381.655	4640
1383.9	4697
1386.147	4582
1388.393	4581
1390.64	4577
1392.885	4597
1395.127	4654
1397.37	4591
1399.614	4627
1401.854	4659
1404.098	4633
1406.339	4690
1408.578	4570
1410.818	4637
1413.056	4629
1415.297	4563
1417.533	4722
1419.771	4665
1422.006	4591
1424.243	4633
1426.479	4681
1428.715	4586
1430.948	4701
1433.182	4616
1435.414	4711
1437.647	4749
1439.88	4806
1442.11	4647
1444.342	4793
1446.571	4752
1448.799	4645
1451.029	4719
1453.258	4723
1455.485	4724
1457.711	4770
1459.937	4677
1462.164	4691
1464.39	4691
1466.614	4752
1468.838	4699
1471.06	4735
1473.283	4664
1475.506	4671
1477.727	4679
1479.949	4633
1482.169	4665
1484.389	4642
1486.609	4625
1488.828	4688
1491.045	4647
1493.261	4661
1495.477	4547
1497.693	4643
1499.91	4750
1502.125	4667
1504.339	4599
1506.553	4615
1508.766	4576
1510.979	4551
1513.191	4607
1515.402	4662
1517.613	4620
1519.823	4622
1522.033	4663
1524.242	4693
1526.451	4574
1528.657	4589
1530.865	4663
1533.072	4630
1535.278	4598
1537.484	4593
1539.687	4647
1541.892	4661
1544.096	4713
1546.299	4592
1548.502	4671
1550.703	4646
1552.905	4610
1555.104	4640
1557.303	4793
1559.505	4728
1561.703	4804
1563.902	4642
1566.099	4739
1568.295	4670
1570.494	4713
1572.689	4717
1574.883	4728
1577.079	4745
1579.272	4717
1581.467	4649
1583.659	4776
1585.853	4729
1588.044	4758
1590.234	4817
1592.424	4794
1594.615	4867
1596.806	4809
1598.994	4831
1601.182	4805
1603.369	4794
1605.557	4837
1607.744	4842
1609.929	4861
1612.114	4836
1614.298	4848
1616.482	4766
1618.667	4807
1620.85	4853
1623.032	4751
1625.214	4724
1627.395	4826
1629.575	4770
1631.755	4879
1633.935	4752
1636.114	4844
1638.292	4835
1640.471	4842
1642.647	4834
1644.823	4807
1647	4796
1649.175	4783
1651.348	4734
1653.525	4848
1655.698	4859
1657.87	4872
1660.043	4868
1662.213	4766
1664.387	4849
1666.558	4839
1668.727	4875
1670.896	4833
1673.064	4825
1675.233	4969
1677.401	4861
1679.569	4860
1681.735	4873
1683.902	4723
1686.066	4867
1688.233	4935
1690.397	4777
1692.559	4837
1694.723	4833
1696.885	4824
1699.048	4917
1701.21	4826
1703.37	4840
1705.53	4764
1707.689	4814
1709.849	4843
1712.009	4829
1714.166	4812
1716.323	4789
1718.479	4804
1720.634	4841
1722.793	4865
1724.948	4807
1727.102	4864
1729.255	4909
1731.408	4813
1733.562	4769
1735.714	4860
1737.865	4828
1740.016	4881
1742.166	4948
1744.316	4886
1746.467	4785
1748.616	4880
1750.764	4864
1752.911	4885
1755.056	4873
1757.205	4790
1759.35	4912
1761.496	4907
1763.641	4857
1765.785	4979
1767.927	4877
1770.072	4866
1772.214	4864
1774.355	4816
1776.496	4847
1778.637	4951
1780.778	4973
1782.918	4981
1785.057	4885
1787.194	4924
1789.333	4963
1791.472	4924
1793.608	5024
1795.745	5014
1797.879	4884
1800.015	4957
1802.148	4991
1804.284	4899
1806.417	4936
1808.548	4870
1810.682	4982
1812.812	4984
1814.946	5018
1817.075	4947
1819.205	4851
1821.335	4946
1823.463	5018
1825.59	4858
1827.721	4907
1829.847	4925
1831.973	4898
1834.098	4829
1836.223	4980
1838.351	4961
1840.475	4830
1842.598	4856
1844.721	4984
1846.843	4927
1848.966	4851
1851.087	4888
1853.21	4898
1855.33	4887
1857.449	4860
1859.568	4887
1861.688	4831
1863.806	4853
1865.924	4887
1868.039	4904
1870.155	4986
1872.273	4955
1874.388	4891
1876.503	4927
1878.617	4918
1880.73	4887
1882.844	4906
1884.956	4959
1887.068	4951
1889.18	4928
1891.291	4958
1893.4	4941
1895.511	4874
1897.621	4948
1899.73	4933
1901.837	4918
1903.944	5026
1906.053	4945
1908.159	5051
1910.265	4915
1912.369	4981
1914.474	4959
1916.577	4952
1918.683	5062
1920.785	5085
1922.888	5032
1924.989	4999
1927.091	5116
1929.193	5004
1931.294	5124
1933.393	5088
1935.493	4998
1937.59	5024
1939.689	4982
1941.788	5024
1943.884	4988
1945.98	5033
1948.077	4940
1950.171	5037
1952.267	4973
1954.361	5139
1956.455	5034
1958.548	5071
1960.64	5019
1962.733	4890
1964.824	5097
1966.915	5058
1969.005	5051
1971.096	5048
1973.185	5080
1975.275	5053
1977.363	4975
1979.45	4920
1981.537	5108
1983.623	5064
1985.711	5034
1987.796	4996
1989.881	4976
1991.965	5051
1994.047	5006
1996.132	5037
1998.215	5017
2000.297	5014
2002.378	4999
2004.46	5018
2006.54	5015
2008.62	4978
2010.7	4899
2012.779	4898
2014.858	4976
2016.934	5009
2019.013	4946
2021.09	5098
2023.165	4976
2025.241	4971
2027.317	5068
2029.39	5026
2031.466	5105
2033.538	5004
2035.612	4969
2037.683	5061
2039.755	5071
2041.827	5053
2043.898	4967
2045.968	5070
2048.038	5009
2050.106	4997
2052.177	5019
2054.244	4964
2056.313	4992
2058.379	4937
2060.444	5028
2062.511	4944
2064.577	5000
2066.641	5050
2068.705	5015
2070.77	5114
2072.832	4900
2074.896	5008
2076.958	5122
2079.02	4934
2081.081	5039
2083.141	4969
2085.2	4969
2087.261	4988
2089.319	5000
2091.377	5057
2093.435	5006
2095.492	5023
2097.552	4979
2099.607	5095
2101.663	5008
2103.718	4961
2105.771	4991
2107.826	4972
2109.879	5001
2111.932	5020
2113.985	4997
2116.037	5027
2118.088	5045
2120.141	4989
2122.191	5036
2124.239	5053
2126.288	4990
2128.337	5125
2130.387	5013
2132.434	5049
2134.481	5072
2136.528	5086
2138.574	4992
2140.618	5043
2142.665	5027
2144.71	4962
2146.753	5009
2148.797	5043
2150.838	5144
2152.883	5034
2154.923	5016
2156.965	5016
2159.007	4907
2161.046	5051
2163.086	5021
2165.126	5092
2167.163	4982
2169.202	4893
2171.239	4949
2173.277	5031
2175.314	4977
2177.349	4952
2179.385	4971
2181.42	5066
2183.453	4950
2185.49	4934
2187.522	4975
2189.555	4919
2191.586	4949
2193.619	5049
2195.651	4935
2197.682	4965
2199.711	4910
2201.74	4971
2203.769	4950
2205.799	4889
2207.828	5075
2209.855	4945
2211.882	4932
2213.908	4975
2215.934	4999
2217.961	4924
2219.986	4898
2222.01	4910
2224.034	5019
2226.057	4986
2228.08	4951
2230.104	5024
2232.124	5055
2234.145	4933
2236.166	4883
2238.186	4972
2240.207	4844
2242.227	4950
2244.244	4870
2246.262	4890
2248.28	4939
2250.299	4920
2252.314	4882
2254.33	5009
2256.346	4892
2258.36	4905
2260.375	4899
2262.391	4893
2264.403	4975
2266.416	4960
2268.427	5001
2270.44	5024
2272.453	5001
2274.463	4939
2276.474	4893
2278.483	4960
2280.493	4936
2282.501	4955
2284.51	4966
2286.518	4987
2288.524	4966
2290.532	4963
2292.537	4926
2294.544	5025
2296.55	4963
2298.554	5014
2300.557	4976
2302.562	4989
2304.566	5004
2306.568	5016
2308.569	4939
2310.572	4895
2312.573	5053
2314.573	5025
2316.574	4973
2318.573	4877
2320.571	4911
2322.571	4958
2324.569	4830
2326.567	4881
2328.564	4932
2330.56	4927
2332.556	5018
2334.551	4878
2336.546	4916
2338.542	4898
2340.535	4938
2342.529	4885
2344.521	4900
2346.512	4891
2348.505	4882
2350.497	5000
2352.487	4791
2354.478	4904
2356.468	4997
2358.457	4885
2360.446	4892
2362.434	4801
2364.422	4972
2366.408	5031
2368.395	4752
2370.383	4928
2372.369	4913
2374.353	4911
2376.338	4893
2378.321	4840
2380.307	4908
2382.29	4929
2384.272	4674
2386.254	4802
2388.235	4877
2390.218	4930
2392.198	4846
2394.179	4889
2396.157	4817
2398.137	4881
2400.115	4806
2402.095	4843
2404.072	4759
2406.048	4880
2408.026	4789
2410.001	4850
2411.977	4754
2413.953	4784
2415.927	4749
2417.9	4884
2419.875	4770
2421.847	4768
2423.821	4858
2425.792	4907
2427.763	4838
2429.736	4794
2431.706	4884
2433.677	4836
2435.646	4880
2437.615	4863
2439.583	4809
2441.551	4838
2443.519	4905
2445.486	4862
2447.452	4888
2449.418	4805
2451.383	4852
2453.348	4866
2455.314	4775
2457.278	4804
2459.241	4800
2461.205	4822
2463.167	4815
2465.131	4833
2467.091	4853
2469.052	4862
2471.012	4815
2472.972	4818
2474.932	4782
2476.891	4760
2478.85	4810
2480.808	4826
2482.766	4760
2484.722	4758
2486.68	4799
2488.636	4734
2490.591	4785
2492.546	4731
2494.5	4789
2496.456	4840
2498.41	4805
2500.362	4740
2502.315	4808
2504.266	4705
2506.218	4756
2508.169	4686
2510.121	4783
2512.07	4760
2514.019	4753
2515.968	4811
2517.918	4758
2519.866	4829
2521.813	4789
2523.76	4800
2525.707	4793
2527.653	4737
2529.599	4823
2531.543	4885
2533.489	4731
2535.433	4731
2537.376	4719
2539.32	4761
2541.264	4705
2543.205	4792
2545.147	4805
2547.087	4739
2549.029	4825
2550.969	4781
2552.908	4775
2554.847	4838
2556.786	4794
2558.724	4781
2560.663	4664
2562.6	4718
2564.537	4774
2566.473	4766
2568.408	4717
2570.345	4749
2572.28	4803
2574.214	4817
2576.148	4744
2578.081	4754
2580.014	4778
2581.947	4802
2583.879	4875
2585.81	4792
2587.741	4850
2589.67	4825
2591.602	4805
2593.532	4844
2595.461	4805
2597.388	4904
2599.316	4736
2601.244	4759
2603.172	4736
2605.098	4763
2607.023	4798
2608.949	4877
2610.873	4705
2612.8	4855
2614.723	4778
2616.647	4803
2618.569	4746
2620.493	4783
2622.416	4778
2624.338	4754
2626.258	4724
2628.179	4877
2630.099	4842
2632.019	4788
2633.939	4825
2635.857	4815
2637.775	4842
2639.694	4749
2641.61	4828
2643.528	4799
2645.444	4715
2647.361	4820
2649.276	4746
2651.19	4783
2653.105	4894
2655.019	4868
2656.934	4803
2658.846	4723
2660.758	4839
2662.67	4853
2664.583	4824
2666.493	4890
2668.404	4782
2670.313	4842
2672.223	4774
2674.134	4772
2676.042	4802
2677.95	4903
2679.858	4728
2681.765	4682
2683.673	4760
2685.579	4707
2687.483	4808
2689.389	4786
2691.294	4795
2693.198	4783
2695.104	4748
2697.006	4774
2698.909	4771
2700.811	4745
2702.713	4815
2704.615	4787
2706.516	4707
2708.417	4729
2710.316	4789
2712.216	4674
2714.115	4892
2716.014	4700
2717.913	4764
2719.81	4749
2721.707	4730
2723.603	4670
2725.501	4766
2727.396	4712
2729.292	4727
2731.186	4741
2733.081	4767
2734.976	4722
2736.87	4640
2738.762	4737
2740.653	4746
2742.546	4755
2744.437	4708
2746.329	4843
2748.22	4727
2750.11	4742
2751.999	4731
2753.889	4686
2755.778	4736
2757.666	4679
2759.553	4654
2761.44	4698
2763.328	4781
2765.215	4645
2767.101	4760
2768.986	4683
2770.87	4634
2772.754	4702
2774.638	4636
2776.523	4736
2778.405	4639
2780.288	4730
2782.17	4682
2784.051	4683
2785.934	4670
2787.814	4772
2789.694	4704
2791.574	4595
2793.453	4596
2795.332	4727
2797.212	4721
2799.088	4616
2800.966	4679
2802.843	4685
2804.719	4676
2806.597	4784
2808.471	4660
2810.346	4659
2812.221	4629
2814.094	4681
2815.969	4700
2817.843	4752
2819.714	4741
2821.587	4673
2823.459	4758
2825.329	4723
2827.202	4668
2829.072	4630
2830.942	4702
2832.811	4633
2834.68	4694
2836.549	4764
2838.418	4658
2840.284	4641
2842.152	4664
2844.018	4683
2845.885	4726
2847.751	4689
2849.616	4702
2851.482	4693
2853.345	4765
2855.208	4571
2857.074	4575
2858.937	4631
2860.799	4757
2862.66	4710
2864.522	4712
2866.385	4656
2868.245	4624
2870.104	4783
2871.964	4705
2873.824	4785
2875.683	4688
2877.542	4738
2879.4	4760
2881.257	4779
2883.114	4914
2884.97	4728
2886.827	4675
2888.683	4738
2890.537	4892
2892.392	4812
2894.246	4775
2896.1	4751
2897.954	4832
2899.807	4755
2901.66	4791
2903.51	4839
2905.362	4830
2907.214	4724
2909.065	4742
2910.915	4876
2912.765	4771
2914.613	4884
2916.463	4834
2918.311	4821
2920.158	4838
2922.006	4892
2923.853	4933
2925.698	4897
2927.546	4952
2929.392	4931
2931.236	4924
2933.081	4976
2934.924	4951
2936.77	5018
2938.613	5018
2940.455	4963
2942.298	5025
2944.139	5025
2945.982	4997
2947.823	4984
2949.662	5031
2951.503	5049
2953.342	4953
2955.182	5002
2957.021	4933
2958.858	4992
2960.697	4905
2962.534	4919
2964.37	4963
2966.207	4831
2968.044	4866
2969.879	4829
2971.714	4915
2973.548	4705
2975.383	4825
2977.218	4807
2979.051	4844
2980.883	4770
2982.715	4784
2984.547	4746
2986.379	4737
2988.21	4700
2990.04	4715
2991.87	4737
2993.7	4731
2995.53	4782
2997.359	4667
2999.187	4714
3001.015	4629
3002.842	4656
3004.669	4705
3006.497	4548
3008.323	4589
3010.148	4608
3011.974	4636
3013.797	4510
3015.623	4575
3017.447	4522
3019.27	4586
3021.094	4495
3022.915	4656
3024.737	4510
3026.56	4488
3028.38	4510
3030.201	4589
3032.022	4611
3033.84	4397
3035.662	4533
3037.481	4519
3039.298	4543
3041.117	4413
3042.933	4522
3044.752	4460
3046.568	4553
3048.385	4398
3050.2	4481
3052.016	4567
3053.83	4416
3055.646	4513
3057.46	4498
3059.272	4539
3061.086	4440
3062.898	4437
3064.711	4407
3066.524	4535
3068.335	4403
3070.145	4456
3071.956	4450
3073.766	4421
3075.576	4459
3077.385	4398
3079.193	4402
3081.002	4475
3082.81	4318
3084.618	4453
3086.425	4408
3088.231	4388
3090.036	4401
3091.842	4393
3093.648	4424
3095.452	4445
3097.257	4359
3099.06	4343
3100.863	4299
3102.666	4344
3104.47	4405
3106.272	4415
3108.073	4384
3109.875	4425
3111.676	4288
3113.477	4379
3115.277	4288
3117.077	4335
3118.874	4293
3120.673	4366
3122.473	4319
3124.271	4369
3126.066	4283
3127.863	4410
3129.66	4373
3131.456	4337
3133.252	4300
3135.047	4307
3136.842	4310
3138.635	4287
3140.429	4303
3142.223	4345
3144.016	4265
3145.808	4362
3147.6	4340
3149.392	4250
3151.183	4251
3152.975	4223
3154.765	4288
3156.553	4296
3158.344	4285
3160.132	4290
3161.922	4281
3163.71	4253
3165.497	4246
3167.285	4379
3169.071	4280
3170.858	4261
3172.645	4279
3174.429	4230
3176.214	4209
3177.998	4240
3179.783	4152
3181.568	4206
3183.351	4256
3185.133	4200
3186.915	4232
3188.698	4298
3190.481	4258
3192.261	4200
3194.042	4202
3195.822	4143
3197.601	4243
3199.381	4248
3201.161	4213
3202.939	4159
3204.717	4153
3206.495	4142
3208.272	4142
3210.05	4138
3211.826	4231
3213.602	4231
3215.376	4229
3217.151	4251
3218.927	4153
3220.702	4206
3222.476	4167
3224.249	4173
3226.021	4207
3227.793	4196
3229.567	4203
3231.339	4052
3233.109	4143
3234.88	4231
3236.651	4157
3238.421	4269
3240.191	4153
3241.96	4182
3243.728	4259
3245.497	4201
3247.263	4164
3249.033	4187
3250.799	4170
3252.566	4046
3254.331	4162
3256.097	4140
3257.863	4211
3259.628	4095
3261.392	4215
3263.156	4140
3264.919	4176
3266.683	4199
3268.447	4132
3270.208	4111
3271.969	4150
3273.731	4206
3275.492	4154
3277.253	4123
3279.013	4180
3280.773	4117
3282.532	4108
3284.291	4130
3286.05	4196
3287.808	4058
3289.566	4092
3291.323	4078
3293.079	4138
3294.835	4206
3296.593	4115
3298.348	4159
3300.102	4102
3301.857	4164
3303.611	4119
3305.366	4048
3307.119	4126
3308.872	4069
3310.624	4111
3312.376	4051
3314.129	4123
3315.881	4148
3317.631	4149
3319.38	4158
3321.13	4197
3322.88	4077
3324.631	4168
3326.379	4073
3328.126	4107
3329.875	4225
3331.622	4144
3333.371	4187
3335.116	4148
3336.863	4069
3338.609	4136
3340.353	4125
3342.1	4089
3343.845	4173
3345.588	4119
3347.332	4091
3349.074	4095
3350.817	4086
3352.56	4107
3354.303	4078
3356.043	4059
3357.785	4066
3359.525	4062
3361.268	4041
3363.007	4081
3364.745	4061
3366.485	4127
3368.223	4099
3369.962	4064
3371.701	4023
3373.438	3995
3375.174	4064
3376.911	4054
3378.647	4054
3380.384	3992
3382.118	4052
3383.854	4100
3385.588	4044
3387.322	3993
3389.057	4082
3390.79	4054
3392.522	4089
3394.255	4036
3395.987	4021
3397.719	3962
3399.451	4021
3401.181	4141
3402.911	4081
3404.641	4084
3406.371	4037
3408.101	4010
3409.83	4036
3411.558	3937
3413.285	4056
3415.011	4033
3416.739	4037
3418.467	4003
3420.193	4007
3421.919	3957
3423.644	3974
3425.368	3995
3427.094	4117
3428.818	4104
3430.542	3963
3432.264	4027
3433.987	3864
3435.712	3923
3437.434	4056
3439.155	3987
3440.876	3923
3442.596	3836
3444.317	3920
3446.039	3932
3447.757	3939
3449.477	3907
3451.195	3908
3452.914	3952
3454.632	3923
3456.35	3906
3458.067	3894
3459.784	3969
3461.5	3918
3463.216	3929
3464.932	3933
3466.647	3974
3468.362	3863
3470.076	3854
3471.789	3889
3473.505	3914
3475.217	3882
3476.929	3947
3478.641	3858
3480.354	3930
3482.066	3833
3483.777	3892
3485.487	3869
3487.197	3920
3488.908	3878
3490.617	3801
3492.327	3881
3494.035	3885
3495.743	3839
3497.451	3811
3499.158	3795
3500.866	3733
3502.572	3766
3504.278	3796
3505.984	3767
3507.689	3784
3509.396	3821
3511.1	3798
3512.804	3811
3514.508	3804
3516.211	3833
3517.913	3790
3519.616	3758
3521.319	3784
3523.021	3815
3524.722	3743
3526.422	3769
3528.124	3830
3529.824	3837
3531.524	3813
3533.222	3733
3534.921	3801
3536.62	3797
3538.318	3740
3540.016	3793
3541.714	3748
3543.41	3764
3545.107	3780
3546.803	3729
3548.5	3718
3550.194	3732
3551.889	3766
3553.583	3763
3555.279	3749
3556.972	3767
3558.666	3810
3560.358	3716
3562.051	3774
3563.742	3658
3565.435	3724
3567.126	3798
3568.817	3816
3570.507	3698
3572.197	3787
3573.888	3726
3575.577	3738
3577.265	3763
3578.954	3797
3580.642	3740
3582.329	3674
3584.017	3699
3585.704	3730
3587.391	3741
3589.077	3689
3590.762	3688
3592.449	3665
3594.133	3588
3595.817	3683
3597.501	3708
3599.185	3703
3600.869	3658
3602.552	3700
3604.234	3601
3605.916	3797
3607.598	3674
3609.279	3656
3610.961	3754
3612.642	3566
3614.321	3648
3616	3608
3617.68	3615
3619.36	3691
3621.039	3631
3622.716	3664
3624.394	3586
3626.071	3563
3627.748	3706
3629.425	3653
3631.102	3599
3632.778	3517
3634.452	3608
3636.127	3635
3637.803	3520
3639.477	3571
3641.151	3587
3642.823	3547
3644.497	3526
3646.171	3496
3647.842	3593
3649.515	3561
3651.185	3563
3652.857	3585
3654.527	3567
3656.198	3496
3657.868	3601
3659.537	3586
3661.207	3557
3662.875	3490
3664.544	3611
3666.212	3537
3667.879	3500
3669.546	3544
3671.212	3566
3672.88	3565
3674.546	3582
3676.211	3575
3677.875	3508
3679.541	3548
3681.205	3478
3682.87	3471
3684.533	3591
3686.196	3479
3687.859	3501
3689.521	3526
3691.184	3507
3692.845	3419
3694.507	3534
3696.167	3510
3697.827	3490
3699.487	3499
3701.148	3483
3702.808	3606
3704.466	3545
3706.125	3601
3707.783	3531
3709.442	3499
3711.099	3456
3712.757	3571
3714.412	3481
3716.068	3607
3717.725	3541
3719.381	3503
3721.036	3516
3722.689	3465
3724.344	3427
3725.998	3454
3727.652	3445
3729.305	3417
3730.958	3445
3732.61	3420
3734.262	3491
3735.915	3436
3737.565	3504
3739.217	3436
3740.866	3410
3742.516	3481
3744.165	3459
3745.816	3554
3747.464	3476
3749.113	3510
3750.761	3501
3752.409	3414
3754.057	3413
3755.703	3501
3757.35	3430
3758.996	3446
3760.641	3439
3762.289	3434
3763.933	3347
3765.577	3425
3767.222	3464
3768.865	3506
3770.508	3434
3772.152	3478
3773.796	3348
3775.438	3403
3777.079	3464
3778.721	3492
3780.363	3397
3782.003	3352
3783.643	3365
3785.283	3320
3786.923	3490
3788.563	3325
3790.203	3268
3791.841	3325
3793.479	3308
3795.115	3354
3796.753	3425
3798.391	3358
3800.027	3373
3801.664	3364
3803.299	3375
3804.935	3310
3806.571	3332
3808.206	3231
3809.839	3404
3811.473	3380
3813.107	3359
3814.74	3292
3816.375	3337
3818.006	3271
3819.638	3221
3821.27	3324
3822.9	3354
3824.532	3303
3826.163	3378
3827.792	3385
3829.423	3378
3831.051	3294
3832.682	3226
3834.311	3297
3835.938	3279
3837.566	3234
3839.193	3304
3840.821	3310
3842.448	3231
3844.075	3277
3845.7	3270
3847.325	3285
3848.951	3258
3850.576	3292
3852.201	3265
3853.825	3280
3855.448	3236
3857.072	3241
3858.694	3248
3860.318	3256
3861.939	3202
3863.562	3312
3865.183	3233
3866.804	3260
3868.426	3231
3870.045	3251
3871.666	3236
3873.285	3223
3874.904	3196
3876.524	3247
3878.142	3285
3879.76	3180
3881.378	3234
3882.995	3259
3884.612	3213
3886.229	3269
3887.845	3194
3889.461	3158
3891.076	3248
3892.691	3272
3894.307	3208
3895.922	3189
3897.536	3248
3899.149	3227
3900.761	3167
3902.374	3159
3903.988	3193
3905.6	3251
3907.212	3225
3908.822	3195
3910.433	3240
3912.045	3195
3913.655	3223
3915.265	3203
3916.875	3119
3918.483	3181
3920.093	3178
3921.702	3168
3923.309	3194
3924.917	3189
3926.523	3161
3928.13	3132
3929.739	3205
3931.344	3191
3932.95	3227
3934.555	3134
3936.159	3190
3937.766	3210
3939.369	3220
3940.974	3179
3942.577	3208
3944.181	3190
3945.783	3099
3947.386	3176
3948.989	3269
3950.59	3127
3952.191	3202
3953.791	3132
3955.394	3141
3956.994	3162
3958.593	3181
3960.192	3130
3961.791	3072
3963.392	3058
3964.99	3131
3966.588	3128
3968.185	3082
3969.782	3134
3971.379	3185
3972.976	3167
3974.572	3130
3976.168	3148
3977.763	3122
3979.358	2998
3980.954	3071
3982.548	3111
3984.142	3047
3985.736	3023
3987.329	3121
3988.922	3076
3990.516	3032
3992.108	3074
3993.698	3107
3995.29	3076
3996.881	3007
3998.473	3007
4000.064	3094
4001.653	2984
4003.242	3070
4004.832	3038
4006.422	3024
4008.01	3076
4009.598	3066
4011.186	2953
4012.773	2983
4014.36	3032
4015.947	3034
4017.534	2996
4019.119	3067
4020.705	3003
4022.291	3014
4023.876	2998
4025.461	2986
4027.044	2949
4028.627	2986
4030.211	3050
4031.795	2985
4033.378	2942
4034.96	2997
4036.542	2905
4038.124	2965
4039.704	2964
4041.286	2968
4042.867	3012
4044.447	2921
4046.026	2986
4047.606	3004
4049.187	3032
4050.765	2990
4052.343	2996
4053.92	2939
4055.498	2972
4057.076	2942
4058.654	2893
4060.23	2962
4061.806	2951
4063.381	2914
4064.957	2962
4066.533	2950
4068.107	2952
4069.682	2938
4071.256	2958
4072.829	2908
4074.404	2926
4075.977	2931
4077.549	2959
4079.121	2910
4080.693	2899
4082.265	2932
4083.836	2888
4085.407	2941
4086.977	2938
4088.547	2841
4090.117	2908
4091.687	2924
4093.256	2918
4094.825	2868
4096.392	2976
4097.96	2899
4099.528	2933
4101.097	2931
4102.663	2867
4104.229	2912
4105.795	2908
4107.361	2879
4108.928	2887
4110.493	2879
4112.058	2894
4113.621	2936
4115.186	2864
4116.75	2849
4118.313	2874
4119.876	2863
4121.438	2829
4123	2771
4124.562	2851
4126.125	2915
4127.686	2844
4129.246	2864
4130.807	2809
4132.367	2765
4133.927	2797
4135.486	2743
4137.046	2804
4138.604	2897
4140.162	2782
4141.72	2786
4143.279	2788
4144.836	2836
4146.393	2771
4147.949	2833
4149.505	2727
4151.062	2830
4152.617	2750
4154.172	2744
4155.727	2820
4157.281	2804
4158.836	2743
4160.39	2765
4161.943	2684
4163.496	2818
4165.048	2800
4166.601	2754
4168.154	2852
4169.706	2768
4171.257	2720
4172.808	2801
4174.358	2746
4175.909	2719
4177.458	2700
4179.008	2736
4180.558	2721
4182.106	2699
4183.655	2761
4185.204	2687
4186.751	2702
4188.298	2678
4189.845	2677
4191.392	2720
4192.939	2664
4194.485	2700
4196.031	2704
4197.576	2765
4199.121	2710
4200.666	2724
4202.211	2659
4203.754	2700
4205.298	2670
4206.84	2776
4208.384	2704
4209.927	2689
4211.47	2647
4213.011	2701
4214.552	2687
4216.094	2691
4217.635	2660
4219.175	2686
4220.716	2713
4222.255	2677
4223.793	2604
4225.335	2592
4226.873	2604
4228.411	2731
4229.948	2695
4231.486	2687
4233.024	2640
4234.562	2632
4236.098	2732
4237.634	2670
4239.169	2648
4240.705	2641
4242.241	2673
4243.776	2602
4245.31	2609
4246.844	2657
4248.378	2591
4249.911	2667
4251.445	2655
4252.978	2643
4254.51	2675
4256.042	2632
4257.574	2694
4259.107	2640
4260.638	2668
4262.169	2629
4263.699	2633
4265.228	2615
4266.759	2606
4268.289	2630
4269.818	2647
4271.345	2629
4272.874	2607
4274.402	2604
4275.931	2606
4277.458	2667
4278.985	2612
4280.512	2576
4282.037	2628
4283.564	2613
4285.089	2590
4286.615	2616
4288.139	2582
4289.664	2615
4291.187	2605
4292.712	2528
4294.235	2571
4295.759	2584
4297.281	2603
4298.804	2534
4300.327	2634
4301.849	2566
4303.37	2573
4304.891	2559
4306.412	2587
4307.933	2551
4309.453	2520
4310.973	2519
4312.492	2482
