398.1873	3404
400.7097	3424
403.2336	3387
405.7547	3359
408.2751	3435
410.7948	3427
413.3138	3496
415.83	3526
418.3497	3504
420.8666	3592
423.3829	3636
425.8985	3573
428.4133	3596
430.9275	3546
433.441	3577
435.9538	3640
438.4639	3732
440.9753	3658
443.4881	3572
445.9982	3597
448.5055	3610
451.0142	3668
453.5201	3597
456.0274	3632
458.5361	3607
461.04	3733
463.5453	3631
466.0478	3708
468.5517	3682
471.0549	3637
473.5574	3664
476.0572	3654
478.5584	3745
481.0568	3792
483.5545	3685
486.0557	3654
488.5521	3646
491.0478	3683
493.5449	3766
496.0392	3744
498.5349	3795
501.0299	3771
503.5222	3727
506.0139	3744
508.5048	3829
510.9991	3781
513.4887	3823
515.9777	3764
518.4659	3741
520.9534	3840
523.4403	3773
525.9306	3810
528.4161	3810
530.9009	3859
533.3851	3781
535.8687	3869
538.3535	3783
540.8356	3821
543.3171	3780
545.7979	3860
548.278	3736
550.7595	3771
553.2383	3801
555.7144	3831
558.1918	3808
560.6685	3778
563.1446	3817
565.6221	3831
568.0968	3811
570.5688	3840
573.0422	3832
575.515	3968
577.989	3992
580.4584	3926
582.9291	3905
585.3991	3951
587.8685	3875
590.3352	3900
592.8052	3894
595.2706	3960
597.7372	3909
600.2033	3873
602.6666	3908
605.1334	3903
607.5953	3837
610.0587	3896
612.5193	3871
614.9814	3891
617.4427	3984
619.9034	3917
622.3615	3907
624.8208	3882
627.2775	3818
629.7335	3916
632.1929	3842
634.6476	3880
637.1016	3736
639.5569	3933
642.0096	3909
644.4637	3981
646.9151	3939
649.3678	4019
651.8179	3999
654.2672	3942
656.7159	3944
659.166	3889
661.6154	3913
664.0622	3938
666.5082	4080
668.9537	3978
671.4005	3984
673.8445	4014
676.288	4068
678.7308	4043
681.1729	4078
683.6163	4052
686.0572	4101
688.4973	3987
690.9368	4104
693.3757	4027
695.8138	4052
698.2534	4055
700.6902	4069
703.1245	4047
705.56	4069
707.9949	4013
710.4311	4111
712.8647	4012
715.2957	4016
717.7279	4182
720.1595	4130
722.5905	4086
725.0208	4169
727.4505	4125
729.8795	4165
732.3058	4222
734.7336	4256
737.1626	4154
739.587	4271
742.0128	4202
744.4359	4229
746.8604	4242
749.2841	4297
751.7073	4264
754.1278	4300
756.5496	4255
758.9688	4295
761.3893	4271
763.8093	4236
766.2285	4324
768.6451	4310
771.0611	4264
773.4784	4325
775.895	4405
778.3091	4371
780.7244	4274
783.1371	4257
785.5493	4256
787.9626	4285
790.3754	4344
792.7856	4232
795.1951	4383
797.6039	4339
800.0121	4305
802.4236	4372
804.8306	4252
807.2369	4319
809.6425	4457
812.0475	4396
814.4538	4416
816.8575	4413
819.2606	4414
821.663	4426
824.0648	4418
826.4659	4391
828.8683	4380
831.2682	4350
833.6674	4366
836.066	4397
838.4639	4440
840.8632	4296
843.2579	4368
845.6539	4367
848.0493	4447
850.444	4415
852.84	4429
855.2315	4463
857.6243	4462
860.0165	4497
862.4081	4505
864.797	4469
867.1892	4375
869.5789	4421
871.9659	4505
874.3542	4419
876.74	4485
879.129	4414
881.5155	4412
883.8994	4406
886.2845	4425
888.6671	4435
891.051	4538
893.4343	4406
895.8169	4386
898.197	4416
900.5783	4456
902.9571	4514
905.3372	4510
907.7167	4549
910.0936	4563
912.4698	4552
914.8474	4598
917.2244	4506
919.5987	4587
921.9744	4621
924.3475	4548
926.72	4595
929.0918	4558
931.4669	4651
933.8375	4687
936.2074	4653
938.5767	4711
940.9454	4706
943.3154	4741
945.6829	4884
948.0497	4948
950.4178	5019
952.7833	5181
955.1483	5364
957.5145	5537
959.8782	5494
962.2412	5492
964.6036	5333
966.9655	5270
969.3266	5126
971.6871	4999
974.0471	4898
976.4064	4786
978.765	4632
981.125	4669
983.4824	4648
985.8373	4635
988.1935	4675
990.549	4594
992.9039	4568
995.2602	4572
997.6119	4542
999.965	4654
1002.317	4673
1004.667	4670
1007.02	4559
1009.371	4675
1011.719	4642
1014.068	4794
1016.415	4655
1018.765	4625
1021.111	4629
1023.458	4657
1025.804	4575
1028.147	4734
1030.49	4722
1032.837	4683
1035.179	4688
1037.522	4694
1039.862	4682
1042.204	4722
1044.546	4648
1046.884	4741
1049.224	4665
1051.562	4687
1053.899	4745
1056.237	4601
1058.575	4681
1060.91	4746
1063.244	4772
1065.58	4746
1067.913	4805
1070.248	4949
1072.579	4836
1074.911	4869
1077.242	4777
1079.572	4724
1081.905	4783
1084.234	4759
1086.562	4681
1088.89	4725
1091.217	4806
1093.544	4786
1095.871	4755
1098.197	4722
1100.521	4798
1102.845	4773
1105.169	4834
1107.491	4718
1109.814	4733
1112.135	4694
1114.456	4806
1116.776	4794
1119.096	4732
1121.415	4705
1123.734	4689
1126.052	4717
1128.369	4824
1130.686	4752
1133.002	4821
1135.318	4823
1137.632	4793
1139.945	4729
1142.258	4730
1144.573	4795
1146.884	4741
1149.196	4824
1151.505	4734
1153.816	4777
1156.124	4712
1158.435	4800
1160.742	4800
1163.051	4700
1165.356	4803
1167.663	4794
1169.97	4816
1172.276	4783
1174.579	4743
1176.881	4738
1179.186	4781
1181.487	4855
1183.79	4765
1186.092	4802
1188.392	4864
1190.691	4764
1192.991	4854
1195.291	4825
1197.588	4764
1199.885	4776
1202.181	4774
1204.479	4859
1206.775	4811
1209.07	4791
1211.363	4764
1213.656	4809
1215.949	4802
1218.241	4816
1220.534	4825
1222.825	4740
1225.115	4831
1227.405	4861
1229.693	4913
1231.984	4954
1234.271	4978
1236.558	4920
1238.845	4857
1241.131	4881
1243.416	4909
1245.703	4858
1247.987	4973
1250.269	4941
1252.552	4852
1254.834	5028
1257.118	4846
1259.399	4883
1261.678	4951
1263.958	4905
1266.237	4943
1268.516	4948
1270.794	4909
1273.072	4942
1275.347	4970
1277.624	5010
1279.899	4921
1282.175	4939
1284.449	4944
1286.722	4935
1288.995	4946
1291.266	4959
1293.54	4953
1295.81	4884
1298.081	4970
1300.35	4895
1302.62	4874
1304.889	4929
1307.156	4900
1309.425	4822
1311.69	4868
1313.957	4897
1316.222	4895
1318.488	5035
1320.751	4941
1323.016	4830
1325.278	4949
1327.54	4937
1329.803	4871
1332.065	4842
1334.325	4936
1336.584	4943
1338.843	4924
1341.101	4942
1343.36	4944
1345.617	4953
1347.876	4944
1350.131	4964
1352.387	4915
1354.643	4912
1356.897	4940
1359.151	5042
1361.403	4851
1363.656	4944
1365.909	4852
1368.16	4925
1370.409	5055
1372.659	5061
1374.909	4988
1377.157	5041
1379.407	4923
1381.655	4931
1383.9	5012
1386.147	5022
1388.393	4898
1390.64	4951
1392.885	5076
1395.127	4945
1397.37	4990
1399.614	4945
1401.854	5007
1404.098	5013
1406.339	5071
1408.578	5065
1410.818	4995
1413.056	5066
1415.297	5045
1417.533	5061
1419.771	5001
1422.006	5012
1424.243	5042
1426.479	5085
1428.715	5054
1430.948	4984
1433.182	5120
1435.414	5094
1437.647	5128
1439.88	5192
1442.11	5143
1444.342	5177
1446.571	5208
1448.799	5012
1451.029	5101
1453.258	5154
1455.485	5168
1457.711	5179
1459.937	5105
1462.164	5225
1464.39	5152
1466.614	5129
1468.838	5119
1471.06	5082
1473.283	5092
1475.506	5032
1477.727	4982
1479.949	5076
1482.169	5098
1484.389	5101
1486.609	5079
1488.828	4925
1491.045	4981
1493.261	4977
1495.477	5042
1497.693	5011
1499.91	5083
1502.125	4984
1504.339	4993
1506.553	4964
1508.766	4979
1510.979	5119
1513.191	5034
1515.402	5038
1517.613	4962
1519.823	4929
1522.033	4936
1524.242	5075
1526.451	5052
1528.657	4981
1530.865	5033
1533.072	5073
1535.278	5025
1537.484	4954
1539.687	5085
1541.892	5025
1544.096	5058
1546.299	5024
1548.502	5058
1550.703	5148
1552.905	5160
1555.104	4969
1557.303	5126
1559.505	5060
1561.703	5029
1563.902	5026
1566.099	5113
1568.295	5115
1570.494	5112
1572.689	5100
1574.883	5089
1577.079	5112
1579.272	5173
1581.467	5087
1583.659	5119
1585.853	5153
1588.044	5174
1590.234	5125
1592.424	5112
1594.615	5262
1596.806	5222
1598.994	5116
1601.182	5280
1603.369	5283
1605.557	5189
1607.744	5143
1609.929	5214
1612.114	5179
1614.298	5045
1616.482	5198
1618.667	5242
1620.85	5188
1623.032	5195
1625.214	5213
1627.395	5157
1629.575	5233
1631.755	5224
1633.935	5182
1636.114	5171
1638.292	5270
1640.471	5276
1642.647	5201
1644.823	5277
1647	5314
1649.175	5264
1651.348	5289
1653.525	5253
1655.698	5269
1657.87	5229
1660.043	5234
1662.213	5337
1664.387	5257
1666.558	5271
1668.727	5217
1670.896	5229
1673.064	5315
1675.233	5312
1677.401	5312
1679.569	5228
1681.735	5333
1683.902	5362
1686.066	5391
1688.233	5294
1690.397	5256
1692.559	5244
1694.723	5287
1696.885	5215
1699.048	5324
1701.21	5254
1703.37	5224
1705.53	5237
1707.689	5179
1709.849	5204
1712.009	5241
1714.166	5184
1716.323	5347
1718.479	5125
1720.634	5242
1722.793	5147
1724.948	5158
1727.102	5257
1729.255	5210
1731.408	5134
1733.562	5273
1735.714	5212
1737.865	5232
1740.016	5282
1742.166	5350
1744.316	5295
1746.467	5278
1748.616	5053
1750.764	5253
1752.911	5238
1755.056	5308
1757.205	5232
1759.35	5234
1761.496	5206
1763.641	5257
1765.785	5330
1767.927	5310
1770.072	5246
1772.214	5253
1774.355	5355
1776.496	5234
1778.637	5306
1780.778	5267
1782.918	5261
1785.057	5284
1787.194	5158
1789.333	5262
1791.472	5357
1793.608	5237
1795.745	5381
1797.879	5340
1800.015	5306
1802.148	5328
1804.284	5365
1806.417	5274
1808.548	5220
1810.682	5341
1812.812	5273
1814.946	5227
1817.075	5276
1819.205	5303
1821.335	5344
1823.463	5272
1825.59	5307
1827.721	5279
1829.847	5279
1831.973	5322
1834.098	5165
1836.223	5224
1838.351	5176
1840.475	5218
1842.598	5286
1844.721	5215
1846.843	5369
1848.966	5346
1851.087	5288
1853.21	5280
1855.33	5200
1857.449	5340
1859.568	5305
1861.688	5193
1863.806	5280
1865.924	5298
1868.039	5226
1870.155	5305
1872.273	5234
1874.388	5256
1876.503	5228
1878.617	5248
1880.73	5320
1882.844	5408
1884.956	5267
1887.068	5384
1889.18	5170
1891.291	5365
1893.4	5332
1895.511	5326
1897.621	5335
1899.73	5402
1901.837	5301
1903.944	5362
1906.053	5328
1908.159	5377
1910.265	5403
1912.369	5377
1914.474	5401
1916.577	5305
1918.683	5358
1920.785	5400
1922.888	5400
1924.989	5401
1927.091	5459
1929.193	5402
1931.294	5411
1933.393	5423
1935.493	5364
1937.59	5354
1939.689	5362
1941.788	5451
1943.884	5368
1945.98	5427
1948.077	5344
1950.171	5300
1952.267	5396
1954.361	5339
1956.455	5357
1958.548	5389
1960.64	5410
1962.733	5490
1964.824	5398
1966.915	5405
1969.005	5413
1971.096	5318
1973.185	5393
1975.275	5310
1977.363	5462
1979.45	5414
1981.537	5394
1983.623	5381
1985.711	5364
1987.796	5237
1989.881	5323
1991.965	5384
1994.047	5284
1996.132	5374
1998.215	5377
2000.297	5463
2002.378	5309
2004.46	5344
2006.54	5346
2008.62	5381
2010.7	5248
2012.779	5263
2014.858	5325
2016.934	5335
2019.013	5274
2021.09	5249
2023.165	5370
2025.241	5412
2027.317	5167
2029.39	5320
2031.466	5276
2033.538	5427
2035.612	5401
2037.683	5398
2039.755	5249
2041.827	5340
2043.898	5337
2045.968	5428
2048.038	5338
2050.106	5316
2052.177	5339
2054.244	5422
2056.313	5416
2058.379	5436
2060.444	5379
2062.511	5364
2064.577	5319
2066.641	5445
2068.705	5409
2070.77	5312
2072.832	5391
2074.896	5320
2076.958	5400
2079.02	5383
2081.081	5343
2083.141	5548
2085.2	5460
2087.261	5410
2089.319	5380
2091.377	5461
2093.435	5384
2095.492	5414
2097.552	5456
2099.607	5402
2101.663	5337
2103.718	5328
2105.771	5345
2107.826	5525
2109.879	5413
2111.932	5333
2113.985	5438
2116.037	5461
2118.088	5364
2120.141	5284
2122.191	5316
2124.239	5445
2126.288	5406
2128.337	5418
2130.387	5358
2132.434	5381
2134.481	5350
2136.528	5409
2138.574	5474
2140.618	5375
2142.665	5419
2144.71	5311
2146.753	5391
2148.797	5385
2150.838	5350
2152.883	5391
2154.923	5357
2156.965	5382
2159.007	5315
2161.046	5296
2163.086	5439
2165.126	5396
2167.163	5370
2169.202	5295
2171.239	5393
2173.277	5503
2175.314	5308
2177.349	5239
2179.385	5393
2181.42	5356
2183.453	5378
2185.49	5287
2187.522	5294
2189.555	5266
2191.586	5416
2193.619	5330
2195.651	5368
2197.682	5257
2199.711	5259
2201.74	5313
2203.769	5313
2205.799	5156
2207.828	5311
2209.855	5292
2211.882	5189
2213.908	5244
2215.934	5373
2217.961	5209
2219.986	5264
2222.01	5240
2224.034	5383
2226.057	5352
2228.08	5277
2230.104	5314
2232.124	5363
2234.145	5207
2236.166	5201
2238.186	5208
2240.207	5377
2242.227	5266
2244.244	5291
2246.262	5294
2248.28	5293
2250.299	5225
2252.314	5316
2254.33	5286
2256.346	5297
2258.36	5259
2260.375	5254
2262.391	5347
2264.403	5294
2266.416	5343
2268.427	5224
2270.44	5310
2272.453	5258
2274.463	5305
2276.474	5324
2278.483	5331
2280.493	5248
2282.501	5289
2284.51	5360
2286.518	5317
2288.524	5299
2290.532	5314
2292.537	5182
2294.544	5303
2296.55	5343
2298.554	5226
2300.557	5309
2302.562	5232
2304.566	5265
2306.568	5352
2308.569	5232
2310.572	5290
2312.573	5246
2314.573	5319
2316.574	5207
2318.573	5342
2320.571	5283
2322.571	5292
2324.569	5195
2326.567	5213
2328.564	5257
2330.56	5180
2332.556	5234
2334.551	5230
2336.546	5263
2338.542	5204
2340.535	5332
2342.529	5163
2344.521	5250
2346.512	5183
2348.505	5204
2350.497	5218
2352.487	5212
2354.478	5201
2356.468	5122
2358.457	5258
2360.446	5282
2362.434	5239
2364.422	5093
2366.408	5176
2368.395	5147
2370.383	5316
2372.369	5231
2374.353	5241
2376.338	5250
2378.321	5300
2380.307	5172
2382.29	5189
2384.272	5205
2386.254	5081
2388.235	5208
2390.218	5235
2392.198	5074
2394.179	5304
2396.157	5059
2398.137	5198
2400.115	5251
2402.095	5248
2404.072	5081
2406.048	5239
2408.026	5269
2410.001	5217
2411.977	5170
2413.953	5142
2415.927	5207
2417.9	5169
2419.875	5206
2421.847	5143
2423.821	5239
2425.792	5156
2427.763	5180
2429.736	5201
2431.706	5107
2433.677	5074
2435.646	5121
2437.615	5187
2439.583	5255
2441.551	5203
2443.519	5200
2445.486	5190
2447.452	5089
2449.418	5074
2451.383	5059
2453.348	5083
2455.314	5165
2457.278	5168
2459.241	5181
2461.205	5105
2463.167	5134
2465.131	5085
2467.091	5150
2469.052	5155
2471.012	5054
2472.972	5046
2474.932	5192
2476.891	4982
2478.85	5195
2480.808	5067
2482.766	5229
2484.722	5169
2486.68	5108
2488.636	5222
2490.591	5215
2492.546	5242
2494.5	5050
2496.456	5183
2498.41	5240
2500.362	5128
2502.315	5066
2504.266	5000
2506.218	5107
2508.169	5151
2510.121	5078
2512.07	5115
2514.019	5103
2515.968	5157
2517.918	5132
2519.866	5078
2521.813	5138
2523.76	5138
2525.707	5157
2527.653	5093
2529.599	5222
2531.543	5104
2533.489	5142
2535.433	5092
2537.376	5055
2539.32	5069
2541.264	5086
2543.205	5039
2545.147	5083
2547.087	5205
2549.029	5212
2550.969	5026
2552.908	5181
2554.847	5122
2556.786	5140
2558.724	5117
2560.663	5093
2562.6	5158
2564.537	5145
2566.473	5118
2568.408	5147
2570.345	5161
2572.28	5127
2574.214	5121
2576.148	5085
2578.081	5140
2580.014	4985
2581.947	5068
2583.879	5078
2585.81	5088
2587.741	5075
2589.67	5185
2591.602	5135
2593.532	5203
2595.461	5060
2597.388	5136
2599.316	5069
2601.244	5160
2603.172	5187
2605.098	5141
2607.023	5027
2608.949	5091
2610.873	5048
2612.8	5198
2614.723	5039
2616.647	5227
2618.569	5216
2620.493	5207
2622.416	5043
2624.338	5123
2626.258	5141
2628.179	5167
2630.099	5172
2632.019	5163
2633.939	5105
2635.857	5130
2637.775	5170
2639.694	5069
2641.61	5177
2643.528	5084
2645.444	5155
2647.361	5209
2649.276	5210
2651.19	5208
2653.105	5134
2655.019	5137
2656.934	5156
2658.846	5089
2660.758	5059
2662.67	5090
2664.583	5208
2666.493	5096
2668.404	5105
2670.313	5162
2672.223	5102
2674.134	5245
2676.042	5127
2677.95	5159
2679.858	5077
2681.765	5126
2683.673	5069
2685.579	5109
2687.483	5079
2689.389	5059
2691.294	5033
2693.198	5165
2695.104	5150
2697.006	5077
2698.909	5064
2700.811	5040
2702.713	5046
2704.615	5096
2706.516	5131
2708.417	5083
2710.316	5061
2712.216	4996
2714.115	5019
2716.014	5068
2717.913	5140
2719.81	5070
2721.707	5051
2723.603	5163
2725.501	5024
2727.396	5042
2729.292	5057
2731.186	5051
2733.081	5069
2734.976	5129
2736.87	5127
2738.762	5029
2740.653	5063
2742.546	5040
2744.437	4988
2746.329	5029
2748.22	4995
2750.11	5111
2751.999	5019
2753.889	4984
2755.778	5116
2757.666	5082
2759.553	5078
2761.44	5007
2763.328	5031
2765.215	5165
2767.101	5058
2768.986	5036
2770.87	5062
2772.754	5026
2774.638	5021
2776.523	4992
2778.405	5015
2780.288	4916
2782.17	5074
2784.051	5021
2785.934	4949
2787.814	4950
2789.694	5120
2791.574	4923
2793.453	4874
2795.332	5021
2797.212	5036
2799.088	5058
2800.966	5096
2802.843	5010
2804.719	4962
2806.597	4993
2808.471	5080
2810.346	5086
2812.221	4892
2814.094	4932
2815.969	4960
2817.843	4966
2819.714	5072
2821.587	4964
2823.459	5057
2825.329	5012
2827.202	4909
2829.072	5021
2830.942	4977
2832.811	5020
2834.68	5093
2836.549	4975
2838.418	4879
2840.284	5009
2842.152	5056
2844.018	5001
2845.885	5061
2847.751	4957
2849.616	5054
2851.482	5130
2853.345	4985
2855.208	5084
2857.074	4972
2858.937	4944
2860.799	5045
2862.66	5090
2864.522	5031
2866.385	5118
2868.245	5152
2870.104	5193
2871.964	5129
2873.824	5264
2875.683	5229
2877.542	5197
2879.4	5206
2881.257	5198
2883.114	5143
2884.97	5242
2886.827	5177
2888.683	5314
2890.537	5256
2892.392	5325
2894.246	5269
2896.1	5179
2897.954	5275
2899.807	5314
2901.66	5301
2903.51	5178
2905.362	5275
2907.214	5284
2909.065	5271
2910.915	5252
2912.765	5205
2914.613	5233
2916.463	5283
2918.311	5330
2920.158	5370
2922.006	5335
2923.853	5442
2925.698	5386
2927.546	5460
2929.392	5460
2931.236	5588
2933.081	5470
2934.924	5526
2936.77	5514
2938.613	5576
2940.455	5589
2942.298	5590
2944.139	5552
2945.982	5668
2947.823	5506
2949.662	5516
2951.503	5557
2953.342	5605
2955.182	5486
2957.021	5494
2958.858	5491
2960.697	5387
2962.534	5441
2964.37	5442
2966.207	5450
2968.044	5317
2969.879	5283
2971.714	5298
2973.548	5270
2975.383	5304
2977.218	5230
2979.051	5335
2980.883	5275
2982.715	5260
2984.547	5303
2986.379	5135
2988.21	5224
2990.04	5227
2991.87	5197
2993.7	5213
2995.53	5091
2997.359	5134
2999.187	5066
3001.015	5061
3002.842	5045
3004.669	5078
3006.497	5001
3008.323	4983
3010.148	4990
3011.974	4894
3013.797	4886
3015.623	4959
3017.447	4914
3019.27	4893
3021.094	4893
3022.915	4816
3024.737	4912
3026.56	4834
3028.38	4913
3030.201	4758
3032.022	4873
3033.84	4885
3035.662	4796
3037.481	4799
3039.298	4762
3041.117	4865
3042.933	4795
3044.752	4790
3046.568	4737
3048.385	4733
3050.2	4759
3052.016	4939
3053.83	4660
3055.646	4857
3057.46	4756
3059.272	4814
3061.086	4794
3062.898	4766
3064.711	4738
3066.524	4840
3068.335	4789
3070.145	4871
3071.956	4699
3073.766	4772
3075.576	4771
3077.385	4812
3079.193	4838
3081.002	4658
3082.81	4680
3084.618	4712
3086.425	4747
3088.231	4875
3090.036	4650
3091.842	4699
3093.648	4645
3095.452	4730
3097.257	4586
3099.06	4644
3100.863	4707
3102.666	4658
3104.47	4690
3106.272	4647
3108.073	4788
3109.875	4628
3111.676	4685
3113.477	4675
3115.277	4613
3117.077	4675
3118.874	4663
3120.673	4598
3122.473	4635
3124.271	4607
3126.066	4638
3127.863	4606
3129.66	4575
3131.456	4589
3133.252	4588
3135.047	4537
3136.842	4611
3138.635	4595
3140.429	4692
3142.223	4572
3144.016	4575
3145.808	4588
3147.6	4599
3149.392	4529
3151.183	4607
3152.975	4522
3154.765	4550
3156.553	4572
3158.344	4637
3160.132	4473
3161.922	4626
3163.71	4578
3165.497	4600
3167.285	4468
3169.071	4576
3170.858	4598
3172.645	4546
3174.429	4590
3176.214	4497
3177.998	4494
3179.783	4508
3181.568	4594
3183.351	4454
3185.133	4535
3186.915	4661
3188.698	4526
3190.481	4482
3192.261	4536
3194.042	4537
3195.822	4549
3197.601	4417
3199.381	4466
3201.161	4510
3202.939	4581
3204.717	4514
3206.495	4550
3208.272	4498
3210.05	4472
3211.826	4603
3213.602	4468
3215.376	4525
3217.151	4498
3218.927	4437
3220.702	4368
3222.476	4458
3224.249	4467
3226.021	4492
3227.793	4441
3229.567	4485
3231.339	4502
3233.109	4530
3234.88	4528
3236.651	4431
3238.421	4463
3240.191	4441
3241.96	4519
3243.728	4530
3245.497	4524
3247.263	4502
3249.033	4434
3250.799	4507
3252.566	4440
3254.331	4480
3256.097	4495
3257.863	4454
3259.628	4467
3261.392	4540
3263.156	4466
3264.919	4492
3266.683	4496
3268.447	4562
3270.208	4494
3271.969	4434
3273.731	4451
3275.492	4503
3277.253	4522
3279.013	4458
3280.773	4456
3282.532	4465
3284.291	4447
3286.05	4306
3287.808	4431
3289.566	4555
3291.323	4500
3293.079	4403
3294.835	4396
3296.593	4453
3298.348	4430
3300.102	4455
3301.857	4491
3303.611	4492
3305.366	4377
3307.119	4440
3308.872	4478
3310.624	4442
3312.376	4566
3314.129	4440
3315.881	4436
3317.631	4469
3319.38	4476
3321.13	4448
3322.88	4423
3324.631	4470
3326.379	4393
3328.126	4469
3329.875	4376
3331.622	4470
3333.371	4517
3335.116	4421
3336.863	4416
3338.609	4452
3340.353	4543
3342.1	4513
3343.845	4353
3345.588	4312
3347.332	4411
3349.074	4428
3350.817	4377
3352.56	4455
3354.303	4378
3356.043	4404
3357.785	4425
3359.525	4401
3361.268	4370
3363.007	4478
3364.745	4310
3366.485	4413
3368.223	4440
3369.962	4299
3371.701	4462
3373.438	4376
3375.174	4437
3376.911	4404
3378.647	4415
3380.384	4429
3382.118	4394
3383.854	4351
3385.588	4260
3387.322	4337
3389.057	4366
3390.79	4299
3392.522	4396
3394.255	4338
3395.987	4264
3397.719	4353
3399.451	4343
3401.181	4296
3402.911	4297
3404.641	4302
3406.371	4350
3408.101	4208
3409.83	4390
3411.558	4370
3413.285	4342
3415.011	4297
3416.739	4208
3418.467	4295
3420.193	4258
3421.919	4329
3423.644	4237
3425.368	4265
3427.094	4251
3428.818	4325
3430.542	4297
3432.264	4306
3433.987	4355
3435.712	4237
3437.434	4192
3439.155	4298
3440.876	4261
3442.596	4304
3444.317	4238
3446.039	4242
3447.757	4254
3449.477	4140
3451.195	4210
3452.914	4186
3454.632	4180
3456.35	4157
3458.067	4230
3459.784	4308
3461.5	4215
3463.216	4268
3464.932	4229
3466.647	4129
3468.362	4229
3470.076	4138
3471.789	4134
3473.505	4132
3475.217	4175
3476.929	4258
3478.641	4162
3480.354	4179
3482.066	4223
3483.777	4140
3485.487	4118
3487.197	4200
3488.908	4127
3490.617	4135
3492.327	4130
3494.035	4159
3495.743	4067
3497.451	4120
3499.158	4035
3500.866	4058
3502.572	4028
3504.278	4080
3505.984	4103
3507.689	4104
3509.396	4104
3511.1	4081
3512.804	4030
3514.508	4038
3516.211	4062
3517.913	4112
3519.616	4158
3521.319	4043
3523.021	4151
3524.722	4071
3526.422	4057
3528.124	4171
3529.824	4002
3531.524	4100
3533.222	4101
3534.921	4019
3536.62	4061
3538.318	4036
3540.016	4070
3541.714	4065
3543.41	3999
3545.107	4045
3546.803	3987
3548.5	4058
3550.194	4105
3551.889	4024
3553.583	4004
3555.279	4024
3556.972	4027
3558.666	4040
3560.358	3985
3562.051	3991
3563.742	4029
3565.435	3970
3567.126	3919
3568.817	3911
3570.507	4005
3572.197	4025
3573.888	4004
3575.577	4057
3577.265	3968
3578.954	3952
3580.642	3978
3582.329	3948
3584.017	3883
3585.704	3902
3587.391	3852
3589.077	3885
3590.762	3994
3592.449	3895
3594.133	3955
3595.817	3911
3597.501	4007
3599.185	3864
3600.869	3845
3602.552	3878
3604.234	3860
3605.916	3865
3607.598	3870
3609.279	3925
3610.961	3880
3612.642	3921
3614.321	3895
3616	3942
3617.68	3738
3619.36	3857
3621.039	3860
3622.716	3922
3624.394	3888
3626.071	3705
3627.748	3865
3629.425	3850
3631.102	3884
3632.778	3849
3634.452	3810
3636.127	3875
3637.803	3835
3639.477	3862
3641.151	3816
3642.823	3781
3644.497	3843
3646.171	3853
3647.842	3865
3649.515	3889
3651.185	3799
3652.857	3745
3654.527	3895
3656.198	3704
3657.868	3827
3659.537	3764
3661.207	3815
3662.875	3789
3664.544	3782
3666.212	3747
3667.879	3815
3669.546	3788
3671.212	3772
3672.88	3761
3674.546	3788
3676.211	3819
3677.875	3809
3679.541	3809
3681.205	3698
3682.87	3718
3684.533	3808
3686.196	3727
3687.859	3748
3689.521	3741
3691.184	3769
3692.845	3683
3694.507	3709
3696.167	3793
3697.827	3740
3699.487	3653
3701.148	3713
3702.808	3716
3704.466	3720
3706.125	3722
3707.783	3654
3709.442	3734
3711.099	3704
3712.757	3715
3714.412	3645
3716.068	3728
3717.725	3643
3719.381	3698
3721.036	3668
3722.689	3683
3724.344	3713
3725.998	3681
3727.652	3715
3729.305	3647
3730.958	3646
3732.61	3645
3734.262	3610
3735.915	3710
3737.565	3698
3739.217	3727
3740.866	3669
3742.516	3675
3744.165	3649
3745.816	3599
3747.464	3606
3749.113	3556
3750.761	3734
3752.409	3678
3754.057	3654
3755.703	3633
3757.35	3650
3758.996	3630
3760.641	3582
3762.289	3593
3763.933	3571
3765.577	3661
3767.222	3659
3768.865	3598
3770.508	3657
3772.152	3626
3773.796	3538
3775.438	3742
3777.079	3647
3778.721	3556
3780.363	3620
3782.003	3464
3783.643	3610
3785.283	3572
3786.923	3598
3788.563	3604
3790.203	3570
3791.841	3467
3793.479	3511
3795.115	3531
3796.753	3569
3798.391	3626
3800.027	3508
3801.664	3550
3803.299	3536
3804.935	3560
3806.571	3599
3808.206	3472
3809.839	3497
3811.473	3419
3813.107	3478
3814.74	3507
3816.375	3519
3818.006	3439
3819.638	3533
3821.27	3549
3822.9	3514
3824.532	3469
3826.163	3514
3827.792	3580
3829.423	3541
3831.051	3479
3832.682	3544
3834.311	3484
3835.938	3439
3837.566	3442
3839.193	3478
3840.821	3414
3842.448	3450
3844.075	3481
3845.7	3464
3847.325	3440
3848.951	3379
3850.576	3482
3852.201	3408
3853.825	3525
3855.448	3489
3857.072	3454
3858.694	3480
3860.318	3483
3861.939	3420
3863.562	3459
3865.183	3459
3866.804	3460
3868.426	3409
3870.045	3466
3871.666	3459
3873.285	3459
3874.904	3390
3876.524	3446
3878.142	3414
3879.76	3505
3881.378	3448
3882.995	3452
3884.612	3398
3886.229	3423
3887.845	3425
3889.461	3418
3891.076	3376
3892.691	3364
3894.307	3387
3895.922	3315
3897.536	3321
3899.149	3426
3900.761	3383
3902.374	3384
3903.988	3395
3905.6	3376
3907.212	3391
3908.822	3424
3910.433	3371
3912.045	3339
3913.655	3391
3915.265	3416
3916.875	3332
3918.483	3373
3920.093	3343
3921.702	3407
3923.309	3338
3924.917	3417
3926.523	3414
3928.13	3362
3929.739	3332
3931.344	3364
3932.95	3305
3934.555	3264
3936.159	3294
3937.766	3340
3939.369	3288
3940.974	3235
3942.577	3287
3944.181	3352
3945.783	3391
3947.386	3323
3948.989	3326
3950.59	3335
3952.191	3352
3953.791	3341
3955.394	3288
3956.994	3311
3958.593	3372
3960.192	3401
3961.791	3343
3963.392	3343
3964.99	3418
3966.588	3286
3968.185	3207
3969.782	3287
3971.379	3281
3972.976	3228
3974.572	3405
3976.168	3281
3977.763	3278
3979.358	3318
3980.954	3373
3982.548	3288
3984.142	3262
3985.736	3278
3987.329	3224
3988.922	3286
3990.516	3160
3992.108	3306
3993.698	3240
3995.29	3222
3996.881	3168
3998.473	3136
4000.064	3280
4001.653	3287
4003.242	3283
4004.832	3173
4006.422	3209
4008.01	3172
4009.598	3237
4011.186	3179
4012.773	3233
4014.36	3285
4015.947	3158
4017.534	3228
4019.119	3143
4020.705	3212
4022.291	3142
4023.876	3144
4025.461	3159
4027.044	3179
4028.627	3189
4030.211	3211
4031.795	3254
4033.378	3141
4034.96	3220
4036.542	3153
4038.124	3114
4039.704	3150
4041.286	3164
4042.867	3152
4044.447	3118
4046.026	3135
4047.606	3110
4049.187	3127
4050.765	3097
4052.343	3126
4053.92	3182
4055.498	3167
4057.076	3053
4058.654	3145
4060.23	3060
4061.806	3171
4063.381	3057
4064.957	3094
4066.533	3075
4068.107	3001
4069.682	3152
4071.256	3052
4072.829	3025
4074.404	3099
4075.977	3088
4077.549	3118
4079.121	3145
4080.693	3046
4082.265	3102
4083.836	3080
4085.407	3185
4086.977	3062
4088.547	3108
4090.117	3097
4091.687	3138
4093.256	3098
4094.825	3082
4096.392	3049
4097.96	2962
4099.528	3053
4101.097	3072
4102.663	3040
4104.229	3030
4105.795	3061
4107.361	3070
4108.928	3095
4110.493	3076
4112.058	3031
4113.621	3024
4115.186	3020
4116.75	3028
4118.313	3080
4119.876	3023
4121.438	3069
4123	3012
4124.562	3023
4126.125	2901
4127.686	2987
4129.246	2999
4130.807	2999
4132.367	3035
4133.927	3038
4135.486	3053
4137.046	3035
4138.604	2975
4140.162	2971
4141.72	2919
4143.279	2967
4144.836	2935
4146.393	2987
4147.949	2978
4149.505	2937
4151.062	3053
4152.617	2912
4154.172	2952
4155.727	2941
4157.281	2945
4158.836	2939
4160.39	2921
4161.943	2932
4163.496	2894
4165.048	2911
4166.601	2938
4168.154	2881
4169.706	2988
4171.257	2921
4172.808	2942
4174.358	2916
4175.909	2881
4177.458	2886
4179.008	2944
4180.558	2917
4182.106	2860
4183.655	2761
4185.204	2882
4186.751	2870
4188.298	2916
4189.845	2890
4191.392	2901
4192.939	2874
4194.485	2930
4196.031	2846
4197.576	2883
4199.121	2898
4200.666	2849
4202.211	2826
4203.754	2891
4205.298	2843
4206.84	2896
4208.384	2900
4209.927	2851
4211.47	2836
4213.011	2880
4214.552	2802
4216.094	2752
4217.635	2841
4219.175	2884
4220.716	2850
4222.255	2847
4223.793	2868
4225.335	2809
4226.873	2807
4228.411	2848
4229.948	2826
4231.486	2847
4233.024	2825
4234.562	2813
4236.098	2824
4237.634	2836
4239.169	2776
4240.705	2768
4242.241	2767
4243.776	2764
4245.31	2805
4246.844	2832
4248.378	2847
4249.911	2814
4251.445	2831
4252.978	2805
4254.51	2841
4256.042	2822
4257.574	2836
4259.107	2787
4260.638	2820
4262.169	2721
4263.699	2797
4265.228	2805
4266.759	2725
4268.289	2738
4269.818	2776
4271.345	2790
4272.874	2769
4274.402	2699
4275.931	2772
4277.458	2782
4278.985	2773
4280.512	2762
4282.037	2756
4283.564	2733
4285.089	2718
4286.615	2687
4288.139	2737
4289.664	2712
4291.187	2771
4292.712	2730
4294.235	2788
4295.759	2713
4297.281	2708
4298.804	2729
4300.327	2779
4301.849	2668
4303.37	2734
4304.891	2729
4306.412	2719
4307.933	2724
4309.453	2699
4310.973	2782
4312.492	2709
