398.1873	5876
400.7097	5932
403.2336	5815
405.7547	5859
408.2751	5869
410.7948	5815
413.3138	5926
415.83	5951
418.3497	5954
420.8666	6004
423.3829	6016
425.8985	6151
428.4133	6190
430.9275	6249
433.441	6169
435.9538	6259
438.4639	6213
440.9753	6339
443.4881	6213
445.9982	6218
448.5055	6290
451.0142	6150
453.5201	6264
456.0274	6323
458.5361	6155
461.04	6189
463.5453	6312
466.0478	6214
468.5517	6260
471.0549	6214
473.5574	6229
476.0572	6198
478.5584	6234
481.0568	6235
483.5545	6369
486.0557	6383
488.5521	6424
491.0478	6380
493.5449	6322
496.0392	6283
498.5349	6496
501.0299	6416
503.5222	6334
506.0139	6382
508.5048	6383
510.9991	6455
513.4887	6592
515.9777	6454
518.4659	6474
520.9534	6475
523.4403	6522
525.9306	6504
528.4161	6519
530.9009	6504
533.3851	6605
535.8687	6579
538.3535	6520
540.8356	6492
543.3171	6494
545.7979	6570
548.278	6529
550.7595	6533
553.2383	6482
555.7144	6565
558.1918	6585
560.6685	6568
563.1446	6635
565.6221	6636
568.0968	6682
570.5688	6677
573.0422	6662
575.515	6729
577.989	6650
580.4584	6792
582.9291	6724
585.3991	6878
587.8685	6800
590.3352	6768
592.8052	6790
595.2706	6748
597.7372	6527
600.2033	6713
602.6666	6716
605.1334	6724
607.5953	6727
610.0587	6738
612.5193	6753
614.9814	6790
617.4427	6673
619.9034	6730
622.3615	6647
624.8208	6633
627.2775	6682
629.7335	6729
632.1929	6760
634.6476	6657
637.1016	6825
639.5569	6766
642.0096	6701
644.4637	6754
646.9151	6882
649.3678	6801
651.8179	6817
654.2672	6810
656.7159	6793
659.166	6782
661.6154	6705
664.0622	6902
666.5082	6924
668.9537	6827
671.4005	6897
673.8445	6909
676.288	6879
678.7308	6938
681.1729	6972
683.6163	6988
686.0572	6935
688.4973	6955
690.9368	7024
693.3757	7119
695.8138	6884
698.2534	6967
700.6902	7075
703.1245	7012
705.56	6971
707.9949	7120
710.4311	7085
712.8647	6989
715.2957	7090
717.7279	7104
720.1595	7045
722.5905	7135
725.0208	7069
727.4505	7150
729.8795	7172
732.3058	7272
734.7336	7236
737.1626	7290
739.587	7360
742.0128	7328
744.4359	7258
746.8604	7338
749.2841	7327
751.7073	7263
754.1278	7431
756.5496	7379
758.9688	7545
761.3893	7460
763.8093	7419
766.2285	7453
768.6451	7411
771.0611	7417
773.4784	7501
775.895	7439
778.3091	7499
780.7244	7383
783.1371	7554
785.5493	7475
787.9626	7610
790.3754	7484
792.7856	7443
795.1951	7463
797.6039	7493
800.0121	7464
802.4236	7469
804.8306	7448
807.2369	7555
809.6425	7419
812.0475	7420
814.4538	7516
816.8575	7561
819.2606	7582
821.663	7566
824.0648	7488
826.4659	7585
828.8683	7440
831.2682	7652
833.6674	7483
836.066	7635
838.4639	7604
840.8632	7614
843.2579	7672
845.6539	7737
848.0493	7638
850.444	7787
852.84	7725
855.2315	7686
857.6243	7715
860.0165	7770
862.4081	7655
864.797	7649
867.1892	7687
869.5789	7719
871.9659	7566
874.3542	7681
876.74	7663
879.129	7724
881.5155	7619
883.8994	7833
886.2845	7803
888.6671	7607
891.051	7514
893.4343	7661
895.8169	7700
898.197	7658
900.5783	7712
902.9571	7795
905.3372	7722
907.7167	7703
910.0936	7817
912.4698	7780
914.8474	7979
917.2244	7730
919.5987	7916
921.9744	7988
924.3475	7926
926.72	8074
929.0918	8018
931.4669	8073
933.8375	8016
936.2074	7968
938.5767	8143
940.9454	8319
943.3154	8325
945.6829	8494
948.0497	8427
950.4178	8720
952.7833	9044
955.1483	9333
957.5145	9440
959.8782	9654
962.2412	9509
964.6036	9401
966.9655	9095
969.3266	8715
971.6871	8553
974.0471	8337
976.4064	8090
978.765	8143
981.125	7844
983.4824	8050
985.8373	7994
988.1935	7989
990.549	7975
992.9039	7971
995.2602	8046
997.6119	7982
999.965	8017
1002.317	7931
1004.667	7952
1007.02	7975
1009.371	7961
1011.719	8025
1014.068	7972
1016.415	7996
1018.765	7923
1021.111	8017
1023.458	8065
1025.804	8180
1028.147	7983
1030.49	8006
1032.837	8197
1035.179	8073
1037.522	8210
1039.862	7994
1042.204	8036
1044.546	8210
1046.884	8275
1049.224	8171
1051.562	8180
1053.899	8184
1056.237	8270
1058.575	8197
1060.91	8142
1063.244	8128
1065.58	8272
1067.913	8371
1070.248	8293
1072.579	8295
1074.911	8329
1077.242	8303
1079.572	8266
1081.905	8224
1084.234	8257
1086.562	8154
1088.89	8272
1091.217	8187
1093.544	8357
1095.871	8155
1098.197	8176
1100.521	8281
1102.845	8193
1105.169	8134
1107.491	8137
1109.814	8147
1112.135	8185
1114.456	8110
1116.776	8194
1119.096	8178
1121.415	8124
1123.734	8069
1126.052	8315
1128.369	8096
1130.686	8102
1133.002	8359
1135.318	8224
1137.632	8162
1139.945	8232
1142.258	8142
1144.573	8191
1146.884	8165
1149.196	8089
1151.505	8176
1153.816	8202
1156.124	8252
1158.435	8130
1160.742	8241
1163.051	8234
1165.356	8241
1167.663	8257
1169.97	8154
1172.276	8335
1174.579	8178
1176.881	8465
1179.186	8252
1181.487	8192
1183.79	8177
1186.092	8211
1188.392	8230
1190.691	7991
1192.991	8292
1195.291	8204
1197.588	8321
1199.885	8187
1202.181	8369
1204.479	8264
1206.775	8212
1209.07	8227
1211.363	8290
1213.656	8250
1215.949	8208
1218.241	8364
1220.534	8142
1222.825	8339
1225.115	8372
1227.405	8427
1229.693	8334
1231.984	8392
1234.271	8400
1236.558	8385
1238.845	8430
1241.131	8484
1243.416	8410
1245.703	8508
1247.987	8489
1250.269	8370
1252.552	8441
1254.834	8547
1257.118	8500
1259.399	8336
1261.678	8498
1263.958	8545
1266.237	8489
1268.516	8538
1270.794	8503
1273.072	8481
1275.347	8549
1277.624	8534
1279.899	8399
1282.175	8471
1284.449	8460
1286.722	8489
1288.995	8425
1291.266	8410
1293.54	8426
1295.81	8507
1298.081	8487
1300.35	8373
1302.62	8353
1304.889	8323
1307.156	8319
1309.425	8316
1311.69	8435
1313.957	8543
1316.222	8339
1318.488	8379
1320.751	8326
1323.016	8446
1325.278	8374
1327.54	8453
1329.803	8524
1332.065	8471
1334.325	8295
1336.584	8538
1338.843	8497
1341.101	8442
1343.36	8490
1345.617	8398
1347.876	8352
1350.131	8440
1352.387	8407
1354.643	8562
1356.897	8459
1359.151	8491
1361.403	8445
1363.656	8503
1365.909	8578
1368.16	8561
1370.409	8403
1372.659	8319
1374.909	8518
1377.157	8471
1379.407	8387
1381.655	8444
1383.9	8598
1386.147	8476
1388.393	8513
1390.64	8569
1392.885	8679
1395.127	8515
1397.37	8591
1399.614	8633
1401.854	8582
1404.098	8500
1406.339	8517
1408.578	8577
1410.818	8698
1413.056	8716
1415.297	8570
1417.533	8600
1419.771	8573
1422.006	8535
1424.243	8702
1426.479	8742
1428.715	8805
1430.948	8702
1433.182	8673
1435.414	8656
1437.647	8794
1439.88	8810
1442.11	8773
1444.342	8695
1446.571	8813
1448.799	8694
1451.029	8891
1453.258	8957
1455.485	8789
1457.711	8650
1459.937	8789
1462.164	8887
1464.39	8765
1466.614	8739
1468.838	8798
1471.06	8703
1473.283	8586
1475.506	8724
1477.727	8566
1479.949	8703
1482.169	8437
1484.389	8568
1486.609	8518
1488.828	8493
1491.045	8568
1493.261	8382
1495.477	8592
1497.693	8522
1499.91	8577
1502.125	8519
1504.339	8600
1506.553	8506
1508.766	8438
1510.979	8519
1513.191	8601
1515.402	8537
1517.613	8406
1519.823	8424
1522.033	8467
1524.242	8410
1526.451	8373
1528.657	8454
1530.865	8465
1533.072	8572
1535.278	8482
1537.484	8476
1539.687	8436
1541.892	8587
1544.096	8617
1546.299	8517
1548.502	8570
1550.703	8545
1552.905	8620
1555.104	8640
1557.303	8716
1559.505	8750
1561.703	8716
1563.902	8747
1566.099	8674
1568.295	8794
1570.494	8637
1572.689	8718
1574.883	8832
1577.079	8705
1579.272	8682
1581.467	8715
1583.659	8798
1585.853	8836
1588.044	8887
1590.234	8841
1592.424	8832
1594.615	8825
1596.806	8758
1598.994	8755
1601.182	8778
1603.369	8937
1605.557	8779
1607.744	8779
1609.929	8832
1612.114	8837
1614.298	8947
1616.482	8847
1618.667	8827
1620.85	8822
1623.032	8672
1625.214	8878
1627.395	8999
1629.575	8774
1631.755	8825
1633.935	8893
1636.114	8799
1638.292	8813
1640.471	8856
1642.647	9012
1644.823	8883
1647	8929
1649.175	9019
1651.348	8972
1653.525	8972
1655.698	8848
1657.87	9080
1660.043	9033
1662.213	8887
1664.387	9001
1666.558	9011
1668.727	8886
1670.896	8971
1673.064	9036
1675.233	9010
1677.401	9080
1679.569	8843
1681.735	9009
1683.902	9017
1686.066	9017
1688.233	8963
1690.397	9005
1692.559	8985
1694.723	8942
1696.885	8855
1699.048	8908
1701.21	8846
1703.37	8934
1705.53	8978
1707.689	8831
1709.849	8887
1712.009	8837
1714.166	8755
1716.323	8713
1718.479	8747
1720.634	8742
1722.793	8866
1724.948	8897
1727.102	8857
1729.255	8767
1731.408	8907
1733.562	8844
1735.714	8738
1737.865	8852
1740.016	8837
1742.166	8802
1744.316	8729
1746.467	8788
1748.616	8903
1750.764	8891
1752.911	8875
1755.056	8877
1757.205	8823
1759.35	8897
1761.496	9078
1763.641	8827
1765.785	8827
1767.927	8888
1770.072	8946
1772.214	8984
1774.355	8807
1776.496	8971
1778.637	8931
1780.778	8860
1782.918	8948
1785.057	8907
1787.194	9013
1789.333	8958
1791.472	8876
1793.608	9050
1795.745	9047
1797.879	8892
1800.015	8882
1802.148	8816
1804.284	8964
1806.417	9141
1808.548	9036
1810.682	9012
1812.812	8986
1814.946	9002
1817.075	8911
1819.205	8920
1821.335	8918
1823.463	9114
1825.59	8928
1827.721	8909
1829.847	8890
1831.973	8901
1834.098	8940
1836.223	8956
1838.351	8911
1840.475	9025
1842.598	8864
1844.721	8805
1846.843	8834
1848.966	8815
1851.087	8867
1853.21	8775
1855.33	8954
1857.449	8785
1859.568	8848
1861.688	8937
1863.806	9018
1865.924	8899
1868.039	8922
1870.155	8749
1872.273	8876
1874.388	8756
1876.503	8815
1878.617	8863
1880.73	8973
1882.844	8977
1884.956	8930
1887.068	8861
1889.18	8982
1891.291	8874
1893.4	8758
1895.511	8922
1897.621	8858
1899.73	8897
1901.837	8857
1903.944	9061
1906.053	8842
1908.159	8896
1910.265	9012
1912.369	8959
1914.474	8945
1916.577	9049
1918.683	9016
1920.785	8932
1922.888	8990
1924.989	9092
1927.091	9108
1929.193	9095
1931.294	9131
1933.393	9027
1935.493	9075
1937.59	9060
1939.689	9062
1941.788	9116
1943.884	9093
1945.98	9073
1948.077	9048
1950.171	8908
1952.267	9111
1954.361	9037
1956.455	9009
1958.548	8994
1960.64	9200
1962.733	9091
1964.824	9004
1966.915	9026
1969.005	8910
1971.096	9006
1973.185	8986
1975.275	8952
1977.363	9109
1979.45	9008
1981.537	9041
1983.623	9182
1985.711	9008
1987.796	8879
1989.881	8913
1991.965	8968
1994.047	8975
1996.132	8960
1998.215	8931
2000.297	8831
2002.378	9014
2004.46	8870
2006.54	8764
2008.62	8923
2010.7	8915
2012.779	8974
2014.858	8813
2016.934	8899
2019.013	8877
2021.09	8965
2023.165	8882
2025.241	8825
2027.317	8923
2029.39	8944
2031.466	8907
2033.538	8973
2035.612	8876
2037.683	8890
2039.755	8952
2041.827	8965
2043.898	8943
2045.968	8921
2048.038	8994
2050.106	9079
2052.177	8972
2054.244	9068
2056.313	8921
2058.379	8940
2060.444	9028
2062.511	8942
2064.577	9063
2066.641	9070
2068.705	8878
2070.77	8950
2072.832	8969
2074.896	8960
2076.958	8966
2079.02	8914
2081.081	8878
2083.141	8998
2085.2	9058
2087.261	9147
2089.319	8913
2091.377	9034
2093.435	9063
2095.492	8898
2097.552	8884
2099.607	9042
2101.663	9114
2103.718	9031
2105.771	8962
2107.826	8902
2109.879	8992
2111.932	8863
2113.985	8979
2116.037	8993
2118.088	8958
2120.141	8884
2122.191	9005
2124.239	8993
2126.288	9134
2128.337	9003
2130.387	9014
2132.434	8984
2134.481	9056
2136.528	8925
2138.574	9008
2140.618	8958
2142.665	8904
2144.71	8748
2146.753	9087
2148.797	8876
2150.838	8965
2152.883	9047
2154.923	8937
2156.965	8975
2159.007	9030
2161.046	8927
2163.086	8923
2165.126	9058
2167.163	8733
2169.202	8915
2171.239	8859
2173.277	8914
2175.314	8905
2177.349	8931
2179.385	8828
2181.42	8943
2183.453	8801
2185.49	8778
2187.522	8856
2189.555	8686
2191.586	8854
2193.619	8813
2195.651	8908
2197.682	8656
2199.711	8820
2201.74	8844
2203.769	8842
2205.799	8784
2207.828	8821
2209.855	8828
2211.882	8718
2213.908	8755
2215.934	8729
2217.961	8730
2219.986	8849
2222.01	8840
2224.034	8769
2226.057	8800
2228.08	8757
2230.104	8645
2232.124	8823
2234.145	8746
2236.166	8718
2238.186	8745
2240.207	8809
2242.227	8721
2244.244	8704
2246.262	8720
2248.28	8811
2250.299	8676
2252.314	8820
2254.33	8784
2256.346	8843
2258.36	8752
2260.375	8781
2262.391	8804
2264.403	8728
2266.416	8720
2268.427	8734
2270.44	8785
2272.453	8866
2274.463	8879
2276.474	8809
2278.483	8648
2280.493	8921
2282.501	8879
2284.51	8814
2286.518	8634
2288.524	8884
2290.532	8858
2292.537	8791
2294.544	8781
2296.55	8769
2298.554	8752
2300.557	8682
2302.562	8875
2304.566	8750
2306.568	8677
2308.569	8707
2310.572	8806
2312.573	8730
2314.573	8621
2316.574	8699
2318.573	8673
2320.571	8595
2322.571	8520
2324.569	8788
2326.567	8653
2328.564	8695
2330.56	8676
2332.556	8626
2334.551	8843
2336.546	8752
2338.542	8664
2340.535	8787
2342.529	8695
2344.521	8680
2346.512	8613
2348.505	8614
2350.497	8642
2352.487	8569
2354.478	8686
2356.468	8620
2358.457	8721
2360.446	8650
2362.434	8610
2364.422	8569
2366.408	8684
2368.395	8582
2370.383	8493
2372.369	8629
2374.353	8708
2376.338	8420
2378.321	8395
2380.307	8563
2382.29	8628
2384.272	8601
2386.254	8576
2388.235	8446
2390.218	8656
2392.198	8469
2394.179	8399
2396.157	8560
2398.137	8572
2400.115	8474
2402.095	8476
2404.072	8517
2406.048	8486
2408.026	8415
2410.001	8497
2411.977	8454
2413.953	8519
2415.927	8488
2417.9	8451
2419.875	8458
2421.847	8613
2423.821	8441
2425.792	8390
2427.763	8451
2429.736	8514
2431.706	8397
2433.677	8462
2435.646	8428
2437.615	8616
2439.583	8353
2441.551	8402
2443.519	8597
2445.486	8490
2447.452	8555
2449.418	8521
2451.383	8476
2453.348	8519
2455.314	8363
2457.278	8528
2459.241	8433
2461.205	8406
2463.167	8542
2465.131	8563
2467.091	8512
2469.052	8371
2471.012	8427
2472.972	8251
2474.932	8334
2476.891	8365
2478.85	8411
2480.808	8419
2482.766	8463
2484.722	8331
2486.68	8499
2488.636	8372
2490.591	8269
2492.546	8372
2494.5	8257
2496.456	8513
2498.41	8266
2500.362	8499
2502.315	8362
2504.266	8372
2506.218	8309
2508.169	8364
2510.121	8444
2512.07	8255
2514.019	8294
2515.968	8420
2517.918	8372
2519.866	8353
2521.813	8184
2523.76	8409
2525.707	8245
2527.653	8362
2529.599	8321
2531.543	8298
2533.489	8286
2535.433	8313
2537.376	8274
2539.32	8424
2541.264	8272
2543.205	8167
2545.147	8480
2547.087	8312
2549.029	8466
2550.969	8381
2552.908	8382
2554.847	8307
2556.786	8384
2558.724	8376
2560.663	8176
2562.6	8468
2564.537	8351
2566.473	8248
2568.408	8418
2570.345	8330
2572.28	8301
2574.214	8365
2576.148	8288
2578.081	8283
2580.014	8320
2581.947	8370
2583.879	8460
2585.81	8191
2587.741	8347
2589.67	8347
2591.602	8406
2593.532	8287
2595.461	8392
2597.388	8372
2599.316	8351
2601.244	8296
2603.172	8278
2605.098	8371
2607.023	8427
2608.949	8335
2610.873	8218
2612.8	8313
2614.723	8406
2616.647	8300
2618.569	8367
2620.493	8420
2622.416	8341
2624.338	8329
2626.258	8209
2628.179	8459
2630.099	8473
2632.019	8443
2633.939	8367
2635.857	8268
2637.775	8344
2639.694	8335
2641.61	8361
2643.528	8272
2645.444	8375
2647.361	8325
2649.276	8410
2651.19	8344
2653.105	8302
2655.019	8330
2656.934	8342
2658.846	8428
2660.758	8420
2662.67	8355
2664.583	8427
2666.493	8303
2668.404	8323
2670.313	8242
2672.223	8412
2674.134	8291
2676.042	8272
2677.95	8259
2679.858	8354
2681.765	8233
2683.673	8275
2685.579	8235
2687.483	8250
2689.389	8179
2691.294	8334
2693.198	8281
2695.104	8288
2697.006	8235
2698.909	8237
2700.811	8228
2702.713	8166
2704.615	8247
2706.516	8229
2708.417	8192
2710.316	8209
2712.216	8319
2714.115	8272
2716.014	8229
2717.913	8135
2719.81	8194
2721.707	8242
2723.603	8170
2725.501	8245
2727.396	8229
2729.292	8095
2731.186	8256
2733.081	8082
2734.976	8199
2736.87	8218
2738.762	8165
2740.653	8316
2742.546	8187
2744.437	8233
2746.329	8213
2748.22	8259
2750.11	8102
2751.999	8146
2753.889	8169
2755.778	8130
2757.666	8254
2759.553	8044
2761.44	8289
2763.328	8134
2765.215	7966
2767.101	8103
2768.986	8105
2770.87	8183
2772.754	8125
2774.638	8107
2776.523	8167
2778.405	8137
2780.288	8064
2782.17	8300
2784.051	8189
2785.934	8037
2787.814	8084
2789.694	8042
2791.574	8035
2793.453	7986
2795.332	8135
2797.212	8122
2799.088	8131
2800.966	7985
2802.843	8036
2804.719	8086
2806.597	8135
2808.471	8035
2810.346	8119
2812.221	8023
2814.094	8130
2815.969	8043
2817.843	8147
2819.714	8121
2821.587	8019
2823.459	8122
2825.329	8000
2827.202	8023
2829.072	7991
2830.942	8042
2832.811	8065
2834.68	8179
2836.549	7999
2838.418	8046
2840.284	8019
2842.152	7981
2844.018	8085
2845.885	8010
2847.751	8027
2849.616	7969
2851.482	8105
2853.345	8109
2855.208	8134
2857.074	8173
2858.937	8098
2860.799	8122
2862.66	8292
2864.522	8140
2866.385	8088
2868.245	8312
2870.104	8315
2871.964	8237
2873.824	8408
2875.683	8332
2877.542	8408
2879.4	8514
2881.257	8510
2883.114	8664
2884.97	8561
2886.827	8430
2888.683	8514
2890.537	8495
2892.392	8521
2894.246	8566
2896.1	8624
2897.954	8453
2899.807	8497
2901.66	8387
2903.51	8616
2905.362	8563
2907.214	8533
2909.065	8372
2910.915	8702
2912.765	8522
2914.613	8675
2916.463	8560
2918.311	8773
2920.158	8836
2922.006	8730
2923.853	8920
2925.698	8797
2927.546	8944
2929.392	9087
2931.236	9021
2933.081	9059
2934.924	9106
2936.77	9232
2938.613	9123
2940.455	9205
2942.298	9115
2944.139	9154
2945.982	9259
2947.823	9164
2949.662	9164
2951.503	9184
2953.342	9144
2955.182	9063
2957.021	8984
2958.858	9005
2960.697	9125
2962.534	8881
2964.37	8909
2966.207	8812
2968.044	8788
2969.879	8673
2971.714	8569
2973.548	8655
2975.383	8438
2977.218	8410
2979.051	8617
2980.883	8505
2982.715	8546
2984.547	8573
2986.379	8433
2988.21	8421
2990.04	8392
2991.87	8299
2993.7	8444
2995.53	8150
2997.359	8197
2999.187	8078
3001.015	8185
3002.842	8057
3004.669	8073
3006.497	8125
3008.323	8065
3010.148	7904
3011.974	7894
3013.797	7913
3015.623	7875
3017.447	7917
3019.27	7834
3021.094	7838
3022.915	7790
3024.737	7798
3026.56	7717
3028.38	7826
3030.201	7698
3032.022	7825
3033.84	7810
3035.662	7509
3037.481	7678
3039.298	7748
3041.117	7640
3042.933	7732
3044.752	7581
3046.568	7796
3048.385	7654
3050.2	7654
3052.016	7559
3053.83	7523
3055.646	7684
3057.46	7686
3059.272	7569
3061.086	7637
3062.898	7762
3064.711	7615
3066.524	7622
3068.335	7486
3070.145	7522
3071.956	7551
3073.766	7723
3075.576	7631
3077.385	7582
3079.193	7549
3081.002	7422
3082.81	7562
3084.618	7535
3086.425	7505
3088.231	7479
3090.036	7549
3091.842	7485
3093.648	7426
3095.452	7493
3097.257	7526
3099.06	7482
3100.863	7375
3102.666	7521
3104.47	7524
3106.272	7447
3108.073	7435
3109.875	7432
3111.676	7353
3113.477	7330
3115.277	7257
3117.077	7326
3118.874	7353
3120.673	7296
3122.473	7253
3124.271	7336
3126.066	7386
3127.863	7312
3129.66	7333
3131.456	7331
3133.252	7355
3135.047	7362
3136.842	7316
3138.635	7221
3140.429	7292
3142.223	7320
3144.016	7325
3145.808	7230
3147.6	7365
3149.392	7269
3151.183	7315
3152.975	7214
3154.765	7198
3156.553	7269
3158.344	7221
3160.132	7206
3161.922	7253
3163.71	7146
3165.497	7218
3167.285	7276
3169.071	7155
3170.858	7378
3172.645	7304
3174.429	7077
3176.214	7119
3177.998	7202
3179.783	7166
3181.568	7215
3183.351	7146
3185.133	7144
3186.915	7107
3188.698	7169
3190.481	7040
3192.261	7075
3194.042	7198
3195.822	7101
3197.601	7143
3199.381	7053
3201.161	7170
3202.939	7076
3204.717	7220
3206.495	7107
3208.272	7151
3210.05	7106
3211.826	7115
3213.602	7122
3215.376	7084
3217.151	7176
3218.927	7138
3220.702	7172
3222.476	7197
3224.249	7179
3226.021	7114
3227.793	7200
3229.567	7167
3231.339	7156
3233.109	7045
3234.88	7074
3236.651	7154
3238.421	7079
3240.191	7108
3241.96	7094
3243.728	7035
3245.497	6962
3247.263	7203
3249.033	7079
3250.799	7010
3252.566	7182
3254.331	7040
3256.097	7180
3257.863	7315
3259.628	7132
3261.392	7249
3263.156	7193
3264.919	6951
3266.683	7086
3268.447	7118
3270.208	6940
3271.969	7037
3273.731	6972
3275.492	7117
3277.253	7152
3279.013	7007
3280.773	7039
3282.532	7092
3284.291	6987
3286.05	7008
3287.808	7038
3289.566	7049
3291.323	7139
3293.079	6962
3294.835	6967
3296.593	7123
3298.348	6983
3300.102	7034
3301.857	7104
3303.611	7096
3305.366	7059
3307.119	7013
3308.872	7123
3310.624	7085
3312.376	7072
3314.129	7093
3315.881	6989
3317.631	7142
3319.38	7058
3321.13	7061
3322.88	7051
3324.631	7071
3326.379	7056
3328.126	7026
3329.875	6958
3331.622	7039
3333.371	6930
3335.116	6987
3336.863	7137
3338.609	6954
3340.353	6965
3342.1	6949
3343.845	7079
3345.588	7037
3347.332	6915
3349.074	6916
3350.817	6968
3352.56	6980
3354.303	7026
3356.043	6941
3357.785	6862
3359.525	6958
3361.268	6891
3363.007	6877
3364.745	6843
3366.485	6759
3368.223	6838
3369.962	6804
3371.701	6963
3373.438	6910
3375.174	6892
3376.911	6856
3378.647	7026
3380.384	6962
3382.118	6901
3383.854	6909
3385.588	6821
3387.322	6794
3389.057	6859
3390.79	6838
3392.522	6825
3394.255	6801
3395.987	6771
3397.719	6754
3399.451	6805
3401.181	6751
3402.911	6760
3404.641	6671
3406.371	6765
3408.101	6845
3409.83	6814
3411.558	6792
3413.285	6810
3415.011	6758
3416.739	6760
3418.467	6780
3420.193	6707
3421.919	6765
3423.644	6728
3425.368	6771
3427.094	6669
3428.818	6621
3430.542	6822
3432.264	6632
3433.987	6781
3435.712	6692
3437.434	6702
3439.155	6682
3440.876	6620
3442.596	6585
3444.317	6677
3446.039	6644
3447.757	6613
3449.477	6642
3451.195	6618
3452.914	6543
3454.632	6791
3456.35	6613
3458.067	6635
3459.784	6597
3461.5	6526
3463.216	6501
3464.932	6538
3466.647	6713
3468.362	6528
3470.076	6561
3471.789	6448
3473.505	6525
3475.217	6581
3476.929	6420
3478.641	6583
3480.354	6637
3482.066	6585
3483.777	6436
3485.487	6490
3487.197	6393
3488.908	6545
3490.617	6493
3492.327	6378
3494.035	6413
3495.743	6401
3497.451	6482
3499.158	6312
3500.866	6395
3502.572	6520
3504.278	6543
3505.984	6437
3507.689	6438
3509.396	6518
3511.1	6423
3512.804	6357
3514.508	6320
3516.211	6250
3517.913	6362
3519.616	6227
3521.319	6304
3523.021	6517
3524.722	6224
3526.422	6302
3528.124	6320
3529.824	6435
3531.524	6314
3533.222	6210
3534.921	6204
3536.62	6346
3538.318	6262
3540.016	6227
3541.714	6222
3543.41	6348
3545.107	6138
3546.803	6301
3548.5	6157
3550.194	6244
3551.889	6242
3553.583	6151
3555.279	6206
3556.972	6152
3558.666	6322
3560.358	6228
3562.051	6169
3563.742	6163
3565.435	6191
3567.126	6216
3568.817	6175
3570.507	6170
3572.197	6145
3573.888	6143
3575.577	6191
3577.265	6024
3578.954	6176
3580.642	6074
3582.329	6019
3584.017	6073
3585.704	6030
3587.391	6185
3589.077	6079
3590.762	6114
3592.449	6154
3594.133	6062
3595.817	6090
3597.501	6062
3599.185	6030
3600.869	6144
3602.552	6052
3604.234	6047
3605.916	6135
3607.598	6034
3609.279	5859
3610.961	6012
3612.642	5929
3614.321	6034
3616	5985
3617.68	6004
3619.36	5820
3621.039	5973
3622.716	5939
3624.394	5873
3626.071	5912
3627.748	5843
3629.425	5963
3631.102	5827
3632.778	5922
3634.452	5960
3636.127	5836
3637.803	5887
3639.477	5941
3641.151	5814
3642.823	5927
3644.497	5729
3646.171	5850
3647.842	5902
3649.515	5772
3651.185	5807
3652.857	5765
3654.527	5832
3656.198	5743
3657.868	5795
3659.537	5750
3661.207	5720
3662.875	5789
3664.544	5859
3666.212	5788
3667.879	5701
3669.546	5836
3671.212	5850
3672.88	5741
3674.546	5806
3676.211	5780
3677.875	5747
3679.541	5784
3681.205	5762
3682.87	5632
3684.533	5701
3686.196	5737
3687.859	5720
3689.521	5740
3691.184	5768
3692.845	5670
3694.507	5715
3696.167	5694
3697.827	5733
3699.487	5684
3701.148	5681
3702.808	5707
3704.466	5807
3706.125	5687
3707.783	5599
3709.442	5687
3711.099	5634
3712.757	5618
3714.412	5608
3716.068	5597
3717.725	5539
3719.381	5672
3721.036	5570
3722.689	5660
3724.344	5641
3725.998	5668
3727.652	5526
3729.305	5582
3730.958	5619
3732.61	5645
3734.262	5658
3735.915	5662
3737.565	5507
3739.217	5581
3740.866	5612
3742.516	5625
3744.165	5642
3745.816	5462
3747.464	5647
3749.113	5555
3750.761	5516
3752.409	5571
3754.057	5586
3755.703	5539
3757.35	5610
3758.996	5482
3760.641	5516
3762.289	5584
3763.933	5535
3765.577	5418
3767.222	5495
3768.865	5546
3770.508	5516
3772.152	5486
3773.796	5540
3775.438	5510
3777.079	5414
3778.721	5421
3780.363	5414
3782.003	5444
3783.643	5498
3785.283	5419
3786.923	5527
3788.563	5453
3790.203	5474
3791.841	5490
3793.479	5406
3795.115	5442
3796.753	5383
3798.391	5462
3800.027	5314
3801.664	5408
3803.299	5452
3804.935	5394
3806.571	5472
3808.206	5380
3809.839	5352
3811.473	5374
3813.107	5344
3814.74	5345
3816.375	5370
3818.006	5422
3819.638	5373
3821.27	5294
3822.9	5292
3824.532	5401
3826.163	5316
3827.792	5311
3829.423	5272
3831.051	5314
3832.682	5348
3834.311	5293
3835.938	5260
3837.566	5194
3839.193	5371
3840.821	5229
3842.448	5336
3844.075	5236
3845.7	5343
3847.325	5249
3848.951	5304
3850.576	5212
3852.201	5307
3853.825	5242
3855.448	5176
3857.072	5194
3858.694	5299
3860.318	5220
3861.939	5104
3863.562	5268
3865.183	5279
3866.804	5210
3868.426	5134
3870.045	5159
3871.666	5236
3873.285	5239
3874.904	5204
3876.524	5189
3878.142	5260
3879.76	5239
3881.378	5209
3882.995	5199
3884.612	5167
3886.229	5130
3887.845	5061
3889.461	5147
3891.076	5150
3892.691	5085
3894.307	5086
3895.922	5213
3897.536	5195
3899.149	5217
3900.761	5164
3902.374	5124
3903.988	5143
3905.6	5152
3907.212	5129
3908.822	5150
3910.433	5155
3912.045	5181
3913.655	5084
3915.265	5041
3916.875	5170
3918.483	5090
3920.093	5047
3921.702	5191
3923.309	5113
3924.917	5055
3926.523	5074
3928.13	5064
3929.739	5142
3931.344	5057
3932.95	5057
3934.555	5052
3936.159	5092
3937.766	5073
3939.369	5084
3940.974	5055
3942.577	5075
3944.181	5167
3945.783	5040
3947.386	5070
3948.989	4965
3950.59	5004
3952.191	5029
3953.791	5052
3955.394	5001
3956.994	4961
3958.593	5003
3960.192	4978
3961.791	4929
3963.392	4974
3964.99	5015
3966.588	5009
3968.185	5008
3969.782	5031
3971.379	5004
3972.976	4992
3974.572	4929
3976.168	4995
3977.763	4904
3979.358	4880
3980.954	4921
3982.548	5013
3984.142	4889
3985.736	4882
3987.329	4981
3988.922	4860
3990.516	4913
3992.108	4882
3993.698	4929
3995.29	4949
3996.881	4788
3998.473	4871
4000.064	4905
4001.653	4927
4003.242	4898
4004.832	4801
4006.422	4845
4008.01	4792
4009.598	4844
4011.186	4913
4012.773	4830
4014.36	4917
4015.947	4818
4017.534	4775
4019.119	4797
4020.705	4702
4022.291	4741
4023.876	4754
4025.461	4697
4027.044	4842
4028.627	4752
4030.211	4817
4031.795	4710
4033.378	4749
4034.96	4699
4036.542	4712
4038.124	4681
4039.704	4668
4041.286	4722
4042.867	4741
4044.447	4711
4046.026	4730
4047.606	4758
4049.187	4743
4050.765	4651
4052.343	4710
4053.92	4720
4055.498	4616
4057.076	4607
4058.654	4632
4060.23	4594
4061.806	4600
4063.381	4505
4064.957	4643
4066.533	4595
4068.107	4638
4069.682	4649
4071.256	4601
4072.829	4705
4074.404	4633
4075.977	4592
4077.549	4595
4079.121	4570
4080.693	4667
4082.265	4553
4083.836	4605
4085.407	4572
4086.977	4651
4088.547	4583
4090.117	4535
4091.687	4568
4093.256	4543
4094.825	4535
4096.392	4558
4097.96	4528
4099.528	4601
4101.097	4549
4102.663	4519
4104.229	4552
4105.795	4542
4107.361	4494
4108.928	4483
4110.493	4517
4112.058	4545
4113.621	4567
4115.186	4526
4116.75	4537
4118.313	4563
4119.876	4519
4121.438	4491
4123	4540
4124.562	4397
4126.125	4417
4127.686	4528
4129.246	4462
4130.807	4501
4132.367	4477
4133.927	4398
4135.486	4517
4137.046	4371
4138.604	4530
4140.162	4402
4141.72	4470
4143.279	4408
4144.836	4339
4146.393	4416
4147.949	4390
4149.505	4401
4151.062	4343
4152.617	4461
4154.172	4342
4155.727	4442
4157.281	4399
4158.836	4410
4160.39	4321
4161.943	4368
4163.496	4355
4165.048	4263
4166.601	4338
4168.154	4345
4169.706	4310
4171.257	4223
4172.808	4297
4174.358	4318
4175.909	4288
4177.458	4325
4179.008	4221
4180.558	4280
4182.106	4205
4183.655	4257
4185.204	4358
4186.751	4253
4188.298	4289
4189.845	4255
4191.392	4288
4192.939	4255
4194.485	4249
4196.031	4297
4197.576	4236
4199.121	4303
4200.666	4162
4202.211	4233
4203.754	4251
4205.298	4161
4206.84	4234
4208.384	4187
4209.927	4263
4211.47	4175
4213.011	4281
4214.552	4229
4216.094	4208
4217.635	4208
4219.175	4233
4220.716	4166
4222.255	4183
4223.793	4154
4225.335	4239
4226.873	4127
4228.411	4097
4229.948	4243
4231.486	4179
4233.024	4172
4234.562	4181
4236.098	4135
4237.634	4085
4239.169	4103
4240.705	4104
4242.241	4165
4243.776	4219
4245.31	4135
4246.844	4114
4248.378	4114
4249.911	4156
4251.445	4175
4252.978	4108
4254.51	4060
4256.042	4138
4257.574	4142
4259.107	4066
4260.638	4184
4262.169	4048
4263.699	4074
4265.228	4039
4266.759	4057
4268.289	4128
4269.818	4055
4271.345	4024
4272.874	4102
4274.402	4163
4275.931	4107
4277.458	3990
4278.985	4028
4280.512	4042
4282.037	4068
4283.564	4079
4285.089	4112
4286.615	3956
4288.139	4045
4289.664	4100
4291.187	4051
4292.712	4098
4294.235	3974
4295.759	4004
4297.281	4041
4298.804	3997
4300.327	4047
4301.849	4090
4303.37	3889
4304.891	3988
4306.412	3948
4307.933	3964
4309.453	4020
4310.973	3978
4312.492	3954
