398.1873	2898
400.7097	2952
403.2336	2924
405.7547	2933
408.2751	2850
410.7948	3041
413.3138	2964
415.83	2972
418.3497	2986
420.8666	2996
423.3829	2983
425.8985	3134
428.4133	3018
430.9275	3076
433.441	3006
435.9538	3151
438.4639	3072
440.9753	3048
443.4881	3134
445.9982	3025
448.5055	3144
451.0142	3125
453.5201	3128
456.0274	3133
458.5361	3137
461.04	3064
463.5453	3092
466.0478	3083
468.5517	3060
471.0549	3084
473.5574	3062
476.0572	3070
478.5584	3122
481.0568	3080
483.5545	3097
486.0557	3109
488.5521	3131
491.0478	3151
493.5449	3164
496.0392	3135
498.5349	3065
501.0299	3133
503.5222	3213
506.0139	3214
508.5048	3146
510.9991	3114
513.4887	3176
515.9777	3155
518.4659	3172
520.9534	3235
523.4403	3104
525.9306	3208
528.4161	3171
530.9009	3176
533.3851	3110
535.8687	3177
538.3535	3188
540.8356	3139
543.3171	3176
545.7979	3158
548.278	3214
550.7595	3169
553.2383	3181
555.7144	3192
558.1918	3186
560.6685	3209
563.1446	3185
565.6221	3235
568.0968	3234
570.5688	3339
573.0422	3332
575.515	3282
577.989	3327
580.4584	3311
582.9291	3365
585.3991	3353
587.8685	3384
590.3352	3299
592.8052	3384
595.2706	3251
597.7372	3309
600.2033	3393
602.6666	3271
605.1334	3279
607.5953	3296
610.0587	3279
612.5193	3259
614.9814	3293
617.4427	3305
619.9034	3247
622.3615	3299
624.8208	3240
627.2775	3322
629.7335	3349
632.1929	3252
634.6476	3321
637.1016	3302
639.5569	3202
642.0096	3279
644.4637	3298
646.9151	3303
649.3678	3313
651.8179	3269
654.2672	3236
656.7159	3344
659.166	3282
661.6154	3391
664.0622	3236
666.5082	3281
668.9537	3403
671.4005	3370
673.8445	3375
676.288	3359
678.7308	3386
681.1729	3395
683.6163	3402
686.0572	3385
688.4973	3346
690.9368	3380
693.3757	3387
695.8138	3353
698.2534	3355
700.6902	3395
703.1245	3383
705.56	3453
707.9949	3478
710.4311	3371
712.8647	3452
715.2957	3412
717.7279	3524
720.1595	3487
722.5905	3475
725.0208	3407
727.4505	3473
729.8795	3544
732.3058	3493
734.7336	3365
737.1626	3515
739.587	3468
742.0128	3491
744.4359	3626
746.8604	3498
749.2841	3561
751.7073	3586
754.1278	3641
756.5496	3578
758.9688	3667
761.3893	3605
763.8093	3599
766.2285	3620
768.6451	3674
771.0611	3566
773.4784	3551
775.895	3633
778.3091	3634
780.7244	3618
783.1371	3601
785.5493	3575
787.9626	3530
790.3754	3558
792.7856	3656
795.1951	3616
797.6039	3652
800.0121	3604
802.4236	3615
804.8306	3595
807.2369	3703
809.6425	3607
812.0475	3690
814.4538	3696
816.8575	3582
819.2606	3749
821.663	3661
824.0648	3685
826.4659	3630
828.8683	3650
831.2682	3663
833.6674	3614
836.066	3694
838.4639	3680
840.8632	3742
843.2579	3766
845.6539	3732
848.0493	3803
850.444	3668
852.84	3718
855.2315	3672
857.6243	3698
860.0165	3733
862.4081	3687
864.797	3637
867.1892	3804
869.5789	3667
871.9659	3689
874.3542	3694
876.74	3776
879.129	3695
881.5155	3803
883.8994	3762
886.2845	3736
888.6671	3811
891.051	3692
893.4343	3742
895.8169	3686
898.197	3774
900.5783	3765
902.9571	3771
905.3372	3781
907.7167	3793
910.0936	3778
912.4698	3767
914.8474	3868
917.2244	3829
919.5987	3766
921.9744	3890
924.3475	3845
926.72	3867
929.0918	3940
931.4669	3884
933.8375	3884
936.2074	3888
938.5767	3994
940.9454	4051
943.3154	4068
945.6829	4139
948.0497	4176
950.4178	4290
952.7833	4484
955.1483	4562
957.5145	4720
959.8782	4749
962.2412	4731
964.6036	4697
966.9655	4592
969.3266	4318
971.6871	4215
974.0471	4008
976.4064	4055
978.765	4013
981.125	3877
983.4824	3898
985.8373	3900
988.1935	3832
990.549	3871
992.9039	3887
995.2602	3894
997.6119	3821
999.965	3941
1002.317	3899
1004.667	3878
1007.02	3875
1009.371	3845
1011.719	3849
1014.068	3830
1016.415	3897
1018.765	3867
1021.111	3859
1023.458	3918
1025.804	3916
1028.147	3918
1030.49	4001
1032.837	3880
1035.179	3957
1037.522	4027
1039.862	3907
1042.204	3994
1044.546	4014
1046.884	3908
1049.224	4013
1051.562	4003
1053.899	3995
1056.237	3957
1058.575	4100
1060.91	4043
1063.244	4036
1065.58	4035
1067.913	4010
1070.248	4063
1072.579	4094
1074.911	4088
1077.242	4020
1079.572	4014
1081.905	4045
1084.234	3977
1086.562	3979
1088.89	4029
1091.217	4020
1093.544	4043
1095.871	3961
1098.197	3961
1100.521	4008
1102.845	3929
1105.169	3981
1107.491	3984
1109.814	4073
1112.135	4005
1114.456	3996
1116.776	3973
1119.096	4000
1121.415	4055
1123.734	4013
1126.052	3994
1128.369	3916
1130.686	3931
1133.002	3978
1135.318	3979
1137.632	3931
1139.945	4061
1142.258	3980
1144.573	3887
1146.884	4004
1149.196	4000
1151.505	4024
1153.816	3992
1156.124	4070
1158.435	3994
1160.742	4060
1163.051	4022
1165.356	4044
1167.663	4019
1169.97	3996
1172.276	3981
1174.579	4015
1176.881	3944
1179.186	4027
1181.487	3919
1183.79	3988
1186.092	4084
1188.392	4035
1190.691	3978
1192.991	4005
1195.291	3935
1197.588	4007
1199.885	3970
1202.181	4016
1204.479	4043
1206.775	4000
1209.07	4075
1211.363	4051
1213.656	4001
1215.949	4057
1218.241	4023
1220.534	4049
1222.825	4075
1225.115	4084
1227.405	4120
1229.693	4139
1231.984	4093
1234.271	4025
1236.558	4051
1238.845	4147
1241.131	4177
1243.416	4083
1245.703	4135
1247.987	4200
1250.269	4236
1252.552	4185
1254.834	4102
1257.118	4132
1259.399	4110
1261.678	4119
1263.958	4125
1266.237	4076
1268.516	4191
1270.794	4182
1273.072	4205
1275.347	4207
1277.624	4168
1279.899	4017
1282.175	4266
1284.449	4094
1286.722	4143
1288.995	3997
1291.266	4087
1293.54	4072
1295.81	4110
1298.081	4157
1300.35	4113
1302.62	4082
1304.889	4069
1307.156	4167
1309.425	3992
1311.69	4089
1313.957	4084
1316.222	4123
1318.488	4066
1320.751	4181
1323.016	4091
1325.278	4126
1327.54	4168
1329.803	4104
1332.065	4067
1334.325	4196
1336.584	4147
1338.843	4026
1341.101	4142
1343.36	4140
1345.617	4120
1347.876	4160
1350.131	4157
1352.387	4103
1354.643	4200
1356.897	4253
1359.151	4071
1361.403	4104
1363.656	4171
1365.909	4154
1368.16	4067
1370.409	4073
1372.659	4086
1374.909	4215
1377.157	4117
1379.407	4087
1381.655	4189
1383.9	4165
1386.147	4241
1388.393	4183
1390.64	4211
1392.885	4278
1395.127	4060
1397.37	4261
1399.614	4222
1401.854	4232
1404.098	4227
1406.339	4175
1408.578	4164
1410.818	4253
1413.056	4195
1415.297	4187
1417.533	4165
1419.771	4174
1422.006	4264
1424.243	4297
1426.479	4261
1428.715	4207
1430.948	4266
1433.182	4285
1435.414	4361
1437.647	4345
1439.88	4297
1442.11	4294
1444.342	4184
1446.571	4364
1448.799	4343
1451.029	4356
1453.258	4416
1455.485	4332
1457.711	4322
1459.937	4330
1462.164	4307
1464.39	4330
1466.614	4331
1468.838	4251
1471.06	4263
1473.283	4202
1475.506	4312
1477.727	4280
1479.949	4257
1482.169	4228
1484.389	4206
1486.609	4238
1488.828	4154
1491.045	4199
1493.261	4216
1495.477	4273
1497.693	4192
1499.91	4178
1502.125	4231
1504.339	4189
1506.553	4222
1508.766	4143
1510.979	4112
1513.191	4299
1515.402	4173
1517.613	4219
1519.823	4183
1522.033	4190
1524.242	4248
1526.451	4208
1528.657	4169
1530.865	4183
1533.072	4200
1535.278	4210
1537.484	4334
1539.687	4190
1541.892	4110
1544.096	4213
1546.299	4143
1548.502	4284
1550.703	4162
1552.905	4190
1555.104	4143
1557.303	4326
1559.505	4336
1561.703	4234
1563.902	4273
1566.099	4278
1568.295	4297
1570.494	4333
1572.689	4307
1574.883	4200
1577.079	4291
1579.272	4285
1581.467	4344
1583.659	4222
1585.853	4329
1588.044	4335
1590.234	4372
1592.424	4270
1594.615	4338
1596.806	4410
1598.994	4357
1601.182	4277
1603.369	4320
1605.557	4393
1607.744	4364
1609.929	4287
1612.114	4435
1614.298	4310
1616.482	4353
1618.667	4426
1620.85	4423
1623.032	4296
1625.214	4408
1627.395	4395
1629.575	4370
1631.755	4462
1633.935	4459
1636.114	4456
1638.292	4374
1640.471	4330
1642.647	4450
1644.823	4456
1647	4351
1649.175	4510
1651.348	4435
1653.525	4448
1655.698	4409
1657.87	4430
1660.043	4400
1662.213	4395
1664.387	4437
1666.558	4505
1668.727	4519
1670.896	4462
1673.064	4468
1675.233	4499
1677.401	4413
1679.569	4445
1681.735	4445
1683.902	4425
1686.066	4485
1688.233	4380
1690.397	4473
1692.559	4480
1694.723	4386
1696.885	4391
1699.048	4410
1701.21	4352
1703.37	4416
1705.53	4452
1707.689	4376
1709.849	4342
1712.009	4328
1714.166	4383
1716.323	4422
1718.479	4382
1720.634	4445
1722.793	4364
1724.948	4474
1727.102	4336
1729.255	4357
1731.408	4403
1733.562	4431
1735.714	4334
1737.865	4401
1740.016	4380
1742.166	4260
1744.316	4389
1746.467	4380
1748.616	4375
1750.764	4423
1752.911	4370
1755.056	4433
1757.205	4483
1759.35	4391
1761.496	4447
1763.641	4324
1765.785	4399
1767.927	4421
1770.072	4459
1772.214	4333
1774.355	4482
1776.496	4483
1778.637	4505
1780.778	4450
1782.918	4312
1785.057	4393
1787.194	4512
1789.333	4543
1791.472	4414
1793.608	4557
1795.745	4459
1797.879	4455
1800.015	4386
1802.148	4519
1804.284	4456
1806.417	4470
1808.548	4454
1810.682	4378
1812.812	4529
1814.946	4469
1817.075	4533
1819.205	4435
1821.335	4403
1823.463	4460
1825.59	4504
1827.721	4395
1829.847	4478
1831.973	4454
1834.098	4431
1836.223	4435
1838.351	4496
1840.475	4435
1842.598	4491
1844.721	4508
1846.843	4422
1848.966	4413
1851.087	4456
1853.21	4459
1855.33	4379
1857.449	4455
1859.568	4463
1861.688	4341
1863.806	4406
1865.924	4417
1868.039	4445
1870.155	4406
1872.273	4421
1874.388	4479
1876.503	4520
1878.617	4427
1880.73	4454
1882.844	4508
1884.956	4387
1887.068	4462
1889.18	4452
1891.291	4386
1893.4	4525
1895.511	4429
1897.621	4587
1899.73	4420
1901.837	4468
1903.944	4544
1906.053	4583
1908.159	4416
1910.265	4562
1912.369	4447
1914.474	4605
1916.577	4508
1918.683	4543
1920.785	4529
1922.888	4488
1924.989	4540
1927.091	4565
1929.193	4490
1931.294	4504
1933.393	4498
1935.493	4479
1937.59	4535
1939.689	4541
1941.788	4482
1943.884	4440
1945.98	4489
1948.077	4550
1950.171	4543
1952.267	4522
1954.361	4586
1956.455	4635
1958.548	4584
1960.64	4611
1962.733	4544
1964.824	4538
1966.915	4569
1969.005	4499
1971.096	4507
1973.185	4503
1975.275	4566
1977.363	4547
1979.45	4476
1981.537	4631
1983.623	4586
1985.711	4591
1987.796	4516
1989.881	4478
1991.965	4584
1994.047	4509
1996.132	4543
1998.215	4469
2000.297	4534
2002.378	4557
2004.46	4543
2006.54	4507
2008.62	4513
2010.7	4586
2012.779	4454
2014.858	4519
2016.934	4640
2019.013	4533
2021.09	4641
2023.165	4507
2025.241	4565
2027.317	4482
2029.39	4452
2031.466	4629
2033.538	4506
2035.612	4550
2037.683	4561
2039.755	4522
2041.827	4510
2043.898	4557
2045.968	4522
2048.038	4551
2050.106	4554
2052.177	4579
2054.244	4517
2056.313	4580
2058.379	4557
2060.444	4535
2062.511	4479
2064.577	4627
2066.641	4538
2068.705	4548
2070.77	4558
2072.832	4503
2074.896	4528
2076.958	4574
2079.02	4561
2081.081	4498
2083.141	4573
2085.2	4550
2087.261	4548
2089.319	4528
2091.377	4593
2093.435	4494
2095.492	4526
2097.552	4549
2099.607	4623
2101.663	4601
2103.718	4557
2105.771	4620
2107.826	4622
2109.879	4584
2111.932	4475
2113.985	4556
2116.037	4585
2118.088	4525
2120.141	4501
2122.191	4527
2124.239	4512
2126.288	4567
2128.337	4629
2130.387	4506
2132.434	4602
2134.481	4519
2136.528	4488
2138.574	4588
2140.618	4543
2142.665	4499
2144.71	4512
2146.753	4632
2148.797	4587
2150.838	4582
2152.883	4652
2154.923	4584
2156.965	4547
2159.007	4541
2161.046	4580
2163.086	4574
2165.126	4686
2167.163	4625
2169.202	4557
2171.239	4622
2173.277	4555
2175.314	4545
2177.349	4538
2179.385	4564
2181.42	4547
2183.453	4539
2185.49	4569
2187.522	4531
2189.555	4475
2191.586	4514
2193.619	4497
2195.651	4531
2197.682	4567
2199.711	4462
2201.74	4545
2203.769	4523
2205.799	4515
2207.828	4551
2209.855	4513
2211.882	4508
2213.908	4501
2215.934	4487
2217.961	4522
2219.986	4466
2222.01	4481
2224.034	4554
2226.057	4605
2228.08	4492
2230.104	4508
2232.124	4575
2234.145	4449
2236.166	4409
2238.186	4565
2240.207	4516
2242.227	4529
2244.244	4570
2246.262	4432
2248.28	4577
2250.299	4478
2252.314	4585
2254.33	4492
2256.346	4512
2258.36	4555
2260.375	4475
2262.391	4540
2264.403	4498
2266.416	4584
2268.427	4502
2270.44	4488
2272.453	4480
2274.463	4530
2276.474	4508
2278.483	4556
2280.493	4500
2282.501	4479
2284.51	4474
2286.518	4527
2288.524	4497
2290.532	4512
2292.537	4568
2294.544	4532
2296.55	4513
2298.554	4560
2300.557	4465
2302.562	4486
2304.566	4600
2306.568	4371
2308.569	4488
2310.572	4510
2312.573	4552
2314.573	4487
2316.574	4466
2318.573	4533
2320.571	4508
2322.571	4596
2324.569	4488
2326.567	4582
2328.564	4428
2330.56	4473
2332.556	4515
2334.551	4523
2336.546	4561
2338.542	4566
2340.535	4497
2342.529	4446
2344.521	4466
2346.512	4474
2348.505	4452
2350.497	4446
2352.487	4514
2354.478	4483
2356.468	4374
2358.457	4462
2360.446	4462
2362.434	4401
2364.422	4401
2366.408	4411
2368.395	4462
2370.383	4470
2372.369	4381
2374.353	4431
2376.338	4350
2378.321	4463
2380.307	4428
2382.29	4518
2384.272	4389
2386.254	4486
2388.235	4491
2390.218	4444
2392.198	4525
2394.179	4448
2396.157	4467
2398.137	4392
2400.115	4452
2402.095	4405
2404.072	4428
2406.048	4485
2408.026	4352
2410.001	4508
2411.977	4425
2413.953	4359
2415.927	4456
2417.9	4397
2419.875	4359
2421.847	4468
2423.821	4456
2425.792	4447
2427.763	4408
2429.736	4469
2431.706	4455
2433.677	4423
2435.646	4447
2437.615	4485
2439.583	4430
2441.551	4340
2443.519	4492
2445.486	4427
2447.452	4450
2449.418	4448
2451.383	4491
2453.348	4389
2455.314	4427
2457.278	4408
2459.241	4371
2461.205	4415
2463.167	4478
2465.131	4430
2467.091	4402
2469.052	4430
2471.012	4491
2472.972	4432
2474.932	4362
2476.891	4431
2478.85	4352
2480.808	4437
2482.766	4425
2484.722	4317
2486.68	4406
2488.636	4359
2490.591	4370
2492.546	4422
2494.5	4425
2496.456	4291
2498.41	4367
2500.362	4358
2502.315	4403
2504.266	4451
2506.218	4360
2508.169	4350
2510.121	4323
2512.07	4315
2514.019	4422
2515.968	4335
2517.918	4399
2519.866	4421
2521.813	4309
2523.76	4322
2525.707	4366
2527.653	4330
2529.599	4344
2531.543	4333
2533.489	4395
2535.433	4348
2537.376	4388
2539.32	4314
2541.264	4406
2543.205	4300
2545.147	4304
2547.087	4396
2549.029	4322
2550.969	4446
2552.908	4374
2554.847	4365
2556.786	4338
2558.724	4406
2560.663	4278
2562.6	4401
2564.537	4395
2566.473	4386
2568.408	4344
2570.345	4345
2572.28	4406
2574.214	4366
2576.148	4332
2578.081	4345
2580.014	4419
2581.947	4355
2583.879	4354
2585.81	4380
2587.741	4524
2589.67	4434
2591.602	4415
2593.532	4360
2595.461	4447
2597.388	4351
2599.316	4331
2601.244	4385
2603.172	4498
2605.098	4404
2607.023	4444
2608.949	4417
2610.873	4415
2612.8	4350
2614.723	4396
2616.647	4367
2618.569	4384
2620.493	4477
2622.416	4398
2624.338	4397
2626.258	4383
2628.179	4400
2630.099	4425
2632.019	4447
2633.939	4481
2635.857	4306
2637.775	4396
2639.694	4399
2641.61	4568
2643.528	4507
2645.444	4462
2647.361	4351
2649.276	4385
2651.19	4419
2653.105	4354
2655.019	4503
2656.934	4529
2658.846	4416
2660.758	4322
2662.67	4370
2664.583	4365
2666.493	4360
2668.404	4351
2670.313	4425
2672.223	4437
2674.134	4462
2676.042	4338
2677.95	4434
2679.858	4423
2681.765	4319
2683.673	4443
2685.579	4439
2687.483	4409
2689.389	4420
2691.294	4405
2693.198	4447
2695.104	4386
2697.006	4410
2698.909	4383
2700.811	4337
2702.713	4439
2704.615	4404
2706.516	4363
2708.417	4395
2710.316	4327
2712.216	4368
2714.115	4351
2716.014	4398
2717.913	4340
2719.81	4453
2721.707	4353
2723.603	4408
2725.501	4378
2727.396	4323
2729.292	4384
2731.186	4309
2733.081	4420
2734.976	4367
2736.87	4365
2738.762	4353
2740.653	4353
2742.546	4391
2744.437	4315
2746.329	4454
2748.22	4420
2750.11	4361
2751.999	4340
2753.889	4289
2755.778	4292
2757.666	4299
2759.553	4378
2761.44	4337
2763.328	4307
2765.215	4374
2767.101	4366
2768.986	4424
2770.87	4368
2772.754	4380
2774.638	4326
2776.523	4293
2778.405	4361
2780.288	4264
2782.17	4255
2784.051	4326
2785.934	4356
2787.814	4278
2789.694	4376
2791.574	4352
2793.453	4349
2795.332	4424
2797.212	4263
2799.088	4302
2800.966	4289
2802.843	4321
2804.719	4306
2806.597	4353
2808.471	4333
2810.346	4312
2812.221	4299
2814.094	4424
2815.969	4298
2817.843	4300
2819.714	4313
2821.587	4277
2823.459	4350
2825.329	4245
2827.202	4370
2829.072	4325
2830.942	4291
2832.811	4241
2834.68	4281
2836.549	4331
2838.418	4482
2840.284	4304
2842.152	4320
2844.018	4287
2845.885	4331
2847.751	4333
2849.616	4305
2851.482	4324
2853.345	4380
2855.208	4323
2857.074	4337
2858.937	4355
2860.799	4351
2862.66	4434
2864.522	4536
2866.385	4458
2868.245	4434
2870.104	4401
2871.964	4536
2873.824	4510
2875.683	4514
2877.542	4512
2879.4	4526
2881.257	4546
2883.114	4606
2884.97	4536
2886.827	4701
2888.683	4523
2890.537	4568
2892.392	4543
2894.246	4493
2896.1	4567
2897.954	4570
2899.807	4545
2901.66	4583
2903.51	4566
2905.362	4555
2907.214	4528
2909.065	4553
2910.915	4593
2912.765	4640
2914.613	4556
2916.463	4647
2918.311	4703
2920.158	4743
2922.006	4694
2923.853	4723
2925.698	4750
2927.546	4776
2929.392	4833
2931.236	4864
2933.081	4768
2934.924	4861
2936.77	4895
2938.613	4858
2940.455	4959
2942.298	4945
2944.139	4902
2945.982	4982
2947.823	4869
2949.662	4932
2951.503	4914
2953.342	4822
2955.182	4858
2957.021	4729
2958.858	4826
2960.697	4766
2962.534	4724
2964.37	4738
2966.207	4698
2968.044	4664
2969.879	4684
2971.714	4679
2973.548	4645
2975.383	4648
2977.218	4613
2979.051	4603
2980.883	4605
2982.715	4606
2984.547	4638
2986.379	4568
2988.21	4536
2990.04	4520
2991.87	4455
2993.7	4552
2995.53	4438
2997.359	4506
2999.187	4383
3001.015	4526
3002.842	4374
3004.669	4298
3006.497	4315
3008.323	4349
3010.148	4325
3011.974	4256
3013.797	4300
3015.623	4178
3017.447	4326
3019.27	4213
3021.094	4186
3022.915	4225
3024.737	4198
3026.56	4253
3028.38	4265
3030.201	4195
3032.022	4216
3033.84	4205
3035.662	4230
3037.481	4156
3039.298	4199
3041.117	4149
3042.933	4160
3044.752	4066
3046.568	4158
3048.385	4175
3050.2	4189
3052.016	4249
3053.83	4178
3055.646	4187
3057.46	4130
3059.272	4192
3061.086	4085
3062.898	4207
3064.711	4198
3066.524	4225
3068.335	4183
3070.145	4137
3071.956	4152
3073.766	4162
3075.576	4126
3077.385	4142
3079.193	4148
3081.002	4176
3082.81	4108
3084.618	4097
3086.425	4145
3088.231	4103
3090.036	4086
3091.842	4151
3093.648	4012
3095.452	4074
3097.257	4110
3099.06	4122
3100.863	4151
3102.666	4082
3104.47	4049
3106.272	4081
3108.073	4062
3109.875	4108
3111.676	4177
3113.477	4122
3115.277	3994
3117.077	4085
3118.874	4005
3120.673	4009
3122.473	4022
3124.271	4004
3126.066	3994
3127.863	4084
3129.66	4030
3131.456	4019
3133.252	4066
3135.047	4024
3136.842	3904
3138.635	4063
3140.429	4032
3142.223	3912
3144.016	4012
3145.808	4002
3147.6	3979
3149.392	3926
3151.183	4007
3152.975	3950
3154.765	4010
3156.553	4021
3158.344	3925
3160.132	4030
3161.922	3981
3163.71	3968
3165.497	3936
3167.285	3972
3169.071	4013
3170.858	3941
3172.645	4021
3174.429	3962
3176.214	3918
3177.998	3972
3179.783	4027
3181.568	3942
3183.351	3923
3185.133	4071
3186.915	4016
3188.698	3968
3190.481	4034
3192.261	3998
3194.042	4025
3195.822	3947
3197.601	3956
3199.381	3947
3201.161	4060
3202.939	3880
3204.717	3986
3206.495	4015
3208.272	3929
3210.05	3850
3211.826	4029
3213.602	3920
3215.376	3844
3217.151	3966
3218.927	3846
3220.702	3887
3222.476	3916
3224.249	3884
3226.021	3964
3227.793	3929
3229.567	3866
3231.339	3955
3233.109	3924
3234.88	3909
3236.651	3873
3238.421	3995
3240.191	3950
3241.96	3932
3243.728	3917
3245.497	3929
3247.263	3935
3249.033	3916
3250.799	4012
3252.566	3897
3254.331	3935
3256.097	3889
3257.863	3931
3259.628	3932
3261.392	4036
3263.156	3872
3264.919	3936
3266.683	3901
3268.447	3911
3270.208	3928
3271.969	3980
3273.731	3957
3275.492	3934
3277.253	3879
3279.013	3840
3280.773	3878
3282.532	4031
3284.291	3973
3286.05	3901
3287.808	3932
3289.566	4029
3291.323	3995
3293.079	3841
3294.835	3882
3296.593	3967
3298.348	3955
3300.102	3958
3301.857	3985
3303.611	3904
3305.366	3944
3307.119	3957
3308.872	3943
3310.624	3883
3312.376	3912
3314.129	3938
3315.881	4010
3317.631	3853
3319.38	3974
3321.13	3909
3322.88	3921
3324.631	3856
3326.379	3913
3328.126	3945
3329.875	3961
3331.622	3941
3333.371	3869
3335.116	3921
3336.863	3900
3338.609	3923
3340.353	3829
3342.1	3855
3343.845	3913
3345.588	3898
3347.332	3905
3349.074	3782
3350.817	3930
3352.56	3910
3354.303	3847
3356.043	3847
3357.785	3842
3359.525	3885
3361.268	3898
3363.007	4011
3364.745	3758
3366.485	3900
3368.223	3812
3369.962	3836
3371.701	3793
3373.438	3889
3375.174	3825
3376.911	3878
3378.647	3956
3380.384	3863
3382.118	3858
3383.854	3782
3385.588	3730
3387.322	3852
3389.057	3840
3390.79	3900
3392.522	3860
3394.255	3826
3395.987	3869
3397.719	3822
3399.451	3809
3401.181	3695
3402.911	3845
3404.641	3829
3406.371	3678
3408.101	3801
3409.83	3867
3411.558	3874
3413.285	3840
3415.011	3819
3416.739	3887
3418.467	3771
3420.193	3781
3421.919	3732
3423.644	3764
3425.368	3793
3427.094	3808
3428.818	3767
3430.542	3816
3432.264	3799
3433.987	3757
3435.712	3724
3437.434	3724
3439.155	3703
3440.876	3750
3442.596	3858
3444.317	3797
3446.039	3691
3447.757	3711
3449.477	3700
3451.195	3777
3452.914	3682
3454.632	3701
3456.35	3709
3458.067	3683
3459.784	3651
3461.5	3751
3463.216	3674
3464.932	3682
3466.647	3663
3468.362	3688
3470.076	3697
3471.789	3701
3473.505	3823
3475.217	3661
3476.929	3761
3478.641	3701
3480.354	3687
3482.066	3667
3483.777	3628
3485.487	3663
3487.197	3679
3488.908	3623
3490.617	3708
3492.327	3622
3494.035	3603
3495.743	3591
3497.451	3639
3499.158	3639
3500.866	3662
3502.572	3616
3504.278	3633
3505.984	3619
3507.689	3615
3509.396	3674
3511.1	3658
3512.804	3626
3514.508	3576
3516.211	3570
3517.913	3665
3519.616	3649
3521.319	3647
3523.021	3629
3524.722	3560
3526.422	3443
3528.124	3543
3529.824	3607
3531.524	3672
3533.222	3515
3534.921	3622
3536.62	3599
3538.318	3577
3540.016	3561
3541.714	3531
3543.41	3521
3545.107	3563
3546.803	3560
3548.5	3563
3550.194	3625
3551.889	3444
3553.583	3603
3555.279	3551
3556.972	3550
3558.666	3625
3560.358	3529
3562.051	3493
3563.742	3480
3565.435	3540
3567.126	3629
3568.817	3580
3570.507	3573
3572.197	3499
3573.888	3569
3575.577	3540
3577.265	3444
3578.954	3521
3580.642	3566
3582.329	3553
3584.017	3383
3585.704	3514
3587.391	3501
3589.077	3449
3590.762	3504
3592.449	3476
3594.133	3503
3595.817	3429
3597.501	3497
3599.185	3397
3600.869	3398
3602.552	3516
3604.234	3502
3605.916	3435
3607.598	3442
3609.279	3480
3610.961	3496
3612.642	3363
3614.321	3462
3616	3409
3617.68	3430
3619.36	3419
3621.039	3436
3622.716	3417
3624.394	3448
3626.071	3382
3627.748	3424
3629.425	3484
3631.102	3371
3632.778	3487
3634.452	3412
3636.127	3331
3637.803	3452
3639.477	3383
3641.151	3381
3642.823	3371
3644.497	3384
3646.171	3366
3647.842	3407
3649.515	3367
3651.185	3380
3652.857	3357
3654.527	3322
3656.198	3388
3657.868	3381
3659.537	3328
3661.207	3342
3662.875	3330
3664.544	3333
3666.212	3293
3667.879	3313
3669.546	3354
3671.212	3318
3672.88	3278
3674.546	3341
3676.211	3372
3677.875	3341
3679.541	3274
3681.205	3351
3682.87	3355
3684.533	3319
3686.196	3342
3687.859	3252
3689.521	3285
3691.184	3245
3692.845	3428
3694.507	3306
3696.167	3321
3697.827	3312
3699.487	3285
3701.148	3337
3702.808	3300
3704.466	3278
3706.125	3264
3707.783	3311
3709.442	3349
3711.099	3345
3712.757	3308
3714.412	3285
3716.068	3263
3717.725	3315
3719.381	3244
3721.036	3217
3722.689	3312
3724.344	3309
3725.998	3309
3727.652	3214
3729.305	3194
3730.958	3273
3732.61	3274
3734.262	3227
3735.915	3210
3737.565	3236
3739.217	3265
3740.866	3253
3742.516	3248
3744.165	3254
3745.816	3235
3747.464	3231
3749.113	3190
3750.761	3235
3752.409	3270
3754.057	3284
3755.703	3204
3757.35	3256
3758.996	3200
3760.641	3209
3762.289	3178
3763.933	3198
3765.577	3263
3767.222	3163
3768.865	3201
3770.508	3215
3772.152	3152
3773.796	3177
3775.438	3231
3777.079	3210
3778.721	3227
3780.363	3180
3782.003	3187
3783.643	3201
3785.283	3078
3786.923	3164
3788.563	3264
3790.203	3226
3791.841	3152
3793.479	3099
3795.115	3046
3796.753	3108
3798.391	3106
3800.027	3148
3801.664	3149
3803.299	3077
3804.935	3157
3806.571	3198
3808.206	3193
3809.839	3159
3811.473	3101
3813.107	3117
3814.74	3141
3816.375	3121
3818.006	3160
3819.638	3084
3821.27	3085
3822.9	3130
3824.532	3160
3826.163	3176
3827.792	3206
3829.423	3073
3831.051	3045
3832.682	3103
3834.311	3182
3835.938	3133
3837.566	3135
3839.193	3139
3840.821	3175
3842.448	3132
3844.075	3079
3845.7	3092
3847.325	3113
3848.951	3081
3850.576	3048
3852.201	3005
3853.825	3064
3855.448	3045
3857.072	3181
3858.694	3066
3860.318	3086
3861.939	3098
3863.562	3054
3865.183	3072
3866.804	3049
3868.426	3068
3870.045	3102
3871.666	3051
3873.285	3034
3874.904	3063
3876.524	3051
3878.142	3035
3879.76	3041
3881.378	3101
3882.995	3055
3884.612	3037
3886.229	3005
3887.845	3062
3889.461	3009
3891.076	3083
3892.691	3032
3894.307	3073
3895.922	3032
3897.536	3096
3899.149	3057
3900.761	3000
3902.374	3012
3903.988	3015
3905.6	2979
3907.212	2958
3908.822	3038
3910.433	3006
3912.045	3014
3913.655	3017
3915.265	3010
3916.875	3026
3918.483	2922
3920.093	3020
3921.702	3063
3923.309	3033
3924.917	2990
3926.523	3015
3928.13	3022
3929.739	2985
3931.344	2983
3932.95	2958
3934.555	3024
3936.159	3047
3937.766	2959
3939.369	2943
3940.974	2962
3942.577	2940
3944.181	3022
3945.783	2867
3947.386	2928
3948.989	2935
3950.59	2888
3952.191	2948
3953.791	2947
3955.394	3011
3956.994	2991
3958.593	2949
3960.192	2886
3961.791	2962
3963.392	2937
3964.99	2982
3966.588	2882
3968.185	2925
3969.782	2963
3971.379	2955
3972.976	2927
3974.572	2950
3976.168	2910
3977.763	2860
3979.358	2908
3980.954	2966
3982.548	2954
3984.142	2961
3985.736	2945
3987.329	2908
3988.922	2908
3990.516	2916
3992.108	2890
3993.698	2927
3995.29	2914
3996.881	2986
3998.473	2875
4000.064	2937
4001.653	2900
4003.242	2891
4004.832	2893
4006.422	2904
4008.01	2838
4009.598	2864
4011.186	2893
4012.773	2908
4014.36	2808
4015.947	2851
4017.534	2718
4019.119	2843
4020.705	2851
4022.291	2885
4023.876	2904
4025.461	2813
4027.044	2874
4028.627	2839
4030.211	2878
4031.795	2769
4033.378	2728
4034.96	2817
4036.542	2827
4038.124	2781
4039.704	2741
4041.286	2867
4042.867	2732
4044.447	2828
4046.026	2792
4047.606	2791
4049.187	2826
4050.765	2817
4052.343	2792
4053.92	2785
4055.498	2824
4057.076	2822
4058.654	2822
4060.23	2756
4061.806	2801
4063.381	2785
4064.957	2836
4066.533	2820
4068.107	2802
4069.682	2827
4071.256	2796
4072.829	2775
4074.404	2729
4075.977	2761
4077.549	2781
4079.121	2728
4080.693	2777
4082.265	2815
4083.836	2769
4085.407	2755
4086.977	2754
4088.547	2820
4090.117	2786
4091.687	2741
4093.256	2770
4094.825	2719
4096.392	2713
4097.96	2762
4099.528	2710
4101.097	2735
4102.663	2755
4104.229	2671
4105.795	2817
4107.361	2682
4108.928	2647
4110.493	2764
4112.058	2702
4113.621	2669
4115.186	2706
4116.75	2657
4118.313	2698
4119.876	2828
4121.438	2738
4123	2679
4124.562	2633
4126.125	2680
4127.686	2690
4129.246	2656
4130.807	2649
4132.367	2703
4133.927	2641
4135.486	2669
4137.046	2650
4138.604	2660
4140.162	2669
4141.72	2629
4143.279	2604
4144.836	2689
4146.393	2590
4147.949	2602
4149.505	2641
4151.062	2649
4152.617	2609
4154.172	2606
4155.727	2658
4157.281	2654
4158.836	2588
4160.39	2641
4161.943	2631
4163.496	2676
4165.048	2601
4166.601	2640
4168.154	2646
4169.706	2648
4171.257	2625
4172.808	2667
4174.358	2574
4175.909	2518
4177.458	2644
4179.008	2665
4180.558	2645
4182.106	2599
4183.655	2630
4185.204	2561
4186.751	2570
4188.298	2536
4189.845	2606
4191.392	2508
4192.939	2621
4194.485	2647
4196.031	2595
4197.576	2591
4199.121	2575
4200.666	2525
4202.211	2579
4203.754	2646
4205.298	2582
4206.84	2568
4208.384	2499
4209.927	2577
4211.47	2575
4213.011	2560
4214.552	2591
4216.094	2516
4217.635	2532
4219.175	2610
4220.716	2530
4222.255	2559
4223.793	2557
4225.335	2533
4226.873	2492
4228.411	2520
4229.948	2574
4231.486	2484
4233.024	2537
4234.562	2509
4236.098	2561
4237.634	2544
4239.169	2500
4240.705	2498
4242.241	2555
4243.776	2504
4245.31	2499
4246.844	2573
4248.378	2538
4249.911	2543
4251.445	2584
4252.978	2521
4254.51	2417
4256.042	2499
4257.574	2541
4259.107	2554
4260.638	2541
4262.169	2521
4263.699	2526
4265.228	2441
4266.759	2479
4268.289	2500
4269.818	2404
4271.345	2503
4272.874	2487
4274.402	2564
4275.931	2453
4277.458	2473
4278.985	2465
4280.512	2454
4282.037	2517
4283.564	2441
4285.089	2523
4286.615	2485
4288.139	2512
4289.664	2504
4291.187	2437
4292.712	2496
4294.235	2500
4295.759	2410
4297.281	2480
4298.804	2491
4300.327	2427
4301.849	2427
4303.37	2425
4304.891	2439
4306.412	2467
4307.933	2416
4309.453	2457
4310.973	2450
4312.492	2398
