398.1873	3073
400.7097	3121
403.2336	3046
405.7547	3037
408.2751	3074
410.7948	3083
413.3138	3144
415.83	3179
418.3497	3124
420.8666	3109
423.3829	3213
425.8985	3179
428.4133	3206
430.9275	3238
433.441	3245
435.9538	3275
438.4639	3223
440.9753	3222
443.4881	3298
445.9982	3296
448.5055	3248
451.0142	3244
453.5201	3338
456.0274	3238
458.5361	3272
461.04	3278
463.5453	3322
466.0478	3250
468.5517	3310
471.0549	3248
473.5574	3184
476.0572	3289
478.5584	3282
481.0568	3264
483.5545	3340
486.0557	3307
488.5521	3321
491.0478	3348
493.5449	3315
496.0392	3365
498.5349	3317
501.0299	3385
503.5222	3385
506.0139	3338
508.5048	3448
510.9991	3321
513.4887	3380
515.9777	3435
518.4659	3414
520.9534	3394
523.4403	3407
525.9306	3452
528.4161	3521
530.9009	3397
533.3851	3389
535.8687	3390
538.3535	3412
540.8356	3375
543.3171	3371
545.7979	3410
548.278	3414
550.7595	3411
553.2383	3392
555.7144	3338
558.1918	3445
560.6685	3414
563.1446	3467
565.6221	3513
568.0968	3409
570.5688	3526
573.0422	3506
575.515	3407
577.989	3535
580.4584	3513
582.9291	3540
585.3991	3507
587.8685	3589
590.3352	3514
592.8052	3528
595.2706	3525
597.7372	3448
600.2033	3522
602.6666	3511
605.1334	3571
607.5953	3419
610.0587	3470
612.5193	3484
614.9814	3541
617.4427	3537
619.9034	3495
622.3615	3517
624.8208	3567
627.2775	3492
629.7335	3468
632.1929	3475
634.6476	3467
637.1016	3529
639.5569	3466
642.0096	3502
644.4637	3480
646.9151	3507
649.3678	3471
651.8179	3566
654.2672	3533
656.7159	3513
659.166	3528
661.6154	3606
664.0622	3573
666.5082	3614
668.9537	3636
671.4005	3515
673.8445	3511
676.288	3535
678.7308	3532
681.1729	3557
683.6163	3609
686.0572	3507
688.4973	3631
690.9368	3570
693.3757	3559
695.8138	3639
698.2534	3650
700.6902	3632
703.1245	3635
705.56	3691
707.9949	3614
710.4311	3629
712.8647	3692
715.2957	3687
717.7279	3606
720.1595	3650
722.5905	3722
725.0208	3714
727.4505	3731
729.8795	3701
732.3058	3695
734.7336	3683
737.1626	3679
739.587	3800
742.0128	3794
744.4359	3790
746.8604	3858
749.2841	3815
751.7073	3822
754.1278	3764
756.5496	3820
758.9688	3743
761.3893	3813
763.8093	3876
766.2285	3741
768.6451	3789
771.0611	3778
773.4784	3873
775.895	3910
778.3091	3908
780.7244	3961
783.1371	3831
785.5493	3855
787.9626	3772
790.3754	3898
792.7856	3923
795.1951	3866
797.6039	3846
800.0121	3858
802.4236	3933
804.8306	3857
807.2369	3937
809.6425	3955
812.0475	3892
814.4538	3936
816.8575	3900
819.2606	3837
821.663	3896
824.0648	3938
826.4659	3933
828.8683	3886
831.2682	3952
833.6674	3828
836.066	3975
838.4639	3903
840.8632	4037
843.2579	3917
845.6539	4038
848.0493	4011
850.444	3962
852.84	3983
855.2315	4017
857.6243	3958
860.0165	4010
862.4081	3934
864.797	3949
867.1892	3892
869.5789	3969
871.9659	3970
874.3542	4001
876.74	4033
879.129	3967
881.5155	4050
883.8994	3969
886.2845	3931
888.6671	3938
891.051	3930
893.4343	4005
895.8169	4016
898.197	3933
900.5783	4018
902.9571	3930
905.3372	3969
907.7167	3930
910.0936	3993
912.4698	4010
914.8474	4081
917.2244	4014
919.5987	4003
921.9744	4101
924.3475	4047
926.72	4063
929.0918	4233
931.4669	4147
933.8375	4194
936.2074	4143
938.5767	4243
940.9454	4218
943.3154	4237
945.6829	4329
948.0497	4401
950.4178	4365
952.7833	4484
955.1483	4696
957.5145	4882
959.8782	4815
962.2412	4923
964.6036	4807
966.9655	4709
969.3266	4585
971.6871	4397
974.0471	4267
976.4064	4232
978.765	4070
981.125	4036
983.4824	4143
985.8373	4095
988.1935	4121
990.549	4136
992.9039	4126
995.2602	4127
997.6119	4080
999.965	4067
1002.317	4173
1004.667	4124
1007.02	4132
1009.371	4163
1011.719	4131
1014.068	4153
1016.415	4192
1018.765	4186
1021.111	4181
1023.458	4175
1025.804	4202
1028.147	4195
1030.49	4143
1032.837	4168
1035.179	4228
1037.522	4243
1039.862	4243
1042.204	4195
1044.546	4219
1046.884	4218
1049.224	4090
1051.562	4205
1053.899	4177
1056.237	4242
1058.575	4195
1060.91	4283
1063.244	4294
1065.58	4212
1067.913	4216
1070.248	4217
1072.579	4364
1074.911	4164
1077.242	4244
1079.572	4187
1081.905	4239
1084.234	4239
1086.562	4159
1088.89	4238
1091.217	4298
1093.544	4247
1095.871	4180
1098.197	4125
1100.521	4217
1102.845	4217
1105.169	4150
1107.491	4261
1109.814	4213
1112.135	4204
1114.456	4167
1116.776	4157
1119.096	4224
1121.415	4173
1123.734	4245
1126.052	4204
1128.369	4250
1130.686	4257
1133.002	4245
1135.318	4297
1137.632	4219
1139.945	4277
1142.258	4264
1144.573	4295
1146.884	4295
1149.196	4338
1151.505	4312
1153.816	4337
1156.124	4198
1158.435	4316
1160.742	4297
1163.051	4216
1165.356	4264
1167.663	4303
1169.97	4359
1172.276	4299
1174.579	4234
1176.881	4269
1179.186	4275
1181.487	4308
1183.79	4277
1186.092	4286
1188.392	4272
1190.691	4240
1192.991	4350
1195.291	4136
1197.588	4284
1199.885	4334
1202.181	4288
1204.479	4225
1206.775	4178
1209.07	4303
1211.363	4318
1213.656	4309
1215.949	4342
1218.241	4356
1220.534	4264
1222.825	4347
1225.115	4368
1227.405	4260
1229.693	4222
1231.984	4384
1234.271	4375
1236.558	4425
1238.845	4302
1241.131	4421
1243.416	4350
1245.703	4441
1247.987	4349
1250.269	4437
1252.552	4302
1254.834	4412
1257.118	4402
1259.399	4364
1261.678	4393
1263.958	4497
1266.237	4388
1268.516	4391
1270.794	4342
1273.072	4434
1275.347	4340
1277.624	4330
1279.899	4371
1282.175	4397
1284.449	4438
1286.722	4396
1288.995	4422
1291.266	4379
1293.54	4388
1295.81	4396
1298.081	4386
1300.35	4452
1302.62	4445
1304.889	4315
1307.156	4418
1309.425	4341
1311.69	4302
1313.957	4251
1316.222	4456
1318.488	4367
1320.751	4392
1323.016	4362
1325.278	4343
1327.54	4356
1329.803	4404
1332.065	4372
1334.325	4367
1336.584	4344
1338.843	4412
1341.101	4466
1343.36	4338
1345.617	4509
1347.876	4368
1350.131	4447
1352.387	4347
1354.643	4477
1356.897	4439
1359.151	4416
1361.403	4385
1363.656	4472
1365.909	4473
1368.16	4420
1370.409	4352
1372.659	4462
1374.909	4453
1377.157	4423
1379.407	4458
1381.655	4378
1383.9	4423
1386.147	4385
1388.393	4460
1390.64	4532
1392.885	4501
1395.127	4472
1397.37	4457
1399.614	4448
1401.854	4440
1404.098	4474
1406.339	4544
1408.578	4476
1410.818	4448
1413.056	4454
1415.297	4524
1417.533	4530
1419.771	4405
1422.006	4479
1424.243	4527
1426.479	4432
1428.715	4514
1430.948	4507
1433.182	4562
1435.414	4601
1437.647	4546
1439.88	4584
1442.11	4614
1444.342	4601
1446.571	4598
1448.799	4525
1451.029	4616
1453.258	4518
1455.485	4655
1457.711	4669
1459.937	4602
1462.164	4629
1464.39	4554
1466.614	4467
1468.838	4543
1471.06	4577
1473.283	4548
1475.506	4483
1477.727	4621
1479.949	4511
1482.169	4585
1484.389	4578
1486.609	4552
1488.828	4487
1491.045	4454
1493.261	4435
1495.477	4561
1497.693	4506
1499.91	4470
1502.125	4443
1504.339	4452
1506.553	4501
1508.766	4477
1510.979	4526
1513.191	4502
1515.402	4526
1517.613	4526
1519.823	4517
1522.033	4505
1524.242	4461
1526.451	4490
1528.657	4537
1530.865	4371
1533.072	4384
1535.278	4465
1537.484	4476
1539.687	4560
1541.892	4529
1544.096	4456
1546.299	4416
1548.502	4590
1550.703	4532
1552.905	4511
1555.104	4443
1557.303	4627
1559.505	4533
1561.703	4536
1563.902	4545
1566.099	4520
1568.295	4563
1570.494	4599
1572.689	4626
1574.883	4579
1577.079	4528
1579.272	4592
1581.467	4585
1583.659	4548
1585.853	4613
1588.044	4621
1590.234	4663
1592.424	4578
1594.615	4625
1596.806	4618
1598.994	4590
1601.182	4555
1603.369	4616
1605.557	4626
1607.744	4645
1609.929	4615
1612.114	4618
1614.298	4639
1616.482	4614
1618.667	4630
1620.85	4598
1623.032	4609
1625.214	4594
1627.395	4657
1629.575	4652
1631.755	4736
1633.935	4698
1636.114	4593
1638.292	4686
1640.471	4613
1642.647	4734
1644.823	4701
1647	4665
1649.175	4697
1651.348	4673
1653.525	4718
1655.698	4707
1657.87	4716
1660.043	4781
1662.213	4776
1664.387	4736
1666.558	4705
1668.727	4651
1670.896	4744
1673.064	4738
1675.233	4719
1677.401	4753
1679.569	4776
1681.735	4687
1683.902	4794
1686.066	4699
1688.233	4749
1690.397	4665
1692.559	4748
1694.723	4732
1696.885	4623
1699.048	4682
1701.21	4724
1703.37	4661
1705.53	4644
1707.689	4692
1709.849	4597
1712.009	4638
1714.166	4675
1716.323	4712
1718.479	4645
1720.634	4717
1722.793	4692
1724.948	4632
1727.102	4646
1729.255	4558
1731.408	4609
1733.562	4735
1735.714	4652
1737.865	4652
1740.016	4611
1742.166	4642
1744.316	4634
1746.467	4619
1748.616	4745
1750.764	4568
1752.911	4664
1755.056	4668
1757.205	4741
1759.35	4742
1761.496	4652
1763.641	4633
1765.785	4686
1767.927	4740
1770.072	4656
1772.214	4653
1774.355	4702
1776.496	4657
1778.637	4795
1780.778	4756
1782.918	4750
1785.057	4728
1787.194	4678
1789.333	4704
1791.472	4788
1793.608	4676
1795.745	4683
1797.879	4696
1800.015	4773
1802.148	4717
1804.284	4848
1806.417	4692
1808.548	4782
1810.682	4715
1812.812	4715
1814.946	4706
1817.075	4715
1819.205	4826
1821.335	4767
1823.463	4854
1825.59	4726
1827.721	4768
1829.847	4820
1831.973	4767
1834.098	4743
1836.223	4726
1838.351	4716
1840.475	4794
1842.598	4758
1844.721	4791
1846.843	4736
1848.966	4711
1851.087	4597
1853.21	4776
1855.33	4714
1857.449	4694
1859.568	4679
1861.688	4701
1863.806	4714
1865.924	4689
1868.039	4636
1870.155	4540
1872.273	4694
1874.388	4699
1876.503	4660
1878.617	4699
1880.73	4743
1882.844	4747
1884.956	4761
1887.068	4698
1889.18	4767
1891.291	4783
1893.4	4709
1895.511	4751
1897.621	4635
1899.73	4874
1901.837	4727
1903.944	4807
1906.053	4791
1908.159	4794
1910.265	4723
1912.369	4837
1914.474	4769
1916.577	4813
1918.683	4789
1920.785	4799
1922.888	4863
1924.989	4822
1927.091	4835
1929.193	4860
1931.294	4791
1933.393	4756
1935.493	4759
1937.59	4823
1939.689	4747
1941.788	4846
1943.884	4782
1945.98	4807
1948.077	4768
1950.171	4946
1952.267	4784
1954.361	4863
1956.455	4831
1958.548	4830
1960.64	4893
1962.733	4779
1964.824	4961
1966.915	4864
1969.005	4872
1971.096	4786
1973.185	4790
1975.275	4807
1977.363	4838
1979.45	4738
1981.537	4858
1983.623	4864
1985.711	4776
1987.796	4775
1989.881	4903
1991.965	4889
1994.047	4898
1996.132	4765
1998.215	4810
2000.297	4765
2002.378	4807
2004.46	4908
2006.54	4753
2008.62	4746
2010.7	4900
2012.779	4820
2014.858	4825
2016.934	4858
2019.013	4802
2021.09	4824
2023.165	4771
2025.241	4819
2027.317	4839
2029.39	4835
2031.466	4896
2033.538	4738
2035.612	4848
2037.683	4838
2039.755	4830
2041.827	4787
2043.898	4824
2045.968	4799
2048.038	4779
2050.106	4844
2052.177	4785
2054.244	4815
2056.313	4797
2058.379	4862
2060.444	4884
2062.511	4862
2064.577	4875
2066.641	4882
2068.705	4924
2070.77	4932
2072.832	4772
2074.896	4801
2076.958	4771
2079.02	4816
2081.081	4896
2083.141	4846
2085.2	4891
2087.261	4895
2089.319	4814
2091.377	4855
2093.435	4896
2095.492	4882
2097.552	4871
2099.607	4761
2101.663	4902
2103.718	4887
2105.771	4870
2107.826	4761
2109.879	4761
2111.932	4835
2113.985	4785
2116.037	4819
2118.088	4937
2120.141	4825
2122.191	4764
2124.239	4837
2126.288	4856
2128.337	4795
2130.387	4806
2132.434	4856
2134.481	4782
2136.528	4878
2138.574	4892
2140.618	4899
2142.665	4857
2144.71	4784
2146.753	4683
2148.797	4838
2150.838	4882
2152.883	4822
2154.923	4816
2156.965	4743
2159.007	4839
2161.046	4842
2163.086	4851
2165.126	4770
2167.163	4760
2169.202	4771
2171.239	4915
2173.277	4826
2175.314	4802
2177.349	4750
2179.385	4826
2181.42	4824
2183.453	4752
2185.49	4792
2187.522	4803
2189.555	4902
2191.586	4742
2193.619	4761
2195.651	4772
2197.682	4878
2199.711	4811
2201.74	4742
2203.769	4753
2205.799	4767
2207.828	4778
2209.855	4805
2211.882	4831
2213.908	4700
2215.934	4833
2217.961	4717
2219.986	4751
2222.01	4662
2224.034	4763
2226.057	4820
2228.08	4768
2230.104	4751
2232.124	4823
2234.145	4794
2236.166	4780
2238.186	4765
2240.207	4723
2242.227	4761
2244.244	4702
2246.262	4696
2248.28	4774
2250.299	4766
2252.314	4727
2254.33	4818
2256.346	4733
2258.36	4862
2260.375	4779
2262.391	4790
2264.403	4819
2266.416	4731
2268.427	4778
2270.44	4777
2272.453	4726
2274.463	4758
2276.474	4718
2278.483	4827
2280.493	4740
2282.501	4790
2284.51	4840
2286.518	4872
2288.524	4711
2290.532	4798
2292.537	4781
2294.544	4705
2296.55	4693
2298.554	4853
2300.557	4780
2302.562	4772
2304.566	4784
2306.568	4775
2308.569	4770
2310.572	4707
2312.573	4782
2314.573	4867
2316.574	4777
2318.573	4787
2320.571	4823
2322.571	4762
2324.569	4764
2326.567	4802
2328.564	4737
2330.56	4671
2332.556	4767
2334.551	4796
2336.546	4773
2338.542	4742
2340.535	4755
2342.529	4721
2344.521	4731
2346.512	4759
2348.505	4808
2350.497	4684
2352.487	4695
2354.478	4651
2356.468	4745
2358.457	4840
2360.446	4746
2362.434	4795
2364.422	4606
2366.408	4665
2368.395	4753
2370.383	4718
2372.369	4632
2374.353	4745
2376.338	4658
2378.321	4706
2380.307	4733
2382.29	4682
2384.272	4699
2386.254	4676
2388.235	4634
2390.218	4623
2392.198	4637
2394.179	4599
2396.157	4655
2398.137	4746
2400.115	4547
2402.095	4715
2404.072	4723
2406.048	4670
2408.026	4632
2410.001	4692
2411.977	4718
2413.953	4600
2415.927	4649
2417.9	4676
2419.875	4617
2421.847	4732
2423.821	4640
2425.792	4771
2427.763	4639
2429.736	4624
2431.706	4668
2433.677	4656
2435.646	4655
2437.615	4608
2439.583	4729
2441.551	4672
2443.519	4741
2445.486	4614
2447.452	4614
2449.418	4649
2451.383	4697
2453.348	4648
2455.314	4705
2457.278	4666
2459.241	4696
2461.205	4603
2463.167	4710
2465.131	4579
2467.091	4704
2469.052	4527
2471.012	4616
2472.972	4660
2474.932	4638
2476.891	4539
2478.85	4697
2480.808	4650
2482.766	4646
2484.722	4739
2486.68	4676
2488.636	4659
2490.591	4698
2492.546	4650
2494.5	4609
2496.456	4652
2498.41	4582
2500.362	4611
2502.315	4634
2504.266	4582
2506.218	4630
2508.169	4574
2510.121	4646
2512.07	4597
2514.019	4507
2515.968	4705
2517.918	4533
2519.866	4588
2521.813	4523
2523.76	4546
2525.707	4600
2527.653	4615
2529.599	4614
2531.543	4663
2533.489	4575
2535.433	4626
2537.376	4648
2539.32	4641
2541.264	4625
2543.205	4531
2545.147	4657
2547.087	4613
2549.029	4556
2550.969	4635
2552.908	4555
2554.847	4559
2556.786	4535
2558.724	4533
2560.663	4657
2562.6	4649
2564.537	4608
2566.473	4576
2568.408	4552
2570.345	4693
2572.28	4632
2574.214	4713
2576.148	4626
2578.081	4659
2580.014	4548
2581.947	4531
2583.879	4608
2585.81	4634
2587.741	4664
2589.67	4601
2591.602	4582
2593.532	4574
2595.461	4547
2597.388	4713
2599.316	4644
2601.244	4574
2603.172	4654
2605.098	4676
2607.023	4658
2608.949	4640
2610.873	4521
2612.8	4701
2614.723	4634
2616.647	4707
2618.569	4698
2620.493	4710
2622.416	4708
2624.338	4625
2626.258	4661
2628.179	4710
2630.099	4702
2632.019	4707
2633.939	4642
2635.857	4605
2637.775	4644
2639.694	4700
2641.61	4642
2643.528	4644
2645.444	4651
2647.361	4589
2649.276	4677
2651.19	4638
2653.105	4635
2655.019	4636
2656.934	4667
2658.846	4571
2660.758	4554
2662.67	4543
2664.583	4711
2666.493	4687
2668.404	4614
2670.313	4638
2672.223	4597
2674.134	4532
2676.042	4600
2677.95	4579
2679.858	4661
2681.765	4630
2683.673	4668
2685.579	4624
2687.483	4576
2689.389	4592
2691.294	4610
2693.198	4619
2695.104	4536
2697.006	4630
2698.909	4515
2700.811	4617
2702.713	4648
2704.615	4717
2706.516	4647
2708.417	4522
2710.316	4555
2712.216	4628
2714.115	4625
2716.014	4577
2717.913	4563
2719.81	4506
2721.707	4526
2723.603	4699
2725.501	4670
2727.396	4573
2729.292	4560
2731.186	4570
2733.081	4594
2734.976	4569
2736.87	4650
2738.762	4519
2740.653	4625
2742.546	4694
2744.437	4581
2746.329	4541
2748.22	4626
2750.11	4478
2751.999	4517
2753.889	4583
2755.778	4601
2757.666	4521
2759.553	4567
2761.44	4596
2763.328	4560
2765.215	4575
2767.101	4601
2768.986	4616
2770.87	4514
2772.754	4508
2774.638	4552
2776.523	4600
2778.405	4494
2780.288	4615
2782.17	4542
2784.051	4590
2785.934	4532
2787.814	4547
2789.694	4572
2791.574	4519
2793.453	4522
2795.332	4553
2797.212	4613
2799.088	4400
2800.966	4472
2802.843	4502
2804.719	4500
2806.597	4547
2808.471	4559
2810.346	4603
2812.221	4516
2814.094	4511
2815.969	4576
2817.843	4516
2819.714	4555
2821.587	4585
2823.459	4450
2825.329	4529
2827.202	4530
2829.072	4547
2830.942	4539
2832.811	4589
2834.68	4520
2836.549	4572
2838.418	4553
2840.284	4459
2842.152	4546
2844.018	4579
2845.885	4422
2847.751	4551
2849.616	4450
2851.482	4614
2853.345	4613
2855.208	4523
2857.074	4480
2858.937	4537
2860.799	4546
2862.66	4505
2864.522	4653
2866.385	4562
2868.245	4601
2870.104	4671
2871.964	4677
2873.824	4696
2875.683	4637
2877.542	4600
2879.4	4721
2881.257	4696
2883.114	4854
2884.97	4602
2886.827	4674
2888.683	4634
2890.537	4674
2892.392	4658
2894.246	4630
2896.1	4711
2897.954	4707
2899.807	4685
2901.66	4742
2903.51	4749
2905.362	4678
2907.214	4720
2909.065	4791
2910.915	4748
2912.765	4737
2914.613	4703
2916.463	4764
2918.311	4806
2920.158	4847
2922.006	4832
2923.853	4890
2925.698	4907
2927.546	4883
2929.392	4830
2931.236	5007
2933.081	5039
2934.924	5047
2936.77	4977
2938.613	5080
2940.455	5013
2942.298	5025
2944.139	5031
2945.982	5139
2947.823	5049
2949.662	5103
2951.503	5062
2953.342	4964
2955.182	4994
2957.021	5009
2958.858	4929
2960.697	4850
2962.534	4958
2964.37	4841
2966.207	4802
2968.044	4873
2969.879	4814
2971.714	4744
2973.548	4819
2975.383	4760
2977.218	4731
2979.051	4786
2980.883	4807
2982.715	4666
2984.547	4726
2986.379	4705
2988.21	4601
2990.04	4637
2991.87	4699
2993.7	4727
2995.53	4588
2997.359	4584
2999.187	4568
3001.015	4570
3002.842	4622
3004.669	4515
3006.497	4568
3008.323	4439
3010.148	4512
3011.974	4534
3013.797	4497
3015.623	4478
3017.447	4451
3019.27	4406
3021.094	4433
3022.915	4333
3024.737	4401
3026.56	4342
3028.38	4401
3030.201	4367
3032.022	4324
3033.84	4367
3035.662	4405
3037.481	4365
3039.298	4360
3041.117	4356
3042.933	4374
3044.752	4320
3046.568	4420
3048.385	4316
3050.2	4302
3052.016	4396
3053.83	4340
3055.646	4370
3057.46	4336
3059.272	4233
3061.086	4293
3062.898	4365
3064.711	4335
3066.524	4359
3068.335	4350
3070.145	4231
3071.956	4399
3073.766	4277
3075.576	4282
3077.385	4294
3079.193	4337
3081.002	4238
3082.81	4324
3084.618	4233
3086.425	4255
3088.231	4353
3090.036	4280
3091.842	4227
3093.648	4179
3095.452	4195
3097.257	4220
3099.06	4186
3100.863	4129
3102.666	4326
3104.47	4207
3106.272	4210
3108.073	4300
3109.875	4341
3111.676	4275
3113.477	4260
3115.277	4216
3117.077	4274
3118.874	4287
3120.673	4202
3122.473	4215
3124.271	4228
3126.066	4216
3127.863	4275
3129.66	4192
3131.456	4249
3133.252	4184
3135.047	4195
3136.842	4138
3138.635	4166
3140.429	4189
3142.223	4115
3144.016	4152
3145.808	4135
3147.6	4153
3149.392	4139
3151.183	4116
3152.975	4138
3154.765	4180
3156.553	4102
3158.344	4212
3160.132	4070
3161.922	4190
3163.71	4096
3165.497	4185
3167.285	4032
3169.071	4107
3170.858	4138
3172.645	4090
3174.429	4048
3176.214	4166
3177.998	4099
3179.783	4140
3181.568	4044
3183.351	4128
3185.133	3996
3186.915	4025
3188.698	4150
3190.481	4110
3192.261	4144
3194.042	4151
3195.822	4067
3197.601	4041
3199.381	4093
3201.161	4063
3202.939	4031
3204.717	4132
3206.495	4017
3208.272	4022
3210.05	4056
3211.826	4081
3213.602	4044
3215.376	4067
3217.151	4059
3218.927	4088
3220.702	3993
3222.476	4047
3224.249	4073
3226.021	3954
3227.793	4058
3229.567	4165
3231.339	4070
3233.109	4062
3234.88	4082
3236.651	4066
3238.421	4057
3240.191	4032
3241.96	4068
3243.728	4048
3245.497	4124
3247.263	4152
3249.033	4002
3250.799	4045
3252.566	4033
3254.331	4050
3256.097	4080
3257.863	4062
3259.628	4012
3261.392	4039
3263.156	4060
3264.919	4018
3266.683	3995
3268.447	4104
3270.208	3960
3271.969	4047
3273.731	4030
3275.492	4132
3277.253	3992
3279.013	3999
3280.773	4039
3282.532	4095
3284.291	4069
3286.05	4067
3287.808	4045
3289.566	4075
3291.323	4097
3293.079	4104
3294.835	4083
3296.593	4117
3298.348	4021
3300.102	4106
3301.857	4048
3303.611	4114
3305.366	4108
3307.119	3934
3308.872	4014
3310.624	4098
3312.376	4078
3314.129	4068
3315.881	4069
3317.631	4025
3319.38	4087
3321.13	4040
3322.88	4053
3324.631	4048
3326.379	3995
3328.126	4077
3329.875	4096
3331.622	4028
3333.371	4036
3335.116	4018
3336.863	4020
3338.609	4015
3340.353	3991
3342.1	4017
3343.845	3983
3345.588	3976
3347.332	4084
3349.074	4058
3350.817	4066
3352.56	3937
3354.303	4097
3356.043	3961
3357.785	3881
3359.525	3923
3361.268	3994
3363.007	3915
3364.745	3955
3366.485	3979
3368.223	4041
3369.962	3930
3371.701	3919
3373.438	3993
3375.174	3972
3376.911	3930
3378.647	3947
3380.384	3980
3382.118	3981
3383.854	3937
3385.588	3976
3387.322	3878
3389.057	3942
3390.79	3923
3392.522	3950
3394.255	3998
3395.987	3888
3397.719	3870
3399.451	3852
3401.181	3967
3402.911	3902
3404.641	3947
3406.371	3959
3408.101	3941
3409.83	3919
3411.558	3936
3413.285	3965
3415.011	3917
3416.739	3853
3418.467	3881
3420.193	3945
3421.919	3816
3423.644	3914
3425.368	3931
3427.094	3969
3428.818	3836
3430.542	3919
3432.264	3818
3433.987	3889
3435.712	3931
3437.434	3885
3439.155	3911
3440.876	3785
3442.596	3846
3444.317	3878
3446.039	3859
3447.757	3766
3449.477	3793
3451.195	3876
3452.914	3831
3454.632	3845
3456.35	3888
3458.067	3840
3459.784	3903
3461.5	3849
3463.216	3743
3464.932	3752
3466.647	3829
3468.362	3812
3470.076	3803
3471.789	3816
3473.505	3801
3475.217	3771
3476.929	3791
3478.641	3796
3480.354	3810
3482.066	3793
3483.777	3776
3485.487	3820
3487.197	3719
3488.908	3787
3490.617	3748
3492.327	3698
3494.035	3729
3495.743	3776
3497.451	3665
3499.158	3634
3500.866	3749
3502.572	3706
3504.278	3840
3505.984	3745
3507.689	3729
3509.396	3802
3511.1	3683
3512.804	3737
3514.508	3744
3516.211	3680
3517.913	3740
3519.616	3629
3521.319	3677
3523.021	3749
3524.722	3725
3526.422	3604
3528.124	3671
3529.824	3709
3531.524	3655
3533.222	3710
3534.921	3673
3536.62	3732
3538.318	3624
3540.016	3665
3541.714	3688
3543.41	3685
3545.107	3635
3546.803	3743
3548.5	3716
3550.194	3601
3551.889	3720
3553.583	3652
3555.279	3675
3556.972	3670
3558.666	3634
3560.358	3647
3562.051	3686
3563.742	3575
3565.435	3610
3567.126	3601
3568.817	3595
3570.507	3667
3572.197	3675
3573.888	3641
3575.577	3617
3577.265	3627
3578.954	3581
3580.642	3621
3582.329	3614
3584.017	3598
3585.704	3592
3587.391	3610
3589.077	3621
3590.762	3622
3592.449	3621
3594.133	3572
3595.817	3569
3597.501	3660
3599.185	3599
3600.869	3574
3602.552	3517
3604.234	3662
3605.916	3589
3607.598	3541
3609.279	3589
3610.961	3592
3612.642	3479
3614.321	3615
3616	3588
3617.68	3505
3619.36	3571
3621.039	3510
3622.716	3680
3624.394	3572
3626.071	3511
3627.748	3507
3629.425	3542
3631.102	3545
3632.778	3522
3634.452	3414
3636.127	3536
3637.803	3468
3639.477	3518
3641.151	3469
3642.823	3425
3644.497	3479
3646.171	3479
3647.842	3497
3649.515	3384
3651.185	3460
3652.857	3547
3654.527	3462
3656.198	3428
3657.868	3487
3659.537	3472
3661.207	3489
3662.875	3402
3664.544	3434
3666.212	3412
3667.879	3489
3669.546	3397
3671.212	3382
3672.88	3445
3674.546	3467
3676.211	3361
3677.875	3448
3679.541	3423
3681.205	3441
3682.87	3391
3684.533	3340
3686.196	3441
3687.859	3387
3689.521	3362
3691.184	3356
3692.845	3428
3694.507	3366
3696.167	3394
3697.827	3421
3699.487	3396
3701.148	3408
3702.808	3416
3704.466	3405
3706.125	3396
3707.783	3368
3709.442	3408
3711.099	3376
3712.757	3399
3714.412	3361
3716.068	3393
3717.725	3364
3719.381	3406
3721.036	3417
3722.689	3395
3724.344	3386
3725.998	3317
3727.652	3413
3729.305	3460
3730.958	3341
3732.61	3382
3734.262	3347
3735.915	3319
3737.565	3337
3739.217	3343
3740.866	3317
3742.516	3406
3744.165	3345
3745.816	3289
3747.464	3312
3749.113	3272
3750.761	3310
3752.409	3344
3754.057	3362
3755.703	3332
3757.35	3271
3758.996	3310
3760.641	3308
3762.289	3234
3763.933	3293
3765.577	3303
3767.222	3278
3768.865	3313
3770.508	3301
3772.152	3222
3773.796	3281
3775.438	3257
3777.079	3290
3778.721	3294
3780.363	3310
3782.003	3202
3783.643	3352
3785.283	3253
3786.923	3287
3788.563	3175
3790.203	3222
3791.841	3299
3793.479	3294
3795.115	3302
3796.753	3309
3798.391	3271
3800.027	3136
3801.664	3162
3803.299	3268
3804.935	3286
3806.571	3273
3808.206	3257
3809.839	3255
3811.473	3266
3813.107	3229
3814.74	3214
3816.375	3192
3818.006	3163
3819.638	3210
3821.27	3235
3822.9	3171
3824.532	3154
3826.163	3284
3827.792	3273
3829.423	3279
3831.051	3216
3832.682	3196
3834.311	3138
3835.938	3197
3837.566	3175
3839.193	3184
3840.821	3160
3842.448	3136
3844.075	3222
3845.7	3172
3847.325	3229
3848.951	3192
3850.576	3129
3852.201	3198
3853.825	3180
3855.448	3175
3857.072	3190
3858.694	3175
3860.318	3124
3861.939	3109
3863.562	3187
3865.183	3182
3866.804	3229
3868.426	3167
3870.045	3161
3871.666	3105
3873.285	3107
3874.904	3049
3876.524	3127
3878.142	3123
3879.76	3152
3881.378	3092
3882.995	3190
3884.612	3049
3886.229	3158
3887.845	3190
3889.461	3088
3891.076	3146
3892.691	3133
3894.307	3012
3895.922	3088
3897.536	3124
3899.149	3174
3900.761	3097
3902.374	3111
3903.988	3157
3905.6	3193
3907.212	3105
3908.822	3104
3910.433	3193
3912.045	3172
3913.655	3091
3915.265	3076
3916.875	3049
3918.483	3097
3920.093	3109
3921.702	3085
3923.309	3097
3924.917	3120
3926.523	3083
3928.13	3058
3929.739	3171
3931.344	3080
3932.95	3075
3934.555	3087
3936.159	3028
3937.766	3068
3939.369	3121
3940.974	3050
3942.577	3013
3944.181	3133
3945.783	3022
3947.386	3028
3948.989	3063
3950.59	3096
3952.191	2928
3953.791	3017
3955.394	3077
3956.994	3055
3958.593	3058
3960.192	3027
3961.791	3085
3963.392	3102
3964.99	3090
3966.588	3027
3968.185	2996
3969.782	2996
3971.379	3035
3972.976	2971
3974.572	3028
3976.168	3018
3977.763	3024
3979.358	3001
3980.954	3060
3982.548	3026
3984.142	3037
3985.736	2926
3987.329	3047
3988.922	2952
3990.516	2975
3992.108	2911
3993.698	3080
3995.29	2942
3996.881	2919
3998.473	2910
4000.064	2988
4001.653	2979
4003.242	2913
4004.832	2948
4006.422	3014
4008.01	2989
4009.598	2989
4011.186	2922
4012.773	2975
4014.36	3008
4015.947	2889
4017.534	2965
4019.119	2946
4020.705	2886
4022.291	2896
4023.876	2913
4025.461	2944
4027.044	2905
4028.627	2925
4030.211	2946
4031.795	2901
4033.378	2854
4034.96	2916
4036.542	2844
4038.124	2897
4039.704	2869
4041.286	2966
4042.867	2872
4044.447	2872
4046.026	2915
4047.606	2882
4049.187	2818
4050.765	2849
4052.343	2888
4053.92	2928
4055.498	2850
4057.076	2880
4058.654	2869
4060.23	2866
4061.806	2875
4063.381	2865
4064.957	2830
4066.533	2810
4068.107	2801
4069.682	2872
4071.256	2807
4072.829	2820
4074.404	2895
4075.977	2872
4077.549	2826
4079.121	2787
4080.693	2830
4082.265	2841
4083.836	2834
4085.407	2853
4086.977	2843
4088.547	2826
4090.117	2764
4091.687	2855
4093.256	2821
4094.825	2832
4096.392	2763
4097.96	2747
4099.528	2842
4101.097	2801
4102.663	2777
4104.229	2768
4105.795	2778
4107.361	2781
4108.928	2788
4110.493	2792
4112.058	2812
4113.621	2793
4115.186	2762
4116.75	2865
4118.313	2826
4119.876	2738
4121.438	2787
4123	2736
4124.562	2738
4126.125	2688
4127.686	2695
4129.246	2714
4130.807	2683
4132.367	2681
4133.927	2769
4135.486	2695
4137.046	2671
4138.604	2684
4140.162	2738
4141.72	2728
4143.279	2652
4144.836	2809
4146.393	2691
4147.949	2660
4149.505	2779
4151.062	2762
4152.617	2689
4154.172	2690
4155.727	2689
4157.281	2625
4158.836	2630
4160.39	2661
4161.943	2695
4163.496	2662
4165.048	2683
4166.601	2702
4168.154	2697
4169.706	2676
4171.257	2673
4172.808	2691
4174.358	2691
4175.909	2705
4177.458	2659
4179.008	2661
4180.558	2726
4182.106	2634
4183.655	2628
4185.204	2661
4186.751	2597
4188.298	2665
4189.845	2620
4191.392	2551
4192.939	2709
4194.485	2641
4196.031	2641
4197.576	2632
4199.121	2652
4200.666	2643
4202.211	2531
4203.754	2612
4205.298	2702
4206.84	2655
4208.384	2602
4209.927	2580
4211.47	2651
4213.011	2645
4214.552	2665
4216.094	2641
4217.635	2584
4219.175	2569
4220.716	2608
4222.255	2563
4223.793	2708
4225.335	2615
4226.873	2538
4228.411	2547
4229.948	2571
4231.486	2562
4233.024	2567
4234.562	2564
4236.098	2558
4237.634	2594
4239.169	2635
4240.705	2658
4242.241	2559
4243.776	2554
4245.31	2542
4246.844	2557
4248.378	2544
4249.911	2594
4251.445	2580
4252.978	2582
4254.51	2560
4256.042	2540
4257.574	2612
4259.107	2554
4260.638	2537
4262.169	2555
4263.699	2566
4265.228	2576
4266.759	2534
4268.289	2539
4269.818	2558
4271.345	2533
4272.874	2565
4274.402	2514
4275.931	2541
4277.458	2570
4278.985	2526
4280.512	2502
4282.037	2523
4283.564	2473
4285.089	2476
4286.615	2536
4288.139	2506
4289.664	2513
4291.187	2436
4292.712	2551
4294.235	2564
4295.759	2561
4297.281	2516
4298.804	2484
4300.327	2507
4301.849	2532
4303.37	2533
4304.891	2491
4306.412	2515
4307.933	2517
4309.453	2451
4310.973	2461
4312.492	2533
