398.1873	2752
400.7097	2798
403.2336	2852
405.7547	2796
408.2751	2810
410.7948	2799
413.3138	2861
415.83	2895
418.3497	2880
420.8666	2878
423.3829	2842
425.8985	2980
428.4133	2926
430.9275	3012
433.441	2985
435.9538	2937
438.4639	3050
440.9753	2926
443.4881	3011
445.9982	2993
448.5055	2992
451.0142	2992
453.5201	2942
456.0274	2965
458.5361	3018
461.04	3033
463.5453	2998
466.0478	2955
468.5517	2950
471.0549	2995
473.5574	2997
476.0572	2934
478.5584	3048
481.0568	3003
483.5545	3017
486.0557	2991
488.5521	2985
491.0478	3050
493.5449	3072
496.0392	3045
498.5349	3078
501.0299	3020
503.5222	3037
506.0139	3087
508.5048	3064
510.9991	3075
513.4887	3139
515.9777	3086
518.4659	3133
520.9534	3095
523.4403	3035
525.9306	3136
528.4161	3120
530.9009	3057
533.3851	3137
535.8687	3109
538.3535	3099
540.8356	3131
543.3171	3141
545.7979	3076
548.278	3125
550.7595	3079
553.2383	3111
555.7144	3169
558.1918	3107
560.6685	3104
563.1446	3139
565.6221	3144
568.0968	3148
570.5688	3087
573.0422	3218
575.515	3209
577.989	3151
580.4584	3171
582.9291	3163
585.3991	3174
587.8685	3304
590.3352	3203
592.8052	3268
595.2706	3231
597.7372	3245
600.2033	3215
602.6666	3123
605.1334	3202
607.5953	3180
610.0587	3145
612.5193	3228
614.9814	3322
617.4427	3156
619.9034	3198
622.3615	3197
624.8208	3281
627.2775	3123
629.7335	3153
632.1929	3100
634.6476	3224
637.1016	3210
639.5569	3190
642.0096	3155
644.4637	3193
646.9151	3221
649.3678	3230
651.8179	3216
654.2672	3180
656.7159	3261
659.166	3217
661.6154	3210
664.0622	3247
666.5082	3261
668.9537	3287
671.4005	3258
673.8445	3323
676.288	3317
678.7308	3265
681.1729	3256
683.6163	3317
686.0572	3318
688.4973	3316
690.9368	3332
693.3757	3302
695.8138	3371
698.2534	3217
700.6902	3344
703.1245	3295
705.56	3346
707.9949	3357
710.4311	3309
712.8647	3279
715.2957	3327
717.7279	3389
720.1595	3436
722.5905	3327
725.0208	3383
727.4505	3400
729.8795	3401
732.3058	3414
734.7336	3357
737.1626	3451
739.587	3448
742.0128	3439
744.4359	3487
746.8604	3547
749.2841	3407
751.7073	3510
754.1278	3391
756.5496	3475
758.9688	3508
761.3893	3479
763.8093	3506
766.2285	3530
768.6451	3463
771.0611	3546
773.4784	3487
775.895	3487
778.3091	3477
780.7244	3528
783.1371	3528
785.5493	3549
787.9626	3519
790.3754	3527
792.7856	3561
795.1951	3601
797.6039	3485
800.0121	3481
802.4236	3619
804.8306	3613
807.2369	3500
809.6425	3593
812.0475	3489
814.4538	3522
816.8575	3470
819.2606	3540
821.663	3593
824.0648	3552
826.4659	3616
828.8683	3570
831.2682	3588
833.6674	3612
836.066	3632
838.4639	3629
840.8632	3544
843.2579	3658
845.6539	3553
848.0493	3651
850.444	3568
852.84	3689
855.2315	3591
857.6243	3558
860.0165	3617
862.4081	3637
864.797	3657
867.1892	3530
869.5789	3619
871.9659	3649
874.3542	3620
876.74	3615
879.129	3629
881.5155	3573
883.8994	3539
886.2845	3581
888.6671	3580
891.051	3590
893.4343	3612
895.8169	3629
898.197	3624
900.5783	3652
902.9571	3609
905.3372	3711
907.7167	3692
910.0936	3663
912.4698	3617
914.8474	3672
917.2244	3693
919.5987	3768
921.9744	3792
924.3475	3735
926.72	3785
929.0918	3753
931.4669	3682
933.8375	3806
936.2074	3850
938.5767	3841
940.9454	3897
943.3154	3848
945.6829	3971
948.0497	3917
950.4178	3986
952.7833	4220
955.1483	4350
957.5145	4391
959.8782	4445
962.2412	4337
964.6036	4374
966.9655	4170
969.3266	4108
971.6871	3941
974.0471	3941
976.4064	3888
978.765	3925
981.125	3827
983.4824	3729
985.8373	3820
988.1935	3770
990.549	3761
992.9039	3649
995.2602	3788
997.6119	3744
999.965	3691
1002.317	3727
1004.667	3734
1007.02	3754
1009.371	3795
1011.719	3789
1014.068	3712
1016.415	3790
1018.765	3791
1021.111	3797
1023.458	3846
1025.804	3817
1028.147	3825
1030.49	3786
1032.837	3829
1035.179	3850
1037.522	3880
1039.862	3902
1042.204	3777
1044.546	3867
1046.884	3844
1049.224	3894
1051.562	3818
1053.899	3888
1056.237	3951
1058.575	3939
1060.91	3824
1063.244	3815
1065.58	3892
1067.913	3898
1070.248	3948
1072.579	3843
1074.911	3869
1077.242	3880
1079.572	3782
1081.905	3908
1084.234	3770
1086.562	3826
1088.89	3878
1091.217	3834
1093.544	3893
1095.871	3819
1098.197	3790
1100.521	3918
1102.845	3844
1105.169	3981
1107.491	3879
1109.814	3861
1112.135	3905
1114.456	3864
1116.776	3836
1119.096	3894
1121.415	3906
1123.734	3945
1126.052	3835
1128.369	3834
1130.686	3890
1133.002	4004
1135.318	3917
1137.632	3871
1139.945	3941
1142.258	3807
1144.573	3900
1146.884	3911
1149.196	3958
1151.505	4017
1153.816	3898
1156.124	3969
1158.435	3893
1160.742	3960
1163.051	3864
1165.356	3930
1167.663	3990
1169.97	3955
1172.276	3885
1174.579	3902
1176.881	3869
1179.186	3843
1181.487	3896
1183.79	3950
1186.092	3958
1188.392	3900
1190.691	3902
1192.991	3886
1195.291	3910
1197.588	3958
1199.885	3881
1202.181	3968
1204.479	3898
1206.775	3861
1209.07	3866
1211.363	3921
1213.656	3917
1215.949	3926
1218.241	3962
1220.534	3875
1222.825	3909
1225.115	3944
1227.405	3876
1229.693	3986
1231.984	4036
1234.271	4076
1236.558	3954
1238.845	4002
1241.131	3977
1243.416	3991
1245.703	4037
1247.987	4091
1250.269	4012
1252.552	3958
1254.834	4075
1257.118	4065
1259.399	4078
1261.678	4078
1263.958	4046
1266.237	4032
1268.516	3995
1270.794	4068
1273.072	4039
1275.347	4036
1277.624	4031
1279.899	4017
1282.175	4030
1284.449	4059
1286.722	4071
1288.995	3966
1291.266	4040
1293.54	4008
1295.81	4071
1298.081	3979
1300.35	4034
1302.62	4049
1304.889	4067
1307.156	4048
1309.425	4046
1311.69	3982
1313.957	4030
1316.222	4027
1318.488	4073
1320.751	4015
1323.016	3998
1325.278	4033
1327.54	4000
1329.803	4089
1332.065	4018
1334.325	4025
1336.584	3990
1338.843	4021
1341.101	3998
1343.36	4037
1345.617	3994
1347.876	4138
1350.131	4025
1352.387	4013
1354.643	3984
1356.897	4092
1359.151	4148
1361.403	3999
1363.656	4044
1365.909	4110
1368.16	4098
1370.409	4092
1372.659	4020
1374.909	4091
1377.157	4107
1379.407	4133
1381.655	4021
1383.9	4026
1386.147	4103
1388.393	4132
1390.64	4135
1392.885	4135
1395.127	4150
1397.37	4086
1399.614	4172
1401.854	4112
1404.098	4068
1406.339	4027
1408.578	4080
1410.818	4052
1413.056	4170
1415.297	4089
1417.533	4120
1419.771	4174
1422.006	4196
1424.243	4067
1426.479	4191
1428.715	4178
1430.948	4133
1433.182	4133
1435.414	4166
1437.647	4224
1439.88	4194
1442.11	4179
1444.342	4098
1446.571	4378
1448.799	4247
1451.029	4246
1453.258	4216
1455.485	4240
1457.711	4231
1459.937	4212
1462.164	4248
1464.39	4238
1466.614	4207
1468.838	4178
1471.06	4135
1473.283	4158
1475.506	4180
1477.727	4165
1479.949	4180
1482.169	4214
1484.389	4205
1486.609	4138
1488.828	4212
1491.045	4133
1493.261	4068
1495.477	4162
1497.693	4058
1499.91	4180
1502.125	4050
1504.339	4141
1506.553	4101
1508.766	4184
1510.979	4055
1513.191	4137
1515.402	4074
1517.613	4089
1519.823	4103
1522.033	4197
1524.242	4134
1526.451	4119
1528.657	4100
1530.865	4123
1533.072	4132
1535.278	4119
1537.484	4208
1539.687	4173
1541.892	4102
1544.096	4189
1546.299	4168
1548.502	4184
1550.703	4116
1552.905	4144
1555.104	4087
1557.303	4167
1559.505	4254
1561.703	4233
1563.902	4135
1566.099	4206
1568.295	4218
1570.494	4229
1572.689	4181
1574.883	4195
1577.079	4229
1579.272	4206
1581.467	4170
1583.659	4361
1585.853	4233
1588.044	4298
1590.234	4287
1592.424	4181
1594.615	4287
1596.806	4212
1598.994	4266
1601.182	4299
1603.369	4346
1605.557	4294
1607.744	4287
1609.929	4267
1612.114	4233
1614.298	4321
1616.482	4307
1618.667	4290
1620.85	4350
1623.032	4297
1625.214	4154
1627.395	4291
1629.575	4371
1631.755	4262
1633.935	4358
1636.114	4401
1638.292	4276
1640.471	4405
1642.647	4267
1644.823	4342
1647	4233
1649.175	4302
1651.348	4438
1653.525	4351
1655.698	4221
1657.87	4408
1660.043	4310
1662.213	4331
1664.387	4357
1666.558	4359
1668.727	4315
1670.896	4476
1673.064	4356
1675.233	4334
1677.401	4287
1679.569	4240
1681.735	4344
1683.902	4333
1686.066	4424
1688.233	4343
1690.397	4335
1692.559	4300
1694.723	4360
1696.885	4412
1699.048	4242
1701.21	4380
1703.37	4355
1705.53	4219
1707.689	4270
1709.849	4313
1712.009	4319
1714.166	4303
1716.323	4296
1718.479	4282
1720.634	4257
1722.793	4319
1724.948	4314
1727.102	4294
1729.255	4280
1731.408	4321
1733.562	4237
1735.714	4299
1737.865	4339
1740.016	4310
1742.166	4387
1744.316	4297
1746.467	4316
1748.616	4341
1750.764	4358
1752.911	4346
1755.056	4430
1757.205	4379
1759.35	4308
1761.496	4325
1763.641	4368
1765.785	4477
1767.927	4372
1770.072	4315
1772.214	4379
1774.355	4210
1776.496	4281
1778.637	4424
1780.778	4407
1782.918	4385
1785.057	4393
1787.194	4318
1789.333	4391
1791.472	4355
1793.608	4446
1795.745	4379
1797.879	4454
1800.015	4336
1802.148	4356
1804.284	4310
1806.417	4424
1808.548	4321
1810.682	4347
1812.812	4392
1814.946	4335
1817.075	4398
1819.205	4346
1821.335	4406
1823.463	4368
1825.59	4369
1827.721	4402
1829.847	4333
1831.973	4404
1834.098	4348
1836.223	4409
1838.351	4319
1840.475	4357
1842.598	4321
1844.721	4375
1846.843	4349
1848.966	4464
1851.087	4406
1853.21	4389
1855.33	4438
1857.449	4439
1859.568	4413
1861.688	4300
1863.806	4335
1865.924	4380
1868.039	4369
1870.155	4387
1872.273	4389
1874.388	4327
1876.503	4390
1878.617	4386
1880.73	4425
1882.844	4451
1884.956	4454
1887.068	4288
1889.18	4350
1891.291	4386
1893.4	4426
1895.511	4413
1897.621	4275
1899.73	4385
1901.837	4480
1903.944	4446
1906.053	4436
1908.159	4376
1910.265	4422
1912.369	4344
1914.474	4368
1916.577	4418
1918.683	4435
1920.785	4435
1922.888	4428
1924.989	4423
1927.091	4451
1929.193	4458
1931.294	4493
1933.393	4414
1935.493	4434
1937.59	4493
1939.689	4494
1941.788	4506
1943.884	4494
1945.98	4449
1948.077	4457
1950.171	4465
1952.267	4437
1954.361	4463
1956.455	4455
1958.548	4470
1960.64	4466
1962.733	4373
1964.824	4460
1966.915	4516
1969.005	4505
1971.096	4452
1973.185	4442
1975.275	4428
1977.363	4448
1979.45	4479
1981.537	4469
1983.623	4371
1985.711	4441
1987.796	4448
1989.881	4504
1991.965	4503
1994.047	4452
1996.132	4410
1998.215	4495
2000.297	4403
2002.378	4439
2004.46	4392
2006.54	4443
2008.62	4495
2010.7	4509
2012.779	4367
2014.858	4353
2016.934	4462
2019.013	4507
2021.09	4497
2023.165	4460
2025.241	4487
2027.317	4384
2029.39	4530
2031.466	4427
2033.538	4534
2035.612	4404
2037.683	4507
2039.755	4360
2041.827	4517
2043.898	4457
2045.968	4473
2048.038	4372
2050.106	4479
2052.177	4519
2054.244	4487
2056.313	4481
2058.379	4525
2060.444	4471
2062.511	4515
2064.577	4495
2066.641	4439
2068.705	4481
2070.77	4467
2072.832	4490
2074.896	4472
2076.958	4354
2079.02	4556
2081.081	4528
2083.141	4540
2085.2	4531
2087.261	4462
2089.319	4399
2091.377	4456
2093.435	4485
2095.492	4486
2097.552	4545
2099.607	4460
2101.663	4534
2103.718	4519
2105.771	4480
2107.826	4513
2109.879	4517
2111.932	4604
2113.985	4418
2116.037	4457
2118.088	4431
2120.141	4493
2122.191	4537
2124.239	4446
2126.288	4390
2128.337	4505
2130.387	4475
2132.434	4483
2134.481	4446
2136.528	4550
2138.574	4481
2140.618	4471
2142.665	4470
2144.71	4414
2146.753	4484
2148.797	4534
2150.838	4534
2152.883	4544
2154.923	4445
2156.965	4496
2159.007	4413
2161.046	4394
2163.086	4463
2165.126	4441
2167.163	4427
2169.202	4431
2171.239	4397
2173.277	4441
2175.314	4438
2177.349	4408
2179.385	4580
2181.42	4431
2183.453	4425
2185.49	4447
2187.522	4476
2189.555	4449
2191.586	4446
2193.619	4407
2195.651	4417
2197.682	4412
2199.711	4380
2201.74	4422
2203.769	4457
2205.799	4410
2207.828	4397
2209.855	4466
2211.882	4395
2213.908	4372
2215.934	4373
2217.961	4424
2219.986	4330
2222.01	4432
2224.034	4495
2226.057	4362
2228.08	4467
2230.104	4338
2232.124	4414
2234.145	4395
2236.166	4417
2238.186	4361
2240.207	4474
2242.227	4543
2244.244	4475
2246.262	4454
2248.28	4440
2250.299	4359
2252.314	4394
2254.33	4429
2256.346	4448
2258.36	4460
2260.375	4378
2262.391	4382
2264.403	4364
2266.416	4453
2268.427	4434
2270.44	4428
2272.453	4362
2274.463	4439
2276.474	4493
2278.483	4428
2280.493	4395
2282.501	4432
2284.51	4394
2286.518	4386
2288.524	4488
2290.532	4465
2292.537	4426
2294.544	4386
2296.55	4445
2298.554	4453
2300.557	4392
2302.562	4311
2304.566	4450
2306.568	4425
2308.569	4374
2310.572	4435
2312.573	4453
2314.573	4412
2316.574	4445
2318.573	4511
2320.571	4403
2322.571	4403
2324.569	4417
2326.567	4338
2328.564	4501
2330.56	4334
2332.556	4354
2334.551	4360
2336.546	4366
2338.542	4494
2340.535	4401
2342.529	4398
2344.521	4386
2346.512	4381
2348.505	4454
2350.497	4360
2352.487	4423
2354.478	4352
2356.468	4344
2358.457	4361
2360.446	4435
2362.434	4368
2364.422	4381
2366.408	4294
2368.395	4420
2370.383	4333
2372.369	4445
2374.353	4307
2376.338	4394
2378.321	4243
2380.307	4396
2382.29	4315
2384.272	4321
2386.254	4329
2388.235	4272
2390.218	4381
2392.198	4368
2394.179	4394
2396.157	4255
2398.137	4424
2400.115	4322
2402.095	4448
2404.072	4396
2406.048	4297
2408.026	4375
2410.001	4317
2411.977	4303
2413.953	4362
2415.927	4309
2417.9	4359
2419.875	4304
2421.847	4369
2423.821	4420
2425.792	4410
2427.763	4315
2429.736	4391
2431.706	4403
2433.677	4348
2435.646	4320
2437.615	4378
2439.583	4311
2441.551	4364
2443.519	4406
2445.486	4351
2447.452	4331
2449.418	4330
2451.383	4307
2453.348	4313
2455.314	4266
2457.278	4257
2459.241	4354
2461.205	4325
2463.167	4355
2465.131	4244
2467.091	4323
2469.052	4354
2471.012	4385
2472.972	4268
2474.932	4278
2476.891	4303
2478.85	4332
2480.808	4348
2482.766	4228
2484.722	4302
2486.68	4410
2488.636	4310
2490.591	4333
2492.546	4300
2494.5	4268
2496.456	4251
2498.41	4303
2500.362	4261
2502.315	4234
2504.266	4320
2506.218	4329
2508.169	4201
2510.121	4323
2512.07	4328
2514.019	4360
2515.968	4403
2517.918	4269
2519.866	4294
2521.813	4305
2523.76	4340
2525.707	4381
2527.653	4267
2529.599	4255
2531.543	4282
2533.489	4367
2535.433	4315
2537.376	4255
2539.32	4258
2541.264	4346
2543.205	4245
2545.147	4277
2547.087	4249
2549.029	4273
2550.969	4291
2552.908	4303
2554.847	4232
2556.786	4244
2558.724	4256
2560.663	4307
2562.6	4329
2564.537	4321
2566.473	4363
2568.408	4321
2570.345	4279
2572.28	4374
2574.214	4246
2576.148	4270
2578.081	4292
2580.014	4385
2581.947	4182
2583.879	4234
2585.81	4246
2587.741	4350
2589.67	4388
2591.602	4324
2593.532	4340
2595.461	4246
2597.388	4262
2599.316	4317
2601.244	4240
2603.172	4280
2605.098	4338
2607.023	4350
2608.949	4314
2610.873	4336
2612.8	4249
2614.723	4312
2616.647	4330
2618.569	4388
2620.493	4303
2622.416	4404
2624.338	4242
2626.258	4329
2628.179	4394
2630.099	4341
2632.019	4411
2633.939	4223
2635.857	4361
2637.775	4441
2639.694	4330
2641.61	4348
2643.528	4312
2645.444	4311
2647.361	4355
2649.276	4226
2651.19	4361
2653.105	4322
2655.019	4299
2656.934	4375
2658.846	4381
2660.758	4217
2662.67	4365
2664.583	4302
2666.493	4328
2668.404	4328
2670.313	4236
2672.223	4356
2674.134	4369
2676.042	4447
2677.95	4345
2679.858	4320
2681.765	4293
2683.673	4271
2685.579	4301
2687.483	4242
2689.389	4251
2691.294	4222
2693.198	4325
2695.104	4290
2697.006	4300
2698.909	4346
2700.811	4287
2702.713	4309
2704.615	4309
2706.516	4226
2708.417	4270
2710.316	4200
2712.216	4248
2714.115	4347
2716.014	4212
2717.913	4346
2719.81	4306
2721.707	4272
2723.603	4297
2725.501	4251
2727.396	4221
2729.292	4255
2731.186	4319
2733.081	4311
2734.976	4283
2736.87	4314
2738.762	4271
2740.653	4262
2742.546	4294
2744.437	4206
2746.329	4330
2748.22	4219
2750.11	4317
2751.999	4193
2753.889	4202
2755.778	4354
2757.666	4239
2759.553	4210
2761.44	4225
2763.328	4284
2765.215	4329
2767.101	4320
2768.986	4148
2770.87	4195
2772.754	4270
2774.638	4267
2776.523	4223
2778.405	4218
2780.288	4223
2782.17	4321
2784.051	4166
2785.934	4167
2787.814	4291
2789.694	4285
2791.574	4276
2793.453	4250
2795.332	4305
2797.212	4154
2799.088	4246
2800.966	4317
2802.843	4275
2804.719	4274
2806.597	4214
2808.471	4285
2810.346	4225
2812.221	4170
2814.094	4262
2815.969	4215
2817.843	4225
2819.714	4158
2821.587	4233
2823.459	4143
2825.329	4139
2827.202	4236
2829.072	4314
2830.942	4110
2832.811	4191
2834.68	4106
2836.549	4221
2838.418	4209
2840.284	4187
2842.152	4212
2844.018	4227
2845.885	4231
2847.751	4250
2849.616	4277
2851.482	4286
2853.345	4245
2855.208	4224
2857.074	4229
2858.937	4284
2860.799	4229
2862.66	4226
2864.522	4263
2866.385	4285
2868.245	4262
2870.104	4387
2871.964	4312
2873.824	4304
2875.683	4389
2877.542	4417
2879.4	4315
2881.257	4473
2883.114	4528
2884.97	4316
2886.827	4388
2888.683	4412
2890.537	4428
2892.392	4478
2894.246	4446
2896.1	4461
2897.954	4409
2899.807	4467
2901.66	4451
2903.51	4372
2905.362	4423
2907.214	4396
2909.065	4389
2910.915	4331
2912.765	4444
2914.613	4435
2916.463	4471
2918.311	4496
2920.158	4394
2922.006	4551
2923.853	4482
2925.698	4523
2927.546	4507
2929.392	4638
2931.236	4577
2933.081	4674
2934.924	4638
2936.77	4744
2938.613	4645
2940.455	4709
2942.298	4685
2944.139	4700
2945.982	4784
2947.823	4720
2949.662	4567
2951.503	4639
2953.342	4699
2955.182	4648
2957.021	4580
2958.858	4543
2960.697	4540
2962.534	4473
2964.37	4461
2966.207	4441
2968.044	4469
2969.879	4425
2971.714	4451
2973.548	4467
2975.383	4334
2977.218	4482
2979.051	4564
2980.883	4439
2982.715	4433
2984.547	4328
2986.379	4358
2988.21	4460
2990.04	4397
2991.87	4342
2993.7	4285
2995.53	4259
2997.359	4219
2999.187	4351
3001.015	4259
3002.842	4302
3004.669	4293
3006.497	4138
3008.323	4214
3010.148	4169
3011.974	4115
3013.797	4123
3015.623	4207
3017.447	4112
3019.27	4233
3021.094	4174
3022.915	4135
3024.737	4139
3026.56	4146
3028.38	4167
3030.201	4061
3032.022	4071
3033.84	4102
3035.662	4177
3037.481	4162
3039.298	3985
3041.117	4096
3042.933	4085
3044.752	4055
3046.568	4129
3048.385	4042
3050.2	4075
3052.016	4073
3053.83	4104
3055.646	4012
3057.46	4127
3059.272	4057
3061.086	4079
3062.898	4076
3064.711	4060
3066.524	4026
3068.335	4043
3070.145	4020
3071.956	4027
3073.766	4043
3075.576	4119
3077.385	3958
3079.193	4040
3081.002	3993
3082.81	4009
3084.618	3961
3086.425	4016
3088.231	3983
3090.036	3948
3091.842	4030
3093.648	3978
3095.452	4002
3097.257	3956
3099.06	4004
3100.863	3952
3102.666	3990
3104.47	3985
3106.272	3931
3108.073	3917
3109.875	4005
3111.676	3958
3113.477	3975
3115.277	3920
3117.077	3924
3118.874	3887
3120.673	3997
3122.473	3924
3124.271	3903
3126.066	3905
3127.863	3972
3129.66	3895
3131.456	4019
3133.252	4020
3135.047	3889
3136.842	3944
3138.635	3789
3140.429	3896
3142.223	3923
3144.016	3999
3145.808	3816
3147.6	3931
3149.392	3918
3151.183	3879
3152.975	3856
3154.765	3888
3156.553	3963
3158.344	3834
3160.132	3852
3161.922	3845
3163.71	3857
3165.497	3891
3167.285	3842
3169.071	3881
3170.858	3897
3172.645	3950
3174.429	3863
3176.214	3845
3177.998	3902
3179.783	3889
3181.568	3799
3183.351	3829
3185.133	3841
3186.915	3864
3188.698	3798
3190.481	3825
3192.261	3900
3194.042	3805
3195.822	3878
3197.601	3797
3199.381	3823
3201.161	3811
3202.939	3882
3204.717	3864
3206.495	3772
3208.272	3865
3210.05	3822
3211.826	3804
3213.602	3850
3215.376	3774
3217.151	3860
3218.927	3831
3220.702	3849
3222.476	3824
3224.249	3777
3226.021	3866
3227.793	3851
3229.567	3807
3231.339	3850
3233.109	3849
3234.88	3828
3236.651	3867
3238.421	3726
3240.191	3840
3241.96	3811
3243.728	3842
3245.497	3797
3247.263	3806
3249.033	3846
3250.799	3840
3252.566	3832
3254.331	3817
3256.097	3807
3257.863	3809
3259.628	3709
3261.392	3798
3263.156	3792
3264.919	3830
3266.683	3857
3268.447	3776
3270.208	3873
3271.969	3715
3273.731	3762
3275.492	3930
3277.253	3898
3279.013	3784
3280.773	3852
3282.532	3791
3284.291	3807
3286.05	3869
3287.808	3721
3289.566	3793
3291.323	3832
3293.079	3833
3294.835	3838
3296.593	3907
3298.348	3814
3300.102	3861
3301.857	3788
3303.611	3833
3305.366	3807
3307.119	3805
3308.872	3766
3310.624	3788
3312.376	3767
3314.129	3853
3315.881	3802
3317.631	3758
3319.38	3824
3321.13	3823
3322.88	3789
3324.631	3773
3326.379	3759
3328.126	3867
3329.875	3790
3331.622	3819
3333.371	3740
3335.116	3685
3336.863	3789
3338.609	3839
3340.353	3790
3342.1	3785
3343.845	3759
3345.588	3659
3347.332	3780
3349.074	3827
3350.817	3697
3352.56	3787
3354.303	3779
3356.043	3817
3357.785	3745
3359.525	3682
3361.268	3681
3363.007	3707
3364.745	3741
3366.485	3783
3368.223	3812
3369.962	3737
3371.701	3705
3373.438	3710
3375.174	3663
3376.911	3708
3378.647	3667
3380.384	3731
3382.118	3775
3383.854	3711
3385.588	3784
3387.322	3721
3389.057	3665
3390.79	3720
3392.522	3673
3394.255	3777
3395.987	3707
3397.719	3665
3399.451	3815
3401.181	3700
3402.911	3733
3404.641	3671
3406.371	3743
3408.101	3756
3409.83	3660
3411.558	3715
3413.285	3673
3415.011	3708
3416.739	3708
3418.467	3767
3420.193	3727
3421.919	3639
3423.644	3772
3425.368	3694
3427.094	3610
3428.818	3590
3430.542	3673
3432.264	3729
3433.987	3596
3435.712	3652
3437.434	3643
3439.155	3649
3440.876	3647
3442.596	3517
3444.317	3620
3446.039	3704
3447.757	3632
3449.477	3601
3451.195	3499
3452.914	3616
3454.632	3620
3456.35	3530
3458.067	3648
3459.784	3641
3461.5	3595
3463.216	3599
3464.932	3591
3466.647	3643
3468.362	3669
3470.076	3546
3471.789	3557
3473.505	3544
3475.217	3572
3476.929	3620
3478.641	3561
3480.354	3561
3482.066	3568
3483.777	3595
3485.487	3638
3487.197	3567
3488.908	3547
3490.617	3666
3492.327	3511
3494.035	3495
3495.743	3573
3497.451	3532
3499.158	3522
3500.866	3495
3502.572	3425
3504.278	3633
3505.984	3580
3507.689	3435
3509.396	3461
3511.1	3471
3512.804	3565
3514.508	3570
3516.211	3554
3517.913	3502
3519.616	3482
3521.319	3554
3523.021	3512
3524.722	3418
3526.422	3448
3528.124	3485
3529.824	3514
3531.524	3511
3533.222	3479
3534.921	3476
3536.62	3500
3538.318	3496
3540.016	3457
3541.714	3434
3543.41	3479
3545.107	3485
3546.803	3497
3548.5	3497
3550.194	3436
3551.889	3512
3553.583	3461
3555.279	3407
3556.972	3455
3558.666	3351
3560.358	3557
3562.051	3436
3563.742	3377
3565.435	3420
3567.126	3479
3568.817	3526
3570.507	3430
3572.197	3440
3573.888	3504
3575.577	3387
3577.265	3414
3578.954	3437
3580.642	3471
3582.329	3381
3584.017	3440
3585.704	3576
3587.391	3396
3589.077	3378
3590.762	3303
3592.449	3481
3594.133	3409
3595.817	3350
3597.501	3382
3599.185	3338
3600.869	3298
3602.552	3324
3604.234	3383
3605.916	3416
3607.598	3355
3609.279	3395
3610.961	3320
3612.642	3328
3614.321	3388
3616	3309
3617.68	3288
3619.36	3344
3621.039	3312
3622.716	3277
3624.394	3318
3626.071	3271
3627.748	3327
3629.425	3331
3631.102	3309
3632.778	3335
3634.452	3310
3636.127	3282
3637.803	3297
3639.477	3338
3641.151	3373
3642.823	3285
3644.497	3345
3646.171	3310
3647.842	3294
3649.515	3261
3651.185	3333
3652.857	3240
3654.527	3249
3656.198	3274
3657.868	3305
3659.537	3167
3661.207	3269
3662.875	3215
3664.544	3233
3666.212	3326
3667.879	3226
3669.546	3173
3671.212	3305
3672.88	3309
3674.546	3221
3676.211	3270
3677.875	3293
3679.541	3312
3681.205	3207
3682.87	3283
3684.533	3251
3686.196	3231
3687.859	3200
3689.521	3189
3691.184	3190
3692.845	3187
3694.507	3220
3696.167	3229
3697.827	3221
3699.487	3266
3701.148	3259
3702.808	3154
3704.466	3298
3706.125	3210
3707.783	3255
3709.442	3184
3711.099	3203
3712.757	3189
3714.412	3190
3716.068	3222
3717.725	3231
3719.381	3204
3721.036	3222
3722.689	3189
3724.344	3166
3725.998	3145
3727.652	3269
3729.305	3199
3730.958	3155
3732.61	3154
3734.262	3144
3735.915	3206
3737.565	3132
3739.217	3213
3740.866	3086
3742.516	3193
3744.165	3132
3745.816	3116
3747.464	3124
3749.113	3166
3750.761	3133
3752.409	3120
3754.057	3141
3755.703	3080
3757.35	3165
3758.996	3101
3760.641	3181
3762.289	3101
3763.933	3167
3765.577	3090
3767.222	3124
3768.865	3115
3770.508	3146
3772.152	3035
3773.796	3103
3775.438	3175
3777.079	3142
3778.721	3160
3780.363	3121
3782.003	3114
3783.643	3129
3785.283	3090
3786.923	3106
3788.563	3012
3790.203	3168
3791.841	3103
3793.479	3094
3795.115	3117
3796.753	3176
3798.391	3062
3800.027	3046
3801.664	3035
3803.299	3088
3804.935	3026
3806.571	3135
3808.206	3034
3809.839	3071
3811.473	3099
3813.107	3044
3814.74	3065
3816.375	3030
3818.006	2979
3819.638	3133
3821.27	3073
3822.9	3034
3824.532	3041
3826.163	3062
3827.792	3109
3829.423	3008
3831.051	3033
3832.682	3076
3834.311	3038
3835.938	3039
3837.566	3029
3839.193	3041
3840.821	2970
3842.448	3126
3844.075	3047
3845.7	2998
3847.325	3032
3848.951	3039
3850.576	3004
3852.201	3036
3853.825	3028
3855.448	2993
3857.072	2968
3858.694	3004
3860.318	3019
3861.939	2985
3863.562	2989
3865.183	3054
3866.804	3003
3868.426	3037
3870.045	2976
3871.666	2987
3873.285	3004
3874.904	2945
3876.524	2970
3878.142	3058
3879.76	3018
3881.378	2943
3882.995	2949
3884.612	2915
3886.229	2971
3887.845	2960
3889.461	2983
3891.076	2941
3892.691	2967
3894.307	2981
3895.922	3013
3897.536	2946
3899.149	2929
3900.761	2948
3902.374	2975
3903.988	2934
3905.6	3019
3907.212	2922
3908.822	2985
3910.433	2912
3912.045	2973
3913.655	2920
3915.265	2958
3916.875	2979
3918.483	2862
3920.093	2931
3921.702	2950
3923.309	2952
3924.917	2971
3926.523	2939
3928.13	2989
3929.739	2935
3931.344	2848
3932.95	2945
3934.555	2983
3936.159	2881
3937.766	2950
3939.369	2946
3940.974	2894
3942.577	2955
3944.181	2984
3945.783	2967
3947.386	2943
3948.989	2987
3950.59	2941
3952.191	2935
3953.791	2924
3955.394	2915
3956.994	2893
3958.593	3015
3960.192	2938
3961.791	2871
3963.392	2864
3964.99	2912
3966.588	2924
3968.185	2951
3969.782	2863
3971.379	2882
3972.976	2881
3974.572	2868
3976.168	2874
3977.763	2833
3979.358	2813
3980.954	2889
3982.548	2898
3984.142	2912
3985.736	2808
3987.329	2864
3988.922	2749
3990.516	2791
3992.108	2927
3993.698	2773
3995.29	2849
3996.881	2857
3998.473	2838
4000.064	2817
4001.653	2808
4003.242	2805
4004.832	2776
4006.422	2880
4008.01	2770
4009.598	2802
4011.186	2783
4012.773	2751
4014.36	2798
4015.947	2774
4017.534	2812
4019.119	2801
4020.705	2794
4022.291	2773
4023.876	2743
4025.461	2837
4027.044	2834
4028.627	2772
4030.211	2750
4031.795	2761
4033.378	2774
4034.96	2733
4036.542	2809
4038.124	2745
4039.704	2732
4041.286	2776
4042.867	2770
4044.447	2699
4046.026	2760
4047.606	2790
4049.187	2681
4050.765	2735
4052.343	2691
4053.92	2691
4055.498	2737
4057.076	2824
4058.654	2704
4060.23	2799
4061.806	2823
4063.381	2740
4064.957	2748
4066.533	2635
4068.107	2781
4069.682	2752
4071.256	2674
4072.829	2766
4074.404	2707
4075.977	2711
4077.549	2744
4079.121	2654
4080.693	2682
4082.265	2695
4083.836	2697
4085.407	2719
4086.977	2711
4088.547	2681
4090.117	2734
4091.687	2692
4093.256	2664
4094.825	2679
4096.392	2731
4097.96	2628
4099.528	2686
4101.097	2685
4102.663	2553
4104.229	2717
4105.795	2709
4107.361	2694
4108.928	2638
4110.493	2624
4112.058	2641
4113.621	2628
4115.186	2614
4116.75	2657
4118.313	2680
4119.876	2634
4121.438	2658
4123	2594
4124.562	2635
4126.125	2668
4127.686	2603
4129.246	2660
4130.807	2632
4132.367	2626
4133.927	2677
4135.486	2637
4137.046	2619
4138.604	2675
4140.162	2607
4141.72	2619
4143.279	2629
4144.836	2621
4146.393	2610
4147.949	2601
4149.505	2584
4151.062	2599
4152.617	2582
4154.172	2622
4155.727	2608
4157.281	2600
4158.836	2610
4160.39	2601
4161.943	2547
4163.496	2571
4165.048	2535
4166.601	2570
4168.154	2572
4169.706	2529
4171.257	2565
4172.808	2551
4174.358	2610
4175.909	2541
4177.458	2538
4179.008	2519
4180.558	2562
4182.106	2533
4183.655	2483
4185.204	2544
4186.751	2548
4188.298	2528
4189.845	2610
4191.392	2547
4192.939	2525
4194.485	2609
4196.031	2521
4197.576	2440
4199.121	2532
4200.666	2510
4202.211	2468
4203.754	2503
4205.298	2489
4206.84	2513
4208.384	2492
4209.927	2548
4211.47	2547
4213.011	2500
4214.552	2472
4216.094	2515
4217.635	2453
4219.175	2495
4220.716	2516
4222.255	2551
4223.793	2494
4225.335	2442
4226.873	2504
4228.411	2520
4229.948	2496
4231.486	2437
4233.024	2464
4234.562	2470
4236.098	2511
4237.634	2476
4239.169	2501
4240.705	2563
4242.241	2466
4243.776	2513
4245.31	2478
4246.844	2481
4248.378	2416
4249.911	2468
4251.445	2494
4252.978	2512
4254.51	2487
4256.042	2490
4257.574	2543
4259.107	2389
4260.638	2462
4262.169	2463
4263.699	2429
4265.228	2456
4266.759	2441
4268.289	2430
4269.818	2477
4271.345	2457
4272.874	2403
4274.402	2474
4275.931	2482
4277.458	2367
4278.985	2423
4280.512	2419
4282.037	2406
4283.564	2437
4285.089	2435
4286.615	2481
4288.139	2407
4289.664	2407
4291.187	2352
4292.712	2488
4294.235	2476
4295.759	2365
4297.281	2379
4298.804	2393
4300.327	2303
4301.849	2463
4303.37	2438
4304.891	2441
4306.412	2369
4307.933	2326
4309.453	2459
4310.973	2410
4312.492	2324
