398.1873	3541
400.7097	3618
403.2336	3541
405.7547	3549
408.2751	3547
410.7948	3685
413.3138	3585
415.83	3563
418.3497	3688
420.8666	3709
423.3829	3706
425.8985	3695
428.4133	3752
430.9275	3765
433.441	3750
435.9538	3814
438.4639	3856
440.9753	3770
443.4881	3847
445.9982	3788
448.5055	3761
451.0142	3789
453.5201	3795
456.0274	3784
458.5361	3885
461.04	3912
463.5453	3732
466.0478	3801
468.5517	3802
471.0549	3848
473.5574	3860
476.0572	3815
478.5584	3844
481.0568	3828
483.5545	3842
486.0557	3919
488.5521	3755
491.0478	3840
493.5449	3949
496.0392	3875
498.5349	3860
501.0299	3899
503.5222	3985
506.0139	3899
508.5048	3923
510.9991	3890
513.4887	3962
515.9777	4028
518.4659	3887
520.9534	3889
523.4403	3993
525.9306	4012
528.4161	3938
530.9009	4023
533.3851	3986
535.8687	3918
538.3535	3985
540.8356	3915
543.3171	3982
545.7979	4025
548.278	3963
550.7595	3898
553.2383	3918
555.7144	4016
558.1918	3939
560.6685	4051
563.1446	3987
565.6221	4031
568.0968	3974
570.5688	4029
573.0422	4036
575.515	4012
577.989	4157
580.4584	4054
582.9291	4107
585.3991	4099
587.8685	4113
590.3352	4197
592.8052	4111
595.2706	4115
597.7372	4115
600.2033	4102
602.6666	4145
605.1334	4061
607.5953	4142
610.0587	4078
612.5193	4079
614.9814	4084
617.4427	4064
619.9034	4076
622.3615	4128
624.8208	4130
627.2775	4082
629.7335	4044
632.1929	4131
634.6476	4073
637.1016	4051
639.5569	4086
642.0096	4106
644.4637	4133
646.9151	4094
649.3678	4143
651.8179	4112
654.2672	4099
656.7159	4162
659.166	4136
661.6154	4087
664.0622	4172
666.5082	4186
668.9537	4124
671.4005	4203
673.8445	4131
676.288	4177
678.7308	4164
681.1729	4099
683.6163	4201
686.0572	4250
688.4973	4287
690.9368	4118
693.3757	4254
695.8138	4198
698.2534	4217
700.6902	4251
703.1245	4253
705.56	4289
707.9949	4184
710.4311	4300
712.8647	4305
715.2957	4179
717.7279	4238
720.1595	4259
722.5905	4398
725.0208	4339
727.4505	4381
729.8795	4353
732.3058	4360
734.7336	4366
737.1626	4395
739.587	4378
742.0128	4427
744.4359	4378
746.8604	4406
749.2841	4449
751.7073	4390
754.1278	4455
756.5496	4516
758.9688	4413
761.3893	4531
763.8093	4489
766.2285	4448
768.6451	4378
771.0611	4565
773.4784	4529
775.895	4535
778.3091	4506
780.7244	4552
783.1371	4462
785.5493	4535
787.9626	4575
790.3754	4484
792.7856	4533
795.1951	4545
797.6039	4459
800.0121	4592
802.4236	4580
804.8306	4551
807.2369	4514
809.6425	4617
812.0475	4593
814.4538	4559
816.8575	4586
819.2606	4622
821.663	4613
824.0648	4614
826.4659	4523
828.8683	4540
831.2682	4528
833.6674	4647
836.066	4606
838.4639	4622
840.8632	4647
843.2579	4598
845.6539	4717
848.0493	4664
850.444	4676
852.84	4639
855.2315	4623
857.6243	4666
860.0165	4601
862.4081	4715
864.797	4554
867.1892	4614
869.5789	4651
871.9659	4636
874.3542	4617
876.74	4641
879.129	4700
881.5155	4637
883.8994	4714
886.2845	4708
888.6671	4638
891.051	4711
893.4343	4643
895.8169	4650
898.197	4563
900.5783	4605
902.9571	4692
905.3372	4686
907.7167	4627
910.0936	4771
912.4698	4725
914.8474	4771
917.2244	4691
919.5987	4794
921.9744	4710
924.3475	4812
926.72	4894
929.0918	4841
931.4669	4905
933.8375	4860
936.2074	4845
938.5767	4906
940.9454	4955
943.3154	4915
945.6829	5025
948.0497	5167
950.4178	5309
952.7833	5407
955.1483	5608
957.5145	5791
959.8782	5873
962.2412	5854
964.6036	5701
966.9655	5535
969.3266	5309
971.6871	5194
974.0471	4998
976.4064	4857
978.765	4902
981.125	4855
983.4824	4844
985.8373	4729
988.1935	4799
990.549	4747
992.9039	4691
995.2602	4786
997.6119	4779
999.965	4929
1002.317	4826
1004.667	4756
1007.02	4910
1009.371	4812
1011.719	4742
1014.068	4808
1016.415	4760
1018.765	4880
1021.111	4866
1023.458	4800
1025.804	4820
1028.147	4892
1030.49	4841
1032.837	4905
1035.179	4866
1037.522	4918
1039.862	4854
1042.204	4897
1044.546	5005
1046.884	4944
1049.224	4865
1051.562	4916
1053.899	4908
1056.237	4851
1058.575	4977
1060.91	4947
1063.244	4898
1065.58	4895
1067.913	4967
1070.248	4966
1072.579	5026
1074.911	4990
1077.242	4941
1079.572	5048
1081.905	5042
1084.234	4978
1086.562	4945
1088.89	4956
1091.217	4852
1093.544	4855
1095.871	4956
1098.197	4940
1100.521	4978
1102.845	4817
1105.169	4826
1107.491	4953
1109.814	4948
1112.135	4920
1114.456	4988
1116.776	4957
1119.096	4947
1121.415	4860
1123.734	4997
1126.052	4845
1128.369	5041
1130.686	4959
1133.002	4966
1135.318	5035
1137.632	4960
1139.945	4937
1142.258	4922
1144.573	4959
1146.884	4995
1149.196	4969
1151.505	5036
1153.816	5029
1156.124	4997
1158.435	4962
1160.742	4976
1163.051	4939
1165.356	5011
1167.663	4973
1169.97	5120
1172.276	4973
1174.579	4981
1176.881	5003
1179.186	4977
1181.487	4996
1183.79	4999
1186.092	5107
1188.392	4991
1190.691	4928
1192.991	4943
1195.291	4877
1197.588	4940
1199.885	4982
1202.181	5049
1204.479	5018
1206.775	5009
1209.07	4968
1211.363	4904
1213.656	5041
1215.949	5008
1218.241	4929
1220.534	4935
1222.825	5053
1225.115	4988
1227.405	4981
1229.693	5059
1231.984	5024
1234.271	5079
1236.558	5107
1238.845	5030
1241.131	5133
1243.416	5123
1245.703	5161
1247.987	5133
1250.269	5007
1252.552	5257
1254.834	5098
1257.118	5074
1259.399	5226
1261.678	5198
1263.958	5173
1266.237	5181
1268.516	5144
1270.794	5270
1273.072	5130
1275.347	5117
1277.624	5145
1279.899	5212
1282.175	5113
1284.449	5102
1286.722	5142
1288.995	5104
1291.266	5075
1293.54	5134
1295.81	5137
1298.081	5153
1300.35	5108
1302.62	5083
1304.889	5128
1307.156	5027
1309.425	5021
1311.69	5103
1313.957	5071
1316.222	5000
1318.488	5227
1320.751	5070
1323.016	5168
1325.278	5109
1327.54	5191
1329.803	5077
1332.065	5088
1334.325	5098
1336.584	5089
1338.843	5201
1341.101	5046
1343.36	5131
1345.617	5021
1347.876	5047
1350.131	5127
1352.387	5100
1354.643	5112
1356.897	5097
1359.151	5061
1361.403	5003
1363.656	5003
1365.909	5201
1368.16	5114
1370.409	5059
1372.659	5136
1374.909	5111
1377.157	5120
1379.407	5098
1381.655	5185
1383.9	5240
1386.147	5190
1388.393	5140
1390.64	5184
1392.885	5220
1395.127	5214
1397.37	5107
1399.614	5220
1401.854	5159
1404.098	5130
1406.339	5169
1408.578	5189
1410.818	5234
1413.056	5276
1415.297	5248
1417.533	5253
1419.771	5257
1422.006	5209
1424.243	5345
1426.479	5251
1428.715	5287
1430.948	5246
1433.182	5310
1435.414	5276
1437.647	5228
1439.88	5433
1442.11	5332
1444.342	5321
1446.571	5300
1448.799	5214
1451.029	5392
1453.258	5425
1455.485	5293
1457.711	5385
1459.937	5381
1462.164	5356
1464.39	5332
1466.614	5287
1468.838	5430
1471.06	5371
1473.283	5314
1475.506	5239
1477.727	5218
1479.949	5290
1482.169	5243
1484.389	5174
1486.609	5224
1488.828	5199
1491.045	5124
1493.261	5223
1495.477	5231
1497.693	5170
1499.91	5170
1502.125	5276
1504.339	5180
1506.553	5158
1508.766	5173
1510.979	5074
1513.191	5188
1515.402	5128
1517.613	5159
1519.823	5191
1522.033	5262
1524.242	5258
1526.451	5217
1528.657	5155
1530.865	5177
1533.072	5166
1535.278	5226
1537.484	5230
1539.687	5202
1541.892	5153
1544.096	5195
1546.299	5176
1548.502	5127
1550.703	5252
1552.905	5318
1555.104	5289
1557.303	5224
1559.505	5283
1561.703	5205
1563.902	5305
1566.099	5348
1568.295	5284
1570.494	5250
1572.689	5266
1574.883	5294
1577.079	5360
1579.272	5338
1581.467	5450
1583.659	5307
1585.853	5317
1588.044	5257
1590.234	5327
1592.424	5323
1594.615	5346
1596.806	5326
1598.994	5372
1601.182	5430
1603.369	5270
1605.557	5353
1607.744	5462
1609.929	5459
1612.114	5359
1614.298	5440
1616.482	5389
1618.667	5346
1620.85	5459
1623.032	5457
1625.214	5386
1627.395	5377
1629.575	5480
1631.755	5453
1633.935	5412
1636.114	5475
1638.292	5490
1640.471	5417
1642.647	5459
1644.823	5442
1647	5337
1649.175	5366
1651.348	5404
1653.525	5492
1655.698	5524
1657.87	5553
1660.043	5441
1662.213	5451
1664.387	5501
1666.558	5512
1668.727	5453
1670.896	5546
1673.064	5412
1675.233	5519
1677.401	5461
1679.569	5449
1681.735	5487
1683.902	5483
1686.066	5439
1688.233	5485
1690.397	5443
1692.559	5568
1694.723	5455
1696.885	5375
1699.048	5436
1701.21	5439
1703.37	5381
1705.53	5439
1707.689	5417
1709.849	5294
1712.009	5387
1714.166	5334
1716.323	5351
1718.479	5331
1720.634	5328
1722.793	5379
1724.948	5457
1727.102	5318
1729.255	5474
1731.408	5329
1733.562	5417
1735.714	5380
1737.865	5428
1740.016	5392
1742.166	5439
1744.316	5457
1746.467	5395
1748.616	5387
1750.764	5492
1752.911	5548
1755.056	5501
1757.205	5321
1759.35	5477
1761.496	5440
1763.641	5595
1765.785	5427
1767.927	5504
1770.072	5467
1772.214	5441
1774.355	5500
1776.496	5393
1778.637	5467
1780.778	5424
1782.918	5527
1785.057	5494
1787.194	5382
1789.333	5566
1791.472	5496
1793.608	5475
1795.745	5406
1797.879	5488
1800.015	5554
1802.148	5416
1804.284	5535
1806.417	5480
1808.548	5549
1810.682	5502
1812.812	5526
1814.946	5509
1817.075	5471
1819.205	5459
1821.335	5428
1823.463	5481
1825.59	5492
1827.721	5334
1829.847	5517
1831.973	5543
1834.098	5539
1836.223	5411
1838.351	5529
1840.475	5513
1842.598	5456
1844.721	5491
1846.843	5446
1848.966	5425
1851.087	5436
1853.21	5501
1855.33	5375
1857.449	5465
1859.568	5402
1861.688	5480
1863.806	5400
1865.924	5592
1868.039	5544
1870.155	5421
1872.273	5502
1874.388	5514
1876.503	5473
1878.617	5541
1880.73	5493
1882.844	5431
1884.956	5486
1887.068	5536
1889.18	5376
1891.291	5446
1893.4	5517
1895.511	5460
1897.621	5487
1899.73	5573
1901.837	5577
1903.944	5456
1906.053	5516
1908.159	5506
1910.265	5544
1912.369	5527
1914.474	5536
1916.577	5566
1918.683	5617
1920.785	5567
1922.888	5472
1924.989	5669
1927.091	5534
1929.193	5633
1931.294	5587
1933.393	5596
1935.493	5579
1937.59	5549
1939.689	5540
1941.788	5552
1943.884	5607
1945.98	5616
1948.077	5578
1950.171	5479
1952.267	5645
1954.361	5562
1956.455	5419
1958.548	5548
1960.64	5647
1962.733	5672
1964.824	5616
1966.915	5535
1969.005	5531
1971.096	5477
1973.185	5634
1975.275	5522
1977.363	5521
1979.45	5548
1981.537	5486
1983.623	5504
1985.711	5599
1987.796	5525
1989.881	5551
1991.965	5647
1994.047	5583
1996.132	5496
1998.215	5574
2000.297	5569
2002.378	5488
2004.46	5504
2006.54	5455
2008.62	5496
2010.7	5467
2012.779	5548
2014.858	5551
2016.934	5441
2019.013	5441
2021.09	5529
2023.165	5513
2025.241	5535
2027.317	5560
2029.39	5506
2031.466	5580
2033.538	5533
2035.612	5502
2037.683	5571
2039.755	5568
2041.827	5548
2043.898	5521
2045.968	5582
2048.038	5582
2050.106	5548
2052.177	5579
2054.244	5623
2056.313	5552
2058.379	5522
2060.444	5492
2062.511	5513
2064.577	5614
2066.641	5648
2068.705	5569
2070.77	5579
2072.832	5535
2074.896	5553
2076.958	5608
2079.02	5581
2081.081	5518
2083.141	5509
2085.2	5692
2087.261	5504
2089.319	5563
2091.377	5627
2093.435	5622
2095.492	5481
2097.552	5623
2099.607	5634
2101.663	5530
2103.718	5620
2105.771	5498
2107.826	5549
2109.879	5550
2111.932	5581
2113.985	5558
2116.037	5487
2118.088	5606
2120.141	5549
2122.191	5621
2124.239	5710
2126.288	5650
2128.337	5554
2130.387	5609
2132.434	5599
2134.481	5608
2136.528	5590
2138.574	5446
2140.618	5644
2142.665	5566
2144.71	5551
2146.753	5604
2148.797	5563
2150.838	5606
2152.883	5604
2154.923	5611
2156.965	5534
2159.007	5545
2161.046	5527
2163.086	5453
2165.126	5496
2167.163	5516
2169.202	5419
2171.239	5592
2173.277	5595
2175.314	5548
2177.349	5395
2179.385	5461
2181.42	5476
2183.453	5530
2185.49	5520
2187.522	5575
2189.555	5597
2191.586	5533
2193.619	5512
2195.651	5528
2197.682	5456
2199.711	5413
2201.74	5447
2203.769	5508
2205.799	5422
2207.828	5495
2209.855	5472
2211.882	5435
2213.908	5552
2215.934	5507
2217.961	5500
2219.986	5519
2222.01	5433
2224.034	5530
2226.057	5420
2228.08	5522
2230.104	5474
2232.124	5527
2234.145	5455
2236.166	5299
2238.186	5531
2240.207	5542
2242.227	5503
2244.244	5395
2246.262	5491
2248.28	5455
2250.299	5490
2252.314	5497
2254.33	5381
2256.346	5486
2258.36	5488
2260.375	5469
2262.391	5447
2264.403	5523
2266.416	5384
2268.427	5442
2270.44	5453
2272.453	5470
2274.463	5521
2276.474	5487
2278.483	5459
2280.493	5527
2282.501	5532
2284.51	5530
2286.518	5482
2288.524	5493
2290.532	5488
2292.537	5399
2294.544	5528
2296.55	5508
2298.554	5504
2300.557	5537
2302.562	5449
2304.566	5437
2306.568	5406
2308.569	5455
2310.572	5509
2312.573	5426
2314.573	5510
2316.574	5457
2318.573	5468
2320.571	5426
2322.571	5491
2324.569	5447
2326.567	5454
2328.564	5452
2330.56	5453
2332.556	5390
2334.551	5401
2336.546	5341
2338.542	5417
2340.535	5373
2342.529	5375
2344.521	5472
2346.512	5423
2348.505	5437
2350.497	5402
2352.487	5433
2354.478	5476
2356.468	5294
2358.457	5354
2360.446	5351
2362.434	5323
2364.422	5359
2366.408	5458
2368.395	5347
2370.383	5348
2372.369	5402
2374.353	5466
2376.338	5407
2378.321	5406
2380.307	5355
2382.29	5438
2384.272	5392
2386.254	5297
2388.235	5346
2390.218	5330
2392.198	5335
2394.179	5343
2396.157	5325
2398.137	5324
2400.115	5252
2402.095	5263
2404.072	5350
2406.048	5312
2408.026	5310
2410.001	5335
2411.977	5296
2413.953	5259
2415.927	5351
2417.9	5294
2419.875	5323
2421.847	5324
2423.821	5401
2425.792	5360
2427.763	5361
2429.736	5360
2431.706	5341
2433.677	5258
2435.646	5439
2437.615	5393
2439.583	5188
2441.551	5370
2443.519	5368
2445.486	5335
2447.452	5383
2449.418	5287
2451.383	5344
2453.348	5366
2455.314	5317
2457.278	5305
2459.241	5260
2461.205	5346
2463.167	5342
2465.131	5264
2467.091	5425
2469.052	5240
2471.012	5276
2472.972	5425
2474.932	5205
2476.891	5339
2478.85	5315
2480.808	5250
2482.766	5332
2484.722	5109
2486.68	5308
2488.636	5258
2490.591	5350
2492.546	5294
2494.5	5304
2496.456	5185
2498.41	5173
2500.362	5308
2502.315	5223
2504.266	5298
2506.218	5235
2508.169	5288
2510.121	5284
2512.07	5347
2514.019	5249
2515.968	5284
2517.918	5244
2519.866	5327
2521.813	5321
2523.76	5258
2525.707	5200
2527.653	5302
2529.599	5231
2531.543	5294
2533.489	5307
2535.433	5229
2537.376	5345
2539.32	5304
2541.264	5260
2543.205	5271
2545.147	5313
2547.087	5275
2549.029	5242
2550.969	5251
2552.908	5291
2554.847	5331
2556.786	5255
2558.724	5240
2560.663	5149
2562.6	5300
2564.537	5347
2566.473	5248
2568.408	5299
2570.345	5246
2572.28	5283
2574.214	5214
2576.148	5236
2578.081	5259
2580.014	5219
2581.947	5227
2583.879	5312
2585.81	5245
2587.741	5296
2589.67	5206
2591.602	5370
2593.532	5284
2595.461	5203
2597.388	5304
2599.316	5309
2601.244	5233
2603.172	5243
2605.098	5286
2607.023	5193
2608.949	5329
2610.873	5285
2612.8	5303
2614.723	5231
2616.647	5246
2618.569	5347
2620.493	5389
2622.416	5428
2624.338	5320
2626.258	5361
2628.179	5283
2630.099	5342
2632.019	5372
2633.939	5363
2635.857	5327
2637.775	5365
2639.694	5291
2641.61	5256
2643.528	5277
2645.444	5275
2647.361	5368
2649.276	5319
2651.19	5289
2653.105	5124
2655.019	5330
2656.934	5366
2658.846	5400
2660.758	5281
2662.67	5297
2664.583	5269
2666.493	5324
2668.404	5256
2670.313	5352
2672.223	5241
2674.134	5293
2676.042	5270
2677.95	5218
2679.858	5315
2681.765	5366
2683.673	5225
2685.579	5307
2687.483	5255
2689.389	5288
2691.294	5212
2693.198	5291
2695.104	5279
2697.006	5242
2698.909	5247
2700.811	5274
2702.713	5302
2704.615	5242
2706.516	5251
2708.417	5335
2710.316	5158
2712.216	5131
2714.115	5215
2716.014	5197
2717.913	5231
2719.81	5323
2721.707	5201
2723.603	5231
2725.501	5215
2727.396	5201
2729.292	5216
2731.186	5290
2733.081	5221
2734.976	5175
2736.87	5094
2738.762	5196
2740.653	5223
2742.546	5225
2744.437	5153
2746.329	5238
2748.22	5282
2750.11	5183
2751.999	5197
2753.889	5167
2755.778	5300
2757.666	5136
2759.553	5297
2761.44	5161
2763.328	5192
2765.215	5229
2767.101	5266
2768.986	5174
2770.87	5243
2772.754	5292
2774.638	5263
2776.523	5146
2778.405	5237
2780.288	5192
2782.17	5197
2784.051	5180
2785.934	5115
2787.814	5132
2789.694	5245
2791.574	5125
2793.453	5108
2795.332	5292
2797.212	5283
2799.088	5051
2800.966	5186
2802.843	5109
2804.719	5142
2806.597	5213
2808.471	5140
2810.346	5108
2812.221	5273
2814.094	5229
2815.969	5218
2817.843	5176
2819.714	5225
2821.587	5170
2823.459	5175
2825.329	5189
2827.202	5198
2829.072	5099
2830.942	5206
2832.811	5217
2834.68	5072
2836.549	5091
2838.418	5223
2840.284	5231
2842.152	5115
2844.018	5209
2845.885	5216
2847.751	5107
2849.616	5133
2851.482	5046
2853.345	5223
2855.208	5181
2857.074	5202
2858.937	5304
2860.799	5103
2862.66	5256
2864.522	5186
2866.385	5241
2868.245	5266
2870.104	5353
2871.964	5253
2873.824	5257
2875.683	5348
2877.542	5334
2879.4	5479
2881.257	5363
2883.114	5497
2884.97	5521
2886.827	5403
2888.683	5483
2890.537	5431
2892.392	5405
2894.246	5462
2896.1	5484
2897.954	5435
2899.807	5428
2901.66	5425
2903.51	5401
2905.362	5319
2907.214	5441
2909.065	5507
2910.915	5438
2912.765	5544
2914.613	5420
2916.463	5460
2918.311	5608
2920.158	5561
2922.006	5553
2923.853	5637
2925.698	5761
2927.546	5758
2929.392	5713
2931.236	5774
2933.081	5928
2934.924	5750
2936.77	5791
2938.613	5779
2940.455	6073
2942.298	5956
2944.139	5839
2945.982	5982
2947.823	5954
2949.662	5833
2951.503	5818
2953.342	5788
2955.182	5841
2957.021	5744
2958.858	5748
2960.697	5711
2962.534	5595
2964.37	5547
2966.207	5571
2968.044	5633
2969.879	5506
2971.714	5601
2973.548	5570
2975.383	5604
2977.218	5449
2979.051	5552
2980.883	5530
2982.715	5532
2984.547	5427
2986.379	5427
2988.21	5293
2990.04	5501
2991.87	5308
2993.7	5267
2995.53	5397
2997.359	5274
2999.187	5418
3001.015	5239
3002.842	5271
3004.669	5275
3006.497	5151
3008.323	5038
3010.148	5133
3011.974	5050
3013.797	5064
3015.623	5095
3017.447	5126
3019.27	5136
3021.094	4950
3022.915	5002
3024.737	5037
3026.56	5050
3028.38	4980
3030.201	5004
3032.022	4993
3033.84	5023
3035.662	5023
3037.481	4923
3039.298	4989
3041.117	4911
3042.933	4985
3044.752	4951
3046.568	4892
3048.385	4864
3050.2	4936
3052.016	4926
3053.83	5041
3055.646	5005
3057.46	4936
3059.272	4979
3061.086	4934
3062.898	4964
3064.711	4983
3066.524	5019
3068.335	4927
3070.145	4974
3071.956	4993
3073.766	4865
3075.576	4869
3077.385	4954
3079.193	4821
3081.002	4850
3082.81	4853
3084.618	4834
3086.425	4819
3088.231	4959
3090.036	4785
3091.842	4852
3093.648	4861
3095.452	4845
3097.257	4884
3099.06	4837
3100.863	4750
3102.666	4796
3104.47	4824
3106.272	4801
3108.073	4906
3109.875	4690
3111.676	4811
3113.477	4785
3115.277	4828
3117.077	4725
3118.874	4734
3120.673	4789
3122.473	4719
3124.271	4744
3126.066	4684
3127.863	4791
3129.66	4817
3131.456	4785
3133.252	4726
3135.047	4765
3136.842	4771
3138.635	4691
3140.429	4800
3142.223	4681
3144.016	4835
3145.808	4819
3147.6	4832
3149.392	4736
3151.183	4763
3152.975	4835
3154.765	4732
3156.553	4682
3158.344	4756
3160.132	4712
3161.922	4649
3163.71	4710
3165.497	4705
3167.285	4730
3169.071	4771
3170.858	4695
3172.645	4669
3174.429	4592
3176.214	4704
3177.998	4592
3179.783	4579
3181.568	4668
3183.351	4693
3185.133	4725
3186.915	4613
3188.698	4730
3190.481	4601
3192.261	4642
3194.042	4618
3195.822	4702
3197.601	4671
3199.381	4706
3201.161	4674
3202.939	4685
3204.717	4619
3206.495	4634
3208.272	4599
3210.05	4605
3211.826	4631
3213.602	4654
3215.376	4684
3217.151	4796
3218.927	4601
3220.702	4577
3222.476	4648
3224.249	4710
3226.021	4690
3227.793	4561
3229.567	4615
3231.339	4557
3233.109	4638
3234.88	4656
3236.651	4598
3238.421	4557
3240.191	4652
3241.96	4566
3243.728	4722
3245.497	4518
3247.263	4625
3249.033	4662
3250.799	4617
3252.566	4714
3254.331	4645
3256.097	4658
3257.863	4649
3259.628	4591
3261.392	4636
3263.156	4599
3264.919	4651
3266.683	4596
3268.447	4676
3270.208	4630
3271.969	4681
3273.731	4631
3275.492	4544
3277.253	4650
3279.013	4619
3280.773	4561
3282.532	4648
3284.291	4567
3286.05	4506
3287.808	4556
3289.566	4627
3291.323	4617
3293.079	4638
3294.835	4652
3296.593	4616
3298.348	4632
3300.102	4668
3301.857	4661
3303.611	4619
3305.366	4621
3307.119	4530
3308.872	4674
3310.624	4603
3312.376	4652
3314.129	4617
3315.881	4597
3317.631	4600
3319.38	4600
3321.13	4641
3322.88	4646
3324.631	4586
3326.379	4542
3328.126	4683
3329.875	4576
3331.622	4597
3333.371	4585
3335.116	4520
3336.863	4564
3338.609	4642
3340.353	4549
3342.1	4544
3343.845	4573
3345.588	4565
3347.332	4668
3349.074	4520
3350.817	4528
3352.56	4538
3354.303	4527
3356.043	4579
3357.785	4540
3359.525	4586
3361.268	4550
3363.007	4584
3364.745	4578
3366.485	4503
3368.223	4610
3369.962	4525
3371.701	4553
3373.438	4538
3375.174	4542
3376.911	4515
3378.647	4503
3380.384	4554
3382.118	4437
3383.854	4564
3385.588	4425
3387.322	4416
3389.057	4533
3390.79	4510
3392.522	4497
3394.255	4594
3395.987	4504
3397.719	4501
3399.451	4557
3401.181	4503
3402.911	4446
3404.641	4587
3406.371	4492
3408.101	4631
3409.83	4544
3411.558	4483
3413.285	4446
3415.011	4361
3416.739	4516
3418.467	4445
3420.193	4405
3421.919	4502
3423.644	4344
3425.368	4491
3427.094	4360
3428.818	4497
3430.542	4423
3432.264	4443
3433.987	4402
3435.712	4426
3437.434	4360
3439.155	4391
3440.876	4363
3442.596	4420
3444.317	4374
3446.039	4296
3447.757	4273
3449.477	4446
3451.195	4314
3452.914	4400
3454.632	4362
3456.35	4363
3458.067	4243
3459.784	4356
3461.5	4418
3463.216	4334
3464.932	4342
3466.647	4346
3468.362	4302
3470.076	4360
3471.789	4347
3473.505	4348
3475.217	4313
3476.929	4267
3478.641	4346
3480.354	4266
3482.066	4338
3483.777	4351
3485.487	4276
3487.197	4247
3488.908	4303
3490.617	4270
3492.327	4215
3494.035	4269
3495.743	4247
3497.451	4223
3499.158	4215
3500.866	4264
3502.572	4362
3504.278	4244
3505.984	4302
3507.689	4181
3509.396	4189
3511.1	4212
3512.804	4229
3514.508	4242
3516.211	4256
3517.913	4247
3519.616	4125
3521.319	4187
3523.021	4265
3524.722	4193
3526.422	4104
3528.124	4200
3529.824	4315
3531.524	4128
3533.222	4240
3534.921	4159
3536.62	4201
3538.318	4173
3540.016	4117
3541.714	4123
3543.41	4208
3545.107	4122
3546.803	4163
3548.5	4139
3550.194	4201
3551.889	4165
3553.583	4221
3555.279	4182
3556.972	4158
3558.666	4163
3560.358	4077
3562.051	4127
3563.742	4055
3565.435	4170
3567.126	4122
3568.817	4148
3570.507	4104
3572.197	4109
3573.888	4138
3575.577	4209
3577.265	4160
3578.954	4053
3580.642	4097
3582.329	4085
3584.017	4051
3585.704	4074
3587.391	4015
3589.077	3991
3590.762	4051
3592.449	4021
3594.133	4034
3595.817	4089
3597.501	3944
3599.185	3997
3600.869	3925
3602.552	3960
3604.234	4048
3605.916	4045
3607.598	4031
3609.279	4008
3610.961	3928
3612.642	4034
3614.321	4025
3616	3995
3617.68	3991
3619.36	4057
3621.039	3956
3622.716	3896
3624.394	3926
3626.071	3976
3627.748	3942
3629.425	4005
3631.102	4043
3632.778	3971
3634.452	3917
3636.127	3960
3637.803	3980
3639.477	4000
3641.151	3913
3642.823	4028
3644.497	3926
3646.171	3892
3647.842	3895
3649.515	3868
3651.185	3850
3652.857	3904
3654.527	3825
3656.198	3961
3657.868	3848
3659.537	3837
3661.207	3870
3662.875	3791
3664.544	3892
3666.212	3857
3667.879	3953
3669.546	3919
3671.212	3876
3672.88	3859
3674.546	3865
3676.211	3922
3677.875	3809
3679.541	3971
3681.205	3823
3682.87	3867
3684.533	3843
3686.196	3890
3687.859	3852
3689.521	3778
3691.184	3765
3692.845	3738
3694.507	3707
3696.167	3819
3697.827	3827
3699.487	3773
3701.148	3816
3702.808	3853
3704.466	3783
3706.125	3805
3707.783	3808
3709.442	3805
3711.099	3787
3712.757	3833
3714.412	3777
3716.068	3831
3717.725	3826
3719.381	3811
3721.036	3824
3722.689	3739
3724.344	3799
3725.998	3751
3727.652	3815
3729.305	3772
3730.958	3838
3732.61	3702
3734.262	3789
3735.915	3779
3737.565	3766
3739.217	3795
3740.866	3753
3742.516	3687
3744.165	3798
3745.816	3728
3747.464	3723
3749.113	3741
3750.761	3753
3752.409	3675
3754.057	3698
3755.703	3760
3757.35	3729
3758.996	3755
3760.641	3761
3762.289	3716
3763.933	3748
3765.577	3672
3767.222	3743
3768.865	3698
3770.508	3741
3772.152	3728
3773.796	3727
3775.438	3728
3777.079	3630
3778.721	3727
3780.363	3653
3782.003	3617
3783.643	3667
3785.283	3659
3786.923	3709
3788.563	3748
3790.203	3691
3791.841	3633
3793.479	3710
3795.115	3665
3796.753	3710
3798.391	3621
3800.027	3637
3801.664	3650
3803.299	3618
3804.935	3654
3806.571	3660
3808.206	3641
3809.839	3685
3811.473	3572
3813.107	3566
3814.74	3661
3816.375	3644
3818.006	3565
3819.638	3617
3821.27	3612
3822.9	3578
3824.532	3601
3826.163	3604
3827.792	3546
3829.423	3612
3831.051	3583
3832.682	3685
3834.311	3651
3835.938	3627
3837.566	3580
3839.193	3590
3840.821	3564
3842.448	3538
3844.075	3602
3845.7	3620
3847.325	3603
3848.951	3609
3850.576	3652
3852.201	3529
3853.825	3560
3855.448	3536
3857.072	3550
3858.694	3571
3860.318	3520
3861.939	3576
3863.562	3595
3865.183	3586
3866.804	3570
3868.426	3552
3870.045	3481
3871.666	3495
3873.285	3572
3874.904	3515
3876.524	3568
3878.142	3532
3879.76	3564
3881.378	3521
3882.995	3472
3884.612	3548
3886.229	3593
3887.845	3531
3889.461	3492
3891.076	3498
3892.691	3540
3894.307	3504
3895.922	3427
3897.536	3473
3899.149	3458
3900.761	3505
3902.374	3480
3903.988	3492
3905.6	3497
3907.212	3444
3908.822	3546
3910.433	3425
3912.045	3523
3913.655	3471
3915.265	3451
3916.875	3468
3918.483	3544
3920.093	3457
3921.702	3552
3923.309	3450
3924.917	3387
3926.523	3434
3928.13	3365
3929.739	3420
3931.344	3499
3932.95	3401
3934.555	3446
3936.159	3397
3937.766	3538
3939.369	3399
3940.974	3432
3942.577	3400
3944.181	3504
3945.783	3484
3947.386	3493
3948.989	3402
3950.59	3499
3952.191	3390
3953.791	3388
3955.394	3394
3956.994	3443
3958.593	3481
3960.192	3432
3961.791	3441
3963.392	3428
3964.99	3380
3966.588	3456
3968.185	3405
3969.782	3341
3971.379	3389
3972.976	3421
3974.572	3314
3976.168	3384
3977.763	3391
3979.358	3420
3980.954	3327
3982.548	3289
3984.142	3361
3985.736	3385
3987.329	3335
3988.922	3319
3990.516	3288
3992.108	3269
3993.698	3360
3995.29	3323
3996.881	3349
3998.473	3264
4000.064	3287
4001.653	3262
4003.242	3320
4004.832	3328
4006.422	3321
4008.01	3340
4009.598	3274
4011.186	3301
4012.773	3307
4014.36	3365
4015.947	3281
4017.534	3171
4019.119	3229
4020.705	3215
4022.291	3257
4023.876	3263
4025.461	3321
4027.044	3216
4028.627	3299
4030.211	3185
4031.795	3271
4033.378	3231
4034.96	3203
4036.542	3306
4038.124	3193
4039.704	3148
4041.286	3213
4042.867	3179
4044.447	3183
4046.026	3147
4047.606	3217
4049.187	3192
4050.765	3213
4052.343	3203
4053.92	3184
4055.498	3305
4057.076	3273
4058.654	3247
4060.23	3213
4061.806	3171
4063.381	3221
4064.957	3206
4066.533	3160
4068.107	3152
4069.682	3214
4071.256	3166
4072.829	3229
4074.404	3203
4075.977	3199
4077.549	3195
4079.121	3150
4080.693	3105
4082.265	3160
4083.836	3152
4085.407	3217
4086.977	3203
4088.547	3147
4090.117	3082
4091.687	3133
4093.256	3085
4094.825	3104
4096.392	3167
4097.96	3162
4099.528	3158
4101.097	3173
4102.663	3150
4104.229	3126
4105.795	3202
4107.361	3140
4108.928	3220
4110.493	3133
4112.058	3143
4113.621	3115
4115.186	3133
4116.75	3035
4118.313	3156
4119.876	3104
4121.438	3093
4123	3095
4124.562	3087
4126.125	3102
4127.686	3048
4129.246	3102
4130.807	3046
4132.367	3070
4133.927	3082
4135.486	3036
4137.046	3091
4138.604	3036
4140.162	3003
4141.72	3061
4143.279	3113
4144.836	3054
4146.393	3060
4147.949	3043
4149.505	3021
4151.062	3032
4152.617	3010
4154.172	3011
4155.727	2983
4157.281	3010
4158.836	2990
4160.39	3022
4161.943	2993
4163.496	3035
4165.048	3017
4166.601	2922
4168.154	2988
4169.706	2936
4171.257	2931
4172.808	3031
4174.358	2986
4175.909	2976
4177.458	3071
4179.008	2950
4180.558	2941
4182.106	2951
4183.655	3052
4185.204	2929
4186.751	2962
4188.298	2995
4189.845	2949
4191.392	2922
4192.939	2921
4194.485	2958
4196.031	2930
4197.576	2949
4199.121	2929
4200.666	2897
4202.211	2979
4203.754	2954
4205.298	2903
4206.84	2964
4208.384	2898
4209.927	2938
4211.47	2933
4213.011	2857
4214.552	2954
4216.094	2953
4217.635	2919
4219.175	2941
4220.716	2928
4222.255	2921
4223.793	2899
4225.335	2868
4226.873	2907
4228.411	2941
4229.948	2898
4231.486	2856
4233.024	2930
4234.562	2889
4236.098	2906
4237.634	2929
4239.169	2909
4240.705	2855
4242.241	2898
4243.776	2865
4245.31	2915
4246.844	2896
4248.378	2922
4249.911	2914
4251.445	2879
4252.978	2936
4254.51	2866
4256.042	2835
4257.574	2828
4259.107	2913
4260.638	2850
4262.169	2836
4263.699	2872
4265.228	2903
4266.759	2857
4268.289	2899
4269.818	2878
4271.345	2925
4272.874	2849
4274.402	2926
4275.931	2826
4277.458	2937
4278.985	2843
4280.512	2815
4282.037	2836
4283.564	2714
4285.089	2796
4286.615	2806
4288.139	2733
4289.664	2832
4291.187	2840
4292.712	2825
4294.235	2806
4295.759	2778
4297.281	2835
4298.804	2838
4300.327	2799
4301.849	2784
4303.37	2857
4304.891	2851
4306.412	2726
4307.933	2796
4309.453	2754
4310.973	2841
4312.492	2725
