398.1873	3038
400.7097	3004
403.2336	3031
405.7547	3002
408.2751	3014
410.7948	3025
413.3138	3151
415.83	3003
418.3497	3045
420.8666	3186
423.3829	3163
425.8985	3225
428.4133	3150
430.9275	3165
433.441	3261
435.9538	3159
438.4639	3250
440.9753	3221
443.4881	3231
445.9982	3166
448.5055	3182
451.0142	3303
453.5201	3204
456.0274	3245
458.5361	3223
461.04	3233
463.5453	3238
466.0478	3166
468.5517	3144
471.0549	3244
473.5574	3231
476.0572	3261
478.5584	3281
481.0568	3270
483.5545	3327
486.0557	3242
488.5521	3234
491.0478	3257
493.5449	3247
496.0392	3401
498.5349	3262
501.0299	3381
503.5222	3388
506.0139	3308
508.5048	3300
510.9991	3307
513.4887	3335
515.9777	3320
518.4659	3251
520.9534	3269
523.4403	3332
525.9306	3425
528.4161	3351
530.9009	3407
533.3851	3364
535.8687	3352
538.3535	3296
540.8356	3350
543.3171	3407
545.7979	3309
548.278	3293
550.7595	3388
553.2383	3332
555.7144	3372
558.1918	3353
560.6685	3372
563.1446	3365
565.6221	3321
568.0968	3396
570.5688	3328
573.0422	3452
575.515	3405
577.989	3483
580.4584	3403
582.9291	3394
585.3991	3446
587.8685	3374
590.3352	3474
592.8052	3438
595.2706	3490
597.7372	3500
600.2033	3469
602.6666	3424
605.1334	3416
607.5953	3461
610.0587	3518
612.5193	3440
614.9814	3432
617.4427	3520
619.9034	3416
622.3615	3433
624.8208	3458
627.2775	3430
629.7335	3334
632.1929	3509
634.6476	3419
637.1016	3503
639.5569	3425
642.0096	3456
644.4637	3445
646.9151	3420
649.3678	3471
651.8179	3487
654.2672	3454
656.7159	3550
659.166	3486
661.6154	3435
664.0622	3444
666.5082	3481
668.9537	3514
671.4005	3567
673.8445	3544
676.288	3528
678.7308	3522
681.1729	3467
683.6163	3531
686.0572	3553
688.4973	3594
690.9368	3554
693.3757	3600
695.8138	3588
698.2534	3561
700.6902	3523
703.1245	3529
705.56	3568
707.9949	3615
710.4311	3627
712.8647	3561
715.2957	3556
717.7279	3650
720.1595	3630
722.5905	3623
725.0208	3651
727.4505	3664
729.8795	3740
732.3058	3689
734.7336	3629
737.1626	3651
739.587	3743
742.0128	3718
744.4359	3733
746.8604	3746
749.2841	3656
751.7073	3744
754.1278	3777
756.5496	3736
758.9688	3696
761.3893	3741
763.8093	3757
766.2285	3752
768.6451	3790
771.0611	3741
773.4784	3828
775.895	3842
778.3091	3808
780.7244	3794
783.1371	3718
785.5493	3776
787.9626	3811
790.3754	3747
792.7856	3767
795.1951	3776
797.6039	3799
800.0121	3821
802.4236	3801
804.8306	3776
807.2369	3893
809.6425	3860
812.0475	3802
814.4538	3832
816.8575	3854
819.2606	3750
821.663	3886
824.0648	3833
826.4659	3852
828.8683	3817
831.2682	3764
833.6674	3866
836.066	3827
838.4639	3919
840.8632	3845
843.2579	3833
845.6539	3974
848.0493	3904
850.444	3914
852.84	3907
855.2315	3899
857.6243	3927
860.0165	3864
862.4081	3954
864.797	3846
867.1892	3987
869.5789	3911
871.9659	3857
874.3542	3926
876.74	3906
879.129	3889
881.5155	3915
883.8994	3949
886.2845	3895
888.6671	3904
891.051	3878
893.4343	3890
895.8169	3985
898.197	4039
900.5783	3883
902.9571	3873
905.3372	3976
907.7167	3945
910.0936	3973
912.4698	3949
914.8474	3993
917.2244	3979
919.5987	4044
921.9744	3979
924.3475	4004
926.72	4038
929.0918	4013
931.4669	4049
933.8375	4043
936.2074	4112
938.5767	4049
940.9454	4130
943.3154	4198
945.6829	4255
948.0497	4282
950.4178	4361
952.7833	4435
955.1483	4538
957.5145	4721
959.8782	4774
962.2412	4723
964.6036	4586
966.9655	4574
969.3266	4402
971.6871	4324
974.0471	4207
976.4064	4084
978.765	4098
981.125	4065
983.4824	4075
985.8373	4030
988.1935	4026
990.549	4043
992.9039	4025
995.2602	4126
997.6119	3964
999.965	4124
1002.317	4049
1004.667	4066
1007.02	4029
1009.371	4090
1011.719	4071
1014.068	4052
1016.415	4076
1018.765	4072
1021.111	4088
1023.458	4137
1025.804	4144
1028.147	4164
1030.49	4189
1032.837	4148
1035.179	4071
1037.522	4135
1039.862	4062
1042.204	4148
1044.546	4166
1046.884	4061
1049.224	4055
1051.562	4197
1053.899	4154
1056.237	4105
1058.575	4084
1060.91	4146
1063.244	4122
1065.58	4238
1067.913	4089
1070.248	4211
1072.579	4145
1074.911	4178
1077.242	4224
1079.572	4169
1081.905	4141
1084.234	4194
1086.562	4124
1088.89	4221
1091.217	4143
1093.544	4157
1095.871	4232
1098.197	4178
1100.521	4102
1102.845	4157
1105.169	4168
1107.491	4245
1109.814	4082
1112.135	4133
1114.456	4237
1116.776	4139
1119.096	4174
1121.415	4113
1123.734	4174
1126.052	4230
1128.369	4201
1130.686	4279
1133.002	4097
1135.318	4163
1137.632	4181
1139.945	4320
1142.258	4077
1144.573	4163
1146.884	4360
1149.196	4130
1151.505	4334
1153.816	4217
1156.124	4206
1158.435	4203
1160.742	4337
1163.051	4269
1165.356	4219
1167.663	4179
1169.97	4124
1172.276	4195
1174.579	4155
1176.881	4141
1179.186	4171
1181.487	4234
1183.79	4100
1186.092	4196
1188.392	4176
1190.691	4126
1192.991	4226
1195.291	4219
1197.588	4279
1199.885	4108
1202.181	4239
1204.479	4304
1206.775	4181
1209.07	4173
1211.363	4180
1213.656	4192
1215.949	4209
1218.241	4197
1220.534	4168
1222.825	4234
1225.115	4219
1227.405	4256
1229.693	4296
1231.984	4244
1234.271	4350
1236.558	4329
1238.845	4351
1241.131	4391
1243.416	4322
1245.703	4328
1247.987	4304
1250.269	4427
1252.552	4288
1254.834	4337
1257.118	4360
1259.399	4405
1261.678	4322
1263.958	4349
1266.237	4460
1268.516	4357
1270.794	4286
1273.072	4354
1275.347	4382
1277.624	4465
1279.899	4317
1282.175	4289
1284.449	4315
1286.722	4373
1288.995	4244
1291.266	4303
1293.54	4313
1295.81	4284
1298.081	4362
1300.35	4229
1302.62	4300
1304.889	4376
1307.156	4330
1309.425	4381
1311.69	4277
1313.957	4370
1316.222	4269
1318.488	4282
1320.751	4422
1323.016	4357
1325.278	4218
1327.54	4357
1329.803	4406
1332.065	4305
1334.325	4373
1336.584	4321
1338.843	4220
1341.101	4277
1343.36	4362
1345.617	4331
1347.876	4371
1350.131	4342
1352.387	4373
1354.643	4373
1356.897	4355
1359.151	4398
1361.403	4391
1363.656	4349
1365.909	4389
1368.16	4366
1370.409	4378
1372.659	4309
1374.909	4419
1377.157	4347
1379.407	4303
1381.655	4409
1383.9	4316
1386.147	4422
1388.393	4354
1390.64	4396
1392.885	4445
1395.127	4323
1397.37	4310
1399.614	4353
1401.854	4397
1404.098	4305
1406.339	4464
1408.578	4419
1410.818	4389
1413.056	4380
1415.297	4447
1417.533	4472
1419.771	4370
1422.006	4392
1424.243	4422
1426.479	4548
1428.715	4531
1430.948	4516
1433.182	4459
1435.414	4489
1437.647	4498
1439.88	4517
1442.11	4550
1444.342	4517
1446.571	4514
1448.799	4632
1451.029	4562
1453.258	4487
1455.485	4534
1457.711	4509
1459.937	4500
1462.164	4471
1464.39	4512
1466.614	4529
1468.838	4395
1471.06	4473
1473.283	4563
1475.506	4489
1477.727	4525
1479.949	4481
1482.169	4488
1484.389	4479
1486.609	4435
1488.828	4449
1491.045	4464
1493.261	4427
1495.477	4422
1497.693	4272
1499.91	4469
1502.125	4464
1504.339	4406
1506.553	4433
1508.766	4392
1510.979	4425
1513.191	4395
1515.402	4449
1517.613	4263
1519.823	4433
1522.033	4428
1524.242	4499
1526.451	4427
1528.657	4408
1530.865	4436
1533.072	4382
1535.278	4441
1537.484	4456
1539.687	4495
1541.892	4408
1544.096	4526
1546.299	4550
1548.502	4477
1550.703	4446
1552.905	4409
1555.104	4510
1557.303	4522
1559.505	4493
1561.703	4483
1563.902	4498
1566.099	4442
1568.295	4526
1570.494	4465
1572.689	4597
1574.883	4491
1577.079	4615
1579.272	4556
1581.467	4541
1583.659	4575
1585.853	4452
1588.044	4577
1590.234	4604
1592.424	4540
1594.615	4556
1596.806	4632
1598.994	4508
1601.182	4545
1603.369	4529
1605.557	4634
1607.744	4608
1609.929	4671
1612.114	4594
1614.298	4587
1616.482	4514
1618.667	4539
1620.85	4615
1623.032	4622
1625.214	4532
1627.395	4659
1629.575	4536
1631.755	4607
1633.935	4602
1636.114	4567
1638.292	4670
1640.471	4650
1642.647	4598
1644.823	4656
1647	4595
1649.175	4636
1651.348	4630
1653.525	4577
1655.698	4602
1657.87	4740
1660.043	4701
1662.213	4604
1664.387	4649
1666.558	4571
1668.727	4664
1670.896	4680
1673.064	4564
1675.233	4697
1677.401	4616
1679.569	4631
1681.735	4665
1683.902	4738
1686.066	4654
1688.233	4713
1690.397	4696
1692.559	4646
1694.723	4628
1696.885	4681
1699.048	4599
1701.21	4702
1703.37	4669
1705.53	4672
1707.689	4589
1709.849	4614
1712.009	4708
1714.166	4610
1716.323	4516
1718.479	4611
1720.634	4571
1722.793	4618
1724.948	4643
1727.102	4622
1729.255	4599
1731.408	4635
1733.562	4651
1735.714	4580
1737.865	4663
1740.016	4597
1742.166	4625
1744.316	4624
1746.467	4559
1748.616	4628
1750.764	4679
1752.911	4662
1755.056	4735
1757.205	4652
1759.35	4746
1761.496	4739
1763.641	4643
1765.785	4682
1767.927	4763
1770.072	4642
1772.214	4697
1774.355	4606
1776.496	4670
1778.637	4662
1780.778	4676
1782.918	4622
1785.057	4748
1787.194	4721
1789.333	4614
1791.472	4616
1793.608	4653
1795.745	4682
1797.879	4592
1800.015	4768
1802.148	4768
1804.284	4657
1806.417	4773
1808.548	4734
1810.682	4700
1812.812	4717
1814.946	4697
1817.075	4706
1819.205	4710
1821.335	4643
1823.463	4687
1825.59	4678
1827.721	4749
1829.847	4682
1831.973	4734
1834.098	4627
1836.223	4633
1838.351	4629
1840.475	4703
1842.598	4609
1844.721	4658
1846.843	4752
1848.966	4623
1851.087	4687
1853.21	4561
1855.33	4616
1857.449	4680
1859.568	4652
1861.688	4601
1863.806	4722
1865.924	4742
1868.039	4580
1870.155	4617
1872.273	4702
1874.388	4779
1876.503	4677
1878.617	4791
1880.73	4696
1882.844	4583
1884.956	4732
1887.068	4645
1889.18	4640
1891.291	4666
1893.4	4629
1895.511	4668
1897.621	4774
1899.73	4736
1901.837	4803
1903.944	4731
1906.053	4696
1908.159	4667
1910.265	4670
1912.369	4783
1914.474	4782
1916.577	4705
1918.683	4711
1920.785	4668
1922.888	4706
1924.989	4766
1927.091	4699
1929.193	4802
1931.294	4846
1933.393	4828
1935.493	4772
1937.59	4754
1939.689	4834
1941.788	4846
1943.884	4885
1945.98	4816
1948.077	4770
1950.171	4812
1952.267	4791
1954.361	4765
1956.455	4773
1958.548	4793
1960.64	4798
1962.733	4697
1964.824	4814
1966.915	4855
1969.005	4765
1971.096	4771
1973.185	4843
1975.275	4783
1977.363	4749
1979.45	4727
1981.537	4703
1983.623	4778
1985.711	4734
1987.796	4734
1989.881	4719
1991.965	4805
1994.047	4777
1996.132	4789
1998.215	4800
2000.297	4827
2002.378	4788
2004.46	4708
2006.54	4790
2008.62	4794
2010.7	4758
2012.779	4651
2014.858	4837
2016.934	4832
2019.013	4759
2021.09	4814
2023.165	4718
2025.241	4781
2027.317	4816
2029.39	4715
2031.466	4873
2033.538	4767
2035.612	4746
2037.683	4744
2039.755	4777
2041.827	4663
2043.898	4772
2045.968	4723
2048.038	4796
2050.106	4707
2052.177	4764
2054.244	4715
2056.313	7806
2058.379	4746
2060.444	4727
2062.511	4779
2064.577	4753
2066.641	4842
2068.705	4822
2070.77	4770
2072.832	4785
2074.896	4680
2076.958	4820
2079.02	4796
2081.081	4825
2083.141	4881
2085.2	4685
2087.261	4851
2089.319	4793
2091.377	4731
2093.435	4794
2095.492	4834
2097.552	4745
2099.607	4780
2101.663	4771
2103.718	4823
2105.771	4804
2107.826	4808
2109.879	4758
2111.932	4777
2113.985	4778
2116.037	4820
2118.088	4811
2120.141	4751
2122.191	4845
2124.239	4783
2126.288	4837
2128.337	4724
2130.387	4841
2132.434	4835
2134.481	4797
2136.528	4802
2138.574	4744
2140.618	4804
2142.665	4794
2144.71	4841
2146.753	4891
2148.797	4819
2150.838	4733
2152.883	4766
2154.923	4810
2156.965	4829
2159.007	4773
2161.046	4710
2163.086	4723
2165.126	4776
2167.163	4877
2169.202	4710
2171.239	4737
2173.277	4734
2175.314	4714
2177.349	4786
2179.385	4776
2181.42	4785
2183.453	4780
2185.49	4793
2187.522	4802
2189.555	4781
2191.586	4702
2193.619	4845
2195.651	4738
2197.682	4740
2199.711	4663
2201.74	4732
2203.769	4732
2205.799	4677
2207.828	4760
2209.855	4666
2211.882	4715
2213.908	4694
2215.934	4721
2217.961	4679
2219.986	4734
2222.01	4707
2224.034	4724
2226.057	4797
2228.08	4668
2230.104	4668
2232.124	4678
2234.145	4731
2236.166	4647
2238.186	4752
2240.207	4678
2242.227	4738
2244.244	4652
2246.262	4730
2248.28	4687
2250.299	4655
2252.314	4713
2254.33	4759
2256.346	4753
2258.36	4659
2260.375	4715
2262.391	4785
2264.403	4800
2266.416	4731
2268.427	4744
2270.44	4690
2272.453	4782
2274.463	4799
2276.474	4595
2278.483	4719
2280.493	4735
2282.501	4793
2284.51	4659
2286.518	4686
2288.524	4688
2290.532	4705
2292.537	4803
2294.544	4738
2296.55	4694
2298.554	4716
2300.557	4615
2302.562	4792
2304.566	4617
2306.568	4743
2308.569	4657
2310.572	4727
2312.573	4636
2314.573	4732
2316.574	4656
2318.573	4734
2320.571	4751
2322.571	4696
2324.569	4705
2326.567	4682
2328.564	4726
2330.56	4714
2332.556	4647
2334.551	4696
2336.546	4640
2338.542	4738
2340.535	4746
2342.529	4625
2344.521	4690
2346.512	4705
2348.505	4631
2350.497	4684
2352.487	4697
2354.478	4603
2356.468	4677
2358.457	4642
2360.446	4744
2362.434	4634
2364.422	4720
2366.408	4660
2368.395	4671
2370.383	4692
2372.369	4638
2374.353	4733
2376.338	4696
2378.321	4654
2380.307	4700
2382.29	4607
2384.272	4679
2386.254	4707
2388.235	4619
2390.218	4685
2392.198	4613
2394.179	4657
2396.157	4621
2398.137	4727
2400.115	4615
2402.095	4645
2404.072	4607
2406.048	4615
2408.026	4621
2410.001	4658
2411.977	4560
2413.953	4658
2415.927	4595
2417.9	4601
2419.875	4541
2421.847	4538
2423.821	4688
2425.792	4657
2427.763	4673
2429.736	4603
2431.706	4618
2433.677	4618
2435.646	4605
2437.615	4687
2439.583	4642
2441.551	4628
2443.519	4652
2445.486	4579
2447.452	4696
2449.418	4594
2451.383	4635
2453.348	4672
2455.314	4561
2457.278	4657
2459.241	4669
2461.205	4513
2463.167	4629
2465.131	4486
2467.091	4621
2469.052	4654
2471.012	4533
2472.972	4606
2474.932	4568
2476.891	4606
2478.85	4689
2480.808	4598
2482.766	4685
2484.722	4590
2486.68	4558
2488.636	4590
2490.591	4618
2492.546	4669
2494.5	4575
2496.456	4606
2498.41	4594
2500.362	4587
2502.315	4581
2504.266	4635
2506.218	4574
2508.169	4518
2510.121	4588
2512.07	4507
2514.019	4519
2515.968	4727
2517.918	4599
2519.866	4578
2521.813	4592
2523.76	4690
2525.707	4523
2527.653	4689
2529.599	4509
2531.543	4683
2533.489	4545
2535.433	4537
2537.376	4603
2539.32	4580
2541.264	4546
2543.205	4650
2545.147	4596
2547.087	4556
2549.029	4560
2550.969	4530
2552.908	4613
2554.847	4598
2556.786	4584
2558.724	4514
2560.663	4564
2562.6	4561
2564.537	4564
2566.473	4631
2568.408	4480
2570.345	4493
2572.28	4584
2574.214	4616
2576.148	4562
2578.081	4602
2580.014	4522
2581.947	4611
2583.879	4588
2585.81	4519
2587.741	4576
2589.67	4581
2591.602	4646
2593.532	4577
2595.461	4615
2597.388	4606
2599.316	4695
2601.244	4548
2603.172	4558
2605.098	4673
2607.023	4560
2608.949	4579
2610.873	4588
2612.8	4613
2614.723	4552
2616.647	4588
2618.569	4657
2620.493	4585
2622.416	4640
2624.338	4618
2626.258	4537
2628.179	4558
2630.099	4667
2632.019	4631
2633.939	4661
2635.857	4756
2637.775	4585
2639.694	4603
2641.61	4565
2643.528	4688
2645.444	4605
2647.361	4510
2649.276	4571
2651.19	4617
2653.105	4592
2655.019	4699
2656.934	4592
2658.846	4629
2660.758	4730
2662.67	4594
2664.583	4536
2666.493	4655
2668.404	4661
2670.313	4627
2672.223	4643
2674.134	4627
2676.042	4563
2677.95	4717
2679.858	4459
2681.765	4619
2683.673	4533
2685.579	4517
2687.483	4498
2689.389	4616
2691.294	4638
2693.198	4510
2695.104	4502
2697.006	4614
2698.909	4477
2700.811	4659
2702.713	4575
2704.615	4606
2706.516	4571
2708.417	4564
2710.316	4567
2712.216	4510
2714.115	4517
2716.014	4555
2717.913	4562
2719.81	4463
2721.707	4548
2723.603	4610
2725.501	4478
2727.396	4535
2729.292	4564
2731.186	4607
2733.081	4647
2734.976	4563
2736.87	4571
2738.762	4591
2740.653	4550
2742.546	4465
2744.437	4509
2746.329	4562
2748.22	4536
2750.11	4567
2751.999	4485
2753.889	4571
2755.778	4497
2757.666	4539
2759.553	4566
2761.44	4517
2763.328	4585
2765.215	4560
2767.101	4624
2768.986	4536
2770.87	4605
2772.754	4532
2774.638	4553
2776.523	4579
2778.405	4568
2780.288	4473
2782.17	4579
2784.051	4592
2785.934	4522
2787.814	4500
2789.694	4507
2791.574	4518
2793.453	4480
2795.332	4462
2797.212	4511
2799.088	4499
2800.966	4447
2802.843	4538
2804.719	4491
2806.597	4475
2808.471	4564
2810.346	4522
2812.221	4523
2814.094	4432
2815.969	4456
2817.843	4484
2819.714	4475
2821.587	4498
2823.459	4532
2825.329	4402
2827.202	4580
2829.072	4513
2830.942	4560
2832.811	4473
2834.68	4522
2836.549	4630
2838.418	4415
2840.284	4466
2842.152	4526
2844.018	4508
2845.885	4551
2847.751	4494
2849.616	4460
2851.482	4467
2853.345	4549
2855.208	4390
2857.074	4523
2858.937	4581
2860.799	4544
2862.66	4552
2864.522	4672
2866.385	4569
2868.245	4643
2870.104	4632
2871.964	4620
2873.824	4646
2875.683	4685
2877.542	4669
2879.4	4684
2881.257	4645
2883.114	4719
2884.97	4732
2886.827	4754
2888.683	4672
2890.537	4693
2892.392	4757
2894.246	4731
2896.1	4692
2897.954	4737
2899.807	4660
2901.66	4752
2903.51	4640
2905.362	4705
2907.214	4739
2909.065	4744
2910.915	4718
2912.765	4739
2914.613	4682
2916.463	4747
2918.311	4744
2920.158	4805
2922.006	4832
2923.853	4827
2925.698	4913
2927.546	4799
2929.392	4799
2931.236	4957
2933.081	4927
2934.924	5006
2936.77	4953
2938.613	5012
2940.455	5021
2942.298	5115
2944.139	5054
2945.982	5003
2947.823	5070
2949.662	4870
2951.503	5061
2953.342	4917
2955.182	5054
2957.021	4893
2958.858	4947
2960.697	4917
2962.534	4881
2964.37	4884
2966.207	4933
2968.044	4818
2969.879	4836
2971.714	4779
2973.548	4656
2975.383	4688
2977.218	4620
2979.051	4790
2980.883	4685
2982.715	4597
2984.547	4727
2986.379	4688
2988.21	4778
2990.04	4558
2991.87	4698
2993.7	4593
2995.53	4581
2997.359	4602
2999.187	4579
3001.015	4466
3002.842	4476
3004.669	4497
3006.497	4452
3008.323	4448
3010.148	4491
3011.974	4375
3013.797	4495
3015.623	4406
3017.447	4384
3019.27	4426
3021.094	4318
3022.915	4366
3024.737	4318
3026.56	4396
3028.38	4444
3030.201	4404
3032.022	4331
3033.84	4414
3035.662	4364
3037.481	4332
3039.298	4413
3041.117	4358
3042.933	4342
3044.752	4275
3046.568	4271
3048.385	4273
3050.2	4334
3052.016	4296
3053.83	4374
3055.646	4298
3057.46	4373
3059.272	4300
3061.086	4308
3062.898	4317
3064.711	4273
3066.524	4311
3068.335	4301
3070.145	4294
3071.956	4266
3073.766	4316
3075.576	4266
3077.385	4256
3079.193	4238
3081.002	4243
3082.81	4298
3084.618	4348
3086.425	4295
3088.231	4229
3090.036	4251
3091.842	4340
3093.648	4224
3095.452	4318
3097.257	4214
3099.06	4228
3100.863	4207
3102.666	4197
3104.47	4293
3106.272	4237
3108.073	4253
3109.875	4241
3111.676	4269
3113.477	4151
3115.277	4231
3117.077	4118
3118.874	4198
3120.673	4198
3122.473	4149
3124.271	4175
3126.066	4232
3127.863	4186
3129.66	4100
3131.456	4206
3133.252	4189
3135.047	4157
3136.842	4175
3138.635	4077
3140.429	4124
3142.223	4196
3144.016	4179
3145.808	4151
3147.6	4158
3149.392	4214
3151.183	4179
3152.975	4170
3154.765	4181
3156.553	3989
3158.344	4115
3160.132	4140
3161.922	4204
3163.71	4136
3165.497	4157
3167.285	4133
3169.071	4140
3170.858	4183
3172.645	4055
3174.429	4101
3176.214	4124
3177.998	4129
3179.783	4186
3181.568	4068
3183.351	4127
3185.133	4023
3186.915	4098
3188.698	4055
3190.481	4095
3192.261	4059
3194.042	4237
3195.822	4188
3197.601	4133
3199.381	4024
3201.161	4118
3202.939	4089
3204.717	4099
3206.495	4045
3208.272	4122
3210.05	4071
3211.826	4112
3213.602	4138
3215.376	4143
3217.151	4137
3218.927	3982
3220.702	4095
3222.476	4028
3224.249	4096
3226.021	4050
3227.793	4121
3229.567	4011
3231.339	4030
3233.109	3996
3234.88	4071
3236.651	4045
3238.421	4184
3240.191	4100
3241.96	4077
3243.728	4124
3245.497	4062
3247.263	4051
3249.033	4043
3250.799	3980
3252.566	3999
3254.331	4017
3256.097	4095
3257.863	4034
3259.628	4041
3261.392	4090
3263.156	3988
3264.919	4056
3266.683	4063
3268.447	4051
3270.208	4016
3271.969	4043
3273.731	4164
3275.492	4059
3277.253	4095
3279.013	4047
3280.773	4002
3282.532	4115
3284.291	4013
3286.05	4058
3287.808	4120
3289.566	4135
3291.323	4079
3293.079	4032
3294.835	4062
3296.593	3929
3298.348	4059
3300.102	4135
3301.857	4052
3303.611	4100
3305.366	4060
3307.119	4049
3308.872	4051
3310.624	4110
3312.376	4091
3314.129	4012
3315.881	4082
3317.631	4059
3319.38	4031
3321.13	4001
3322.88	4046
3324.631	4059
3326.379	3984
3328.126	4018
3329.875	4072
3331.622	4118
3333.371	3989
3335.116	4036
3336.863	4060
3338.609	3946
3340.353	3966
3342.1	4050
3343.845	4070
3345.588	3989
3347.332	4044
3349.074	4061
3350.817	3996
3352.56	4041
3354.303	3963
3356.043	4007
3357.785	4001
3359.525	3996
3361.268	3990
3363.007	3991
3364.745	4011
3366.485	3977
3368.223	3957
3369.962	4004
3371.701	4026
3373.438	3899
3375.174	3928
3376.911	3933
3378.647	3973
3380.384	3930
3382.118	3932
3383.854	3878
3385.588	3941
3387.322	4009
3389.057	3979
3390.79	3970
3392.522	3868
3394.255	3946
3395.987	3870
3397.719	3927
3399.451	3917
3401.181	3845
3402.911	3916
3404.641	3914
3406.371	3873
3408.101	3878
3409.83	3935
3411.558	3906
3413.285	3877
3415.011	3994
3416.739	3993
3418.467	3975
3420.193	3884
3421.919	3969
3423.644	3992
3425.368	3954
3427.094	3885
3428.818	3845
3430.542	3873
3432.264	3885
3433.987	3903
3435.712	3969
3437.434	3886
3439.155	3965
3440.876	3924
3442.596	3874
3444.317	3940
3446.039	3838
3447.757	3815
3449.477	3850
3451.195	3836
3452.914	3942
3454.632	3904
3456.35	3895
3458.067	3815
3459.784	3789
3461.5	3884
3463.216	3801
3464.932	3868
3466.647	3801
3468.362	3860
3470.076	3817
3471.789	3786
3473.505	3820
3475.217	3766
3476.929	3880
3478.641	3829
3480.354	3890
3482.066	3816
3483.777	3856
3485.487	3708
3487.197	3764
3488.908	3754
3490.617	3767
3492.327	3869
3494.035	3803
3495.743	3735
3497.451	3761
3499.158	3745
3500.866	3765
3502.572	3655
3504.278	3722
3505.984	3792
3507.689	3711
3509.396	3654
3511.1	3859
3512.804	3739
3514.508	3754
3516.211	3758
3517.913	3789
3519.616	3695
3521.319	3736
3523.021	3720
3524.722	3631
3526.422	3604
3528.124	3736
3529.824	3735
3531.524	3715
3533.222	3696
3534.921	3624
3536.62	3690
3538.318	3693
3540.016	3668
3541.714	3725
3543.41	3643
3545.107	3700
3546.803	3611
3548.5	3562
3550.194	3649
3551.889	3698
3553.583	3726
3555.279	3708
3556.972	3708
3558.666	3742
3560.358	3703
3562.051	3647
3563.742	3695
3565.435	3610
3567.126	3681
3568.817	3705
3570.507	3719
3572.197	3659
3573.888	3599
3575.577	3597
3577.265	3633
3578.954	3680
3580.642	3616
3582.329	3630
3584.017	3681
3585.704	3658
3587.391	3454
3589.077	3609
3590.762	3608
3592.449	3671
3594.133	3537
3595.817	3542
3597.501	3512
3599.185	3594
3600.869	3632
3602.552	3654
3604.234	3608
3605.916	3591
3607.598	3512
3609.279	3537
3610.961	3604
3612.642	3657
3614.321	3514
3616	3576
3617.68	3565
3619.36	3481
3621.039	3464
3622.716	3538
3624.394	3540
3626.071	3579
3627.748	3520
3629.425	3591
3631.102	3543
3632.778	3582
3634.452	3458
3636.127	3550
3637.803	3510
3639.477	3481
3641.151	3420
3642.823	3497
3644.497	3597
3646.171	3406
3647.842	3443
3649.515	3444
3651.185	3459
3652.857	3404
3654.527	3487
3656.198	3434
3657.868	3477
3659.537	3524
3661.207	3520
3662.875	3540
3664.544	3534
3666.212	3417
3667.879	3417
3669.546	3479
3671.212	3439
3672.88	3445
3674.546	3435
3676.211	3396
3677.875	3399
3679.541	3351
3681.205	3547
3682.87	3466
3684.533	3362
3686.196	3374
3687.859	3417
3689.521	3419
3691.184	3427
3692.845	3482
3694.507	3438
3696.167	3430
3697.827	3390
3699.487	3441
3701.148	3353
3702.808	3350
3704.466	3348
3706.125	3476
3707.783	3386
3709.442	3423
3711.099	3405
3712.757	3415
3714.412	3394
3716.068	3421
3717.725	3442
3719.381	3474
3721.036	3383
3722.689	3411
3724.344	3418
3725.998	3374
3727.652	3358
3729.305	3340
3730.958	3392
3732.61	3409
3734.262	3352
3735.915	3341
3737.565	3391
3739.217	3356
3740.866	3367
3742.516	3404
3744.165	3412
3745.816	3305
3747.464	3360
3749.113	3354
3750.761	3322
3752.409	3356
3754.057	3323
3755.703	3323
3757.35	3338
3758.996	3321
3760.641	3334
3762.289	3338
3763.933	3385
3765.577	3280
3767.222	3372
3768.865	3354
3770.508	3290
3772.152	3299
3773.796	3347
3775.438	3283
3777.079	3363
3778.721	3383
3780.363	3339
3782.003	3297
3783.643	3271
3785.283	3274
3786.923	3293
3788.563	3262
3790.203	3318
3791.841	3240
3793.479	3360
3795.115	3268
3796.753	3256
3798.391	3278
3800.027	3213
3801.664	3329
3803.299	3275
3804.935	3298
3806.571	3290
3808.206	3179
3809.839	3224
3811.473	3281
3813.107	3289
3814.74	3209
3816.375	3229
3818.006	3246
3819.638	3245
3821.27	3235
3822.9	3219
3824.532	3237
3826.163	3193
3827.792	3240
3829.423	3231
3831.051	3207
3832.682	3218
3834.311	3223
3835.938	3154
3837.566	3259
3839.193	3191
3840.821	3197
3842.448	3206
3844.075	3123
3845.7	3218
3847.325	3212
3848.951	3229
3850.576	3148
3852.201	3198
3853.825	3184
3855.448	3148
3857.072	3175
3858.694	3195
3860.318	3167
3861.939	3152
3863.562	3166
3865.183	3188
3866.804	3192
3868.426	3143
3870.045	3193
3871.666	3208
3873.285	3144
3874.904	3179
3876.524	3165
3878.142	3181
3879.76	3123
3881.378	3156
3882.995	3141
3884.612	3143
3886.229	3239
3887.845	3092
3889.461	3188
3891.076	3130
3892.691	3158
3894.307	3087
3895.922	3158
3897.536	3200
3899.149	3154
3900.761	3100
3902.374	3144
3903.988	3229
3905.6	3168
3907.212	3140
3908.822	3224
3910.433	3175
3912.045	3159
3913.655	3098
3915.265	3133
3916.875	3107
3918.483	3178
3920.093	3159
3921.702	3188
3923.309	3105
3924.917	3182
3926.523	3041
3928.13	3108
3929.739	3111
3931.344	3136
3932.95	3059
3934.555	3132
3936.159	3151
3937.766	3072
3939.369	3119
3940.974	3123
3942.577	3039
3944.181	3066
3945.783	3127
3947.386	3148
3948.989	3165
3950.59	3107
3952.191	3098
3953.791	3103
3955.394	3157
3956.994	3022
3958.593	3007
3960.192	3090
3961.791	3073
3963.392	3103
3964.99	3113
3966.588	3074
3968.185	3099
3969.782	3061
3971.379	3032
3972.976	3030
3974.572	3040
3976.168	3067
3977.763	3039
3979.358	3079
3980.954	3033
3982.548	2995
3984.142	3029
3985.736	3065
3987.329	2934
3988.922	2981
3990.516	3006
3992.108	3063
3993.698	3025
3995.29	3017
3996.881	2960
3998.473	3045
4000.064	2980
4001.653	2961
4003.242	3015
4004.832	2919
4006.422	2985
4008.01	2920
4009.598	3036
4011.186	2938
4012.773	2938
4014.36	3044
4015.947	2959
4017.534	2993
4019.119	2969
4020.705	2827
4022.291	2983
4023.876	2927
4025.461	2902
4027.044	2919
4028.627	2954
4030.211	3023
4031.795	2989
4033.378	2957
4034.96	2901
4036.542	2957
4038.124	2936
4039.704	2941
4041.286	2979
4042.867	2867
4044.447	2913
4046.026	2932
4047.606	2990
4049.187	2885
4050.765	2941
4052.343	2917
4053.92	2879
4055.498	2849
4057.076	2858
4058.654	2964
4060.23	2885
4061.806	2890
4063.381	2812
4064.957	2926
4066.533	2822
4068.107	2884
4069.682	2860
4071.256	2846
4072.829	2856
4074.404	2865
4075.977	2825
4077.549	2870
4079.121	2876
4080.693	2868
4082.265	2781
4083.836	2817
4085.407	2830
4086.977	2807
4088.547	2846
4090.117	2842
4091.687	2860
4093.256	2835
4094.825	2812
4096.392	2792
4097.96	2872
4099.528	2846
4101.097	2811
4102.663	2765
4104.229	2796
4105.795	2809
4107.361	2754
4108.928	2893
4110.493	2872
4112.058	2837
4113.621	2874
4115.186	2811
4116.75	2830
4118.313	2774
4119.876	2727
4121.438	2806
4123	2766
4124.562	2802
4126.125	2794
4127.686	2849
4129.246	2720
4130.807	2803
4132.367	2784
4133.927	2785
4135.486	2791
4137.046	2740
4138.604	2854
4140.162	2722
4141.72	2757
4143.279	2739
4144.836	2784
4146.393	2731
4147.949	2740
4149.505	2769
4151.062	2726
4152.617	2751
4154.172	2725
4155.727	2757
4157.281	2736
4158.836	2722
4160.39	2700
4161.943	2763
4163.496	2715
4165.048	2741
4166.601	2761
4168.154	2677
4169.706	2734
4171.257	2759
4172.808	2670
4174.358	2683
4175.909	2772
4177.458	2669
4179.008	2735
4180.558	2682
4182.106	2645
4183.655	2677
4185.204	2698
4186.751	2690
4188.298	2683
4189.845	2708
4191.392	2708
4192.939	2678
4194.485	2604
4196.031	2674
4197.576	2601
4199.121	2675
4200.666	2607
4202.211	2698
4203.754	2688
4205.298	2627
4206.84	2647
4208.384	2627
4209.927	2669
4211.47	2690
4213.011	2640
4214.552	2664
4216.094	2626
4217.635	2630
4219.175	2629
4220.716	2641
4222.255	2620
4223.793	2619
4225.335	2664
4226.873	2644
4228.411	2691
4229.948	2713
4231.486	2658
4233.024	2653
4234.562	2626
4236.098	2551
4237.634	2625
4239.169	2586
4240.705	2581
4242.241	2623
4243.776	2606
4245.31	2571
4246.844	2587
4248.378	2582
4249.911	2629
4251.445	2643
4252.978	2635
4254.51	2627
4256.042	2574
4257.574	2627
4259.107	2635
4260.638	2598
4262.169	2590
4263.699	2632
4265.228	2557
4266.759	2696
4268.289	2592
4269.818	2624
4271.345	2617
4272.874	2581
4274.402	2576
4275.931	2607
4277.458	2572
4278.985	2551
4280.512	2511
4282.037	2603
4283.564	2636
4285.089	2589
4286.615	2564
4288.139	2546
4289.664	2573
4291.187	2568
4292.712	2581
4294.235	2555
4295.759	2511
4297.281	2566
4298.804	2569
4300.327	2574
4301.849	2502
4303.37	2523
4304.891	2559
4306.412	2586
4307.933	2609
4309.453	2575
4310.973	2496
4312.492	2578
