398.1873	4035
400.7097	4000
403.2336	4047
405.7547	4059
408.2751	4065
410.7948	4037
413.3138	4055
415.83	4060
418.3497	4077
420.8666	4198
423.3829	4201
425.8985	4210
428.4133	4210
430.9275	4253
433.441	4231
435.9538	4215
438.4639	4335
440.9753	4356
443.4881	4360
445.9982	4354
448.5055	4251
451.0142	4344
453.5201	4320
456.0274	4310
458.5361	4295
461.04	4246
463.5453	4343
466.0478	4353
468.5517	4383
471.0549	4284
473.5574	4263
476.0572	4296
478.5584	4318
481.0568	4298
483.5545	4443
486.0557	4405
488.5521	4416
491.0478	4485
493.5449	4398
496.0392	4414
498.5349	4526
501.0299	4414
503.5222	4470
506.0139	4358
508.5048	4467
510.9991	4477
513.4887	4549
515.9777	4577
518.4659	4493
520.9534	4538
523.4403	4497
525.9306	4483
528.4161	4503
530.9009	4482
533.3851	4482
535.8687	4499
538.3535	4498
540.8356	4541
543.3171	4494
545.7979	4535
548.278	4518
550.7595	4501
553.2383	4438
555.7144	4620
558.1918	4566
560.6685	4508
563.1446	4536
565.6221	4532
568.0968	4537
570.5688	4700
573.0422	4714
575.515	4651
577.989	4715
580.4584	4661
582.9291	4650
585.3991	4676
587.8685	4668
590.3352	4622
592.8052	4697
595.2706	4694
597.7372	4681
600.2033	4609
602.6666	4552
605.1334	4644
607.5953	4652
610.0587	4663
612.5193	4613
614.9814	4711
617.4427	4537
619.9034	4593
622.3615	4657
624.8208	4690
627.2775	4597
629.7335	4579
632.1929	4630
634.6476	4675
637.1016	4612
639.5569	4623
642.0096	4644
644.4637	4712
646.9151	4624
649.3678	4680
651.8179	4779
654.2672	4698
656.7159	4669
659.166	4691
661.6154	4787
664.0622	4868
666.5082	4753
668.9537	4728
671.4005	4693
673.8445	4799
676.288	4709
678.7308	4717
681.1729	4762
683.6163	4743
686.0572	4777
688.4973	4841
690.9368	4841
693.3757	4773
695.8138	4860
698.2534	4815
700.6902	4791
703.1245	4785
705.56	4879
707.9949	4831
710.4311	4899
712.8647	4812
715.2957	4853
717.7279	4951
720.1595	4941
722.5905	4940
725.0208	4896
727.4505	4942
729.8795	5009
732.3058	4952
734.7336	4959
737.1626	5107
739.587	5052
742.0128	5073
744.4359	5024
746.8604	5033
749.2841	5005
751.7073	5081
754.1278	5052
756.5496	5089
758.9688	5049
761.3893	5173
763.8093	5234
766.2285	5154
768.6451	5238
771.0611	5130
773.4784	5121
775.895	5101
778.3091	5223
780.7244	5217
783.1371	5145
785.5493	5111
787.9626	5094
790.3754	5176
792.7856	5045
795.1951	5142
797.6039	5159
800.0121	5178
802.4236	5156
804.8306	5197
807.2369	5130
809.6425	5295
812.0475	5228
814.4538	5271
816.8575	5254
819.2606	5268
821.663	5279
824.0648	5211
826.4659	5156
828.8683	5171
831.2682	5233
833.6674	5203
836.066	5256
838.4639	5269
840.8632	5263
843.2579	5296
845.6539	5293
848.0493	5294
850.444	5316
852.84	5362
855.2315	5095
857.6243	5387
860.0165	5234
862.4081	5239
864.797	5317
867.1892	5295
869.5789	5311
871.9659	5291
874.3542	5292
876.74	5279
879.129	5307
881.5155	5369
883.8994	5216
886.2845	5345
888.6671	5253
891.051	5239
893.4343	5366
895.8169	5343
898.197	5266
900.5783	5313
902.9571	5359
905.3372	5247
907.7167	5373
910.0936	5305
912.4698	5290
914.8474	5424
917.2244	5356
919.5987	5464
921.9744	5451
924.3475	5463
926.72	5410
929.0918	5523
931.4669	5472
933.8375	5425
936.2074	5559
938.5767	5563
940.9454	5566
943.3154	5647
945.6829	5773
948.0497	5847
950.4178	5986
952.7833	6115
955.1483	6191
957.5145	6390
959.8782	6566
962.2412	6450
964.6036	6368
966.9655	6220
969.3266	6090
971.6871	5893
974.0471	5725
976.4064	5535
978.765	5519
981.125	5585
983.4824	5518
985.8373	5572
988.1935	5387
990.549	5423
992.9039	5562
995.2602	5485
997.6119	5501
999.965	5636
1002.317	5615
1004.667	5527
1007.02	5457
1009.371	5485
1011.719	5591
1014.068	5531
1016.415	5508
1018.765	5560
1021.111	5537
1023.458	5428
1025.804	5639
1028.147	5550
1030.49	5470
1032.837	5558
1035.179	5629
1037.522	5641
1039.862	5554
1042.204	5691
1044.546	5616
1046.884	5649
1049.224	5564
1051.562	5601
1053.899	5607
1056.237	5526
1058.575	5661
1060.91	5538
1063.244	5593
1065.58	5708
1067.913	5605
1070.248	5675
1072.579	5702
1074.911	5639
1077.242	5675
1079.572	5609
1081.905	5724
1084.234	5565
1086.562	5704
1088.89	5588
1091.217	5491
1093.544	5699
1095.871	5603
1098.197	5536
1100.521	5656
1102.845	5604
1105.169	5618
1107.491	5526
1109.814	5707
1112.135	5631
1114.456	5632
1116.776	5686
1119.096	5673
1121.415	5734
1123.734	5613
1126.052	5714
1128.369	5562
1130.686	5655
1133.002	5701
1135.318	5622
1137.632	5674
1139.945	5802
1142.258	5636
1144.573	5645
1146.884	5547
1149.196	5755
1151.505	5582
1153.816	5680
1156.124	5599
1158.435	5629
1160.742	5607
1163.051	5783
1165.356	5719
1167.663	5776
1169.97	5626
1172.276	5692
1174.579	5655
1176.881	5702
1179.186	5668
1181.487	5607
1183.79	5608
1186.092	5682
1188.392	5623
1190.691	5675
1192.991	5673
1195.291	5510
1197.588	5757
1199.885	5664
1202.181	5590
1204.479	5701
1206.775	5587
1209.07	5672
1211.363	5699
1213.656	5618
1215.949	5623
1218.241	5709
1220.534	5730
1222.825	5665
1225.115	5730
1227.405	5698
1229.693	5784
1231.984	5801
1234.271	5715
1236.558	5836
1238.845	5820
1241.131	5799
1243.416	5831
1245.703	5938
1247.987	5861
1250.269	5885
1252.552	5869
1254.834	5920
1257.118	5901
1259.399	5906
1261.678	6003
1263.958	5892
1266.237	5796
1268.516	5832
1270.794	5815
1273.072	5963
1275.347	5829
1277.624	5700
1279.899	5857
1282.175	5866
1284.449	5846
1286.722	5874
1288.995	5822
1291.266	5722
1293.54	5814
1295.81	5787
1298.081	5751
1300.35	5721
1302.62	5761
1304.889	5731
1307.156	5778
1309.425	5804
1311.69	5796
1313.957	5842
1316.222	5723
1318.488	5794
1320.751	5748
1323.016	5807
1325.278	5820
1327.54	5769
1329.803	5840
1332.065	5930
1334.325	5799
1336.584	5772
1338.843	5826
1341.101	5742
1343.36	5807
1345.617	5930
1347.876	5830
1350.131	5798
1352.387	5824
1354.643	5852
1356.897	5906
1359.151	5705
1361.403	5797
1363.656	5896
1365.909	5753
1368.16	5825
1370.409	5877
1372.659	5797
1374.909	5888
1377.157	5931
1379.407	5766
1381.655	5837
1383.9	5836
1386.147	5885
1388.393	5884
1390.64	5894
1392.885	5974
1395.127	5842
1397.37	5914
1399.614	5944
1401.854	6076
1404.098	5963
1406.339	5856
1408.578	5866
1410.818	5986
1413.056	6006
1415.297	6076
1417.533	5902
1419.771	6043
1422.006	5998
1424.243	5922
1426.479	5989
1428.715	6018
1430.948	5989
1433.182	6042
1435.414	5963
1437.647	6026
1439.88	6020
1442.11	6083
1444.342	6154
1446.571	6151
1448.799	6064
1451.029	6111
1453.258	6188
1455.485	6054
1457.711	6047
1459.937	6103
1462.164	6101
1464.39	6133
1466.614	6097
1468.838	6079
1471.06	6064
1473.283	5966
1475.506	6055
1477.727	5991
1479.949	5992
1482.169	6017
1484.389	5804
1486.609	5944
1488.828	6007
1491.045	5948
1493.261	5828
1495.477	5942
1497.693	5968
1499.91	5814
1502.125	5866
1504.339	5820
1506.553	5863
1508.766	5896
1510.979	5929
1513.191	5844
1515.402	5883
1517.613	5901
1519.823	5832
1522.033	5907
1524.242	5939
1526.451	5945
1528.657	5866
1530.865	5793
1533.072	5842
1535.278	5819
1537.484	5938
1539.687	5879
1541.892	5850
1544.096	5936
1546.299	5843
1548.502	5880
1550.703	6009
1552.905	5974
1555.104	5861
1557.303	5963
1559.505	6048
1561.703	5921
1563.902	6002
1566.099	6054
1568.295	6048
1570.494	6049
1572.689	6049
1574.883	6034
1577.079	6054
1579.272	5999
1581.467	6108
1583.659	6099
1585.853	6040
1588.044	5968
1590.234	6076
1592.424	5999
1594.615	6059
1596.806	6085
1598.994	6027
1601.182	6087
1603.369	6056
1605.557	6068
1607.744	5962
1609.929	6043
1612.114	6146
1614.298	6015
1616.482	6115
1618.667	6094
1620.85	6094
1623.032	6023
1625.214	6182
1627.395	6145
1629.575	6178
1631.755	6121
1633.935	6181
1636.114	6227
1638.292	6150
1640.471	6139
1642.647	6114
1644.823	6173
1647	6164
1649.175	6241
1651.348	6159
1653.525	6188
1655.698	6167
1657.87	6096
1660.043	6212
1662.213	6121
1664.387	6070
1666.558	6160
1668.727	6270
1670.896	6181
1673.064	6217
1675.233	6225
1677.401	6176
1679.569	6281
1681.735	6167
1683.902	6297
1686.066	6305
1688.233	6075
1690.397	6161
1692.559	6094
1694.723	6120
1696.885	6124
1699.048	6128
1701.21	6094
1703.37	6104
1705.53	6130
1707.689	6199
1709.849	6170
1712.009	6076
1714.166	6080
1716.323	6187
1718.479	6097
1720.634	6060
1722.793	6093
1724.948	6104
1727.102	6060
1729.255	6134
1731.408	6132
1733.562	6043
1735.714	6096
1737.865	6050
1740.016	6070
1742.166	6103
1744.316	6048
1746.467	6041
1748.616	6169
1750.764	6163
1752.911	6130
1755.056	6156
1757.205	6209
1759.35	6139
1761.496	6212
1763.641	6170
1765.785	6265
1767.927	6109
1770.072	6312
1772.214	6068
1774.355	6082
1776.496	6139
1778.637	6421
1780.778	6200
1782.918	6093
1785.057	6214
1787.194	6282
1789.333	6206
1791.472	6018
1793.608	6122
1795.745	6324
1797.879	6153
1800.015	6168
1802.148	6306
1804.284	6192
1806.417	6230
1808.548	6184
1810.682	6122
1812.812	6209
1814.946	6082
1817.075	6160
1819.205	6145
1821.335	6151
1823.463	6212
1825.59	6202
1827.721	6141
1829.847	6145
1831.973	6223
1834.098	6152
1836.223	6103
1838.351	6313
1840.475	6197
1842.598	6159
1844.721	6132
1846.843	6112
1848.966	6173
1851.087	6051
1853.21	6250
1855.33	6106
1857.449	6218
1859.568	6182
1861.688	6130
1863.806	6086
1865.924	6108
1868.039	6167
1870.155	5996
1872.273	6270
1874.388	6076
1876.503	6127
1878.617	6157
1880.73	6142
1882.844	6093
1884.956	6204
1887.068	6253
1889.18	6214
1891.291	6274
1893.4	6231
1895.511	6134
1897.621	6129
1899.73	6185
1901.837	6197
1903.944	6193
1906.053	6197
1908.159	6240
1910.265	6146
1912.369	6278
1914.474	6281
1916.577	6294
1918.683	6318
1920.785	6185
1922.888	6146
1924.989	6285
1927.091	6220
1929.193	6195
1931.294	6333
1933.393	6203
1935.493	6253
1937.59	6170
1939.689	6325
1941.788	6398
1943.884	6206
1945.98	6305
1948.077	6286
1950.171	6275
1952.267	6184
1954.361	6278
1956.455	6229
1958.548	6255
1960.64	6228
1962.733	6389
1964.824	6294
1966.915	6274
1969.005	6336
1971.096	6235
1973.185	6258
1975.275	6279
1977.363	6223
1979.45	6163
1981.537	6250
1983.623	6209
1985.711	6196
1987.796	6159
1989.881	6198
1991.965	6228
1994.047	6187
1996.132	6254
1998.215	6265
2000.297	6150
2002.378	6295
2004.46	6219
2006.54	6190
2008.62	6157
2010.7	6172
2012.779	6251
2014.858	6054
2016.934	6197
2019.013	6215
2021.09	6175
2023.165	6118
2025.241	6132
2027.317	6231
2029.39	6254
2031.466	6172
2033.538	6328
2035.612	6255
2037.683	6191
2039.755	6198
2041.827	6215
2043.898	6237
2045.968	6231
2048.038	6229
2050.106	6133
2052.177	6219
2054.244	6220
2056.313	6190
2058.379	6190
2060.444	6308
2062.511	6165
2064.577	6216
2066.641	6269
2068.705	6318
2070.77	6346
2072.832	6219
2074.896	6163
2076.958	6266
2079.02	6248
2081.081	6278
2083.141	6161
2085.2	6361
2087.261	6274
2089.319	6180
2091.377	6364
2093.435	6199
2095.492	6343
2097.552	6250
2099.607	6212
2101.663	6233
2103.718	6259
2105.771	6198
2107.826	6254
2109.879	6183
2111.932	6324
2113.985	6134
2116.037	6149
2118.088	6206
2120.141	6194
2122.191	6297
2124.239	6315
2126.288	6129
2128.337	6258
2130.387	6221
2132.434	6276
2134.481	6320
2136.528	6145
2138.574	6283
2140.618	6257
2142.665	6276
2144.71	6242
2146.753	6310
2148.797	6201
2150.838	6270
2152.883	6220
2154.923	6274
2156.965	6185
2159.007	6151
2161.046	6187
2163.086	6185
2165.126	6210
2167.163	6196
2169.202	6229
2171.239	6177
2173.277	6179
2175.314	6222
2177.349	6095
2179.385	6122
2181.42	6191
2183.453	6160
2185.49	6199
2187.522	6053
2189.555	6155
2191.586	6080
2193.619	6133
2195.651	6161
2197.682	6216
2199.711	6041
2201.74	6058
2203.769	6174
2205.799	6133
2207.828	6127
2209.855	6150
2211.882	6042
2213.908	6066
2215.934	6046
2217.961	6097
2219.986	6136
2222.01	6102
2224.034	6184
2226.057	6120
2228.08	6185
2230.104	6041
2232.124	6115
2234.145	6170
2236.166	5990
2238.186	6064
2240.207	6080
2242.227	6102
2244.244	6105
2246.262	6152
2248.28	6096
2250.299	6165
2252.314	6059
2254.33	6111
2256.346	6038
2258.36	6168
2260.375	6163
2262.391	6170
2264.403	5942
2266.416	6217
2268.427	6137
2270.44	6121
2272.453	6157
2274.463	6055
2276.474	6113
2278.483	6232
2280.493	6079
2282.501	6075
2284.51	6081
2286.518	6172
2288.524	6145
2290.532	6115
2292.537	6098
2294.544	6030
2296.55	6031
2298.554	6145
2300.557	6097
2302.562	5944
2304.566	6185
2306.568	5944
2308.569	6063
2310.572	6212
2312.573	6143
2314.573	6151
2316.574	6105
2318.573	6066
2320.571	6104
2322.571	6135
2324.569	6051
2326.567	6094
2328.564	6038
2330.56	5958
2332.556	6059
2334.551	6196
2336.546	6104
2338.542	6069
2340.535	5931
2342.529	5979
2344.521	5977
2346.512	5904
2348.505	5923
2350.497	5949
2352.487	5913
2354.478	6009
2356.468	6019
2358.457	6122
2360.446	6062
2362.434	5824
2364.422	5975
2366.408	5867
2368.395	6031
2370.383	6067
2372.369	5914
2374.353	5979
2376.338	5985
2378.321	6057
2380.307	6020
2382.29	5940
2384.272	5932
2386.254	6008
2388.235	5860
2390.218	6158
2392.198	5987
2394.179	5959
2396.157	5992
2398.137	6009
2400.115	6039
2402.095	5968
2404.072	5897
2406.048	5940
2408.026	5953
2410.001	5974
2411.977	5978
2413.953	5959
2415.927	5922
2417.9	6004
2419.875	5917
2421.847	5909
2423.821	5947
2425.792	5923
2427.763	5912
2429.736	5939
2431.706	5968
2433.677	5954
2435.646	5869
2437.615	5847
2439.583	5924
2441.551	5951
2443.519	5918
2445.486	5928
2447.452	5934
2449.418	5976
2451.383	5838
2453.348	5906
2455.314	5958
2457.278	5854
2459.241	5932
2461.205	5781
2463.167	5913
2465.131	5876
2467.091	5892
2469.052	5865
2471.012	5791
2472.972	5870
2474.932	5891
2476.891	5990
2478.85	5795
2480.808	5874
2482.766	5944
2484.722	5813
2486.68	5946
2488.636	5919
2490.591	5775
2492.546	5887
2494.5	5914
2496.456	5840
2498.41	5874
2500.362	5713
2502.315	5815
2504.266	5932
2506.218	5909
2508.169	5829
2510.121	5961
2512.07	5895
2514.019	5838
2515.968	5905
2517.918	5856
2519.866	5774
2521.813	5749
2523.76	5853
2525.707	5677
2527.653	5788
2529.599	5820
2531.543	5791
2533.489	5884
2535.433	5766
2537.376	5758
2539.32	5797
2541.264	5868
2543.205	5771
2545.147	5838
2547.087	5896
2549.029	5733
2550.969	5931
2552.908	5820
2554.847	5791
2556.786	5853
2558.724	5800
2560.663	5842
2562.6	5840
2564.537	5887
2566.473	5790
2568.408	5778
2570.345	5844
2572.28	5887
2574.214	5841
2576.148	5822
2578.081	5790
2580.014	5894
2581.947	5810
2583.879	5775
2585.81	5769
2587.741	5862
2589.67	5912
2591.602	5883
2593.532	5863
2595.461	5928
2597.388	5946
2599.316	5910
2601.244	5808
2603.172	5827
2605.098	5915
2607.023	5798
2608.949	5790
2610.873	5927
2612.8	5809
2614.723	5909
2616.647	5699
2618.569	5807
2620.493	5835
2622.416	5884
2624.338	5823
2626.258	5862
2628.179	5718
2630.099	5859
2632.019	5813
2633.939	5941
2635.857	5780
2637.775	5826
2639.694	5854
2641.61	5867
2643.528	6041
2645.444	5828
2647.361	5839
2649.276	5933
2651.19	5854
2653.105	5807
2655.019	5840
2656.934	5938
2658.846	5818
2660.758	5853
2662.67	5875
2664.583	5723
2666.493	5771
2668.404	5838
2670.313	5784
2672.223	5890
2674.134	5910
2676.042	5840
2677.95	5901
2679.858	5889
2681.765	5760
2683.673	5716
2685.579	5789
2687.483	5794
2689.389	5882
2691.294	5869
2693.198	5782
2695.104	5852
2697.006	5798
2698.909	5845
2700.811	5764
2702.713	5839
2704.615	5821
2706.516	5753
2708.417	5786
2710.316	5766
2712.216	5604
2714.115	5802
2716.014	5782
2717.913	5774
2719.81	5755
2721.707	5725
2723.603	5739
2725.501	5719
2727.396	5659
2729.292	5664
2731.186	5795
2733.081	5833
2734.976	5704
2736.87	5703
2738.762	5793
2740.653	5829
2742.546	5796
2744.437	5771
2746.329	5743
2748.22	5699
2750.11	5782
2751.999	5663
2753.889	5733
2755.778	5793
2757.666	5644
2759.553	5672
2761.44	5704
2763.328	5702
2765.215	5842
2767.101	5615
2768.986	5805
2770.87	5752
2772.754	5772
2774.638	5703
2776.523	5713
2778.405	5690
2780.288	5762
2782.17	5681
2784.051	5735
2785.934	5719
2787.814	5734
2789.694	5728
2791.574	5757
2793.453	5642
2795.332	5673
2797.212	5719
2799.088	5679
2800.966	5712
2802.843	5652
2804.719	5684
2806.597	5693
2808.471	5631
2810.346	5569
2812.221	5632
2814.094	5668
2815.969	5687
2817.843	5672
2819.714	5668
2821.587	5588
2823.459	5615
2825.329	5703
2827.202	5771
2829.072	5709
2830.942	5717
2832.811	5638
2834.68	5674
2836.549	5646
2838.418	5678
2840.284	5717
2842.152	5644
2844.018	5622
2845.885	5677
2847.751	5556
2849.616	5695
2851.482	5743
2853.345	5691
2855.208	5794
2857.074	5638
2858.937	5743
2860.799	5699
2862.66	5832
2864.522	5703
2866.385	5756
2868.245	5828
2870.104	5854
2871.964	5814
2873.824	5790
2875.683	5876
2877.542	5952
2879.4	6045
2881.257	5958
2883.114	6023
2884.97	5952
2886.827	5910
2888.683	5945
2890.537	5962
2892.392	6041
2894.246	6009
2896.1	5952
2897.954	6112
2899.807	5821
2901.66	5937
2903.51	5997
2905.362	5924
2907.214	6007
2909.065	5908
2910.915	5988
2912.765	5993
2914.613	6066
2916.463	6092
2918.311	6047
2920.158	6015
2922.006	6216
2923.853	6281
2925.698	6177
2927.546	6219
2929.392	6235
2931.236	6258
2933.081	6270
2934.924	6344
2936.77	6455
2938.613	6364
2940.455	6500
2942.298	6461
2944.139	6568
2945.982	6544
2947.823	6504
2949.662	6408
2951.503	6523
2953.342	6293
2955.182	6285
2957.021	6344
2958.858	6346
2960.697	6263
2962.534	6166
2964.37	6083
2966.207	6184
2968.044	6059
2969.879	6011
2971.714	6114
2973.548	6058
2975.383	5985
2977.218	6046
2979.051	5986
2980.883	5898
2982.715	5941
2984.547	5859
2986.379	5956
2988.21	5806
2990.04	5924
2991.87	5930
2993.7	5906
2995.53	5844
2997.359	5818
2999.187	5773
3001.015	5693
3002.842	5763
3004.669	5685
3006.497	5672
3008.323	5605
3010.148	5619
3011.974	5609
3013.797	5590
3015.623	5554
3017.447	5591
3019.27	5549
3021.094	5502
3022.915	5479
3024.737	5509
3026.56	5452
3028.38	5485
3030.201	5387
3032.022	5494
3033.84	5403
3035.662	5447
3037.481	5453
3039.298	5326
3041.117	5385
3042.933	5452
3044.752	5383
3046.568	5392
3048.385	5400
3050.2	5453
3052.016	5359
3053.83	5391
3055.646	5358
3057.46	5418
3059.272	5370
3061.086	5356
3062.898	5497
3064.711	5394
3066.524	5422
3068.335	5469
3070.145	5349
3071.956	5412
3073.766	5290
3075.576	5450
3077.385	5352
3079.193	5283
3081.002	5324
3082.81	5272
3084.618	5264
3086.425	5352
3088.231	5351
3090.036	5311
3091.842	5296
3093.648	5324
3095.452	5248
3097.257	5256
3099.06	5286
3100.863	5188
3102.666	5267
3104.47	5246
3106.272	5225
3108.073	5302
3109.875	5149
3111.676	5206
3113.477	5196
3115.277	5245
3117.077	5249
3118.874	5175
3120.673	5215
3122.473	5143
3124.271	5172
3126.066	5212
3127.863	5174
3129.66	5195
3131.456	5229
3133.252	5175
3135.047	5240
3136.842	5166
3138.635	5134
3140.429	5176
3142.223	5244
3144.016	5168
3145.808	5107
3147.6	5027
3149.392	5090
3151.183	5109
3152.975	5094
3154.765	5152
3156.553	5083
3158.344	5130
3160.132	5112
3161.922	5081
3163.71	5085
3165.497	5070
3167.285	5211
3169.071	5008
3170.858	5057
3172.645	5012
3174.429	5060
3176.214	5142
3177.998	5030
3179.783	5035
3181.568	5087
3183.351	4989
3185.133	5051
3186.915	5081
3188.698	5058
3190.481	5039
3192.261	5074
3194.042	5059
3195.822	5081
3197.601	5058
3199.381	4926
3201.161	4999
3202.939	5011
3204.717	5023
3206.495	4997
3208.272	5050
3210.05	4999
3211.826	5020
3213.602	5015
3215.376	5034
3217.151	4955
3218.927	5175
3220.702	4897
3222.476	4972
3224.249	4977
3226.021	4971
3227.793	5094
3229.567	4931
3231.339	4943
3233.109	5030
3234.88	4991
3236.651	5124
3238.421	5022
3240.191	5022
3241.96	5002
3243.728	5064
3245.497	5003
3247.263	5050
3249.033	5046
3250.799	5016
3252.566	5019
3254.331	4923
3256.097	4973
3257.863	5092
3259.628	4939
3261.392	4987
3263.156	5010
3264.919	4977
3266.683	4976
3268.447	5000
3270.208	4935
3271.969	4994
3273.731	5016
3275.492	5009
3277.253	5029
3279.013	5049
3280.773	4984
3282.532	4925
3284.291	5014
3286.05	4908
3287.808	4958
3289.566	4991
3291.323	4937
3293.079	4944
3294.835	4928
3296.593	4974
3298.348	4812
3300.102	4982
3301.857	4854
3303.611	5005
3305.366	4970
3307.119	4904
3308.872	4948
3310.624	5060
3312.376	4981
3314.129	5051
3315.881	4952
3317.631	4952
3319.38	4884
3321.13	5000
3322.88	4947
3324.631	4989
3326.379	4998
3328.126	4975
3329.875	4940
3331.622	4987
3333.371	5011
3335.116	4854
3336.863	4878
3338.609	4907
3340.353	4886
3342.1	4936
3343.845	4963
3345.588	4922
3347.332	4822
3349.074	4854
3350.817	4826
3352.56	4864
3354.303	4924
3356.043	4908
3357.785	4919
3359.525	4867
3361.268	4859
3363.007	4954
3364.745	4831
3366.485	4839
3368.223	4949
3369.962	4914
3371.701	4833
3373.438	4887
3375.174	4875
3376.911	4917
3378.647	4957
3380.384	4833
3382.118	4740
3383.854	4829
3385.588	4777
3387.322	4804
3389.057	4790
3390.79	4819
3392.522	4820
3394.255	4890
3395.987	4901
3397.719	4757
3399.451	4787
3401.181	4844
3402.911	4907
3404.641	4806
3406.371	4810
3408.101	4792
3409.83	4779
3411.558	4724
3413.285	4724
3415.011	4753
3416.739	4833
3418.467	4798
3420.193	4743
3421.919	4697
3423.644	4786
3425.368	4763
3427.094	4717
3428.818	4770
3430.542	4750
3432.264	4683
3433.987	4741
3435.712	4718
3437.434	4685
3439.155	4780
3440.876	4678
3442.596	4701
3444.317	4749
3446.039	4736
3447.757	4673
3449.477	4710
3451.195	4715
3452.914	4831
3454.632	4667
3456.35	4644
3458.067	4640
3459.784	4590
3461.5	4728
3463.216	4666
3464.932	4615
3466.647	4638
3468.362	4661
3470.076	4645
3471.789	4564
3473.505	4665
3475.217	4624
3476.929	4593
3478.641	4551
3480.354	4617
3482.066	4565
3483.777	4621
3485.487	4599
3487.197	4540
3488.908	4553
3490.617	4642
3492.327	4478
3494.035	4589
3495.743	4628
3497.451	4555
3499.158	4489
3500.866	4513
3502.572	4546
3504.278	4540
3505.984	4470
3507.689	4444
3509.396	4550
3511.1	4537
3512.804	4573
3514.508	4448
3516.211	4575
3517.913	4430
3519.616	4574
3521.319	4491
3523.021	4574
3524.722	4454
3526.422	4511
3528.124	4497
3529.824	4398
3531.524	4472
3533.222	4458
3534.921	4431
3536.62	4485
3538.318	4475
3540.016	4429
3541.714	4463
3543.41	4402
3545.107	4422
3546.803	4460
3548.5	4504
3550.194	4521
3551.889	4415
3553.583	4495
3555.279	4412
3556.972	4388
3558.666	4440
3560.358	4398
3562.051	4418
3563.742	4325
3565.435	4474
3567.126	4429
3568.817	4351
3570.507	4482
3572.197	4484
3573.888	4447
3575.577	4378
3577.265	4433
3578.954	4321
3580.642	4412
3582.329	4373
3584.017	4361
3585.704	4360
3587.391	4396
3589.077	4358
3590.762	4409
3592.449	4398
3594.133	4316
3595.817	4305
3597.501	4357
3599.185	4310
3600.869	4346
3602.552	4386
3604.234	4300
3605.916	4425
3607.598	4326
3609.279	4233
3610.961	4263
3612.642	4190
3614.321	4263
3616	4236
3617.68	4285
3619.36	4271
3621.039	4301
3622.716	4264
3624.394	4301
3626.071	4343
3627.748	4248
3629.425	4269
3631.102	4206
3632.778	4215
3634.452	4231
3636.127	4268
3637.803	4204
3639.477	4235
3641.151	4100
3642.823	4161
3644.497	4167
3646.171	4152
3647.842	4220
3649.515	4001
3651.185	4116
3652.857	4116
3654.527	4174
3656.198	4154
3657.868	4146
3659.537	4197
3661.207	4130
3662.875	4174
3664.544	4126
3666.212	4114
3667.879	4183
3669.546	4043
3671.212	4177
3672.88	4199
3674.546	4029
3676.211	4084
3677.875	3991
3679.541	4057
3681.205	4112
3682.87	4067
3684.533	4056
3686.196	4088
3687.859	4152
3689.521	4009
3691.184	4104
3692.845	4116
3694.507	4019
3696.167	4106
3697.827	4044
3699.487	4123
3701.148	4006
3702.808	4073
3704.466	3974
3706.125	4077
3707.783	4104
3709.442	4090
3711.099	4047
3712.757	4048
3714.412	4111
3716.068	4064
3717.725	3983
3719.381	4024
3721.036	4119
3722.689	3995
3724.344	4015
3725.998	4068
3727.652	3961
3729.305	3958
3730.958	4038
3732.61	4015
3734.262	4092
3735.915	4099
3737.565	4036
3739.217	4016
3740.866	3883
3742.516	3937
3744.165	3979
3745.816	4048
3747.464	4031
3749.113	3965
3750.761	3914
3752.409	3940
3754.057	3956
3755.703	3952
3757.35	3985
3758.996	3928
3760.641	3887
3762.289	3991
3763.933	4009
3765.577	4020
3767.222	3925
3768.865	3934
3770.508	3909
3772.152	3986
3773.796	3958
3775.438	3946
3777.079	3894
3778.721	3934
3780.363	3904
3782.003	3872
3783.643	3795
3785.283	3933
3786.923	3960
3788.563	3888
3790.203	3931
3791.841	3997
3793.479	3927
3795.115	3878
3796.753	3895
3798.391	3908
3800.027	3849
3801.664	3848
3803.299	3847
3804.935	3899
3806.571	3950
3808.206	3875
3809.839	3806
3811.473	3765
3813.107	3795
3814.74	3860
3816.375	3794
3818.006	3856
3819.638	3750
3821.27	3856
3822.9	3798
3824.532	3741
3826.163	3902
3827.792	3794
3829.423	3724
3831.051	3801
3832.682	3878
3834.311	3814
3835.938	3754
3837.566	3725
3839.193	3754
3840.821	3781
3842.448	3783
3844.075	3797
3845.7	3868
3847.325	3748
3848.951	3831
3850.576	3817
3852.201	3701
3853.825	3784
3855.448	3761
3857.072	3719
3858.694	3716
3860.318	3779
3861.939	3764
3863.562	3735
3865.183	3681
3866.804	3742
3868.426	3746
3870.045	3719
3871.666	3774
3873.285	3747
3874.904	3713
3876.524	3638
3878.142	3711
3879.76	3755
3881.378	3794
3882.995	3672
3884.612	3700
3886.229	3702
3887.845	3720
3889.461	3730
3891.076	3695
3892.691	3586
3894.307	3728
3895.922	3759
3897.536	3685
3899.149	3701
3900.761	3705
3902.374	3718
3903.988	3729
3905.6	3726
3907.212	3750
3908.822	3671
3910.433	3627
3912.045	3671
3913.655	3728
3915.265	3642
3916.875	3777
3918.483	3665
3920.093	3632
3921.702	3702
3923.309	3663
3924.917	3666
3926.523	3673
3928.13	3687
3929.739	3669
3931.344	3682
3932.95	3674
3934.555	3625
3936.159	3638
3937.766	3706
3939.369	3651
3940.974	3653
3942.577	3623
3944.181	3652
3945.783	3553
3947.386	3619
3948.989	3605
3950.59	3621
3952.191	3638
3953.791	3591
3955.394	3637
3956.994	3626
3958.593	3574
3960.192	3571
3961.791	3657
3963.392	3654
3964.99	3565
3966.588	3630
3968.185	3507
3969.782	3552
3971.379	3598
3972.976	3540
3974.572	3539
3976.168	3508
3977.763	3544
3979.358	3519
3980.954	3610
3982.548	3524
3984.142	3492
3985.736	3548
3987.329	3458
3988.922	3515
3990.516	3513
3992.108	3484
3993.698	3533
3995.29	3493
3996.881	3585
3998.473	3477
4000.064	3482
4001.653	3458
4003.242	3525
4004.832	3552
4006.422	3458
4008.01	3557
4009.598	3493
4011.186	3542
4012.773	3448
4014.36	3492
4015.947	3490
4017.534	3428
4019.119	3441
4020.705	3388
4022.291	3464
4023.876	3395
4025.461	3326
4027.044	3426
4028.627	3398
4030.211	3410
4031.795	3443
4033.378	3425
4034.96	3417
4036.542	3406
4038.124	3425
4039.704	3454
4041.286	3399
4042.867	3432
4044.447	3358
4046.026	3332
4047.606	3376
4049.187	3412
4050.765	3327
4052.343	3331
4053.92	3361
4055.498	3370
4057.076	3330
4058.654	3312
4060.23	3285
4061.806	3316
4063.381	3401
4064.957	3334
4066.533	3350
4068.107	3314
4069.682	3356
4071.256	3314
4072.829	3266
4074.404	3364
4075.977	3276
4077.549	3289
4079.121	3353
4080.693	3346
4082.265	3324
4083.836	3360
4085.407	3396
4086.977	3298
4088.547	3348
4090.117	3356
4091.687	3269
4093.256	3334
4094.825	3337
4096.392	3314
4097.96	3244
4099.528	3320
4101.097	3221
4102.663	3249
4104.229	3270
4105.795	3314
4107.361	3276
4108.928	3260
4110.493	3292
4112.058	3359
4113.621	3232
4115.186	3281
4116.75	3213
4118.313	3222
4119.876	3320
4121.438	3202
4123	3182
4124.562	3228
4126.125	3186
4127.686	3273
4129.246	3145
4130.807	3248
4132.367	3175
4133.927	3226
4135.486	3239
4137.046	3261
4138.604	3185
4140.162	3260
4141.72	3233
4143.279	3164
4144.836	3202
4146.393	3203
4147.949	3150
4149.505	3169
4151.062	3288
4152.617	3108
4154.172	3113
4155.727	3171
4157.281	3248
4158.836	3154
4160.39	3119
4161.943	3071
4163.496	3153
4165.048	3186
4166.601	3137
4168.154	3180
4169.706	3182
4171.257	3191
4172.808	3112
4174.358	3105
4175.909	3105
4177.458	3100
4179.008	3053
4180.558	3145
4182.106	3126
4183.655	3118
4185.204	3153
4186.751	3157
4188.298	3086
4189.845	3059
4191.392	3064
4192.939	3078
4194.485	3112
4196.031	3012
4197.576	3087
4199.121	2990
4200.666	3063
4202.211	3057
4203.754	3115
4205.298	3110
4206.84	3125
4208.384	3074
4209.927	3008
4211.47	3056
4213.011	3081
4214.552	3027
4216.094	3034
4217.635	3048
4219.175	3049
4220.716	3054
4222.255	3086
4223.793	3020
4225.335	2940
4226.873	3085
4228.411	3096
4229.948	3019
4231.486	2990
4233.024	3045
4234.562	3001
4236.098	3021
4237.634	2999
4239.169	3053
4240.705	2976
4242.241	3097
4243.776	2992
4245.31	3078
4246.844	3047
4248.378	2965
4249.911	3113
4251.445	2976
4252.978	3052
4254.51	2949
4256.042	3015
4257.574	2953
4259.107	3053
4260.638	3037
4262.169	2962
4263.699	2912
4265.228	2981
4266.759	3017
4268.289	2975
4269.818	2933
4271.345	3001
4272.874	2982
4274.402	2922
4275.931	3002
4277.458	2948
4278.985	2967
4280.512	2953
4282.037	2970
4283.564	2872
4285.089	2915
4286.615	2924
4288.139	2932
4289.664	2949
4291.187	3005
4292.712	2918
4294.235	2876
4295.759	2971
4297.281	2917
4298.804	2880
4300.327	2832
4301.849	2889
4303.37	2917
4304.891	2926
4306.412	2882
4307.933	2857
4309.453	2814
4310.973	2882
4312.492	2946
