398.1873	2733
400.7097	2814
403.2336	2781
405.7547	2757
408.2751	2825
410.7948	2794
413.3138	2832
415.83	2764
418.3497	2800
420.8666	2844
423.3829	2889
425.8985	2875
428.4133	2914
430.9275	2904
433.441	2935
435.9538	2893
438.4639	2926
440.9753	2916
443.4881	2970
445.9982	2912
448.5055	2894
451.0142	2932
453.5201	2944
456.0274	2897
458.5361	3014
461.04	2927
463.5453	2973
466.0478	2955
468.5517	2928
471.0549	2945
473.5574	2971
476.0572	2902
478.5584	2912
481.0568	2935
483.5545	2969
486.0557	3003
488.5521	3048
491.0478	3022
493.5449	2934
496.0392	3025
498.5349	2985
501.0299	2980
503.5222	3091
506.0139	3050
508.5048	3034
510.9991	2991
513.4887	3068
515.9777	3119
518.4659	2969
520.9534	2985
523.4403	3046
525.9306	3005
528.4161	3112
530.9009	3005
533.3851	3020
535.8687	3012
538.3535	2989
540.8356	2993
543.3171	3050
545.7979	3055
548.278	3063
550.7595	3047
553.2383	3078
555.7144	3020
558.1918	3121
560.6685	3071
563.1446	3016
565.6221	3091
568.0968	3191
570.5688	3146
573.0422	3073
575.515	3163
577.989	3113
580.4584	3184
582.9291	3056
585.3991	3115
587.8685	3144
590.3352	3151
592.8052	3152
595.2706	3145
597.7372	3067
600.2033	3123
602.6666	3182
605.1334	3073
607.5953	3191
610.0587	3101
612.5193	3226
614.9814	3149
617.4427	3144
619.9034	3130
622.3615	3098
624.8208	3129
627.2775	3105
629.7335	3130
632.1929	3107
634.6476	3102
637.1016	3155
639.5569	3179
642.0096	3140
644.4637	3143
646.9151	3061
649.3678	3230
651.8179	3155
654.2672	3147
656.7159	3183
659.166	3271
661.6154	3183
664.0622	3227
666.5082	3192
668.9537	3244
671.4005	3205
673.8445	3126
676.288	3276
678.7308	3216
681.1729	3219
683.6163	3195
686.0572	3298
688.4973	3313
690.9368	3286
693.3757	3206
695.8138	3209
698.2534	3287
700.6902	3315
703.1245	3237
705.56	3271
707.9949	3293
710.4311	3309
712.8647	3347
715.2957	3301
717.7279	3241
720.1595	3283
722.5905	3277
725.0208	3301
727.4505	3324
729.8795	3263
732.3058	3332
734.7336	3320
737.1626	3417
739.587	3488
742.0128	3373
744.4359	3382
746.8604	3396
749.2841	3382
751.7073	3401
754.1278	3399
756.5496	3463
758.9688	3436
761.3893	3456
763.8093	3459
766.2285	3449
768.6451	3397
771.0611	3470
773.4784	3431
775.895	3447
778.3091	3472
780.7244	3423
783.1371	3411
785.5493	3473
787.9626	3409
790.3754	3436
792.7856	3468
795.1951	3393
797.6039	3487
800.0121	3515
802.4236	3414
804.8306	3504
807.2369	3478
809.6425	3490
812.0475	3437
814.4538	3454
816.8575	3552
819.2606	3452
821.663	3516
824.0648	3518
826.4659	3453
828.8683	3454
831.2682	3446
833.6674	3551
836.066	3529
838.4639	3526
840.8632	3456
843.2579	3559
845.6539	3579
848.0493	3524
850.444	3566
852.84	3529
855.2315	3524
857.6243	3501
860.0165	3559
862.4081	3549
864.797	3539
867.1892	3505
869.5789	3546
871.9659	3515
874.3542	3563
876.74	3536
879.129	3610
881.5155	3561
883.8994	3617
886.2845	3587
888.6671	3575
891.051	3575
893.4343	3565
895.8169	3606
898.197	3508
900.5783	3586
902.9571	3584
905.3372	3588
907.7167	3600
910.0936	3646
912.4698	3610
914.8474	3695
917.2244	3662
919.5987	3721
921.9744	3692
924.3475	3672
926.72	3616
929.0918	3661
931.4669	3753
933.8375	3658
936.2074	3689
938.5767	3726
940.9454	3743
943.3154	3809
945.6829	3754
948.0497	3885
950.4178	3924
952.7833	4036
955.1483	4188
957.5145	4295
959.8782	4439
962.2412	4307
964.6036	4270
966.9655	4199
969.3266	4001
971.6871	3899
974.0471	3838
976.4064	3697
978.765	3756
981.125	3715
983.4824	3703
985.8373	3662
988.1935	3639
990.549	3690
992.9039	3722
995.2602	3596
997.6119	3683
999.965	3653
1002.317	3695
1004.667	3673
1007.02	3710
1009.371	3718
1011.719	3769
1014.068	3649
1016.415	3608
1018.765	3606
1021.111	3747
1023.458	3707
1025.804	3691
1028.147	3671
1030.49	3758
1032.837	3681
1035.179	3742
1037.522	3748
1039.862	3747
1042.204	3758
1044.546	3772
1046.884	3741
1049.224	3796
1051.562	3748
1053.899	3774
1056.237	3789
1058.575	3816
1060.91	3781
1063.244	3794
1065.58	3834
1067.913	3819
1070.248	3794
1072.579	3788
1074.911	3818
1077.242	3877
1079.572	3804
1081.905	3805
1084.234	3798
1086.562	3761
1088.89	3813
1091.217	3721
1093.544	3832
1095.871	3765
1098.197	3827
1100.521	3693
1102.845	3810
1105.169	3767
1107.491	3761
1109.814	3824
1112.135	3759
1114.456	3846
1116.776	3781
1119.096	3816
1121.415	3758
1123.734	3720
1126.052	3812
1128.369	3793
1130.686	3815
1133.002	3657
1135.318	3736
1137.632	3783
1139.945	3796
1142.258	3751
1144.573	3825
1146.884	3851
1149.196	3830
1151.505	3778
1153.816	3892
1156.124	3808
1158.435	3733
1160.742	3846
1163.051	3724
1165.356	3779
1167.663	3828
1169.97	3825
1172.276	3873
1174.579	3782
1176.881	3798
1179.186	3846
1181.487	3803
1183.79	3798
1186.092	3832
1188.392	3836
1190.691	3855
1192.991	3810
1195.291	3766
1197.588	3838
1199.885	3872
1202.181	3860
1204.479	3804
1206.775	3830
1209.07	3789
1211.363	3804
1213.656	3817
1215.949	3841
1218.241	3886
1220.534	3813
1222.825	3857
1225.115	3907
1227.405	3846
1229.693	3911
1231.984	3840
1234.271	3903
1236.558	3934
1238.845	3884
1241.131	3934
1243.416	3838
1245.703	4062
1247.987	4061
1250.269	3934
1252.552	3954
1254.834	3938
1257.118	3946
1259.399	3874
1261.678	3998
1263.958	3870
1266.237	3986
1268.516	4002
1270.794	3953
1273.072	3956
1275.347	3978
1277.624	3976
1279.899	3913
1282.175	4010
1284.449	3959
1286.722	4027
1288.995	3866
1291.266	3953
1293.54	3914
1295.81	3892
1298.081	3927
1300.35	3886
1302.62	3827
1304.889	4024
1307.156	3944
1309.425	3912
1311.69	3940
1313.957	3943
1316.222	3864
1318.488	3903
1320.751	3846
1323.016	3936
1325.278	3993
1327.54	3924
1329.803	3950
1332.065	3918
1334.325	3965
1336.584	3958
1338.843	3886
1341.101	3898
1343.36	3934
1345.617	3960
1347.876	3960
1350.131	3893
1352.387	3962
1354.643	3953
1356.897	3883
1359.151	3921
1361.403	3875
1363.656	3946
1365.909	3912
1368.16	4026
1370.409	3805
1372.659	3826
1374.909	3950
1377.157	3967
1379.407	3995
1381.655	3989
1383.9	3956
1386.147	3959
1388.393	3851
1390.64	4017
1392.885	4007
1395.127	4010
1397.37	3969
1399.614	3963
1401.854	3976
1404.098	3973
1406.339	4019
1408.578	4056
1410.818	4073
1413.056	4021
1415.297	4027
1417.533	4078
1419.771	4026
1422.006	4045
1424.243	4070
1426.479	4075
1428.715	4074
1430.948	4112
1433.182	4089
1435.414	4052
1437.647	4085
1439.88	4048
1442.11	4103
1444.342	4142
1446.571	4146
1448.799	4184
1451.029	4091
1453.258	4192
1455.485	4195
1457.711	4149
1459.937	4056
1462.164	4104
1464.39	4131
1466.614	4103
1468.838	4048
1471.06	4169
1473.283	4014
1475.506	4131
1477.727	3977
1479.949	4095
1482.169	3955
1484.389	4042
1486.609	3997
1488.828	4051
1491.045	3970
1493.261	3997
1495.477	3958
1497.693	4006
1499.91	4030
1502.125	3966
1504.339	3964
1506.553	3957
1508.766	3987
1510.979	4078
1513.191	4012
1515.402	4035
1517.613	3960
1519.823	3968
1522.033	3988
1524.242	4039
1526.451	3975
1528.657	3951
1530.865	3969
1533.072	3990
1535.278	4011
1537.484	4069
1539.687	4047
1541.892	4030
1544.096	3952
1546.299	3971
1548.502	4059
1550.703	4063
1552.905	4143
1555.104	4069
1557.303	4039
1559.505	4066
1561.703	4126
1563.902	4131
1566.099	4091
1568.295	4101
1570.494	4042
1572.689	4225
1574.883	4209
1577.079	4123
1579.272	4142
1581.467	4093
1583.659	4198
1585.853	4137
1588.044	4044
1590.234	4124
1592.424	4207
1594.615	4175
1596.806	4229
1598.994	4223
1601.182	4230
1603.369	4210
1605.557	4127
1607.744	4119
1609.929	4186
1612.114	4181
1614.298	4213
1616.482	4249
1618.667	4251
1620.85	4099
1623.032	4149
1625.214	4115
1627.395	4260
1629.575	4134
1631.755	4265
1633.935	4243
1636.114	4182
1638.292	4235
1640.471	4128
1642.647	4235
1644.823	4210
1647	4221
1649.175	4284
1651.348	4247
1653.525	4271
1655.698	4262
1657.87	4255
1660.043	4128
1662.213	4225
1664.387	4236
1666.558	4145
1668.727	4323
1670.896	4242
1673.064	4168
1675.233	4261
1677.401	4313
1679.569	4181
1681.735	4217
1683.902	4237
1686.066	4183
1688.233	4197
1690.397	4240
1692.559	4181
1694.723	4178
1696.885	4248
1699.048	4183
1701.21	4163
1703.37	4154
1705.53	4211
1707.689	4259
1709.849	4237
1712.009	4128
1714.166	4224
1716.323	4131
1718.479	4151
1720.634	4214
1722.793	4154
1724.948	4176
1727.102	4182
1729.255	4181
1731.408	4218
1733.562	4191
1735.714	4189
1737.865	4264
1740.016	4138
1742.166	4176
1744.316	4296
1746.467	4192
1748.616	4218
1750.764	4352
1752.911	4283
1755.056	4206
1757.205	4223
1759.35	4201
1761.496	4231
1763.641	4291
1765.785	4197
1767.927	4236
1770.072	4260
1772.214	4203
1774.355	4350
1776.496	4347
1778.637	4272
1780.778	4252
1782.918	4280
1785.057	4310
1787.194	4271
1789.333	4264
1791.472	4208
1793.608	4270
1795.745	4273
1797.879	4230
1800.015	4249
1802.148	4244
1804.284	4221
1806.417	4252
1808.548	4223
1810.682	4286
1812.812	4346
1814.946	4250
1817.075	4262
1819.205	4375
1821.335	4253
1823.463	4240
1825.59	4273
1827.721	4272
1829.847	4298
1831.973	4369
1834.098	4221
1836.223	4170
1838.351	4311
1840.475	4274
1842.598	4282
1844.721	4220
1846.843	4365
1848.966	4272
1851.087	4265
1853.21	4169
1855.33	4197
1857.449	4253
1859.568	4275
1861.688	4190
1863.806	4164
1865.924	4289
1868.039	4248
1870.155	4325
1872.273	4304
1874.388	4252
1876.503	4177
1878.617	4240
1880.73	4290
1882.844	4187
1884.956	4178
1887.068	4164
1889.18	4267
1891.291	4258
1893.4	4282
1895.511	4266
1897.621	4245
1899.73	4257
1901.837	4293
1903.944	4339
1906.053	4360
1908.159	4240
1910.265	4319
1912.369	4324
1914.474	4425
1916.577	4275
1918.683	4354
1920.785	4311
1922.888	4434
1924.989	4335
1927.091	4364
1929.193	4383
1931.294	4418
1933.393	4384
1935.493	4380
1937.59	4353
1939.689	4453
1941.788	4294
1943.884	4309
1945.98	4338
1948.077	4393
1950.171	4277
1952.267	4373
1954.361	4339
1956.455	4305
1958.548	4415
1960.64	4285
1962.733	4365
1964.824	4362
1966.915	4334
1969.005	4391
1971.096	4264
1973.185	4300
1975.275	4308
1977.363	4332
1979.45	4361
1981.537	4317
1983.623	4310
1985.711	4322
1987.796	4410
1989.881	4347
1991.965	4316
1994.047	4412
1996.132	4349
1998.215	4324
2000.297	4367
2002.378	4279
2004.46	4274
2006.54	4369
2008.62	4268
2010.7	4362
2012.779	4254
2014.858	4401
2016.934	4366
2019.013	4283
2021.09	4340
2023.165	4398
2025.241	4366
2027.317	4298
2029.39	4305
2031.466	4282
2033.538	4318
2035.612	4323
2037.683	4314
2039.755	4297
2041.827	4274
2043.898	4343
2045.968	4260
2048.038	4239
2050.106	4318
2052.177	4381
2054.244	4352
2056.313	4357
2058.379	4208
2060.444	4404
2062.511	4360
2064.577	4246
2066.641	4357
2068.705	4335
2070.77	4407
2072.832	4318
2074.896	4356
2076.958	4311
2079.02	4300
2081.081	4276
2083.141	4398
2085.2	4295
2087.261	4382
2089.319	4412
2091.377	4365
2093.435	4360
2095.492	4284
2097.552	4367
2099.607	4368
2101.663	4392
2103.718	4423
2105.771	4377
2107.826	4355
2109.879	4345
2111.932	4358
2113.985	4354
2116.037	4449
2118.088	4303
2120.141	4372
2122.191	4432
2124.239	4393
2126.288	4302
2128.337	4300
2130.387	4275
2132.434	4440
2134.481	4401
2136.528	4399
2138.574	4396
2140.618	4369
2142.665	4407
2144.71	4414
2146.753	4284
2148.797	4393
2150.838	4350
2152.883	4308
2154.923	4390
2156.965	4346
2159.007	4361
2161.046	4371
2163.086	4362
2165.126	4338
2167.163	4471
2169.202	4297
2171.239	4398
2173.277	4361
2175.314	4312
2177.349	4267
2179.385	4366
2181.42	4271
2183.453	4343
2185.49	4334
2187.522	4304
2189.555	4337
2191.586	4389
2193.619	4294
2195.651	4327
2197.682	4276
2199.711	4306
2201.74	4370
2203.769	4369
2205.799	4305
2207.828	4371
2209.855	4329
2211.882	4337
2213.908	4227
2215.934	4342
2217.961	4343
2219.986	4318
2222.01	4298
2224.034	4371
2226.057	4307
2228.08	4259
2230.104	4174
2232.124	4413
2234.145	4338
2236.166	4255
2238.186	4264
2240.207	4229
2242.227	4426
2244.244	4366
2246.262	4340
2248.28	4339
2250.299	4266
2252.314	4255
2254.33	4312
2256.346	4262
2258.36	4241
2260.375	4252
2262.391	4328
2264.403	4288
2266.416	4337
2268.427	4296
2270.44	4381
2272.453	4323
2274.463	4309
2276.474	4388
2278.483	4298
2280.493	4352
2282.501	4258
2284.51	4331
2286.518	4295
2288.524	4277
2290.532	4305
2292.537	4212
2294.544	4308
2296.55	4361
2298.554	4282
2300.557	4249
2302.562	4215
2304.566	4316
2306.568	4269
2308.569	4366
2310.572	4443
2312.573	4267
2314.573	4316
2316.574	4307
2318.573	4320
2320.571	4335
2322.571	4308
2324.569	4168
2326.567	4232
2328.564	4310
2330.56	4207
2332.556	4298
2334.551	4318
2336.546	4235
2338.542	4275
2340.535	4167
2342.529	4237
2344.521	4325
2346.512	4331
2348.505	4327
2350.497	4325
2352.487	4272
2354.478	4283
2356.468	4204
2358.457	4248
2360.446	4276
2362.434	4177
2364.422	4281
2366.408	4299
2368.395	4226
2370.383	4270
2372.369	4223
2374.353	4243
2376.338	4222
2378.321	4278
2380.307	4155
2382.29	4296
2384.272	4243
2386.254	4173
2388.235	4232
2390.218	4256
2392.198	4201
2394.179	4236
2396.157	4201
2398.137	4264
2400.115	4129
2402.095	4253
2404.072	4188
2406.048	4271
2408.026	4166
2410.001	4186
2411.977	4242
2413.953	4149
2415.927	4109
2417.9	4256
2419.875	4223
2421.847	4274
2423.821	4227
2425.792	4190
2427.763	4213
2429.736	4239
2431.706	4292
2433.677	4156
2435.646	4205
2437.615	4230
2439.583	4153
2441.551	4185
2443.519	4252
2445.486	4169
2447.452	4218
2449.418	4210
2451.383	4142
2453.348	4243
2455.314	4208
2457.278	4285
2459.241	4193
2461.205	4164
2463.167	4256
2465.131	4190
2467.091	4251
2469.052	4271
2471.012	4245
2472.972	4253
2474.932	4165
2476.891	4223
2478.85	4177
2480.808	4245
2482.766	4132
2484.722	4162
2486.68	4249
2488.636	4138
2490.591	4227
2492.546	4109
2494.5	4067
2496.456	4146
2498.41	4222
2500.362	4233
2502.315	4193
2504.266	4159
2506.218	4112
2508.169	4208
2510.121	4124
2512.07	4200
2514.019	4252
2515.968	4118
2517.918	4224
2519.866	4092
2521.813	4152
2523.76	4156
2525.707	4186
2527.653	4201
2529.599	4198
2531.543	4218
2533.489	4117
2535.433	4244
2537.376	4108
2539.32	4190
2541.264	4226
2543.205	4163
2545.147	4234
2547.087	4102
2549.029	4207
2550.969	4140
2552.908	4247
2554.847	4147
2556.786	4114
2558.724	4132
2560.663	4194
2562.6	4147
2564.537	4147
2566.473	4262
2568.408	4201
2570.345	4213
2572.28	4219
2574.214	4140
2576.148	4174
2578.081	4205
2580.014	4128
2581.947	4121
2583.879	4195
2585.81	4191
2587.741	4188
2589.67	4082
2591.602	4279
2593.532	4167
2595.461	4202
2597.388	4220
2599.316	4165
2601.244	4164
2603.172	4101
2605.098	4280
2607.023	4171
2608.949	4203
2610.873	4188
2612.8	4257
2614.723	4296
2616.647	4165
2618.569	4297
2620.493	4176
2622.416	4273
2624.338	4204
2626.258	4169
2628.179	4264
2630.099	4277
2632.019	4247
2633.939	4333
2635.857	4245
2637.775	4203
2639.694	4154
2641.61	4230
2643.528	4291
2645.444	4224
2647.361	4152
2649.276	4113
2651.19	4182
2653.105	4203
2655.019	4196
2656.934	4164
2658.846	4218
2660.758	4160
2662.67	4192
2664.583	4220
2666.493	4228
2668.404	4154
2670.313	4219
2672.223	4125
2674.134	4200
2676.042	4186
2677.95	4104
2679.858	4310
2681.765	4178
2683.673	4139
2685.579	4125
2687.483	4271
2689.389	4205
2691.294	4162
2693.198	4193
2695.104	4140
2697.006	4244
2698.909	4155
2700.811	4227
2702.713	4182
2704.615	4170
2706.516	4155
2708.417	4128
2710.316	4196
2712.216	4154
2714.115	4212
2716.014	4171
2717.913	4105
2719.81	4146
2721.707	4201
2723.603	4193
2725.501	4197
2727.396	4137
2729.292	4133
2731.186	4111
2733.081	4183
2734.976	4168
2736.87	4083
2738.762	4141
2740.653	4133
2742.546	4247
2744.437	4067
2746.329	4196
2748.22	4082
2750.11	4151
2751.999	4204
2753.889	4107
2755.778	4118
2757.666	4186
2759.553	4151
2761.44	4109
2763.328	4237
2765.215	4129
2767.101	4118
2768.986	4152
2770.87	4180
2772.754	4150
2774.638	4107
2776.523	4164
2778.405	4076
2780.288	4055
2782.17	4099
2784.051	4132
2785.934	4190
2787.814	4145
2789.694	4023
2791.574	4136
2793.453	4039
2795.332	4116
2797.212	4101
2799.088	4064
2800.966	4137
2802.843	4089
2804.719	4086
2806.597	4121
2808.471	4162
2810.346	4116
2812.221	4043
2814.094	4107
2815.969	4077
2817.843	4211
2819.714	4032
2821.587	4080
2823.459	4106
2825.329	4063
2827.202	4094
2829.072	4195
2830.942	4025
2832.811	4038
2834.68	4150
2836.549	4080
2838.418	4067
2840.284	4121
2842.152	4168
2844.018	4121
2845.885	4067
2847.751	4097
2849.616	4187
2851.482	4120
2853.345	4089
2855.208	4131
2857.074	3990
2858.937	4104
2860.799	4179
2862.66	4141
2864.522	4103
2866.385	4178
2868.245	4203
2870.104	4192
2871.964	4209
2873.824	4179
2875.683	4219
2877.542	4318
2879.4	4289
2881.257	4315
2883.114	4314
2884.97	4339
2886.827	4273
2888.683	4292
2890.537	4308
2892.392	4144
2894.246	4282
2896.1	4274
2897.954	4270
2899.807	4384
2901.66	4235
2903.51	4298
2905.362	4210
2907.214	4296
2909.065	4238
2910.915	4352
2912.765	4320
2914.613	4340
2916.463	4323
2918.311	4338
2920.158	4344
2922.006	4442
2923.853	4435
2925.698	4375
2927.546	4493
2929.392	4506
2931.236	4549
2933.081	4437
2934.924	4509
2936.77	4537
2938.613	4505
2940.455	4551
2942.298	4624
2944.139	4496
2945.982	4641
2947.823	4484
2949.662	4507
2951.503	4580
2953.342	4517
2955.182	4440
2957.021	4498
2958.858	4479
2960.697	4458
2962.534	4331
2964.37	4373
2966.207	4283
2968.044	4351
2969.879	4262
2971.714	4358
2973.548	4336
2975.383	4243
2977.218	4293
2979.051	4368
2980.883	4353
2982.715	4310
2984.547	4257
2986.379	4278
2988.21	4354
2990.04	4206
2991.87	4230
2993.7	4159
2995.53	4300
2997.359	4123
2999.187	4122
3001.015	4160
3002.842	4141
3004.669	4200
3006.497	4122
3008.323	4060
3010.148	4017
3011.974	4052
3013.797	4015
3015.623	4065
3017.447	4036
3019.27	3951
3021.094	4012
3022.915	3949
3024.737	4015
3026.56	3978
3028.38	3952
3030.201	4028
3032.022	3918
3033.84	3930
3035.662	3944
3037.481	3957
3039.298	4004
3041.117	3987
3042.933	3926
3044.752	3970
3046.568	3995
3048.385	3956
3050.2	4018
3052.016	3918
3053.83	3879
3055.646	3953
3057.46	3920
3059.272	3935
3061.086	3935
3062.898	3948
3064.711	3852
3066.524	3973
3068.335	3941
3070.145	3949
3071.956	3943
3073.766	3992
3075.576	3904
3077.385	3915
3079.193	3824
3081.002	3936
3082.81	3901
3084.618	3923
3086.425	3976
3088.231	3974
3090.036	3813
3091.842	3867
3093.648	3900
3095.452	3900
3097.257	3956
3099.06	3806
3100.863	3874
3102.666	3869
3104.47	3767
3106.272	3896
3108.073	3897
3109.875	3858
3111.676	3899
3113.477	3834
3115.277	3839
3117.077	3838
3118.874	3849
3120.673	3874
3122.473	3833
3124.271	3758
3126.066	3752
3127.863	3777
3129.66	3750
3131.456	3757
3133.252	3813
3135.047	3726
3136.842	3847
3138.635	3783
3140.429	3773
3142.223	3750
3144.016	3844
3145.808	3806
3147.6	3835
3149.392	3763
3151.183	3818
3152.975	3772
3154.765	3822
3156.553	3753
3158.344	3818
3160.132	3882
3161.922	3826
3163.71	3681
3165.497	3740
3167.285	3803
3169.071	3790
3170.858	3655
3172.645	3744
3174.429	3813
3176.214	3702
3177.998	3721
3179.783	3704
3181.568	3785
3183.351	3661
3185.133	3799
3186.915	3786
3188.698	3733
3190.481	3777
3192.261	3733
3194.042	3722
3195.822	3702
3197.601	3705
3199.381	3669
3201.161	3774
3202.939	3710
3204.717	3775
3206.495	3658
3208.272	3656
3210.05	3706
3211.826	3740
3213.602	3751
3215.376	3700
3217.151	3785
3218.927	3742
3220.702	3796
3222.476	3744
3224.249	3732
3226.021	3678
3227.793	3704
3229.567	3651
3231.339	3735
3233.109	3694
3234.88	3595
3236.651	3740
3238.421	3661
3240.191	3774
3241.96	3635
3243.728	3658
3245.497	3651
3247.263	3698
3249.033	3641
3250.799	3705
3252.566	3680
3254.331	3727
3256.097	3635
3257.863	3738
3259.628	3721
3261.392	3775
3263.156	3651
3264.919	3757
3266.683	3684
3268.447	3678
3270.208	3716
3271.969	3703
3273.731	3679
3275.492	3689
3277.253	3696
3279.013	3685
3280.773	3630
3282.532	3634
3284.291	3691
3286.05	3699
3287.808	3742
3289.566	3761
3291.323	3651
3293.079	3605
3294.835	3723
3296.593	3719
3298.348	3695
3300.102	3696
3301.857	3615
3303.611	3739
3305.366	3642
3307.119	3640
3308.872	3610
3310.624	3625
3312.376	3700
3314.129	3620
3315.881	3627
3317.631	3612
3319.38	3758
3321.13	3608
3322.88	3690
3324.631	3707
3326.379	3618
3328.126	3668
3329.875	3639
3331.622	3730
3333.371	3632
3335.116	3658
3336.863	3667
3338.609	3664
3340.353	3628
3342.1	3594
3343.845	3712
3345.588	3630
3347.332	3644
3349.074	3542
3350.817	3642
3352.56	3571
3354.303	3672
3356.043	3612
3357.785	3682
3359.525	3592
3361.268	3543
3363.007	3651
3364.745	3641
3366.485	3634
3368.223	3597
3369.962	3560
3371.701	3594
3373.438	3617
3375.174	3658
3376.911	3623
3378.647	3611
3380.384	3655
3382.118	3622
3383.854	3659
3385.588	3609
3387.322	3575
3389.057	3572
3390.79	3577
3392.522	3608
3394.255	3661
3395.987	3547
3397.719	3549
3399.451	3576
3401.181	3544
3402.911	3607
3404.641	3543
3406.371	3545
3408.101	3609
3409.83	3614
3411.558	3540
3413.285	3515
3415.011	3567
3416.739	3571
3418.467	3605
3420.193	3555
3421.919	3546
3423.644	3521
3425.368	3575
3427.094	3545
3428.818	3489
3430.542	3497
3432.264	3488
3433.987	3471
3435.712	3607
3437.434	3512
3439.155	3506
3440.876	3579
3442.596	3542
3444.317	3524
3446.039	3539
3447.757	3560
3449.477	3484
3451.195	3541
3452.914	3573
3454.632	3554
3456.35	3425
3458.067	3490
3459.784	3461
3461.5	3522
3463.216	3469
3464.932	3426
3466.647	3423
3468.362	3431
3470.076	3517
3471.789	3494
3473.505	3471
3475.217	3491
3476.929	3554
3478.641	3503
3480.354	3454
3482.066	3509
3483.777	3528
3485.487	3461
3487.197	3412
3488.908	3377
3490.617	3487
3492.327	3381
3494.035	3399
3495.743	3419
3497.451	3371
3499.158	3402
3500.866	3446
3502.572	3378
3504.278	3397
3505.984	3399
3507.689	3348
3509.396	3456
3511.1	3344
3512.804	3379
3514.508	3383
3516.211	3316
3517.913	3398
3519.616	3343
3521.319	3428
3523.021	3373
3524.722	3355
3526.422	3378
3528.124	3448
3529.824	3366
3531.524	3376
3533.222	3328
3534.921	3333
3536.62	3373
3538.318	3415
3540.016	3364
3541.714	3294
3543.41	3392
3545.107	3332
3546.803	3445
3548.5	3339
3550.194	3393
3551.889	3351
3553.583	3356
3555.279	3277
3556.972	3331
3558.666	3308
3560.358	3308
3562.051	3332
3563.742	3265
3565.435	3317
3567.126	3363
3568.817	3289
3570.507	3349
3572.197	3392
3573.888	3342
3575.577	3280
3577.265	3315
3578.954	3327
3580.642	3348
3582.329	3289
3584.017	3332
3585.704	3368
3587.391	3314
3589.077	3339
3590.762	3216
3592.449	3289
3594.133	3259
3595.817	3255
3597.501	3243
3599.185	3278
3600.869	3227
3602.552	3274
3604.234	3310
3605.916	3261
3607.598	3248
3609.279	3190
3610.961	3256
3612.642	3239
3614.321	3228
3616	3220
3617.68	3325
3619.36	3219
3621.039	3171
3622.716	3159
3624.394	3087
3626.071	3173
3627.748	3144
3629.425	3241
3631.102	3160
3632.778	3128
3634.452	3163
3636.127	3198
3637.803	3163
3639.477	3179
3641.151	3179
3642.823	3285
3644.497	3129
3646.171	3185
3647.842	3190
3649.515	3254
3651.185	3141
3652.857	3135
3654.527	3115
3656.198	3217
3657.868	3140
3659.537	3114
3661.207	3191
3662.875	3200
3664.544	3187
3666.212	3201
3667.879	3161
3669.546	3082
3671.212	3094
3672.88	3108
3674.546	3147
3676.211	3087
3677.875	3125
3679.541	3142
3681.205	3020
3682.87	3121
3684.533	3157
3686.196	3065
3687.859	3073
3689.521	3197
3691.184	3104
3692.845	3114
3694.507	3145
3696.167	3081
3697.827	3112
3699.487	3097
3701.148	3173
3702.808	3128
3704.466	3141
3706.125	3129
3707.783	3130
3709.442	3083
3711.099	3112
3712.757	3093
3714.412	3172
3716.068	3063
3717.725	3043
3719.381	3135
3721.036	3056
3722.689	2989
3724.344	3079
3725.998	3085
3727.652	3153
3729.305	3070
3730.958	3065
3732.61	3100
3734.262	3077
3735.915	3066
3737.565	3123
3739.217	3071
3740.866	2992
3742.516	3053
3744.165	3064
3745.816	3104
3747.464	2997
3749.113	3019
3750.761	3052
3752.409	3067
3754.057	3035
3755.703	2974
3757.35	2999
3758.996	3099
3760.641	3075
3762.289	3067
3763.933	3012
3765.577	3037
3767.222	3122
3768.865	3039
3770.508	3029
3772.152	3047
3773.796	3047
3775.438	2991
3777.079	3041
3778.721	3041
3780.363	3033
3782.003	3060
3783.643	3035
3785.283	3011
3786.923	3030
3788.563	3059
3790.203	2941
3791.841	3039
3793.479	2918
3795.115	2994
3796.753	2961
3798.391	3027
3800.027	3024
3801.664	3016
3803.299	2975
3804.935	3020
3806.571	3082
3808.206	3012
3809.839	2871
3811.473	3010
3813.107	2962
3814.74	2948
3816.375	2974
3818.006	3009
3819.638	2989
3821.27	3012
3822.9	2901
3824.532	2862
3826.163	3018
3827.792	2859
3829.423	2938
3831.051	2901
3832.682	2881
3834.311	2968
3835.938	2946
3837.566	2837
3839.193	2966
3840.821	2929
3842.448	2945
3844.075	2898
3845.7	2914
3847.325	2939
3848.951	2957
3850.576	2937
3852.201	2886
3853.825	2902
3855.448	2978
3857.072	2865
3858.694	2927
3860.318	2875
3861.939	2951
3863.562	2925
3865.183	2855
3866.804	2932
3868.426	2862
3870.045	2878
3871.666	2810
3873.285	2880
3874.904	2884
3876.524	2876
3878.142	3002
3879.76	2849
3881.378	2819
3882.995	2861
3884.612	2919
3886.229	2793
3887.845	2863
3889.461	2900
3891.076	2879
3892.691	2886
3894.307	2873
3895.922	2872
3897.536	2867
3899.149	2877
3900.761	2849
3902.374	2846
3903.988	2857
3905.6	2904
3907.212	2928
3908.822	2883
3910.433	2927
3912.045	2886
3913.655	2864
3915.265	2823
3916.875	2872
3918.483	2896
3920.093	2801
3921.702	2920
3923.309	2799
3924.917	2806
3926.523	2811
3928.13	2852
3929.739	2787
3931.344	2854
3932.95	2800
3934.555	2800
3936.159	2819
3937.766	2787
3939.369	2732
3940.974	2819
3942.577	2743
3944.181	2872
3945.783	2857
3947.386	2829
3948.989	2854
3950.59	2728
3952.191	2861
3953.791	2830
3955.394	2785
3956.994	2775
3958.593	2803
3960.192	2852
3961.791	2779
3963.392	2805
3964.99	2819
3966.588	2825
3968.185	2726
3969.782	2781
3971.379	2807
3972.976	2756
3974.572	2791
3976.168	2793
3977.763	2805
3979.358	2755
3980.954	2742
3982.548	2814
3984.142	2740
3985.736	2760
3987.329	2679
3988.922	2780
3990.516	2739
3992.108	2662
3993.698	2680
3995.29	2766
3996.881	2644
3998.473	2788
4000.064	2788
4001.653	2732
4003.242	2692
4004.832	2717
4006.422	2702
4008.01	2714
4009.598	2698
4011.186	2736
4012.773	2763
4014.36	2680
4015.947	2732
4017.534	2655
4019.119	2720
4020.705	2688
4022.291	2739
4023.876	2627
4025.461	2688
4027.044	2628
4028.627	2758
4030.211	2651
4031.795	2681
4033.378	2656
4034.96	2685
4036.542	2632
4038.124	2719
4039.704	2643
4041.286	2743
4042.867	2651
4044.447	2656
4046.026	2637
4047.606	2661
4049.187	2669
4050.765	2632
4052.343	2635
4053.92	2604
4055.498	2625
4057.076	2662
4058.654	2679
4060.23	2621
4061.806	2678
4063.381	2665
4064.957	2594
4066.533	2605
4068.107	2612
4069.682	2625
4071.256	2583
4072.829	2581
4074.404	2597
4075.977	2587
4077.549	2597
4079.121	2594
4080.693	2629
4082.265	2580
4083.836	2623
4085.407	2608
4086.977	2574
4088.547	2533
4090.117	2617
4091.687	2565
4093.256	2653
4094.825	2591
4096.392	2616
4097.96	2560
4099.528	2517
4101.097	2520
4102.663	2610
4104.229	2586
4105.795	2636
4107.361	2558
4108.928	2596
4110.493	2537
4112.058	2519
4113.621	2579
4115.186	2556
4116.75	2568
4118.313	2614
4119.876	2545
4121.438	2589
4123	2471
4124.562	2571
4126.125	2489
4127.686	2546
4129.246	2608
4130.807	2574
4132.367	2512
4133.927	2501
4135.486	2492
4137.046	2578
4138.604	2479
4140.162	2565
4141.72	2499
4143.279	2532
4144.836	2504
4146.393	2553
4147.949	2485
4149.505	2458
4151.062	2482
4152.617	2484
4154.172	2502
4155.727	2547
4157.281	2534
4158.836	2487
4160.39	2440
4161.943	2460
4163.496	2478
4165.048	2488
4166.601	2434
4168.154	2506
4169.706	2525
4171.257	2445
4172.808	2555
4174.358	2482
4175.909	2450
4177.458	2473
4179.008	2484
4180.558	2390
4182.106	2528
4183.655	2445
4185.204	2436
4186.751	2492
4188.298	2382
4189.845	2461
4191.392	2475
4192.939	2462
4194.485	2419
4196.031	2438
4197.576	2415
4199.121	2462
4200.666	2480
4202.211	2392
4203.754	2391
4205.298	2435
4206.84	2388
4208.384	2409
4209.927	2408
4211.47	2381
4213.011	2402
4214.552	2423
4216.094	2395
4217.635	2410
4219.175	2403
4220.716	2425
4222.255	2329
4223.793	2372
4225.335	2472
4226.873	2430
4228.411	2433
4229.948	2475
4231.486	2466
4233.024	2368
4234.562	2393
4236.098	2361
4237.634	2410
4239.169	2426
4240.705	2372
4242.241	2371
4243.776	2394
4245.31	2353
4246.844	2410
4248.378	2422
4249.911	2384
4251.445	2316
4252.978	2425
4254.51	2282
4256.042	2345
4257.574	2357
4259.107	2360
4260.638	2390
4262.169	2415
4263.699	2446
4265.228	2330
4266.759	2388
4268.289	2334
4269.818	2334
4271.345	2358
4272.874	2344
4274.402	2334
4275.931	2358
4277.458	2357
4278.985	2336
4280.512	2389
4282.037	2357
4283.564	2360
4285.089	2390
4286.615	2401
4288.139	2344
4289.664	2346
4291.187	2338
4292.712	2325
4294.235	2342
4295.759	2347
4297.281	2342
4298.804	2278
4300.327	2385
4301.849	2315
4303.37	2299
4304.891	2319
4306.412	2332
4307.933	2336
4309.453	2297
4310.973	2261
4312.492	2275
