398.1873	12936
400.7097	13008
403.2336	12945
405.7547	12921
408.2751	12969
410.7948	13121
413.3138	13098
415.83	13321
418.3497	13315
420.8666	13382
423.3829	13471
425.8985	13444
428.4133	13544
430.9275	13865
433.441	13695
435.9538	13622
438.4639	13751
440.9753	13825
443.4881	13856
445.9982	13806
448.5055	13947
451.0142	14046
453.5201	13943
456.0274	13913
458.5361	14134
461.04	13908
463.5453	13945
466.0478	13969
468.5517	14112
471.0549	13946
473.5574	14187
476.0572	14225
478.5584	14177
481.0568	14097
483.5545	14190
486.0557	14334
488.5521	14477
491.0478	14358
493.5449	14458
496.0392	14519
498.5349	14568
501.0299	14557
503.5222	14744
506.0139	14707
508.5048	14605
510.9991	14695
513.4887	14688
515.9777	14686
518.4659	14670
520.9534	14775
523.4403	14668
525.9306	14747
528.4161	14779
530.9009	14800
533.3851	14869
535.8687	14746
538.3535	14610
540.8356	14844
543.3171	14734
545.7979	14813
548.278	14858
550.7595	14836
553.2383	14918
555.7144	14829
558.1918	14954
560.6685	15127
563.1446	14825
565.6221	15121
568.0968	14827
570.5688	15009
573.0422	14950
575.515	15126
577.989	15160
580.4584	15258
582.9291	15131
585.3991	15375
587.8685	15338
590.3352	15121
592.8052	15350
595.2706	15369
597.7372	15215
600.2033	15376
602.6666	15011
605.1334	15382
607.5953	15263
610.0587	15355
612.5193	15217
614.9814	15302
617.4427	15265
619.9034	15221
622.3615	15281
624.8208	15245
627.2775	15314
629.7335	15509
632.1929	15327
634.6476	15533
637.1016	15435
639.5569	15523
642.0096	15452
644.4637	15337
646.9151	15473
649.3678	15485
651.8179	15348
654.2672	15760
656.7159	15806
659.166	15601
661.6154	15700
664.0622	15603
666.5082	15873
668.9537	15789
671.4005	15995
673.8445	15795
676.288	15802
678.7308	15956
681.1729	15865
683.6163	15956
686.0572	15902
688.4973	16085
690.9368	15943
693.3757	16094
695.8138	16081
698.2534	15860
700.6902	16019
703.1245	16084
705.56	16170
707.9949	16229
710.4311	16440
712.8647	16258
715.2957	16209
717.7279	16495
720.1595	16228
722.5905	16480
725.0208	16457
727.4505	16416
729.8795	16483
732.3058	16530
734.7336	16570
737.1626	16689
739.587	16657
742.0128	16738
744.4359	16737
746.8604	16815
749.2841	16748
751.7073	16965
754.1278	17131
756.5496	17005
758.9688	17202
761.3893	16884
763.8093	17011
766.2285	17241
768.6451	17207
771.0611	17237
773.4784	17189
775.895	17175
778.3091	16991
780.7244	17243
783.1371	17334
785.5493	17351
787.9626	17295
790.3754	17174
792.7856	17411
795.1951	17197
797.6039	17342
800.0121	17163
802.4236	17120
804.8306	17416
807.2369	17110
809.6425	17165
812.0475	17380
814.4538	17238
816.8575	17466
819.2606	17453
821.663	17348
824.0648	17310
826.4659	17345
828.8683	17321
831.2682	17479
833.6674	17347
836.066	17389
838.4639	17564
840.8632	17347
843.2579	17601
845.6539	17750
848.0493	17416
850.444	17671
852.84	17569
855.2315	17389
857.6243	17582
860.0165	17451
862.4081	17567
864.797	17488
867.1892	17621
869.5789	17678
871.9659	17550
874.3542	17409
876.74	17584
879.129	17384
881.5155	17393
883.8994	17431
886.2845	17523
888.6671	17690
891.051	17485
893.4343	17270
895.8169	17554
898.197	17506
900.5783	17619
902.9571	17679
905.3372	17443
907.7167	17479
910.0936	17810
912.4698	17901
914.8474	17927
917.2244	18013
919.5987	17810
921.9744	17848
924.3475	17938
926.72	18121
929.0918	17890
931.4669	17792
933.8375	18088
936.2074	18124
938.5767	18116
940.9454	18168
943.3154	18311
945.6829	18484
948.0497	18611
950.4178	18480
952.7833	18744
955.1483	18975
957.5145	19449
959.8782	19340
962.2412	19387
964.6036	19262
966.9655	18871
969.3266	18817
971.6871	18521
974.0471	18323
976.4064	18097
978.765	18332
981.125	18202
983.4824	18120
985.8373	18182
988.1935	17987
990.549	18084
992.9039	18054
995.2602	18103
997.6119	17874
999.965	17922
1002.317	18124
1004.667	18249
1007.02	18266
1009.371	18204
1011.719	18044
1014.068	17989
1016.415	18450
1018.765	18141
1021.111	18091
1023.458	18091
1025.804	18460
1028.147	18194
1030.49	18514
1032.837	18391
1035.179	18222
1037.522	18321
1039.862	18291
1042.204	18287
1044.546	18313
1046.884	18389
1049.224	18436
1051.562	18011
1053.899	18454
1056.237	18481
1058.575	18353
1060.91	18542
1063.244	18496
1065.58	18589
1067.913	18345
1070.248	18466
1072.579	18614
1074.911	18667
1077.242	18564
1079.572	18449
1081.905	18493
1084.234	18748
1086.562	18409
1088.89	18530
1091.217	18596
1093.544	18621
1095.871	18386
1098.197	18533
1100.521	18547
1102.845	18515
1105.169	18676
1107.491	18408
1109.814	18494
1112.135	18536
1114.456	18698
1116.776	18676
1119.096	18821
1121.415	18642
1123.734	18689
1126.052	18633
1128.369	18903
1130.686	18730
1133.002	18691
1135.318	18870
1137.632	18634
1139.945	18729
1142.258	18776
1144.573	18922
1146.884	18645
1149.196	18760
1151.505	18549
1153.816	18626
1156.124	18824
1158.435	18821
1160.742	18820
1163.051	18711
1165.356	18852
1167.663	18728
1169.97	18610
1172.276	18811
1174.579	18721
1176.881	18687
1179.186	18842
1181.487	18753
1183.79	18717
1186.092	18519
1188.392	18713
1190.691	18746
1192.991	18512
1195.291	18665
1197.588	18613
1199.885	18659
1202.181	18854
1204.479	18856
1206.775	18981
1209.07	18654
1211.363	18925
1213.656	18769
1215.949	18788
1218.241	18807
1220.534	18995
1222.825	18955
1225.115	19010
1227.405	18909
1229.693	19145
1231.984	18945
1234.271	19036
1236.558	19062
1238.845	19189
1241.131	19129
1243.416	19132
1245.703	19211
1247.987	19046
1250.269	19076
1252.552	19354
1254.834	19258
1257.118	19302
1259.399	19258
1261.678	19488
1263.958	19251
1266.237	19329
1268.516	19278
1270.794	19249
1273.072	19330
1275.347	19231
1277.624	19236
1279.899	19249
1282.175	19212
1284.449	19213
1286.722	19276
1288.995	19233
1291.266	18938
1293.54	19301
1295.81	19410
1298.081	19178
1300.35	19199
1302.62	19091
1304.889	19118
1307.156	19124
1309.425	18866
1311.69	19132
1313.957	19074
1316.222	18962
1318.488	19027
1320.751	19261
1323.016	19151
1325.278	19189
1327.54	19166
1329.803	19136
1332.065	19296
1334.325	19045
1336.584	19175
1338.843	19161
1341.101	19190
1343.36	19226
1345.617	19224
1347.876	19365
1350.131	19089
1352.387	18976
1354.643	19206
1356.897	19325
1359.151	19134
1361.403	19191
1363.656	19187
1365.909	19116
1368.16	19354
1370.409	19356
1372.659	19180
1374.909	19139
1377.157	19142
1379.407	19197
1381.655	19193
1383.9	19403
1386.147	19159
1388.393	19313
1390.64	19406
1392.885	19369
1395.127	19385
1397.37	19550
1399.614	19793
1401.854	19549
1404.098	19655
1406.339	19460
1408.578	19694
1410.818	19564
1413.056	19542
1415.297	19733
1417.533	19621
1419.771	19508
1422.006	19516
1424.243	19543
1426.479	19380
1428.715	19634
1430.948	19736
1433.182	19707
1435.414	19824
1437.647	19854
1439.88	19724
1442.11	19778
1444.342	19819
1446.571	19732
1448.799	19812
1451.029	19749
1453.258	19705
1455.485	19952
1457.711	19773
1459.937	19751
1462.164	19815
1464.39	19908
1466.614	19601
1468.838	19837
1471.06	19582
1473.283	19740
1475.506	19685
1477.727	19537
1479.949	19688
1482.169	19572
1484.389	19463
1486.609	19512
1488.828	19497
1491.045	19433
1493.261	19445
1495.477	19352
1497.693	19384
1499.91	19535
1502.125	19208
1504.339	19434
1506.553	19097
1508.766	19457
1510.979	19293
1513.191	19421
1515.402	19321
1517.613	19235
1519.823	19143
1522.033	19355
1524.242	19182
1526.451	19428
1528.657	19395
1530.865	19521
1533.072	19439
1535.278	19649
1537.484	19590
1539.687	19647
1541.892	19409
1544.096	19571
1546.299	19274
1548.502	19632
1550.703	19598
1552.905	19548
1555.104	19420
1557.303	19568
1559.505	19870
1561.703	19747
1563.902	19570
1566.099	19819
1568.295	19835
1570.494	19639
1572.689	19714
1574.883	19765
1577.079	19851
1579.272	19973
1581.467	20021
1583.659	19752
1585.853	19945
1588.044	20007
1590.234	19933
1592.424	19891
1594.615	20046
1596.806	19825
1598.994	20030
1601.182	20145
1603.369	19975
1605.557	19826
1607.744	20054
1609.929	20005
1612.114	19942
1614.298	20021
1616.482	19865
1618.667	20043
1620.85	20063
1623.032	19950
1625.214	20022
1627.395	19739
1629.575	19827
1631.755	20139
1633.935	20142
1636.114	20015
1638.292	19979
1640.471	20226
1642.647	20061
1644.823	20125
1647	20029
1649.175	20311
1651.348	19823
1653.525	20180
1655.698	19861
1657.87	20302
1660.043	19945
1662.213	20204
1664.387	20159
1666.558	20040
1668.727	20345
1670.896	20127
1673.064	20072
1675.233	20134
1677.401	20113
1679.569	19967
1681.735	20339
1683.902	19981
1686.066	19769
1688.233	20057
1690.397	20105
1692.559	19995
1694.723	20002
1696.885	20162
1699.048	19942
1701.21	19760
1703.37	19809
1705.53	20109
1707.689	19745
1709.849	19897
1712.009	19962
1714.166	19931
1716.323	19789
1718.479	19988
1720.634	19905
1722.793	19823
1724.948	19909
1727.102	19780
1729.255	19751
1731.408	20060
1733.562	20032
1735.714	19755
1737.865	19889
1740.016	19961
1742.166	19996
1744.316	20018
1746.467	20071
1748.616	19998
1750.764	19844
1752.911	20019
1755.056	20125
1757.205	19900
1759.35	20137
1761.496	20007
1763.641	20008
1765.785	20014
1767.927	20043
1770.072	20079
1772.214	19961
1774.355	20067
1776.496	20096
1778.637	20379
1780.778	20064
1782.918	19982
1785.057	20198
1787.194	20043
1789.333	20288
1791.472	20147
1793.608	20318
1795.745	20022
1797.879	20178
1800.015	20190
1802.148	20253
1804.284	20120
1806.417	19948
1808.548	20088
1810.682	20207
1812.812	20450
1814.946	20082
1817.075	20332
1819.205	19989
1821.335	20211
1823.463	19923
1825.59	19874
1827.721	20157
1829.847	20018
1831.973	19855
1834.098	19846
1836.223	19836
1838.351	20011
1840.475	19810
1842.598	19978
1844.721	19984
1846.843	19951
1848.966	19820
1851.087	20066
1853.21	19824
1855.33	20000
1857.449	19650
1859.568	19756
1861.688	19856
1863.806	19806
1865.924	20020
1868.039	19796
1870.155	19880
1872.273	19825
1874.388	19538
1876.503	19749
1878.617	20106
1880.73	19980
1882.844	19864
1884.956	19803
1887.068	19989
1889.18	19883
1891.291	19775
1893.4	19753
1895.511	20033
1897.621	20015
1899.73	19975
1901.837	19916
1903.944	19982
1906.053	19780
1908.159	19953
1910.265	20109
1912.369	20003
1914.474	20008
1916.577	19978
1918.683	20019
1920.785	20142
1922.888	20083
1924.989	20188
1927.091	19983
1929.193	20261
1931.294	20191
1933.393	20091
1935.493	20002
1937.59	20158
1939.689	20289
1941.788	20081
1943.884	20167
1945.98	20238
1948.077	20236
1950.171	20094
1952.267	20046
1954.361	20141
1956.455	20175
1958.548	20006
1960.64	20007
1962.733	20026
1964.824	20140
1966.915	20056
1969.005	20005
1971.096	19961
1973.185	20026
1975.275	20013
1977.363	19955
1979.45	20056
1981.537	19929
1983.623	19892
1985.711	19929
1987.796	20038
1989.881	19816
1991.965	20032
1994.047	20104
1996.132	19649
1998.215	19679
2000.297	19834
2002.378	19914
2004.46	19849
2006.54	19777
2008.62	19808
2010.7	19920
2012.779	19770
2014.858	19752
2016.934	19833
2019.013	19876
2021.09	19870
2023.165	19924
2025.241	19944
2027.317	19641
2029.39	19638
2031.466	19930
2033.538	19808
2035.612	19862
2037.683	19865
2039.755	19866
2041.827	19778
2043.898	19813
2045.968	19881
2048.038	19576
2050.106	19698
2052.177	19790
2054.244	19646
2056.313	19663
2058.379	19900
2060.444	19681
2062.511	19902
2064.577	19722
2066.641	19957
2068.705	20084
2070.77	19939
2072.832	19915
2074.896	19785
2076.958	19721
2079.02	19732
2081.081	19983
2083.141	19837
2085.2	19943
2087.261	19783
2089.319	19920
2091.377	19781
2093.435	19821
2095.492	19882
2097.552	19564
2099.607	19817
2101.663	19879
2103.718	19686
2105.771	19796
2107.826	19727
2109.879	19632
2111.932	19863
2113.985	19666
2116.037	19658
2118.088	19659
2120.141	19627
2122.191	19880
2124.239	19791
2126.288	19888
2128.337	19848
2130.387	19559
2132.434	19758
2134.481	19704
2136.528	19634
2138.574	19499
2140.618	19478
2142.665	19557
2144.71	19462
2146.753	19814
2148.797	19648
2150.838	19824
2152.883	19630
2154.923	19594
2156.965	19622
2159.007	19449
2161.046	19601
2163.086	19434
2165.126	19481
2167.163	19279
2169.202	19475
2171.239	19349
2173.277	19240
2175.314	19373
2177.349	19415
2179.385	19345
2181.42	19283
2183.453	19400
2185.49	19156
2187.522	19053
2189.555	19222
2191.586	19405
2193.619	19403
2195.651	19184
2197.682	19239
2199.711	19353
2201.74	19243
2203.769	19145
2205.799	18968
2207.828	18965
2209.855	19080
2211.882	18993
2213.908	19155
2215.934	19174
2217.961	18966
2219.986	19056
2222.01	19100
2224.034	18900
2226.057	18997
2228.08	18936
2230.104	19087
2232.124	19097
2234.145	19003
2236.166	18999
2238.186	18995
2240.207	18912
2242.227	18982
2244.244	19061
2246.262	18840
2248.28	18897
2250.299	18960
2252.314	19033
2254.33	19245
2256.346	19040
2258.36	18880
2260.375	18987
2262.391	18936
2264.403	18993
2266.416	18937
2268.427	18792
2270.44	18920
2272.453	19018
2274.463	18902
2276.474	19038
2278.483	19024
2280.493	19039
2282.501	19052
2284.51	18969
2286.518	19021
2288.524	19152
2290.532	19066
2292.537	19039
2294.544	18801
2296.55	18940
2298.554	18863
2300.557	18955
2302.562	18944
2304.566	18891
2306.568	18894
2308.569	18966
2310.572	19039
2312.573	18957
2314.573	18948
2316.574	18790
2318.573	18765
2320.571	18736
2322.571	18598
2324.569	18708
2326.567	18708
2328.564	18824
2330.56	18574
2332.556	18715
2334.551	18757
2336.546	18511
2338.542	18577
2340.535	18528
2342.529	18787
2344.521	18445
2346.512	18638
2348.505	18622
2350.497	18609
2352.487	18540
2354.478	18446
2356.468	18456
2358.457	18695
2360.446	18458
2362.434	18334
2364.422	18440
2366.408	18550
2368.395	18376
2370.383	18556
2372.369	18313
2374.353	18638
2376.338	18389
2378.321	18503
2380.307	18365
2382.29	18271
2384.272	18271
2386.254	18346
2388.235	18340
2390.218	18462
2392.198	18013
2394.179	18259
2396.157	18143
2398.137	18274
2400.115	18359
2402.095	18073
2404.072	18224
2406.048	18151
2408.026	18276
2410.001	18142
2411.977	18022
2413.953	18257
2415.927	18173
2417.9	18269
2419.875	18141
2421.847	18123
2423.821	18266
2425.792	18075
2427.763	18297
2429.736	18224
2431.706	18255
2433.677	18169
2435.646	18354
2437.615	18148
2439.583	18156
2441.551	17969
2443.519	18091
2445.486	17934
2447.452	18261
2449.418	18157
2451.383	17995
2453.348	18071
2455.314	18131
2457.278	18029
2459.241	17943
2461.205	18011
2463.167	17847
2465.131	17877
2467.091	18078
2469.052	18045
2471.012	17789
2472.972	18250
2474.932	18022
2476.891	17806
2478.85	17902
2480.808	17886
2482.766	18046
2484.722	17812
2486.68	17959
2488.636	18025
2490.591	17778
2492.546	17876
2494.5	17886
2496.456	17798
2498.41	17687
2500.362	17726
2502.315	17776
2504.266	17763
2506.218	17701
2508.169	17648
2510.121	17791
2512.07	17839
2514.019	17670
2515.968	17700
2517.918	17869
2519.866	17788
2521.813	17583
2523.76	17629
2525.707	17496
2527.653	17498
2529.599	17707
2531.543	17674
2533.489	17667
2535.433	17391
2537.376	17623
2539.32	17726
2541.264	17528
2543.205	17709
2545.147	17853
2547.087	17477
2549.029	17425
2550.969	17756
2552.908	17672
2554.847	17665
2556.786	17720
2558.724	17465
2560.663	17476
2562.6	17792
2564.537	17554
2566.473	17698
2568.408	17483
2570.345	17647
2572.28	17493
2574.214	17596
2576.148	17433
2578.081	17710
2580.014	17581
2581.947	17475
2583.879	17701
2585.81	17489
2587.741	17611
2589.67	17646
2591.602	17646
2593.532	17766
2595.461	17619
2597.388	17808
2599.316	17573
2601.244	17434
2603.172	17611
2605.098	17867
2607.023	17441
2608.949	17415
2610.873	17705
2612.8	17795
2614.723	17712
2616.647	17563
2618.569	17581
2620.493	17619
2622.416	17539
2624.338	17593
2626.258	17730
2628.179	17704
2630.099	17812
2632.019	17619
2633.939	17470
2635.857	17551
2637.775	17683
2639.694	17447
2641.61	17614
2643.528	17584
2645.444	17698
2647.361	17464
2649.276	17730
2651.19	17553
2653.105	17590
2655.019	17365
2656.934	17734
2658.846	17639
2660.758	17397
2662.67	17360
2664.583	17635
2666.493	17449
2668.404	17481
2670.313	17494
2672.223	17522
2674.134	17665
2676.042	17318
2677.95	17524
2679.858	17344
2681.765	17480
2683.673	17493
2685.579	17505
2687.483	17365
2689.389	17474
2691.294	17348
2693.198	17400
2695.104	17246
2697.006	17480
2698.909	17314
2700.811	17463
2702.713	17309
2704.615	17354
2706.516	17007
2708.417	17477
2710.316	17129
2712.216	17216
2714.115	17297
2716.014	17248
2717.913	17087
2719.81	17492
2721.707	16910
2723.603	17083
2725.501	17216
2727.396	17085
2729.292	16913
2731.186	17211
2733.081	17110
2734.976	17182
2736.87	17210
2738.762	17056
2740.653	17189
2742.546	17060
2744.437	17080
2746.329	17050
2748.22	17100
2750.11	17048
2751.999	17031
2753.889	17120
2755.778	16794
2757.666	16930
2759.553	16927
2761.44	16801
2763.328	16880
2765.215	17087
2767.101	16869
2768.986	16996
2770.87	16801
2772.754	17003
2774.638	16878
2776.523	16877
2778.405	16727
2780.288	16804
2782.17	16819
2784.051	16731
2785.934	16813
2787.814	16908
2789.694	17029
2791.574	16843
2793.453	16683
2795.332	17034
2797.212	16623
2799.088	16815
2800.966	16922
2802.843	16777
2804.719	16579
2806.597	16864
2808.471	16615
2810.346	16749
2812.221	16693
2814.094	16964
2815.969	16560
2817.843	16619
2819.714	16686
2821.587	16582
2823.459	16906
2825.329	16541
2827.202	16463
2829.072	16590
2830.942	16591
2832.811	16513
2834.68	16597
2836.549	16694
2838.418	16518
2840.284	16785
2842.152	16628
2844.018	16522
2845.885	16597
2847.751	16716
2849.616	16697
2851.482	16450
2853.345	16659
2855.208	16633
2857.074	16641
2858.937	16764
2860.799	16607
2862.66	16823
2864.522	16701
2866.385	16613
2868.245	16667
2870.104	16834
2871.964	16678
2873.824	16707
2875.683	16919
2877.542	16944
2879.4	17065
2881.257	16881
2883.114	16837
2884.97	16955
2886.827	16758
2888.683	16841
2890.537	17000
2892.392	16895
2894.246	16821
2896.1	16736
2897.954	16845
2899.807	16710
2901.66	17040
2903.51	16957
2905.362	16845
2907.214	16853
2909.065	16739
2910.915	17022
2912.765	16822
2914.613	16967
2916.463	16943
2918.311	16952
2920.158	16836
2922.006	17043
2923.853	17203
2925.698	17205
2927.546	17225
2929.392	16978
2931.236	17340
2933.081	17113
2934.924	17326
2936.77	17306
2938.613	17183
2940.455	17312
2942.298	17435
2944.139	17439
2945.982	17587
2947.823	17415
2949.662	17406
2951.503	17151
2953.342	17242
2955.182	17058
2957.021	17194
2958.858	17298
2960.697	17050
2962.534	16973
2964.37	17035
2966.207	16997
2968.044	16961
2969.879	16660
2971.714	16762
2973.548	16678
2975.383	16629
2977.218	16514
2979.051	16644
2980.883	16478
2982.715	16087
2984.547	16379
2986.379	16541
2988.21	16424
2990.04	16235
2991.87	16405
2993.7	16104
2995.53	16335
2997.359	16193
2999.187	16191
3001.015	15941
3002.842	15909
3004.669	15758
3006.497	15940
3008.323	15972
3010.148	15930
3011.974	15706
3013.797	15949
3015.623	15639
3017.447	15883
3019.27	15809
3021.094	15913
3022.915	15683
3024.737	15757
3026.56	15677
3028.38	15647
3030.201	15626
3032.022	15610
3033.84	15430
3035.662	15517
3037.481	15458
3039.298	15489
3041.117	15528
3042.933	15426
3044.752	15554
3046.568	15576
3048.385	15506
3050.2	15448
3052.016	15486
3053.83	15399
3055.646	15535
3057.46	15249
3059.272	15412
3061.086	15479
3062.898	15360
3064.711	15385
3066.524	15301
3068.335	15293
3070.145	15287
3071.956	15241
3073.766	15283
3075.576	15103
3077.385	15111
3079.193	15127
3081.002	15163
3082.81	14903
3084.618	15079
3086.425	15232
3088.231	15139
3090.036	15163
3091.842	15208
3093.648	14927
3095.452	15005
3097.257	14968
3099.06	15065
3100.863	14919
3102.666	14921
3104.47	14943
3106.272	14706
3108.073	14922
3109.875	14891
3111.676	14927
3113.477	14757
3115.277	14741
3117.077	14908
3118.874	14715
3120.673	14701
3122.473	14608
3124.271	14816
3126.066	14704
3127.863	14617
3129.66	14676
3131.456	14597
3133.252	14542
3135.047	14575
3136.842	14633
3138.635	14525
3140.429	14715
3142.223	14619
3144.016	14798
3145.808	14443
3147.6	14499
3149.392	14666
3151.183	14498
3152.975	14769
3154.765	14542
3156.553	14437
3158.344	14528
3160.132	14455
3161.922	14348
3163.71	14505
3165.497	14254
3167.285	14433
3169.071	14413
3170.858	14399
3172.645	14309
3174.429	14494
3176.214	14054
3177.998	14241
3179.783	14352
3181.568	14488
3183.351	14378
3185.133	14164
3186.915	14216
3188.698	14248
3190.481	14116
3192.261	14080
3194.042	14268
3195.822	14145
3197.601	14054
3199.381	14052
3201.161	14033
3202.939	14037
3204.717	13879
3206.495	14132
3208.272	14029
3210.05	14017
3211.826	14047
3213.602	13983
3215.376	13846
3217.151	14097
3218.927	13919
3220.702	13950
3222.476	13974
3224.249	13972
3226.021	14022
3227.793	13873
3229.567	14049
3231.339	13900
3233.109	13954
3234.88	13724
3236.651	14083
3238.421	13851
3240.191	13862
3241.96	13805
3243.728	13850
3245.497	13826
3247.263	13947
3249.033	13874
3250.799	13875
3252.566	13911
3254.331	13813
3256.097	13898
3257.863	13803
3259.628	13872
3261.392	13800
3263.156	13815
3264.919	13706
3266.683	13773
3268.447	13961
3270.208	13753
3271.969	13737
3273.731	13753
3275.492	13659
3277.253	13799
3279.013	13789
3280.773	13674
3282.532	13921
3284.291	13645
3286.05	13854
3287.808	13573
3289.566	13734
3291.323	13688
3293.079	13847
3294.835	13769
3296.593	13715
3298.348	13648
3300.102	13728
3301.857	13733
3303.611	13855
3305.366	13730
3307.119	13566
3308.872	13603
3310.624	13736
3312.376	13712
3314.129	13718
3315.881	13689
3317.631	13523
3319.38	13519
3321.13	13673
3322.88	13667
3324.631	13737
3326.379	13542
3328.126	13627
3329.875	13591
3331.622	13467
3333.371	13379
3335.116	13425
3336.863	13420
3338.609	13548
3340.353	13396
3342.1	13654
3343.845	13469
3345.588	13460
3347.332	13294
3349.074	13255
3350.817	13388
3352.56	13491
3354.303	13373
3356.043	13327
3357.785	13432
3359.525	13422
3361.268	13264
3363.007	13338
3364.745	13277
3366.485	13370
3368.223	13221
3369.962	13143
3371.701	13303
3373.438	13348
3375.174	13169
3376.911	13242
3378.647	13220
3380.384	13294
3382.118	13286
3383.854	13234
3385.588	13025
3387.322	13232
3389.057	13205
3390.79	13160
3392.522	13119
3394.255	13024
3395.987	13160
3397.719	13245
3399.451	13127
3401.181	13158
3402.911	12966
3404.641	13140
3406.371	12969
3408.101	13025
3409.83	13225
3411.558	12909
3413.285	12979
3415.011	12982
3416.739	13067
3418.467	12915
3420.193	13026
3421.919	12871
3423.644	13017
3425.368	12956
3427.094	12879
3428.818	12932
3430.542	13080
3432.264	13019
3433.987	12999
3435.712	12714
3437.434	12874
3439.155	12841
3440.876	12713
3442.596	12843
3444.317	12745
3446.039	12830
3447.757	12659
3449.477	12610
3451.195	12675
3452.914	12807
3454.632	12682
3456.35	12762
3458.067	12582
3459.784	12763
3461.5	12607
3463.216	12519
3464.932	12522
3466.647	12634
3468.362	12563
3470.076	12662
3471.789	12484
3473.505	12665
3475.217	12597
3476.929	12389
3478.641	12479
3480.354	12427
3482.066	12529
3483.777	12398
3485.487	12151
3487.197	12344
3488.908	12329
3490.617	12195
3492.327	12357
3494.035	12362
3495.743	12425
3497.451	12282
3499.158	12382
3500.866	12253
3502.572	12453
3504.278	12369
3505.984	12402
3507.689	12221
3509.396	12323
3511.1	12119
3512.804	12338
3514.508	12140
3516.211	12223
3517.913	12380
3519.616	12054
3521.319	12146
3523.021	12236
3524.722	12102
3526.422	12025
3528.124	12204
3529.824	12190
3531.524	12025
3533.222	12231
3534.921	12068
3536.62	12066
3538.318	12008
3540.016	12063
3541.714	12111
3543.41	11972
3545.107	12077
3546.803	12070
3548.5	11907
3550.194	11970
3551.889	11987
3553.583	11971
3555.279	11939
3556.972	12061
3558.666	12037
3560.358	11861
3562.051	11971
3563.742	11966
3565.435	11951
3567.126	11956
3568.817	11859
3570.507	11769
3572.197	11797
3573.888	11983
3575.577	11810
3577.265	11798
3578.954	11885
3580.642	11797
3582.329	11681
3584.017	11622
3585.704	11833
3587.391	11636
3589.077	11782
3590.762	11777
3592.449	11802
3594.133	11667
3595.817	11743
3597.501	11797
3599.185	11556
3600.869	11596
3602.552	11479
3604.234	11586
3605.916	11715
3607.598	11521
3609.279	11494
3610.961	11459
3612.642	11729
3614.321	11448
3616	11598
3617.68	11625
3619.36	11529
3621.039	11493
3622.716	11448
3624.394	11537
3626.071	11485
3627.748	11401
3629.425	11295
3631.102	11525
3632.778	11469
3634.452	11261
3636.127	11302
3637.803	11363
3639.477	11310
3641.151	11280
3642.823	11258
3644.497	11277
3646.171	11214
3647.842	11242
3649.515	11295
3651.185	11193
3652.857	11024
3654.527	11192
3656.198	11197
3657.868	10994
3659.537	11325
3661.207	11097
3662.875	10978
3664.544	11062
3666.212	11213
3667.879	11177
3669.546	11205
3671.212	10938
3672.88	11117
3674.546	11170
3676.211	11033
3677.875	11049
3679.541	11010
3681.205	11255
3682.87	11020
3684.533	11009
3686.196	11081
3687.859	11066
3689.521	11064
3691.184	11007
3692.845	10937
3694.507	10870
3696.167	10876
3697.827	11043
3699.487	10960
3701.148	11087
3702.808	10882
3704.466	10920
3706.125	10942
3707.783	10830
3709.442	10870
3711.099	10905
3712.757	10887
3714.412	10848
3716.068	10783
3717.725	10905
3719.381	10957
3721.036	10768
3722.689	10846
3724.344	10824
3725.998	10842
3727.652	10637
3729.305	10906
3730.958	10834
3732.61	10669
3734.262	10771
3735.915	10636
3737.565	10768
3739.217	10635
3740.866	10665
3742.516	10838
3744.165	10760
3745.816	10692
3747.464	10804
3749.113	10726
3750.761	10515
3752.409	10713
3754.057	10744
3755.703	10652
3757.35	10661
3758.996	10538
3760.641	10660
3762.289	10632
3763.933	10542
3765.577	10744
3767.222	10535
3768.865	10571
3770.508	10441
3772.152	10579
3773.796	10435
3775.438	10427
3777.079	10530
3778.721	10510
3780.363	10486
3782.003	10426
3783.643	10579
3785.283	10588
3786.923	10352
3788.563	10401
3790.203	10350
3791.841	10383
3793.479	10323
3795.115	10323
3796.753	10365
3798.391	10396
3800.027	10190
3801.664	10395
3803.299	10296
3804.935	10300
3806.571	10136
3808.206	10212
3809.839	10233
3811.473	10291
3813.107	10035
3814.74	10163
3816.375	10135
3818.006	10245
3819.638	10116
3821.27	10101
3822.9	10075
3824.532	10124
3826.163	10198
3827.792	10043
3829.423	10215
3831.051	9990
3832.682	10153
3834.311	10169
3835.938	10090
3837.566	10113
3839.193	10048
3840.821	10165
3842.448	10081
3844.075	10113
3845.7	9987
3847.325	9923
3848.951	9955
3850.576	9926
3852.201	10024
3853.825	9920
3855.448	10022
3857.072	9994
3858.694	9852
3860.318	9971
3861.939	9907
3863.562	9866
3865.183	9943
3866.804	9928
3868.426	9826
3870.045	9863
3871.666	9926
3873.285	9917
3874.904	9837
3876.524	9799
3878.142	9733
3879.76	9833
3881.378	9783
3882.995	9862
3884.612	9793
3886.229	9677
3887.845	9829
3889.461	9845
3891.076	9730
3892.691	9794
3894.307	9877
3895.922	9742
3897.536	9734
3899.149	9820
3900.761	9656
3902.374	9702
3903.988	9753
3905.6	9646
3907.212	9872
3908.822	9686
3910.433	9601
3912.045	9605
3913.655	9769
3915.265	9598
3916.875	9784
3918.483	9727
3920.093	9713
3921.702	9565
3923.309	9650
3924.917	9501
3926.523	9563
3928.13	9586
3929.739	9684
3931.344	9507
3932.95	9680
3934.555	9707
3936.159	9535
3937.766	9625
3939.369	9615
3940.974	9525
3942.577	9520
3944.181	9569
3945.783	9395
3947.386	9699
3948.989	9521
3950.59	9556
3952.191	9673
3953.791	9465
3955.394	9403
3956.994	9408
3958.593	9567
3960.192	9341
3961.791	9384
3963.392	9481
3964.99	9283
3966.588	9429
3968.185	9361
3969.782	9455
3971.379	9279
3972.976	9256
3974.572	9285
3976.168	9400
3977.763	9242
3979.358	9321
3980.954	9160
3982.548	9340
3984.142	9221
3985.736	9305
3987.329	9192
3988.922	9322
3990.516	9193
3992.108	9150
3993.698	9272
3995.29	9199
3996.881	9199
3998.473	9150
4000.064	9005
4001.653	9138
4003.242	8958
4004.832	9185
4006.422	8952
4008.01	8959
4009.598	8984
4011.186	9092
4012.773	9058
4014.36	9007
4015.947	8849
4017.534	8998
4019.119	8941
4020.705	8905
4022.291	9030
4023.876	8935
4025.461	8914
4027.044	8912
4028.627	8905
4030.211	8824
4031.795	8813
4033.378	8839
4034.96	8887
4036.542	8819
4038.124	8714
4039.704	8794
4041.286	8874
4042.867	8924
4044.447	8790
4046.026	8690
4047.606	8809
4049.187	8765
4050.765	8706
4052.343	8809
4053.92	8600
4055.498	8662
4057.076	8676
4058.654	8758
4060.23	8605
4061.806	8709
4063.381	8616
4064.957	8590
4066.533	8613
4068.107	8802
4069.682	8566
4071.256	8660
4072.829	8581
4074.404	8604
4075.977	8569
4077.549	8710
4079.121	8549
4080.693	8579
4082.265	8480
4083.836	8497
4085.407	8650
4086.977	8702
4088.547	8539
4090.117	8634
4091.687	8461
4093.256	8378
4094.825	8481
4096.392	8515
4097.96	8386
4099.528	8489
4101.097	8469
4102.663	8460
4104.229	8458
4105.795	8597
4107.361	8514
4108.928	8429
4110.493	8422
4112.058	8522
4113.621	8367
4115.186	8364
4116.75	8390
4118.313	8526
4119.876	8322
4121.438	8381
4123	8367
4124.562	8284
4126.125	8290
4127.686	8167
4129.246	8293
4130.807	8321
4132.367	8274
4133.927	8332
4135.486	8149
4137.046	8136
4138.604	8192
4140.162	8187
4141.72	8188
4143.279	8060
4144.836	8184
4146.393	8187
4147.949	8087
4149.505	8113
4151.062	8201
4152.617	8096
4154.172	8061
4155.727	8031
4157.281	8206
4158.836	8029
4160.39	8033
4161.943	8146
4163.496	8163
4165.048	7996
4166.601	8038
4168.154	7922
4169.706	8104
4171.257	8133
4172.808	8009
4174.358	8006
4175.909	8039
4177.458	7938
4179.008	7907
4180.558	7904
4182.106	7870
4183.655	7802
4185.204	7847
4186.751	7907
4188.298	7791
4189.845	7755
4191.392	7891
4192.939	7778
4194.485	7821
4196.031	7884
4197.576	7893
4199.121	7787
4200.666	7826
4202.211	7716
4203.754	7710
4205.298	7655
4206.84	7876
4208.384	7717
4209.927	7725
4211.47	7669
4213.011	7823
4214.552	7724
4216.094	7678
4217.635	7677
4219.175	7677
4220.716	7715
4222.255	7778
4223.793	7745
4225.335	7664
4226.873	7571
4228.411	7712
4229.948	7779
4231.486	7665
4233.024	7671
4234.562	7734
4236.098	7476
4237.634	7579
4239.169	7562
4240.705	7748
4242.241	7636
4243.776	7534
4245.31	7578
4246.844	7458
4248.378	7536
4249.911	7687
4251.445	7545
4252.978	7543
4254.51	7596
4256.042	7464
4257.574	7572
4259.107	7530
4260.638	7534
4262.169	7514
4263.699	7552
4265.228	7433
4266.759	7506
4268.289	7513
4269.818	7542
4271.345	7458
4272.874	7431
4274.402	7396
4275.931	7447
4277.458	7337
4278.985	7506
4280.512	7358
4282.037	7401
4283.564	7422
4285.089	7272
4286.615	7439
4288.139	7321
4289.664	7343
4291.187	7198
4292.712	7410
4294.235	7466
4295.759	7401
4297.281	7359
4298.804	7346
4300.327	7258
4301.849	7296
4303.37	7459
4304.891	7347
4306.412	7333
4307.933	7292
4309.453	7310
4310.973	7077
4312.492	7051
