398.1873	3039
400.7097	3018
403.2336	3059
405.7547	3114
408.2751	3094
410.7948	3079
413.3138	3079
415.83	3181
418.3497	3185
420.8666	3134
423.3829	3250
425.8985	3226
428.4133	3317
430.9275	3278
433.441	3285
435.9538	3281
438.4639	3278
440.9753	3306
443.4881	3307
445.9982	3311
448.5055	3357
451.0142	3286
453.5201	3210
456.0274	3327
458.5361	3241
461.04	3305
463.5453	3230
466.0478	3300
468.5517	3211
471.0549	3308
473.5574	3327
476.0572	3244
478.5584	3337
481.0568	3297
483.5545	3331
486.0557	3327
488.5521	3371
491.0478	3351
493.5449	3427
496.0392	3347
498.5349	3352
501.0299	3329
503.5222	3326
506.0139	3349
508.5048	3428
510.9991	3360
513.4887	3422
515.9777	3460
518.4659	3440
520.9534	3385
523.4403	3324
525.9306	3435
528.4161	3427
530.9009	3388
533.3851	3408
535.8687	3433
538.3535	3322
540.8356	3432
543.3171	3347
545.7979	3381
548.278	3407
550.7595	3335
553.2383	3422
555.7144	3449
558.1918	3416
560.6685	3445
563.1446	3473
565.6221	3452
568.0968	3447
570.5688	3384
573.0422	3547
575.515	3469
577.989	3568
580.4584	3418
582.9291	3541
585.3991	3559
587.8685	3461
590.3352	3478
592.8052	3504
595.2706	3513
597.7372	3498
600.2033	3538
602.6666	3466
605.1334	3445
607.5953	3526
610.0587	3466
612.5193	3463
614.9814	3454
617.4427	3562
619.9034	3527
622.3615	3399
624.8208	3485
627.2775	3492
629.7335	3472
632.1929	3501
634.6476	3562
637.1016	3515
639.5569	3462
642.0096	3522
644.4637	3484
646.9151	3534
649.3678	3559
651.8179	3434
654.2672	3434
656.7159	3586
659.166	3490
661.6154	3614
664.0622	3591
666.5082	3613
668.9537	3546
671.4005	3547
673.8445	3545
676.288	3583
678.7308	3574
681.1729	3582
683.6163	3580
686.0572	3671
688.4973	3642
690.9368	3639
693.3757	3642
695.8138	3626
698.2534	3644
700.6902	3673
703.1245	3672
705.56	3606
707.9949	3621
710.4311	3764
712.8647	3642
715.2957	3672
717.7279	3703
720.1595	3672
722.5905	3713
725.0208	3718
727.4505	3599
729.8795	3700
732.3058	3787
734.7336	3753
737.1626	3763
739.587	3757
742.0128	3698
744.4359	3710
746.8604	3734
749.2841	3772
751.7073	3794
754.1278	3893
756.5496	3822
758.9688	3886
761.3893	3804
763.8093	3824
766.2285	3858
768.6451	3866
771.0611	3817
773.4784	3853
775.895	3918
778.3091	3897
780.7244	3905
783.1371	3848
785.5493	3973
787.9626	3813
790.3754	3865
792.7856	3837
795.1951	3887
797.6039	3797
800.0121	3846
802.4236	3783
804.8306	3880
807.2369	3843
809.6425	3799
812.0475	3954
814.4538	3889
816.8575	3935
819.2606	3882
821.663	3903
824.0648	3858
826.4659	3820
828.8683	3965
831.2682	3900
833.6674	3882
836.066	3924
838.4639	3849
840.8632	3991
843.2579	3916
845.6539	4054
848.0493	3933
850.444	4005
852.84	3971
855.2315	3895
857.6243	3985
860.0165	3994
862.4081	3940
864.797	3982
867.1892	3983
869.5789	3977
871.9659	4021
874.3542	4037
876.74	3930
879.129	3967
881.5155	3973
883.8994	4014
886.2845	3924
888.6671	4011
891.051	4021
893.4343	3993
895.8169	3987
898.197	4042
900.5783	3945
902.9571	4011
905.3372	4077
907.7167	4074
910.0936	4067
912.4698	4023
914.8474	4005
917.2244	4079
919.5987	4076
921.9744	4162
924.3475	4156
926.72	4098
929.0918	4087
931.4669	4175
933.8375	4169
936.2074	4193
938.5767	4300
940.9454	4241
943.3154	4224
945.6829	4327
948.0497	4332
950.4178	4426
952.7833	4635
955.1483	4735
957.5145	4875
959.8782	4925
962.2412	4852
964.6036	4755
966.9655	4635
969.3266	4574
971.6871	4378
974.0471	4284
976.4064	4240
978.765	4123
981.125	4103
983.4824	4130
985.8373	4083
988.1935	4110
990.549	4121
992.9039	4129
995.2602	4111
997.6119	4159
999.965	4146
1002.317	4150
1004.667	4093
1007.02	4187
1009.371	4166
1011.719	4122
1014.068	4101
1016.415	4124
1018.765	4159
1021.111	4142
1023.458	4133
1025.804	4225
1028.147	4229
1030.49	4214
1032.837	4139
1035.179	4144
1037.522	4132
1039.862	4211
1042.204	4234
1044.546	4269
1046.884	4257
1049.224	4225
1051.562	4143
1053.899	4238
1056.237	4277
1058.575	4207
1060.91	4163
1063.244	4319
1065.58	4179
1067.913	4307
1070.248	4328
1072.579	4288
1074.911	4342
1077.242	4268
1079.572	4281
1081.905	4282
1084.234	4294
1086.562	4234
1088.89	4193
1091.217	4244
1093.544	4222
1095.871	4254
1098.197	4278
1100.521	4288
1102.845	4168
1105.169	4243
1107.491	4147
1109.814	4224
1112.135	4269
1114.456	4251
1116.776	4233
1119.096	4231
1121.415	4228
1123.734	4203
1126.052	4321
1128.369	4294
1130.686	4258
1133.002	4297
1135.318	4173
1137.632	4282
1139.945	4229
1142.258	4244
1144.573	4284
1146.884	4226
1149.196	4286
1151.505	4259
1153.816	4301
1156.124	4243
1158.435	4302
1160.742	4340
1163.051	4287
1165.356	4282
1167.663	4348
1169.97	4284
1172.276	4274
1174.579	4261
1176.881	4287
1179.186	4311
1181.487	4345
1183.79	4300
1186.092	4344
1188.392	4083
1190.691	4271
1192.991	4279
1195.291	4205
1197.588	4307
1199.885	4314
1202.181	4258
1204.479	4355
1206.775	4266
1209.07	4261
1211.363	4293
1213.656	4343
1215.949	4330
1218.241	4290
1220.534	4380
1222.825	4357
1225.115	4373
1227.405	4375
1229.693	4432
1231.984	4340
1234.271	4420
1236.558	4369
1238.845	4372
1241.131	4467
1243.416	4427
1245.703	4404
1247.987	4403
1250.269	4428
1252.552	4388
1254.834	4509
1257.118	4385
1259.399	4415
1261.678	4434
1263.958	4456
1266.237	4475
1268.516	4385
1270.794	4449
1273.072	4404
1275.347	4489
1277.624	4451
1279.899	4407
1282.175	4403
1284.449	4394
1286.722	4418
1288.995	4461
1291.266	4320
1293.54	4378
1295.81	4452
1298.081	4460
1300.35	4343
1302.62	4341
1304.889	4502
1307.156	4386
1309.425	4329
1311.69	4336
1313.957	4489
1316.222	4362
1318.488	4436
1320.751	4452
1323.016	4374
1325.278	4335
1327.54	4409
1329.803	4469
1332.065	4417
1334.325	4362
1336.584	4425
1338.843	4454
1341.101	4397
1343.36	4404
1345.617	4402
1347.876	4456
1350.131	4445
1352.387	4501
1354.643	4363
1356.897	4440
1359.151	4418
1361.403	4461
1363.656	4383
1365.909	4430
1368.16	4433
1370.409	4456
1372.659	4382
1374.909	4410
1377.157	4422
1379.407	4534
1381.655	4562
1383.9	4437
1386.147	4361
1388.393	4534
1390.64	4508
1392.885	4514
1395.127	4482
1397.37	4589
1399.614	4550
1401.854	4472
1404.098	4511
1406.339	4556
1408.578	4545
1410.818	4570
1413.056	4427
1415.297	4532
1417.533	4603
1419.771	4543
1422.006	4573
1424.243	4553
1426.479	4439
1428.715	4590
1430.948	4563
1433.182	4557
1435.414	4640
1437.647	4636
1439.88	4569
1442.11	4598
1444.342	4601
1446.571	4624
1448.799	4559
1451.029	4656
1453.258	4724
1455.485	4693
1457.711	4652
1459.937	4692
1462.164	4578
1464.39	4619
1466.614	4530
1468.838	4604
1471.06	4571
1473.283	4610
1475.506	4637
1477.727	4655
1479.949	4600
1482.169	4516
1484.389	4526
1486.609	4495
1488.828	4482
1491.045	4553
1493.261	4385
1495.477	4472
1497.693	4495
1499.91	4547
1502.125	4497
1504.339	4453
1506.553	4500
1508.766	4436
1510.979	4476
1513.191	4435
1515.402	4462
1517.613	4515
1519.823	4427
1522.033	4596
1524.242	4444
1526.451	4445
1528.657	4433
1530.865	4520
1533.072	4530
1535.278	4417
1537.484	4568
1539.687	4508
1541.892	4529
1544.096	4445
1546.299	4577
1548.502	4598
1550.703	4519
1552.905	4591
1555.104	4589
1557.303	4630
1559.505	4511
1561.703	4649
1563.902	4545
1566.099	4572
1568.295	4528
1570.494	4607
1572.689	4687
1574.883	4639
1577.079	4641
1579.272	4551
1581.467	4654
1583.659	4601
1585.853	4620
1588.044	4562
1590.234	4613
1592.424	4655
1594.615	4605
1596.806	4684
1598.994	4710
1601.182	4724
1603.369	4761
1605.557	4639
1607.744	4653
1609.929	4706
1612.114	4692
1614.298	4636
1616.482	4644
1618.667	4762
1620.85	4721
1623.032	4678
1625.214	4538
1627.395	4637
1629.575	4778
1631.755	4749
1633.935	4697
1636.114	4787
1638.292	4630
1640.471	4835
1642.647	4781
1644.823	4739
1647	4738
1649.175	4736
1651.348	4602
1653.525	4735
1655.698	4757
1657.87	4844
1660.043	4793
1662.213	4867
1664.387	4748
1666.558	4813
1668.727	4682
1670.896	4739
1673.064	4713
1675.233	4833
1677.401	4711
1679.569	4807
1681.735	4738
1683.902	4718
1686.066	4823
1688.233	4712
1690.397	4641
1692.559	4724
1694.723	4687
1696.885	4629
1699.048	4684
1701.21	4676
1703.37	4642
1705.53	4651
1707.689	4705
1709.849	4699
1712.009	4687
1714.166	4662
1716.323	4695
1718.479	4724
1720.634	4700
1722.793	4727
1724.948	4723
1727.102	4650
1729.255	4658
1731.408	4615
1733.562	4766
1735.714	4645
1737.865	4597
1740.016	4703
1742.166	4722
1744.316	4706
1746.467	4768
1748.616	4775
1750.764	4685
1752.911	4711
1755.056	4674
1757.205	4678
1759.35	4726
1761.496	4724
1763.641	4710
1765.785	4688
1767.927	4769
1770.072	4769
1772.214	4742
1774.355	4849
1776.496	4750
1778.637	4778
1780.778	4729
1782.918	4758
1785.057	4762
1787.194	4754
1789.333	4732
1791.472	4794
1793.608	4781
1795.745	4837
1797.879	4688
1800.015	4640
1802.148	4737
1804.284	4782
1806.417	4801
1808.548	4836
1810.682	4712
1812.812	4800
1814.946	4761
1817.075	4779
1819.205	4767
1821.335	4775
1823.463	4833
1825.59	4750
1827.721	4790
1829.847	4721
1831.973	4800
1834.098	4732
1836.223	4703
1838.351	4823
1840.475	4706
1842.598	4786
1844.721	4754
1846.843	4787
1848.966	4838
1851.087	4774
1853.21	4818
1855.33	4723
1857.449	4736
1859.568	4732
1861.688	4726
1863.806	4765
1865.924	4768
1868.039	4723
1870.155	4831
1872.273	4726
1874.388	4872
1876.503	4759
1878.617	4785
1880.73	4719
1882.844	4680
1884.956	4761
1887.068	4787
1889.18	4761
1891.291	4736
1893.4	4755
1895.511	4882
1897.621	4830
1899.73	4818
1901.837	4786
1903.944	4720
1906.053	4832
1908.159	4847
1910.265	4868
1912.369	4884
1914.474	4886
1916.577	4810
1918.683	4812
1920.785	4876
1922.888	4783
1924.989	4863
1927.091	4881
1929.193	4885
1931.294	4866
1933.393	4839
1935.493	4908
1937.59	4819
1939.689	4801
1941.788	4888
1943.884	4849
1945.98	4854
1948.077	4936
1950.171	4851
1952.267	4893
1954.361	4855
1956.455	4844
1958.548	4859
1960.64	4899
1962.733	4852
1964.824	4849
1966.915	4884
1969.005	4856
1971.096	4822
1973.185	4916
1975.275	4769
1977.363	4871
1979.45	4806
1981.537	4841
1983.623	4711
1985.711	4819
1987.796	4729
1989.881	4910
1991.965	4942
1994.047	4884
1996.132	4903
1998.215	4690
2000.297	4835
2002.378	4810
2004.46	4851
2006.54	4797
2008.62	4751
2010.7	4863
2012.779	4817
2014.858	4862
2016.934	4700
2019.013	4816
2021.09	4803
2023.165	4859
2025.241	4814
2027.317	4766
2029.39	4824
2031.466	4838
2033.538	4800
2035.612	4861
2037.683	4796
2039.755	4833
2041.827	4954
2043.898	4791
2045.968	4828
2048.038	4887
2050.106	4949
2052.177	4879
2054.244	4885
2056.313	4865
2058.379	4838
2060.444	4849
2062.511	4889
2064.577	4740
2066.641	4904
2068.705	4854
2070.77	4833
2072.832	4875
2074.896	4820
2076.958	4860
2079.02	4948
2081.081	4974
2083.141	4892
2085.2	4917
2087.261	4950
2089.319	4804
2091.377	4906
2093.435	4939
2095.492	4881
2097.552	4981
2099.607	4886
2101.663	4861
2103.718	4908
2105.771	4978
2107.826	4896
2109.879	4811
2111.932	4826
2113.985	4890
2116.037	4941
2118.088	4818
2120.141	4903
2122.191	4845
2124.239	4829
2126.288	4903
2128.337	4897
2130.387	4824
2132.434	4866
2134.481	4861
2136.528	4830
2138.574	4910
2140.618	4885
2142.665	4973
2144.71	4856
2146.753	4932
2148.797	4811
2150.838	4905
2152.883	4846
2154.923	4871
2156.965	4860
2159.007	4812
2161.046	4875
2163.086	4870
2165.126	4868
2167.163	4837
2169.202	4860
2171.239	4874
2173.277	4909
2175.314	4799
2177.349	4816
2179.385	4865
2181.42	4835
2183.453	4821
2185.49	4870
2187.522	4808
2189.555	4832
2191.586	4927
2193.619	4751
2195.651	4826
2197.682	4810
2199.711	4910
2201.74	4891
2203.769	4832
2205.799	4795
2207.828	4852
2209.855	4727
2211.882	4820
2213.908	4833
2215.934	4813
2217.961	4835
2219.986	4803
2222.01	4738
2224.034	4785
2226.057	4787
2228.08	4883
2230.104	4912
2232.124	4811
2234.145	4697
2236.166	4763
2238.186	4786
2240.207	4840
2242.227	4769
2244.244	4866
2246.262	4728
2248.28	4819
2250.299	4822
2252.314	4859
2254.33	4842
2256.346	4821
2258.36	4778
2260.375	4899
2262.391	4851
2264.403	4807
2266.416	4876
2268.427	4733
2270.44	4799
2272.453	4757
2274.463	4854
2276.474	4806
2278.483	4887
2280.493	4813
2282.501	4883
2284.51	4820
2286.518	4846
2288.524	4785
2290.532	4894
2292.537	4938
2294.544	4841
2296.55	4885
2298.554	4853
2300.557	4773
2302.562	4945
2304.566	4791
2306.568	4869
2308.569	4858
2310.572	4843
2312.573	4748
2314.573	4841
2316.574	4811
2318.573	4785
2320.571	4736
2322.571	4761
2324.569	4812
2326.567	4801
2328.564	4907
2330.56	4760
2332.556	4770
2334.551	4744
2336.546	4744
2338.542	4712
2340.535	4903
2342.529	4788
2344.521	4803
2346.512	4710
2348.505	4768
2350.497	4759
2352.487	4788
2354.478	4732
2356.468	4690
2358.457	4843
2360.446	4808
2362.434	4758
2364.422	4806
2366.408	4883
2368.395	4703
2370.383	4761
2372.369	4726
2374.353	4880
2376.338	4724
2378.321	4784
2380.307	4776
2382.29	4792
2384.272	4784
2386.254	4813
2388.235	4720
2390.218	4740
2392.198	4782
2394.179	4673
2396.157	4790
2398.137	4874
2400.115	4765
2402.095	4698
2404.072	4756
2406.048	4709
2408.026	4669
2410.001	4781
2411.977	4734
2413.953	4735
2415.927	4717
2417.9	4882
2419.875	4720
2421.847	4832
2423.821	4753
2425.792	4819
2427.763	4830
2429.736	4676
2431.706	4743
2433.677	4740
2435.646	4741
2437.615	4747
2439.583	4698
2441.551	4717
2443.519	4780
2445.486	4666
2447.452	4754
2449.418	4721
2451.383	4682
2453.348	4678
2455.314	4750
2457.278	4679
2459.241	4771
2461.205	4758
2463.167	4626
2465.131	4661
2467.091	4748
2469.052	4697
2471.012	4682
2472.972	4689
2474.932	4773
2476.891	4776
2478.85	4761
2480.808	4729
2482.766	4738
2484.722	4711
2486.68	4767
2488.636	4713
2490.591	4724
2492.546	4661
2494.5	4718
2496.456	4670
2498.41	4783
2500.362	4679
2502.315	4663
2504.266	4697
2506.218	4800
2508.169	4710
2510.121	4616
2512.07	4739
2514.019	4645
2515.968	4696
2517.918	4670
2519.866	4738
2521.813	4686
2523.76	4666
2525.707	4616
2527.653	4679
2529.599	4750
2531.543	4694
2533.489	4706
2535.433	4601
2537.376	4658
2539.32	4779
2541.264	4740
2543.205	4702
2545.147	4740
2547.087	4625
2549.029	4717
2550.969	4650
2552.908	4658
2554.847	4692
2556.786	4692
2558.724	4672
2560.663	4658
2562.6	4664
2564.537	4734
2566.473	4629
2568.408	4649
2570.345	4704
2572.28	4745
2574.214	4743
2576.148	4713
2578.081	4692
2580.014	4650
2581.947	4717
2583.879	4705
2585.81	4740
2587.741	4674
2589.67	4649
2591.602	4787
2593.532	4747
2595.461	4636
2597.388	4732
2599.316	4721
2601.244	4705
2603.172	4728
2605.098	4764
2607.023	4702
2608.949	4692
2610.873	4728
2612.8	4790
2614.723	4612
2616.647	4762
2618.569	4694
2620.493	4733
2622.416	4707
2624.338	4698
2626.258	4758
2628.179	4670
2630.099	4741
2632.019	4786
2633.939	4729
2635.857	4720
2637.775	4756
2639.694	4782
2641.61	4765
2643.528	4781
2645.444	4723
2647.361	4724
2649.276	4771
2651.19	4688
2653.105	4689
2655.019	4765
2656.934	4758
2658.846	4755
2660.758	4770
2662.67	4712
2664.583	4747
2666.493	4809
2668.404	4810
2670.313	4745
2672.223	4722
2674.134	4716
2676.042	4721
2677.95	4755
2679.858	4668
2681.765	4740
2683.673	4769
2685.579	4741
2687.483	4698
2689.389	4666
2691.294	4662
2693.198	4696
2695.104	4697
2697.006	4834
2698.909	4691
2700.811	4733
2702.713	4609
2704.615	4658
2706.516	4684
2708.417	4702
2710.316	4658
2712.216	4606
2714.115	4626
2716.014	4633
2717.913	4647
2719.81	4622
2721.707	4593
2723.603	4755
2725.501	4646
2727.396	4638
2729.292	4743
2731.186	4723
2733.081	4652
2734.976	4685
2736.87	4584
2738.762	4655
2740.653	4797
2742.546	4673
2744.437	4628
2746.329	4779
2748.22	4727
2750.11	4644
2751.999	4594
2753.889	4738
2755.778	4732
2757.666	4694
2759.553	4675
2761.44	4650
2763.328	4723
2765.215	4632
2767.101	4677
2768.986	4593
2770.87	4627
2772.754	4599
2774.638	4718
2776.523	4655
2778.405	4605
2780.288	4589
2782.17	4660
2784.051	4602
2785.934	4633
2787.814	4602
2789.694	4716
2791.574	4609
2793.453	4677
2795.332	4677
2797.212	4635
2799.088	4658
2800.966	4602
2802.843	4626
2804.719	4656
2806.597	4676
2808.471	4620
2810.346	4593
2812.221	4596
2814.094	4723
2815.969	4620
2817.843	4591
2819.714	4619
2821.587	4654
2823.459	4801
2825.329	4634
2827.202	4749
2829.072	4613
2830.942	4662
2832.811	4568
2834.68	4735
2836.549	4614
2838.418	4587
2840.284	4584
2842.152	4570
2844.018	4614
2845.885	4666
2847.751	4644
2849.616	4617
2851.482	4658
2853.345	4675
2855.208	4747
2857.074	4689
2858.937	4688
2860.799	4679
2862.66	4754
2864.522	4814
2866.385	4723
2868.245	4784
2870.104	4856
2871.964	4899
2873.824	4829
2875.683	4845
2877.542	4899
2879.4	4961
2881.257	4928
2883.114	4969
2884.97	4962
2886.827	4939
2888.683	4906
2890.537	5003
2892.392	5045
2894.246	5026
2896.1	4956
2897.954	4989
2899.807	4859
2901.66	4969
2903.51	4954
2905.362	4890
2907.214	4908
2909.065	5085
2910.915	4983
2912.765	4943
2914.613	4983
2916.463	4972
2918.311	5053
2920.158	5011
2922.006	5035
2923.853	5153
2925.698	5189
2927.546	5094
2929.392	5171
2931.236	5224
2933.081	5332
2934.924	5420
2936.77	5232
2938.613	5349
2940.455	5348
2942.298	5377
2944.139	5451
2945.982	5524
2947.823	5430
2949.662	5385
2951.503	5372
2953.342	5404
2955.182	5303
2957.021	5303
2958.858	5310
2960.697	5213
2962.534	5257
2964.37	5224
2966.207	5132
2968.044	5114
2969.879	5000
2971.714	5034
2973.548	5093
2975.383	5018
2977.218	5003
2979.051	5016
2980.883	5005
2982.715	4970
2984.547	4972
2986.379	4924
2988.21	4909
2990.04	4928
2991.87	4858
2993.7	4789
2995.53	4728
2997.359	4888
2999.187	4772
3001.015	4768
3002.842	4727
3004.669	4697
3006.497	4654
3008.323	4635
3010.148	4624
3011.974	4692
3013.797	4611
3015.623	4506
3017.447	4637
3019.27	4628
3021.094	4675
3022.915	4523
3024.737	4552
3026.56	4526
3028.38	4598
3030.201	4497
3032.022	4600
3033.84	4476
3035.662	4528
3037.481	4586
3039.298	4403
3041.117	4465
3042.933	4470
3044.752	4484
3046.568	4501
3048.385	4564
3050.2	4442
3052.016	4491
3053.83	4413
3055.646	4475
3057.46	4518
3059.272	4479
3061.086	4437
3062.898	4519
3064.711	4467
3066.524	4412
3068.335	4429
3070.145	4378
3071.956	4472
3073.766	4377
3075.576	4408
3077.385	4524
3079.193	4492
3081.002	4494
3082.81	4444
3084.618	4497
3086.425	4419
3088.231	4356
3090.036	4362
3091.842	4387
3093.648	4353
3095.452	4468
3097.257	4336
3099.06	4348
3100.863	4294
3102.666	4399
3104.47	4330
3106.272	4367
3108.073	4432
3109.875	4310
3111.676	4382
3113.477	4376
3115.277	4330
3117.077	4384
3118.874	4364
3120.673	4293
3122.473	4287
3124.271	4293
3126.066	4368
3127.863	4320
3129.66	4317
3131.456	4287
3133.252	4322
3135.047	4302
3136.842	4328
3138.635	4329
3140.429	4324
3142.223	4238
3144.016	4338
3145.808	4316
3147.6	4311
3149.392	4376
3151.183	4232
3152.975	4239
3154.765	4303
3156.553	4292
3158.344	4242
3160.132	4298
3161.922	4351
3163.71	4239
3165.497	4264
3167.285	4243
3169.071	4207
3170.858	4266
3172.645	4239
3174.429	4344
3176.214	4287
3177.998	4310
3179.783	4239
3181.568	4202
3183.351	4232
3185.133	4266
3186.915	4231
3188.698	4269
3190.481	4281
3192.261	4245
3194.042	4287
3195.822	4242
3197.601	4237
3199.381	4238
3201.161	4138
3202.939	4260
3204.717	4243
3206.495	4233
3208.272	4180
3210.05	4219
3211.826	4285
3213.602	4247
3215.376	4257
3217.151	4233
3218.927	4218
3220.702	4187
3222.476	4226
3224.249	4279
3226.021	4263
3227.793	4277
3229.567	4200
3231.339	4271
3233.109	4251
3234.88	4225
3236.651	4273
3238.421	4207
3240.191	4175
3241.96	4204
3243.728	4222
3245.497	4226
3247.263	4216
3249.033	4180
3250.799	4258
3252.566	4169
3254.331	4295
3256.097	4186
3257.863	4178
3259.628	4283
3261.392	4200
3263.156	4236
3264.919	4189
3266.683	4173
3268.447	4239
3270.208	4225
3271.969	4293
3273.731	4244
3275.492	4157
3277.253	4210
3279.013	4232
3280.773	4200
3282.532	4172
3284.291	4191
3286.05	4246
3287.808	4204
3289.566	4214
3291.323	4231
3293.079	4157
3294.835	4187
3296.593	4181
3298.348	4184
3300.102	4221
3301.857	4204
3303.611	4259
3305.366	4153
3307.119	4210
3308.872	4124
3310.624	4242
3312.376	4240
3314.129	4254
3315.881	4174
3317.631	4233
3319.38	4144
3321.13	4219
3322.88	4161
3324.631	4119
3326.379	4240
3328.126	4160
3329.875	4101
3331.622	4237
3333.371	4252
3335.116	4086
3336.863	4144
3338.609	4239
3340.353	4257
3342.1	4194
3343.845	4205
3345.588	4187
3347.332	4144
3349.074	4143
3350.817	4156
3352.56	4119
3354.303	4236
3356.043	4152
3357.785	4144
3359.525	4140
3361.268	4159
3363.007	4133
3364.745	4161
3366.485	4209
3368.223	4183
3369.962	4100
3371.701	4004
3373.438	4202
3375.174	4100
3376.911	4173
3378.647	4101
3380.384	4175
3382.118	4072
3383.854	4107
3385.588	4099
3387.322	4103
3389.057	4097
3390.79	4130
3392.522	4084
3394.255	3975
3395.987	4131
3397.719	4006
3399.451	4072
3401.181	4128
3402.911	4139
3404.641	4151
3406.371	4045
3408.101	4043
3409.83	4024
3411.558	4100
3413.285	4061
3415.011	4085
3416.739	3997
3418.467	4061
3420.193	4003
3421.919	4009
3423.644	4088
3425.368	4087
3427.094	3945
3428.818	4014
3430.542	4045
3432.264	4032
3433.987	4028
3435.712	4049
3437.434	4026
3439.155	4035
3440.876	3954
3442.596	3981
3444.317	3999
3446.039	4108
3447.757	4073
3449.477	4050
3451.195	3960
3452.914	3992
3454.632	4027
3456.35	4002
3458.067	3884
3459.784	3982
3461.5	4021
3463.216	3912
3464.932	4004
3466.647	3923
3468.362	3947
3470.076	3945
3471.789	3893
3473.505	3803
3475.217	3985
3476.929	3901
3478.641	3927
3480.354	3892
3482.066	3981
3483.777	3955
3485.487	3913
3487.197	3948
3488.908	3887
3490.617	3881
3492.327	3924
3494.035	3895
3495.743	3942
3497.451	3971
3499.158	3860
3500.866	3870
3502.572	3809
3504.278	3833
3505.984	3900
3507.689	3835
3509.396	3915
3511.1	3852
3512.804	3879
3514.508	3807
3516.211	3858
3517.913	3870
3519.616	3826
3521.319	3890
3523.021	3857
3524.722	3887
3526.422	3811
3528.124	3839
3529.824	3813
3531.524	3802
3533.222	3788
3534.921	3788
3536.62	3867
3538.318	3807
3540.016	3769
3541.714	3711
3543.41	3886
3545.107	3775
3546.803	3814
3548.5	3699
3550.194	3782
3551.889	3839
3553.583	3842
3555.279	3745
3556.972	3837
3558.666	3805
3560.358	3802
3562.051	3775
3563.742	3739
3565.435	3733
3567.126	3774
3568.817	3731
3570.507	3756
3572.197	3789
3573.888	3768
3575.577	3773
3577.265	3782
3578.954	3787
3580.642	3875
3582.329	3777
3584.017	3671
3585.704	3778
3587.391	3652
3589.077	3695
3590.762	3757
3592.449	3673
3594.133	3721
3595.817	3694
3597.501	3629
3599.185	3736
3600.869	3701
3602.552	3614
3604.234	3632
3605.916	3744
3607.598	3594
3609.279	3671
3610.961	3751
3612.642	3616
3614.321	3738
3616	3707
3617.68	3670
3619.36	3675
3621.039	3651
3622.716	3655
3624.394	3597
3626.071	3553
3627.748	3626
3629.425	3682
3631.102	3657
3632.778	3648
3634.452	3652
3636.127	3548
3637.803	3626
3639.477	3682
3641.151	3623
3642.823	3529
3644.497	3589
3646.171	3589
3647.842	3596
3649.515	3662
3651.185	3572
3652.857	3559
3654.527	3516
3656.198	3540
3657.868	3587
3659.537	3511
3661.207	3509
3662.875	3488
3664.544	3601
3666.212	3599
3667.879	3641
3669.546	3562
3671.212	3578
3672.88	3522
3674.546	3526
3676.211	3553
3677.875	3494
3679.541	3501
3681.205	3607
3682.87	3531
3684.533	3537
3686.196	3514
3687.859	3513
3689.521	3557
3691.184	3452
3692.845	3510
3694.507	3498
3696.167	3488
3697.827	3502
3699.487	3525
3701.148	3514
3702.808	3509
3704.466	3494
3706.125	3509
3707.783	3540
3709.442	3504
3711.099	3458
3712.757	3494
3714.412	3528
3716.068	3512
3717.725	3509
3719.381	3446
3721.036	3588
3722.689	3489
3724.344	3465
3725.998	3512
3727.652	3420
3729.305	3486
3730.958	3444
3732.61	3431
3734.262	3371
3735.915	3496
3737.565	3526
3739.217	3495
3740.866	3479
3742.516	3454
3744.165	3467
3745.816	3432
3747.464	3548
3749.113	3403
3750.761	3492
3752.409	3459
3754.057	3455
3755.703	3403
3757.35	3439
3758.996	3503
3760.641	3523
3762.289	3383
3763.933	3465
3765.577	3435
3767.222	3414
3768.865	3410
3770.508	3380
3772.152	3411
3773.796	3370
3775.438	3467
3777.079	3415
3778.721	3402
3780.363	3460
3782.003	3337
3783.643	3460
3785.283	3380
3786.923	3445
3788.563	3411
3790.203	3365
3791.841	3349
3793.479	3432
3795.115	3368
3796.753	3398
3798.391	3247
3800.027	3318
3801.664	3442
3803.299	3454
3804.935	3347
3806.571	3301
3808.206	3378
3809.839	3369
3811.473	3348
3813.107	3273
3814.74	3350
3816.375	3385
3818.006	3359
3819.638	3305
3821.27	3378
3822.9	3301
3824.532	3285
3826.163	3306
3827.792	3310
3829.423	3207
3831.051	3311
3832.682	3309
3834.311	3369
3835.938	3318
3837.566	3278
3839.193	3328
3840.821	3374
3842.448	3342
3844.075	3338
3845.7	3306
3847.325	3267
3848.951	3310
3850.576	3317
3852.201	3328
3853.825	3192
3855.448	3326
3857.072	3255
3858.694	3304
3860.318	3339
3861.939	3266
3863.562	3293
3865.183	3228
3866.804	3230
3868.426	3253
3870.045	3245
3871.666	3307
3873.285	3335
3874.904	3294
3876.524	3228
3878.142	3222
3879.76	3275
3881.378	3332
3882.995	3192
3884.612	3212
3886.229	3318
3887.845	3240
3889.461	3223
3891.076	3283
3892.691	3243
3894.307	3205
3895.922	3235
3897.536	3177
3899.149	3238
3900.761	3199
3902.374	3266
3903.988	3303
3905.6	3292
3907.212	3223
3908.822	3228
3910.433	3250
3912.045	3202
3913.655	3199
3915.265	3144
3916.875	3197
3918.483	3175
3920.093	3267
3921.702	3257
3923.309	3189
3924.917	3193
3926.523	3252
3928.13	3140
3929.739	3155
3931.344	3131
3932.95	3183
3934.555	3236
3936.159	3241
3937.766	3167
3939.369	3204
3940.974	3159
3942.577	3199
3944.181	3181
3945.783	3177
3947.386	3227
3948.989	3184
3950.59	3175
3952.191	3147
3953.791	3196
3955.394	3110
3956.994	3131
3958.593	3204
3960.192	3141
3961.791	3196
3963.392	3178
3964.99	3131
3966.588	3154
3968.185	3186
3969.782	3147
3971.379	3146
3972.976	3151
3974.572	3206
3976.168	3118
3977.763	3136
3979.358	3115
3980.954	3137
3982.548	3061
3984.142	3108
3985.736	3121
3987.329	3142
3988.922	3177
3990.516	3138
3992.108	3100
3993.698	3097
3995.29	3084
3996.881	3084
3998.473	3047
4000.064	3018
4001.653	3122
4003.242	3072
4004.832	3138
4006.422	3102
4008.01	3066
4009.598	2978
4011.186	3089
4012.773	3068
4014.36	3073
4015.947	3073
4017.534	3055
4019.119	3081
4020.705	2956
4022.291	3037
4023.876	2921
4025.461	3100
4027.044	3049
4028.627	2986
4030.211	3056
4031.795	3054
4033.378	3011
4034.96	2943
4036.542	2987
4038.124	2952
4039.704	2980
4041.286	3013
4042.867	3044
4044.447	2918
4046.026	3029
4047.606	3064
4049.187	2998
4050.765	3037
4052.343	3062
4053.92	2956
4055.498	2985
4057.076	2935
4058.654	2925
4060.23	2987
4061.806	2957
4063.381	2974
4064.957	2932
4066.533	2991
4068.107	2987
4069.682	3011
4071.256	2972
4072.829	3009
4074.404	3040
4075.977	2934
4077.549	2955
4079.121	2985
4080.693	2925
4082.265	2929
4083.836	2969
4085.407	2955
4086.977	2958
4088.547	2930
4090.117	2955
4091.687	2933
4093.256	2954
4094.825	2898
4096.392	2993
4097.96	2880
4099.528	2947
4101.097	2943
4102.663	2951
4104.229	2917
4105.795	2953
4107.361	2888
4108.928	2845
4110.493	2869
4112.058	2853
4113.621	2879
4115.186	2866
4116.75	2873
4118.313	2869
4119.876	2856
4121.438	2960
4123	2910
4124.562	2858
4126.125	2802
4127.686	2960
4129.246	2892
4130.807	2848
4132.367	2841
4133.927	2905
4135.486	2900
4137.046	2842
4138.604	2873
4140.162	2789
4141.72	2826
4143.279	2840
4144.836	2800
4146.393	2786
4147.949	2784
4149.505	2868
4151.062	2819
4152.617	2850
4154.172	2901
4155.727	2858
4157.281	2877
4158.836	2814
4160.39	2776
4161.943	2867
4163.496	2830
4165.048	2803
4166.601	2798
4168.154	2825
4169.706	2814
4171.257	2734
4172.808	2788
4174.358	2773
4175.909	2794
4177.458	2763
4179.008	2802
4180.558	2768
4182.106	2740
4183.655	2757
4185.204	2714
4186.751	2779
4188.298	2769
4189.845	2715
4191.392	2781
4192.939	2825
4194.485	2758
4196.031	2728
4197.576	2778
4199.121	2753
4200.666	2746
4202.211	2749
4203.754	2725
4205.298	2659
4206.84	2787
4208.384	2695
4209.927	2707
4211.47	2647
4213.011	2772
4214.552	2776
4216.094	2744
4217.635	2714
4219.175	2673
4220.716	2741
4222.255	2787
4223.793	2713
4225.335	2693
4226.873	2657
4228.411	2736
4229.948	2624
4231.486	2713
4233.024	2616
4234.562	2691
4236.098	2736
4237.634	2736
4239.169	2684
4240.705	2740
4242.241	2682
4243.776	2711
4245.31	2726
4246.844	2745
4248.378	2658
4249.911	2735
4251.445	2758
4252.978	2653
4254.51	2735
4256.042	2621
4257.574	2715
4259.107	2656
4260.638	2667
4262.169	2688
4263.699	2673
4265.228	2690
4266.759	2676
4268.289	2649
4269.818	2659
4271.345	2647
4272.874	2651
4274.402	2696
4275.931	2671
4277.458	2686
4278.985	2699
4280.512	2637
4282.037	2565
4283.564	2661
4285.089	2614
4286.615	2564
4288.139	2645
4289.664	2602
4291.187	2644
4292.712	2634
4294.235	2586
4295.759	2665
4297.281	2590
4298.804	2600
4300.327	2671
4301.849	2635
4303.37	2646
4304.891	2555
4306.412	2635
4307.933	2670
4309.453	2597
4310.973	2553
4312.492	2674
