398.1873	2784
400.7097	2751
403.2336	2765
405.7547	2759
408.2751	2761
410.7948	2774
413.3138	2792
415.83	2757
418.3497	2838
420.8666	2818
423.3829	2862
425.8985	2873
428.4133	2944
430.9275	2926
433.441	2971
435.9538	2958
438.4639	2861
440.9753	2940
443.4881	2965
445.9982	2920
448.5055	2956
451.0142	2929
453.5201	2908
456.0274	2925
458.5361	2896
461.04	2942
463.5453	2902
466.0478	2919
468.5517	2922
471.0549	3024
473.5574	2912
476.0572	2875
478.5584	2956
481.0568	2915
483.5545	2927
486.0557	2995
488.5521	3000
491.0478	2950
493.5449	2974
496.0392	2991
498.5349	2984
501.0299	2929
503.5222	3054
506.0139	2932
508.5048	3033
510.9991	2979
513.4887	2988
515.9777	2964
518.4659	3074
520.9534	3059
523.4403	3007
525.9306	3028
528.4161	2988
530.9009	3014
533.3851	3041
535.8687	3038
538.3535	2987
540.8356	3071
543.3171	3042
545.7979	3014
548.278	3061
550.7595	3009
553.2383	3045
555.7144	3066
558.1918	3052
560.6685	3131
563.1446	3079
565.6221	3071
568.0968	3074
570.5688	3098
573.0422	3046
575.515	3134
577.989	3114
580.4584	3109
582.9291	3132
585.3991	3128
587.8685	3201
590.3352	3196
592.8052	3147
595.2706	3168
597.7372	3139
600.2033	3173
602.6666	3069
605.1334	3094
607.5953	3133
610.0587	3137
612.5193	3166
614.9814	3145
617.4427	3140
619.9034	3144
622.3615	3109
624.8208	3092
627.2775	3037
629.7335	3073
632.1929	3091
634.6476	3091
637.1016	3168
639.5569	3104
642.0096	3086
644.4637	3091
646.9151	3094
649.3678	3133
651.8179	3110
654.2672	3117
656.7159	3132
659.166	3121
661.6154	3134
664.0622	3144
666.5082	3161
668.9537	3191
671.4005	3177
673.8445	3212
676.288	3222
678.7308	3134
681.1729	3185
683.6163	3153
686.0572	3148
688.4973	3235
690.9368	3196
693.3757	3224
695.8138	3200
698.2534	3253
700.6902	3170
703.1245	3242
705.56	3208
707.9949	3202
710.4311	3249
712.8647	3280
715.2957	3234
717.7279	3288
720.1595	3284
722.5905	3262
725.0208	3343
727.4505	3270
729.8795	3298
732.3058	3357
734.7336	3327
737.1626	3283
739.587	3371
742.0128	3384
744.4359	3351
746.8604	3322
749.2841	3326
751.7073	3267
754.1278	3372
756.5496	3367
758.9688	3363
761.3893	3410
763.8093	3417
766.2285	3380
768.6451	3428
771.0611	3433
773.4784	3463
775.895	3479
778.3091	3381
780.7244	3480
783.1371	3443
785.5493	3414
787.9626	3392
790.3754	3443
792.7856	3419
795.1951	3378
797.6039	3358
800.0121	3452
802.4236	3371
804.8306	3455
807.2369	3432
809.6425	3497
812.0475	3488
814.4538	3431
816.8575	3521
819.2606	3412
821.663	3476
824.0648	3505
826.4659	3464
828.8683	3440
831.2682	3440
833.6674	3482
836.066	3431
838.4639	3470
840.8632	3452
843.2579	3489
845.6539	3536
848.0493	3502
850.444	3561
852.84	3577
855.2315	3536
857.6243	3554
860.0165	3459
862.4081	3493
864.797	3507
867.1892	3475
869.5789	3537
871.9659	3418
874.3542	3521
876.74	3538
879.129	3414
881.5155	3466
883.8994	3554
886.2845	3606
888.6671	3442
891.051	3484
893.4343	3555
895.8169	3571
898.197	3519
900.5783	3551
902.9571	3480
905.3372	3520
907.7167	3550
910.0936	3574
912.4698	3564
914.8474	3590
917.2244	3576
919.5987	3666
921.9744	3703
924.3475	3628
926.72	3634
929.0918	3633
931.4669	3729
933.8375	3650
936.2074	3722
938.5767	3747
940.9454	3774
943.3154	3817
945.6829	3850
948.0497	3895
950.4178	4109
952.7833	4233
955.1483	4272
957.5145	4460
959.8782	4497
962.2412	4450
964.6036	4361
966.9655	4251
969.3266	4038
971.6871	3980
974.0471	3848
976.4064	3764
978.765	3816
981.125	3740
983.4824	3722
985.8373	3678
988.1935	3528
990.549	3662
992.9039	3691
995.2602	3622
997.6119	3651
999.965	3685
1002.317	3767
1004.667	3594
1007.02	3587
1009.371	3592
1011.719	3639
1014.068	3695
1016.415	3628
1018.765	3728
1021.111	3730
1023.458	3719
1025.804	3690
1028.147	3726
1030.49	3715
1032.837	3764
1035.179	3717
1037.522	3824
1039.862	3738
1042.204	3730
1044.546	3676
1046.884	3701
1049.224	3850
1051.562	3753
1053.899	3748
1056.237	3769
1058.575	3799
1060.91	3769
1063.244	3782
1065.58	3795
1067.913	3813
1070.248	3818
1072.579	3783
1074.911	3869
1077.242	3813
1079.572	3802
1081.905	3816
1084.234	3795
1086.562	3848
1088.89	3839
1091.217	3728
1093.544	3608
1095.871	3712
1098.197	3688
1100.521	3677
1102.845	3861
1105.169	3743
1107.491	3767
1109.814	3782
1112.135	3766
1114.456	3722
1116.776	3762
1119.096	3734
1121.415	3756
1123.734	3725
1126.052	3753
1128.369	3755
1130.686	3799
1133.002	3797
1135.318	3763
1137.632	3771
1139.945	3727
1142.258	3702
1144.573	3752
1146.884	3729
1149.196	3775
1151.505	3850
1153.816	3753
1156.124	3662
1158.435	3796
1160.742	3801
1163.051	3771
1165.356	3685
1167.663	3800
1169.97	3759
1172.276	3827
1174.579	3767
1176.881	3743
1179.186	3782
1181.487	3844
1183.79	3817
1186.092	3784
1188.392	3804
1190.691	3719
1192.991	3750
1195.291	3799
1197.588	3758
1199.885	3731
1202.181	3805
1204.479	3814
1206.775	3849
1209.07	3720
1211.363	3687
1213.656	3783
1215.949	3801
1218.241	3836
1220.534	3775
1222.825	3820
1225.115	3824
1227.405	3841
1229.693	3838
1231.984	3821
1234.271	3801
1236.558	3901
1238.845	3987
1241.131	3925
1243.416	3870
1245.703	3911
1247.987	3966
1250.269	3837
1252.552	3952
1254.834	3924
1257.118	3961
1259.399	3877
1261.678	3915
1263.958	3924
1266.237	3977
1268.516	3899
1270.794	3893
1273.072	3936
1275.347	3894
1277.624	3908
1279.899	3884
1282.175	3820
1284.449	3888
1286.722	3887
1288.995	3864
1291.266	3854
1293.54	3865
1295.81	3903
1298.081	3840
1300.35	3857
1302.62	3938
1304.889	3836
1307.156	3928
1309.425	3894
1311.69	3911
1313.957	3966
1316.222	3962
1318.488	3843
1320.751	3868
1323.016	3837
1325.278	3881
1327.54	3870
1329.803	3844
1332.065	3944
1334.325	3857
1336.584	3995
1338.843	3985
1341.101	3802
1343.36	3882
1345.617	3940
1347.876	3890
1350.131	3887
1352.387	3835
1354.643	3853
1356.897	3956
1359.151	3996
1361.403	3913
1363.656	3887
1365.909	3917
1368.16	3853
1370.409	3932
1372.659	3848
1374.909	3946
1377.157	3921
1379.407	3881
1381.655	3918
1383.9	4025
1386.147	4015
1388.393	3909
1390.64	3990
1392.885	3998
1395.127	3891
1397.37	3967
1399.614	3961
1401.854	4015
1404.098	3995
1406.339	3956
1408.578	3945
1410.818	3980
1413.056	4020
1415.297	3938
1417.533	4030
1419.771	3974
1422.006	3997
1424.243	3997
1426.479	4030
1428.715	3967
1430.948	4025
1433.182	3986
1435.414	4120
1437.647	4052
1439.88	4061
1442.11	4065
1444.342	4075
1446.571	4049
1448.799	4129
1451.029	4038
1453.258	4043
1455.485	4049
1457.711	4020
1459.937	4120
1462.164	4045
1464.39	4057
1466.614	4074
1468.838	4040
1471.06	4033
1473.283	4042
1475.506	4037
1477.727	4063
1479.949	3992
1482.169	4010
1484.389	4051
1486.609	3956
1488.828	4001
1491.045	3977
1493.261	3978
1495.477	3981
1497.693	4005
1499.91	3922
1502.125	3928
1504.339	3929
1506.553	3926
1508.766	3964
1510.979	4024
1513.191	3994
1515.402	3943
1517.613	3931
1519.823	3889
1522.033	3990
1524.242	3878
1526.451	3912
1528.657	4011
1530.865	3914
1533.072	3893
1535.278	3907
1537.484	3995
1539.687	3973
1541.892	3956
1544.096	3997
1546.299	3997
1548.502	3878
1550.703	4049
1552.905	3940
1555.104	4012
1557.303	3940
1559.505	3931
1561.703	4013
1563.902	4058
1566.099	4087
1568.295	4100
1570.494	4046
1572.689	3992
1574.883	4073
1577.079	4073
1579.272	4112
1581.467	4123
1583.659	4035
1585.853	4013
1588.044	4114
1590.234	4122
1592.424	4070
1594.615	4092
1596.806	4113
1598.994	4143
1601.182	4093
1603.369	4149
1605.557	4094
1607.744	4173
1609.929	4070
1612.114	4032
1614.298	4106
1616.482	4126
1618.667	4048
1620.85	4110
1623.032	4023
1625.214	4200
1627.395	4113
1629.575	4076
1631.755	4164
1633.935	4127
1636.114	4132
1638.292	4151
1640.471	4201
1642.647	4127
1644.823	4132
1647	4150
1649.175	4135
1651.348	4093
1653.525	4109
1655.698	4197
1657.87	4212
1660.043	4153
1662.213	4225
1664.387	4178
1666.558	4206
1668.727	4164
1670.896	4240
1673.064	4236
1675.233	4177
1677.401	4139
1679.569	4214
1681.735	4259
1683.902	4238
1686.066	4217
1688.233	4277
1690.397	4266
1692.559	4148
1694.723	4138
1696.885	4159
1699.048	4151
1701.21	4162
1703.37	4126
1705.53	4181
1707.689	4182
1709.849	4086
1712.009	4092
1714.166	4168
1716.323	4140
1718.479	4158
1720.634	4142
1722.793	4145
1724.948	4153
1727.102	4180
1729.255	4113
1731.408	4127
1733.562	4213
1735.714	4122
1737.865	4217
1740.016	4179
1742.166	4176
1744.316	4179
1746.467	4127
1748.616	4165
1750.764	4237
1752.911	4124
1755.056	4181
1757.205	4180
1759.35	4154
1761.496	4197
1763.641	4245
1765.785	4168
1767.927	4201
1770.072	4192
1772.214	4147
1774.355	4192
1776.496	4194
1778.637	4231
1780.778	4146
1782.918	4166
1785.057	4057
1787.194	4170
1789.333	4178
1791.472	4212
1793.608	4193
1795.745	4175
1797.879	4186
1800.015	4228
1802.148	4251
1804.284	4237
1806.417	4118
1808.548	4137
1810.682	4171
1812.812	4157
1814.946	4169
1817.075	4146
1819.205	4226
1821.335	4144
1823.463	4307
1825.59	4254
1827.721	4179
1829.847	4191
1831.973	4155
1834.098	4216
1836.223	4207
1838.351	4243
1840.475	4188
1842.598	4159
1844.721	4169
1846.843	4190
1848.966	4205
1851.087	4228
1853.21	4228
1855.33	4246
1857.449	4211
1859.568	4226
1861.688	4179
1863.806	4184
1865.924	4208
1868.039	4149
1870.155	4220
1872.273	4191
1874.388	4237
1876.503	4197
1878.617	4211
1880.73	4197
1882.844	4306
1884.956	4228
1887.068	4169
1889.18	4190
1891.291	4330
1893.4	4240
1895.511	4230
1897.621	4190
1899.73	4218
1901.837	4173
1903.944	4245
1906.053	4314
1908.159	4290
1910.265	4217
1912.369	4183
1914.474	4333
1916.577	4337
1918.683	4287
1920.785	4173
1922.888	4348
1924.989	4263
1927.091	4278
1929.193	4240
1931.294	4352
1933.393	4392
1935.493	4310
1937.59	4230
1939.689	4337
1941.788	4316
1943.884	4223
1945.98	4262
1948.077	4266
1950.171	4283
1952.267	4206
1954.361	4296
1956.455	4270
1958.548	4291
1960.64	4210
1962.733	4346
1964.824	4255
1966.915	4327
1969.005	4259
1971.096	4265
1973.185	4356
1975.275	4322
1977.363	4326
1979.45	4323
1981.537	4405
1983.623	4306
1985.711	4190
1987.796	4339
1989.881	4238
1991.965	4268
1994.047	4221
1996.132	4337
1998.215	4337
2000.297	4332
2002.378	4169
2004.46	4314
2006.54	4330
2008.62	4319
2010.7	4423
2012.779	4263
2014.858	4254
2016.934	4302
2019.013	4230
2021.09	4244
2023.165	4261
2025.241	4387
2027.317	4271
2029.39	4227
2031.466	4235
2033.538	4239
2035.612	4335
2037.683	4312
2039.755	4211
2041.827	4148
2043.898	4224
2045.968	4209
2048.038	4272
2050.106	4310
2052.177	4271
2054.244	4329
2056.313	4350
2058.379	4220
2060.444	4335
2062.511	4352
2064.577	4314
2066.641	4246
2068.705	4366
2070.77	4321
2072.832	4248
2074.896	4319
2076.958	4332
2079.02	4304
2081.081	4364
2083.141	4276
2085.2	4302
2087.261	4301
2089.319	4398
2091.377	4307
2093.435	4310
2095.492	4332
2097.552	4309
2099.607	4321
2101.663	4278
2103.718	4339
2105.771	4309
2107.826	4348
2109.879	4301
2111.932	4258
2113.985	4310
2116.037	4372
2118.088	4331
2120.141	4286
2122.191	4273
2124.239	4391
2126.288	4356
2128.337	4270
2130.387	4295
2132.434	4323
2134.481	4304
2136.528	4331
2138.574	4295
2140.618	4343
2142.665	4385
2144.71	4354
2146.753	4355
2148.797	4238
2150.838	4262
2152.883	4317
2154.923	4408
2156.965	4323
2159.007	4284
2161.046	4346
2163.086	4273
2165.126	4237
2167.163	4325
2169.202	4323
2171.239	4285
2173.277	4290
2175.314	4214
2177.349	4301
2179.385	4305
2181.42	4170
2183.453	4298
2185.49	4263
2187.522	4257
2189.555	4148
2191.586	4394
2193.619	4374
2195.651	4252
2197.682	4186
2199.711	4281
2201.74	4284
2203.769	4306
2205.799	4250
2207.828	4261
2209.855	4292
2211.882	4218
2213.908	4399
2215.934	4284
2217.961	4252
2219.986	4167
2222.01	4252
2224.034	4283
2226.057	4268
2228.08	4245
2230.104	4303
2232.124	4218
2234.145	4284
2236.166	4211
2238.186	4322
2240.207	4174
2242.227	4264
2244.244	4213
2246.262	4232
2248.28	4323
2250.299	4230
2252.314	4225
2254.33	4239
2256.346	4285
2258.36	4261
2260.375	4231
2262.391	4248
2264.403	4196
2266.416	4373
2268.427	4333
2270.44	4163
2272.453	4215
2274.463	4276
2276.474	4251
2278.483	4209
2280.493	4260
2282.501	4302
2284.51	4310
2286.518	4341
2288.524	4258
2290.532	4217
2292.537	4316
2294.544	4218
2296.55	4323
2298.554	4181
2300.557	4278
2302.562	4263
2304.566	4206
2306.568	4273
2308.569	4230
2310.572	4249
2312.573	4292
2314.573	4279
2316.574	4231
2318.573	4348
2320.571	4308
2322.571	4263
2324.569	4272
2326.567	4248
2328.564	4313
2330.56	4213
2332.556	4178
2334.551	4215
2336.546	4212
2338.542	4265
2340.535	4259
2342.529	4234
2344.521	4290
2346.512	4204
2348.505	4293
2350.497	4216
2352.487	4195
2354.478	4234
2356.468	4125
2358.457	4178
2360.446	4163
2362.434	4217
2364.422	4225
2366.408	4224
2368.395	4139
2370.383	4243
2372.369	4130
2374.353	4176
2376.338	4179
2378.321	4308
2380.307	4202
2382.29	4165
2384.272	4221
2386.254	4203
2388.235	4203
2390.218	4168
2392.198	4187
2394.179	4169
2396.157	4132
2398.137	4189
2400.115	4169
2402.095	4093
2404.072	4240
2406.048	4218
2408.026	4198
2410.001	4109
2411.977	4151
2413.953	4198
2415.927	4220
2417.9	4150
2419.875	4230
2421.847	4162
2423.821	4226
2425.792	4151
2427.763	4273
2429.736	4155
2431.706	4208
2433.677	4145
2435.646	4126
2437.615	4169
2439.583	4216
2441.551	4194
2443.519	4161
2445.486	4209
2447.452	4195
2449.418	4184
2451.383	4172
2453.348	4119
2455.314	4273
2457.278	4187
2459.241	4077
2461.205	4151
2463.167	4076
2465.131	4127
2467.091	4080
2469.052	4163
2471.012	4223
2472.972	4235
2474.932	4174
2476.891	4109
2478.85	4204
2480.808	4157
2482.766	4182
2484.722	4134
2486.68	4190
2488.636	4069
2490.591	4127
2492.546	4146
2494.5	4131
2496.456	4104
2498.41	4201
2500.362	4184
2502.315	4125
2504.266	4167
2506.218	4081
2508.169	4185
2510.121	4211
2512.07	4181
2514.019	4118
2515.968	4107
2517.918	4127
2519.866	4037
2521.813	4170
2523.76	4161
2525.707	4135
2527.653	4198
2529.599	4087
2531.543	4038
2533.489	4080
2535.433	4094
2537.376	4143
2539.32	4077
2541.264	4089
2543.205	4119
2545.147	4108
2547.087	4143
2549.029	4125
2550.969	4129
2552.908	4161
2554.847	4146
2556.786	4117
2558.724	4090
2560.663	4144
2562.6	4151
2564.537	4169
2566.473	4141
2568.408	4089
2570.345	4132
2572.28	4243
2574.214	4135
2576.148	4092
2578.081	4216
2580.014	4202
2581.947	4147
2583.879	4143
2585.81	4115
2587.741	4124
2589.67	4164
2591.602	4178
2593.532	4191
2595.461	4117
2597.388	4144
2599.316	4149
2601.244	4153
2603.172	4148
2605.098	4177
2607.023	4122
2608.949	4165
2610.873	4126
2612.8	4253
2614.723	4231
2616.647	4083
2618.569	4215
2620.493	4106
2622.416	4170
2624.338	4118
2626.258	4197
2628.179	4124
2630.099	4282
2632.019	4146
2633.939	4188
2635.857	4160
2637.775	4129
2639.694	4177
2641.61	4185
2643.528	4173
2645.444	4271
2647.361	4135
2649.276	4181
2651.19	4206
2653.105	4155
2655.019	4155
2656.934	4154
2658.846	4202
2660.758	4171
2662.67	4200
2664.583	4133
2666.493	4169
2668.404	4178
2670.313	4123
2672.223	4173
2674.134	4176
2676.042	4083
2677.95	4231
2679.858	4087
2681.765	4136
2683.673	4105
2685.579	4110
2687.483	4148
2689.389	4124
2691.294	4073
2693.198	4126
2695.104	4139
2697.006	4215
2698.909	4112
2700.811	4120
2702.713	4125
2704.615	4159
2706.516	4158
2708.417	4075
2710.316	4040
2712.216	4186
2714.115	4156
2716.014	4158
2717.913	4101
2719.81	4094
2721.707	4094
2723.603	4080
2725.501	4062
2727.396	4126
2729.292	4157
2731.186	4105
2733.081	4063
2734.976	4147
2736.87	4175
2738.762	4141
2740.653	4119
2742.546	4141
2744.437	4066
2746.329	4140
2748.22	4113
2750.11	4073
2751.999	4055
2753.889	4104
2755.778	4009
2757.666	4095
2759.553	4011
2761.44	4124
2763.328	4091
2765.215	4065
2767.101	4103
2768.986	4076
2770.87	4061
2772.754	4111
2774.638	4053
2776.523	4061
2778.405	4104
2780.288	4103
2782.17	4098
2784.051	4022
2785.934	4117
2787.814	4064
2789.694	4057
2791.574	4045
2793.453	4064
2795.332	4099
2797.212	4098
2799.088	4146
2800.966	4058
2802.843	4028
2804.719	4087
2806.597	4031
2808.471	4110
2810.346	4084
2812.221	4049
2814.094	4092
2815.969	4097
2817.843	4077
2819.714	4078
2821.587	4100
2823.459	3976
2825.329	4073
2827.202	4054
2829.072	4106
2830.942	4153
2832.811	4018
2834.68	4118
2836.549	4095
2838.418	4087
2840.284	4016
2842.152	4131
2844.018	4059
2845.885	4091
2847.751	4192
2849.616	4092
2851.482	4095
2853.345	4151
2855.208	4060
2857.074	4197
2858.937	4176
2860.799	4055
2862.66	4092
2864.522	4112
2866.385	4073
2868.245	4213
2870.104	4234
2871.964	4187
2873.824	4255
2875.683	4292
2877.542	4276
2879.4	4280
2881.257	4325
2883.114	4347
2884.97	4291
2886.827	4350
2888.683	4273
2890.537	4306
2892.392	4299
2894.246	4258
2896.1	4265
2897.954	4270
2899.807	4243
2901.66	4307
2903.51	4269
2905.362	4373
2907.214	4275
2909.065	4263
2910.915	4369
2912.765	4263
2914.613	4351
2916.463	4446
2918.311	4423
2920.158	4378
2922.006	4443
2923.853	4434
2925.698	4535
2927.546	4455
2929.392	4425
2931.236	4573
2933.081	4561
2934.924	4592
2936.77	4596
2938.613	4594
2940.455	4627
2942.298	4635
2944.139	4575
2945.982	4712
2947.823	4607
2949.662	4561
2951.503	4579
2953.342	4470
2955.182	4472
2957.021	4585
2958.858	4466
2960.697	4476
2962.534	4490
2964.37	4377
2966.207	4410
2968.044	4461
2969.879	4411
2971.714	4375
2973.548	4311
2975.383	4442
2977.218	4336
2979.051	4466
2980.883	4376
2982.715	4297
2984.547	4274
2986.379	4350
2988.21	4342
2990.04	4293
2991.87	4207
2993.7	4213
2995.53	4162
2997.359	4272
2999.187	4199
3001.015	4111
3002.842	4118
3004.669	4068
3006.497	4155
3008.323	4133
3010.148	4051
3011.974	4093
3013.797	4033
3015.623	4060
3017.447	4025
3019.27	4025
3021.094	4046
3022.915	3988
3024.737	4043
3026.56	4061
3028.38	4024
3030.201	3970
3032.022	3941
3033.84	3992
3035.662	4006
3037.481	3966
3039.298	3933
3041.117	3899
3042.933	3947
3044.752	3876
3046.568	3928
3048.385	4006
3050.2	3979
3052.016	3942
3053.83	4006
3055.646	3938
3057.46	3953
3059.272	4035
3061.086	3865
3062.898	3942
3064.711	3878
3066.524	3917
3068.335	3923
3070.145	3983
3071.956	3977
3073.766	3944
3075.576	3895
3077.385	3956
3079.193	3928
3081.002	3934
3082.81	3845
3084.618	3888
3086.425	3907
3088.231	3833
3090.036	3859
3091.842	3834
3093.648	3890
3095.452	3817
3097.257	3828
3099.06	3889
3100.863	3835
3102.666	3886
3104.47	3883
3106.272	3798
3108.073	3819
3109.875	3740
3111.676	3764
3113.477	3858
3115.277	3927
3117.077	3922
3118.874	3834
3120.673	3818
3122.473	3808
3124.271	3870
3126.066	3831
3127.863	3836
3129.66	3842
3131.456	3854
3133.252	3856
3135.047	3796
3136.842	3840
3138.635	3777
3140.429	3789
3142.223	3825
3144.016	3756
3145.808	3800
3147.6	3850
3149.392	3797
3151.183	3760
3152.975	3696
3154.765	3768
3156.553	3772
3158.344	3716
3160.132	3791
3161.922	3731
3163.71	3761
3165.497	3837
3167.285	3689
3169.071	3754
3170.858	3776
3172.645	3797
3174.429	3766
3176.214	3784
3177.998	3705
3179.783	3731
3181.568	3762
3183.351	3797
3185.133	3720
3186.915	3753
3188.698	3681
3190.481	3695
3192.261	3784
3194.042	3725
3195.822	3754
3197.601	3709
3199.381	3668
3201.161	3687
3202.939	3757
3204.717	3638
3206.495	3700
3208.272	3671
3210.05	3679
3211.826	3617
3213.602	3626
3215.376	3773
3217.151	3792
3218.927	3794
3220.702	3712
3222.476	3751
3224.249	3698
3226.021	3771
3227.793	3734
3229.567	3670
3231.339	3698
3233.109	3658
3234.88	3759
3236.651	3702
3238.421	3799
3240.191	3732
3241.96	3665
3243.728	3641
3245.497	3762
3247.263	3742
3249.033	3773
3250.799	3770
3252.566	3641
3254.331	3711
3256.097	3732
3257.863	3638
3259.628	3838
3261.392	3726
3263.156	3759
3264.919	3746
3266.683	3782
3268.447	3790
3270.208	3704
3271.969	3741
3273.731	3673
3275.492	3701
3277.253	3682
3279.013	3657
3280.773	3717
3282.532	3711
3284.291	3734
3286.05	3750
3287.808	3681
3289.566	3792
3291.323	3679
3293.079	3752
3294.835	3692
3296.593	3692
3298.348	3711
3300.102	3758
3301.857	3669
3303.611	3685
3305.366	3716
3307.119	3710
3308.872	3707
3310.624	3711
3312.376	3662
3314.129	3651
3315.881	3770
3317.631	3810
3319.38	3795
3321.13	3675
3322.88	3661
3324.631	3695
3326.379	3693
3328.126	3759
3329.875	3657
3331.622	3657
3333.371	3602
3335.116	3673
3336.863	3709
3338.609	3702
3340.353	3634
3342.1	3693
3343.845	3627
3345.588	3658
3347.332	3628
3349.074	3587
3350.817	3659
3352.56	3719
3354.303	3654
3356.043	3680
3357.785	3716
3359.525	3631
3361.268	3634
3363.007	3643
3364.745	3628
3366.485	3691
3368.223	3629
3369.962	3598
3371.701	3560
3373.438	3630
3375.174	3582
3376.911	3581
3378.647	3664
3380.384	3634
3382.118	3634
3383.854	3665
3385.588	3646
3387.322	3670
3389.057	3631
3390.79	3594
3392.522	3663
3394.255	3693
3395.987	3581
3397.719	3548
3399.451	3619
3401.181	3578
3402.911	3661
3404.641	3615
3406.371	3637
3408.101	3635
3409.83	3611
3411.558	3593
3413.285	3579
3415.011	3516
3416.739	3636
3418.467	3540
3420.193	3580
3421.919	3580
3423.644	3608
3425.368	3633
3427.094	3524
3428.818	3552
3430.542	3571
3432.264	3478
3433.987	3598
3435.712	3668
3437.434	3525
3439.155	3564
3440.876	3615
3442.596	3571
3444.317	3596
3446.039	3607
3447.757	3526
3449.477	3502
3451.195	3477
3452.914	3459
3454.632	3614
3456.35	3599
3458.067	3430
3459.784	3612
3461.5	3552
3463.216	3476
3464.932	3426
3466.647	3549
3468.362	3494
3470.076	3491
3471.789	3495
3473.505	3535
3475.217	3511
3476.929	3554
3478.641	3486
3480.354	3454
3482.066	3420
3483.777	3465
3485.487	3447
3487.197	3500
3488.908	3449
3490.617	3504
3492.327	3443
3494.035	3447
3495.743	3440
3497.451	3498
3499.158	3423
3500.866	3430
3502.572	3368
3504.278	3397
3505.984	3486
3507.689	3440
3509.396	3454
3511.1	3435
3512.804	3388
3514.508	3465
3516.211	3488
3517.913	3430
3519.616	3331
3521.319	3457
3523.021	3467
3524.722	3327
3526.422	3386
3528.124	3318
3529.824	3405
3531.524	3415
3533.222	3369
3534.921	3406
3536.62	3418
3538.318	3403
3540.016	3383
3541.714	3340
3543.41	3366
3545.107	3364
3546.803	3338
3548.5	3374
3550.194	3329
3551.889	3384
3553.583	3388
3555.279	3288
3556.972	3333
3558.666	3245
3560.358	3343
3562.051	3407
3563.742	3360
3565.435	3307
3567.126	3393
3568.817	3255
3570.507	3317
3572.197	3343
3573.888	3357
3575.577	3308
3577.265	3432
3578.954	3349
3580.642	3350
3582.329	3256
3584.017	3277
3585.704	3352
3587.391	3312
3589.077	3359
3590.762	3309
3592.449	3282
3594.133	3368
3595.817	3236
3597.501	3259
3599.185	3257
3600.869	3272
3602.552	3251
3604.234	3315
3605.916	3325
3607.598	3340
3609.279	3178
3610.961	3312
3612.642	3229
3614.321	3254
3616	3269
3617.68	3255
3619.36	3249
3621.039	3285
3622.716	3178
3624.394	3242
3626.071	3206
3627.748	3166
3629.425	3198
3631.102	3191
3632.778	3199
3634.452	3130
3636.127	3190
3637.803	3209
3639.477	3235
3641.151	3227
3642.823	3169
3644.497	3191
3646.171	3081
3647.842	3202
3649.515	3218
3651.185	3288
3652.857	3118
3654.527	3123
3656.198	3155
3657.868	3226
3659.537	3164
3661.207	3142
3662.875	3072
3664.544	3207
3666.212	3128
3667.879	3111
3669.546	3140
3671.212	3171
3672.88	3200
3674.546	3139
3676.211	3139
3677.875	3127
3679.541	3176
3681.205	3088
3682.87	3100
3684.533	3038
3686.196	3152
3687.859	3133
3689.521	3173
3691.184	3108
3692.845	3109
3694.507	3055
3696.167	3153
3697.827	3104
3699.487	3118
3701.148	3220
3702.808	3152
3704.466	3171
3706.125	3200
3707.783	3134
3709.442	3073
3711.099	3046
3712.757	3090
3714.412	3069
3716.068	3134
3717.725	3069
3719.381	3060
3721.036	3017
3722.689	3073
3724.344	3029
3725.998	3032
3727.652	2994
3729.305	3092
3730.958	3104
3732.61	3079
3734.262	3089
3735.915	3029
3737.565	3090
3739.217	3037
3740.866	3015
3742.516	3157
3744.165	3022
3745.816	3053
3747.464	3142
3749.113	3015
3750.761	3090
3752.409	3074
3754.057	3016
3755.703	2976
3757.35	2962
3758.996	3075
3760.641	3020
3762.289	3061
3763.933	3101
3765.577	2999
3767.222	2966
3768.865	3048
3770.508	3026
3772.152	3054
3773.796	2992
3775.438	2982
3777.079	2979
3778.721	3057
3780.363	2946
3782.003	3011
3783.643	2993
3785.283	3020
3786.923	2999
3788.563	2935
3790.203	3002
3791.841	2986
3793.479	2927
3795.115	2968
3796.753	3076
3798.391	2970
3800.027	2989
3801.664	2946
3803.299	2967
3804.935	3038
3806.571	2925
3808.206	2916
3809.839	2976
3811.473	2926
3813.107	2945
3814.74	2992
3816.375	2882
3818.006	3014
3819.638	3008
3821.27	2877
3822.9	2999
3824.532	3033
3826.163	3007
3827.792	2938
3829.423	2921
3831.051	2997
3832.682	2946
3834.311	2945
3835.938	2934
3837.566	2865
3839.193	2925
3840.821	2888
3842.448	3022
3844.075	2977
3845.7	2864
3847.325	2909
3848.951	2944
3850.576	2927
3852.201	2925
3853.825	2897
3855.448	2875
3857.072	2928
3858.694	2885
3860.318	2918
3861.939	2925
3863.562	2886
3865.183	2909
3866.804	2912
3868.426	2910
3870.045	2912
3871.666	2843
3873.285	2928
3874.904	2900
3876.524	2964
3878.142	2821
3879.76	2895
3881.378	2881
3882.995	2883
3884.612	2877
3886.229	2863
3887.845	2892
3889.461	2844
3891.076	2821
3892.691	2822
3894.307	2915
3895.922	2846
3897.536	2843
3899.149	2926
3900.761	2837
3902.374	2844
3903.988	2856
3905.6	2865
3907.212	2918
3908.822	2776
3910.433	2881
3912.045	2824
3913.655	2854
3915.265	2817
3916.875	2862
3918.483	2845
3920.093	2887
3921.702	2872
3923.309	2830
3924.917	2901
3926.523	2880
3928.13	2835
3929.739	2804
3931.344	2838
3932.95	2887
3934.555	2806
3936.159	2874
3937.766	2822
3939.369	2765
3940.974	2852
3942.577	2780
3944.181	2840
3945.783	2870
3947.386	2864
3948.989	2853
3950.59	2783
3952.191	2815
3953.791	2848
3955.394	2837
3956.994	2854
3958.593	2787
3960.192	2796
3961.791	2772
3963.392	2873
3964.99	2766
3966.588	2821
3968.185	2829
3969.782	2793
3971.379	2732
3972.976	2797
3974.572	2781
3976.168	2778
3977.763	2809
3979.358	2779
3980.954	2734
3982.548	2763
3984.142	2818
3985.736	2727
3987.329	2775
3988.922	2690
3990.516	2753
3992.108	2754
3993.698	2736
3995.29	2705
3996.881	2630
3998.473	2727
4000.064	2684
4001.653	2665
4003.242	2694
4004.832	2718
4006.422	2743
4008.01	2630
4009.598	2714
4011.186	2783
4012.773	2703
4014.36	2709
4015.947	2659
4017.534	2633
4019.119	2696
4020.705	2740
4022.291	2693
4023.876	2691
4025.461	2651
4027.044	2703
4028.627	2734
4030.211	2631
4031.795	2668
4033.378	2693
4034.96	2643
4036.542	2618
4038.124	2629
4039.704	2649
4041.286	2630
4042.867	2676
4044.447	2662
4046.026	2625
4047.606	2592
4049.187	2661
4050.765	2617
4052.343	2695
4053.92	2607
4055.498	2695
4057.076	2606
4058.654	2622
4060.23	2629
4061.806	2655
4063.381	2610
4064.957	2635
4066.533	2602
4068.107	2619
4069.682	2583
4071.256	2590
4072.829	2585
4074.404	2601
4075.977	2573
4077.549	2535
4079.121	2599
4080.693	2560
4082.265	2561
4083.836	2637
4085.407	2596
4086.977	2593
4088.547	2590
4090.117	2581
4091.687	2557
4093.256	2598
4094.825	2623
4096.392	2673
4097.96	2571
4099.528	2677
4101.097	2597
4102.663	2682
4104.229	2618
4105.795	2577
4107.361	2527
4108.928	2558
4110.493	2666
4112.058	2537
4113.621	2573
4115.186	2590
4116.75	2563
4118.313	2610
4119.876	2559
4121.438	2580
4123	2537
4124.562	2578
4126.125	2562
4127.686	2499
4129.246	2527
4130.807	2568
4132.367	2625
4133.927	2556
4135.486	2536
4137.046	2521
4138.604	2549
4140.162	2490
4141.72	2553
4143.279	2498
4144.836	2525
4146.393	2572
4147.949	2471
4149.505	2539
4151.062	2528
4152.617	2540
4154.172	2504
4155.727	2501
4157.281	2460
4158.836	2487
4160.39	2508
4161.943	2518
4163.496	2450
4165.048	2503
4166.601	2525
4168.154	2447
4169.706	2464
4171.257	2478
4172.808	2487
4174.358	2559
4175.909	2472
4177.458	2514
4179.008	2459
4180.558	2460
4182.106	2436
4183.655	2461
4185.204	2453
4186.751	2408
4188.298	2443
4189.845	2487
4191.392	2469
4192.939	2470
4194.485	2432
4196.031	2461
4197.576	2456
4199.121	2519
4200.666	2437
4202.211	2403
4203.754	2482
4205.298	2457
4206.84	2406
4208.384	2437
4209.927	2406
4211.47	2399
4213.011	2466
4214.552	2513
4216.094	2453
4217.635	2431
4219.175	2462
4220.716	2448
4222.255	2418
4223.793	2368
4225.335	2386
4226.873	2425
4228.411	2428
4229.948	2420
4231.486	2461
4233.024	2385
4234.562	2425
4236.098	2417
4237.634	2412
4239.169	2388
4240.705	2352
4242.241	2431
4243.776	2396
4245.31	2406
4246.844	2411
4248.378	2363
4249.911	2356
4251.445	2359
4252.978	2321
4254.51	2387
4256.042	2386
4257.574	2377
4259.107	2406
4260.638	2370
4262.169	2369
4263.699	2365
4265.228	2389
4266.759	2318
4268.289	2347
4269.818	2351
4271.345	2404
4272.874	2380
4274.402	2364
4275.931	2341
4277.458	2389
4278.985	2319
4280.512	2349
4282.037	2372
4283.564	2357
4285.089	2312
4286.615	2387
4288.139	2349
4289.664	2333
4291.187	2327
4292.712	2300
4294.235	2343
4295.759	2361
4297.281	2357
4298.804	2299
4300.327	2333
4301.849	2323
4303.37	2358
4304.891	2287
4306.412	2312
4307.933	2338
4309.453	2287
4310.973	2331
4312.492	2318
