398.1873	2994
400.7097	3017
403.2336	3028
405.7547	3067
408.2751	3021
410.7948	3118
413.3138	3100
415.83	3182
418.3497	3162
420.8666	3174
423.3829	3165
425.8985	3187
428.4133	3198
430.9275	3239
433.441	3188
435.9538	3183
438.4639	3241
440.9753	3230
443.4881	3198
445.9982	3210
448.5055	3343
451.0142	3215
453.5201	3301
456.0274	3221
458.5361	3254
461.04	3195
463.5453	3296
466.0478	3172
468.5517	3207
471.0549	3222
473.5574	3248
476.0572	3249
478.5584	3328
481.0568	3276
483.5545	3309
486.0557	3271
488.5521	3367
491.0478	3313
493.5449	3409
496.0392	3347
498.5349	3398
501.0299	3359
503.5222	3278
506.0139	3310
508.5048	3350
510.9991	3342
513.4887	3427
515.9777	3334
518.4659	3329
520.9534	3328
523.4403	3349
525.9306	3354
528.4161	3452
530.9009	3329
533.3851	3399
535.8687	3364
538.3535	3425
540.8356	3435
543.3171	3386
545.7979	3425
548.278	3433
550.7595	3363
553.2383	3349
555.7144	3451
558.1918	3307
560.6685	3397
563.1446	3400
565.6221	3382
568.0968	3425
570.5688	3451
573.0422	3516
575.515	3473
577.989	3545
580.4584	3434
582.9291	3427
585.3991	3460
587.8685	3479
590.3352	3485
592.8052	3508
595.2706	3498
597.7372	3433
600.2033	3478
602.6666	3406
605.1334	3541
607.5953	3546
610.0587	3535
612.5193	3476
614.9814	3455
617.4427	3457
619.9034	3407
622.3615	3485
624.8208	3484
627.2775	3386
629.7335	3457
632.1929	3427
634.6476	3497
637.1016	3471
639.5569	3458
642.0096	3531
644.4637	3456
646.9151	3499
649.3678	3440
651.8179	3429
654.2672	3514
656.7159	3544
659.166	3531
661.6154	3528
664.0622	3506
666.5082	3563
668.9537	3583
671.4005	3530
673.8445	3580
676.288	3584
678.7308	3602
681.1729	3542
683.6163	3584
686.0572	3616
688.4973	3648
690.9368	3583
693.3757	3563
695.8138	3567
698.2534	3630
700.6902	3674
703.1245	3707
705.56	3594
707.9949	3589
710.4311	3631
712.8647	3667
715.2957	3657
717.7279	3714
720.1595	3685
722.5905	3721
725.0208	3732
727.4505	3700
729.8795	3657
732.3058	3599
734.7336	3703
737.1626	3774
739.587	3719
742.0128	3773
744.4359	3793
746.8604	3751
749.2841	3788
751.7073	3740
754.1278	3781
756.5496	3905
758.9688	3813
761.3893	3816
763.8093	3776
766.2285	3765
768.6451	3856
771.0611	3837
773.4784	3788
775.895	3804
778.3091	3846
780.7244	3810
783.1371	3773
785.5493	3803
787.9626	3842
790.3754	3844
792.7856	3882
795.1951	3807
797.6039	3856
800.0121	3902
802.4236	3889
804.8306	3843
807.2369	3963
809.6425	3888
812.0475	3853
814.4538	3853
816.8575	3843
819.2606	3911
821.663	3878
824.0648	3928
826.4659	3820
828.8683	3901
831.2682	3826
833.6674	3895
836.066	3865
838.4639	3869
840.8632	3921
843.2579	3976
845.6539	3885
848.0493	3973
850.444	3952
852.84	3917
855.2315	3961
857.6243	3984
860.0165	3933
862.4081	3914
864.797	3973
867.1892	3848
869.5789	3886
871.9659	3946
874.3542	3944
876.74	3929
879.129	3955
881.5155	3915
883.8994	3916
886.2845	3968
888.6671	3964
891.051	3925
893.4343	3973
895.8169	3918
898.197	3871
900.5783	4003
902.9571	3874
905.3372	3993
907.7167	3961
910.0936	4013
912.4698	3919
914.8474	3983
917.2244	3984
919.5987	4093
921.9744	4069
924.3475	4173
926.72	4162
929.0918	4091
931.4669	4096
933.8375	4136
936.2074	4133
938.5767	4111
940.9454	4094
943.3154	4208
945.6829	4093
948.0497	4249
950.4178	4260
952.7833	4402
955.1483	4396
957.5145	4516
959.8782	4562
962.2412	4627
964.6036	4497
966.9655	4451
969.3266	4379
971.6871	4184
974.0471	4231
976.4064	4149
978.765	4172
981.125	4063
983.4824	4067
985.8373	4127
988.1935	4002
990.549	4126
992.9039	4067
995.2602	4077
997.6119	4057
999.965	4085
1002.317	4143
1004.667	4058
1007.02	4116
1009.371	4088
1011.719	3995
1014.068	4036
1016.415	4088
1018.765	4138
1021.111	4043
1023.458	4115
1025.804	4112
1028.147	4192
1030.49	4101
1032.837	4032
1035.179	4131
1037.522	4234
1039.862	4128
1042.204	4075
1044.546	4109
1046.884	4150
1049.224	4110
1051.562	4140
1053.899	4200
1056.237	4146
1058.575	4166
1060.91	4280
1063.244	4148
1065.58	4210
1067.913	4097
1070.248	4210
1072.579	4259
1074.911	4212
1077.242	4234
1079.572	4058
1081.905	4283
1084.234	4173
1086.562	4155
1088.89	4189
1091.217	4114
1093.544	4211
1095.871	4158
1098.197	4152
1100.521	4267
1102.845	4273
1105.169	4166
1107.491	4227
1109.814	4141
1112.135	4242
1114.456	4256
1116.776	4310
1119.096	4235
1121.415	4198
1123.734	4248
1126.052	4240
1128.369	4243
1130.686	4263
1133.002	4240
1135.318	4239
1137.632	4230
1139.945	4194
1142.258	4220
1144.573	4291
1146.884	4202
1149.196	4290
1151.505	4354
1153.816	4218
1156.124	4185
1158.435	4192
1160.742	4195
1163.051	4259
1165.356	4202
1167.663	4233
1169.97	4177
1172.276	4254
1174.579	4192
1176.881	4203
1179.186	4181
1181.487	4291
1183.79	4183
1186.092	4286
1188.392	4265
1190.691	4263
1192.991	4264
1195.291	4233
1197.588	4242
1199.885	4166
1202.181	4234
1204.479	4308
1206.775	4220
1209.07	4314
1211.363	4226
1213.656	4217
1215.949	4208
1218.241	4338
1220.534	4294
1222.825	4334
1225.115	4319
1227.405	4355
1229.693	4256
1231.984	4319
1234.271	4324
1236.558	4411
1238.845	4279
1241.131	4371
1243.416	4374
1245.703	4405
1247.987	4363
1250.269	4461
1252.552	4417
1254.834	4383
1257.118	4383
1259.399	4379
1261.678	4393
1263.958	4307
1266.237	4310
1268.516	4445
1270.794	4405
1273.072	4403
1275.347	4368
1277.624	4411
1279.899	4477
1282.175	4460
1284.449	4385
1286.722	4355
1288.995	4353
1291.266	4459
1293.54	4409
1295.81	4488
1298.081	4325
1300.35	4392
1302.62	4317
1304.889	4405
1307.156	4292
1309.425	4417
1311.69	4332
1313.957	4477
1316.222	4293
1318.488	4440
1320.751	4314
1323.016	4386
1325.278	4317
1327.54	4462
1329.803	4320
1332.065	4416
1334.325	4338
1336.584	4400
1338.843	4453
1341.101	4399
1343.36	4384
1345.617	4373
1347.876	4428
1350.131	4424
1352.387	4389
1354.643	4432
1356.897	4449
1359.151	4447
1361.403	4357
1363.656	4399
1365.909	4376
1368.16	4436
1370.409	4373
1372.659	4496
1374.909	4487
1377.157	4467
1379.407	4403
1381.655	4411
1383.9	4528
1386.147	4429
1388.393	4445
1390.64	4545
1392.885	4652
1395.127	4550
1397.37	4633
1399.614	4617
1401.854	4576
1404.098	4563
1406.339	4530
1408.578	4584
1410.818	4468
1413.056	4553
1415.297	4509
1417.533	4486
1419.771	4433
1422.006	4614
1424.243	4518
1426.479	4498
1428.715	4542
1430.948	4691
1433.182	4594
1435.414	4616
1437.647	4537
1439.88	4558
1442.11	4583
1444.342	4571
1446.571	4609
1448.799	4568
1451.029	4643
1453.258	4664
1455.485	4590
1457.711	4560
1459.937	4654
1462.164	4550
1464.39	4559
1466.614	4516
1468.838	4564
1471.06	4488
1473.283	4528
1475.506	4559
1477.727	4501
1479.949	4526
1482.169	4419
1484.389	4512
1486.609	4393
1488.828	4436
1491.045	4428
1493.261	4505
1495.477	4434
1497.693	4447
1499.91	4512
1502.125	4461
1504.339	4494
1506.553	4499
1508.766	4419
1510.979	4407
1513.191	4423
1515.402	4456
1517.613	4432
1519.823	4470
1522.033	4414
1524.242	4432
1526.451	4403
1528.657	4516
1530.865	4390
1533.072	4458
1535.278	4536
1537.484	4433
1539.687	4482
1541.892	4457
1544.096	4556
1546.299	4514
1548.502	4432
1550.703	4380
1552.905	4529
1555.104	4527
1557.303	4585
1559.505	4506
1561.703	4578
1563.902	4546
1566.099	4556
1568.295	4622
1570.494	4555
1572.689	4498
1574.883	4578
1577.079	4559
1579.272	4707
1581.467	4677
1583.659	4615
1585.853	4581
1588.044	4590
1590.234	4570
1592.424	4611
1594.615	4637
1596.806	4542
1598.994	4533
1601.182	4627
1603.369	4709
1605.557	4672
1607.744	4670
1609.929	4661
1612.114	4588
1614.298	4612
1616.482	4663
1618.667	4656
1620.85	4656
1623.032	4647
1625.214	4576
1627.395	4619
1629.575	4572
1631.755	4686
1633.935	4679
1636.114	4652
1638.292	4674
1640.471	4703
1642.647	4754
1644.823	4660
1647	4677
1649.175	4649
1651.348	4653
1653.525	4686
1655.698	4658
1657.87	4714
1660.043	4573
1662.213	4764
1664.387	4746
1666.558	4721
1668.727	4788
1670.896	4787
1673.064	4750
1675.233	4687
1677.401	4773
1679.569	4696
1681.735	4692
1683.902	4756
1686.066	4661
1688.233	4643
1690.397	4670
1692.559	4674
1694.723	4613
1696.885	4748
1699.048	4681
1701.21	4729
1703.37	4805
1705.53	4723
1707.689	4659
1709.849	4681
1712.009	4664
1714.166	4607
1716.323	4646
1718.479	4641
1720.634	4609
1722.793	4681
1724.948	4616
1727.102	4721
1729.255	4744
1731.408	4718
1733.562	4693
1735.714	4694
1737.865	4699
1740.016	4676
1742.166	4658
1744.316	4755
1746.467	4853
1748.616	4719
1750.764	4668
1752.911	4706
1755.056	4710
1757.205	4692
1759.35	4752
1761.496	4674
1763.641	4716
1765.785	4768
1767.927	4711
1770.072	4703
1772.214	4774
1774.355	4784
1776.496	4730
1778.637	4781
1780.778	4732
1782.918	4764
1785.057	4830
1787.194	4727
1789.333	4718
1791.472	4690
1793.608	4775
1795.745	4797
1797.879	4844
1800.015	4619
1802.148	4760
1804.284	4644
1806.417	4683
1808.548	4822
1810.682	4798
1812.812	4810
1814.946	4740
1817.075	4749
1819.205	4708
1821.335	4729
1823.463	4846
1825.59	4751
1827.721	4705
1829.847	4726
1831.973	4718
1834.098	4699
1836.223	4763
1838.351	4714
1840.475	4776
1842.598	4746
1844.721	4828
1846.843	4764
1848.966	4675
1851.087	4751
1853.21	4774
1855.33	4686
1857.449	4738
1859.568	4788
1861.688	4859
1863.806	4783
1865.924	4799
1868.039	4709
1870.155	4715
1872.273	4767
1874.388	4718
1876.503	4770
1878.617	4736
1880.73	4830
1882.844	4771
1884.956	4752
1887.068	4774
1889.18	4825
1891.291	4821
1893.4	4830
1895.511	4796
1897.621	4871
1899.73	4880
1901.837	4754
1903.944	4851
1906.053	4780
1908.159	4844
1910.265	4861
1912.369	4863
1914.474	4943
1916.577	4948
1918.683	4903
1920.785	4827
1922.888	4922
1924.989	4896
1927.091	4891
1929.193	4843
1931.294	4874
1933.393	4848
1935.493	4879
1937.59	4946
1939.689	4919
1941.788	4863
1943.884	4945
1945.98	4854
1948.077	4956
1950.171	4817
1952.267	4899
1954.361	4876
1956.455	4924
1958.548	4881
1960.64	4955
1962.733	4952
1964.824	4946
1966.915	4866
1969.005	4875
1971.096	4974
1973.185	4955
1975.275	4930
1977.363	4931
1979.45	4882
1981.537	4892
1983.623	4873
1985.711	4948
1987.796	4931
1989.881	4768
1991.965	4973
1994.047	4853
1996.132	4844
1998.215	4875
2000.297	4934
2002.378	4982
2004.46	4938
2006.54	4859
2008.62	4921
2010.7	4974
2012.779	4993
2014.858	4838
2016.934	4888
2019.013	4827
2021.09	4824
2023.165	4924
2025.241	4920
2027.317	4788
2029.39	4885
2031.466	4887
2033.538	4996
2035.612	4861
2037.683	4905
2039.755	4818
2041.827	4862
2043.898	4890
2045.968	4889
2048.038	4913
2050.106	4906
2052.177	4770
2054.244	4919
2056.313	4814
2058.379	4894
2060.444	4878
2062.511	4931
2064.577	4861
2066.641	4953
2068.705	4907
2070.77	5059
2072.832	4924
2074.896	5029
2076.958	4995
2079.02	4960
2081.081	4895
2083.141	4916
2085.2	4890
2087.261	4804
2089.319	4910
2091.377	4946
2093.435	4881
2095.492	4900
2097.552	4986
2099.607	4892
2101.663	4867
2103.718	4930
2105.771	4942
2107.826	4817
2109.879	4902
2111.932	4883
2113.985	4908
2116.037	4836
2118.088	4989
2120.141	4897
2122.191	4957
2124.239	4884
2126.288	4868
2128.337	4976
2130.387	4958
2132.434	4951
2134.481	4939
2136.528	4909
2138.574	4905
2140.618	4894
2142.665	4946
2144.71	4918
2146.753	4981
2148.797	4859
2150.838	4904
2152.883	4884
2154.923	5004
2156.965	4897
2159.007	4857
2161.046	4915
2163.086	4878
2165.126	4824
2167.163	4930
2169.202	4831
2171.239	4908
2173.277	4967
2175.314	4791
2177.349	4886
2179.385	4768
2181.42	4778
2183.453	4891
2185.49	4818
2187.522	4846
2189.555	4794
2191.586	4866
2193.619	4837
2195.651	4843
2197.682	4821
2199.711	4806
2201.74	4893
2203.769	4794
2205.799	4806
2207.828	4906
2209.855	4813
2211.882	4784
2213.908	4876
2215.934	4782
2217.961	4788
2219.986	4786
2222.01	4752
2224.034	4789
2226.057	4918
2228.08	4792
2230.104	4796
2232.124	4838
2234.145	4770
2236.166	4946
2238.186	4807
2240.207	4705
2242.227	4879
2244.244	4861
2246.262	4734
2248.28	4835
2250.299	4858
2252.314	4815
2254.33	4767
2256.346	4807
2258.36	4753
2260.375	4835
2262.391	4734
2264.403	4774
2266.416	4739
2268.427	4870
2270.44	4767
2272.453	4814
2274.463	4841
2276.474	4826
2278.483	4865
2280.493	4865
2282.501	4800
2284.51	4798
2286.518	4778
2288.524	4826
2290.532	4777
2292.537	4855
2294.544	4820
2296.55	4831
2298.554	4801
2300.557	4836
2302.562	4801
2304.566	4802
2306.568	4766
2308.569	4844
2310.572	4843
2312.573	4799
2314.573	4833
2316.574	4866
2318.573	4781
2320.571	4878
2322.571	4821
2324.569	4799
2326.567	4704
2328.564	4796
2330.56	4745
2332.556	4803
2334.551	4800
2336.546	4737
2338.542	4773
2340.535	4824
2342.529	4775
2344.521	4815
2346.512	4764
2348.505	4718
2350.497	4798
2352.487	4766
2354.478	4781
2356.468	4676
2358.457	4672
2360.446	4757
2362.434	4790
2364.422	4665
2366.408	4751
2368.395	4714
2370.383	4816
2372.369	4625
2374.353	4815
2376.338	4736
2378.321	4744
2380.307	4657
2382.29	4785
2384.272	4817
2386.254	4761
2388.235	4704
2390.218	4822
2392.198	4683
2394.179	4716
2396.157	4719
2398.137	4707
2400.115	4724
2402.095	4692
2404.072	4698
2406.048	4739
2408.026	4727
2410.001	4711
2411.977	4739
2413.953	4744
2415.927	4689
2417.9	4687
2419.875	4765
2421.847	4743
2423.821	4687
2425.792	4717
2427.763	4718
2429.736	4657
2431.706	4701
2433.677	4748
2435.646	4701
2437.615	4708
2439.583	4637
2441.551	4743
2443.519	4671
2445.486	4665
2447.452	4695
2449.418	4633
2451.383	4673
2453.348	4745
2455.314	4667
2457.278	4669
2459.241	4677
2461.205	4650
2463.167	4715
2465.131	4611
2467.091	4707
2469.052	4606
2471.012	4614
2472.972	4712
2474.932	4637
2476.891	4757
2478.85	4697
2480.808	4545
2482.766	4646
2484.722	4629
2486.68	4592
2488.636	4690
2490.591	4599
2492.546	4651
2494.5	4680
2496.456	4657
2498.41	4710
2500.362	4613
2502.315	4577
2504.266	4618
2506.218	4608
2508.169	4611
2510.121	4610
2512.07	4650
2514.019	4698
2515.968	4590
2517.918	4588
2519.866	4618
2521.813	4702
2523.76	4633
2525.707	4593
2527.653	4653
2529.599	4623
2531.543	4645
2533.489	4625
2535.433	4621
2537.376	4593
2539.32	4659
2541.264	4569
2543.205	4634
2545.147	4662
2547.087	4638
2549.029	4581
2550.969	4642
2552.908	4638
2554.847	4668
2556.786	4573
2558.724	4645
2560.663	4694
2562.6	4635
2564.537	4716
2566.473	4677
2568.408	4673
2570.345	4603
2572.28	4675
2574.214	4674
2576.148	4655
2578.081	4654
2580.014	4569
2581.947	4694
2583.879	4652
2585.81	4694
2587.741	4663
2589.67	4592
2591.602	4648
2593.532	4728
2595.461	4617
2597.388	4632
2599.316	4605
2601.244	4604
2603.172	4604
2605.098	4737
2607.023	4641
2608.949	4676
2610.873	4609
2612.8	4681
2614.723	4704
2616.647	4531
2618.569	4661
2620.493	4712
2622.416	4713
2624.338	4628
2626.258	4697
2628.179	4636
2630.099	4626
2632.019	4723
2633.939	4750
2635.857	4567
2637.775	4645
2639.694	4639
2641.61	4729
2643.528	4678
2645.444	4625
2647.361	4656
2649.276	4785
2651.19	4727
2653.105	4644
2655.019	4762
2656.934	4667
2658.846	4649
2660.758	4627
2662.67	4609
2664.583	4649
2666.493	4659
2668.404	4671
2670.313	4710
2672.223	4632
2674.134	4666
2676.042	4719
2677.95	4740
2679.858	4617
2681.765	4660
2683.673	4705
2685.579	4654
2687.483	4672
2689.389	4575
2691.294	4693
2693.198	4575
2695.104	4593
2697.006	4674
2698.909	4610
2700.811	4587
2702.713	4642
2704.615	4643
2706.516	4559
2708.417	4730
2710.316	4648
2712.216	4665
2714.115	4744
2716.014	4582
2717.913	4610
2719.81	4569
2721.707	4494
2723.603	4679
2725.501	4623
2727.396	4526
2729.292	4623
2731.186	4668
2733.081	4612
2734.976	4619
2736.87	4588
2738.762	4592
2740.653	4616
2742.546	4603
2744.437	4552
2746.329	4572
2748.22	4549
2750.11	4705
2751.999	4506
2753.889	4644
2755.778	4615
2757.666	4603
2759.553	4682
2761.44	4560
2763.328	4569
2765.215	4653
2767.101	4630
2768.986	4571
2770.87	4574
2772.754	4630
2774.638	4680
2776.523	4668
2778.405	4570
2780.288	4638
2782.17	4555
2784.051	4527
2785.934	4635
2787.814	4546
2789.694	4587
2791.574	4556
2793.453	4614
2795.332	4608
2797.212	4573
2799.088	4545
2800.966	4556
2802.843	4469
2804.719	4569
2806.597	4584
2808.471	4636
2810.346	4616
2812.221	4530
2814.094	4562
2815.969	4661
2817.843	4540
2819.714	4505
2821.587	4584
2823.459	4551
2825.329	4535
2827.202	4630
2829.072	4592
2830.942	4604
2832.811	4483
2834.68	4528
2836.549	4583
2838.418	4541
2840.284	4685
2842.152	4592
2844.018	4617
2845.885	4644
2847.751	4713
2849.616	4668
2851.482	4638
2853.345	4667
2855.208	4662
2857.074	4674
2858.937	4585
2860.799	4679
2862.66	4602
2864.522	4648
2866.385	4678
2868.245	4699
2870.104	4806
2871.964	4674
2873.824	4792
2875.683	4731
2877.542	4786
2879.4	4931
2881.257	4817
2883.114	4991
2884.97	4882
2886.827	4858
2888.683	4848
2890.537	4854
2892.392	4992
2894.246	4813
2896.1	4906
2897.954	4934
2899.807	4894
2901.66	4977
2903.51	4827
2905.362	4920
2907.214	4909
2909.065	4905
2910.915	4890
2912.765	4832
2914.613	4970
2916.463	4920
2918.311	4923
2920.158	4983
2922.006	4903
2923.853	5087
2925.698	4956
2927.546	5087
2929.392	5061
2931.236	4999
2933.081	4997
2934.924	5188
2936.77	5140
2938.613	5167
2940.455	5214
2942.298	5207
2944.139	5210
2945.982	5276
2947.823	5198
2949.662	5256
2951.503	5267
2953.342	5203
2955.182	5207
2957.021	5185
2958.858	5122
2960.697	5067
2962.534	5128
2964.37	5118
2966.207	4972
2968.044	5000
2969.879	4862
2971.714	5009
2973.548	4799
2975.383	4818
2977.218	4880
2979.051	4846
2980.883	4751
2982.715	4736
2984.547	4836
2986.379	4717
2988.21	4757
2990.04	4573
2991.87	4653
2993.7	4655
2995.53	4696
2997.359	4609
2999.187	4672
3001.015	4532
3002.842	4519
3004.669	4520
3006.497	4563
3008.323	4500
3010.148	4584
3011.974	4440
3013.797	4497
3015.623	4539
3017.447	4442
3019.27	4462
3021.094	4501
3022.915	4434
3024.737	4490
3026.56	4465
3028.38	4520
3030.201	4451
3032.022	4515
3033.84	4455
3035.662	4357
3037.481	4347
3039.298	4337
3041.117	4429
3042.933	4379
3044.752	4391
3046.568	4446
3048.385	4427
3050.2	4411
3052.016	4440
3053.83	4398
3055.646	4396
3057.46	4324
3059.272	4416
3061.086	4401
3062.898	4377
3064.711	4451
3066.524	4367
3068.335	4331
3070.145	4397
3071.956	4477
3073.766	4410
3075.576	4402
3077.385	4392
3079.193	4314
3081.002	4418
3082.81	4254
3084.618	4348
3086.425	4355
3088.231	4380
3090.036	4342
3091.842	4314
3093.648	4305
3095.452	4307
3097.257	4334
3099.06	4231
3100.863	4336
3102.666	4265
3104.47	4283
3106.272	4221
3108.073	4276
3109.875	4238
3111.676	4307
3113.477	4178
3115.277	4275
3117.077	4317
3118.874	4247
3120.673	4217
3122.473	4329
3124.271	4288
3126.066	4222
3127.863	4241
3129.66	4257
3131.456	4191
3133.252	4182
3135.047	4212
3136.842	4216
3138.635	4210
3140.429	4205
3142.223	4255
3144.016	4290
3145.808	4162
3147.6	4152
3149.392	4200
3151.183	4224
3152.975	4190
3154.765	4199
3156.553	4081
3158.344	4290
3160.132	4187
3161.922	4149
3163.71	4190
3165.497	4201
3167.285	4226
3169.071	4115
3170.858	4125
3172.645	4146
3174.429	4217
3176.214	4117
3177.998	4143
3179.783	4197
3181.568	4129
3183.351	4176
3185.133	4206
3186.915	4149
3188.698	4140
3190.481	4241
3192.261	4078
3194.042	4142
3195.822	4159
3197.601	4090
3199.381	4070
3201.161	4242
3202.939	4226
3204.717	4187
3206.495	4237
3208.272	4083
3210.05	4106
3211.826	4145
3213.602	4074
3215.376	4196
3217.151	4147
3218.927	4107
3220.702	4059
3222.476	4139
3224.249	4142
3226.021	4140
3227.793	4100
3229.567	4137
3231.339	4112
3233.109	4082
3234.88	4118
3236.651	4087
3238.421	4024
3240.191	4042
3241.96	4089
3243.728	4130
3245.497	4112
3247.263	4133
3249.033	4108
3250.799	4069
3252.566	4141
3254.331	4114
3256.097	4073
3257.863	4155
3259.628	4134
3261.392	4140
3263.156	4067
3264.919	4071
3266.683	4085
3268.447	4147
3270.208	4070
3271.969	4053
3273.731	4163
3275.492	4140
3277.253	4112
3279.013	4160
3280.773	4084
3282.532	4097
3284.291	4100
3286.05	4034
3287.808	4148
3289.566	4091
3291.323	4163
3293.079	4041
3294.835	4060
3296.593	4092
3298.348	4136
3300.102	4044
3301.857	4119
3303.611	4138
3305.366	4037
3307.119	4088
3308.872	4109
3310.624	4127
3312.376	4164
3314.129	4055
3315.881	4046
3317.631	4147
3319.38	4116
3321.13	4055
3322.88	4138
3324.631	4129
3326.379	4046
3328.126	4150
3329.875	4054
3331.622	4051
3333.371	4035
3335.116	4054
3336.863	4113
3338.609	4101
3340.353	4061
3342.1	4133
3343.845	4038
3345.588	4099
3347.332	4091
3349.074	4032
3350.817	4093
3352.56	4025
3354.303	4093
3356.043	3910
3357.785	4129
3359.525	4144
3361.268	4044
3363.007	4048
3364.745	4023
3366.485	4040
3368.223	4081
3369.962	4047
3371.701	3949
3373.438	3945
3375.174	3975
3376.911	4023
3378.647	4003
3380.384	3996
3382.118	4098
3383.854	3987
3385.588	4015
3387.322	4019
3389.057	4050
3390.79	3982
3392.522	4021
3394.255	3979
3395.987	3981
3397.719	3953
3399.451	4051
3401.181	3974
3402.911	3981
3404.641	3979
3406.371	3997
3408.101	4058
3409.83	3986
3411.558	3939
3413.285	3974
3415.011	3923
3416.739	3942
3418.467	3874
3420.193	3906
3421.919	3977
3423.644	4049
3425.368	3949
3427.094	4033
3428.818	3901
3430.542	3944
3432.264	3918
3433.987	3872
3435.712	3940
3437.434	3885
3439.155	3912
3440.876	3934
3442.596	3891
3444.317	3891
3446.039	3854
3447.757	3842
3449.477	3895
3451.195	3891
3452.914	3843
3454.632	3995
3456.35	3908
3458.067	3908
3459.784	3773
3461.5	3795
3463.216	3834
3464.932	3695
3466.647	3872
3468.362	3856
3470.076	3883
3471.789	3819
3473.505	3843
3475.217	3814
3476.929	3855
3478.641	3821
3480.354	3756
3482.066	3802
3483.777	3764
3485.487	3862
3487.197	3838
3488.908	3785
3490.617	3828
3492.327	3725
3494.035	3890
3495.743	3796
3497.451	3804
3499.158	3786
3500.866	3806
3502.572	3725
3504.278	3788
3505.984	3735
3507.689	3809
3509.396	3807
3511.1	3731
3512.804	3831
3514.508	3804
3516.211	3778
3517.913	3724
3519.616	3809
3521.319	3850
3523.021	3796
3524.722	3735
3526.422	3722
3528.124	3770
3529.824	3744
3531.524	3706
3533.222	3608
3534.921	3703
3536.62	3773
3538.318	3670
3540.016	3743
3541.714	3767
3543.41	3692
3545.107	3730
3546.803	3738
3548.5	3704
3550.194	3720
3551.889	3698
3553.583	3733
3555.279	3748
3556.972	3715
3558.666	3729
3560.358	3713
3562.051	3722
3563.742	3720
3565.435	3793
3567.126	3677
3568.817	3675
3570.507	3670
3572.197	3642
3573.888	3617
3575.577	3755
3577.265	3591
3578.954	3638
3580.642	3656
3582.329	3631
3584.017	3669
3585.704	3618
3587.391	3638
3589.077	3645
3590.762	3644
3592.449	3717
3594.133	3641
3595.817	3542
3597.501	3608
3599.185	3627
3600.869	3600
3602.552	3518
3604.234	3606
3605.916	3602
3607.598	3505
3609.279	3545
3610.961	3519
3612.642	3560
3614.321	3590
3616	3566
3617.68	3619
3619.36	3601
3621.039	3521
3622.716	3472
3624.394	3552
3626.071	3545
3627.748	3521
3629.425	3457
3631.102	3519
3632.778	3593
3634.452	3539
3636.127	3499
3637.803	3503
3639.477	3519
3641.151	3505
3642.823	3504
3644.497	3495
3646.171	3613
3647.842	3497
3649.515	3468
3651.185	3595
3652.857	3430
3654.527	3489
3656.198	3524
3657.868	3482
3659.537	3504
3661.207	3448
3662.875	3399
3664.544	3438
3666.212	3472
3667.879	3467
3669.546	3478
3671.212	3486
3672.88	3429
3674.546	3493
3676.211	3495
3677.875	3514
3679.541	3438
3681.205	3497
3682.87	3429
3684.533	3475
3686.196	3449
3687.859	3385
3689.521	3425
3691.184	3439
3692.845	3374
3694.507	3454
3696.167	3485
3697.827	3384
3699.487	3435
3701.148	3489
3702.808	3392
3704.466	3443
3706.125	3412
3707.783	3403
3709.442	3495
3711.099	3407
3712.757	3487
3714.412	3463
3716.068	3361
3717.725	3437
3719.381	3337
3721.036	3381
3722.689	3427
3724.344	3319
3725.998	3339
3727.652	3363
3729.305	3405
3730.958	3425
3732.61	3353
3734.262	3407
3735.915	3424
3737.565	3406
3739.217	3396
3740.866	3399
3742.516	3430
3744.165	3373
3745.816	3458
3747.464	3307
3749.113	3446
3750.761	3334
3752.409	3392
3754.057	3393
3755.703	3340
3757.35	3327
3758.996	3322
3760.641	3380
3762.289	3373
3763.933	3331
3765.577	3331
3767.222	3398
3768.865	3353
3770.508	3304
3772.152	3304
3773.796	3277
3775.438	3312
3777.079	3300
3778.721	3363
3780.363	3402
3782.003	3329
3783.643	3396
3785.283	3322
3786.923	3340
3788.563	3287
3790.203	3291
3791.841	3255
3793.479	3299
3795.115	3252
3796.753	3302
3798.391	3326
3800.027	3366
3801.664	3354
3803.299	3256
3804.935	3267
3806.571	3275
3808.206	3251
3809.839	3226
3811.473	3367
3813.107	3312
3814.74	3199
3816.375	3310
3818.006	3313
3819.638	3298
3821.27	3248
3822.9	3285
3824.532	3243
3826.163	3287
3827.792	3127
3829.423	3225
3831.051	3181
3832.682	3230
3834.311	3231
3835.938	3281
3837.566	3246
3839.193	3213
3840.821	3202
3842.448	3233
3844.075	3245
3845.7	3180
3847.325	3128
3848.951	3208
3850.576	3201
3852.201	3224
3853.825	3255
3855.448	3194
3857.072	3140
3858.694	3169
3860.318	3205
3861.939	3143
3863.562	3195
3865.183	3159
3866.804	3207
3868.426	3156
3870.045	3160
3871.666	3140
3873.285	3131
3874.904	3147
3876.524	3222
3878.142	3184
3879.76	3113
3881.378	3179
3882.995	3155
3884.612	3175
3886.229	3135
3887.845	3188
3889.461	3204
3891.076	3138
3892.691	3184
3894.307	3125
3895.922	3186
3897.536	3101
3899.149	3202
3900.761	3138
3902.374	3231
3903.988	3075
3905.6	3164
3907.212	3121
3908.822	3155
3910.433	3110
3912.045	3134
3913.655	3213
3915.265	3146
3916.875	3197
3918.483	3117
3920.093	3135
3921.702	3019
3923.309	3137
3924.917	3112
3926.523	3089
3928.13	3145
3929.739	3096
3931.344	3059
3932.95	3073
3934.555	3033
3936.159	3160
3937.766	3111
3939.369	3092
3940.974	3096
3942.577	3076
3944.181	3147
3945.783	3076
3947.386	3072
3948.989	3096
3950.59	3120
3952.191	3052
3953.791	3093
3955.394	3069
3956.994	3060
3958.593	3094
3960.192	3062
3961.791	3062
3963.392	3025
3964.99	3014
3966.588	3080
3968.185	3109
3969.782	3124
3971.379	3056
3972.976	3102
3974.572	2957
3976.168	3035
3977.763	3054
3979.358	3029
3980.954	3004
3982.548	2999
3984.142	3062
3985.736	3032
3987.329	3008
3988.922	3036
3990.516	3014
3992.108	3121
3993.698	3031
3995.29	3004
3996.881	3000
3998.473	2956
4000.064	3021
4001.653	2981
4003.242	2938
4004.832	3026
4006.422	2996
4008.01	2991
4009.598	2936
4011.186	2932
4012.773	2958
4014.36	2920
4015.947	2966
4017.534	3002
4019.119	3015
4020.705	2927
4022.291	3008
4023.876	2888
4025.461	2918
4027.044	2968
4028.627	3030
4030.211	2898
4031.795	2921
4033.378	2902
4034.96	2930
4036.542	2903
4038.124	2947
4039.704	2912
4041.286	2949
4042.867	2929
4044.447	2897
4046.026	2934
4047.606	2910
4049.187	2880
4050.765	2923
4052.343	2901
4053.92	2921
4055.498	2933
4057.076	2936
4058.654	2907
4060.23	2921
4061.806	2843
4063.381	2860
4064.957	2838
4066.533	2845
4068.107	2920
4069.682	2902
4071.256	2903
4072.829	2872
4074.404	2845
4075.977	2922
4077.549	2779
4079.121	2825
4080.693	2866
4082.265	2837
4083.836	2838
4085.407	2860
4086.977	2858
4088.547	2805
4090.117	2855
4091.687	2822
4093.256	2824
4094.825	2779
4096.392	2790
4097.96	2763
4099.528	2873
4101.097	2866
4102.663	2817
4104.229	2860
4105.795	2774
4107.361	2791
4108.928	2752
4110.493	2795
4112.058	2841
4113.621	2787
4115.186	2856
4116.75	2793
4118.313	2902
4119.876	2813
4121.438	2833
4123	2821
4124.562	2794
4126.125	2798
4127.686	2775
4129.246	2781
4130.807	2760
4132.367	2676
4133.927	2805
4135.486	2786
4137.046	2733
4138.604	2798
4140.162	2752
4141.72	2782
4143.279	2784
4144.836	2757
4146.393	2781
4147.949	2789
4149.505	2777
4151.062	2789
4152.617	2750
4154.172	2750
4155.727	2770
4157.281	2664
4158.836	2690
4160.39	2764
4161.943	2714
4163.496	2692
4165.048	2697
4166.601	2650
4168.154	2698
4169.706	2792
4171.257	2745
4172.808	2723
4174.358	2682
4175.909	2683
4177.458	2700
4179.008	2677
4180.558	2724
4182.106	2680
4183.655	2650
4185.204	2719
4186.751	2702
4188.298	2682
4189.845	2670
4191.392	2660
4192.939	2635
4194.485	2665
4196.031	2642
4197.576	2641
4199.121	2704
4200.666	2681
4202.211	2626
4203.754	2652
4205.298	2626
4206.84	2704
4208.384	2648
4209.927	2655
4211.47	2642
4213.011	2688
4214.552	2598
4216.094	2708
4217.635	2659
4219.175	2673
4220.716	2659
4222.255	2654
4223.793	2622
4225.335	2717
4226.873	2686
4228.411	2691
4229.948	2685
4231.486	2584
4233.024	2694
4234.562	2576
4236.098	2591
4237.634	2620
4239.169	2666
4240.705	2577
4242.241	2568
4243.776	2588
4245.31	2591
4246.844	2593
4248.378	2556
4249.911	2588
4251.445	2592
4252.978	2617
4254.51	2614
4256.042	2639
4257.574	2596
4259.107	2570
4260.638	2598
4262.169	2579
4263.699	2592
4265.228	2552
4266.759	2624
4268.289	2656
4269.818	2598
4271.345	2609
4272.874	2582
4274.402	2572
4275.931	2568
4277.458	2568
4278.985	2564
4280.512	2606
4282.037	2561
4283.564	2578
4285.089	2546
4286.615	2466
4288.139	2526
4289.664	2520
4291.187	2571
4292.712	2545
4294.235	2606
4295.759	2570
4297.281	2511
4298.804	2622
4300.327	2555
4301.849	2574
4303.37	2619
4304.891	2535
4306.412	2590
4307.933	2526
4309.453	2528
4310.973	2500
4312.492	2532
