398.1873	3561
400.7097	3624
403.2336	3618
405.7547	3650
408.2751	3643
410.7948	3723
413.3138	3650
415.83	3662
418.3497	3707
420.8666	3723
423.3829	3789
425.8985	3780
428.4133	3836
430.9275	3856
433.441	3840
435.9538	3807
438.4639	3793
440.9753	3837
443.4881	3862
445.9982	3815
448.5055	3801
451.0142	3863
453.5201	3836
456.0274	3862
458.5361	3825
461.04	3798
463.5453	3863
466.0478	3847
468.5517	3884
471.0549	3744
473.5574	3881
476.0572	3940
478.5584	3816
481.0568	3893
483.5545	3792
486.0557	3885
488.5521	4003
491.0478	3858
493.5449	3925
496.0392	3900
498.5349	3903
501.0299	3945
503.5222	3871
506.0139	4052
508.5048	3912
510.9991	3976
513.4887	3931
515.9777	4030
518.4659	3995
520.9534	3847
523.4403	3931
525.9306	3970
528.4161	4091
530.9009	4004
533.3851	3897
535.8687	4015
538.3535	3968
540.8356	4021
543.3171	3987
545.7979	3999
548.278	4045
550.7595	4013
553.2383	4012
555.7144	4060
558.1918	4052
560.6685	3960
563.1446	4075
565.6221	4081
568.0968	4075
570.5688	4062
573.0422	4014
575.515	4064
577.989	4128
580.4584	4072
582.9291	4170
585.3991	4206
587.8685	4113
590.3352	4105
592.8052	4135
595.2706	4185
597.7372	4247
600.2033	4124
602.6666	4090
605.1334	4089
607.5953	4200
610.0587	4101
612.5193	4090
614.9814	4163
617.4427	4104
619.9034	4023
622.3615	4189
624.8208	4036
627.2775	4059
629.7335	4161
632.1929	4068
634.6476	4150
637.1016	4049
639.5569	4103
642.0096	4103
644.4637	4121
646.9151	4049
649.3678	4161
651.8179	4129
654.2672	4182
656.7159	4187
659.166	4130
661.6154	4179
664.0622	4183
666.5082	4270
668.9537	4172
671.4005	4271
673.8445	4199
676.288	4252
678.7308	4270
681.1729	4207
683.6163	4258
686.0572	4258
688.4973	4192
690.9368	4326
693.3757	4229
695.8138	4257
698.2534	4255
700.6902	4204
703.1245	4303
705.56	4181
707.9949	4221
710.4311	4265
712.8647	4309
715.2957	4259
717.7279	4244
720.1595	4337
722.5905	4398
725.0208	4340
727.4505	4410
729.8795	4315
732.3058	4414
734.7336	4390
737.1626	4430
739.587	4472
742.0128	4497
744.4359	4416
746.8604	4395
749.2841	4474
751.7073	4426
754.1278	4527
756.5496	4552
758.9688	4428
761.3893	4495
763.8093	4545
766.2285	4564
768.6451	4493
771.0611	4535
773.4784	4504
775.895	4531
778.3091	4618
780.7244	4599
783.1371	4575
785.5493	4542
787.9626	4505
790.3754	4540
792.7856	4581
795.1951	4561
797.6039	4477
800.0121	4472
802.4236	4548
804.8306	4617
807.2369	4578
809.6425	4677
812.0475	4476
814.4538	4631
816.8575	4673
819.2606	4647
821.663	4624
824.0648	4541
826.4659	4661
828.8683	4595
831.2682	4694
833.6674	4561
836.066	4623
838.4639	4588
840.8632	4593
843.2579	4683
845.6539	4647
848.0493	4719
850.444	4715
852.84	4629
855.2315	4735
857.6243	4672
860.0165	4689
862.4081	4601
864.797	4777
867.1892	4608
869.5789	4637
871.9659	4809
874.3542	4743
876.74	4659
879.129	4603
881.5155	4678
883.8994	4653
886.2845	4812
888.6671	4600
891.051	4753
893.4343	4650
895.8169	4676
898.197	4648
900.5783	4609
902.9571	4801
905.3372	4748
907.7167	4699
910.0936	4754
912.4698	4884
914.8474	4677
917.2244	4735
919.5987	4910
921.9744	4896
924.3475	4937
926.72	4901
929.0918	4887
931.4669	4893
933.8375	4865
936.2074	4995
938.5767	4825
940.9454	4878
943.3154	4978
945.6829	5014
948.0497	5152
950.4178	5250
952.7833	5317
955.1483	5533
957.5145	5659
959.8782	5741
962.2412	5653
964.6036	5574
966.9655	5548
969.3266	5415
971.6871	5194
974.0471	5044
976.4064	5058
978.765	4929
981.125	4924
983.4824	4846
985.8373	4944
988.1935	4866
990.549	4870
992.9039	4881
995.2602	4803
997.6119	4932
999.965	4901
1002.317	4885
1004.667	4824
1007.02	4896
1009.371	4894
1011.719	4882
1014.068	4807
1016.415	4814
1018.765	4993
1021.111	4868
1023.458	4848
1025.804	4987
1028.147	4842
1030.49	4904
1032.837	4894
1035.179	4962
1037.522	5065
1039.862	4896
1042.204	4957
1044.546	4938
1046.884	4974
1049.224	4970
1051.562	4889
1053.899	4995
1056.237	4871
1058.575	4919
1060.91	5025
1063.244	5026
1065.58	4963
1067.913	5083
1070.248	5077
1072.579	5069
1074.911	5085
1077.242	4956
1079.572	5074
1081.905	4977
1084.234	5000
1086.562	5005
1088.89	4988
1091.217	4952
1093.544	4976
1095.871	4970
1098.197	4925
1100.521	5003
1102.845	5020
1105.169	4911
1107.491	5027
1109.814	5026
1112.135	4983
1114.456	5006
1116.776	5050
1119.096	5097
1121.415	5000
1123.734	5034
1126.052	4983
1128.369	5122
1130.686	4992
1133.002	4896
1135.318	5070
1137.632	5067
1139.945	5025
1142.258	5077
1144.573	5008
1146.884	4995
1149.196	5037
1151.505	4994
1153.816	4975
1156.124	5005
1158.435	5038
1160.742	5062
1163.051	5066
1165.356	5030
1167.663	5197
1169.97	5069
1172.276	5091
1174.579	5125
1176.881	4974
1179.186	5041
1181.487	5105
1183.79	4999
1186.092	5029
1188.392	4942
1190.691	4990
1192.991	5016
1195.291	4986
1197.588	5074
1199.885	5098
1202.181	5044
1204.479	5094
1206.775	5038
1209.07	5079
1211.363	5036
1213.656	5116
1215.949	4946
1218.241	4968
1220.534	5036
1222.825	5065
1225.115	5156
1227.405	5177
1229.693	5103
1231.984	5119
1234.271	5218
1236.558	5115
1238.845	5156
1241.131	5300
1243.416	5161
1245.703	5222
1247.987	5302
1250.269	5273
1252.552	5201
1254.834	5357
1257.118	5178
1259.399	5285
1261.678	5248
1263.958	5245
1266.237	5182
1268.516	5284
1270.794	5147
1273.072	5296
1275.347	5228
1277.624	5201
1279.899	5177
1282.175	5194
1284.449	5192
1286.722	5232
1288.995	5067
1291.266	5093
1293.54	5235
1295.81	5298
1298.081	5054
1300.35	5127
1302.62	5119
1304.889	5160
1307.156	5205
1309.425	5091
1311.69	5195
1313.957	5172
1316.222	5200
1318.488	5123
1320.751	5141
1323.016	5192
1325.278	5130
1327.54	5194
1329.803	5258
1332.065	5165
1334.325	5232
1336.584	4982
1338.843	5116
1341.101	5140
1343.36	5219
1345.617	5179
1347.876	5210
1350.131	5105
1352.387	5196
1354.643	5214
1356.897	5171
1359.151	5219
1361.403	5217
1363.656	5092
1365.909	5198
1368.16	5261
1370.409	5217
1372.659	5138
1374.909	5243
1377.157	5200
1379.407	5285
1381.655	5233
1383.9	5223
1386.147	5319
1388.393	5336
1390.64	5244
1392.885	5355
1395.127	5278
1397.37	5168
1399.614	5411
1401.854	5329
1404.098	5336
1406.339	5298
1408.578	5362
1410.818	5316
1413.056	5338
1415.297	5385
1417.533	5287
1419.771	5321
1422.006	5399
1424.243	5399
1426.479	5338
1428.715	5360
1430.948	5358
1433.182	5386
1435.414	5316
1437.647	5364
1439.88	5439
1442.11	5448
1444.342	5455
1446.571	5442
1448.799	5455
1451.029	5440
1453.258	5506
1455.485	5471
1457.711	5411
1459.937	5454
1462.164	5451
1464.39	5392
1466.614	5503
1468.838	5282
1471.06	5358
1473.283	5400
1475.506	5364
1477.727	5253
1479.949	5453
1482.169	5311
1484.389	5362
1486.609	5340
1488.828	5249
1491.045	5364
1493.261	5308
1495.477	5295
1497.693	5294
1499.91	5286
1502.125	5293
1504.339	5371
1506.553	5363
1508.766	5294
1510.979	5288
1513.191	5330
1515.402	5316
1517.613	5380
1519.823	5267
1522.033	5336
1524.242	5235
1526.451	5225
1528.657	5299
1530.865	5303
1533.072	5216
1535.278	5316
1537.484	5211
1539.687	5245
1541.892	5388
1544.096	5312
1546.299	5249
1548.502	5229
1550.703	5297
1552.905	5281
1555.104	5219
1557.303	5373
1559.505	5379
1561.703	5376
1563.902	5319
1566.099	5339
1568.295	5369
1570.494	5445
1572.689	5440
1574.883	5480
1577.079	5425
1579.272	5431
1581.467	5401
1583.659	5375
1585.853	5470
1588.044	5342
1590.234	5406
1592.424	5443
1594.615	5451
1596.806	5428
1598.994	5479
1601.182	5437
1603.369	5517
1605.557	5406
1607.744	5455
1609.929	5441
1612.114	5551
1614.298	5512
1616.482	5448
1618.667	5530
1620.85	5462
1623.032	5483
1625.214	5471
1627.395	5436
1629.575	5530
1631.755	5545
1633.935	5549
1636.114	5568
1638.292	5474
1640.471	5500
1642.647	5569
1644.823	5482
1647	5586
1649.175	5543
1651.348	5492
1653.525	5510
1655.698	5520
1657.87	5605
1660.043	5494
1662.213	5589
1664.387	5510
1666.558	5607
1668.727	5525
1670.896	5667
1673.064	5567
1675.233	5629
1677.401	5507
1679.569	5527
1681.735	5612
1683.902	5466
1686.066	5562
1688.233	5439
1690.397	5591
1692.559	5500
1694.723	5515
1696.885	5541
1699.048	5452
1701.21	5481
1703.37	5451
1705.53	5572
1707.689	5460
1709.849	5401
1712.009	5486
1714.166	5547
1716.323	5486
1718.479	5487
1720.634	5500
1722.793	5523
1724.948	5441
1727.102	5490
1729.255	5537
1731.408	5535
1733.562	5453
1735.714	5424
1737.865	5650
1740.016	5531
1742.166	5451
1744.316	5602
1746.467	5526
1748.616	5597
1750.764	5496
1752.911	5462
1755.056	5645
1757.205	5480
1759.35	5500
1761.496	5538
1763.641	5468
1765.785	5563
1767.927	5554
1770.072	5547
1772.214	5553
1774.355	5578
1776.496	5493
1778.637	5533
1780.778	5518
1782.918	5490
1785.057	5568
1787.194	5510
1789.333	5642
1791.472	5513
1793.608	5703
1795.745	5560
1797.879	5655
1800.015	5604
1802.148	5564
1804.284	5597
1806.417	5554
1808.548	5693
1810.682	5572
1812.812	5654
1814.946	5664
1817.075	5652
1819.205	5705
1821.335	5634
1823.463	5603
1825.59	5543
1827.721	5473
1829.847	5456
1831.973	5565
1834.098	5533
1836.223	5556
1838.351	5580
1840.475	5515
1842.598	5550
1844.721	5580
1846.843	5569
1848.966	5491
1851.087	5545
1853.21	5511
1855.33	5528
1857.449	5570
1859.568	5618
1861.688	5480
1863.806	5556
1865.924	5433
1868.039	5615
1870.155	5552
1872.273	5519
1874.388	5533
1876.503	5492
1878.617	5590
1880.73	5499
1882.844	5614
1884.956	5532
1887.068	5662
1889.18	5570
1891.291	5617
1893.4	5535
1895.511	5525
1897.621	5539
1899.73	5629
1901.837	5545
1903.944	5668
1906.053	5580
1908.159	5684
1910.265	5696
1912.369	5683
1914.474	5631
1916.577	5656
1918.683	5621
1920.785	5597
1922.888	5597
1924.989	5701
1927.091	5635
1929.193	5742
1931.294	5746
1933.393	5622
1935.493	5610
1937.59	5586
1939.689	5612
1941.788	5684
1943.884	5713
1945.98	5649
1948.077	5724
1950.171	5659
1952.267	5624
1954.361	5639
1956.455	5601
1958.548	5763
1960.64	5625
1962.733	5606
1964.824	5696
1966.915	5628
1969.005	5671
1971.096	5578
1973.185	5656
1975.275	5687
1977.363	5641
1979.45	5534
1981.537	5717
1983.623	5708
1985.711	5692
1987.796	5776
1989.881	5692
1991.965	5628
1994.047	5438
1996.132	5645
1998.215	5569
2000.297	5610
2002.378	5634
2004.46	5565
2006.54	5575
2008.62	5670
2010.7	5645
2012.779	5629
2014.858	5571
2016.934	5614
2019.013	5618
2021.09	5648
2023.165	5677
2025.241	5673
2027.317	5603
2029.39	5538
2031.466	5734
2033.538	5632
2035.612	5643
2037.683	5578
2039.755	5659
2041.827	5717
2043.898	5584
2045.968	5685
2048.038	5724
2050.106	5641
2052.177	5699
2054.244	5701
2056.313	5658
2058.379	5642
2060.444	5737
2062.511	5647
2064.577	5812
2066.641	5642
2068.705	5643
2070.77	5691
2072.832	5669
2074.896	5792
2076.958	5655
2079.02	5662
2081.081	5728
2083.141	5649
2085.2	5611
2087.261	5672
2089.319	5591
2091.377	5651
2093.435	5713
2095.492	5598
2097.552	5685
2099.607	5678
2101.663	5733
2103.718	5804
2105.771	5695
2107.826	5792
2109.879	5750
2111.932	5567
2113.985	5712
2116.037	5709
2118.088	5734
2120.141	5764
2122.191	5691
2124.239	5692
2126.288	5700
2128.337	5645
2130.387	5682
2132.434	5722
2134.481	5760
2136.528	5708
2138.574	5680
2140.618	5724
2142.665	5658
2144.71	5620
2146.753	5806
2148.797	5626
2150.838	5734
2152.883	5654
2154.923	5728
2156.965	5618
2159.007	5624
2161.046	5561
2163.086	5700
2165.126	5557
2167.163	5663
2169.202	5780
2171.239	5627
2173.277	5594
2175.314	5623
2177.349	5518
2179.385	5640
2181.42	5630
2183.453	5625
2185.49	5601
2187.522	5633
2189.555	5681
2191.586	5625
2193.619	5603
2195.651	5639
2197.682	5663
2199.711	5558
2201.74	5662
2203.769	5616
2205.799	5640
2207.828	5625
2209.855	5656
2211.882	5538
2213.908	5629
2215.934	5536
2217.961	5654
2219.986	5575
2222.01	5641
2224.034	5480
2226.057	5594
2228.08	5594
2230.104	5552
2232.124	5599
2234.145	5547
2236.166	5597
2238.186	5618
2240.207	5604
2242.227	5651
2244.244	5448
2246.262	5606
2248.28	5575
2250.299	5567
2252.314	5581
2254.33	5609
2256.346	5630
2258.36	5648
2260.375	5661
2262.391	5550
2264.403	5628
2266.416	5622
2268.427	5561
2270.44	5614
2272.453	5588
2274.463	5616
2276.474	5555
2278.483	5604
2280.493	5571
2282.501	5677
2284.51	5624
2286.518	5631
2288.524	5676
2290.532	5653
2292.537	5539
2294.544	5595
2296.55	5567
2298.554	5681
2300.557	5545
2302.562	5563
2304.566	5530
2306.568	5704
2308.569	5515
2310.572	5578
2312.573	5654
2314.573	5533
2316.574	5542
2318.573	5529
2320.571	5515
2322.571	5639
2324.569	5515
2326.567	5601
2328.564	5603
2330.56	5525
2332.556	5601
2334.551	5486
2336.546	5642
2338.542	5469
2340.535	5518
2342.529	5422
2344.521	5641
2346.512	5584
2348.505	5525
2350.497	5524
2352.487	5527
2354.478	5556
2356.468	5463
2358.457	5574
2360.446	5610
2362.434	5643
2364.422	5518
2366.408	5495
2368.395	5496
2370.383	5535
2372.369	5537
2374.353	5496
2376.338	5586
2378.321	5571
2380.307	5534
2382.29	5415
2384.272	5434
2386.254	5478
2388.235	5457
2390.218	5546
2392.198	5414
2394.179	5463
2396.157	5579
2398.137	5396
2400.115	5402
2402.095	5417
2404.072	5537
2406.048	5559
2408.026	5524
2410.001	5548
2411.977	5513
2413.953	5449
2415.927	5435
2417.9	5469
2419.875	5448
2421.847	5443
2423.821	5582
2425.792	5419
2427.763	5376
2429.736	5426
2431.706	5460
2433.677	5435
2435.646	5444
2437.615	5414
2439.583	5485
2441.551	5444
2443.519	5567
2445.486	5426
2447.452	5429
2449.418	5478
2451.383	5544
2453.348	5534
2455.314	5422
2457.278	5339
2459.241	5569
2461.205	5482
2463.167	5355
2465.131	5443
2467.091	5484
2469.052	5426
2471.012	5350
2472.972	5484
2474.932	5437
2476.891	5374
2478.85	5394
2480.808	5317
2482.766	5377
2484.722	5360
2486.68	5365
2488.636	5422
2490.591	5384
2492.546	5437
2494.5	5448
2496.456	5422
2498.41	5348
2500.362	5366
2502.315	5345
2504.266	5421
2506.218	5465
2508.169	5439
2510.121	5334
2512.07	5482
2514.019	5398
2515.968	5434
2517.918	5393
2519.866	5518
2521.813	5459
2523.76	5375
2525.707	5398
2527.653	5342
2529.599	5382
2531.543	5391
2533.489	5422
2535.433	5366
2537.376	5477
2539.32	5416
2541.264	5402
2543.205	5365
2545.147	5338
2547.087	5393
2549.029	5392
2550.969	5386
2552.908	5402
2554.847	5388
2556.786	5445
2558.724	5375
2560.663	5433
2562.6	5402
2564.537	5424
2566.473	5348
2568.408	5409
2570.345	5395
2572.28	5404
2574.214	5443
2576.148	5353
2578.081	5393
2580.014	5394
2581.947	5390
2583.879	5487
2585.81	5359
2587.741	5469
2589.67	5461
2591.602	5436
2593.532	5375
2595.461	5411
2597.388	5462
2599.316	5345
2601.244	5472
2603.172	5395
2605.098	5522
2607.023	5546
2608.949	5361
2610.873	5326
2612.8	5413
2614.723	5447
2616.647	5438
2618.569	5495
2620.493	5437
2622.416	5389
2624.338	5391
2626.258	5517
2628.179	5477
2630.099	5541
2632.019	5475
2633.939	5456
2635.857	5405
2637.775	5497
2639.694	5456
2641.61	5432
2643.528	5427
2645.444	5535
2647.361	5378
2649.276	5470
2651.19	5383
2653.105	5547
2655.019	5398
2656.934	5489
2658.846	5363
2660.758	5465
2662.67	5322
2664.583	5510
2666.493	5358
2668.404	5504
2670.313	5398
2672.223	5466
2674.134	5458
2676.042	5367
2677.95	5470
2679.858	5421
2681.765	5282
2683.673	5383
2685.579	5466
2687.483	5389
2689.389	5337
2691.294	5270
2693.198	5370
2695.104	5235
2697.006	5387
2698.909	5436
2700.811	5395
2702.713	5238
2704.615	5303
2706.516	5287
2708.417	5395
2710.316	5271
2712.216	5383
2714.115	5324
2716.014	5425
2717.913	5400
2719.81	5362
2721.707	5340
2723.603	5408
2725.501	5392
2727.396	5391
2729.292	5340
2731.186	5412
2733.081	5424
2734.976	5360
2736.87	5320
2738.762	5437
2740.653	5365
2742.546	5308
2744.437	5383
2746.329	5289
2748.22	5386
2750.11	5248
2751.999	5527
2753.889	5512
2755.778	5392
2757.666	5387
2759.553	5259
2761.44	5364
2763.328	5309
2765.215	5313
2767.101	5285
2768.986	5412
2770.87	5256
2772.754	5335
2774.638	5350
2776.523	5296
2778.405	5236
2780.288	5262
2782.17	5379
2784.051	5219
2785.934	5395
2787.814	5387
2789.694	5349
2791.574	5326
2793.453	5306
2795.332	5341
2797.212	5380
2799.088	5365
2800.966	5248
2802.843	5223
2804.719	5357
2806.597	5351
2808.471	5310
2810.346	5341
2812.221	5301
2814.094	5180
2815.969	5213
2817.843	5354
2819.714	5337
2821.587	5258
2823.459	5386
2825.329	5242
2827.202	5335
2829.072	5393
2830.942	5331
2832.811	5323
2834.68	5324
2836.549	5320
2838.418	5272
2840.284	5354
2842.152	5356
2844.018	5346
2845.885	5292
2847.751	5386
2849.616	5308
2851.482	5271
2853.345	5324
2855.208	5349
2857.074	5406
2858.937	5381
2860.799	5376
2862.66	5478
2864.522	5518
2866.385	5402
2868.245	5418
2870.104	5430
2871.964	5437
2873.824	5559
2875.683	5470
2877.542	5568
2879.4	5653
2881.257	5617
2883.114	5578
2884.97	5634
2886.827	5677
2888.683	5612
2890.537	5634
2892.392	5614
2894.246	5636
2896.1	5676
2897.954	5558
2899.807	5623
2901.66	5651
2903.51	5548
2905.362	5703
2907.214	5629
2909.065	5602
2910.915	5589
2912.765	5675
2914.613	5579
2916.463	5788
2918.311	5720
2920.158	5859
2922.006	5686
2923.853	5875
2925.698	5894
2927.546	5848
2929.392	5943
2931.236	5945
2933.081	5921
2934.924	6055
2936.77	6067
2938.613	5972
2940.455	6248
2942.298	6074
2944.139	6089
2945.982	6120
2947.823	6016
2949.662	6099
2951.503	6011
2953.342	5991
2955.182	6024
2957.021	6012
2958.858	5939
2960.697	5962
2962.534	5858
2964.37	5923
2966.207	5836
2968.044	5766
2969.879	5744
2971.714	5658
2973.548	5618
2975.383	5660
2977.218	5600
2979.051	5678
2980.883	5590
2982.715	5595
2984.547	5542
2986.379	5610
2988.21	5506
2990.04	5485
2991.87	5497
2993.7	5475
2995.53	5564
2997.359	5501
2999.187	5403
3001.015	5459
3002.842	5395
3004.669	5444
3006.497	5364
3008.323	5323
3010.148	5303
3011.974	5247
3013.797	5254
3015.623	5200
3017.447	5288
3019.27	5291
3021.094	5192
3022.915	5207
3024.737	5124
3026.56	5157
3028.38	5228
3030.201	5103
3032.022	5251
3033.84	5040
3035.662	5136
3037.481	5253
3039.298	5114
3041.117	5129
3042.933	5168
3044.752	5136
3046.568	5093
3048.385	5144
3050.2	5051
3052.016	5080
3053.83	5110
3055.646	5141
3057.46	5019
3059.272	5083
3061.086	5050
3062.898	5135
3064.711	5093
3066.524	5001
3068.335	5083
3070.145	5029
3071.956	4975
3073.766	5029
3075.576	5070
3077.385	5053
3079.193	5059
3081.002	5117
3082.81	4918
3084.618	4992
3086.425	5054
3088.231	5000
3090.036	5066
3091.842	5036
3093.648	4965
3095.452	4926
3097.257	4919
3099.06	5011
3100.863	4941
3102.666	4996
3104.47	4968
3106.272	4907
3108.073	4929
3109.875	4960
3111.676	5026
3113.477	4989
3115.277	4861
3117.077	5011
3118.874	4817
3120.673	4829
3122.473	4953
3124.271	4939
3126.066	5006
3127.863	4900
3129.66	4977
3131.456	4876
3133.252	4867
3135.047	4883
3136.842	4828
3138.635	4849
3140.429	4915
3142.223	4903
3144.016	4827
3145.808	4911
3147.6	4895
3149.392	4797
3151.183	4846
3152.975	4789
3154.765	4961
3156.553	4813
3158.344	4867
3160.132	4827
3161.922	4905
3163.71	4828
3165.497	4815
3167.285	4904
3169.071	4856
3170.858	4887
3172.645	4788
3174.429	4858
3176.214	4835
3177.998	4859
3179.783	4896
3181.568	4896
3183.351	4858
3185.133	4782
3186.915	4802
3188.698	4763
3190.481	4852
3192.261	4817
3194.042	4783
3195.822	4797
3197.601	4801
3199.381	4799
3201.161	4796
3202.939	4753
3204.717	4832
3206.495	4763
3208.272	4802
3210.05	4760
3211.826	4817
3213.602	4770
3215.376	4789
3217.151	4869
3218.927	4791
3220.702	4731
3222.476	4821
3224.249	4761
3226.021	4775
3227.793	4861
3229.567	4746
3231.339	4764
3233.109	4858
3234.88	4743
3236.651	4824
3238.421	4777
3240.191	4849
3241.96	4764
3243.728	4671
3245.497	4797
3247.263	4726
3249.033	4814
3250.799	4774
3252.566	4817
3254.331	4751
3256.097	4762
3257.863	4753
3259.628	4773
3261.392	4721
3263.156	4723
3264.919	4761
3266.683	4786
3268.447	4737
3270.208	4776
3271.969	4763
3273.731	4759
3275.492	4824
3277.253	4838
3279.013	4694
3280.773	4824
3282.532	4769
3284.291	4757
3286.05	4758
3287.808	4756
3289.566	4788
3291.323	4734
3293.079	4709
3294.835	4834
3296.593	4769
3298.348	4786
3300.102	4744
3301.857	4766
3303.611	4627
3305.366	4620
3307.119	4775
3308.872	4790
3310.624	4801
3312.376	4768
3314.129	4730
3315.881	4755
3317.631	4694
3319.38	4759
3321.13	4770
3322.88	4688
3324.631	4778
3326.379	4638
3328.126	4755
3329.875	4718
3331.622	4760
3333.371	4644
3335.116	4613
3336.863	4669
3338.609	4645
3340.353	4692
3342.1	4723
3343.845	4660
3345.588	4659
3347.332	4691
3349.074	4688
3350.817	4623
3352.56	4659
3354.303	4799
3356.043	4634
3357.785	4748
3359.525	4785
3361.268	4554
3363.007	4699
3364.745	4727
3366.485	4691
3368.223	4702
3369.962	4730
3371.701	4645
3373.438	4532
3375.174	4646
3376.911	4549
3378.647	4737
3380.384	4745
3382.118	4678
3383.854	4623
3385.588	4624
3387.322	4564
3389.057	4605
3390.79	4676
3392.522	4647
3394.255	4630
3395.987	4679
3397.719	4660
3399.451	4628
3401.181	4695
3402.911	4636
3404.641	4483
3406.371	4504
3408.101	4690
3409.83	4569
3411.558	4551
3413.285	4597
3415.011	4669
3416.739	4567
3418.467	4556
3420.193	4606
3421.919	4554
3423.644	4525
3425.368	4610
3427.094	4552
3428.818	4624
3430.542	4596
3432.264	4585
3433.987	4586
3435.712	4582
3437.434	4460
3439.155	4548
3440.876	4528
3442.596	4461
3444.317	4516
3446.039	4533
3447.757	4530
3449.477	4499
3451.195	4533
3452.914	4557
3454.632	4599
3456.35	4473
3458.067	4442
3459.784	4402
3461.5	4519
3463.216	4473
3464.932	4447
3466.647	4417
3468.362	4528
3470.076	4372
3471.789	4517
3473.505	4457
3475.217	4500
3476.929	4455
3478.641	4401
3480.354	4329
3482.066	4380
3483.777	4316
3485.487	4399
3487.197	4460
3488.908	4300
3490.617	4420
3492.327	4369
3494.035	4398
3495.743	4309
3497.451	4374
3499.158	4314
3500.866	4371
3502.572	4437
3504.278	4365
3505.984	4379
3507.689	4284
3509.396	4380
3511.1	4343
3512.804	4291
3514.508	4328
3516.211	4359
3517.913	4247
3519.616	4324
3521.319	4400
3523.021	4328
3524.722	4341
3526.422	4287
3528.124	4325
3529.824	4226
3531.524	4294
3533.222	4275
3534.921	4321
3536.62	4350
3538.318	4342
3540.016	4238
3541.714	4235
3543.41	4356
3545.107	4311
3546.803	4310
3548.5	4245
3550.194	4317
3551.889	4260
3553.583	4274
3555.279	4294
3556.972	4300
3558.666	4290
3560.358	4281
3562.051	4224
3563.742	4309
3565.435	4146
3567.126	4296
3568.817	4276
3570.507	4169
3572.197	4260
3573.888	4225
3575.577	4228
3577.265	4183
3578.954	4238
3580.642	4251
3582.329	4261
3584.017	4198
3585.704	4216
3587.391	4101
3589.077	4214
3590.762	4131
3592.449	4236
3594.133	4139
3595.817	4173
3597.501	4194
3599.185	4122
3600.869	4161
3602.552	4160
3604.234	4171
3605.916	4168
3607.598	4187
3609.279	4078
3610.961	4168
3612.642	4091
3614.321	4051
3616	4138
3617.68	4138
3619.36	4126
3621.039	4084
3622.716	4097
3624.394	4128
3626.071	4137
3627.748	4085
3629.425	4208
3631.102	4088
3632.778	4101
3634.452	4058
3636.127	4147
3637.803	4052
3639.477	4144
3641.151	4109
3642.823	4047
3644.497	4031
3646.171	4162
3647.842	3987
3649.515	4039
3651.185	4051
3652.857	4087
3654.527	4021
3656.198	4072
3657.868	4051
3659.537	3984
3661.207	3984
3662.875	4095
3664.544	3980
3666.212	4017
3667.879	3994
3669.546	3930
3671.212	4037
3672.88	3951
3674.546	3963
3676.211	4075
3677.875	3884
3679.541	4046
3681.205	3942
3682.87	3999
3684.533	3984
3686.196	4002
3687.859	4011
3689.521	3924
3691.184	3993
3692.845	3971
3694.507	3944
3696.167	3886
3697.827	3923
3699.487	3960
3701.148	3958
3702.808	3860
3704.466	3909
3706.125	3958
3707.783	3958
3709.442	3898
3711.099	3914
3712.757	3984
3714.412	3917
3716.068	3925
3717.725	3846
3719.381	3887
3721.036	3936
3722.689	3851
3724.344	3882
3725.998	3873
3727.652	3863
3729.305	3868
3730.958	3845
3732.61	3954
3734.262	3822
3735.915	3876
3737.565	3908
3739.217	3892
3740.866	3912
3742.516	3834
3744.165	3953
3745.816	3813
3747.464	3904
3749.113	3873
3750.761	3819
3752.409	3828
3754.057	3793
3755.703	3873
3757.35	3898
3758.996	3894
3760.641	3825
3762.289	3899
3763.933	3850
3765.577	3857
3767.222	3797
3768.865	3831
3770.508	3873
3772.152	3849
3773.796	3689
3775.438	3866
3777.079	3809
3778.721	3870
3780.363	3848
3782.003	3739
3783.643	3822
3785.283	3807
3786.923	3708
3788.563	3836
3790.203	3746
3791.841	3808
3793.479	3819
3795.115	3700
3796.753	3760
3798.391	3780
3800.027	3770
3801.664	3794
3803.299	3801
3804.935	3763
3806.571	3765
3808.206	3752
3809.839	3807
3811.473	3742
3813.107	3743
3814.74	3795
3816.375	3830
3818.006	3722
3819.638	3850
3821.27	3721
3822.9	3738
3824.532	3735
3826.163	3675
3827.792	3758
3829.423	3703
3831.051	3753
3832.682	3737
3834.311	3758
3835.938	3684
3837.566	3753
3839.193	3697
3840.821	3669
3842.448	3791
3844.075	3725
3845.7	3699
3847.325	3737
3848.951	3705
3850.576	3734
3852.201	3716
3853.825	3651
3855.448	3672
3857.072	3725
3858.694	3575
3860.318	3732
3861.939	3569
3863.562	3708
3865.183	3648
3866.804	3596
3868.426	3693
3870.045	3570
3871.666	3668
3873.285	3591
3874.904	3723
3876.524	3573
3878.142	3621
3879.76	3638
3881.378	3641
3882.995	3652
3884.612	3642
3886.229	3733
3887.845	3581
3889.461	3588
3891.076	3606
3892.691	3620
3894.307	3627
3895.922	3608
3897.536	3613
3899.149	3570
3900.761	3627
3902.374	3501
3903.988	3588
3905.6	3585
3907.212	3615
3908.822	3576
3910.433	3579
3912.045	3596
3913.655	3676
3915.265	3594
3916.875	3590
3918.483	3539
3920.093	3651
3921.702	3594
3923.309	3546
3924.917	3595
3926.523	3547
3928.13	3536
3929.739	3587
3931.344	3621
3932.95	3599
3934.555	3625
3936.159	3611
3937.766	3597
3939.369	3484
3940.974	3653
3942.577	3588
3944.181	3562
3945.783	3592
3947.386	3523
3948.989	3520
3950.59	3510
3952.191	3524
3953.791	3600
3955.394	3687
3956.994	3551
3958.593	3500
3960.192	3500
3961.791	3556
3963.392	3554
3964.99	3571
3966.588	3642
3968.185	3485
3969.782	3498
3971.379	3453
3972.976	3543
3974.572	3412
3976.168	3502
3977.763	3519
3979.358	3503
3980.954	3588
3982.548	3577
3984.142	3522
3985.736	3454
3987.329	3398
3988.922	3431
3990.516	3413
3992.108	3479
3993.698	3490
3995.29	3397
3996.881	3447
3998.473	3444
4000.064	3478
4001.653	3462
4003.242	3482
4004.832	3471
4006.422	3426
4008.01	3412
4009.598	3369
4011.186	3391
4012.773	3370
4014.36	3368
4015.947	3379
4017.534	3454
4019.119	3370
4020.705	3387
4022.291	3397
4023.876	3385
4025.461	3478
4027.044	3443
4028.627	3393
4030.211	3432
4031.795	3376
4033.378	3333
4034.96	3389
4036.542	3248
4038.124	3351
4039.704	3314
4041.286	3322
4042.867	3356
4044.447	3339
4046.026	3349
4047.606	3304
4049.187	3343
4050.765	3318
4052.343	3317
4053.92	3329
4055.498	3310
4057.076	3338
4058.654	3317
4060.23	3294
4061.806	3341
4063.381	3261
4064.957	3350
4066.533	3265
4068.107	3279
4069.682	3288
4071.256	3272
4072.829	3314
4074.404	3266
4075.977	3305
4077.549	3299
4079.121	3306
4080.693	3288
4082.265	3285
4083.836	3279
4085.407	3237
4086.977	3301
4088.547	3240
4090.117	3307
4091.687	3279
4093.256	3223
4094.825	3265
4096.392	3329
4097.96	3214
4099.528	3217
4101.097	3256
4102.663	3281
4104.229	3292
4105.795	3169
4107.361	3189
4108.928	3239
4110.493	3199
4112.058	3271
4113.621	3173
4115.186	3257
4116.75	3262
4118.313	3166
4119.876	3272
4121.438	3161
4123	3216
4124.562	3168
4126.125	3280
4127.686	3205
4129.246	3145
4130.807	3147
4132.367	3121
4133.927	3164
4135.486	3169
4137.046	3177
4138.604	3175
4140.162	3183
4141.72	3166
4143.279	3134
4144.836	3202
4146.393	3129
4147.949	3124
4149.505	3168
4151.062	3052
4152.617	3080
4154.172	3164
4155.727	3101
4157.281	3092
4158.836	3091
4160.39	3099
4161.943	3148
4163.496	3146
4165.048	3132
4166.601	3119
4168.154	3073
4169.706	3111
4171.257	3092
4172.808	3033
4174.358	3151
4175.909	3089
4177.458	3095
4179.008	3127
4180.558	2986
4182.106	3119
4183.655	3064
4185.204	3077
4186.751	3108
4188.298	2993
4189.845	3036
4191.392	3106
4192.939	2956
4194.485	3082
4196.031	3066
4197.576	3080
4199.121	3071
4200.666	3034
4202.211	3023
4203.754	3034
4205.298	3023
4206.84	3030
4208.384	3014
4209.927	3011
4211.47	3006
4213.011	3087
4214.552	2985
4216.094	3012
4217.635	3031
4219.175	2942
4220.716	2907
4222.255	2995
4223.793	3038
4225.335	2926
4226.873	2947
4228.411	2996
4229.948	2978
4231.486	3038
4233.024	3013
4234.562	3060
4236.098	3015
4237.634	3073
4239.169	3001
4240.705	3040
4242.241	2888
4243.776	3006
4245.31	3038
4246.844	3021
4248.378	2939
4249.911	3004
4251.445	2991
4252.978	2988
4254.51	3022
4256.042	2895
4257.574	2949
4259.107	2959
4260.638	3001
4262.169	2996
4263.699	2951
4265.228	2943
4266.759	2899
4268.289	2889
4269.818	3011
4271.345	2930
4272.874	2960
4274.402	2962
4275.931	2929
4277.458	3005
4278.985	2921
4280.512	2917
4282.037	2970
4283.564	2924
4285.089	2954
4286.615	2897
4288.139	2872
4289.664	2906
4291.187	2926
4292.712	2937
4294.235	2926
4295.759	2886
4297.281	2920
4298.804	2948
4300.327	2931
4301.849	2876
4303.37	2917
4304.891	2794
4306.412	2864
4307.933	2878
4309.453	2877
4310.973	2841
4312.492	2871
