398.1873	8286
400.7097	8293
403.2336	8443
405.7547	8292
408.2751	8376
410.7948	8311
413.3138	8321
415.83	8428
418.3497	8623
420.8666	8639
423.3829	8508
425.8985	8592
428.4133	8744
430.9275	8786
433.441	8649
435.9538	8801
438.4639	8864
440.9753	8820
443.4881	8788
445.9982	8767
448.5055	8786
451.0142	8891
453.5201	9059
456.0274	8734
458.5361	8851
461.04	8980
463.5453	8917
466.0478	8875
468.5517	9047
471.0549	8939
473.5574	8975
476.0572	9087
478.5584	9017
481.0568	9113
483.5545	9191
486.0557	9230
488.5521	9161
491.0478	9146
493.5449	9161
496.0392	9304
498.5349	9299
501.0299	9315
503.5222	9417
506.0139	9252
508.5048	9517
510.9991	9259
513.4887	9372
515.9777	9193
518.4659	9370
520.9534	9473
523.4403	9244
525.9306	9342
528.4161	9428
530.9009	9405
533.3851	9497
535.8687	9425
538.3535	9360
540.8356	9298
543.3171	9400
545.7979	9508
548.278	9385
550.7595	9273
553.2383	9482
555.7144	9464
558.1918	9468
560.6685	9580
563.1446	9390
565.6221	9518
568.0968	9593
570.5688	9513
573.0422	9488
575.515	9552
577.989	9697
580.4584	9760
582.9291	9697
585.3991	9685
587.8685	9667
590.3352	9689
592.8052	9784
595.2706	9783
597.7372	9748
600.2033	9688
602.6666	9804
605.1334	9602
607.5953	9713
610.0587	9755
612.5193	9741
614.9814	9643
617.4427	9655
619.9034	9763
622.3615	9766
624.8208	9746
627.2775	9667
629.7335	9692
632.1929	9764
634.6476	9840
637.1016	9695
639.5569	9810
642.0096	9833
644.4637	9829
646.9151	9730
649.3678	9948
651.8179	9762
654.2672	9918
656.7159	10078
659.166	9912
661.6154	9915
664.0622	10082
666.5082	10045
668.9537	10010
671.4005	9926
673.8445	10072
676.288	10048
678.7308	10060
681.1729	10142
683.6163	10013
686.0572	10171
688.4973	10133
690.9368	10124
693.3757	10045
695.8138	10133
698.2534	10116
700.6902	10147
703.1245	10263
705.56	10094
707.9949	10236
710.4311	10382
712.8647	10289
715.2957	10377
717.7279	10348
720.1595	10272
722.5905	10325
725.0208	10413
727.4505	10502
729.8795	10472
732.3058	10458
734.7336	10419
737.1626	10506
739.587	10630
742.0128	10498
744.4359	10640
746.8604	10706
749.2841	10809
751.7073	10806
754.1278	10768
756.5496	10754
758.9688	10764
761.3893	10972
763.8093	10738
766.2285	10927
768.6451	10849
771.0611	10905
773.4784	10997
775.895	10782
778.3091	10761
780.7244	10716
783.1371	10808
785.5493	10944
787.9626	10921
790.3754	10998
792.7856	10738
795.1951	10937
797.6039	10839
800.0121	10893
802.4236	11019
804.8306	10915
807.2369	10973
809.6425	10913
812.0475	10981
814.4538	11069
816.8575	10913
819.2606	10950
821.663	11053
824.0648	11011
826.4659	11113
828.8683	10844
831.2682	11069
833.6674	11062
836.066	10938
838.4639	11017
840.8632	11140
843.2579	10995
845.6539	11077
848.0493	11011
850.444	11082
852.84	11267
855.2315	11068
857.6243	11195
860.0165	11067
862.4081	11136
864.797	11148
867.1892	10912
869.5789	11007
871.9659	11059
874.3542	11232
876.74	10943
879.129	11004
881.5155	11119
883.8994	11078
886.2845	11099
888.6671	11127
891.051	10991
893.4343	11162
895.8169	11085
898.197	11092
900.5783	11133
902.9571	11061
905.3372	11201
907.7167	11338
910.0936	11219
912.4698	11359
914.8474	11369
917.2244	11488
919.5987	11428
921.9744	11560
924.3475	11587
926.72	11576
929.0918	11385
931.4669	11481
933.8375	11370
936.2074	11355
938.5767	11538
940.9454	11576
943.3154	11768
945.6829	11765
948.0497	11741
950.4178	11953
952.7833	12173
955.1483	12361
957.5145	12529
959.8782	12444
962.2412	12469
964.6036	12284
966.9655	12239
969.3266	12027
971.6871	11910
974.0471	11725
976.4064	11660
978.765	11687
981.125	11569
983.4824	11429
985.8373	11536
988.1935	11467
990.549	11472
992.9039	11440
995.2602	11550
997.6119	11456
999.965	11554
1002.317	11550
1004.667	11487
1007.02	11669
1009.371	11638
1011.719	11595
1014.068	11479
1016.415	11577
1018.765	11429
1021.111	11552
1023.458	11747
1025.804	11667
1028.147	11652
1030.49	11610
1032.837	11544
1035.179	11568
1037.522	11799
1039.862	11499
1042.204	11767
1044.546	11760
1046.884	11670
1049.224	11758
1051.562	11473
1053.899	11777
1056.237	11819
1058.575	11724
1060.91	11701
1063.244	11747
1065.58	11894
1067.913	11739
1070.248	11682
1072.579	11875
1074.911	11823
1077.242	11818
1079.572	11706
1081.905	11828
1084.234	11687
1086.562	11782
1088.89	11622
1091.217	11832
1093.544	11724
1095.871	11649
1098.197	11851
1100.521	11792
1102.845	11640
1105.169	11856
1107.491	11606
1109.814	11872
1112.135	11903
1114.456	11838
1116.776	11960
1119.096	11859
1121.415	12014
1123.734	11771
1126.052	11927
1128.369	12019
1130.686	12001
1133.002	12056
1135.318	11868
1137.632	11889
1139.945	12097
1142.258	11876
1144.573	11864
1146.884	12010
1149.196	11937
1151.505	12036
1153.816	12065
1156.124	11931
1158.435	12033
1160.742	12190
1163.051	11769
1165.356	12034
1167.663	11873
1169.97	12009
1172.276	12032
1174.579	11987
1176.881	11828
1179.186	12041
1181.487	11965
1183.79	12016
1186.092	11911
1188.392	11800
1190.691	11772
1192.991	11885
1195.291	12005
1197.588	12027
1199.885	12032
1202.181	12012
1204.479	12037
1206.775	11924
1209.07	11955
1211.363	11840
1213.656	11908
1215.949	11932
1218.241	11974
1220.534	11960
1222.825	11930
1225.115	12042
1227.405	12165
1229.693	12137
1231.984	12140
1234.271	12034
1236.558	12128
1238.845	12255
1241.131	12168
1243.416	12292
1245.703	12236
1247.987	12307
1250.269	12239
1252.552	12301
1254.834	12374
1257.118	12280
1259.399	12154
1261.678	12215
1263.958	12186
1266.237	12234
1268.516	12176
1270.794	12228
1273.072	12309
1275.347	12231
1277.624	12346
1279.899	12300
1282.175	12289
1284.449	12177
1286.722	12129
1288.995	12193
1291.266	12288
1293.54	12286
1295.81	12159
1298.081	12194
1300.35	12284
1302.62	12152
1304.889	12153
1307.156	12177
1309.425	12237
1311.69	12219
1313.957	12313
1316.222	12145
1318.488	12145
1320.751	12164
1323.016	12149
1325.278	12140
1327.54	12216
1329.803	12191
1332.065	12278
1334.325	12317
1336.584	12303
1338.843	12237
1341.101	12193
1343.36	12180
1345.617	12318
1347.876	12373
1350.131	12270
1352.387	12226
1354.643	12338
1356.897	12270
1359.151	12380
1361.403	12214
1363.656	12371
1365.909	12308
1368.16	12149
1370.409	12338
1372.659	12240
1374.909	12316
1377.157	12248
1379.407	12215
1381.655	12205
1383.9	12266
1386.147	12383
1388.393	12393
1390.64	12449
1392.885	12516
1395.127	12513
1397.37	12489
1399.614	12558
1401.854	12467
1404.098	12438
1406.339	12428
1408.578	12451
1410.818	12587
1413.056	12548
1415.297	12456
1417.533	12669
1419.771	12484
1422.006	12569
1424.243	12599
1426.479	12799
1428.715	12526
1430.948	12618
1433.182	12634
1435.414	12735
1437.647	12659
1439.88	12707
1442.11	12634
1444.342	12640
1446.571	12668
1448.799	12739
1451.029	12751
1453.258	12722
1455.485	12792
1457.711	12678
1459.937	12703
1462.164	12712
1464.39	12716
1466.614	12715
1468.838	12656
1471.06	12579
1473.283	12562
1475.506	12682
1477.727	12469
1479.949	12602
1482.169	12706
1484.389	12521
1486.609	12453
1488.828	12564
1491.045	12403
1493.261	12361
1495.477	12419
1497.693	12498
1499.91	12523
1502.125	12384
1504.339	12263
1506.553	12198
1508.766	12344
1510.979	12195
1513.191	12560
1515.402	12366
1517.613	12381
1519.823	12297
1522.033	12352
1524.242	12382
1526.451	12414
1528.657	12334
1530.865	12288
1533.072	12230
1535.278	12318
1537.484	12540
1539.687	12526
1541.892	12480
1544.096	12529
1546.299	12459
1548.502	12665
1550.703	12511
1552.905	12728
1555.104	12500
1557.303	12520
1559.505	12513
1561.703	12535
1563.902	12582
1566.099	12725
1568.295	12718
1570.494	12577
1572.689	12733
1574.883	12584
1577.079	12753
1579.272	12621
1581.467	12801
1583.659	12841
1585.853	12708
1588.044	12654
1590.234	12628
1592.424	12851
1594.615	12675
1596.806	12730
1598.994	12888
1601.182	12681
1603.369	12864
1605.557	12580
1607.744	12954
1609.929	12904
1612.114	12976
1614.298	12764
1616.482	12795
1618.667	13068
1620.85	12841
1623.032	12943
1625.214	12971
1627.395	12819
1629.575	12983
1631.755	12775
1633.935	12915
1636.114	12851
1638.292	12783
1640.471	12857
1642.647	12728
1644.823	12908
1647	12741
1649.175	12908
1651.348	12982
1653.525	12837
1655.698	12706
1657.87	13200
1660.043	12919
1662.213	12975
1664.387	12906
1666.558	12984
1668.727	12959
1670.896	12974
1673.064	12992
1675.233	13118
1677.401	12854
1679.569	12939
1681.735	13140
1683.902	12929
1686.066	12967
1688.233	12820
1690.397	12848
1692.559	12928
1694.723	12893
1696.885	13034
1699.048	12892
1701.21	12949
1703.37	12758
1705.53	12841
1707.689	12977
1709.849	12906
1712.009	12718
1714.166	12868
1716.323	12863
1718.479	12910
1720.634	12874
1722.793	12891
1724.948	12761
1727.102	12906
1729.255	12975
1731.408	12802
1733.562	12711
1735.714	12809
1737.865	12852
1740.016	12810
1742.166	12858
1744.316	13011
1746.467	12777
1748.616	12938
1750.764	12880
1752.911	12960
1755.056	12923
1757.205	12999
1759.35	12822
1761.496	12901
1763.641	12995
1765.785	13097
1767.927	13090
1770.072	12998
1772.214	12931
1774.355	12970
1776.496	13121
1778.637	13037
1780.778	12979
1782.918	13024
1785.057	12857
1787.194	13010
1789.333	13231
1791.472	12979
1793.608	12963
1795.745	13046
1797.879	13050
1800.015	13200
1802.148	13044
1804.284	12825
1806.417	13166
1808.548	13077
1810.682	12993
1812.812	13167
1814.946	13017
1817.075	13154
1819.205	12980
1821.335	13027
1823.463	12994
1825.59	12971
1827.721	12997
1829.847	12971
1831.973	13009
1834.098	12869
1836.223	12963
1838.351	12940
1840.475	12777
1842.598	12889
1844.721	13192
1846.843	13085
1848.966	12875
1851.087	12884
1853.21	12988
1855.33	12904
1857.449	12819
1859.568	13019
1861.688	12819
1863.806	12857
1865.924	13072
1868.039	13088
1870.155	12753
1872.273	12761
1874.388	12641
1876.503	12885
1878.617	12777
1880.73	12984
1882.844	13054
1884.956	12842
1887.068	13027
1889.18	13038
1891.291	12971
1893.4	12804
1895.511	13032
1897.621	13013
1899.73	12926
1901.837	13032
1903.944	13130
1906.053	12993
1908.159	12934
1910.265	13234
1912.369	13194
1914.474	12987
1916.577	13160
1918.683	13136
1920.785	13139
1922.888	13129
1924.989	13163
1927.091	13172
1929.193	13109
1931.294	13173
1933.393	13135
1935.493	13163
1937.59	13150
1939.689	13161
1941.788	13233
1943.884	13205
1945.98	13054
1948.077	13110
1950.171	13127
1952.267	13197
1954.361	13164
1956.455	13021
1958.548	13090
1960.64	13428
1962.733	13152
1964.824	13296
1966.915	13298
1969.005	13089
1971.096	13106
1973.185	13222
1975.275	13145
1977.363	13044
1979.45	13176
1981.537	12994
1983.623	13110
1985.711	12945
1987.796	13263
1989.881	13091
1991.965	13051
1994.047	13090
1996.132	13024
1998.215	12936
2000.297	13011
2002.378	13110
2004.46	13081
2006.54	13075
2008.62	12946
2010.7	13102
2012.779	12955
2014.858	12975
2016.934	12882
2019.013	12983
2021.09	13121
2023.165	12927
2025.241	12906
2027.317	13192
2029.39	12980
2031.466	13150
2033.538	13138
2035.612	12898
2037.683	13146
2039.755	12979
2041.827	13203
2043.898	12991
2045.968	13110
2048.038	13170
2050.106	12997
2052.177	13060
2054.244	13187
2056.313	13138
2058.379	13146
2060.444	12906
2062.511	13092
2064.577	12868
2066.641	13066
2068.705	12981
2070.77	13079
2072.832	13050
2074.896	13039
2076.958	13050
2079.02	13096
2081.081	13089
2083.141	13090
2085.2	12966
2087.261	13148
2089.319	13024
2091.377	12983
2093.435	13065
2095.492	13106
2097.552	13042
2099.607	13077
2101.663	12990
2103.718	13050
2105.771	12925
2107.826	13027
2109.879	13007
2111.932	13029
2113.985	13056
2116.037	13011
2118.088	12936
2120.141	12980
2122.191	13082
2124.239	13051
2126.288	12829
2128.337	12952
2130.387	13118
2132.434	13140
2134.481	12914
2136.528	13026
2138.574	13109
2140.618	13101
2142.665	12942
2144.71	12886
2146.753	13180
2148.797	12981
2150.838	13070
2152.883	13072
2154.923	12894
2156.965	13121
2159.007	12904
2161.046	13098
2163.086	12783
2165.126	13055
2167.163	12874
2169.202	13037
2171.239	12794
2173.277	12887
2175.314	12885
2177.349	12837
2179.385	12848
2181.42	12763
2183.453	12886
2185.49	12934
2187.522	12948
2189.555	12916
2191.586	12727
2193.619	12707
2195.651	12779
2197.682	12769
2199.711	12775
2201.74	12725
2203.769	12780
2205.799	12614
2207.828	12966
2209.855	12661
2211.882	12757
2213.908	12740
2215.934	12623
2217.961	12753
2219.986	12644
2222.01	12591
2224.034	12562
2226.057	12619
2228.08	12744
2230.104	12674
2232.124	12796
2234.145	12636
2236.166	12703
2238.186	12715
2240.207	12618
2242.227	12839
2244.244	12592
2246.262	12610
2248.28	12755
2250.299	12667
2252.314	12794
2254.33	12713
2256.346	12653
2258.36	12661
2260.375	12727
2262.391	12572
2264.403	12649
2266.416	12662
2268.427	12629
2270.44	12571
2272.453	12737
2274.463	12792
2276.474	12664
2278.483	12664
2280.493	12806
2282.501	12632
2284.51	12690
2286.518	12648
2288.524	12727
2290.532	12654
2292.537	12568
2294.544	12568
2296.55	12600
2298.554	12755
2300.557	12641
2302.562	12692
2304.566	12699
2306.568	12715
2308.569	12470
2310.572	12661
2312.573	12625
2314.573	12374
2316.574	12503
2318.573	12652
2320.571	12456
2322.571	12459
2324.569	12582
2326.567	12644
2328.564	12314
2330.56	12497
2332.556	12575
2334.551	12540
2336.546	12323
2338.542	12408
2340.535	12530
2342.529	12463
2344.521	12520
2346.512	12480
2348.505	12440
2350.497	12425
2352.487	12333
2354.478	12453
2356.468	12467
2358.457	12356
2360.446	12489
2362.434	12553
2364.422	12294
2366.408	12480
2368.395	12423
2370.383	12378
2372.369	12294
2374.353	12374
2376.338	12330
2378.321	12336
2380.307	12441
2382.29	12434
2384.272	12361
2386.254	12163
2388.235	12353
2390.218	12447
2392.198	12349
2394.179	12293
2396.157	12213
2398.137	12356
2400.115	12284
2402.095	12158
2404.072	12232
2406.048	12333
2408.026	12292
2410.001	12125
2411.977	12172
2413.953	12223
2415.927	12307
2417.9	12453
2419.875	12237
2421.847	12175
2423.821	12196
2425.792	12111
2427.763	12146
2429.736	12258
2431.706	12136
2433.677	12280
2435.646	12106
2437.615	12279
2439.583	12077
2441.551	12384
2443.519	12252
2445.486	12196
2447.452	12344
2449.418	12215
2451.383	12177
2453.348	12043
2455.314	12278
2457.278	12225
2459.241	12172
2461.205	12103
2463.167	12247
2465.131	12212
2467.091	12310
2469.052	12015
2471.012	12049
2472.972	12343
2474.932	11996
2476.891	12091
2478.85	12110
2480.808	12053
2482.766	12156
2484.722	12077
2486.68	12121
2488.636	12051
2490.591	12048
2492.546	12228
2494.5	12148
2496.456	12132
2498.41	12013
2500.362	12157
2502.315	11934
2504.266	12136
2506.218	12111
2508.169	11907
2510.121	12085
2512.07	11871
2514.019	11832
2515.968	11993
2517.918	11981
2519.866	11903
2521.813	11847
2523.76	11928
2525.707	11900
2527.653	11841
2529.599	12156
2531.543	11946
2533.489	11954
2535.433	11907
2537.376	11960
2539.32	11944
2541.264	11897
2543.205	12062
2545.147	12015
2547.087	11987
2549.029	11955
2550.969	11841
2552.908	11938
2554.847	12056
2556.786	12066
2558.724	11975
2560.663	11936
2562.6	11748
2564.537	11850
2566.473	12022
2568.408	11931
2570.345	11960
2572.28	12081
2574.214	11965
2576.148	11832
2578.081	11974
2580.014	11969
2581.947	11984
2583.879	12127
2585.81	11930
2587.741	12018
2589.67	11969
2591.602	11969
2593.532	11872
2595.461	12097
2597.388	12105
2599.316	12004
2601.244	12058
2603.172	11961
2605.098	12017
2607.023	12006
2608.949	11926
2610.873	12002
2612.8	12039
2614.723	12001
2616.647	12021
2618.569	11954
2620.493	11998
2622.416	11873
2624.338	11865
2626.258	12020
2628.179	11989
2630.099	11793
2632.019	11969
2633.939	11903
2635.857	11943
2637.775	12097
2639.694	11966
2641.61	11833
2643.528	11935
2645.444	12026
2647.361	11849
2649.276	12081
2651.19	11969
2653.105	11904
2655.019	12029
2656.934	12096
2658.846	11948
2660.758	11990
2662.67	12017
2664.583	12090
2666.493	11967
2668.404	12048
2670.313	11930
2672.223	11767
2674.134	11970
2676.042	11877
2677.95	11955
2679.858	11911
2681.765	11821
2683.673	11903
2685.579	11770
2687.483	12013
2689.389	11950
2691.294	11919
2693.198	11948
2695.104	11827
2697.006	11826
2698.909	11798
2700.811	11787
2702.713	11760
2704.615	11758
2706.516	11765
2708.417	11709
2710.316	12034
2712.216	11820
2714.115	11867
2716.014	11786
2717.913	11733
2719.81	11747
2721.707	11875
2723.603	11769
2725.501	11587
2727.396	11763
2729.292	11647
2731.186	11712
2733.081	11771
2734.976	11684
2736.87	11674
2738.762	11803
2740.653	11720
2742.546	11658
2744.437	11618
2746.329	11669
2748.22	11711
2750.11	11625
2751.999	11441
2753.889	11702
2755.778	11577
2757.666	11614
2759.553	11553
2761.44	11699
2763.328	11807
2765.215	11654
2767.101	11667
2768.986	11612
2770.87	11600
2772.754	11624
2774.638	11713
2776.523	11578
2778.405	11542
2780.288	11549
2782.17	11569
2784.051	11467
2785.934	11748
2787.814	11616
2789.694	11559
2791.574	11476
2793.453	11590
2795.332	11448
2797.212	11584
2799.088	11500
2800.966	11488
2802.843	11538
2804.719	11517
2806.597	11525
2808.471	11477
2810.346	11656
2812.221	11561
2814.094	11563
2815.969	11351
2817.843	11537
2819.714	11531
2821.587	11270
2823.459	11643
2825.329	11425
2827.202	11623
2829.072	11459
2830.942	11405
2832.811	11501
2834.68	11529
2836.549	11415
2838.418	11415
2840.284	11640
2842.152	11637
2844.018	11512
2845.885	11484
2847.751	11414
2849.616	11618
2851.482	11454
2853.345	11433
2855.208	11614
2857.074	11471
2858.937	11579
2860.799	11596
2862.66	11511
2864.522	11558
2866.385	11569
2868.245	11509
2870.104	11634
2871.964	11671
2873.824	11740
2875.683	11701
2877.542	11714
2879.4	11804
2881.257	11702
2883.114	11880
2884.97	11840
2886.827	11671
2888.683	11978
2890.537	11865
2892.392	11765
2894.246	11723
2896.1	11919
2897.954	11921
2899.807	11717
2901.66	11829
2903.51	11612
2905.362	11714
2907.214	11884
2909.065	11737
2910.915	11826
2912.765	11804
2914.613	11711
2916.463	11922
2918.311	11840
2920.158	11895
2922.006	11924
2923.853	11993
2925.698	11871
2927.546	11999
2929.392	11968
2931.236	12074
2933.081	12097
2934.924	12304
2936.77	12016
2938.613	12102
2940.455	12395
2942.298	12241
2944.139	12239
2945.982	12471
2947.823	12253
2949.662	12325
2951.503	12248
2953.342	11984
2955.182	11986
2957.021	11996
2958.858	12168
2960.697	12061
2962.534	12037
2964.37	11854
2966.207	11673
2968.044	11789
2969.879	11803
2971.714	11692
2973.548	11713
2975.383	11651
2977.218	11585
2979.051	11747
2980.883	11509
2982.715	11603
2984.547	11502
2986.379	11605
2988.21	11450
2990.04	11412
2991.87	11282
2993.7	11362
2995.53	11396
2997.359	11436
2999.187	11209
3001.015	11178
3002.842	11222
3004.669	11107
3006.497	11150
3008.323	11151
3010.148	11178
3011.974	10977
3013.797	11266
3015.623	10997
3017.447	10914
3019.27	11111
3021.094	11164
3022.915	10941
3024.737	10971
3026.56	10770
3028.38	10932
3030.201	10858
3032.022	10798
3033.84	10905
3035.662	10841
3037.481	10866
3039.298	10790
3041.117	10967
3042.933	10717
3044.752	10868
3046.568	10872
3048.385	10743
3050.2	10929
3052.016	10905
3053.83	10599
3055.646	10860
3057.46	10682
3059.272	10780
3061.086	10603
3062.898	10731
3064.711	10658
3066.524	10862
3068.335	10745
3070.145	10756
3071.956	10618
3073.766	10619
3075.576	10803
3077.385	10647
3079.193	10503
3081.002	10603
3082.81	10453
3084.618	10670
3086.425	10582
3088.231	10570
3090.036	10385
3091.842	10549
3093.648	10546
3095.452	10467
3097.257	10582
3099.06	10590
3100.863	10512
3102.666	10591
3104.47	10467
3106.272	10504
3108.073	10456
3109.875	10537
3111.676	10437
3113.477	10401
3115.277	10452
3117.077	10499
3118.874	10363
3120.673	10533
3122.473	10356
3124.271	10313
3126.066	10343
3127.863	10176
3129.66	10393
3131.456	10413
3133.252	10348
3135.047	10467
3136.842	10315
3138.635	10269
3140.429	10398
3142.223	10338
3144.016	10282
3145.808	10216
3147.6	10413
3149.392	10249
3151.183	10240
3152.975	10298
3154.765	10181
3156.553	10249
3158.344	10203
3160.132	10268
3161.922	10279
3163.71	10089
3165.497	10073
3167.285	10181
3169.071	10166
3170.858	10181
3172.645	10166
3174.429	10137
3176.214	10050
3177.998	10082
3179.783	10184
3181.568	10136
3183.351	10193
3185.133	10033
3186.915	9942
3188.698	10146
3190.481	10165
3192.261	10032
3194.042	9940
3195.822	9977
3197.601	10006
3199.381	9975
3201.161	10063
3202.939	10010
3204.717	9954
3206.495	10108
3208.272	9878
3210.05	10206
3211.826	9911
3213.602	9820
3215.376	9836
3217.151	10110
3218.927	9934
3220.702	9776
3222.476	9856
3224.249	10040
3226.021	9954
3227.793	10024
3229.567	9877
3231.339	9718
3233.109	9879
3234.88	9917
3236.651	10028
3238.421	9789
3240.191	9894
3241.96	9809
3243.728	9771
3245.497	9865
3247.263	9905
3249.033	9961
3250.799	9874
3252.566	9809
3254.331	9915
3256.097	9899
3257.863	9914
3259.628	9973
3261.392	9908
3263.156	9961
3264.919	9797
3266.683	9745
3268.447	9816
3270.208	9913
3271.969	9690
3273.731	9873
3275.492	9852
3277.253	9993
3279.013	9741
3280.773	9780
3282.532	9833
3284.291	9761
3286.05	9918
3287.808	9899
3289.566	9883
3291.323	9803
3293.079	9843
3294.835	9719
3296.593	9846
3298.348	9725
3300.102	9806
3301.857	9822
3303.611	9828
3305.366	9724
3307.119	9819
3308.872	9880
3310.624	9794
3312.376	9577
3314.129	9809
3315.881	9709
3317.631	9706
3319.38	9725
3321.13	9683
3322.88	9651
3324.631	9834
3326.379	9778
3328.126	9802
3329.875	9742
3331.622	9617
3333.371	9725
3335.116	9595
3336.863	9636
3338.609	9830
3340.353	9687
3342.1	9591
3343.845	9767
3345.588	9739
3347.332	9579
3349.074	9593
3350.817	9828
3352.56	9517
3354.303	9600
3356.043	9618
3357.785	9619
3359.525	9551
3361.268	9551
3363.007	9587
3364.745	9516
3366.485	9535
3368.223	9672
3369.962	9525
3371.701	9665
3373.438	9418
3375.174	9547
3376.911	9539
3378.647	9510
3380.384	9509
3382.118	9454
3383.854	9459
3385.588	9517
3387.322	9561
3389.057	9658
3390.79	9524
3392.522	9497
3394.255	9556
3395.987	9447
3397.719	9477
3399.451	9454
3401.181	9456
3402.911	9468
3404.641	9519
3406.371	9359
3408.101	9414
3409.83	9353
3411.558	9440
3413.285	9442
3415.011	9324
3416.739	9404
3418.467	9331
3420.193	9466
3421.919	9434
3423.644	9356
3425.368	9188
3427.094	9301
3428.818	9283
3430.542	9400
3432.264	9441
3433.987	9351
3435.712	9245
3437.434	9391
3439.155	9382
3440.876	9211
3442.596	9289
3444.317	9322
3446.039	9359
3447.757	9142
3449.477	9225
3451.195	9202
3452.914	9211
3454.632	9160
3456.35	9109
3458.067	9007
3459.784	9138
3461.5	9177
3463.216	9172
3464.932	9047
3466.647	9183
3468.362	9115
3470.076	9186
3471.789	9136
3473.505	9295
3475.217	8988
3476.929	9043
3478.641	8965
3480.354	9027
3482.066	9052
3483.777	9053
3485.487	8934
3487.197	8996
3488.908	9125
3490.617	9007
3492.327	8962
3494.035	8920
3495.743	8936
3497.451	8919
3499.158	8951
3500.866	8873
3502.572	8832
3504.278	8869
3505.984	9035
3507.689	8871
3509.396	8853
3511.1	8883
3512.804	8788
3514.508	8900
3516.211	8913
3517.913	8904
3519.616	8967
3521.319	8881
3523.021	8798
3524.722	8821
3526.422	8867
3528.124	8858
3529.824	8950
3531.524	8910
3533.222	8698
3534.921	8776
3536.62	8863
3538.318	8733
3540.016	8854
3541.714	8900
3543.41	8733
3545.107	8746
3546.803	8590
3548.5	8749
3550.194	8724
3551.889	8602
3553.583	8708
3555.279	8661
3556.972	8793
3558.666	8721
3560.358	8762
3562.051	8760
3563.742	8600
3565.435	8628
3567.126	8652
3568.817	8467
3570.507	8508
3572.197	8742
3573.888	8650
3575.577	8558
3577.265	8518
3578.954	8552
3580.642	8565
3582.329	8750
3584.017	8548
3585.704	8487
3587.391	8554
3589.077	8625
3590.762	8553
3592.449	8623
3594.133	8521
3595.817	8444
3597.501	8518
3599.185	8560
3600.869	8503
3602.552	8462
3604.234	8358
3605.916	8635
3607.598	8558
3609.279	8400
3610.961	8389
3612.642	8603
3614.321	8353
3616	8478
3617.68	8245
3619.36	8454
3621.039	8380
3622.716	8348
3624.394	8409
3626.071	8245
3627.748	8417
3629.425	8438
3631.102	8369
3632.778	8411
3634.452	8342
3636.127	8425
3637.803	8303
3639.477	8288
3641.151	8040
3642.823	8268
3644.497	8315
3646.171	8287
3647.842	8269
3649.515	8226
3651.185	8207
3652.857	8228
3654.527	8108
3656.198	8203
3657.868	8158
3659.537	8240
3661.207	8232
3662.875	8200
3664.544	8293
3666.212	8164
3667.879	8010
3669.546	8251
3671.212	8063
3672.88	8070
3674.546	8214
3676.211	8212
3677.875	8034
3679.541	8061
3681.205	8162
3682.87	8114
3684.533	7993
3686.196	8122
3687.859	8060
3689.521	8094
3691.184	8135
3692.845	8163
3694.507	8043
3696.167	8164
3697.827	8113
3699.487	8067
3701.148	8110
3702.808	7943
3704.466	8120
3706.125	7996
3707.783	7920
3709.442	7996
3711.099	8043
3712.757	8028
3714.412	8072
3716.068	8094
3717.725	8064
3719.381	7910
3721.036	7888
3722.689	7919
3724.344	8012
3725.998	7956
3727.652	7996
3729.305	7947
3730.958	8025
3732.61	7926
3734.262	7757
3735.915	7961
3737.565	7974
3739.217	7963
3740.866	7854
3742.516	7818
3744.165	7896
3745.816	7965
3747.464	7914
3749.113	7854
3750.761	7921
3752.409	7777
3754.057	7873
3755.703	7723
3757.35	7884
3758.996	7762
3760.641	7903
3762.289	7800
3763.933	7831
3765.577	7786
3767.222	7722
3768.865	7894
3770.508	7823
3772.152	7790
3773.796	7763
3775.438	7708
3777.079	7609
3778.721	7749
3780.363	7733
3782.003	7670
3783.643	7636
3785.283	7728
3786.923	7716
3788.563	7587
3790.203	7764
3791.841	7612
3793.479	7741
3795.115	7629
3796.753	7644
3798.391	7745
3800.027	7713
3801.664	7572
3803.299	7598
3804.935	7674
3806.571	7673
3808.206	7625
3809.839	7636
3811.473	7699
3813.107	7539
3814.74	7643
3816.375	7708
3818.006	7734
3819.638	7547
3821.27	7455
3822.9	7739
3824.532	7532
3826.163	7553
3827.792	7424
3829.423	7633
3831.051	7547
3832.682	7516
3834.311	7508
3835.938	7476
3837.566	7532
3839.193	7598
3840.821	7405
3842.448	7342
3844.075	7549
3845.7	7514
3847.325	7349
3848.951	7438
3850.576	7404
3852.201	7426
3853.825	7243
3855.448	7456
3857.072	7375
3858.694	7345
3860.318	7341
3861.939	7462
3863.562	7317
3865.183	7385
3866.804	7298
3868.426	7312
3870.045	7386
3871.666	7342
3873.285	7463
3874.904	7412
3876.524	7450
3878.142	7342
3879.76	7325
3881.378	7351
3882.995	7174
3884.612	7322
3886.229	7399
3887.845	7268
3889.461	7389
3891.076	7259
3892.691	7258
3894.307	7249
3895.922	7242
3897.536	7352
3899.149	7472
3900.761	7224
3902.374	7317
3903.988	7183
3905.6	7210
3907.212	7245
3908.822	7271
3910.433	7245
3912.045	7348
3913.655	7193
3915.265	7135
3916.875	7274
3918.483	7337
3920.093	7195
3921.702	7201
3923.309	7200
3924.917	7287
3926.523	7213
3928.13	7209
3929.739	7219
3931.344	7268
3932.95	7168
3934.555	7151
3936.159	7203
3937.766	7099
3939.369	7117
3940.974	7202
3942.577	7161
3944.181	7089
3945.783	7147
3947.386	7081
3948.989	7174
3950.59	7190
3952.191	7082
3953.791	7066
3955.394	7062
3956.994	7208
3958.593	7172
3960.192	6992
3961.791	7039
3963.392	7134
3964.99	6941
3966.588	6956
3968.185	7045
3969.782	7092
3971.379	7120
3972.976	7055
3974.572	6943
3976.168	6955
3977.763	6885
3979.358	7044
3980.954	6967
3982.548	6993
3984.142	6966
3985.736	6889
3987.329	7030
3988.922	6934
3990.516	6991
3992.108	6983
3993.698	7002
3995.29	6877
3996.881	6863
3998.473	6831
4000.064	6836
4001.653	6848
4003.242	6802
4004.832	6872
4006.422	6941
4008.01	6816
4009.598	6756
4011.186	6685
4012.773	6797
4014.36	6827
4015.947	6707
4017.534	6719
4019.119	6730
4020.705	6627
4022.291	6683
4023.876	6775
4025.461	6733
4027.044	6748
4028.627	6778
4030.211	6676
4031.795	6607
4033.378	6730
4034.96	6675
4036.542	6817
4038.124	6570
4039.704	6796
4041.286	6626
4042.867	6619
4044.447	6638
4046.026	6663
4047.606	6668
4049.187	6584
4050.765	6557
4052.343	6581
4053.92	6649
4055.498	6665
4057.076	6658
4058.654	6661
4060.23	6565
4061.806	6572
4063.381	6539
4064.957	6639
4066.533	6565
4068.107	6601
4069.682	6562
4071.256	6521
4072.829	6498
4074.404	6553
4075.977	6519
4077.549	6445
4079.121	6638
4080.693	6651
4082.265	6524
4083.836	6461
4085.407	6576
4086.977	6421
4088.547	6477
4090.117	6416
4091.687	6359
4093.256	6455
4094.825	6507
4096.392	6386
4097.96	6417
4099.528	6454
4101.097	6477
4102.663	6349
4104.229	6383
4105.795	6565
4107.361	6538
4108.928	6459
4110.493	6314
4112.058	6475
4113.621	6429
4115.186	6276
4116.75	6329
4118.313	6431
4119.876	6343
4121.438	6498
4123	6400
4124.562	6317
4126.125	6398
4127.686	6332
4129.246	6328
4130.807	6334
4132.367	6222
4133.927	6352
4135.486	6322
4137.046	6235
4138.604	6338
4140.162	6291
4141.72	6295
4143.279	6201
4144.836	6279
4146.393	6278
4147.949	6143
4149.505	6262
4151.062	6220
4152.617	6161
4154.172	6088
4155.727	6101
4157.281	6153
4158.836	6116
4160.39	6214
4161.943	6202
4163.496	6181
4165.048	6120
4166.601	6134
4168.154	6120
4169.706	6119
4171.257	6053
4172.808	6052
4174.358	6148
4175.909	6062
4177.458	6026
4179.008	6002
4180.558	5991
4182.106	6182
4183.655	6103
4185.204	6021
4186.751	5886
4188.298	6011
4189.845	6073
4191.392	6023
4192.939	6090
4194.485	6006
4196.031	6041
4197.576	6027
4199.121	5969
4200.666	5971
4202.211	5959
4203.754	5946
4205.298	6076
4206.84	5961
4208.384	5964
4209.927	5885
4211.47	5821
4213.011	5992
4214.552	5838
4216.094	5796
4217.635	5780
4219.175	5945
4220.716	5994
4222.255	5895
4223.793	5833
4225.335	5913
4226.873	5816
4228.411	5796
4229.948	5828
4231.486	5870
4233.024	5763
4234.562	5840
4236.098	5911
4237.634	5885
4239.169	5895
4240.705	5849
4242.241	5839
4243.776	5785
4245.31	5878
4246.844	5747
4248.378	5896
4249.911	5807
4251.445	5899
4252.978	5743
4254.51	5806
4256.042	5800
4257.574	5836
4259.107	5817
4260.638	5827
4262.169	5737
4263.699	5932
4265.228	5808
4266.759	5786
4268.289	5797
4269.818	5714
4271.345	5789
4272.874	5690
4274.402	5723
4275.931	5713
4277.458	5741
4278.985	5652
4280.512	5605
4282.037	5738
4283.564	5664
4285.089	5755
4286.615	5778
4288.139	5726
4289.664	5705
4291.187	5665
4292.712	5715
4294.235	5697
4295.759	5698
4297.281	5612
4298.804	5797
4300.327	5682
4301.849	5567
4303.37	5685
4304.891	5561
4306.412	5559
4307.933	5594
4309.453	5589
4310.973	5561
4312.492	5636
