398.1873	7410
400.7097	7600
403.2336	7430
405.7547	7484
408.2751	7440
410.7948	7499
413.3138	7512
415.83	7651
418.3497	7713
420.8666	7749
423.3829	7857
425.8985	7964
428.4133	7903
430.9275	8034
433.441	7985
435.9538	7891
438.4639	7941
440.9753	7978
443.4881	7922
445.9982	7903
448.5055	8113
451.0142	8001
453.5201	7954
456.0274	8048
458.5361	8078
461.04	7935
463.5453	8014
466.0478	8010
468.5517	8007
471.0549	8052
473.5574	8097
476.0572	7957
478.5584	8133
481.0568	8202
483.5545	8172
486.0557	8290
488.5521	8192
491.0478	8250
493.5449	8207
496.0392	8215
498.5349	8304
501.0299	8157
503.5222	8328
506.0139	8352
508.5048	8413
510.9991	8287
513.4887	8399
515.9777	8462
518.4659	8449
520.9534	8399
523.4403	8396
525.9306	8447
528.4161	8350
530.9009	8379
533.3851	8377
535.8687	8420
538.3535	8371
540.8356	8364
543.3171	8385
545.7979	8436
548.278	8489
550.7595	8360
553.2383	8459
555.7144	8450
558.1918	8499
560.6685	8617
563.1446	8603
565.6221	8605
568.0968	8582
570.5688	8481
573.0422	8662
575.515	8703
577.989	8790
580.4584	8752
582.9291	8675
585.3991	8788
587.8685	8782
590.3352	8771
592.8052	8655
595.2706	8683
597.7372	8712
600.2033	8689
602.6666	8736
605.1334	8731
607.5953	8620
610.0587	8611
612.5193	8778
614.9814	8704
617.4427	8721
619.9034	8757
622.3615	8598
624.8208	8698
627.2775	8572
629.7335	8597
632.1929	8673
634.6476	8553
637.1016	8737
639.5569	8827
642.0096	8700
644.4637	8645
646.9151	8802
649.3678	8834
651.8179	8681
654.2672	8915
656.7159	8934
659.166	8899
661.6154	9004
664.0622	8929
666.5082	9004
668.9537	8854
671.4005	9012
673.8445	8987
676.288	9029
678.7308	9073
681.1729	9077
683.6163	9108
686.0572	8926
688.4973	9058
690.9368	9170
693.3757	9094
695.8138	9175
698.2534	9062
700.6902	8979
703.1245	9038
705.56	9107
707.9949	9147
710.4311	9162
712.8647	9175
715.2957	9176
717.7279	9313
720.1595	9213
722.5905	9350
725.0208	9333
727.4505	9365
729.8795	9391
732.3058	9361
734.7336	9373
737.1626	9334
739.587	9451
742.0128	9439
744.4359	9420
746.8604	9669
749.2841	9594
751.7073	9550
754.1278	9537
756.5496	9620
758.9688	9643
761.3893	9631
763.8093	9858
766.2285	9701
768.6451	9588
771.0611	9476
773.4784	9709
775.895	9694
778.3091	9784
780.7244	9709
783.1371	9676
785.5493	9789
787.9626	9726
790.3754	9708
792.7856	9700
795.1951	9650
797.6039	9632
800.0121	9912
802.4236	9779
804.8306	9722
807.2369	9726
809.6425	9917
812.0475	9832
814.4538	9844
816.8575	9820
819.2606	9843
821.663	9825
824.0648	9770
826.4659	9880
828.8683	9908
831.2682	9957
833.6674	10019
836.066	9805
838.4639	9886
840.8632	9839
843.2579	9916
845.6539	9935
848.0493	9994
850.444	10055
852.84	9956
855.2315	9999
857.6243	10047
860.0165	10018
862.4081	9963
864.797	9937
867.1892	10028
869.5789	10041
871.9659	10141
874.3542	9945
876.74	10084
879.129	9963
881.5155	10058
883.8994	9885
886.2845	9986
888.6671	10023
891.051	10039
893.4343	9961
895.8169	9861
898.197	10011
900.5783	9920
902.9571	9969
905.3372	9923
907.7167	10128
910.0936	10035
912.4698	10062
914.8474	10175
917.2244	10039
919.5987	10239
921.9744	10279
924.3475	10159
926.72	10295
929.0918	10316
931.4669	10303
933.8375	10364
936.2074	10481
938.5767	10534
940.9454	10591
943.3154	10565
945.6829	10664
948.0497	10815
950.4178	11198
952.7833	11349
955.1483	11681
957.5145	11800
959.8782	11886
962.2412	11766
964.6036	11539
966.9655	11381
969.3266	11138
971.6871	10833
974.0471	10677
976.4064	10438
978.765	10375
981.125	10349
983.4824	10414
985.8373	10252
988.1935	10373
990.549	10171
992.9039	10308
995.2602	10406
997.6119	10136
999.965	10399
1002.317	10315
1004.667	10186
1007.02	10251
1009.371	10321
1011.719	10293
1014.068	10342
1016.415	10291
1018.765	10237
1021.111	10323
1023.458	10384
1025.804	10410
1028.147	10362
1030.49	10426
1032.837	10504
1035.179	10350
1037.522	10248
1039.862	10388
1042.204	10630
1044.546	10421
1046.884	10531
1049.224	10577
1051.562	10523
1053.899	10405
1056.237	10535
1058.575	10543
1060.91	10639
1063.244	10631
1065.58	10603
1067.913	10762
1070.248	10788
1072.579	10768
1074.911	10762
1077.242	10568
1079.572	10581
1081.905	10549
1084.234	10559
1086.562	10579
1088.89	10460
1091.217	10554
1093.544	10542
1095.871	10549
1098.197	10668
1100.521	10656
1102.845	10602
1105.169	10525
1107.491	10617
1109.814	10422
1112.135	10565
1114.456	10602
1116.776	10549
1119.096	10538
1121.415	10627
1123.734	10709
1126.052	10696
1128.369	10570
1130.686	10583
1133.002	10662
1135.318	10550
1137.632	10653
1139.945	10745
1142.258	10794
1144.573	10700
1146.884	10622
1149.196	10570
1151.505	10688
1153.816	10619
1156.124	10791
1158.435	10648
1160.742	10727
1163.051	10642
1165.356	10668
1167.663	10660
1169.97	10694
1172.276	10720
1174.579	10687
1176.881	10509
1179.186	10577
1181.487	10508
1183.79	10583
1186.092	10661
1188.392	10598
1190.691	10813
1192.991	10529
1195.291	10761
1197.588	10625
1199.885	10638
1202.181	10665
1204.479	10769
1206.775	10691
1209.07	10612
1211.363	10707
1213.656	10639
1215.949	10745
1218.241	10635
1220.534	10818
1222.825	10656
1225.115	10815
1227.405	10660
1229.693	10943
1231.984	10810
1234.271	10799
1236.558	10919
1238.845	10888
1241.131	11068
1243.416	10925
1245.703	10973
1247.987	10980
1250.269	10900
1252.552	10950
1254.834	10954
1257.118	10984
1259.399	10983
1261.678	11135
1263.958	10903
1266.237	10961
1268.516	11170
1270.794	10957
1273.072	10916
1275.347	10841
1277.624	11080
1279.899	11000
1282.175	10888
1284.449	10854
1286.722	10810
1288.995	10991
1291.266	10905
1293.54	10872
1295.81	10893
1298.081	10939
1300.35	10691
1302.62	10979
1304.889	10902
1307.156	10895
1309.425	10803
1311.69	10723
1313.957	10851
1316.222	10864
1318.488	10884
1320.751	10778
1323.016	11017
1325.278	10932
1327.54	10865
1329.803	10826
1332.065	11017
1334.325	10933
1336.584	10939
1338.843	10963
1341.101	10852
1343.36	10990
1345.617	10979
1347.876	10817
1350.131	10842
1352.387	11145
1354.643	10888
1356.897	10969
1359.151	10890
1361.403	10902
1363.656	10861
1365.909	10897
1368.16	11038
1370.409	10786
1372.659	10952
1374.909	10982
1377.157	11006
1379.407	10931
1381.655	10874
1383.9	10921
1386.147	11044
1388.393	11122
1390.64	11135
1392.885	11055
1395.127	10964
1397.37	10949
1399.614	11025
1401.854	11180
1404.098	11070
1406.339	11041
1408.578	11062
1410.818	11038
1413.056	11098
1415.297	11143
1417.533	11113
1419.771	11217
1422.006	11091
1424.243	11084
1426.479	11234
1428.715	11237
1430.948	11138
1433.182	11315
1435.414	11104
1437.647	11295
1439.88	11301
1442.11	11404
1444.342	11367
1446.571	11465
1448.799	11433
1451.029	11287
1453.258	11467
1455.485	11436
1457.711	11482
1459.937	11297
1462.164	11418
1464.39	11389
1466.614	11285
1468.838	11388
1471.06	11286
1473.283	11234
1475.506	11290
1477.727	10980
1479.949	11046
1482.169	11266
1484.389	11125
1486.609	11030
1488.828	10992
1491.045	10965
1493.261	10995
1495.477	11076
1497.693	11065
1499.91	11068
1502.125	10995
1504.339	10900
1506.553	10957
1508.766	10947
1510.979	10938
1513.191	11013
1515.402	11098
1517.613	11071
1519.823	10952
1522.033	11336
1524.242	10908
1526.451	10955
1528.657	10970
1530.865	10998
1533.072	11048
1535.278	10980
1537.484	11036
1539.687	11005
1541.892	10952
1544.096	11057
1546.299	11101
1548.502	11160
1550.703	11268
1552.905	11190
1555.104	11213
1557.303	11158
1559.505	11158
1561.703	11273
1563.902	11115
1566.099	11394
1568.295	11265
1570.494	11184
1572.689	11290
1574.883	11313
1577.079	11227
1579.272	11253
1581.467	11254
1583.659	11369
1585.853	11335
1588.044	11413
1590.234	11349
1592.424	11366
1594.615	11336
1596.806	11346
1598.994	11457
1601.182	11440
1603.369	11350
1605.557	11479
1607.744	11385
1609.929	11344
1612.114	11478
1614.298	11347
1616.482	11485
1618.667	11537
1620.85	11546
1623.032	11568
1625.214	11398
1627.395	11502
1629.575	11489
1631.755	11461
1633.935	11494
1636.114	11460
1638.292	11432
1640.471	11448
1642.647	11457
1644.823	11499
1647	11393
1649.175	11531
1651.348	11546
1653.525	11587
1655.698	11599
1657.87	11612
1660.043	11457
1662.213	11568
1664.387	11697
1666.558	11626
1668.727	11462
1670.896	11635
1673.064	11608
1675.233	11601
1677.401	11583
1679.569	11412
1681.735	11490
1683.902	11510
1686.066	11546
1688.233	11496
1690.397	11488
1692.559	11467
1694.723	11517
1696.885	11531
1699.048	11425
1701.21	11462
1703.37	11434
1705.53	11498
1707.689	11425
1709.849	11499
1712.009	11452
1714.166	11435
1716.323	11512
1718.479	11384
1720.634	11506
1722.793	11316
1724.948	11434
1727.102	11261
1729.255	11386
1731.408	11369
1733.562	11393
1735.714	11392
1737.865	11380
1740.016	11422
1742.166	11431
1744.316	11381
1746.467	11352
1748.616	11433
1750.764	11363
1752.911	11484
1755.056	11406
1757.205	11429
1759.35	11433
1761.496	11555
1763.641	11515
1765.785	11466
1767.927	11497
1770.072	11731
1772.214	11398
1774.355	11500
1776.496	11652
1778.637	11499
1780.778	11435
1782.918	11655
1785.057	11465
1787.194	11553
1789.333	11521
1791.472	11624
1793.608	11583
1795.745	11426
1797.879	11509
1800.015	11402
1802.148	11616
1804.284	11614
1806.417	11648
1808.548	11600
1810.682	11474
1812.812	11618
1814.946	11555
1817.075	11604
1819.205	11525
1821.335	11485
1823.463	11654
1825.59	11499
1827.721	11469
1829.847	11566
1831.973	11505
1834.098	11399
1836.223	11369
1838.351	11519
1840.475	11600
1842.598	11436
1844.721	11531
1846.843	11422
1848.966	11578
1851.087	11455
1853.21	11391
1855.33	11458
1857.449	11319
1859.568	11485
1861.688	11395
1863.806	11480
1865.924	11520
1868.039	11431
1870.155	11536
1872.273	11298
1874.388	11279
1876.503	11489
1878.617	11345
1880.73	11388
1882.844	11514
1884.956	11524
1887.068	11428
1889.18	11447
1891.291	11433
1893.4	11472
1895.511	11542
1897.621	11473
1899.73	11424
1901.837	11375
1903.944	11651
1906.053	11539
1908.159	11472
1910.265	11567
1912.369	11575
1914.474	11665
1916.577	11663
1918.683	11580
1920.785	11706
1922.888	11670
1924.989	11468
1927.091	11754
1929.193	11507
1931.294	11592
1933.393	11748
1935.493	11593
1937.59	11718
1939.689	11756
1941.788	11655
1943.884	11635
1945.98	11604
1948.077	11598
1950.171	11808
1952.267	11517
1954.361	11529
1956.455	11666
1958.548	11609
1960.64	11564
1962.733	11593
1964.824	11581
1966.915	11614
1969.005	11683
1971.096	11530
1973.185	11761
1975.275	11501
1977.363	11707
1979.45	11651
1981.537	11425
1983.623	11580
1985.711	11714
1987.796	11575
1989.881	11480
1991.965	11556
1994.047	11532
1996.132	11498
1998.215	11644
2000.297	11599
2002.378	11573
2004.46	11402
2006.54	11461
2008.62	11561
2010.7	11464
2012.779	11467
2014.858	11465
2016.934	11445
2019.013	11429
2021.09	11636
2023.165	11449
2025.241	11577
2027.317	11432
2029.39	11501
2031.466	11562
2033.538	11522
2035.612	11418
2037.683	11444
2039.755	11417
2041.827	11456
2043.898	11453
2045.968	11586
2048.038	11590
2050.106	11386
2052.177	11697
2054.244	11535
2056.313	11401
2058.379	11508
2060.444	11548
2062.511	11456
2064.577	11542
2066.641	11461
2068.705	11458
2070.77	11577
2072.832	11485
2074.896	11439
2076.958	11528
2079.02	11686
2081.081	11496
2083.141	11552
2085.2	11397
2087.261	11570
2089.319	11374
2091.377	11551
2093.435	11690
2095.492	11634
2097.552	11534
2099.607	11615
2101.663	11459
2103.718	11519
2105.771	11525
2107.826	11547
2109.879	11468
2111.932	11640
2113.985	11430
2116.037	11463
2118.088	11549
2120.141	11467
2122.191	11508
2124.239	11435
2126.288	11475
2128.337	11416
2130.387	11523
2132.434	11508
2134.481	11512
2136.528	11504
2138.574	11508
2140.618	11440
2142.665	11474
2144.71	11437
2146.753	11468
2148.797	11443
2150.838	11367
2152.883	11476
2154.923	11381
2156.965	11310
2159.007	11379
2161.046	11587
2163.086	11566
2165.126	11341
2167.163	11471
2169.202	11531
2171.239	11260
2173.277	11315
2175.314	11391
2177.349	11187
2179.385	11332
2181.42	11378
2183.453	11278
2185.49	11313
2187.522	11241
2189.555	11399
2191.586	11300
2193.619	11180
2195.651	11323
2197.682	11240
2199.711	11262
2201.74	11303
2203.769	11185
2205.799	11268
2207.828	11346
2209.855	11272
2211.882	11228
2213.908	11170
2215.934	11301
2217.961	11292
2219.986	11276
2222.01	11191
2224.034	11214
2226.057	11179
2228.08	11388
2230.104	11106
2232.124	11253
2234.145	11197
2236.166	11137
2238.186	11340
2240.207	11137
2242.227	11187
2244.244	11084
2246.262	11101
2248.28	11099
2250.299	11124
2252.314	11191
2254.33	11250
2256.346	11144
2258.36	11185
2260.375	11243
2262.391	11210
2264.403	11181
2266.416	11090
2268.427	11258
2270.44	11079
2272.453	11288
2274.463	11053
2276.474	11195
2278.483	11179
2280.493	11165
2282.501	11150
2284.51	11232
2286.518	11199
2288.524	11131
2290.532	11255
2292.537	11176
2294.544	11129
2296.55	11275
2298.554	11058
2300.557	11194
2302.562	11159
2304.566	11097
2306.568	11156
2308.569	11118
2310.572	11218
2312.573	11282
2314.573	11040
2316.574	11078
2318.573	11037
2320.571	11051
2322.571	11070
2324.569	11097
2326.567	11106
2328.564	11172
2330.56	11060
2332.556	11073
2334.551	11054
2336.546	10971
2338.542	11072
2340.535	10941
2342.529	11085
2344.521	11081
2346.512	10944
2348.505	10955
2350.497	10913
2352.487	10952
2354.478	10943
2356.468	11019
2358.457	10987
2360.446	11009
2362.434	10998
2364.422	11079
2366.408	10984
2368.395	10888
2370.383	10756
2372.369	10841
2374.353	10901
2376.338	10799
2378.321	10879
2380.307	10869
2382.29	10912
2384.272	10901
2386.254	10843
2388.235	10827
2390.218	10771
2392.198	10809
2394.179	10737
2396.157	10641
2398.137	10937
2400.115	10825
2402.095	10873
2404.072	10810
2406.048	10881
2408.026	10916
2410.001	10756
2411.977	10920
2413.953	10726
2415.927	10680
2417.9	10732
2419.875	10841
2421.847	10751
2423.821	10924
2425.792	10878
2427.763	10863
2429.736	10807
2431.706	10715
2433.677	10664
2435.646	10885
2437.615	10813
2439.583	10661
2441.551	10803
2443.519	10810
2445.486	10790
2447.452	10785
2449.418	10786
2451.383	10873
2453.348	10787
2455.314	10730
2457.278	10620
2459.241	10612
2461.205	10662
2463.167	10760
2465.131	10662
2467.091	10794
2469.052	10649
2471.012	10633
2472.972	10805
2474.932	10662
2476.891	10780
2478.85	10625
2480.808	10639
2482.766	10650
2484.722	10574
2486.68	10708
2488.636	10589
2490.591	10624
2492.546	10567
2494.5	10678
2496.456	10490
2498.41	10778
2500.362	10625
2502.315	10657
2504.266	10514
2506.218	10713
2508.169	10521
2510.121	10598
2512.07	10602
2514.019	10573
2515.968	10751
2517.918	10439
2519.866	10583
2521.813	10593
2523.76	10516
2525.707	10650
2527.653	10582
2529.599	10524
2531.543	10540
2533.489	10643
2535.433	10450
2537.376	10535
2539.32	10563
2541.264	10476
2543.205	10481
2545.147	10581
2547.087	10642
2549.029	10654
2550.969	10567
2552.908	10587
2554.847	10624
2556.786	10439
2558.724	10393
2560.663	10495
2562.6	10619
2564.537	10528
2566.473	10611
2568.408	10543
2570.345	10482
2572.28	10462
2574.214	10473
2576.148	10624
2578.081	10596
2580.014	10597
2581.947	10697
2583.879	10483
2585.81	10507
2587.741	10486
2589.67	10594
2591.602	10540
2593.532	10613
2595.461	10402
2597.388	10603
2599.316	10558
2601.244	10606
2603.172	10463
2605.098	10605
2607.023	10670
2608.949	10434
2610.873	10668
2612.8	10708
2614.723	10497
2616.647	10619
2618.569	10576
2620.493	10599
2622.416	10590
2624.338	10502
2626.258	10549
2628.179	10663
2630.099	10614
2632.019	10623
2633.939	10634
2635.857	10577
2637.775	10522
2639.694	10635
2641.61	10630
2643.528	10598
2645.444	10490
2647.361	10521
2649.276	10606
2651.19	10470
2653.105	10642
2655.019	10388
2656.934	10658
2658.846	10566
2660.758	10457
2662.67	10630
2664.583	10593
2666.493	10576
2668.404	10645
2670.313	10418
2672.223	10584
2674.134	10458
2676.042	10498
2677.95	10454
2679.858	10455
2681.765	10377
2683.673	10480
2685.579	10516
2687.483	10451
2689.389	10507
2691.294	10445
2693.198	10409
2695.104	10401
2697.006	10534
2698.909	10517
2700.811	10423
2702.713	10282
2704.615	10398
2706.516	10463
2708.417	10415
2710.316	10562
2712.216	10317
2714.115	10354
2716.014	10287
2717.913	10348
2719.81	10285
2721.707	10417
2723.603	10417
2725.501	10372
2727.396	10185
2729.292	10499
2731.186	10374
2733.081	10443
2734.976	10375
2736.87	10335
2738.762	10292
2740.653	10366
2742.546	10217
2744.437	10343
2746.329	10207
2748.22	10292
2750.11	10457
2751.999	10203
2753.889	10315
2755.778	10301
2757.666	10296
2759.553	10341
2761.44	10424
2763.328	10316
2765.215	10271
2767.101	10377
2768.986	10265
2770.87	10299
2772.754	10255
2774.638	10129
2776.523	10250
2778.405	10278
2780.288	10300
2782.17	10311
2784.051	10115
2785.934	10182
2787.814	10239
2789.694	10378
2791.574	10341
2793.453	10250
2795.332	10267
2797.212	10279
2799.088	10310
2800.966	10270
2802.843	10118
2804.719	10154
2806.597	10255
2808.471	10240
2810.346	10213
2812.221	10111
2814.094	10156
2815.969	10096
2817.843	10167
2819.714	10182
2821.587	10108
2823.459	10299
2825.329	9894
2827.202	10219
2829.072	10086
2830.942	10083
2832.811	10033
2834.68	10156
2836.549	9996
2838.418	10177
2840.284	10183
2842.152	10029
2844.018	10166
2845.885	10144
2847.751	10106
2849.616	10188
2851.482	9999
2853.345	10198
2855.208	10188
2857.074	10103
2858.937	10263
2860.799	10225
2862.66	10274
2864.522	10116
2866.385	10194
2868.245	10409
2870.104	10514
2871.964	10376
2873.824	10421
2875.683	10468
2877.542	10462
2879.4	10572
2881.257	10370
2883.114	10627
2884.97	10604
2886.827	10649
2888.683	10631
2890.537	10724
2892.392	10710
2894.246	10628
2896.1	10411
2897.954	10606
2899.807	10513
2901.66	10478
2903.51	10539
2905.362	10484
2907.214	10478
2909.065	10393
2910.915	10534
2912.765	10542
2914.613	10533
2916.463	10837
2918.311	10701
2920.158	10561
2922.006	10951
2923.853	10897
2925.698	10931
2927.546	10845
2929.392	11026
2931.236	11118
2933.081	11145
2934.924	11097
2936.77	11158
2938.613	11102
2940.455	11064
2942.298	11206
2944.139	11342
2945.982	11306
2947.823	11203
2949.662	11063
2951.503	11123
2953.342	11159
2955.182	11021
2957.021	10830
2958.858	10933
2960.697	10845
2962.534	10856
2964.37	10769
2966.207	10821
2968.044	10826
2969.879	10694
2971.714	10542
2973.548	10588
2975.383	10734
2977.218	10245
2979.051	10666
2980.883	10585
2982.715	10459
2984.547	10386
2986.379	10361
2988.21	10211
2990.04	10338
2991.87	10244
2993.7	10283
2995.53	10178
2997.359	10340
2999.187	10087
3001.015	10149
3002.842	9946
3004.669	9836
3006.497	9977
3008.323	9904
3010.148	10028
3011.974	9853
3013.797	9850
3015.623	9725
3017.447	9751
3019.27	9880
3021.094	9852
3022.915	9687
3024.737	9691
3026.56	9745
3028.38	9766
3030.201	9596
3032.022	9737
3033.84	9652
3035.662	9655
3037.481	9625
3039.298	9628
3041.117	9585
3042.933	9753
3044.752	9673
3046.568	9605
3048.385	9551
3050.2	9658
3052.016	9546
3053.83	9555
3055.646	9604
3057.46	9451
3059.272	9584
3061.086	9446
3062.898	9468
3064.711	9573
3066.524	9547
3068.335	9449
3070.145	9542
3071.956	9464
3073.766	9363
3075.576	9401
3077.385	9474
3079.193	9399
3081.002	9442
3082.81	9297
3084.618	9361
3086.425	9382
3088.231	9431
3090.036	9359
3091.842	9413
3093.648	9351
3095.452	9341
3097.257	9403
3099.06	9183
3100.863	9245
3102.666	9279
3104.47	9324
3106.272	9241
3108.073	9327
3109.875	9239
3111.676	9294
3113.477	9103
3115.277	9226
3117.077	9338
3118.874	9137
3120.673	9026
3122.473	9203
3124.271	9193
3126.066	9057
3127.863	9153
3129.66	9143
3131.456	9074
3133.252	9041
3135.047	9235
3136.842	9055
3138.635	9089
3140.429	9057
3142.223	8972
3144.016	9077
3145.808	8992
3147.6	9047
3149.392	9134
3151.183	9024
3152.975	9112
3154.765	8971
3156.553	9006
3158.344	9046
3160.132	8905
3161.922	8995
3163.71	8874
3165.497	8918
3167.285	9022
3169.071	9044
3170.858	8982
3172.645	8870
3174.429	9003
3176.214	9038
3177.998	8923
3179.783	8993
3181.568	8903
3183.351	8857
3185.133	8871
3186.915	8884
3188.698	8806
3190.481	8813
3192.261	9026
3194.042	8882
3195.822	8829
3197.601	8888
3199.381	8789
3201.161	8924
3202.939	8839
3204.717	8770
3206.495	8850
3208.272	8873
3210.05	8676
3211.826	8810
3213.602	8927
3215.376	8846
3217.151	8807
3218.927	8781
3220.702	8697
3222.476	8878
3224.249	8771
3226.021	8766
3227.793	8815
3229.567	8712
3231.339	8730
3233.109	8662
3234.88	8814
3236.651	8823
3238.421	8666
3240.191	8708
3241.96	8700
3243.728	8886
3245.497	8661
3247.263	8707
3249.033	8808
3250.799	8884
3252.566	8764
3254.331	8651
3256.097	8819
3257.863	8719
3259.628	8751
3261.392	8864
3263.156	8574
3264.919	8616
3266.683	8837
3268.447	8840
3270.208	8700
3271.969	8732
3273.731	8730
3275.492	8770
3277.253	8862
3279.013	8691
3280.773	8628
3282.532	8662
3284.291	8652
3286.05	8802
3287.808	8706
3289.566	8757
3291.323	8802
3293.079	8875
3294.835	8762
3296.593	8652
3298.348	8642
3300.102	8754
3301.857	8670
3303.611	8633
3305.366	8707
3307.119	8627
3308.872	8602
3310.624	8585
3312.376	8715
3314.129	8543
3315.881	8769
3317.631	8659
3319.38	8688
3321.13	8700
3322.88	8622
3324.631	8707
3326.379	8614
3328.126	8710
3329.875	8557
3331.622	8729
3333.371	8567
3335.116	8645
3336.863	8648
3338.609	8583
3340.353	8605
3342.1	8592
3343.845	8679
3345.588	8567
3347.332	8606
3349.074	8700
3350.817	8522
3352.56	8570
3354.303	8481
3356.043	8629
3357.785	8513
3359.525	8633
3361.268	8647
3363.007	8537
3364.745	8357
3366.485	8445
3368.223	8419
3369.962	8374
3371.701	8504
3373.438	8528
3375.174	8415
3376.911	8491
3378.647	8503
3380.384	8478
3382.118	8341
3383.854	8476
3385.588	8461
3387.322	8463
3389.057	8421
3390.79	8444
3392.522	8444
3394.255	8316
3395.987	8314
3397.719	8423
3399.451	8432
3401.181	8520
3402.911	8325
3404.641	8300
3406.371	8311
3408.101	8350
3409.83	8418
3411.558	8298
3413.285	8239
3415.011	8336
3416.739	8309
3418.467	8284
3420.193	8278
3421.919	8426
3423.644	8277
3425.368	8336
3427.094	8413
3428.818	8208
3430.542	8283
3432.264	8276
3433.987	8281
3435.712	8315
3437.434	8123
3439.155	8200
3440.876	8096
3442.596	8096
3444.317	8179
3446.039	8242
3447.757	8185
3449.477	8146
3451.195	8099
3452.914	8171
3454.632	8132
3456.35	8098
3458.067	8024
3459.784	7952
3461.5	8132
3463.216	8016
3464.932	8023
3466.647	8044
3468.362	8103
3470.076	7996
3471.789	7990
3473.505	8073
3475.217	7975
3476.929	7960
3478.641	7981
3480.354	7905
3482.066	7890
3483.777	8064
3485.487	7955
3487.197	7985
3488.908	7920
3490.617	7939
3492.327	7867
3494.035	7856
3495.743	7914
3497.451	7886
3499.158	7905
3500.866	7960
3502.572	7900
3504.278	7818
3505.984	7838
3507.689	7674
3509.396	7920
3511.1	7817
3512.804	7975
3514.508	7828
3516.211	7845
3517.913	7772
3519.616	7825
3521.319	7772
3523.021	7815
3524.722	7769
3526.422	7773
3528.124	7716
3529.824	7804
3531.524	7865
3533.222	7779
3534.921	7691
3536.62	7815
3538.318	7781
3540.016	7723
3541.714	7680
3543.41	7747
3545.107	7683
3546.803	7743
3548.5	7751
3550.194	7654
3551.889	7655
3553.583	7843
3555.279	7699
3556.972	7690
3558.666	7589
3560.358	7797
3562.051	7760
3563.742	7563
3565.435	7523
3567.126	7734
3568.817	7624
3570.507	7588
3572.197	7754
3573.888	7638
3575.577	7547
3577.265	7710
3578.954	7567
3580.642	7507
3582.329	7620
3584.017	7581
3585.704	7566
3587.391	7571
3589.077	7493
3590.762	7344
3592.449	7567
3594.133	7525
3595.817	7469
3597.501	7621
3599.185	7434
3600.869	7420
3602.552	7427
3604.234	7430
3605.916	7439
3607.598	7488
3609.279	7344
3610.961	7458
3612.642	7416
3614.321	7293
3616	7336
3617.68	7327
3619.36	7359
3621.039	7288
3622.716	7290
3624.394	7470
3626.071	7385
3627.748	7394
3629.425	7410
3631.102	7333
3632.778	7269
3634.452	7257
3636.127	7241
3637.803	7286
3639.477	7205
3641.151	7228
3642.823	7257
3644.497	7192
3646.171	7208
3647.842	7182
3649.515	7198
3651.185	7252
3652.857	7220
3654.527	7134
3656.198	7230
3657.868	7220
3659.537	7037
3661.207	7257
3662.875	7198
3664.544	7138
3666.212	7110
3667.879	7126
3669.546	7091
3671.212	7167
3672.88	7144
3674.546	7175
3676.211	7112
3677.875	7070
3679.541	7120
3681.205	7133
3682.87	7115
3684.533	6983
3686.196	7120
3687.859	6942
3689.521	7052
3691.184	7038
3692.845	7067
3694.507	7062
3696.167	7096
3697.827	6981
3699.487	7042
3701.148	7101
3702.808	6989
3704.466	6949
3706.125	7005
3707.783	6998
3709.442	7037
3711.099	7083
3712.757	7063
3714.412	7001
3716.068	6924
3717.725	6919
3719.381	7019
3721.036	6922
3722.689	6847
3724.344	6915
3725.998	6905
3727.652	6990
3729.305	6856
3730.958	6878
3732.61	6871
3734.262	6890
3735.915	6924
3737.565	6858
3739.217	6879
3740.866	6807
3742.516	6877
3744.165	6877
3745.816	6878
3747.464	6919
3749.113	6938
3750.761	6896
3752.409	6872
3754.057	6793
3755.703	6872
3757.35	6852
3758.996	6920
3760.641	6818
3762.289	6975
3763.933	6834
3765.577	6871
3767.222	6774
3768.865	6669
3770.508	6764
3772.152	6777
3773.796	6724
3775.438	6751
3777.079	6676
3778.721	6685
3780.363	6824
3782.003	6676
3783.643	6643
3785.283	6772
3786.923	6647
3788.563	6739
3790.203	6821
3791.841	6772
3793.479	6570
3795.115	6720
3796.753	6681
3798.391	6713
3800.027	6587
3801.664	6717
3803.299	6623
3804.935	6668
3806.571	6659
3808.206	6480
3809.839	6553
3811.473	6476
3813.107	6645
3814.74	6549
3816.375	6628
3818.006	6550
3819.638	6600
3821.27	6641
3822.9	6580
3824.532	6444
3826.163	6507
3827.792	6651
3829.423	6466
3831.051	6541
3832.682	6403
3834.311	6694
3835.938	6475
3837.566	6559
3839.193	6520
3840.821	6432
3842.448	6567
3844.075	6422
3845.7	6482
3847.325	6548
3848.951	6481
3850.576	6437
3852.201	6436
3853.825	6464
3855.448	6430
3857.072	6439
3858.694	6293
3860.318	6428
3861.939	6346
3863.562	6320
3865.183	6512
3866.804	6415
3868.426	6449
3870.045	6433
3871.666	6475
3873.285	6312
3874.904	6428
3876.524	6410
3878.142	6458
3879.76	6491
3881.378	6396
3882.995	6426
3884.612	6374
3886.229	6395
3887.845	6216
3889.461	6352
3891.076	6356
3892.691	6442
3894.307	6336
3895.922	6257
3897.536	6331
3899.149	6290
3900.761	6290
3902.374	6288
3903.988	6203
3905.6	6354
3907.212	6251
3908.822	6386
3910.433	6187
3912.045	6260
3913.655	6232
3915.265	6213
3916.875	6243
3918.483	6376
3920.093	6266
3921.702	6333
3923.309	6271
3924.917	6321
3926.523	6164
3928.13	6331
3929.739	6266
3931.344	6277
3932.95	6312
3934.555	6230
3936.159	6299
3937.766	6174
3939.369	6191
3940.974	6175
3942.577	6266
3944.181	6137
3945.783	6166
3947.386	6238
3948.989	6112
3950.59	6181
3952.191	6158
3953.791	6148
3955.394	6127
3956.994	6047
3958.593	6173
3960.192	6119
3961.791	6036
3963.392	6078
3964.99	6051
3966.588	6191
3968.185	6028
3969.782	6112
3971.379	6016
3972.976	6098
3974.572	6067
3976.168	6108
3977.763	5977
3979.358	6066
3980.954	6040
3982.548	6144
3984.142	5970
3985.736	6115
3987.329	5973
3988.922	6102
3990.516	5964
3992.108	5984
3993.698	5983
3995.29	5895
3996.881	5915
3998.473	5945
4000.064	5967
4001.653	5905
4003.242	5808
4004.832	5915
4006.422	5935
4008.01	5927
4009.598	5935
4011.186	5844
4012.773	5903
4014.36	5847
4015.947	5807
4017.534	5823
4019.119	5826
4020.705	5713
4022.291	5864
4023.876	5793
4025.461	5838
4027.044	5828
4028.627	5929
4030.211	5821
4031.795	5866
4033.378	5786
4034.96	5916
4036.542	5909
4038.124	5746
4039.704	5763
4041.286	5806
4042.867	5700
4044.447	5685
4046.026	5704
4047.606	5787
4049.187	5721
4050.765	5579
4052.343	5783
4053.92	5723
4055.498	5679
4057.076	5750
4058.654	5663
4060.23	5614
4061.806	5603
4063.381	5660
4064.957	5693
4066.533	5679
4068.107	5698
4069.682	5743
4071.256	5639
4072.829	5647
4074.404	5697
4075.977	5587
4077.549	5691
4079.121	5671
4080.693	5589
4082.265	5595
4083.836	5526
4085.407	5674
4086.977	5563
4088.547	5593
4090.117	5577
4091.687	5549
4093.256	5653
4094.825	5617
4096.392	5632
4097.96	5498
4099.528	5634
4101.097	5562
4102.663	5456
4104.229	5524
4105.795	5535
4107.361	5548
4108.928	5551
4110.493	5563
4112.058	5584
4113.621	5558
4115.186	5438
4116.75	5503
4118.313	5358
4119.876	5535
4121.438	5524
4123	5471
4124.562	5411
4126.125	5558
4127.686	5616
4129.246	5402
4130.807	5372
4132.367	5397
4133.927	5436
4135.486	5473
4137.046	5308
4138.604	5459
4140.162	5346
4141.72	5354
4143.279	5382
4144.836	5374
4146.393	5401
4147.949	5480
4149.505	5393
4151.062	5392
4152.617	5293
4154.172	5445
4155.727	5274
4157.281	5315
4158.836	5346
4160.39	5389
4161.943	5380
4163.496	5254
4165.048	5220
4166.601	5326
4168.154	5329
4169.706	5324
4171.257	5253
4172.808	5256
4174.358	5237
4175.909	5213
4177.458	5272
4179.008	5233
4180.558	5238
4182.106	5269
4183.655	5215
4185.204	5311
4186.751	5247
4188.298	5086
4189.845	5202
4191.392	5223
4192.939	5139
4194.485	5132
4196.031	5158
4197.576	5074
4199.121	5196
4200.666	5164
4202.211	5127
4203.754	5171
4205.298	5090
4206.84	5119
4208.384	5150
4209.927	5224
4211.47	5134
4213.011	5162
4214.552	5074
4216.094	5076
4217.635	5089
4219.175	5077
4220.716	5095
4222.255	5078
4223.793	5131
4225.335	5108
4226.873	5052
4228.411	5152
4229.948	5115
4231.486	5127
4233.024	5006
4234.562	5001
4236.098	5028
4237.634	5109
4239.169	5160
4240.705	5070
4242.241	5025
4243.776	5058
4245.31	5031
4246.844	5114
4248.378	4983
4249.911	5068
4251.445	4964
4252.978	5059
4254.51	4929
4256.042	5000
4257.574	4931
4259.107	4998
4260.638	4979
4262.169	4981
4263.699	5017
4265.228	5028
4266.759	5032
4268.289	5036
4269.818	4985
4271.345	4936
4272.874	5003
4274.402	5014
4275.931	4873
4277.458	4917
4278.985	4938
4280.512	4921
4282.037	4928
4283.564	4946
4285.089	4905
4286.615	4887
4288.139	4868
4289.664	4902
4291.187	4861
4292.712	4896
4294.235	4841
4295.759	4839
4297.281	4918
4298.804	4880
4300.327	4863
4301.849	4891
4303.37	4884
4304.891	4819
4306.412	4763
4307.933	4907
4309.453	4843
4310.973	4834
4312.492	4783
