398.1873	7592
400.7097	7683
403.2336	7700
405.7547	7706
408.2751	7712
410.7948	7786
413.3138	7885
415.83	7789
418.3497	7860
420.8666	8064
423.3829	8092
425.8985	8188
428.4133	8203
430.9275	8322
433.441	8273
435.9538	8224
438.4639	8266
440.9753	8206
443.4881	8258
445.9982	8215
448.5055	8253
451.0142	8380
453.5201	8365
456.0274	8321
458.5361	8245
461.04	8385
463.5453	8367
466.0478	8357
468.5517	8421
471.0549	8395
473.5574	8374
476.0572	8378
478.5584	8402
481.0568	8480
483.5545	8416
486.0557	8355
488.5521	8482
491.0478	8511
493.5449	8531
496.0392	8531
498.5349	8675
501.0299	8466
503.5222	8496
506.0139	8596
508.5048	8479
510.9991	8626
513.4887	8704
515.9777	8690
518.4659	8728
520.9534	8595
523.4403	8715
525.9306	8749
528.4161	8598
530.9009	8708
533.3851	8875
535.8687	8757
538.3535	8800
540.8356	8679
543.3171	8607
545.7979	8661
548.278	8811
550.7595	8713
553.2383	8789
555.7144	8901
558.1918	8829
560.6685	8740
563.1446	8869
565.6221	8900
568.0968	8840
570.5688	8945
573.0422	8858
575.515	9036
577.989	9010
580.4584	9082
582.9291	9112
585.3991	9184
587.8685	9040
590.3352	9151
592.8052	9099
595.2706	9124
597.7372	9078
600.2033	9014
602.6666	8963
605.1334	9041
607.5953	8972
610.0587	9088
612.5193	9136
614.9814	9014
617.4427	8902
619.9034	8996
622.3615	8978
624.8208	9000
627.2775	8999
629.7335	9134
632.1929	8995
634.6476	8923
637.1016	9075
639.5569	9038
642.0096	9143
644.4637	8932
646.9151	9181
649.3678	9074
651.8179	9047
654.2672	9100
656.7159	9171
659.166	9135
661.6154	9316
664.0622	9228
666.5082	9292
668.9537	9309
671.4005	9212
673.8445	9247
676.288	9295
678.7308	9351
681.1729	9268
683.6163	9302
686.0572	9356
688.4973	9361
690.9368	9414
693.3757	9288
695.8138	9309
698.2534	9453
700.6902	9328
703.1245	9534
705.56	9373
707.9949	9483
710.4311	9437
712.8647	9450
715.2957	9468
717.7279	9607
720.1595	9388
722.5905	9563
725.0208	9644
727.4505	9577
729.8795	9513
732.3058	9820
734.7336	9692
737.1626	9666
739.587	9651
742.0128	9827
744.4359	9818
746.8604	9848
749.2841	10043
751.7073	9819
754.1278	10022
756.5496	9951
758.9688	10059
761.3893	10005
763.8093	9916
766.2285	9948
768.6451	9978
771.0611	9965
773.4784	10100
775.895	10109
778.3091	10220
780.7244	9996
783.1371	9974
785.5493	10012
787.9626	9855
790.3754	10097
792.7856	10017
795.1951	10141
797.6039	9955
800.0121	9995
802.4236	10088
804.8306	10270
807.2369	10027
809.6425	10044
812.0475	10190
814.4538	9968
816.8575	10085
819.2606	10227
821.663	10252
824.0648	10110
826.4659	10204
828.8683	10132
831.2682	10142
833.6674	10246
836.066	10121
838.4639	10273
840.8632	10205
843.2579	10207
845.6539	10142
848.0493	10358
850.444	10331
852.84	10380
855.2315	10451
857.6243	10388
860.0165	10271
862.4081	10250
864.797	10283
867.1892	10319
869.5789	10308
871.9659	10339
874.3542	10420
876.74	10288
879.129	10195
881.5155	10295
883.8994	10464
886.2845	10422
888.6671	10284
891.051	10334
893.4343	10247
895.8169	10410
898.197	10216
900.5783	10384
902.9571	10112
905.3372	10418
907.7167	10351
910.0936	10490
912.4698	10611
914.8474	10404
917.2244	10481
919.5987	10667
921.9744	10518
924.3475	10549
926.72	10572
929.0918	10742
931.4669	10689
933.8375	10821
936.2074	10742
938.5767	10901
940.9454	10741
943.3154	11117
945.6829	11208
948.0497	11349
950.4178	11556
952.7833	11921
955.1483	12352
957.5145	12772
959.8782	12893
962.2412	12759
964.6036	12520
966.9655	12329
969.3266	11723
971.6871	11401
974.0471	11027
976.4064	11011
978.765	10860
981.125	10923
983.4824	10724
985.8373	10791
988.1935	10688
990.549	10595
992.9039	10645
995.2602	10883
997.6119	10658
999.965	10693
1002.317	10700
1004.667	10586
1007.02	10762
1009.371	10824
1011.719	10746
1014.068	10707
1016.415	10804
1018.765	10957
1021.111	10685
1023.458	10823
1025.804	10767
1028.147	10834
1030.49	11025
1032.837	10859
1035.179	10938
1037.522	10889
1039.862	10852
1042.204	11041
1044.546	10855
1046.884	10885
1049.224	10876
1051.562	10778
1053.899	10943
1056.237	10896
1058.575	10925
1060.91	10857
1063.244	10999
1065.58	11188
1067.913	11177
1070.248	11073
1072.579	11158
1074.911	11306
1077.242	10945
1079.572	11019
1081.905	11011
1084.234	11023
1086.562	11014
1088.89	10987
1091.217	10845
1093.544	11103
1095.871	10968
1098.197	11159
1100.521	11004
1102.845	10928
1105.169	10822
1107.491	10914
1109.814	11002
1112.135	10865
1114.456	11000
1116.776	10886
1119.096	11028
1121.415	11031
1123.734	11044
1126.052	10935
1128.369	11022
1130.686	10913
1133.002	11135
1135.318	10953
1137.632	10968
1139.945	11005
1142.258	11078
1144.573	11138
1146.884	11011
1149.196	11003
1151.505	10947
1153.816	11070
1156.124	10984
1158.435	10981
1160.742	11045
1163.051	11005
1165.356	11012
1167.663	11095
1169.97	11047
1172.276	10945
1174.579	10941
1176.881	10939
1179.186	10973
1181.487	10885
1183.79	10976
1186.092	11185
1188.392	10878
1190.691	10943
1192.991	10965
1195.291	10920
1197.588	11143
1199.885	11112
1202.181	10847
1204.479	11182
1206.775	11176
1209.07	11081
1211.363	11231
1213.656	11038
1215.949	11199
1218.241	11172
1220.534	11159
1222.825	11071
1225.115	11171
1227.405	11202
1229.693	11065
1231.984	11318
1234.271	11298
1236.558	11333
1238.845	11273
1241.131	11380
1243.416	11316
1245.703	11353
1247.987	11290
1250.269	11314
1252.552	11474
1254.834	11423
1257.118	11321
1259.399	11437
1261.678	11502
1263.958	11344
1266.237	11309
1268.516	11463
1270.794	11374
1273.072	11428
1275.347	11248
1277.624	11435
1279.899	11337
1282.175	11348
1284.449	11250
1286.722	11247
1288.995	11187
1291.266	11428
1293.54	11196
1295.81	11245
1298.081	11317
1300.35	11230
1302.62	11114
1304.889	11248
1307.156	11355
1309.425	11272
1311.69	11224
1313.957	11271
1316.222	11163
1318.488	11177
1320.751	11213
1323.016	11256
1325.278	11296
1327.54	11171
1329.803	11410
1332.065	11381
1334.325	11330
1336.584	11373
1338.843	11368
1341.101	11279
1343.36	11385
1345.617	11298
1347.876	11266
1350.131	11457
1352.387	11216
1354.643	11295
1356.897	11272
1359.151	11336
1361.403	11252
1363.656	11202
1365.909	11379
1368.16	11464
1370.409	11433
1372.659	11424
1374.909	11467
1377.157	11368
1379.407	11435
1381.655	11388
1383.9	11462
1386.147	11259
1388.393	11339
1390.64	11416
1392.885	11564
1395.127	11533
1397.37	11463
1399.614	11591
1401.854	11504
1404.098	11513
1406.339	11502
1408.578	11600
1410.818	11655
1413.056	11559
1415.297	11527
1417.533	11621
1419.771	11595
1422.006	11593
1424.243	11484
1426.479	11743
1428.715	11678
1430.948	11680
1433.182	11853
1435.414	11561
1437.647	11718
1439.88	11872
1442.11	11694
1444.342	11731
1446.571	11831
1448.799	11903
1451.029	11896
1453.258	11726
1455.485	11846
1457.711	11844
1459.937	11610
1462.164	11824
1464.39	11830
1466.614	11623
1468.838	11879
1471.06	11572
1473.283	11651
1475.506	11876
1477.727	11645
1479.949	11522
1482.169	11598
1484.389	11441
1486.609	11495
1488.828	11592
1491.045	11521
1493.261	11667
1495.477	11528
1497.693	11402
1499.91	11422
1502.125	11405
1504.339	11303
1506.553	11276
1508.766	11386
1510.979	11465
1513.191	11479
1515.402	11483
1517.613	11313
1519.823	11389
1522.033	11380
1524.242	11364
1526.451	11397
1528.657	11521
1530.865	11324
1533.072	11501
1535.278	11527
1537.484	11595
1539.687	11350
1541.892	11475
1544.096	11474
1546.299	11402
1548.502	11466
1550.703	11524
1552.905	11718
1555.104	11576
1557.303	11561
1559.505	11667
1561.703	11568
1563.902	11530
1566.099	11608
1568.295	11581
1570.494	11529
1572.689	11780
1574.883	11790
1577.079	11608
1579.272	11758
1581.467	11660
1583.659	11800
1585.853	11842
1588.044	11710
1590.234	11840
1592.424	11825
1594.615	11899
1596.806	11778
1598.994	11734
1601.182	11844
1603.369	11859
1605.557	11833
1607.744	11927
1609.929	11878
1612.114	11891
1614.298	11874
1616.482	12027
1618.667	11677
1620.85	11934
1623.032	11866
1625.214	12011
1627.395	11980
1629.575	11930
1631.755	11936
1633.935	11965
1636.114	11839
1638.292	11776
1640.471	11907
1642.647	11916
1644.823	11962
1647	11895
1649.175	11911
1651.348	11854
1653.525	11944
1655.698	11889
1657.87	12017
1660.043	11969
1662.213	12151
1664.387	12149
1666.558	11957
1668.727	11977
1670.896	12075
1673.064	11922
1675.233	11949
1677.401	12096
1679.569	11906
1681.735	11912
1683.902	12037
1686.066	11999
1688.233	11807
1690.397	12071
1692.559	11914
1694.723	11800
1696.885	11829
1699.048	11779
1701.21	11989
1703.37	11969
1705.53	11954
1707.689	11876
1709.849	11704
1712.009	11695
1714.166	11861
1716.323	11743
1718.479	11798
1720.634	11841
1722.793	11799
1724.948	11836
1727.102	11894
1729.255	11751
1731.408	11770
1733.562	11751
1735.714	11962
1737.865	11748
1740.016	11949
1742.166	11909
1744.316	11662
1746.467	11770
1748.616	11827
1750.764	11968
1752.911	11849
1755.056	12052
1757.205	11889
1759.35	11888
1761.496	11959
1763.641	11964
1765.785	11973
1767.927	11804
1770.072	11883
1772.214	11970
1774.355	12058
1776.496	11811
1778.637	12002
1780.778	11850
1782.918	11910
1785.057	12056
1787.194	11837
1789.333	11973
1791.472	12178
1793.608	12009
1795.745	11898
1797.879	11984
1800.015	11907
1802.148	11975
1804.284	11940
1806.417	12048
1808.548	11947
1810.682	11901
1812.812	11949
1814.946	11837
1817.075	11993
1819.205	12010
1821.335	11972
1823.463	11799
1825.59	12001
1827.721	11887
1829.847	11954
1831.973	11929
1834.098	12017
1836.223	11936
1838.351	11906
1840.475	11911
1842.598	11988
1844.721	12095
1846.843	11863
1848.966	11827
1851.087	11781
1853.21	11831
1855.33	11922
1857.449	11834
1859.568	11724
1861.688	11734
1863.806	11667
1865.924	11845
1868.039	11708
1870.155	11867
1872.273	11811
1874.388	11812
1876.503	11982
1878.617	11723
1880.73	11704
1882.844	11871
1884.956	11932
1887.068	11735
1889.18	11761
1891.291	11876
1893.4	11878
1895.511	11796
1897.621	11984
1899.73	11831
1901.837	11938
1903.944	11809
1906.053	11890
1908.159	11886
1910.265	12007
1912.369	11906
1914.474	12053
1916.577	12135
1918.683	11871
1920.785	11945
1922.888	12062
1924.989	11948
1927.091	12161
1929.193	11945
1931.294	12175
1933.393	12008
1935.493	12014
1937.59	12083
1939.689	12078
1941.788	12105
1943.884	12085
1945.98	12145
1948.077	12081
1950.171	12270
1952.267	11995
1954.361	11896
1956.455	12244
1958.548	12147
1960.64	12028
1962.733	12146
1964.824	12107
1966.915	12091
1969.005	11917
1971.096	12055
1973.185	11948
1975.275	11894
1977.363	12017
1979.45	11913
1981.537	11996
1983.623	11909
1985.711	12064
1987.796	12004
1989.881	11977
1991.965	12001
1994.047	12010
1996.132	11833
1998.215	11807
2000.297	11869
2002.378	12103
2004.46	11871
2006.54	11968
2008.62	12014
2010.7	11879
2012.779	11886
2014.858	11873
2016.934	11884
2019.013	11718
2021.09	11806
2023.165	12167
2025.241	11930
2027.317	11825
2029.39	11849
2031.466	11990
2033.538	11742
2035.612	11908
2037.683	11918
2039.755	11649
2041.827	12094
2043.898	11871
2045.968	11782
2048.038	12038
2050.106	11884
2052.177	11803
2054.244	12001
2056.313	11949
2058.379	11788
2060.444	11822
2062.511	11985
2064.577	11948
2066.641	12061
2068.705	11866
2070.77	12063
2072.832	11942
2074.896	11805
2076.958	11910
2079.02	11984
2081.081	11960
2083.141	12013
2085.2	11956
2087.261	11967
2089.319	11930
2091.377	11870
2093.435	11840
2095.492	11887
2097.552	11888
2099.607	11821
2101.663	11813
2103.718	11958
2105.771	11948
2107.826	11868
2109.879	11726
2111.932	11908
2113.985	11968
2116.037	11854
2118.088	11933
2120.141	11896
2122.191	12031
2124.239	11977
2126.288	11912
2128.337	11918
2130.387	11721
2132.434	11792
2134.481	11808
2136.528	12138
2138.574	11679
2140.618	11783
2142.665	11823
2144.71	11847
2146.753	11843
2148.797	11746
2150.838	11882
2152.883	11816
2154.923	11864
2156.965	11706
2159.007	11718
2161.046	11870
2163.086	11771
2165.126	11815
2167.163	11750
2169.202	11816
2171.239	11790
2173.277	11717
2175.314	11701
2177.349	11737
2179.385	11764
2181.42	11744
2183.453	11853
2185.49	11713
2187.522	11667
2189.555	11673
2191.586	11690
2193.619	11742
2195.651	11630
2197.682	11572
2199.711	11738
2201.74	11433
2203.769	11608
2205.799	11657
2207.828	11772
2209.855	11751
2211.882	11706
2213.908	11695
2215.934	11365
2217.961	11445
2219.986	11580
2222.01	11599
2224.034	11692
2226.057	11640
2228.08	11578
2230.104	11626
2232.124	11636
2234.145	11371
2236.166	11513
2238.186	11637
2240.207	11660
2242.227	11597
2244.244	11573
2246.262	11669
2248.28	11547
2250.299	11590
2252.314	11537
2254.33	11570
2256.346	11775
2258.36	11553
2260.375	11506
2262.391	11562
2264.403	11542
2266.416	11449
2268.427	11682
2270.44	11593
2272.453	11527
2274.463	11603
2276.474	11528
2278.483	11527
2280.493	11543
2282.501	11583
2284.51	11434
2286.518	11571
2288.524	11562
2290.532	11575
2292.537	11486
2294.544	11471
2296.55	11497
2298.554	11679
2300.557	11597
2302.562	11442
2304.566	11472
2306.568	11507
2308.569	11665
2310.572	11476
2312.573	11408
2314.573	11357
2316.574	11445
2318.573	11500
2320.571	11477
2322.571	11600
2324.569	11406
2326.567	11478
2328.564	11377
2330.56	11250
2332.556	11375
2334.551	11337
2336.546	11330
2338.542	11397
2340.535	11384
2342.529	11390
2344.521	11494
2346.512	11226
2348.505	11337
2350.497	11534
2352.487	11335
2354.478	11337
2356.468	11201
2358.457	11278
2360.446	11352
2362.434	11409
2364.422	11262
2366.408	11148
2368.395	11205
2370.383	11288
2372.369	11272
2374.353	11423
2376.338	11332
2378.321	11130
2380.307	11189
2382.29	11236
2384.272	11215
2386.254	11161
2388.235	11178
2390.218	11339
2392.198	11248
2394.179	11101
2396.157	11215
2398.137	11133
2400.115	11088
2402.095	11025
2404.072	11129
2406.048	11199
2408.026	11251
2410.001	11205
2411.977	11103
2413.953	11096
2415.927	11184
2417.9	11142
2419.875	11191
2421.847	11243
2423.821	11119
2425.792	11175
2427.763	11220
2429.736	11030
2431.706	11135
2433.677	11094
2435.646	11010
2437.615	11218
2439.583	11128
2441.551	11110
2443.519	11236
2445.486	10954
2447.452	11097
2449.418	11177
2451.383	11122
2453.348	11025
2455.314	11214
2457.278	11099
2459.241	11163
2461.205	11043
2463.167	11109
2465.131	11014
2467.091	11072
2469.052	11070
2471.012	11055
2472.972	11165
2474.932	10941
2476.891	11078
2478.85	11022
2480.808	11196
2482.766	11017
2484.722	11077
2486.68	11005
2488.636	10948
2490.591	11014
2492.546	10898
2494.5	11128
2496.456	11025
2498.41	10958
2500.362	10967
2502.315	10836
2504.266	10963
2506.218	11028
2508.169	10956
2510.121	10868
2512.07	10892
2514.019	10833
2515.968	11119
2517.918	10810
2519.866	10920
2521.813	10842
2523.76	10891
2525.707	11090
2527.653	10945
2529.599	10930
2531.543	10871
2533.489	10810
2535.433	10957
2537.376	10889
2539.32	10807
2541.264	10906
2543.205	10932
2545.147	10895
2547.087	10951
2549.029	10879
2550.969	10854
2552.908	10995
2554.847	10932
2556.786	10940
2558.724	10844
2560.663	10915
2562.6	10854
2564.537	10888
2566.473	10755
2568.408	10838
2570.345	10866
2572.28	10993
2574.214	10792
2576.148	10837
2578.081	10766
2580.014	10759
2581.947	10889
2583.879	11073
2585.81	10795
2587.741	10977
2589.67	10837
2591.602	10911
2593.532	10831
2595.461	10875
2597.388	10919
2599.316	10947
2601.244	10895
2603.172	10948
2605.098	10810
2607.023	10873
2608.949	10880
2610.873	10903
2612.8	10954
2614.723	10930
2616.647	10918
2618.569	10946
2620.493	10934
2622.416	10893
2624.338	10820
2626.258	10883
2628.179	10825
2630.099	10946
2632.019	11003
2633.939	10854
2635.857	11041
2637.775	10835
2639.694	10962
2641.61	10859
2643.528	10830
2645.444	10943
2647.361	10853
2649.276	10895
2651.19	10941
2653.105	10832
2655.019	10698
2656.934	10874
2658.846	10980
2660.758	10963
2662.67	10850
2664.583	10998
2666.493	10869
2668.404	10820
2670.313	10812
2672.223	10864
2674.134	10736
2676.042	10865
2677.95	10843
2679.858	10846
2681.765	10864
2683.673	10919
2685.579	10721
2687.483	10928
2689.389	10693
2691.294	10830
2693.198	10788
2695.104	10804
2697.006	10843
2698.909	10641
2700.811	10750
2702.713	10641
2704.615	10801
2706.516	10644
2708.417	10849
2710.316	10792
2712.216	10655
2714.115	10475
2716.014	10663
2717.913	10685
2719.81	10696
2721.707	10603
2723.603	10767
2725.501	10678
2727.396	10658
2729.292	10665
2731.186	10672
2733.081	10688
2734.976	10787
2736.87	10713
2738.762	10689
2740.653	10657
2742.546	10680
2744.437	10726
2746.329	10590
2748.22	10589
2750.11	10608
2751.999	10677
2753.889	10665
2755.778	10681
2757.666	10751
2759.553	10572
2761.44	10508
2763.328	10622
2765.215	10541
2767.101	10580
2768.986	10550
2770.87	10609
2772.754	10583
2774.638	10607
2776.523	10574
2778.405	10465
2780.288	10607
2782.17	10606
2784.051	10624
2785.934	10645
2787.814	10438
2789.694	10495
2791.574	10712
2793.453	10411
2795.332	10593
2797.212	10733
2799.088	10479
2800.966	10432
2802.843	10583
2804.719	10669
2806.597	10550
2808.471	10475
2810.346	10418
2812.221	10380
2814.094	10457
2815.969	10486
2817.843	10295
2819.714	10546
2821.587	10484
2823.459	10600
2825.329	10404
2827.202	10520
2829.072	10398
2830.942	10486
2832.811	10328
2834.68	10488
2836.549	10571
2838.418	10406
2840.284	10445
2842.152	10418
2844.018	10379
2845.885	10568
2847.751	10396
2849.616	10570
2851.482	10438
2853.345	10615
2855.208	10609
2857.074	10483
2858.937	10598
2860.799	10622
2862.66	10628
2864.522	10526
2866.385	10539
2868.245	10728
2870.104	10850
2871.964	10569
2873.824	10942
2875.683	10815
2877.542	10809
2879.4	10862
2881.257	10965
2883.114	10940
2884.97	10955
2886.827	10774
2888.683	11022
2890.537	10895
2892.392	10818
2894.246	10869
2896.1	10888
2897.954	10946
2899.807	10901
2901.66	10846
2903.51	10999
2905.362	10745
2907.214	10937
2909.065	10763
2910.915	10905
2912.765	10886
2914.613	10858
2916.463	10876
2918.311	11165
2920.158	11097
2922.006	11227
2923.853	11207
2925.698	11261
2927.546	11362
2929.392	11407
2931.236	11396
2933.081	11399
2934.924	11477
2936.77	11494
2938.613	11666
2940.455	11734
2942.298	11638
2944.139	11476
2945.982	11669
2947.823	11560
2949.662	11367
2951.503	11693
2953.342	11526
2955.182	11400
2957.021	11376
2958.858	11538
2960.697	11256
2962.534	11212
2964.37	11122
2966.207	11064
2968.044	11067
2969.879	10808
2971.714	11010
2973.548	10826
2975.383	11029
2977.218	10956
2979.051	10934
2980.883	10851
2982.715	10845
2984.547	10846
2986.379	10764
2988.21	10747
2990.04	10667
2991.87	10654
2993.7	10699
2995.53	10568
2997.359	10703
2999.187	10278
3001.015	10397
3002.842	10440
3004.669	10317
3006.497	10449
3008.323	10278
3010.148	10173
3011.974	10230
3013.797	10198
3015.623	10178
3017.447	10142
3019.27	10184
3021.094	10049
3022.915	10046
3024.737	9964
3026.56	10007
3028.38	9914
3030.201	9910
3032.022	10070
3033.84	9952
3035.662	10076
3037.481	9987
3039.298	9955
3041.117	9812
3042.933	9993
3044.752	9907
3046.568	9826
3048.385	9920
3050.2	9918
3052.016	9976
3053.83	9779
3055.646	9967
3057.46	9923
3059.272	9968
3061.086	9815
3062.898	10043
3064.711	9810
3066.524	9917
3068.335	9799
3070.145	9878
3071.956	9696
3073.766	9765
3075.576	9822
3077.385	9738
3079.193	9643
3081.002	9898
3082.81	9736
3084.618	9706
3086.425	9647
3088.231	9787
3090.036	9541
3091.842	9762
3093.648	9509
3095.452	9622
3097.257	9728
3099.06	9558
3100.863	9621
3102.666	9609
3104.47	9585
3106.272	9599
3108.073	9670
3109.875	9665
3111.676	9481
3113.477	9661
3115.277	9637
3117.077	9430
3118.874	9611
3120.673	9589
3122.473	9505
3124.271	9435
3126.066	9581
3127.863	9563
3129.66	9516
3131.456	9512
3133.252	9486
3135.047	9416
3136.842	9400
3138.635	9333
3140.429	9472
3142.223	9232
3144.016	9455
3145.808	9457
3147.6	9351
3149.392	9480
3151.183	9423
3152.975	9238
3154.765	9357
3156.553	9418
3158.344	9308
3160.132	9354
3161.922	9429
3163.71	9306
3165.497	9253
3167.285	9255
3169.071	9319
3170.858	9243
3172.645	9281
3174.429	9234
3176.214	9244
3177.998	9269
3179.783	9368
3181.568	9317
3183.351	9222
3185.133	9148
3186.915	9317
3188.698	9225
3190.481	9069
3192.261	9189
3194.042	9194
3195.822	9201
3197.601	9258
3199.381	9198
3201.161	9235
3202.939	9285
3204.717	9246
3206.495	9274
3208.272	9116
3210.05	9283
3211.826	9143
3213.602	9080
3215.376	9157
3217.151	9191
3218.927	9221
3220.702	9141
3222.476	9234
3224.249	9138
3226.021	9194
3227.793	9027
3229.567	9132
3231.339	9178
3233.109	9072
3234.88	9148
3236.651	9126
3238.421	9147
3240.191	9042
3241.96	8971
3243.728	9187
3245.497	9043
3247.263	9062
3249.033	9004
3250.799	9089
3252.566	9061
3254.331	8978
3256.097	9111
3257.863	9034
3259.628	8994
3261.392	9102
3263.156	9082
3264.919	9050
3266.683	8960
3268.447	9006
3270.208	8984
3271.969	9034
3273.731	9088
3275.492	9072
3277.253	9019
3279.013	9033
3280.773	8977
3282.532	9087
3284.291	9153
3286.05	9062
3287.808	9038
3289.566	9126
3291.323	8948
3293.079	8962
3294.835	9039
3296.593	8968
3298.348	8977
3300.102	9125
3301.857	8830
3303.611	9035
3305.366	8903
3307.119	8959
3308.872	9177
3310.624	9037
3312.376	8903
3314.129	8975
3315.881	9145
3317.631	8933
3319.38	9068
3321.13	8960
3322.88	8959
3324.631	9031
3326.379	8983
3328.126	8889
3329.875	8964
3331.622	8936
3333.371	8956
3335.116	9122
3336.863	8842
3338.609	8984
3340.353	8895
3342.1	8997
3343.845	8975
3345.588	8938
3347.332	8901
3349.074	8963
3350.817	8802
3352.56	8881
3354.303	8952
3356.043	8711
3357.785	8786
3359.525	8833
3361.268	8752
3363.007	8819
3364.745	8863
3366.485	8861
3368.223	8782
3369.962	8699
3371.701	8900
3373.438	8895
3375.174	8765
3376.911	8763
3378.647	8835
3380.384	8742
3382.118	8674
3383.854	8627
3385.588	8790
3387.322	8791
3389.057	8895
3390.79	8762
3392.522	8741
3394.255	8687
3395.987	8670
3397.719	8711
3399.451	8659
3401.181	8711
3402.911	8701
3404.641	8700
3406.371	8607
3408.101	8677
3409.83	8837
3411.558	8711
3413.285	8564
3415.011	8700
3416.739	8756
3418.467	8668
3420.193	8658
3421.919	8599
3423.644	8734
3425.368	8617
3427.094	8626
3428.818	8554
3430.542	8572
3432.264	8526
3433.987	8514
3435.712	8589
3437.434	8597
3439.155	8714
3440.876	8549
3442.596	8477
3444.317	8490
3446.039	8519
3447.757	8240
3449.477	8458
3451.195	8568
3452.914	8462
3454.632	8399
3456.35	8396
3458.067	8361
3459.784	8342
3461.5	8415
3463.216	8495
3464.932	8443
3466.647	8448
3468.362	8414
3470.076	8317
3471.789	8436
3473.505	8425
3475.217	8244
3476.929	8351
3478.641	8347
3480.354	8275
3482.066	8289
3483.777	8337
3485.487	8293
3487.197	8180
3488.908	8283
3490.617	8335
3492.327	8224
3494.035	8238
3495.743	8221
3497.451	8227
3499.158	8164
3500.866	8243
3502.572	8168
3504.278	8121
3505.984	8170
3507.689	8166
3509.396	8082
3511.1	8138
3512.804	8143
3514.508	8078
3516.211	7987
3517.913	8163
3519.616	8104
3521.319	8160
3523.021	8271
3524.722	8124
3526.422	8045
3528.124	7911
3529.824	8090
3531.524	8053
3533.222	7956
3534.921	8090
3536.62	8115
3538.318	7994
3540.016	8015
3541.714	7900
3543.41	7975
3545.107	8092
3546.803	8061
3548.5	7967
3550.194	7901
3551.889	7950
3553.583	7992
3555.279	7948
3556.972	8004
3558.666	7940
3560.358	7917
3562.051	7880
3563.742	8067
3565.435	7939
3567.126	8003
3568.817	7955
3570.507	7832
3572.197	7925
3573.888	8061
3575.577	7988
3577.265	7742
3578.954	7920
3580.642	7865
3582.329	7837
3584.017	7817
3585.704	7790
3587.391	7855
3589.077	7808
3590.762	7815
3592.449	7944
3594.133	7822
3595.817	7860
3597.501	7748
3599.185	7847
3600.869	7752
3602.552	7686
3604.234	7782
3605.916	7873
3607.598	7679
3609.279	7659
3610.961	7711
3612.642	7689
3614.321	7734
3616	7500
3617.68	7711
3619.36	7642
3621.039	7693
3622.716	7512
3624.394	7687
3626.071	7518
3627.748	7582
3629.425	7631
3631.102	7530
3632.778	7621
3634.452	7645
3636.127	7525
3637.803	7462
3639.477	7601
3641.151	7663
3642.823	7512
3644.497	7513
3646.171	7604
3647.842	7598
3649.515	7423
3651.185	7491
3652.857	7371
3654.527	7402
3656.198	7418
3657.868	7525
3659.537	7400
3661.207	7383
3662.875	7476
3664.544	7439
3666.212	7465
3667.879	7382
3669.546	7339
3671.212	7408
3672.88	7441
3674.546	7373
3676.211	7491
3677.875	7519
3679.541	7356
3681.205	7350
3682.87	7285
3684.533	7292
3686.196	7349
3687.859	7429
3689.521	7383
3691.184	7195
3692.845	7303
3694.507	7230
3696.167	7295
3697.827	7485
3699.487	7259
3701.148	7383
3702.808	7252
3704.466	7264
3706.125	7344
3707.783	7149
3709.442	7207
3711.099	7389
3712.757	7319
3714.412	7261
3716.068	7354
3717.725	7250
3719.381	7198
3721.036	7287
3722.689	7135
3724.344	7219
3725.998	7205
3727.652	7212
3729.305	7280
3730.958	7267
3732.61	7152
3734.262	7201
3735.915	7107
3737.565	7149
3739.217	7218
3740.866	7183
3742.516	7087
3744.165	7079
3745.816	7156
3747.464	7127
3749.113	7211
3750.761	7159
3752.409	7174
3754.057	7042
3755.703	7074
3757.35	7030
3758.996	7152
3760.641	7066
3762.289	7145
3763.933	7071
3765.577	7131
3767.222	7038
3768.865	7030
3770.508	6989
3772.152	7134
3773.796	7004
3775.438	7054
3777.079	7068
3778.721	7146
3780.363	6984
3782.003	6952
3783.643	7085
3785.283	6973
3786.923	6869
3788.563	7065
3790.203	6914
3791.841	6996
3793.479	6860
3795.115	6941
3796.753	6904
3798.391	6801
3800.027	6806
3801.664	6813
3803.299	6844
3804.935	6827
3806.571	6874
3808.206	6844
3809.839	6818
3811.473	6936
3813.107	6919
3814.74	6955
3816.375	6891
3818.006	6848
3819.638	6808
3821.27	6888
3822.9	6803
3824.532	6906
3826.163	6826
3827.792	6832
3829.423	6777
3831.051	6639
3832.682	6753
3834.311	6781
3835.938	6783
3837.566	6761
3839.193	6782
3840.821	6702
3842.448	6840
3844.075	6783
3845.7	6767
3847.325	6718
3848.951	6749
3850.576	6692
3852.201	6676
3853.825	6649
3855.448	6698
3857.072	6706
3858.694	6702
3860.318	6709
3861.939	6663
3863.562	6724
3865.183	6592
3866.804	6643
3868.426	6694
3870.045	6670
3871.666	6680
3873.285	6507
3874.904	6498
3876.524	6652
3878.142	6647
3879.76	6574
3881.378	6678
3882.995	6681
3884.612	6565
3886.229	6651
3887.845	6530
3889.461	6727
3891.076	6680
3892.691	6565
3894.307	6576
3895.922	6541
3897.536	6609
3899.149	6646
3900.761	6617
3902.374	6567
3903.988	6614
3905.6	6418
3907.212	6570
3908.822	6406
3910.433	6457
3912.045	6537
3913.655	6493
3915.265	6521
3916.875	6584
3918.483	6547
3920.093	6462
3921.702	6408
3923.309	6453
3924.917	6508
3926.523	6590
3928.13	6480
3929.739	6365
3931.344	6390
3932.95	6491
3934.555	6482
3936.159	6660
3937.766	6597
3939.369	6459
3940.974	6335
3942.577	6462
3944.181	6414
3945.783	6476
3947.386	6486
3948.989	6478
3950.59	6496
3952.191	6429
3953.791	6544
3955.394	6391
3956.994	6434
3958.593	6326
3960.192	6310
3961.791	6377
3963.392	6449
3964.99	6270
3966.588	6429
3968.185	6335
3969.782	6241
3971.379	6297
3972.976	6350
3974.572	6430
3976.168	6383
3977.763	6350
3979.358	6345
3980.954	6358
3982.548	6248
3984.142	6221
3985.736	6104
3987.329	6262
3988.922	6272
3990.516	6267
3992.108	6235
3993.698	6236
3995.29	6153
3996.881	6242
3998.473	6178
4000.064	6096
4001.653	6141
4003.242	6148
4004.832	6061
4006.422	6180
4008.01	6055
4009.598	6050
4011.186	6094
4012.773	6204
4014.36	6123
4015.947	6179
4017.534	6067
4019.119	6037
4020.705	6173
4022.291	6035
4023.876	6107
4025.461	5847
4027.044	6080
4028.627	6112
4030.211	5984
4031.795	6064
4033.378	5955
4034.96	6022
4036.542	5998
4038.124	6007
4039.704	5994
4041.286	5974
4042.867	6005
4044.447	5843
4046.026	5985
4047.606	6034
4049.187	5979
4050.765	5947
4052.343	5925
4053.92	5835
4055.498	5877
4057.076	5901
4058.654	5960
4060.23	5978
4061.806	5844
4063.381	5853
4064.957	5854
4066.533	5849
4068.107	5890
4069.682	5867
4071.256	5869
4072.829	5841
4074.404	5842
4075.977	5821
4077.549	5824
4079.121	5778
4080.693	5834
4082.265	5809
4083.836	5855
4085.407	5799
4086.977	5838
4088.547	5894
4090.117	5903
4091.687	5805
4093.256	5879
4094.825	5876
4096.392	5847
4097.96	5824
4099.528	5763
4101.097	5836
4102.663	5741
4104.229	5852
4105.795	5715
4107.361	5853
4108.928	5732
4110.493	5840
4112.058	5753
4113.621	5847
4115.186	5693
4116.75	5700
4118.313	5729
4119.876	5689
4121.438	5623
4123	5743
4124.562	5709
4126.125	5708
4127.686	5738
4129.246	5726
4130.807	5712
4132.367	5713
4133.927	5604
4135.486	5634
4137.046	5675
4138.604	5581
4140.162	5552
4141.72	5593
4143.279	5500
4144.836	5590
4146.393	5508
4147.949	5570
4149.505	5616
4151.062	5594
4152.617	5547
4154.172	5605
4155.727	5566
4157.281	5569
4158.836	5526
4160.39	5519
4161.943	5479
4163.496	5487
4165.048	5605
4166.601	5563
4168.154	5539
4169.706	5422
4171.257	5485
4172.808	5430
4174.358	5525
4175.909	5442
4177.458	5434
4179.008	5499
4180.558	5334
4182.106	5509
4183.655	5441
4185.204	5471
4186.751	5357
4188.298	5400
4189.845	5503
4191.392	5394
4192.939	5452
4194.485	5294
4196.031	5383
4197.576	5391
4199.121	5401
4200.666	5339
4202.211	5402
4203.754	5352
4205.298	5352
4206.84	5300
4208.384	5369
4209.927	5415
4211.47	5398
4213.011	5307
4214.552	5334
4216.094	5420
4217.635	5179
4219.175	5279
4220.716	5219
4222.255	5253
4223.793	5265
4225.335	5238
4226.873	5231
4228.411	5358
4229.948	5293
4231.486	5225
4233.024	5215
4234.562	5129
4236.098	5276
4237.634	5275
4239.169	5235
4240.705	5322
4242.241	5220
4243.776	5259
4245.31	5310
4246.844	5232
4248.378	5296
4249.911	5334
4251.445	5216
4252.978	5162
4254.51	5180
4256.042	5171
4257.574	5252
4259.107	5152
4260.638	5194
4262.169	5150
4263.699	5189
4265.228	5227
4266.759	5130
4268.289	5193
4269.818	5226
4271.345	5105
4272.874	5165
4274.402	5133
4275.931	5120
4277.458	5215
4278.985	5156
4280.512	5184
4282.037	5052
4283.564	5089
4285.089	5128
4286.615	5145
4288.139	5138
4289.664	5072
4291.187	5093
4292.712	5069
4294.235	5078
4295.759	5106
4297.281	5125
4298.804	5076
4300.327	5042
4301.849	4993
4303.37	5105
4304.891	4983
4306.412	5056
4307.933	5079
4309.453	5056
4310.973	4977
4312.492	4980
