398.1873	2745
400.7097	2765
403.2336	2734
405.7547	2698
408.2751	2776
410.7948	2765
413.3138	2791
415.83	2869
418.3497	2824
420.8666	2847
423.3829	2931
425.8985	2878
428.4133	2930
430.9275	2894
433.441	2905
435.9538	2866
438.4639	2972
440.9753	2909
443.4881	2956
445.9982	2963
448.5055	2949
451.0142	2955
453.5201	2990
456.0274	2925
458.5361	2990
461.04	2892
463.5453	2900
466.0478	2937
468.5517	2946
471.0549	2924
473.5574	2891
476.0572	2948
478.5584	2912
481.0568	2944
483.5545	2966
486.0557	2995
488.5521	2873
491.0478	2939
493.5449	2936
496.0392	2969
498.5349	2949
501.0299	2966
503.5222	3010
506.0139	2948
508.5048	3035
510.9991	3027
513.4887	2991
515.9777	3094
518.4659	2999
520.9534	3078
523.4403	3012
525.9306	3069
528.4161	3038
530.9009	3049
533.3851	3078
535.8687	2982
538.3535	3068
540.8356	3028
543.3171	3006
545.7979	3086
548.278	3085
550.7595	3022
553.2383	3020
555.7144	3037
558.1918	3107
560.6685	3050
563.1446	3015
565.6221	3085
568.0968	3073
570.5688	3121
573.0422	3123
575.515	3118
577.989	3126
580.4584	3120
582.9291	3211
585.3991	3194
587.8685	3148
590.3352	3140
592.8052	3138
595.2706	3232
597.7372	3192
600.2033	3100
602.6666	3096
605.1334	3134
607.5953	3159
610.0587	3157
612.5193	3178
614.9814	3118
617.4427	3113
619.9034	3125
622.3615	3132
624.8208	3180
627.2775	3051
629.7335	3081
632.1929	3105
634.6476	3024
637.1016	3116
639.5569	3081
642.0096	3085
644.4637	3137
646.9151	3079
649.3678	3201
651.8179	3095
654.2672	3193
656.7159	3154
659.166	3120
661.6154	3077
664.0622	3161
666.5082	3171
668.9537	3263
671.4005	3205
673.8445	3243
676.288	3176
678.7308	3210
681.1729	3255
683.6163	3197
686.0572	3191
688.4973	3222
690.9368	3229
693.3757	3251
695.8138	3218
698.2534	3224
700.6902	3158
703.1245	3245
705.56	3159
707.9949	3228
710.4311	3235
712.8647	3330
715.2957	3252
717.7279	3287
720.1595	3284
722.5905	3280
725.0208	3386
727.4505	3250
729.8795	3360
732.3058	3369
734.7336	3344
737.1626	3371
739.587	3310
742.0128	3322
744.4359	3385
746.8604	3370
749.2841	3391
751.7073	3433
754.1278	3362
756.5496	3468
758.9688	3366
761.3893	3380
763.8093	3402
766.2285	3451
768.6451	3493
771.0611	3423
773.4784	3384
775.895	3394
778.3091	3372
780.7244	3434
783.1371	3479
785.5493	3403
787.9626	3373
790.3754	3429
792.7856	3421
795.1951	3414
797.6039	3431
800.0121	3418
802.4236	3522
804.8306	3458
807.2369	3396
809.6425	3490
812.0475	3555
814.4538	3444
816.8575	3507
819.2606	3532
821.663	3478
824.0648	3437
826.4659	3452
828.8683	3483
831.2682	3381
833.6674	3461
836.066	3483
838.4639	3413
840.8632	3560
843.2579	3496
845.6539	3449
848.0493	3493
850.444	3571
852.84	3534
855.2315	3530
857.6243	3554
860.0165	3564
862.4081	3531
864.797	3555
867.1892	3531
869.5789	3516
871.9659	3533
874.3542	3559
876.74	3535
879.129	3554
881.5155	3572
883.8994	3503
886.2845	3410
888.6671	3510
891.051	3497
893.4343	3569
895.8169	3558
898.197	3556
900.5783	3564
902.9571	3584
905.3372	3607
907.7167	3552
910.0936	3565
912.4698	3554
914.8474	3612
917.2244	3643
919.5987	3662
921.9744	3676
924.3475	3677
926.72	3767
929.0918	3623
931.4669	3678
933.8375	3781
936.2074	3675
938.5767	3680
940.9454	3781
943.3154	3712
945.6829	3939
948.0497	3911
950.4178	4032
952.7833	4152
955.1483	4248
957.5145	4382
959.8782	4419
962.2412	4447
964.6036	4356
966.9655	4249
969.3266	4107
971.6871	4007
974.0471	3751
976.4064	3739
978.765	3823
981.125	3726
983.4824	3748
985.8373	3689
988.1935	3632
990.549	3655
992.9039	3642
995.2602	3706
997.6119	3624
999.965	3662
1002.317	3679
1004.667	3685
1007.02	3713
1009.371	3689
1011.719	3679
1014.068	3680
1016.415	3689
1018.765	3696
1021.111	3673
1023.458	3777
1025.804	3741
1028.147	3652
1030.49	3701
1032.837	3706
1035.179	3691
1037.522	3743
1039.862	3759
1042.204	3801
1044.546	3653
1046.884	3780
1049.224	3726
1051.562	3754
1053.899	3842
1056.237	3762
1058.575	3799
1060.91	3770
1063.244	3806
1065.58	3775
1067.913	3834
1070.248	3819
1072.579	3864
1074.911	3869
1077.242	3809
1079.572	3776
1081.905	3745
1084.234	3880
1086.562	3757
1088.89	3748
1091.217	3785
1093.544	3720
1095.871	3775
1098.197	3764
1100.521	3737
1102.845	3761
1105.169	3792
1107.491	3765
1109.814	3846
1112.135	3801
1114.456	3683
1116.776	3790
1119.096	3786
1121.415	3797
1123.734	3787
1126.052	3857
1128.369	3738
1130.686	3747
1133.002	3754
1135.318	3752
1137.632	3853
1139.945	3789
1142.258	3834
1144.573	3855
1146.884	3728
1149.196	3731
1151.505	3772
1153.816	3849
1156.124	3845
1158.435	3859
1160.742	3865
1163.051	3830
1165.356	3836
1167.663	3776
1169.97	3776
1172.276	3810
1174.579	3807
1176.881	3833
1179.186	3774
1181.487	3745
1183.79	3770
1186.092	3796
1188.392	3790
1190.691	3807
1192.991	3837
1195.291	3840
1197.588	3804
1199.885	3770
1202.181	3766
1204.479	3819
1206.775	3824
1209.07	3839
1211.363	3782
1213.656	3782
1215.949	3812
1218.241	3824
1220.534	3899
1222.825	3833
1225.115	3855
1227.405	3847
1229.693	3870
1231.984	3833
1234.271	3889
1236.558	3903
1238.845	3930
1241.131	3916
1243.416	3896
1245.703	3981
1247.987	3901
1250.269	4007
1252.552	3903
1254.834	3951
1257.118	3985
1259.399	3987
1261.678	4033
1263.958	3983
1266.237	3888
1268.516	3982
1270.794	4041
1273.072	3999
1275.347	3922
1277.624	3961
1279.899	3904
1282.175	3866
1284.449	3889
1286.722	3880
1288.995	3844
1291.266	3868
1293.54	3838
1295.81	3915
1298.081	3978
1300.35	3777
1302.62	3963
1304.889	3842
1307.156	3917
1309.425	3830
1311.69	3888
1313.957	3863
1316.222	3846
1318.488	3950
1320.751	3835
1323.016	3921
1325.278	3864
1327.54	3947
1329.803	3882
1332.065	3931
1334.325	3969
1336.584	3884
1338.843	3895
1341.101	3879
1343.36	4041
1345.617	3919
1347.876	3894
1350.131	3979
1352.387	3907
1354.643	3953
1356.897	3908
1359.151	3923
1361.403	3876
1363.656	3928
1365.909	3844
1368.16	3954
1370.409	3970
1372.659	3890
1374.909	4013
1377.157	3922
1379.407	3936
1381.655	3962
1383.9	3988
1386.147	3908
1388.393	3998
1390.64	3980
1392.885	3941
1395.127	4028
1397.37	3959
1399.614	4071
1401.854	3984
1404.098	3994
1406.339	4040
1408.578	4004
1410.818	4073
1413.056	4038
1415.297	4016
1417.533	4049
1419.771	4104
1422.006	4086
1424.243	4105
1426.479	4018
1428.715	4169
1430.948	4072
1433.182	4044
1435.414	4083
1437.647	4091
1439.88	4001
1442.11	4079
1444.342	4125
1446.571	4099
1448.799	4166
1451.029	4124
1453.258	4088
1455.485	4046
1457.711	4165
1459.937	4081
1462.164	4087
1464.39	3983
1466.614	4134
1468.838	4048
1471.06	4030
1473.283	4000
1475.506	3959
1477.727	4001
1479.949	3994
1482.169	3974
1484.389	4020
1486.609	4031
1488.828	3897
1491.045	3915
1493.261	3952
1495.477	4049
1497.693	3925
1499.91	3952
1502.125	3975
1504.339	3940
1506.553	3967
1508.766	3907
1510.979	3990
1513.191	3976
1515.402	3957
1517.613	3965
1519.823	3914
1522.033	3984
1524.242	3965
1526.451	3927
1528.657	3925
1530.865	3940
1533.072	3952
1535.278	3966
1537.484	4035
1539.687	3989
1541.892	3995
1544.096	3958
1546.299	4020
1548.502	3974
1550.703	4017
1552.905	4035
1555.104	4079
1557.303	4008
1559.505	4030
1561.703	4024
1563.902	3958
1566.099	4123
1568.295	4028
1570.494	4004
1572.689	4039
1574.883	4055
1577.079	4032
1579.272	4107
1581.467	4119
1583.659	3989
1585.853	4003
1588.044	4055
1590.234	4128
1592.424	4099
1594.615	4115
1596.806	4058
1598.994	4041
1601.182	4057
1603.369	4125
1605.557	4203
1607.744	4179
1609.929	4141
1612.114	4189
1614.298	4059
1616.482	4057
1618.667	4090
1620.85	4071
1623.032	4006
1625.214	4127
1627.395	4100
1629.575	4180
1631.755	4248
1633.935	4177
1636.114	4179
1638.292	4193
1640.471	4210
1642.647	4201
1644.823	4251
1647	4146
1649.175	4219
1651.348	4153
1653.525	4165
1655.698	4189
1657.87	4232
1660.043	4104
1662.213	4107
1664.387	4144
1666.558	4195
1668.727	4173
1670.896	4151
1673.064	4275
1675.233	4245
1677.401	4206
1679.569	4135
1681.735	4250
1683.902	4195
1686.066	4117
1688.233	4242
1690.397	4194
1692.559	4231
1694.723	4149
1696.885	4146
1699.048	4062
1701.21	4185
1703.37	4133
1705.53	4117
1707.689	4095
1709.849	4167
1712.009	4098
1714.166	4138
1716.323	4103
1718.479	4176
1720.634	4116
1722.793	4071
1724.948	4162
1727.102	4181
1729.255	4124
1731.408	4080
1733.562	4114
1735.714	4141
1737.865	4151
1740.016	4112
1742.166	4033
1744.316	4116
1746.467	4188
1748.616	4181
1750.764	4112
1752.911	4134
1755.056	4181
1757.205	4166
1759.35	4212
1761.496	4054
1763.641	4258
1765.785	4140
1767.927	4125
1770.072	4184
1772.214	4145
1774.355	4166
1776.496	4079
1778.637	4191
1780.778	4221
1782.918	4123
1785.057	4156
1787.194	4142
1789.333	4252
1791.472	4184
1793.608	4174
1795.745	4189
1797.879	4224
1800.015	4183
1802.148	4291
1804.284	4196
1806.417	4136
1808.548	4251
1810.682	4115
1812.812	4205
1814.946	4218
1817.075	4166
1819.205	4113
1821.335	4146
1823.463	4227
1825.59	4282
1827.721	4140
1829.847	4202
1831.973	4173
1834.098	4195
1836.223	4175
1838.351	4227
1840.475	4151
1842.598	4258
1844.721	4111
1846.843	4219
1848.966	4153
1851.087	4216
1853.21	4100
1855.33	4082
1857.449	4214
1859.568	4156
1861.688	4164
1863.806	4108
1865.924	4183
1868.039	4200
1870.155	4228
1872.273	4118
1874.388	4167
1876.503	4203
1878.617	4089
1880.73	4129
1882.844	4241
1884.956	4134
1887.068	4263
1889.18	4215
1891.291	4129
1893.4	4134
1895.511	4241
1897.621	4203
1899.73	4207
1901.837	4231
1903.944	4215
1906.053	4191
1908.159	4153
1910.265	4188
1912.369	4204
1914.474	4311
1916.577	4252
1918.683	4227
1920.785	4284
1922.888	4318
1924.989	4210
1927.091	4229
1929.193	4231
1931.294	4219
1933.393	4284
1935.493	4273
1937.59	4293
1939.689	4284
1941.788	4208
1943.884	4111
1945.98	4241
1948.077	4266
1950.171	4249
1952.267	4185
1954.361	4320
1956.455	4267
1958.548	4270
1960.64	4356
1962.733	4337
1964.824	4224
1966.915	4390
1969.005	4311
1971.096	4246
1973.185	4295
1975.275	4326
1977.363	4271
1979.45	4250
1981.537	4227
1983.623	4305
1985.711	4265
1987.796	4172
1989.881	4257
1991.965	4303
1994.047	4255
1996.132	4264
1998.215	4329
2000.297	4167
2002.378	4292
2004.46	4243
2006.54	4134
2008.62	4160
2010.7	4280
2012.779	4210
2014.858	4195
2016.934	4223
2019.013	4215
2021.09	4291
2023.165	4234
2025.241	4157
2027.317	4174
2029.39	4240
2031.466	4256
2033.538	4217
2035.612	4186
2037.683	4249
2039.755	4221
2041.827	4249
2043.898	4169
2045.968	4253
2048.038	4292
2050.106	4190
2052.177	4328
2054.244	4297
2056.313	4302
2058.379	4292
2060.444	4218
2062.511	4240
2064.577	4223
2066.641	4275
2068.705	4200
2070.77	4280
2072.832	4212
2074.896	4202
2076.958	4205
2079.02	4160
2081.081	4166
2083.141	4342
2085.2	4239
2087.261	4207
2089.319	4217
2091.377	4228
2093.435	4315
2095.492	4227
2097.552	4207
2099.607	4215
2101.663	4261
2103.718	4352
2105.771	4243
2107.826	4217
2109.879	4286
2111.932	4260
2113.985	4331
2116.037	4280
2118.088	4252
2120.141	4204
2122.191	4288
2124.239	4267
2126.288	4255
2128.337	4276
2130.387	4289
2132.434	4323
2134.481	4163
2136.528	4269
2138.574	4249
2140.618	4230
2142.665	4296
2144.71	4267
2146.753	4208
2148.797	4241
2150.838	4220
2152.883	4355
2154.923	4245
2156.965	4228
2159.007	4237
2161.046	4269
2163.086	4250
2165.126	4198
2167.163	4226
2169.202	4235
2171.239	4283
2173.277	4286
2175.314	4258
2177.349	4226
2179.385	4296
2181.42	4227
2183.453	4204
2185.49	4213
2187.522	4175
2189.555	4215
2191.586	4249
2193.619	4207
2195.651	4233
2197.682	4228
2199.711	4045
2201.74	4274
2203.769	4306
2205.799	4202
2207.828	4224
2209.855	4268
2211.882	4224
2213.908	4140
2215.934	4261
2217.961	4173
2219.986	4187
2222.01	4267
2224.034	4165
2226.057	4218
2228.08	4125
2230.104	4104
2232.124	4201
2234.145	4219
2236.166	4108
2238.186	4219
2240.207	4209
2242.227	4227
2244.244	4243
2246.262	4201
2248.28	4273
2250.299	4240
2252.314	4198
2254.33	4189
2256.346	4207
2258.36	4193
2260.375	4207
2262.391	4240
2264.403	4139
2266.416	4276
2268.427	4285
2270.44	4195
2272.453	4232
2274.463	4173
2276.474	4233
2278.483	4208
2280.493	4246
2282.501	4160
2284.51	4143
2286.518	4163
2288.524	4247
2290.532	4279
2292.537	4184
2294.544	4208
2296.55	4263
2298.554	4213
2300.557	4197
2302.562	4139
2304.566	4257
2306.568	4155
2308.569	4168
2310.572	4250
2312.573	4159
2314.573	4160
2316.574	4190
2318.573	4194
2320.571	4260
2322.571	4128
2324.569	4138
2326.567	4208
2328.564	4131
2330.56	4182
2332.556	4132
2334.551	4152
2336.546	4142
2338.542	4182
2340.535	4194
2342.529	4133
2344.521	4186
2346.512	4103
2348.505	4163
2350.497	4145
2352.487	4278
2354.478	4194
2356.468	4159
2358.457	4143
2360.446	4129
2362.434	4183
2364.422	4102
2366.408	4233
2368.395	4101
2370.383	4093
2372.369	4065
2374.353	4082
2376.338	4174
2378.321	4122
2380.307	4136
2382.29	4116
2384.272	4208
2386.254	4141
2388.235	4126
2390.218	4112
2392.198	4095
2394.179	4079
2396.157	4136
2398.137	4154
2400.115	4084
2402.095	4158
2404.072	4123
2406.048	4102
2408.026	4073
2410.001	4178
2411.977	4035
2413.953	4054
2415.927	4119
2417.9	4120
2419.875	4160
2421.847	4057
2423.821	4129
2425.792	4110
2427.763	4110
2429.736	4140
2431.706	4046
2433.677	4030
2435.646	4122
2437.615	4120
2439.583	4116
2441.551	4089
2443.519	4079
2445.486	4011
2447.452	4065
2449.418	4135
2451.383	4105
2453.348	4003
2455.314	4104
2457.278	4090
2459.241	4126
2461.205	4098
2463.167	4055
2465.131	4101
2467.091	4060
2469.052	4024
2471.012	4128
2472.972	4128
2474.932	4118
2476.891	4072
2478.85	4076
2480.808	4048
2482.766	4021
2484.722	3982
2486.68	4108
2488.636	4021
2490.591	4057
2492.546	4085
2494.5	4060
2496.456	4032
2498.41	4034
2500.362	4035
2502.315	4042
2504.266	4079
2506.218	4153
2508.169	4083
2510.121	4106
2512.07	4119
2514.019	4008
2515.968	4061
2517.918	4003
2519.866	4087
2521.813	3951
2523.76	3979
2525.707	3996
2527.653	4050
2529.599	4035
2531.543	4113
2533.489	4065
2535.433	4022
2537.376	3969
2539.32	3972
2541.264	4065
2543.205	4052
2545.147	3994
2547.087	4044
2549.029	3999
2550.969	4066
2552.908	4045
2554.847	3993
2556.786	4053
2558.724	4030
2560.663	3993
2562.6	4019
2564.537	4020
2566.473	3975
2568.408	4062
2570.345	4038
2572.28	4122
2574.214	4060
2576.148	3991
2578.081	4055
2580.014	4059
2581.947	4068
2583.879	4084
2585.81	4026
2587.741	4097
2589.67	4023
2591.602	4037
2593.532	4087
2595.461	4023
2597.388	4042
2599.316	4073
2601.244	4018
2603.172	4039
2605.098	4002
2607.023	4011
2608.949	4106
2610.873	4107
2612.8	4089
2614.723	4105
2616.647	4058
2618.569	4117
2620.493	4041
2622.416	4096
2624.338	4006
2626.258	4099
2628.179	4098
2630.099	4057
2632.019	4047
2633.939	4014
2635.857	4016
2637.775	4093
2639.694	4131
2641.61	3998
2643.528	4089
2645.444	4013
2647.361	4125
2649.276	4110
2651.19	4014
2653.105	4044
2655.019	4064
2656.934	4087
2658.846	4026
2660.758	4091
2662.67	4013
2664.583	4069
2666.493	4050
2668.404	4109
2670.313	4042
2672.223	4223
2674.134	4062
2676.042	4082
2677.95	4017
2679.858	4077
2681.765	4085
2683.673	4112
2685.579	4017
2687.483	4103
2689.389	4136
2691.294	4012
2693.198	4140
2695.104	4037
2697.006	4043
2698.909	4054
2700.811	4105
2702.713	4026
2704.615	4080
2706.516	4099
2708.417	4048
2710.316	4055
2712.216	3983
2714.115	4095
2716.014	3993
2717.913	4036
2719.81	4100
2721.707	3902
2723.603	4116
2725.501	3937
2727.396	4008
2729.292	4092
2731.186	4006
2733.081	3988
2734.976	3995
2736.87	3981
2738.762	4089
2740.653	4074
2742.546	4035
2744.437	4032
2746.329	4023
2748.22	4012
2750.11	4031
2751.999	4004
2753.889	4031
2755.778	4008
2757.666	4048
2759.553	4001
2761.44	3953
2763.328	3928
2765.215	4011
2767.101	4032
2768.986	3991
2770.87	3961
2772.754	4024
2774.638	3937
2776.523	3996
2778.405	3983
2780.288	4012
2782.17	4037
2784.051	4002
2785.934	4023
2787.814	3984
2789.694	3976
2791.574	3875
2793.453	3998
2795.332	3953
2797.212	3971
2799.088	3965
2800.966	3997
2802.843	4000
2804.719	3952
2806.597	3875
2808.471	3911
2810.346	3930
2812.221	3934
2814.094	3966
2815.969	3964
2817.843	3970
2819.714	4004
2821.587	3995
2823.459	3989
2825.329	3986
2827.202	3987
2829.072	4024
2830.942	4037
2832.811	4004
2834.68	3958
2836.549	4045
2838.418	3957
2840.284	3978
2842.152	3997
2844.018	4067
2845.885	3892
2847.751	3975
2849.616	3954
2851.482	4019
2853.345	4020
2855.208	4045
2857.074	3988
2858.937	3934
2860.799	3950
2862.66	4026
2864.522	4058
2866.385	4138
2868.245	4127
2870.104	4187
2871.964	4215
2873.824	4116
2875.683	4212
2877.542	4162
2879.4	4285
2881.257	4189
2883.114	4241
2884.97	4261
2886.827	4321
2888.683	4225
2890.537	4207
2892.392	4293
2894.246	4287
2896.1	4319
2897.954	4331
2899.807	4154
2901.66	4202
2903.51	4358
2905.362	4278
2907.214	4259
2909.065	4172
2910.915	4213
2912.765	4256
2914.613	4411
2916.463	4361
2918.311	4394
2920.158	4302
2922.006	4367
2923.853	4428
2925.698	4372
2927.546	4458
2929.392	4495
2931.236	4454
2933.081	4536
2934.924	4495
2936.77	4611
2938.613	4626
2940.455	4613
2942.298	4688
2944.139	4543
2945.982	4644
2947.823	4568
2949.662	4688
2951.503	4633
2953.342	4573
2955.182	4551
2957.021	4573
2958.858	4531
2960.697	4506
2962.534	4488
2964.37	4357
2966.207	4402
2968.044	4444
2969.879	4391
2971.714	4323
2973.548	4239
2975.383	4291
2977.218	4229
2979.051	4310
2980.883	4233
2982.715	4274
2984.547	4241
2986.379	4250
2988.21	4181
2990.04	4206
2991.87	4129
2993.7	4157
2995.53	4158
2997.359	4086
2999.187	4037
3001.015	4041
3002.842	4024
3004.669	4011
3006.497	4066
3008.323	4026
3010.148	3965
3011.974	3957
3013.797	4009
3015.623	3909
3017.447	3985
3019.27	3883
3021.094	3888
3022.915	3899
3024.737	3917
3026.56	3913
3028.38	3837
3030.201	3840
3032.022	3860
3033.84	3827
3035.662	3835
3037.481	3868
3039.298	3862
3041.117	3843
3042.933	3813
3044.752	3827
3046.568	3878
3048.385	3798
3050.2	3853
3052.016	3858
3053.83	3880
3055.646	3904
3057.46	3789
3059.272	3832
3061.086	3880
3062.898	3783
3064.711	3875
3066.524	3859
3068.335	3748
3070.145	3691
3071.956	3804
3073.766	3820
3075.576	3802
3077.385	3792
3079.193	3715
3081.002	3831
3082.81	3719
3084.618	3761
3086.425	3706
3088.231	3771
3090.036	3785
3091.842	3716
3093.648	3737
3095.452	3723
3097.257	3767
3099.06	3731
3100.863	3707
3102.666	3753
3104.47	3704
3106.272	3721
3108.073	3741
3109.875	3659
3111.676	3735
3113.477	3707
3115.277	3671
3117.077	3744
3118.874	3707
3120.673	3629
3122.473	3626
3124.271	3693
3126.066	3766
3127.863	3670
3129.66	3621
3131.456	3604
3133.252	3707
3135.047	3710
3136.842	3669
3138.635	3698
3140.429	3683
3142.223	3681
3144.016	3710
3145.808	3695
3147.6	3654
3149.392	3613
3151.183	3540
3152.975	3640
3154.765	3625
3156.553	3633
3158.344	3684
3160.132	3661
3161.922	3623
3163.71	3688
3165.497	3579
3167.285	3609
3169.071	3628
3170.858	3619
3172.645	3688
3174.429	3643
3176.214	3651
3177.998	3617
3179.783	3639
3181.568	3648
3183.351	3613
3185.133	3573
3186.915	3595
3188.698	3595
3190.481	3590
3192.261	3584
3194.042	3632
3195.822	3613
3197.601	3628
3199.381	3570
3201.161	3643
3202.939	3614
3204.717	3560
3206.495	3711
3208.272	3566
3210.05	3565
3211.826	3624
3213.602	3615
3215.376	3621
3217.151	3597
3218.927	3538
3220.702	3604
3222.476	3620
3224.249	3621
3226.021	3519
3227.793	3639
3229.567	3546
3231.339	3637
3233.109	3573
3234.88	3543
3236.651	3585
3238.421	3577
3240.191	3520
3241.96	3620
3243.728	3636
3245.497	3586
3247.263	3596
3249.033	3541
3250.799	3588
3252.566	3591
3254.331	3684
3256.097	3661
3257.863	3644
3259.628	3577
3261.392	3576
3263.156	3600
3264.919	3565
3266.683	3588
3268.447	3560
3270.208	3484
3271.969	3523
3273.731	3544
3275.492	3597
3277.253	3574
3279.013	3541
3280.773	3625
3282.532	3649
3284.291	3615
3286.05	3535
3287.808	3631
3289.566	3607
3291.323	3616
3293.079	3580
3294.835	3606
3296.593	3668
3298.348	3532
3300.102	3547
3301.857	3590
3303.611	3601
3305.366	3518
3307.119	3585
3308.872	3525
3310.624	3534
3312.376	3587
3314.129	3531
3315.881	3532
3317.631	3588
3319.38	3569
3321.13	3611
3322.88	3561
3324.631	3558
3326.379	3489
3328.126	3501
3329.875	3545
3331.622	3494
3333.371	3590
3335.116	3506
3336.863	3621
3338.609	3572
3340.353	3597
3342.1	3462
3343.845	3582
3345.588	3573
3347.332	3547
3349.074	3512
3350.817	3570
3352.56	3515
3354.303	3492
3356.043	3638
3357.785	3583
3359.525	3538
3361.268	3540
3363.007	3453
3364.745	3549
3366.485	3622
3368.223	3540
3369.962	3463
3371.701	3521
3373.438	3417
3375.174	3489
3376.911	3458
3378.647	3463
3380.384	3503
3382.118	3408
3383.854	3508
3385.588	3499
3387.322	3396
3389.057	3431
3390.79	3497
3392.522	3523
3394.255	3556
3395.987	3492
3397.719	3518
3399.451	3426
3401.181	3476
3402.911	3474
3404.641	3438
3406.371	3460
3408.101	3536
3409.83	3485
3411.558	3388
3413.285	3543
3415.011	3461
3416.739	3435
3418.467	3483
3420.193	3517
3421.919	3411
3423.644	3433
3425.368	3400
3427.094	3378
3428.818	3373
3430.542	3463
3432.264	3431
3433.987	3470
3435.712	3395
3437.434	3416
3439.155	3438
3440.876	3378
3442.596	3385
3444.317	3380
3446.039	3362
3447.757	3392
3449.477	3372
3451.195	3373
3452.914	3371
3454.632	3367
3456.35	3388
3458.067	3267
3459.784	3376
3461.5	3386
3463.216	3297
3464.932	3291
3466.647	3305
3468.362	3362
3470.076	3384
3471.789	3313
3473.505	3335
3475.217	3294
3476.929	3398
3478.641	3364
3480.354	3312
3482.066	3332
3483.777	3279
3485.487	3322
3487.197	3318
3488.908	3376
3490.617	3365
3492.327	3339
3494.035	3263
3495.743	3304
3497.451	3270
3499.158	3274
3500.866	3223
3502.572	3324
3504.278	3298
3505.984	3277
3507.689	3231
3509.396	3275
3511.1	3206
3512.804	3256
3514.508	3273
3516.211	3244
3517.913	3271
3519.616	3239
3521.319	3243
3523.021	3263
3524.722	3270
3526.422	3231
3528.124	3233
3529.824	3328
3531.524	3257
3533.222	3108
3534.921	3213
3536.62	3201
3538.318	3174
3540.016	3189
3541.714	3207
3543.41	3171
3545.107	3263
3546.803	3242
3548.5	3174
3550.194	3177
3551.889	3296
3553.583	3213
3555.279	3215
3556.972	3245
3558.666	3169
3560.358	3246
3562.051	3117
3563.742	3259
3565.435	3224
3567.126	3185
3568.817	3155
3570.507	3144
3572.197	3142
3573.888	3213
3575.577	3190
3577.265	3186
3578.954	3207
3580.642	3178
3582.329	3181
3584.017	3208
3585.704	3267
3587.391	3193
3589.077	3060
3590.762	3200
3592.449	3081
3594.133	3146
3595.817	3145
3597.501	3098
3599.185	3151
3600.869	3090
3602.552	3071
3604.234	3123
3605.916	3119
3607.598	3106
3609.279	3111
3610.961	3116
3612.642	3147
3614.321	2996
3616	3039
3617.68	3011
3619.36	3031
3621.039	3023
3622.716	3029
3624.394	3123
3626.071	3008
3627.748	3091
3629.425	3028
3631.102	3116
3632.778	3066
3634.452	3061
3636.127	3070
3637.803	3068
3639.477	3031
3641.151	3149
3642.823	3080
3644.497	3102
3646.171	2976
3647.842	3064
3649.515	3030
3651.185	3017
3652.857	2931
3654.527	3037
3656.198	2991
3657.868	3034
3659.537	3052
3661.207	2913
3662.875	2938
3664.544	3091
3666.212	3063
3667.879	3055
3669.546	2968
3671.212	3040
3672.88	3062
3674.546	2959
3676.211	3027
3677.875	3028
3679.541	2995
3681.205	2930
3682.87	2948
3684.533	2951
3686.196	3003
3687.859	2995
3689.521	2973
3691.184	2968
3692.845	2900
3694.507	2921
3696.167	2944
3697.827	2965
3699.487	2955
3701.148	3008
3702.808	2886
3704.466	2945
3706.125	2923
3707.783	2889
3709.442	2932
3711.099	2959
3712.757	2981
3714.412	3032
3716.068	2886
3717.725	2897
3719.381	2928
3721.036	2929
3722.689	3017
3724.344	2970
3725.998	2955
3727.652	2910
3729.305	2987
3730.958	2932
3732.61	2948
3734.262	2912
3735.915	2988
3737.565	2930
3739.217	2854
3740.866	2918
3742.516	2937
3744.165	2929
3745.816	2873
3747.464	2913
3749.113	2859
3750.761	2867
3752.409	2905
3754.057	2899
3755.703	2858
3757.35	2916
3758.996	2931
3760.641	2845
3762.289	2855
3763.933	2859
3765.577	2920
3767.222	2857
3768.865	2931
3770.508	2858
3772.152	2818
3773.796	2832
3775.438	2879
3777.079	2894
3778.721	2859
3780.363	2893
3782.003	2868
3783.643	2868
3785.283	2851
3786.923	2847
3788.563	2869
3790.203	2858
3791.841	2809
3793.479	2810
3795.115	2784
3796.753	2784
3798.391	2833
3800.027	2754
3801.664	2898
3803.299	2860
3804.935	2875
3806.571	2845
3808.206	2789
3809.839	2824
3811.473	2833
3813.107	2813
3814.74	2825
3816.375	2794
3818.006	2818
3819.638	2773
3821.27	2764
3822.9	2760
3824.532	2789
3826.163	2757
3827.792	2797
3829.423	2687
3831.051	2826
3832.682	2771
3834.311	2715
3835.938	2749
3837.566	2766
3839.193	2829
3840.821	2669
3842.448	2782
3844.075	2763
3845.7	2745
3847.325	2727
3848.951	2798
3850.576	2753
3852.201	2800
3853.825	2781
3855.448	2749
3857.072	2784
3858.694	2751
3860.318	2710
3861.939	2738
3863.562	2753
3865.183	2735
3866.804	2729
3868.426	2717
3870.045	2686
3871.666	2728
3873.285	2749
3874.904	2690
3876.524	2769
3878.142	2712
3879.76	2765
3881.378	2738
3882.995	2695
3884.612	2680
3886.229	2740
3887.845	2661
3889.461	2716
3891.076	2659
3892.691	2708
3894.307	2660
3895.922	2704
3897.536	2667
3899.149	2689
3900.761	2701
3902.374	2717
3903.988	2731
3905.6	2686
3907.212	2659
3908.822	2692
3910.433	2685
3912.045	2697
3913.655	2685
3915.265	2684
3916.875	2692
3918.483	2690
3920.093	2739
3921.702	2692
3923.309	2723
3924.917	2730
3926.523	2665
3928.13	2700
3929.739	2635
3931.344	2626
3932.95	2628
3934.555	2654
3936.159	2698
3937.766	2722
3939.369	2657
3940.974	2662
3942.577	2649
3944.181	2664
3945.783	2699
3947.386	2644
3948.989	2633
3950.59	2677
3952.191	2648
3953.791	2605
3955.394	2673
3956.994	2678
3958.593	2584
3960.192	2670
3961.791	2646
3963.392	2686
3964.99	2695
3966.588	2700
3968.185	2606
3969.782	2577
3971.379	2645
3972.976	2686
3974.572	2667
3976.168	2593
3977.763	2614
3979.358	2661
3980.954	2588
3982.548	2646
3984.142	2544
3985.736	2584
3987.329	2668
3988.922	2626
3990.516	2562
3992.108	2561
3993.698	2635
3995.29	2604
3996.881	2576
3998.473	2609
4000.064	2617
4001.653	2605
4003.242	2575
4004.832	2598
4006.422	2517
4008.01	2543
4009.598	2555
4011.186	2481
4012.773	2616
4014.36	2587
4015.947	2529
4017.534	2566
4019.119	2558
4020.705	2624
4022.291	2557
4023.876	2565
4025.461	2528
4027.044	2629
4028.627	2535
4030.211	2577
4031.795	2531
4033.378	2438
4034.96	2526
4036.542	2529
4038.124	2518
4039.704	2471
4041.286	2548
4042.867	2494
4044.447	2534
4046.026	2466
4047.606	2543
4049.187	2469
4050.765	2486
4052.343	2499
4053.92	2464
4055.498	2481
4057.076	2431
4058.654	2521
4060.23	2506
4061.806	2437
4063.381	2493
4064.957	2534
4066.533	2456
4068.107	2523
4069.682	2446
4071.256	2422
4072.829	2465
4074.404	2445
4075.977	2407
4077.549	2479
4079.121	2504
4080.693	2492
4082.265	2496
4083.836	2489
4085.407	2492
4086.977	2472
4088.547	2526
4090.117	2460
4091.687	2451
4093.256	2441
4094.825	2439
4096.392	2439
4097.96	2446
4099.528	2401
4101.097	2446
4102.663	2413
4104.229	2427
4105.795	2460
4107.361	2470
4108.928	2455
4110.493	2427
4112.058	2502
4113.621	2345
4115.186	2449
4116.75	2417
4118.313	2448
4119.876	2377
4121.438	2441
4123	2427
4124.562	2374
4126.125	2439
4127.686	2408
4129.246	2481
4130.807	2382
4132.367	2398
4133.927	2463
4135.486	2335
4137.046	2357
4138.604	2328
4140.162	2397
4141.72	2397
4143.279	2353
4144.836	2397
4146.393	2409
4147.949	2362
4149.505	2443
4151.062	2331
4152.617	2338
4154.172	2300
4155.727	2309
4157.281	2358
4158.836	2357
4160.39	2368
4161.943	2308
4163.496	2301
4165.048	2393
4166.601	2398
4168.154	2304
4169.706	2274
4171.257	2302
4172.808	2299
4174.358	2318
4175.909	2355
4177.458	2316
4179.008	2291
4180.558	2266
4182.106	2264
4183.655	2274
4185.204	2322
4186.751	2290
4188.298	2289
4189.845	2317
4191.392	2325
4192.939	2281
4194.485	2311
4196.031	2308
4197.576	2235
4199.121	2260
4200.666	2240
4202.211	2261
4203.754	2318
4205.298	2241
4206.84	2305
4208.384	2257
4209.927	2207
4211.47	2303
4213.011	2306
4214.552	2312
4216.094	2262
4217.635	2327
4219.175	2255
4220.716	2273
4222.255	2245
4223.793	2214
4225.335	2244
4226.873	2281
4228.411	2264
4229.948	2242
4231.486	2277
4233.024	2262
4234.562	2232
4236.098	2288
4237.634	2254
4239.169	2219
4240.705	2277
4242.241	2216
4243.776	2243
4245.31	2260
4246.844	2255
4248.378	2235
4249.911	2230
4251.445	2245
4252.978	2225
4254.51	2254
4256.042	2247
4257.574	2267
4259.107	2229
4260.638	2219
4262.169	2198
4263.699	2227
4265.228	2250
4266.759	2175
4268.289	2202
4269.818	2212
4271.345	2279
4272.874	2171
4274.402	2232
4275.931	2180
4277.458	2240
4278.985	2194
4280.512	2148
4282.037	2175
4283.564	2211
4285.089	2211
4286.615	2135
4288.139	2195
4289.664	2194
4291.187	2197
4292.712	2177
4294.235	2159
4295.759	2201
4297.281	2149
4298.804	2184
4300.327	2174
4301.849	2160
4303.37	2159
4304.891	2166
4306.412	2130
4307.933	2225
4309.453	2196
4310.973	2251
4312.492	2094
