398.1873	9499
400.7097	9475
403.2336	9450
405.7547	9408
408.2751	9618
410.7948	9563
413.3138	9607
415.83	9563
418.3497	9766
420.8666	9822
423.3829	9859
425.8985	9891
428.4133	9937
430.9275	9987
433.441	10052
435.9538	9942
438.4639	9912
440.9753	10055
443.4881	10129
445.9982	10049
448.5055	10126
451.0142	10180
453.5201	10093
456.0274	10230
458.5361	10212
461.04	10199
463.5453	10179
466.0478	10323
468.5517	10289
471.0549	10193
473.5574	10358
476.0572	10187
478.5584	10214
481.0568	10523
483.5545	10420
486.0557	10506
488.5521	10368
491.0478	10414
493.5449	10254
496.0392	10649
498.5349	10611
501.0299	10540
503.5222	10596
506.0139	10480
508.5048	10599
510.9991	10634
513.4887	10663
515.9777	10688
518.4659	10645
520.9534	10556
523.4403	10613
525.9306	10640
528.4161	10709
530.9009	10832
533.3851	10664
535.8687	10514
538.3535	10608
540.8356	10553
543.3171	10726
545.7979	10707
548.278	10713
550.7595	10731
553.2383	10740
555.7144	10788
558.1918	10876
560.6685	10918
563.1446	10776
565.6221	10889
568.0968	10833
570.5688	10864
573.0422	11106
575.515	11007
577.989	11064
580.4584	11148
582.9291	10991
585.3991	11251
587.8685	11140
590.3352	11185
592.8052	11053
595.2706	11176
597.7372	11191
600.2033	10930
602.6666	11140
605.1334	11022
607.5953	11088
610.0587	11134
612.5193	11049
614.9814	10997
617.4427	10979
619.9034	11068
622.3615	11037
624.8208	11039
627.2775	11002
629.7335	11091
632.1929	10954
634.6476	11102
637.1016	11109
639.5569	11153
642.0096	11052
644.4637	11149
646.9151	11296
649.3678	11157
651.8179	11267
654.2672	11238
656.7159	11354
659.166	11442
661.6154	11205
664.0622	11429
666.5082	11242
668.9537	11550
671.4005	11348
673.8445	11450
676.288	11380
678.7308	11331
681.1729	11414
683.6163	11379
686.0572	11563
688.4973	11395
690.9368	11377
693.3757	11454
695.8138	11527
698.2534	11546
700.6902	11652
703.1245	11480
705.56	11541
707.9949	11663
710.4311	11669
712.8647	11679
715.2957	11718
717.7279	11776
720.1595	11616
722.5905	11803
725.0208	11819
727.4505	11916
729.8795	11870
732.3058	12127
734.7336	11957
737.1626	11958
739.587	12059
742.0128	12042
744.4359	12201
746.8604	12165
749.2841	12089
751.7073	12151
754.1278	12097
756.5496	12355
758.9688	12272
761.3893	12083
763.8093	12326
766.2285	12411
768.6451	12288
771.0611	12549
773.4784	12323
775.895	12365
778.3091	12345
780.7244	12596
783.1371	12212
785.5493	12304
787.9626	12214
790.3754	12344
792.7856	12273
795.1951	12332
797.6039	12211
800.0121	12382
802.4236	12438
804.8306	12434
807.2369	12410
809.6425	12634
812.0475	12353
814.4538	12414
816.8575	12570
819.2606	12556
821.663	12559
824.0648	12578
826.4659	12631
828.8683	12359
831.2682	12437
833.6674	12453
836.066	12546
838.4639	12510
840.8632	12560
843.2579	12629
845.6539	12628
848.0493	12597
850.444	12778
852.84	12644
855.2315	12645
857.6243	12626
860.0165	12649
862.4081	12825
864.797	12477
867.1892	12858
869.5789	12696
871.9659	12669
874.3542	12742
876.74	12675
879.129	12530
881.5155	12829
883.8994	12641
886.2845	12830
888.6671	12596
891.051	12666
893.4343	12768
895.8169	12737
898.197	12539
900.5783	12729
902.9571	12624
905.3372	12778
907.7167	12782
910.0936	12666
912.4698	12857
914.8474	12893
917.2244	12853
919.5987	12979
921.9744	12974
924.3475	13043
926.72	13106
929.0918	13148
931.4669	13308
933.8375	13033
936.2074	13121
938.5767	13285
940.9454	13297
943.3154	13325
945.6829	13714
948.0497	13927
950.4178	14103
952.7833	14474
955.1483	14748
957.5145	15264
959.8782	15458
962.2412	15287
964.6036	14943
966.9655	14687
969.3266	14267
971.6871	13925
974.0471	13638
976.4064	13365
978.765	13175
981.125	13236
983.4824	12948
985.8373	13199
988.1935	13041
990.549	13078
992.9039	13028
995.2602	13258
997.6119	12807
999.965	13137
1002.317	13140
1004.667	13072
1007.02	13009
1009.371	13369
1011.719	13120
1014.068	13110
1016.415	13214
1018.765	13132
1021.111	12949
1023.458	13175
1025.804	13403
1028.147	13288
1030.49	13397
1032.837	13148
1035.179	13412
1037.522	13307
1039.862	13329
1042.204	13349
1044.546	13412
1046.884	13204
1049.224	13273
1051.562	13413
1053.899	13411
1056.237	13459
1058.575	13498
1060.91	13547
1063.244	13531
1065.58	13509
1067.913	13397
1070.248	13675
1072.579	13588
1074.911	13482
1077.242	13611
1079.572	13502
1081.905	13566
1084.234	13480
1086.562	13585
1088.89	13674
1091.217	13428
1093.544	13421
1095.871	13209
1098.197	13469
1100.521	13454
1102.845	13478
1105.169	13639
1107.491	13324
1109.814	13570
1112.135	13468
1114.456	13362
1116.776	13305
1119.096	13406
1121.415	13489
1123.734	13641
1126.052	13543
1128.369	13324
1130.686	13675
1133.002	13533
1135.318	13635
1137.632	13429
1139.945	13543
1142.258	13541
1144.573	13558
1146.884	13476
1149.196	13466
1151.505	13499
1153.816	13586
1156.124	13527
1158.435	13567
1160.742	13613
1163.051	13590
1165.356	13539
1167.663	13387
1169.97	13485
1172.276	13567
1174.579	13454
1176.881	13542
1179.186	13435
1181.487	13630
1183.79	13405
1186.092	13661
1188.392	13445
1190.691	13546
1192.991	13509
1195.291	13503
1197.588	13309
1199.885	13498
1202.181	13468
1204.479	13483
1206.775	13495
1209.07	13392
1211.363	13641
1213.656	13621
1215.949	13420
1218.241	13586
1220.534	13575
1222.825	13612
1225.115	13694
1227.405	13686
1229.693	13636
1231.984	13759
1234.271	13792
1236.558	13878
1238.845	13926
1241.131	13924
1243.416	13932
1245.703	13959
1247.987	13995
1250.269	13840
1252.552	13795
1254.834	13774
1257.118	13981
1259.399	13847
1261.678	13892
1263.958	13868
1266.237	13937
1268.516	13854
1270.794	13804
1273.072	13786
1275.347	13888
1277.624	13788
1279.899	13789
1282.175	13810
1284.449	13868
1286.722	13956
1288.995	13820
1291.266	13739
1293.54	13668
1295.81	13725
1298.081	13806
1300.35	13920
1302.62	13688
1304.889	13778
1307.156	13704
1309.425	13683
1311.69	13745
1313.957	13847
1316.222	13799
1318.488	13757
1320.751	13726
1323.016	13853
1325.278	13762
1327.54	13832
1329.803	13782
1332.065	13783
1334.325	13542
1336.584	13752
1338.843	13972
1341.101	13761
1343.36	13860
1345.617	13848
1347.876	13858
1350.131	13819
1352.387	13881
1354.643	13831
1356.897	13675
1359.151	13750
1361.403	13814
1363.656	13825
1365.909	13847
1368.16	13984
1370.409	13671
1372.659	13800
1374.909	13933
1377.157	13705
1379.407	13877
1381.655	13891
1383.9	13970
1386.147	13702
1388.393	14105
1390.64	13897
1392.885	13993
1395.127	13794
1397.37	13908
1399.614	14206
1401.854	13908
1404.098	14036
1406.339	14134
1408.578	14104
1410.818	14224
1413.056	14006
1415.297	13906
1417.533	14056
1419.771	13983
1422.006	14192
1424.243	14041
1426.479	14034
1428.715	14116
1430.948	14166
1433.182	14136
1435.414	14179
1437.647	14329
1439.88	14121
1442.11	14331
1444.342	14358
1446.571	14338
1448.799	14205
1451.029	14493
1453.258	14441
1455.485	14358
1457.711	14386
1459.937	14482
1462.164	14157
1464.39	14205
1466.614	14160
1468.838	14278
1471.06	14214
1473.283	14297
1475.506	14167
1477.727	14110
1479.949	14066
1482.169	13996
1484.389	14074
1486.609	13987
1488.828	14075
1491.045	14001
1493.261	13906
1495.477	13862
1497.693	13854
1499.91	13826
1502.125	13944
1504.339	13946
1506.553	13811
1508.766	13871
1510.979	13866
1513.191	14040
1515.402	13922
1517.613	13882
1519.823	13887
1522.033	13821
1524.242	14010
1526.451	13799
1528.657	13879
1530.865	14136
1533.072	13964
1535.278	13832
1537.484	13828
1539.687	14103
1541.892	13947
1544.096	13984
1546.299	13806
1548.502	13892
1550.703	13951
1552.905	13940
1555.104	13925
1557.303	14282
1559.505	14219
1561.703	13967
1563.902	14239
1566.099	14295
1568.295	14372
1570.494	14094
1572.689	14283
1574.883	14207
1577.079	14124
1579.272	14172
1581.467	14330
1583.659	14309
1585.853	14304
1588.044	14240
1590.234	14481
1592.424	14318
1594.615	14445
1596.806	14395
1598.994	14404
1601.182	14253
1603.369	14427
1605.557	14354
1607.744	14545
1609.929	14377
1612.114	14591
1614.298	14365
1616.482	14285
1618.667	14561
1620.85	14195
1623.032	14331
1625.214	14444
1627.395	14482
1629.575	14310
1631.755	14520
1633.935	14505
1636.114	14401
1638.292	14428
1640.471	14549
1642.647	14659
1644.823	14489
1647	14507
1649.175	14577
1651.348	14658
1653.525	14654
1655.698	14540
1657.87	14675
1660.043	14459
1662.213	14594
1664.387	14643
1666.558	14632
1668.727	14547
1670.896	14548
1673.064	14496
1675.233	14659
1677.401	14496
1679.569	14548
1681.735	14365
1683.902	14647
1686.066	14554
1688.233	14699
1690.397	14581
1692.559	14499
1694.723	14472
1696.885	14450
1699.048	14347
1701.21	14446
1703.37	14508
1705.53	14540
1707.689	14375
1709.849	14335
1712.009	14340
1714.166	14334
1716.323	14218
1718.479	14384
1720.634	14365
1722.793	14286
1724.948	14402
1727.102	14457
1729.255	14159
1731.408	14402
1733.562	14332
1735.714	14215
1737.865	14462
1740.016	14541
1742.166	14385
1744.316	14322
1746.467	14284
1748.616	14574
1750.764	14409
1752.911	14490
1755.056	14298
1757.205	14362
1759.35	14416
1761.496	14550
1763.641	14402
1765.785	14497
1767.927	14544
1770.072	14560
1772.214	14435
1774.355	14552
1776.496	14523
1778.637	14563
1780.778	14331
1782.918	14510
1785.057	14504
1787.194	14574
1789.333	14618
1791.472	14616
1793.608	14509
1795.745	14577
1797.879	14484
1800.015	14396
1802.148	14480
1804.284	14333
1806.417	14583
1808.548	14558
1810.682	14528
1812.812	14606
1814.946	14558
1817.075	14471
1819.205	14618
1821.335	14523
1823.463	14449
1825.59	14488
1827.721	14468
1829.847	14382
1831.973	14397
1834.098	14535
1836.223	14419
1838.351	14557
1840.475	14340
1842.598	14289
1844.721	14381
1846.843	14384
1848.966	14406
1851.087	14288
1853.21	14277
1855.33	14374
1857.449	14349
1859.568	14320
1861.688	14384
1863.806	14290
1865.924	14185
1868.039	14387
1870.155	14309
1872.273	14446
1874.388	14388
1876.503	14294
1878.617	14365
1880.73	14264
1882.844	14476
1884.956	14454
1887.068	14335
1889.18	14497
1891.291	14327
1893.4	14387
1895.511	14370
1897.621	14294
1899.73	14527
1901.837	14333
1903.944	14629
1906.053	14556
1908.159	14448
1910.265	14602
1912.369	14592
1914.474	14623
1916.577	14586
1918.683	14606
1920.785	14583
1922.888	14681
1924.989	14543
1927.091	14601
1929.193	14708
1931.294	14541
1933.393	14601
1935.493	14631
1937.59	14644
1939.689	14640
1941.788	14721
1943.884	14654
1945.98	14721
1948.077	14623
1950.171	14585
1952.267	14493
1954.361	14585
1956.455	14490
1958.548	14807
1960.64	14652
1962.733	14604
1964.824	14676
1966.915	14542
1969.005	14670
1971.096	14441
1973.185	14496
1975.275	14536
1977.363	14559
1979.45	14587
1981.537	14661
1983.623	14438
1985.711	14717
1987.796	14492
1989.881	14383
1991.965	14641
1994.047	14534
1996.132	14339
1998.215	14328
2000.297	14432
2002.378	14479
2004.46	14458
2006.54	14463
2008.62	14372
2010.7	14511
2012.779	14379
2014.858	14317
2016.934	14392
2019.013	14354
2021.09	14599
2023.165	14321
2025.241	14609
2027.317	14387
2029.39	14574
2031.466	14341
2033.538	14300
2035.612	14421
2037.683	14378
2039.755	14420
2041.827	14567
2043.898	14448
2045.968	14404
2048.038	14404
2050.106	14400
2052.177	14477
2054.244	14426
2056.313	14300
2058.379	14454
2060.444	14472
2062.511	14372
2064.577	14418
2066.641	14474
2068.705	14611
2070.77	14505
2072.832	14588
2074.896	14463
2076.958	14418
2079.02	14464
2081.081	14417
2083.141	14422
2085.2	14193
2087.261	14508
2089.319	14367
2091.377	14331
2093.435	14421
2095.492	14300
2097.552	14369
2099.607	14452
2101.663	14431
2103.718	14502
2105.771	14455
2107.826	14612
2109.879	14329
2111.932	14297
2113.985	14187
2116.037	14580
2118.088	14434
2120.141	14476
2122.191	14511
2124.239	14305
2126.288	14374
2128.337	14235
2130.387	14352
2132.434	14412
2134.481	14221
2136.528	14469
2138.574	14393
2140.618	14516
2142.665	14239
2144.71	14319
2146.753	14153
2148.797	14186
2150.838	14355
2152.883	14209
2154.923	14334
2156.965	14273
2159.007	14149
2161.046	14292
2163.086	14258
2165.126	14235
2167.163	14074
2169.202	14104
2171.239	14223
2173.277	14167
2175.314	14145
2177.349	14241
2179.385	14279
2181.42	14264
2183.453	14221
2185.49	14149
2187.522	14124
2189.555	14406
2191.586	14148
2193.619	14041
2195.651	14097
2197.682	14170
2199.711	13977
2201.74	14116
2203.769	14265
2205.799	14125
2207.828	14067
2209.855	14012
2211.882	13949
2213.908	14063
2215.934	13878
2217.961	13913
2219.986	13899
2222.01	13991
2224.034	14013
2226.057	13863
2228.08	13899
2230.104	13835
2232.124	13899
2234.145	13941
2236.166	13850
2238.186	13868
2240.207	14051
2242.227	13971
2244.244	14006
2246.262	14045
2248.28	14046
2250.299	13827
2252.314	13923
2254.33	14147
2256.346	13870
2258.36	13807
2260.375	13963
2262.391	13964
2264.403	13927
2266.416	13925
2268.427	13837
2270.44	13950
2272.453	14028
2274.463	14014
2276.474	14100
2278.483	13907
2280.493	14159
2282.501	14072
2284.51	14019
2286.518	14078
2288.524	14098
2290.532	13987
2292.537	13775
2294.544	13873
2296.55	14027
2298.554	13845
2300.557	13880
2302.562	13999
2304.566	13790
2306.568	13961
2308.569	13801
2310.572	14036
2312.573	13997
2314.573	13679
2316.574	13856
2318.573	14011
2320.571	13953
2322.571	13908
2324.569	13820
2326.567	13580
2328.564	13833
2330.56	13841
2332.556	13815
2334.551	13637
2336.546	13761
2338.542	13737
2340.535	13862
2342.529	13651
2344.521	13803
2346.512	13622
2348.505	13672
2350.497	13550
2352.487	13674
2354.478	13723
2356.468	13680
2358.457	13681
2360.446	13722
2362.434	13731
2364.422	13600
2366.408	13726
2368.395	13635
2370.383	13740
2372.369	13528
2374.353	13850
2376.338	13540
2378.321	13553
2380.307	13680
2382.29	13438
2384.272	13569
2386.254	13455
2388.235	13519
2390.218	13570
2392.198	13544
2394.179	13365
2396.157	13469
2398.137	13638
2400.115	13485
2402.095	13390
2404.072	13487
2406.048	13633
2408.026	13524
2410.001	13396
2411.977	13534
2413.953	13445
2415.927	13416
2417.9	13421
2419.875	13420
2421.847	13490
2423.821	13309
2425.792	13528
2427.763	13513
2429.736	13409
2431.706	13470
2433.677	13552
2435.646	13358
2437.615	13517
2439.583	13299
2441.551	13477
2443.519	13465
2445.486	13368
2447.452	13165
2449.418	13255
2451.383	13492
2453.348	13322
2455.314	13205
2457.278	13239
2459.241	13452
2461.205	13266
2463.167	13388
2465.131	13388
2467.091	13437
2469.052	13224
2471.012	13330
2472.972	13324
2474.932	13149
2476.891	13382
2478.85	13407
2480.808	13230
2482.766	13246
2484.722	13220
2486.68	13268
2488.636	13379
2490.591	13215
2492.546	13212
2494.5	13269
2496.456	13249
2498.41	13278
2500.362	13227
2502.315	13189
2504.266	13357
2506.218	13049
2508.169	13119
2510.121	13136
2512.07	13228
2514.019	12997
2515.968	13163
2517.918	13050
2519.866	13113
2521.813	13137
2523.76	13147
2525.707	13065
2527.653	13065
2529.599	13085
2531.543	13187
2533.489	12937
2535.433	13072
2537.376	12988
2539.32	13104
2541.264	13137
2543.205	13145
2545.147	13179
2547.087	13101
2549.029	13027
2550.969	13145
2552.908	13089
2554.847	13090
2556.786	13146
2558.724	13248
2560.663	13102
2562.6	13163
2564.537	13110
2566.473	13196
2568.408	12990
2570.345	12970
2572.28	13149
2574.214	13130
2576.148	13114
2578.081	13065
2580.014	13068
2581.947	13037
2583.879	13151
2585.81	12854
2587.741	13095
2589.67	13125
2591.602	13039
2593.532	13044
2595.461	13067
2597.388	13099
2599.316	13203
2601.244	13033
2603.172	13230
2605.098	13187
2607.023	12896
2608.949	13074
2610.873	13143
2612.8	13168
2614.723	13016
2616.647	12985
2618.569	13129
2620.493	13043
2622.416	13101
2624.338	13083
2626.258	13016
2628.179	13079
2630.099	12980
2632.019	13038
2633.939	13092
2635.857	13150
2637.775	13231
2639.694	13233
2641.61	13062
2643.528	13071
2645.444	13055
2647.361	13062
2649.276	13125
2651.19	13170
2653.105	12997
2655.019	13026
2656.934	13223
2658.846	13076
2660.758	12951
2662.67	13218
2664.583	13143
2666.493	13004
2668.404	13100
2670.313	13049
2672.223	12918
2674.134	12951
2676.042	13050
2677.95	13007
2679.858	13035
2681.765	12939
2683.673	12885
2685.579	12930
2687.483	12861
2689.389	12954
2691.294	12978
2693.198	12916
2695.104	12995
2697.006	12977
2698.909	13023
2700.811	12924
2702.713	12870
2704.615	12911
2706.516	12770
2708.417	13010
2710.316	12818
2712.216	12726
2714.115	12869
2716.014	12820
2717.913	12723
2719.81	12902
2721.707	12730
2723.603	12949
2725.501	12845
2727.396	12718
2729.292	12644
2731.186	12740
2733.081	12911
2734.976	12759
2736.87	12740
2738.762	12671
2740.653	12631
2742.546	12739
2744.437	12682
2746.329	12659
2748.22	12602
2750.11	12669
2751.999	12547
2753.889	12551
2755.778	12572
2757.666	12883
2759.553	12577
2761.44	12561
2763.328	12843
2765.215	12554
2767.101	12662
2768.986	12664
2770.87	12554
2772.754	12692
2774.638	12638
2776.523	12597
2778.405	12625
2780.288	12665
2782.17	12676
2784.051	12568
2785.934	12515
2787.814	12621
2789.694	12665
2791.574	12359
2793.453	12484
2795.332	12664
2797.212	12509
2799.088	12544
2800.966	12392
2802.843	12503
2804.719	12601
2806.597	12497
2808.471	12489
2810.346	12506
2812.221	12465
2814.094	12555
2815.969	12481
2817.843	12589
2819.714	12530
2821.587	12535
2823.459	12541
2825.329	12435
2827.202	12327
2829.072	12593
2830.942	12417
2832.811	12508
2834.68	12468
2836.549	12533
2838.418	12327
2840.284	12455
2842.152	12300
2844.018	12511
2845.885	12470
2847.751	12396
2849.616	12459
2851.482	12385
2853.345	12498
2855.208	12493
2857.074	12406
2858.937	12496
2860.799	12568
2862.66	12523
2864.522	12473
2866.385	12598
2868.245	12744
2870.104	12640
2871.964	12598
2873.824	12565
2875.683	12788
2877.542	12880
2879.4	12764
2881.257	12813
2883.114	13193
2884.97	13040
2886.827	12674
2888.683	12915
2890.537	12845
2892.392	12880
2894.246	12941
2896.1	12827
2897.954	12964
2899.807	12597
2901.66	12839
2903.51	12743
2905.362	12724
2907.214	12620
2909.065	12798
2910.915	12921
2912.765	12865
2914.613	12868
2916.463	13094
2918.311	13053
2920.158	12921
2922.006	13204
2923.853	13236
2925.698	13137
2927.546	13111
2929.392	13378
2931.236	13212
2933.081	13483
2934.924	13664
2936.77	13591
2938.613	13476
2940.455	13570
2942.298	13514
2944.139	13604
2945.982	13656
2947.823	13403
2949.662	13599
2951.503	13413
2953.342	13289
2955.182	13327
2957.021	13052
2958.858	13394
2960.697	13058
2962.534	13070
2964.37	13100
2966.207	12977
2968.044	12864
2969.879	12933
2971.714	12979
2973.548	12794
2975.383	12834
2977.218	12836
2979.051	12789
2980.883	12806
2982.715	12689
2984.547	12716
2986.379	12781
2988.21	12508
2990.04	12523
2991.87	12601
2993.7	12509
2995.53	12494
2997.359	12538
2999.187	12452
3001.015	12432
3002.842	12298
3004.669	12171
3006.497	12052
3008.323	12251
3010.148	12083
3011.974	12030
3013.797	12019
3015.623	12069
3017.447	12036
3019.27	11852
3021.094	11919
3022.915	11825
3024.737	12040
3026.56	11644
3028.38	11906
3030.201	11787
3032.022	11779
3033.84	11820
3035.662	11812
3037.481	11741
3039.298	11918
3041.117	11780
3042.933	11683
3044.752	11633
3046.568	11696
3048.385	11722
3050.2	11579
3052.016	11737
3053.83	11648
3055.646	11718
3057.46	11638
3059.272	11743
3061.086	11600
3062.898	11874
3064.711	11564
3066.524	11636
3068.335	11708
3070.145	11516
3071.956	11590
3073.766	11743
3075.576	11689
3077.385	11525
3079.193	11434
3081.002	11431
3082.81	11338
3084.618	11570
3086.425	11503
3088.231	11508
3090.036	11410
3091.842	11352
3093.648	11226
3095.452	11447
3097.257	11352
3099.06	11179
3100.863	11206
3102.666	11308
3104.47	11157
3106.272	11155
3108.073	11374
3109.875	11219
3111.676	11420
3113.477	11309
3115.277	11181
3117.077	11086
3118.874	11148
3120.673	11231
3122.473	11225
3124.271	11133
3126.066	11098
3127.863	11072
3129.66	11292
3131.456	11059
3133.252	11090
3135.047	11107
3136.842	11083
3138.635	11005
3140.429	11031
3142.223	11061
3144.016	11005
3145.808	11033
3147.6	11010
3149.392	10879
3151.183	10899
3152.975	10925
3154.765	10968
3156.553	10974
3158.344	11009
3160.132	10939
3161.922	11082
3163.71	10927
3165.497	10970
3167.285	10988
3169.071	10816
3170.858	10855
3172.645	10762
3174.429	11008
3176.214	10962
3177.998	10963
3179.783	10892
3181.568	10809
3183.351	10956
3185.133	10904
3186.915	10799
3188.698	10869
3190.481	10873
3192.261	10890
3194.042	10813
3195.822	10931
3197.601	10889
3199.381	10709
3201.161	10841
3202.939	10870
3204.717	10670
3206.495	10844
3208.272	10685
3210.05	10903
3211.826	10716
3213.602	10615
3215.376	10767
3217.151	10855
3218.927	10720
3220.702	10767
3222.476	10904
3224.249	10774
3226.021	10825
3227.793	10721
3229.567	10711
3231.339	10709
3233.109	10537
3234.88	10723
3236.651	10775
3238.421	10736
3240.191	10698
3241.96	10643
3243.728	10676
3245.497	10577
3247.263	10649
3249.033	10702
3250.799	10821
3252.566	10641
3254.331	10715
3256.097	10622
3257.863	10548
3259.628	10609
3261.392	10644
3263.156	10643
3264.919	10576
3266.683	10635
3268.447	10622
3270.208	10612
3271.969	10592
3273.731	10625
3275.492	10613
3277.253	10722
3279.013	10470
3280.773	10569
3282.532	10546
3284.291	10547
3286.05	10593
3287.808	10539
3289.566	10645
3291.323	10529
3293.079	10632
3294.835	10535
3296.593	10602
3298.348	10629
3300.102	10609
3301.857	10495
3303.611	10665
3305.366	10568
3307.119	10686
3308.872	10566
3310.624	10522
3312.376	10581
3314.129	10481
3315.881	10556
3317.631	10528
3319.38	10575
3321.13	10471
3322.88	10560
3324.631	10513
3326.379	10503
3328.126	10658
3329.875	10506
3331.622	10463
3333.371	10537
3335.116	10386
3336.863	10362
3338.609	10338
3340.353	10451
3342.1	10339
3343.845	10475
3345.588	10349
3347.332	10370
3349.074	10354
3350.817	10358
3352.56	10475
3354.303	10454
3356.043	10204
3357.785	10335
3359.525	10404
3361.268	10320
3363.007	10407
3364.745	10293
3366.485	10306
3368.223	10169
3369.962	10298
3371.701	10395
3373.438	10448
3375.174	10302
3376.911	10251
3378.647	10394
3380.384	10327
3382.118	10222
3383.854	10231
3385.588	10276
3387.322	10312
3389.057	10378
3390.79	10218
3392.522	10209
3394.255	10212
3395.987	10254
3397.719	10196
3399.451	10283
3401.181	10130
3402.911	10215
3404.641	10102
3406.371	10044
3408.101	10114
3409.83	10158
3411.558	10092
3413.285	10140
3415.011	10020
3416.739	10032
3418.467	10054
3420.193	10023
3421.919	10036
3423.644	9998
3425.368	10025
3427.094	9990
3428.818	9909
3430.542	9977
3432.264	9870
3433.987	9938
3435.712	9975
3437.434	10048
3439.155	10029
3440.876	9862
3442.596	9910
3444.317	9974
3446.039	9986
3447.757	9753
3449.477	9922
3451.195	9907
3452.914	9935
3454.632	9859
3456.35	9727
3458.067	9901
3459.784	9893
3461.5	9690
3463.216	9727
3464.932	9806
3466.647	9846
3468.362	9720
3470.076	9803
3471.789	9677
3473.505	9670
3475.217	9735
3476.929	9681
3478.641	9612
3480.354	9524
3482.066	9695
3483.777	9696
3485.487	9525
3487.197	9597
3488.908	9648
3490.617	9758
3492.327	9598
3494.035	9634
3495.743	9561
3497.451	9719
3499.158	9563
3500.866	9581
3502.572	9443
3504.278	9543
3505.984	9650
3507.689	9509
3509.396	9584
3511.1	9373
3512.804	9603
3514.508	9591
3516.211	9504
3517.913	9507
3519.616	9506
3521.319	9467
3523.021	9350
3524.722	9299
3526.422	9392
3528.124	9448
3529.824	9546
3531.524	9523
3533.222	9252
3534.921	9403
3536.62	9500
3538.318	9233
3540.016	9313
3541.714	9285
3543.41	9367
3545.107	9428
3546.803	9344
3548.5	9250
3550.194	9312
3551.889	9265
3553.583	9300
3555.279	9302
3556.972	9391
3558.666	9319
3560.358	9216
3562.051	9286
3563.742	9251
3565.435	9214
3567.126	9226
3568.817	9159
3570.507	9160
3572.197	9170
3573.888	9190
3575.577	9211
3577.265	9120
3578.954	9046
3580.642	9271
3582.329	9217
3584.017	9155
3585.704	9244
3587.391	9026
3589.077	9242
3590.762	9096
3592.449	9124
3594.133	9132
3595.817	9013
3597.501	9103
3599.185	8969
3600.869	9116
3602.552	8986
3604.234	8923
3605.916	9069
3607.598	9007
3609.279	8959
3610.961	8941
3612.642	8961
3614.321	8932
3616	8765
3617.68	8886
3619.36	8907
3621.039	8802
3622.716	8812
3624.394	8911
3626.071	8916
3627.748	8828
3629.425	8914
3631.102	8652
3632.778	8907
3634.452	8697
3636.127	8792
3637.803	8803
3639.477	8625
3641.151	8842
3642.823	8648
3644.497	8788
3646.171	8734
3647.842	8799
3649.515	8759
3651.185	8681
3652.857	8727
3654.527	8533
3656.198	8688
3657.868	8639
3659.537	8679
3661.207	8589
3662.875	8627
3664.544	8676
3666.212	8751
3667.879	8568
3669.546	8530
3671.212	8645
3672.88	8698
3674.546	8562
3676.211	8634
3677.875	8545
3679.541	8594
3681.205	8523
3682.87	8503
3684.533	8426
3686.196	8533
3687.859	8508
3689.521	8454
3691.184	8402
3692.845	8484
3694.507	8535
3696.167	8433
3697.827	8478
3699.487	8440
3701.148	8587
3702.808	8615
3704.466	8472
3706.125	8581
3707.783	8304
3709.442	8402
3711.099	8577
3712.757	8478
3714.412	8327
3716.068	8532
3717.725	8406
3719.381	8475
3721.036	8357
3722.689	8325
3724.344	8337
3725.998	8315
3727.652	8323
3729.305	8355
3730.958	8397
3732.61	8324
3734.262	8398
3735.915	8284
3737.565	8283
3739.217	8225
3740.866	8331
3742.516	8361
3744.165	8427
3745.816	8133
3747.464	8201
3749.113	8208
3750.761	8402
3752.409	8206
3754.057	8252
3755.703	8191
3757.35	8276
3758.996	8307
3760.641	8380
3762.289	8149
3763.933	8156
3765.577	8269
3767.222	8169
3768.865	8269
3770.508	8129
3772.152	8285
3773.796	8127
3775.438	8149
3777.079	8166
3778.721	8227
3780.363	8210
3782.003	8126
3783.643	8185
3785.283	8068
3786.923	8154
3788.563	7953
3790.203	8055
3791.841	8052
3793.479	8056
3795.115	8125
3796.753	7981
3798.391	8136
3800.027	8005
3801.664	7983
3803.299	8020
3804.935	7958
3806.571	7910
3808.206	8036
3809.839	7947
3811.473	8020
3813.107	8086
3814.74	7919
3816.375	7971
3818.006	7846
3819.638	7894
3821.27	8003
3822.9	7990
3824.532	7893
3826.163	7957
3827.792	7741
3829.423	7771
3831.051	7925
3832.682	7746
3834.311	7874
3835.938	7879
3837.566	7843
3839.193	7714
3840.821	7881
3842.448	7721
3844.075	7835
3845.7	7746
3847.325	7777
3848.951	7875
3850.576	7824
3852.201	7738
3853.825	7921
3855.448	7810
3857.072	7934
3858.694	7694
3860.318	7599
3861.939	7769
3863.562	7746
3865.183	7687
3866.804	7778
3868.426	7834
3870.045	7660
3871.666	7731
3873.285	7726
3874.904	7623
3876.524	7601
3878.142	7711
3879.76	7634
3881.378	7581
3882.995	7665
3884.612	7641
3886.229	7673
3887.845	7641
3889.461	7659
3891.076	7559
3892.691	7665
3894.307	7505
3895.922	7596
3897.536	7558
3899.149	7608
3900.761	7601
3902.374	7518
3903.988	7584
3905.6	7487
3907.212	7655
3908.822	7556
3910.433	7566
3912.045	7567
3913.655	7564
3915.265	7640
3916.875	7620
3918.483	7416
3920.093	7614
3921.702	7605
3923.309	7440
3924.917	7503
3926.523	7588
3928.13	7485
3929.739	7494
3931.344	7494
3932.95	7467
3934.555	7616
3936.159	7470
3937.766	7526
3939.369	7515
3940.974	7576
3942.577	7457
3944.181	7478
3945.783	7399
3947.386	7383
3948.989	7434
3950.59	7387
3952.191	7355
3953.791	7348
3955.394	7453
3956.994	7317
3958.593	7443
3960.192	7326
3961.791	7443
3963.392	7303
3964.99	7256
3966.588	7316
3968.185	7264
3969.782	7298
3971.379	7291
3972.976	7209
3974.572	7322
3976.168	7433
3977.763	7227
3979.358	7274
3980.954	7159
3982.548	7185
3984.142	7167
3985.736	7240
3987.329	7170
3988.922	7289
3990.516	7197
3992.108	7213
3993.698	7322
3995.29	7138
3996.881	7182
3998.473	7131
4000.064	7180
4001.653	7189
4003.242	7182
4004.832	7112
4006.422	7133
4008.01	7159
4009.598	7087
4011.186	7018
4012.773	7002
4014.36	7036
4015.947	6926
4017.534	7084
4019.119	7019
4020.705	6939
4022.291	7023
4023.876	7038
4025.461	6993
4027.044	6988
4028.627	6941
4030.211	6815
4031.795	6854
4033.378	7003
4034.96	6926
4036.542	7011
4038.124	6878
4039.704	6881
4041.286	6947
4042.867	6903
4044.447	6771
4046.026	6969
4047.606	6820
4049.187	6865
4050.765	6783
4052.343	6841
4053.92	6835
4055.498	6952
4057.076	6836
4058.654	6827
4060.23	6780
4061.806	6793
4063.381	6794
4064.957	6852
4066.533	6682
4068.107	6759
4069.682	6804
4071.256	6779
4072.829	6827
4074.404	6775
4075.977	6729
4077.549	6838
4079.121	6729
4080.693	6738
4082.265	6678
4083.836	6746
4085.407	6729
4086.977	6673
4088.547	6741
4090.117	6641
4091.687	6664
4093.256	6714
4094.825	6641
4096.392	6709
4097.96	6631
4099.528	6662
4101.097	6686
4102.663	6688
4104.229	6575
4105.795	6645
4107.361	6636
4108.928	6575
4110.493	6555
4112.058	6672
4113.621	6515
4115.186	6611
4116.75	6624
4118.313	6568
4119.876	6562
4121.438	6508
4123	6527
4124.562	6517
4126.125	6466
4127.686	6569
4129.246	6578
4130.807	6573
4132.367	6483
4133.927	6563
4135.486	6437
4137.046	6415
4138.604	6455
4140.162	6431
4141.72	6398
4143.279	6426
4144.836	6554
4146.393	6382
4147.949	6376
4149.505	6377
4151.062	6406
4152.617	6461
4154.172	6373
4155.727	6398
4157.281	6364
4158.836	6209
4160.39	6389
4161.943	6346
4163.496	6407
4165.048	6371
4166.601	6349
4168.154	6412
4169.706	6338
4171.257	6353
4172.808	6250
4174.358	6154
4175.909	6320
4177.458	6218
4179.008	6273
4180.558	6261
4182.106	6187
4183.655	6196
4185.204	6230
4186.751	6164
4188.298	6214
4189.845	6081
4191.392	6216
4192.939	6277
4194.485	6127
4196.031	6327
4197.576	6156
4199.121	6184
4200.666	6211
4202.211	6117
4203.754	6165
4205.298	6199
4206.84	6087
4208.384	6262
4209.927	6233
4211.47	6034
4213.011	6243
4214.552	6167
4216.094	6194
4217.635	6072
4219.175	6090
4220.716	6028
4222.255	6195
4223.793	6110
4225.335	6028
4226.873	6131
4228.411	6067
4229.948	6007
4231.486	6009
4233.024	6176
4234.562	6024
4236.098	5906
4237.634	6001
4239.169	5933
4240.705	6003
4242.241	5985
4243.776	6030
4245.31	5997
4246.844	5917
4248.378	5881
4249.911	5971
4251.445	5966
4252.978	5987
4254.51	5945
4256.042	5955
4257.574	6048
4259.107	5992
4260.638	5924
4262.169	5880
4263.699	5906
4265.228	5890
4266.759	5809
4268.289	5753
4269.818	5902
4271.345	5865
4272.874	6021
4274.402	5933
4275.931	5836
4277.458	5986
4278.985	5826
4280.512	5891
4282.037	5817
4283.564	5852
4285.089	5924
4286.615	5836
4288.139	5938
4289.664	5772
4291.187	5872
4292.712	5888
4294.235	5748
4295.759	5819
4297.281	5878
4298.804	5838
4300.327	5737
4301.849	5774
4303.37	5833
4304.891	5668
4306.412	5676
4307.933	5747
4309.453	5688
4310.973	5783
4312.492	5682
