398.1873	3179
400.7097	3215
403.2336	3207
405.7547	3185
408.2751	3231
410.7948	3177
413.3138	3208
415.83	3251
418.3497	3263
420.8666	3283
423.3829	3333
425.8985	3257
428.4133	3360
430.9275	3393
433.441	3316
435.9538	3352
438.4639	3367
440.9753	3339
443.4881	3422
445.9982	3435
448.5055	3352
451.0142	3401
453.5201	3374
456.0274	3372
458.5361	3347
461.04	3446
463.5453	3370
466.0478	3488
468.5517	3418
471.0549	3377
473.5574	3418
476.0572	3514
478.5584	3400
481.0568	3453
483.5545	3496
486.0557	3434
488.5521	3473
491.0478	3533
493.5449	3579
496.0392	3534
498.5349	3547
501.0299	3387
503.5222	3491
506.0139	3478
508.5048	3612
510.9991	3476
513.4887	3595
515.9777	3526
518.4659	3576
520.9534	3540
523.4403	3541
525.9306	3539
528.4161	3534
530.9009	3564
533.3851	3560
535.8687	3585
538.3535	3628
540.8356	3599
543.3171	3567
545.7979	3620
548.278	3594
550.7595	3536
553.2383	3626
555.7144	3520
558.1918	3565
560.6685	3472
563.1446	3584
565.6221	3630
568.0968	3577
570.5688	3530
573.0422	3580
575.515	3565
577.989	3600
580.4584	3711
582.9291	3624
585.3991	3644
587.8685	3702
590.3352	3672
592.8052	3662
595.2706	3720
597.7372	3637
600.2033	3707
602.6666	3703
605.1334	3651
607.5953	3586
610.0587	3688
612.5193	3706
614.9814	3620
617.4427	3639
619.9034	3621
622.3615	3662
624.8208	3683
627.2775	3634
629.7335	3557
632.1929	3643
634.6476	3732
637.1016	3678
639.5569	3736
642.0096	3619
644.4637	3638
646.9151	3648
649.3678	3627
651.8179	3685
654.2672	3711
656.7159	3746
659.166	3756
661.6154	3686
664.0622	3795
666.5082	3734
668.9537	3729
671.4005	3694
673.8445	3758
676.288	3739
678.7308	3743
681.1729	3781
683.6163	3708
686.0572	3807
688.4973	3803
690.9368	3760
693.3757	3815
695.8138	3851
698.2534	3832
700.6902	3797
703.1245	3831
705.56	3859
707.9949	3878
710.4311	3768
712.8647	3873
715.2957	3951
717.7279	3852
720.1595	3935
722.5905	3831
725.0208	3906
727.4505	3875
729.8795	3927
732.3058	3862
734.7336	3882
737.1626	3959
739.587	3969
742.0128	3890
744.4359	3938
746.8604	3884
749.2841	3972
751.7073	3990
754.1278	3988
756.5496	4042
758.9688	4023
761.3893	4113
763.8093	4051
766.2285	4090
768.6451	4047
771.0611	4018
773.4784	4076
775.895	4028
778.3091	4030
780.7244	4010
783.1371	3965
785.5493	3982
787.9626	3970
790.3754	4039
792.7856	4021
795.1951	4070
797.6039	4047
800.0121	4198
802.4236	4024
804.8306	4172
807.2369	4018
809.6425	4126
812.0475	4083
814.4538	4158
816.8575	4083
819.2606	4081
821.663	4040
824.0648	4161
826.4659	4028
828.8683	4072
831.2682	4170
833.6674	4015
836.066	4024
838.4639	4096
840.8632	4044
843.2579	4077
845.6539	4066
848.0493	4105
850.444	4166
852.84	4144
855.2315	4087
857.6243	4109
860.0165	4125
862.4081	4080
864.797	4173
867.1892	4230
869.5789	4178
871.9659	4104
874.3542	4159
876.74	4131
879.129	4162
881.5155	4084
883.8994	4229
886.2845	4155
888.6671	4112
891.051	4125
893.4343	4196
895.8169	4076
898.197	4166
900.5783	4120
902.9571	4135
905.3372	4133
907.7167	4186
910.0936	4225
912.4698	4107
914.8474	4209
917.2244	4250
919.5987	4206
921.9744	4306
924.3475	4235
926.72	4251
929.0918	4327
931.4669	4291
933.8375	4215
936.2074	4243
938.5767	4406
940.9454	4370
943.3154	4366
945.6829	4368
948.0497	4557
950.4178	4512
952.7833	4497
955.1483	4553
957.5145	4654
959.8782	4657
962.2412	4730
964.6036	4508
966.9655	4577
969.3266	4582
971.6871	4419
974.0471	4342
976.4064	4237
978.765	4329
981.125	4274
983.4824	4312
985.8373	4287
988.1935	4257
990.549	4302
992.9039	4316
995.2602	4265
997.6119	4241
999.965	4270
1002.317	4319
1004.667	4277
1007.02	4377
1009.371	4271
1011.719	4306
1014.068	4308
1016.415	4259
1018.765	4361
1021.111	4279
1023.458	4244
1025.804	4221
1028.147	4353
1030.49	4377
1032.837	4339
1035.179	4390
1037.522	4469
1039.862	4351
1042.204	4319
1044.546	4361
1046.884	4294
1049.224	4370
1051.562	4360
1053.899	4315
1056.237	4401
1058.575	4306
1060.91	4478
1063.244	4307
1065.58	4459
1067.913	4368
1070.248	4437
1072.579	4410
1074.911	4446
1077.242	4412
1079.572	4427
1081.905	4385
1084.234	4355
1086.562	4435
1088.89	4364
1091.217	4324
1093.544	4474
1095.871	4415
1098.197	4443
1100.521	4372
1102.845	4413
1105.169	4474
1107.491	4354
1109.814	4384
1112.135	4454
1114.456	4481
1116.776	4482
1119.096	4502
1121.415	4516
1123.734	4461
1126.052	4497
1128.369	4490
1130.686	4460
1133.002	4504
1135.318	4472
1137.632	4475
1139.945	4486
1142.258	4407
1144.573	4440
1146.884	4463
1149.196	4419
1151.505	4509
1153.816	4531
1156.124	4479
1158.435	4523
1160.742	4473
1163.051	4470
1165.356	4528
1167.663	4409
1169.97	4533
1172.276	4436
1174.579	4457
1176.881	4452
1179.186	4526
1181.487	4426
1183.79	4464
1186.092	4495
1188.392	4476
1190.691	4360
1192.991	4539
1195.291	4351
1197.588	4463
1199.885	4538
1202.181	4455
1204.479	4455
1206.775	4419
1209.07	4489
1211.363	4549
1213.656	4545
1215.949	4458
1218.241	4472
1220.534	4528
1222.825	4588
1225.115	4479
1227.405	4576
1229.693	4599
1231.984	4550
1234.271	4561
1236.558	4561
1238.845	4628
1241.131	4578
1243.416	4550
1245.703	4600
1247.987	4609
1250.269	4558
1252.552	4663
1254.834	4675
1257.118	4576
1259.399	4590
1261.678	4594
1263.958	4495
1266.237	4563
1268.516	4615
1270.794	4600
1273.072	4663
1275.347	4667
1277.624	4603
1279.899	4685
1282.175	4541
1284.449	4606
1286.722	4607
1288.995	4525
1291.266	4618
1293.54	4644
1295.81	4644
1298.081	4534
1300.35	4621
1302.62	4579
1304.889	4623
1307.156	4646
1309.425	4599
1311.69	4613
1313.957	4616
1316.222	4566
1318.488	4594
1320.751	4556
1323.016	4560
1325.278	4548
1327.54	4615
1329.803	4586
1332.065	4578
1334.325	4674
1336.584	4632
1338.843	4684
1341.101	4651
1343.36	4658
1345.617	4536
1347.876	4567
1350.131	4573
1352.387	4598
1354.643	4597
1356.897	4653
1359.151	4597
1361.403	4527
1363.656	4557
1365.909	4571
1368.16	4641
1370.409	4621
1372.659	4648
1374.909	4688
1377.157	4563
1379.407	4598
1381.655	4618
1383.9	4706
1386.147	4636
1388.393	4652
1390.64	4638
1392.885	4628
1395.127	4635
1397.37	4685
1399.614	4713
1401.854	4632
1404.098	4724
1406.339	4690
1408.578	4703
1410.818	4654
1413.056	4728
1415.297	4743
1417.533	4688
1419.771	4730
1422.006	4725
1424.243	4768
1426.479	4744
1428.715	4755
1430.948	4709
1433.182	4749
1435.414	4789
1437.647	4705
1439.88	4833
1442.11	4813
1444.342	4784
1446.571	4705
1448.799	4836
1451.029	4739
1453.258	4826
1455.485	4746
1457.711	4806
1459.937	4822
1462.164	4773
1464.39	4859
1466.614	4729
1468.838	4837
1471.06	4766
1473.283	4662
1475.506	4764
1477.727	4779
1479.949	4766
1482.169	4743
1484.389	4708
1486.609	4749
1488.828	4770
1491.045	4762
1493.261	4677
1495.477	4655
1497.693	4684
1499.91	4727
1502.125	4757
1504.339	4648
1506.553	4687
1508.766	4622
1510.979	4728
1513.191	4726
1515.402	4737
1517.613	4636
1519.823	4672
1522.033	4761
1524.242	4691
1526.451	4726
1528.657	4660
1530.865	4595
1533.072	4769
1535.278	4683
1537.484	4690
1539.687	4795
1541.892	4651
1544.096	4686
1546.299	4685
1548.502	4712
1550.703	4756
1552.905	4719
1555.104	4760
1557.303	4722
1559.505	4752
1561.703	4709
1563.902	4736
1566.099	4793
1568.295	4878
1570.494	4826
1572.689	4732
1574.883	4880
1577.079	4770
1579.272	4830
1581.467	4795
1583.659	4912
1585.853	4779
1588.044	4798
1590.234	4912
1592.424	4878
1594.615	4866
1596.806	4772
1598.994	4847
1601.182	4819
1603.369	4824
1605.557	4825
1607.744	4870
1609.929	4822
1612.114	4821
1614.298	4848
1616.482	4780
1618.667	4839
1620.85	4936
1623.032	4840
1625.214	4861
1627.395	4915
1629.575	4892
1631.755	4835
1633.935	4834
1636.114	4951
1638.292	4878
1640.471	4841
1642.647	4951
1644.823	4918
1647	4819
1649.175	4887
1651.348	4881
1653.525	4877
1655.698	4955
1657.87	4903
1660.043	4856
1662.213	4905
1664.387	4819
1666.558	4839
1668.727	4881
1670.896	4969
1673.064	4941
1675.233	4933
1677.401	4885
1679.569	4918
1681.735	4950
1683.902	4971
1686.066	4922
1688.233	4918
1690.397	4870
1692.559	4929
1694.723	4898
1696.885	4891
1699.048	4865
1701.21	4891
1703.37	4844
1705.53	4860
1707.689	4878
1709.849	4870
1712.009	4829
1714.166	4904
1716.323	4793
1718.479	4888
1720.634	4938
1722.793	4836
1724.948	4873
1727.102	4850
1729.255	4886
1731.408	4889
1733.562	4874
1735.714	4855
1737.865	4896
1740.016	4931
1742.166	4885
1744.316	4899
1746.467	4905
1748.616	4966
1750.764	4871
1752.911	4914
1755.056	4998
1757.205	4917
1759.35	4887
1761.496	4910
1763.641	4972
1765.785	4829
1767.927	4956
1770.072	4895
1772.214	4809
1774.355	5090
1776.496	4947
1778.637	5009
1780.778	4875
1782.918	4871
1785.057	4934
1787.194	4961
1789.333	4976
1791.472	5023
1793.608	4853
1795.745	4988
1797.879	4869
1800.015	4973
1802.148	4991
1804.284	4926
1806.417	5018
1808.548	4882
1810.682	4965
1812.812	5015
1814.946	4888
1817.075	4983
1819.205	4919
1821.335	4953
1823.463	4941
1825.59	4950
1827.721	4904
1829.847	4871
1831.973	4986
1834.098	4912
1836.223	4853
1838.351	4995
1840.475	4936
1842.598	4883
1844.721	4901
1846.843	4836
1848.966	4921
1851.087	4932
1853.21	4907
1855.33	4978
1857.449	4882
1859.568	4909
1861.688	4885
1863.806	4902
1865.924	4922
1868.039	4941
1870.155	4883
1872.273	4887
1874.388	4872
1876.503	4873
1878.617	4950
1880.73	5012
1882.844	4943
1884.956	4907
1887.068	5000
1889.18	4966
1891.291	5066
1893.4	4927
1895.511	5059
1897.621	4914
1899.73	4996
1901.837	5010
1903.944	5038
1906.053	4917
1908.159	4901
1910.265	4977
1912.369	4936
1914.474	4948
1916.577	5027
1918.683	5113
1920.785	4917
1922.888	5033
1924.989	4981
1927.091	4970
1929.193	5084
1931.294	4994
1933.393	5020
1935.493	4988
1937.59	5038
1939.689	5019
1941.788	4961
1943.884	5035
1945.98	5017
1948.077	4990
1950.171	4956
1952.267	4974
1954.361	5058
1956.455	5039
1958.548	5069
1960.64	5053
1962.733	5069
1964.824	4936
1966.915	5051
1969.005	4962
1971.096	5004
1973.185	5002
1975.275	4979
1977.363	5120
1979.45	5028
1981.537	5018
1983.623	4966
1985.711	5115
1987.796	5018
1989.881	5027
1991.965	5022
1994.047	4986
1996.132	4918
1998.215	4961
2000.297	5004
2002.378	5021
2004.46	4878
2006.54	4920
2008.62	4945
2010.7	5035
2012.779	4980
2014.858	4998
2016.934	4975
2019.013	4988
2021.09	4958
2023.165	5057
2025.241	5077
2027.317	4983
2029.39	5022
2031.466	5062
2033.538	4873
2035.612	4958
2037.683	5029
2039.755	5043
2041.827	4996
2043.898	5092
2045.968	5064
2048.038	5061
2050.106	4961
2052.177	4971
2054.244	4964
2056.313	5026
2058.379	5021
2060.444	4945
2062.511	5042
2064.577	5004
2066.641	5013
2068.705	4951
2070.77	5095
2072.832	4973
2074.896	5031
2076.958	5089
2079.02	5031
2081.081	4997
2083.141	4991
2085.2	5053
2087.261	5117
2089.319	5017
2091.377	5095
2093.435	4996
2095.492	5014
2097.552	5071
2099.607	5033
2101.663	4945
2103.718	4965
2105.771	5031
2107.826	5110
2109.879	4941
2111.932	4950
2113.985	4952
2116.037	5038
2118.088	5083
2120.141	4997
2122.191	5027
2124.239	5071
2126.288	5140
2128.337	5087
2130.387	5007
2132.434	5014
2134.481	4938
2136.528	5038
2138.574	5064
2140.618	4972
2142.665	5013
2144.71	5004
2146.753	5054
2148.797	5089
2150.838	5036
2152.883	4953
2154.923	5046
2156.965	4980
2159.007	5003
2161.046	4876
2163.086	4877
2165.126	4984
2167.163	4968
2169.202	5010
2171.239	4949
2173.277	4940
2175.314	4859
2177.349	4979
2179.385	4980
2181.42	4992
2183.453	4964
2185.49	4924
2187.522	4938
2189.555	4961
2191.586	5005
2193.619	4894
2195.651	4898
2197.682	4938
2199.711	4919
2201.74	4902
2203.769	4909
2205.799	4979
2207.828	4896
2209.855	4935
2211.882	4931
2213.908	4870
2215.934	4838
2217.961	4947
2219.986	4943
2222.01	4849
2224.034	4988
2226.057	4952
2228.08	4970
2230.104	4888
2232.124	4985
2234.145	4895
2236.166	5033
2238.186	4847
2240.207	4841
2242.227	4900
2244.244	4872
2246.262	4953
2248.28	4897
2250.299	4872
2252.314	4917
2254.33	4904
2256.346	4942
2258.36	4917
2260.375	5010
2262.391	4889
2264.403	4847
2266.416	4895
2268.427	4885
2270.44	4842
2272.453	4909
2274.463	4946
2276.474	4932
2278.483	4935
2280.493	4978
2282.501	4905
2284.51	5021
2286.518	4970
2288.524	4871
2290.532	4995
2292.537	4915
2294.544	4938
2296.55	4895
2298.554	4957
2300.557	4936
2302.562	4877
2304.566	4916
2306.568	4945
2308.569	4873
2310.572	4933
2312.573	4865
2314.573	4836
2316.574	4932
2318.573	4869
2320.571	4942
2322.571	4952
2324.569	4885
2326.567	4848
2328.564	4871
2330.56	5000
2332.556	4919
2334.551	4936
2336.546	4844
2338.542	4866
2340.535	4944
2342.529	4873
2344.521	4887
2346.512	4947
2348.505	4874
2350.497	4797
2352.487	4861
2354.478	4845
2356.468	4798
2358.457	4946
2360.446	4894
2362.434	4850
2364.422	4801
2366.408	4854
2368.395	4713
2370.383	4888
2372.369	4904
2374.353	4931
2376.338	4844
2378.321	4798
2380.307	4788
2382.29	4857
2384.272	4800
2386.254	4862
2388.235	4805
2390.218	4712
2392.198	4794
2394.179	4835
2396.157	4892
2398.137	4895
2400.115	4847
2402.095	4751
2404.072	4689
2406.048	4808
2408.026	4772
2410.001	4724
2411.977	4803
2413.953	4803
2415.927	4824
2417.9	4774
2419.875	4730
2421.847	4780
2423.821	4709
2425.792	4786
2427.763	4731
2429.736	4784
2431.706	4875
2433.677	4778
2435.646	4888
2437.615	4792
2439.583	4727
2441.551	4898
2443.519	4774
2445.486	4843
2447.452	4828
2449.418	4784
2451.383	4791
2453.348	4803
2455.314	4752
2457.278	4823
2459.241	4771
2461.205	4832
2463.167	4799
2465.131	4743
2467.091	4786
2469.052	4760
2471.012	4709
2472.972	4794
2474.932	4803
2476.891	4792
2478.85	4738
2480.808	4757
2482.766	4791
2484.722	4844
2486.68	4702
2488.636	4764
2490.591	4669
2492.546	4829
2494.5	4821
2496.456	4765
2498.41	4758
2500.362	4698
2502.315	4743
2504.266	4703
2506.218	4750
2508.169	4769
2510.121	4677
2512.07	4793
2514.019	4732
2515.968	4796
2517.918	4579
2519.866	4720
2521.813	4754
2523.76	4738
2525.707	4647
2527.653	4777
2529.599	4724
2531.543	4724
2533.489	4772
2535.433	4720
2537.376	4668
2539.32	4769
2541.264	4766
2543.205	4705
2545.147	4678
2547.087	4674
2549.029	4719
2550.969	4770
2552.908	4704
2554.847	4774
2556.786	4655
2558.724	4594
2560.663	4655
2562.6	4725
2564.537	4780
2566.473	4723
2568.408	4700
2570.345	4687
2572.28	4839
2574.214	4674
2576.148	4683
2578.081	4812
2580.014	4716
2581.947	4608
2583.879	4744
2585.81	4722
2587.741	4778
2589.67	4785
2591.602	4702
2593.532	4733
2595.461	4694
2597.388	4828
2599.316	4694
2601.244	4792
2603.172	4651
2605.098	4743
2607.023	4698
2608.949	4610
2610.873	4642
2612.8	4820
2614.723	4779
2616.647	4723
2618.569	4778
2620.493	4688
2622.416	4772
2624.338	4704
2626.258	4703
2628.179	4783
2630.099	4674
2632.019	4753
2633.939	4751
2635.857	4768
2637.775	4723
2639.694	4871
2641.61	4738
2643.528	4692
2645.444	4758
2647.361	4775
2649.276	4762
2651.19	4762
2653.105	4735
2655.019	4627
2656.934	4770
2658.846	4683
2660.758	4720
2662.67	4772
2664.583	4678
2666.493	4710
2668.404	4711
2670.313	4690
2672.223	4843
2674.134	4702
2676.042	4633
2677.95	4754
2679.858	4651
2681.765	4697
2683.673	4597
2685.579	4683
2687.483	4671
2689.389	4600
2691.294	4674
2693.198	4712
2695.104	4694
2697.006	4636
2698.909	4687
2700.811	4679
2702.713	4696
2704.615	4662
2706.516	4732
2708.417	4663
2710.316	4681
2712.216	4593
2714.115	4604
2716.014	4664
2717.913	4734
2719.81	4691
2721.707	4553
2723.603	4620
2725.501	4660
2727.396	4666
2729.292	4731
2731.186	4728
2733.081	4745
2734.976	4637
2736.87	4639
2738.762	4621
2740.653	4651
2742.546	4599
2744.437	4694
2746.329	4643
2748.22	4761
2750.11	4660
2751.999	4582
2753.889	4586
2755.778	4588
2757.666	4624
2759.553	4611
2761.44	4635
2763.328	4675
2765.215	4639
2767.101	4529
2768.986	4580
2770.87	4581
2772.754	4565
2774.638	4587
2776.523	4590
2778.405	4594
2780.288	4602
2782.17	4648
2784.051	4617
2785.934	4628
2787.814	4604
2789.694	4565
2791.574	4650
2793.453	4605
2795.332	4646
2797.212	4690
2799.088	4561
2800.966	4650
2802.843	4573
2804.719	4583
2806.597	4623
2808.471	4588
2810.346	4597
2812.221	4551
2814.094	4674
2815.969	4554
2817.843	4482
2819.714	4613
2821.587	4613
2823.459	4616
2825.329	4653
2827.202	4594
2829.072	4474
2830.942	4587
2832.811	4489
2834.68	4564
2836.549	4620
2838.418	4492
2840.284	4650
2842.152	4625
2844.018	4559
2845.885	4557
2847.751	4585
2849.616	4587
2851.482	4583
2853.345	4596
2855.208	4544
2857.074	4649
2858.937	4536
2860.799	4663
2862.66	4625
2864.522	4557
2866.385	4707
2868.245	4627
2870.104	4687
2871.964	4691
2873.824	4597
2875.683	4666
2877.542	4786
2879.4	4715
2881.257	4685
2883.114	4741
2884.97	4770
2886.827	4725
2888.683	4670
2890.537	4752
2892.392	4756
2894.246	4768
2896.1	4789
2897.954	4687
2899.807	4699
2901.66	4714
2903.51	4602
2905.362	4651
2907.214	4709
2909.065	4753
2910.915	4590
2912.765	4741
2914.613	4707
2916.463	4828
2918.311	4830
2920.158	4708
2922.006	4768
2923.853	4884
2925.698	4753
2927.546	4867
2929.392	4866
2931.236	4822
2933.081	4894
2934.924	4870
2936.77	4876
2938.613	4937
2940.455	4911
2942.298	4854
2944.139	4936
2945.982	5005
2947.823	4965
2949.662	4862
2951.503	4978
2953.342	4809
2955.182	4893
2957.021	4774
2958.858	4852
2960.697	4739
2962.534	4860
2964.37	4760
2966.207	4772
2968.044	4781
2969.879	4684
2971.714	4667
2973.548	4663
2975.383	4684
2977.218	4726
2979.051	4695
2980.883	4589
2982.715	4604
2984.547	4697
2986.379	4622
2988.21	4578
2990.04	4517
2991.87	4565
2993.7	4418
2995.53	4634
2997.359	4620
2999.187	4539
3001.015	4502
3002.842	4475
3004.669	4554
3006.497	4549
3008.323	4471
3010.148	4476
3011.974	4446
3013.797	4432
3015.623	4497
3017.447	4381
3019.27	4378
3021.094	4466
3022.915	4373
3024.737	4447
3026.56	4413
3028.38	4459
3030.201	4451
3032.022	4316
3033.84	4348
3035.662	4244
3037.481	4439
3039.298	4435
3041.117	4335
3042.933	4499
3044.752	4360
3046.568	4391
3048.385	4350
3050.2	4376
3052.016	4425
3053.83	4290
3055.646	4319
3057.46	4428
3059.272	4324
3061.086	4384
3062.898	4314
3064.711	4327
3066.524	4426
3068.335	4270
3070.145	4379
3071.956	4300
3073.766	4320
3075.576	4384
3077.385	4289
3079.193	4341
3081.002	4313
3082.81	4219
3084.618	4366
3086.425	4251
3088.231	4395
3090.036	4132
3091.842	4332
3093.648	4268
3095.452	4301
3097.257	4230
3099.06	4155
3100.863	4252
3102.666	4170
3104.47	4246
3106.272	4213
3108.073	4295
3109.875	4268
3111.676	4227
3113.477	4199
3115.277	4241
3117.077	4240
3118.874	4180
3120.673	4192
3122.473	4174
3124.271	4188
3126.066	4178
3127.863	4181
3129.66	4122
3131.456	4212
3133.252	4128
3135.047	4235
3136.842	4165
3138.635	4113
3140.429	4146
3142.223	4152
3144.016	4161
3145.808	4175
3147.6	4131
3149.392	4181
3151.183	4100
3152.975	4143
3154.765	4126
3156.553	4135
3158.344	4142
3160.132	4049
3161.922	4184
3163.71	4083
3165.497	4206
3167.285	4143
3169.071	4114
3170.858	4112
3172.645	4134
3174.429	4049
3176.214	4221
3177.998	4181
3179.783	4104
3181.568	4030
3183.351	4136
3185.133	4145
3186.915	4122
3188.698	4071
3190.481	4067
3192.261	4029
3194.042	4085
3195.822	4029
3197.601	4107
3199.381	4127
3201.161	4076
3202.939	4044
3204.717	4071
3206.495	4039
3208.272	4071
3210.05	4047
3211.826	4051
3213.602	4053
3215.376	4043
3217.151	4027
3218.927	4062
3220.702	4080
3222.476	4071
3224.249	4084
3226.021	3972
3227.793	4077
3229.567	4087
3231.339	4016
3233.109	4168
3234.88	4082
3236.651	3872
3238.421	3975
3240.191	3945
3241.96	3943
3243.728	4035
3245.497	3932
3247.263	3983
3249.033	4066
3250.799	4029
3252.566	3989
3254.331	4013
3256.097	4010
3257.863	3970
3259.628	4042
3261.392	4007
3263.156	3952
3264.919	4025
3266.683	4054
3268.447	4022
3270.208	4071
3271.969	4123
3273.731	3963
3275.492	3980
3277.253	3988
3279.013	4071
3280.773	4008
3282.532	4017
3284.291	3963
3286.05	4085
3287.808	3953
3289.566	4092
3291.323	4024
3293.079	4021
3294.835	3948
3296.593	4039
3298.348	4010
3300.102	4042
3301.857	3892
3303.611	3984
3305.366	3954
3307.119	4038
3308.872	3991
3310.624	3942
3312.376	3985
3314.129	3955
3315.881	4007
3317.631	4024
3319.38	4074
3321.13	3994
3322.88	4083
3324.631	3943
3326.379	3990
3328.126	3967
3329.875	3959
3331.622	4053
3333.371	4012
3335.116	3973
3336.863	3955
3338.609	3975
3340.353	4005
3342.1	4045
3343.845	3926
3345.588	3846
3347.332	3927
3349.074	3990
3350.817	3920
3352.56	3892
3354.303	3995
3356.043	3878
3357.785	3837
3359.525	3918
3361.268	3935
3363.007	3978
3364.745	3875
3366.485	3966
3368.223	3893
3369.962	3965
3371.701	3921
3373.438	3851
3375.174	3882
3376.911	3941
3378.647	3832
3380.384	3873
3382.118	3796
3383.854	3829
3385.588	3844
3387.322	3901
3389.057	3939
3390.79	3993
3392.522	3909
3394.255	3868
3395.987	3929
3397.719	3822
3399.451	3902
3401.181	3890
3402.911	3858
3404.641	3868
3406.371	3890
3408.101	3806
3409.83	3898
3411.558	3840
3413.285	3830
3415.011	3872
3416.739	3904
3418.467	3827
3420.193	3927
3421.919	3861
3423.644	3914
3425.368	3771
3427.094	3833
3428.818	3874
3430.542	3798
3432.264	3857
3433.987	3831
3435.712	3906
3437.434	3808
3439.155	3772
3440.876	3856
3442.596	3830
3444.317	3713
3446.039	3867
3447.757	3804
3449.477	3754
3451.195	3889
3452.914	3769
3454.632	3767
3456.35	3705
3458.067	3724
3459.784	3831
3461.5	3763
3463.216	3777
3464.932	3818
3466.647	3782
3468.362	3734
3470.076	3757
3471.789	3701
3473.505	3770
3475.217	3693
3476.929	3703
3478.641	3693
3480.354	3647
3482.066	3745
3483.777	3787
3485.487	3728
3487.197	3732
3488.908	3749
3490.617	3734
3492.327	3721
3494.035	3747
3495.743	3710
3497.451	3665
3499.158	3651
3500.866	3757
3502.572	3668
3504.278	3746
3505.984	3688
3507.689	3683
3509.396	3694
3511.1	3627
3512.804	3692
3514.508	3711
3516.211	3618
3517.913	3675
3519.616	3586
3521.319	3630
3523.021	3679
3524.722	3677
3526.422	3602
3528.124	3617
3529.824	3634
3531.524	3635
3533.222	3637
3534.921	3593
3536.62	3612
3538.318	3623
3540.016	3675
3541.714	3677
3543.41	3698
3545.107	3593
3546.803	3599
3548.5	3587
3550.194	3665
3551.889	3616
3553.583	3624
3555.279	3609
3556.972	3636
3558.666	3668
3560.358	3673
3562.051	3627
3563.742	3609
3565.435	3599
3567.126	3496
3568.817	3599
3570.507	3560
3572.197	3534
3573.888	3639
3575.577	3557
3577.265	3532
3578.954	3565
3580.642	3465
3582.329	3602
3584.017	3596
3585.704	3520
3587.391	3499
3589.077	3605
3590.762	3546
3592.449	3574
3594.133	3575
3595.817	3559
3597.501	3616
3599.185	3558
3600.869	3391
3602.552	3603
3604.234	3515
3605.916	3546
3607.598	3454
3609.279	3441
3610.961	3539
3612.642	3450
3614.321	3458
3616	3442
3617.68	3480
3619.36	3444
3621.039	3418
3622.716	3400
3624.394	3458
3626.071	3458
3627.748	3468
3629.425	3457
3631.102	3407
3632.778	3443
3634.452	3440
3636.127	3390
3637.803	3507
3639.477	3399
3641.151	3385
3642.823	3528
3644.497	3438
3646.171	3420
3647.842	3403
3649.515	3416
3651.185	3356
3652.857	3425
3654.527	3385
3656.198	3404
3657.868	3425
3659.537	3377
3661.207	3386
3662.875	3371
3664.544	3440
3666.212	3372
3667.879	3438
3669.546	3388
3671.212	3369
3672.88	3380
3674.546	3466
3676.211	3371
3677.875	3350
3679.541	3392
3681.205	3371
3682.87	3438
3684.533	3293
3686.196	3332
3687.859	3361
3689.521	3403
3691.184	3341
3692.845	3414
3694.507	3388
3696.167	3380
3697.827	3290
3699.487	3337
3701.148	3341
3702.808	3308
3704.466	3375
3706.125	3448
3707.783	3361
3709.442	3362
3711.099	3313
3712.757	3390
3714.412	3363
3716.068	3378
3717.725	3341
3719.381	3311
3721.036	3309
3722.689	3377
3724.344	3295
3725.998	3295
3727.652	3303
3729.305	3404
3730.958	3319
3732.61	3375
3734.262	3335
3735.915	3373
3737.565	3297
3739.217	3283
3740.866	3228
3742.516	3273
3744.165	3260
3745.816	3317
3747.464	3257
3749.113	3288
3750.761	3268
3752.409	3287
3754.057	3316
3755.703	3321
3757.35	3318
3758.996	3259
3760.641	3249
3762.289	3282
3763.933	3233
3765.577	3299
3767.222	3291
3768.865	3255
3770.508	3245
3772.152	3166
3773.796	3284
3775.438	3269
3777.079	3202
3778.721	3278
3780.363	3259
3782.003	3193
3783.643	3247
3785.283	3186
3786.923	3200
3788.563	3234
3790.203	3279
3791.841	3243
3793.479	3193
3795.115	3175
3796.753	3228
3798.391	3231
3800.027	3231
3801.664	3268
3803.299	3136
3804.935	3262
3806.571	3181
3808.206	3185
3809.839	3113
3811.473	3184
3813.107	3191
3814.74	3167
3816.375	3281
3818.006	3228
3819.638	3190
3821.27	3179
3822.9	3191
3824.532	3199
3826.163	3114
3827.792	3245
3829.423	3174
3831.051	3156
3832.682	3065
3834.311	3241
3835.938	3122
3837.566	3107
3839.193	3150
3840.821	3110
3842.448	3099
3844.075	3143
3845.7	3200
3847.325	3167
3848.951	3166
3850.576	3125
3852.201	3154
3853.825	3145
3855.448	3060
3857.072	3090
3858.694	3148
3860.318	3130
3861.939	3201
3863.562	3095
3865.183	3055
3866.804	3057
3868.426	3093
3870.045	3109
3871.666	3109
3873.285	3144
3874.904	3094
3876.524	3158
3878.142	3096
3879.76	3084
3881.378	3132
3882.995	3074
3884.612	3022
3886.229	3040
3887.845	3071
3889.461	3054
3891.076	3114
3892.691	3077
3894.307	2999
3895.922	3054
3897.536	3112
3899.149	3071
3900.761	3023
3902.374	3086
3903.988	3115
3905.6	2994
3907.212	3088
3908.822	3069
3910.433	3013
3912.045	3104
3913.655	3075
3915.265	3105
3916.875	3006
3918.483	3080
3920.093	3039
3921.702	3026
3923.309	2986
3924.917	3119
3926.523	3022
3928.13	2997
3929.739	3006
3931.344	3085
3932.95	2999
3934.555	3108
3936.159	2975
3937.766	3010
3939.369	2998
3940.974	3049
3942.577	2976
3944.181	3046
3945.783	3020
3947.386	2995
3948.989	3007
3950.59	3030
3952.191	3041
3953.791	2982
3955.394	2989
3956.994	2968
3958.593	2904
3960.192	3055
3961.791	3014
3963.392	2974
3964.99	2872
3966.588	2967
3968.185	2853
3969.782	2915
3971.379	2985
3972.976	2901
3974.572	2920
3976.168	2933
3977.763	2973
3979.358	2961
3980.954	2898
3982.548	2938
3984.142	2891
3985.736	2930
3987.329	2904
3988.922	3007
3990.516	2851
3992.108	2970
3993.698	2895
3995.29	2919
3996.881	2909
3998.473	2846
4000.064	2929
4001.653	2861
4003.242	2885
4004.832	2945
4006.422	2900
4008.01	2841
4009.598	2850
4011.186	2869
4012.773	2865
4014.36	2893
4015.947	2895
4017.534	2841
4019.119	2935
4020.705	2824
4022.291	2875
4023.876	2847
4025.461	2869
4027.044	2812
4028.627	2896
4030.211	2843
4031.795	2888
4033.378	2830
4034.96	2802
4036.542	2848
4038.124	2861
4039.704	2841
4041.286	2793
4042.867	2812
4044.447	2835
4046.026	2891
4047.606	2867
4049.187	2807
4050.765	2864
4052.343	2790
4053.92	2774
4055.498	2788
4057.076	2801
4058.654	2804
4060.23	2829
4061.806	2797
4063.381	2797
4064.957	2816
4066.533	2812
4068.107	2815
4069.682	2802
4071.256	2765
4072.829	2774
4074.404	2856
4075.977	2756
4077.549	2799
4079.121	2762
4080.693	2832
4082.265	2723
4083.836	2745
4085.407	2741
4086.977	2769
4088.547	2748
4090.117	2809
4091.687	2741
4093.256	2823
4094.825	2728
4096.392	2683
4097.96	2776
4099.528	2705
4101.097	2762
4102.663	2686
4104.229	2721
4105.795	2747
4107.361	2782
4108.928	2756
4110.493	2729
4112.058	2749
4113.621	2729
4115.186	2708
4116.75	2755
4118.313	2775
4119.876	2758
4121.438	2698
4123	2718
4124.562	2722
4126.125	2637
4127.686	2721
4129.246	2690
4130.807	2685
4132.367	2674
4133.927	2648
4135.486	2684
4137.046	2667
4138.604	2674
4140.162	2712
4141.72	2728
4143.279	2666
4144.836	2674
4146.393	2709
4147.949	2723
4149.505	2650
4151.062	2724
4152.617	2587
4154.172	2695
4155.727	2613
4157.281	2697
4158.836	2604
4160.39	2651
4161.943	2708
4163.496	2690
4165.048	2673
4166.601	2640
4168.154	2654
4169.706	2608
4171.257	2628
4172.808	2571
4174.358	2488
4175.909	2605
4177.458	2631
4179.008	2608
4180.558	2626
4182.106	2625
4183.655	2596
4185.204	2653
4186.751	2502
4188.298	2550
4189.845	2578
4191.392	2601
4192.939	2620
4194.485	2585
4196.031	2612
4197.576	2527
4199.121	2613
4200.666	2532
4202.211	2570
4203.754	2566
4205.298	2536
4206.84	2598
4208.384	2619
4209.927	2557
4211.47	2531
4213.011	2593
4214.552	2545
4216.094	2574
4217.635	2551
4219.175	2568
4220.716	2605
4222.255	2544
4223.793	2536
4225.335	2509
4226.873	2534
4228.411	2561
4229.948	2479
4231.486	2580
4233.024	2533
4234.562	2529
4236.098	2502
4237.634	2503
4239.169	2563
4240.705	2564
4242.241	2521
4243.776	2520
4245.31	2537
4246.844	2507
4248.378	2563
4249.911	2553
4251.445	2560
4252.978	2531
4254.51	2522
4256.042	2508
4257.574	2554
4259.107	2457
4260.638	2522
4262.169	2538
4263.699	2533
4265.228	2505
4266.759	2546
4268.289	2499
4269.818	2481
4271.345	2422
4272.874	2536
4274.402	2544
4275.931	2432
4277.458	2452
4278.985	2507
4280.512	2497
4282.037	2484
4283.564	2465
4285.089	2413
4286.615	2499
4288.139	2484
4289.664	2466
4291.187	2451
4292.712	2439
4294.235	2418
4295.759	2421
4297.281	2491
4298.804	2471
4300.327	2491
4301.849	2450
4303.37	2452
4304.891	2418
4306.412	2456
4307.933	2456
4309.453	2419
4310.973	2447
4312.492	2410
