398.1873	3577
400.7097	3536
403.2336	3595
405.7547	3570
408.2751	3580
410.7948	3604
413.3138	3682
415.83	3615
418.3497	3806
420.8666	3697
423.3829	3726
425.8985	3754
428.4133	3718
430.9275	3790
433.441	3739
435.9538	3796
438.4639	3777
440.9753	3779
443.4881	3807
445.9982	3729
448.5055	3784
451.0142	3766
453.5201	3703
456.0274	3771
458.5361	3903
461.04	3907
463.5453	3846
466.0478	3802
468.5517	3772
471.0549	3757
473.5574	3786
476.0572	3823
478.5584	3834
481.0568	3842
483.5545	3831
486.0557	3801
488.5521	3857
491.0478	3846
493.5449	3855
496.0392	3904
498.5349	3850
501.0299	3901
503.5222	3867
506.0139	3897
508.5048	3937
510.9991	3897
513.4887	3984
515.9777	3952
518.4659	3864
520.9534	3948
523.4403	3905
525.9306	3912
528.4161	4023
530.9009	3969
533.3851	3884
535.8687	3876
538.3535	3921
540.8356	3999
543.3171	3937
545.7979	3895
548.278	3950
550.7595	3969
553.2383	3974
555.7144	3900
558.1918	3986
560.6685	3998
563.1446	3992
565.6221	3977
568.0968	3987
570.5688	3915
573.0422	3943
575.515	4075
577.989	4113
580.4584	4070
582.9291	4105
585.3991	4099
587.8685	4117
590.3352	4085
592.8052	4089
595.2706	4076
597.7372	4099
600.2033	4122
602.6666	4076
605.1334	4062
607.5953	4123
610.0587	4037
612.5193	4071
614.9814	4071
617.4427	4086
619.9034	4085
622.3615	4033
624.8208	4039
627.2775	4043
629.7335	4039
632.1929	4101
634.6476	4033
637.1016	4141
639.5569	4046
642.0096	4054
644.4637	4090
646.9151	4098
649.3678	4016
651.8179	4075
654.2672	4139
656.7159	4234
659.166	4095
661.6154	4113
664.0622	4226
666.5082	4111
668.9537	4137
671.4005	4155
673.8445	4201
676.288	4222
678.7308	4126
681.1729	4158
683.6163	4192
686.0572	4191
688.4973	4227
690.9368	4160
693.3757	4320
695.8138	4234
698.2534	4223
700.6902	4183
703.1245	4266
705.56	4261
707.9949	4224
710.4311	4272
712.8647	4205
715.2957	4222
717.7279	4359
720.1595	4260
722.5905	4229
725.0208	4367
727.4505	4282
729.8795	4245
732.3058	4357
734.7336	4317
737.1626	4284
739.587	4344
742.0128	4411
744.4359	4393
746.8604	4400
749.2841	4415
751.7073	4377
754.1278	4420
756.5496	4401
758.9688	4503
761.3893	4463
763.8093	4442
766.2285	4516
768.6451	4417
771.0611	4442
773.4784	4468
775.895	4509
778.3091	4456
780.7244	4425
783.1371	4508
785.5493	4548
787.9626	4450
790.3754	4565
792.7856	4480
795.1951	4554
797.6039	4417
800.0121	4574
802.4236	4575
804.8306	4503
807.2369	4493
809.6425	4570
812.0475	4425
814.4538	4490
816.8575	4516
819.2606	4570
821.663	4514
824.0648	4604
826.4659	4532
828.8683	4557
831.2682	4565
833.6674	4508
836.066	4546
838.4639	4574
840.8632	4556
843.2579	4571
845.6539	4593
848.0493	4633
850.444	4793
852.84	4691
855.2315	4686
857.6243	4635
860.0165	4668
862.4081	4624
864.797	4551
867.1892	4699
869.5789	4568
871.9659	4643
874.3542	4638
876.74	4627
879.129	4754
881.5155	4623
883.8994	4693
886.2845	4631
888.6671	4705
891.051	4551
893.4343	4639
895.8169	4575
898.197	4629
900.5783	4663
902.9571	4688
905.3372	4546
907.7167	4594
910.0936	4684
912.4698	4721
914.8474	4704
917.2244	4711
919.5987	4745
921.9744	4813
924.3475	4734
926.72	4770
929.0918	4829
931.4669	4801
933.8375	4770
936.2074	4894
938.5767	4904
940.9454	4957
943.3154	4851
945.6829	4865
948.0497	5116
950.4178	5310
952.7833	5411
955.1483	5624
957.5145	5701
959.8782	5814
962.2412	5649
964.6036	5749
966.9655	5467
969.3266	5268
971.6871	5185
974.0471	5039
976.4064	4923
978.765	4866
981.125	4860
983.4824	4748
985.8373	4810
988.1935	4774
990.549	4689
992.9039	4856
995.2602	4915
997.6119	4786
999.965	4832
1002.317	4912
1004.667	4764
1007.02	4803
1009.371	4794
1011.719	4732
1014.068	4786
1016.415	4766
1018.765	4792
1021.111	4881
1023.458	4835
1025.804	4865
1028.147	4978
1030.49	4903
1032.837	4900
1035.179	4912
1037.522	4934
1039.862	4842
1042.204	4989
1044.546	4839
1046.884	4908
1049.224	4980
1051.562	4871
1053.899	4889
1056.237	4966
1058.575	4922
1060.91	4962
1063.244	4974
1065.58	5048
1067.913	4995
1070.248	4914
1072.579	4933
1074.911	5074
1077.242	5064
1079.572	4936
1081.905	4886
1084.234	4847
1086.562	4991
1088.89	4918
1091.217	4788
1093.544	5026
1095.871	4987
1098.197	4976
1100.521	4903
1102.845	4935
1105.169	4970
1107.491	5048
1109.814	4916
1112.135	4978
1114.456	4949
1116.776	4842
1119.096	4844
1121.415	4915
1123.734	4973
1126.052	5007
1128.369	4913
1130.686	4947
1133.002	4871
1135.318	4976
1137.632	5008
1139.945	5109
1142.258	4918
1144.573	4935
1146.884	5079
1149.196	4963
1151.505	4994
1153.816	4924
1156.124	5029
1158.435	4999
1160.742	4923
1163.051	5011
1165.356	4968
1167.663	5039
1169.97	5073
1172.276	4936
1174.579	4937
1176.881	4940
1179.186	5053
1181.487	4946
1183.79	4957
1186.092	4903
1188.392	4908
1190.691	4958
1192.991	4962
1195.291	4967
1197.588	5020
1199.885	4957
1202.181	5046
1204.479	5097
1206.775	5025
1209.07	5008
1211.363	4932
1213.656	4992
1215.949	4925
1218.241	4990
1220.534	4928
1222.825	4996
1225.115	5076
1227.405	5009
1229.693	5007
1231.984	5063
1234.271	5132
1236.558	5147
1238.845	5150
1241.131	5104
1243.416	5168
1245.703	5173
1247.987	5166
1250.269	5169
1252.552	5098
1254.834	5073
1257.118	5141
1259.399	5103
1261.678	5206
1263.958	5058
1266.237	5172
1268.516	5125
1270.794	5124
1273.072	5181
1275.347	5155
1277.624	5195
1279.899	5140
1282.175	5079
1284.449	5129
1286.722	5194
1288.995	5116
1291.266	5096
1293.54	5093
1295.81	5086
1298.081	5029
1300.35	5111
1302.62	5069
1304.889	5058
1307.156	5077
1309.425	5106
1311.69	5007
1313.957	5137
1316.222	5164
1318.488	5068
1320.751	5102
1323.016	5133
1325.278	5091
1327.54	5105
1329.803	5152
1332.065	5059
1334.325	5122
1336.584	5146
1338.843	5135
1341.101	5143
1343.36	5189
1345.617	5179
1347.876	5066
1350.131	5190
1352.387	5041
1354.643	4996
1356.897	5189
1359.151	5074
1361.403	5089
1363.656	4980
1365.909	5115
1368.16	5082
1370.409	5050
1372.659	5095
1374.909	5095
1377.157	5060
1379.407	5219
1381.655	5190
1383.9	5134
1386.147	5169
1388.393	5220
1390.64	5185
1392.885	5156
1395.127	5229
1397.37	5198
1399.614	5214
1401.854	5180
1404.098	5214
1406.339	5219
1408.578	5297
1410.818	5315
1413.056	5177
1415.297	5340
1417.533	5203
1419.771	5319
1422.006	5270
1424.243	5311
1426.479	5158
1428.715	5271
1430.948	5257
1433.182	5169
1435.414	5262
1437.647	5399
1439.88	5319
1442.11	5336
1444.342	5327
1446.571	5449
1448.799	5341
1451.029	5330
1453.258	5438
1455.485	5343
1457.711	5321
1459.937	5318
1462.164	5353
1464.39	5280
1466.614	5331
1468.838	5235
1471.06	5311
1473.283	5300
1475.506	5277
1477.727	5310
1479.949	5240
1482.169	5274
1484.389	5271
1486.609	5204
1488.828	5216
1491.045	5153
1493.261	5127
1495.477	5173
1497.693	5166
1499.91	5157
1502.125	5175
1504.339	5244
1506.553	5101
1508.766	5173
1510.979	5133
1513.191	5154
1515.402	5146
1517.613	5196
1519.823	5091
1522.033	5130
1524.242	5242
1526.451	5140
1528.657	5108
1530.865	5128
1533.072	5190
1535.278	5058
1537.484	5175
1539.687	5166
1541.892	5273
1544.096	5212
1546.299	5155
1548.502	5175
1550.703	5155
1552.905	5234
1555.104	5248
1557.303	5282
1559.505	5270
1561.703	5220
1563.902	5304
1566.099	5300
1568.295	5291
1570.494	5281
1572.689	5314
1574.883	5306
1577.079	5366
1579.272	5352
1581.467	5389
1583.659	5403
1585.853	5385
1588.044	5259
1590.234	5465
1592.424	5294
1594.615	5325
1596.806	5350
1598.994	5316
1601.182	5424
1603.369	5268
1605.557	5337
1607.744	5428
1609.929	5377
1612.114	5325
1614.298	5289
1616.482	5290
1618.667	5395
1620.85	5472
1623.032	5496
1625.214	5389
1627.395	5488
1629.575	5335
1631.755	5508
1633.935	5293
1636.114	5332
1638.292	5484
1640.471	5507
1642.647	5470
1644.823	5409
1647	5358
1649.175	5523
1651.348	5402
1653.525	5364
1655.698	5418
1657.87	5476
1660.043	5481
1662.213	5417
1664.387	5568
1666.558	5452
1668.727	5478
1670.896	5473
1673.064	5418
1675.233	5640
1677.401	5481
1679.569	5661
1681.735	5469
1683.902	5363
1686.066	5491
1688.233	5459
1690.397	5434
1692.559	5382
1694.723	5458
1696.885	5397
1699.048	5384
1701.21	5442
1703.37	5263
1705.53	5321
1707.689	5472
1709.849	5436
1712.009	5385
1714.166	5381
1716.323	5352
1718.479	5347
1720.634	5341
1722.793	5385
1724.948	5349
1727.102	5414
1729.255	5395
1731.408	5307
1733.562	5429
1735.714	5470
1737.865	5415
1740.016	5425
1742.166	5354
1744.316	5404
1746.467	5454
1748.616	5312
1750.764	5501
1752.911	5382
1755.056	5434
1757.205	5476
1759.35	5344
1761.496	5428
1763.641	5490
1765.785	5343
1767.927	5412
1770.072	5400
1772.214	5414
1774.355	5437
1776.496	5396
1778.637	5441
1780.778	5426
1782.918	5487
1785.057	5431
1787.194	5469
1789.333	5517
1791.472	5497
1793.608	5501
1795.745	5425
1797.879	5405
1800.015	5576
1802.148	5441
1804.284	5534
1806.417	5525
1808.548	5476
1810.682	5483
1812.812	5498
1814.946	5407
1817.075	5447
1819.205	5544
1821.335	5387
1823.463	5357
1825.59	5524
1827.721	5416
1829.847	5498
1831.973	5501
1834.098	5414
1836.223	5457
1838.351	5445
1840.475	5463
1842.598	5465
1844.721	5505
1846.843	5402
1848.966	5399
1851.087	5427
1853.21	5440
1855.33	5366
1857.449	5398
1859.568	5354
1861.688	5454
1863.806	5339
1865.924	5471
1868.039	5469
1870.155	5326
1872.273	5404
1874.388	5405
1876.503	5404
1878.617	5455
1880.73	5533
1882.844	5393
1884.956	5510
1887.068	5437
1889.18	5552
1891.291	5350
1893.4	5308
1895.511	5440
1897.621	5328
1899.73	5448
1901.837	5504
1903.944	5400
1906.053	5450
1908.159	5462
1910.265	5500
1912.369	5535
1914.474	5415
1916.577	5606
1918.683	5511
1920.785	5571
1922.888	5532
1924.989	5459
1927.091	5601
1929.193	5468
1931.294	5645
1933.393	5536
1935.493	5581
1937.59	5498
1939.689	5559
1941.788	5541
1943.884	5541
1945.98	5497
1948.077	5534
1950.171	5565
1952.267	5594
1954.361	5488
1956.455	5519
1958.548	5462
1960.64	5630
1962.733	5586
1964.824	5553
1966.915	5649
1969.005	5554
1971.096	5453
1973.185	5475
1975.275	5530
1977.363	5547
1979.45	5622
1981.537	5489
1983.623	5448
1985.711	5561
1987.796	5590
1989.881	5615
1991.965	5544
1994.047	5540
1996.132	5571
1998.215	5563
2000.297	5579
2002.378	5540
2004.46	5466
2006.54	5431
2008.62	5440
2010.7	5503
2012.779	5598
2014.858	5438
2016.934	5481
2019.013	5554
2021.09	5449
2023.165	5383
2025.241	5583
2027.317	5479
2029.39	5467
2031.466	5410
2033.538	5496
2035.612	5508
2037.683	5497
2039.755	5482
2041.827	5537
2043.898	5519
2045.968	5515
2048.038	5554
2050.106	5481
2052.177	5412
2054.244	5428
2056.313	5495
2058.379	5514
2060.444	5681
2062.511	5640
2064.577	5515
2066.641	5500
2068.705	5542
2070.77	5527
2072.832	5684
2074.896	5645
2076.958	5586
2079.02	5618
2081.081	5493
2083.141	5444
2085.2	5614
2087.261	5546
2089.319	5572
2091.377	5636
2093.435	5492
2095.492	5483
2097.552	5537
2099.607	5490
2101.663	5505
2103.718	5505
2105.771	5678
2107.826	5489
2109.879	5578
2111.932	5523
2113.985	5477
2116.037	5456
2118.088	5414
2120.141	5565
2122.191	5549
2124.239	5440
2126.288	5600
2128.337	5588
2130.387	5498
2132.434	5595
2134.481	5602
2136.528	5582
2138.574	5610
2140.618	5571
2142.665	5540
2144.71	5544
2146.753	5508
2148.797	5551
2150.838	5551
2152.883	5464
2154.923	5588
2156.965	5520
2159.007	5512
2161.046	5546
2163.086	5493
2165.126	5593
2167.163	5506
2169.202	5515
2171.239	5503
2173.277	5583
2175.314	5446
2177.349	5460
2179.385	5557
2181.42	5481
2183.453	5521
2185.49	5398
2187.522	5473
2189.555	5415
2191.586	5578
2193.619	5452
2195.651	5411
2197.682	5480
2199.711	5343
2201.74	5488
2203.769	5490
2205.799	5436
2207.828	5420
2209.855	5578
2211.882	5386
2213.908	5465
2215.934	5502
2217.961	5423
2219.986	5427
2222.01	5431
2224.034	5406
2226.057	5362
2228.08	5317
2230.104	5367
2232.124	5452
2234.145	5405
2236.166	5395
2238.186	5404
2240.207	5387
2242.227	5435
2244.244	5350
2246.262	5518
2248.28	5398
2250.299	5415
2252.314	5323
2254.33	5566
2256.346	5395
2258.36	5372
2260.375	5490
2262.391	5298
2264.403	5384
2266.416	5475
2268.427	5489
2270.44	5454
2272.453	5447
2274.463	5363
2276.474	5414
2278.483	5463
2280.493	5499
2282.501	5406
2284.51	5439
2286.518	5434
2288.524	5428
2290.532	5401
2292.537	5554
2294.544	5370
2296.55	5385
2298.554	5508
2300.557	5353
2302.562	5430
2304.566	5473
2306.568	5363
2308.569	5455
2310.572	5347
2312.573	5402
2314.573	5451
2316.574	5402
2318.573	5440
2320.571	5350
2322.571	5343
2324.569	5315
2326.567	5339
2328.564	5423
2330.56	5377
2332.556	5489
2334.551	5442
2336.546	5308
2338.542	5359
2340.535	5360
2342.529	5445
2344.521	5444
2346.512	5328
2348.505	5369
2350.497	5402
2352.487	5399
2354.478	5351
2356.468	5300
2358.457	5337
2360.446	5407
2362.434	5405
2364.422	5346
2366.408	5390
2368.395	5326
2370.383	5400
2372.369	5250
2374.353	5349
2376.338	5290
2378.321	5384
2380.307	5373
2382.29	5423
2384.272	5278
2386.254	5315
2388.235	5297
2390.218	5296
2392.198	5338
2394.179	5286
2396.157	5266
2398.137	5353
2400.115	5290
2402.095	5221
2404.072	5326
2406.048	5257
2408.026	5336
2410.001	5202
2411.977	5350
2413.953	5248
2415.927	5317
2417.9	5283
2419.875	5324
2421.847	5206
2423.821	5252
2425.792	5283
2427.763	5253
2429.736	5264
2431.706	5302
2433.677	5265
2435.646	5191
2437.615	5235
2439.583	5373
2441.551	5356
2443.519	5368
2445.486	5276
2447.452	5308
2449.418	5326
2451.383	5282
2453.348	5300
2455.314	5359
2457.278	5314
2459.241	5144
2461.205	5245
2463.167	5271
2465.131	5256
2467.091	5357
2469.052	5325
2471.012	5277
2472.972	5197
2474.932	5233
2476.891	5285
2478.85	5265
2480.808	5230
2482.766	5296
2484.722	5166
2486.68	5207
2488.636	5268
2490.591	5246
2492.546	5109
2494.5	5210
2496.456	5330
2498.41	5396
2500.362	5140
2502.315	5303
2504.266	5333
2506.218	5235
2508.169	5260
2510.121	5277
2512.07	5239
2514.019	5176
2515.968	5364
2517.918	5251
2519.866	5246
2521.813	5234
2523.76	5277
2525.707	5303
2527.653	5228
2529.599	5172
2531.543	5304
2533.489	5198
2535.433	5207
2537.376	5140
2539.32	5287
2541.264	5252
2543.205	5124
2545.147	5207
2547.087	5101
2549.029	5175
2550.969	5198
2552.908	5254
2554.847	5228
2556.786	5259
2558.724	5247
2560.663	5245
2562.6	5116
2564.537	5218
2566.473	5320
2568.408	5225
2570.345	5163
2572.28	5245
2574.214	5223
2576.148	5243
2578.081	5161
2580.014	5244
2581.947	5249
2583.879	5280
2585.81	5173
2587.741	5388
2589.67	5194
2591.602	5201
2593.532	5184
2595.461	5186
2597.388	5327
2599.316	5240
2601.244	5248
2603.172	5226
2605.098	5213
2607.023	5099
2608.949	5259
2610.873	5228
2612.8	5321
2614.723	5256
2616.647	5207
2618.569	5239
2620.493	5297
2622.416	5249
2624.338	5356
2626.258	5157
2628.179	5290
2630.099	5220
2632.019	5299
2633.939	5345
2635.857	5320
2637.775	5254
2639.694	5246
2641.61	5187
2643.528	5294
2645.444	5228
2647.361	5234
2649.276	5287
2651.19	5239
2653.105	5299
2655.019	5264
2656.934	5265
2658.846	5130
2660.758	5334
2662.67	5183
2664.583	5176
2666.493	5332
2668.404	5225
2670.313	5240
2672.223	5212
2674.134	5323
2676.042	5232
2677.95	5218
2679.858	5273
2681.765	5197
2683.673	5228
2685.579	5126
2687.483	5178
2689.389	5129
2691.294	5216
2693.198	5244
2695.104	5244
2697.006	5150
2698.909	5191
2700.811	5249
2702.713	5242
2704.615	5175
2706.516	5112
2708.417	5267
2710.316	5160
2712.216	5134
2714.115	5252
2716.014	5181
2717.913	5229
2719.81	5158
2721.707	5216
2723.603	5159
2725.501	5079
2727.396	5222
2729.292	5107
2731.186	5133
2733.081	5130
2734.976	5164
2736.87	5171
2738.762	5028
2740.653	5064
2742.546	5185
2744.437	5109
2746.329	5181
2748.22	5208
2750.11	5238
2751.999	5096
2753.889	5134
2755.778	5166
2757.666	5092
2759.553	5207
2761.44	5033
2763.328	5271
2765.215	5142
2767.101	5145
2768.986	5221
2770.87	5123
2772.754	5033
2774.638	5184
2776.523	5123
2778.405	5052
2780.288	5079
2782.17	5175
2784.051	5070
2785.934	5064
2787.814	5135
2789.694	5149
2791.574	5032
2793.453	5067
2795.332	5168
2797.212	5048
2799.088	5097
2800.966	5157
2802.843	5068
2804.719	5061
2806.597	5166
2808.471	5135
2810.346	5120
2812.221	5231
2814.094	5020
2815.969	5096
2817.843	5084
2819.714	5053
2821.587	5036
2823.459	5188
2825.329	5039
2827.202	5121
2829.072	5105
2830.942	5186
2832.811	5076
2834.68	5187
2836.549	5061
2838.418	5094
2840.284	5091
2842.152	5082
2844.018	5151
2845.885	5082
2847.751	5091
2849.616	5049
2851.482	5110
2853.345	5146
2855.208	5194
2857.074	5164
2858.937	5221
2860.799	5108
2862.66	5290
2864.522	5221
2866.385	5207
2868.245	5223
2870.104	5294
2871.964	5231
2873.824	5381
2875.683	5319
2877.542	5338
2879.4	5322
2881.257	5328
2883.114	5404
2884.97	5419
2886.827	5444
2888.683	5390
2890.537	5435
2892.392	5514
2894.246	5454
2896.1	5431
2897.954	5427
2899.807	5281
2901.66	5336
2903.51	5443
2905.362	5344
2907.214	5319
2909.065	5416
2910.915	5440
2912.765	5403
2914.613	5452
2916.463	5546
2918.311	5565
2920.158	5590
2922.006	5610
2923.853	5667
2925.698	5689
2927.546	5703
2929.392	5807
2931.236	5746
2933.081	5796
2934.924	5806
2936.77	5760
2938.613	5779
2940.455	5826
2942.298	5975
2944.139	5883
2945.982	5848
2947.823	5860
2949.662	5812
2951.503	5862
2953.342	5849
2955.182	5856
2957.021	5788
2958.858	5668
2960.697	5657
2962.534	5511
2964.37	5600
2966.207	5538
2968.044	5497
2969.879	5562
2971.714	5475
2973.548	5336
2975.383	5445
2977.218	5405
2979.051	5510
2980.883	5473
2982.715	5433
2984.547	5355
2986.379	5298
2988.21	5280
2990.04	5372
2991.87	5328
2993.7	5281
2995.53	5326
2997.359	5271
2999.187	5239
3001.015	5303
3002.842	5165
3004.669	5124
3006.497	5214
3008.323	5164
3010.148	5134
3011.974	5027
3013.797	5145
3015.623	4943
3017.447	4986
3019.27	4981
3021.094	4959
3022.915	4850
3024.737	4973
3026.56	4949
3028.38	4976
3030.201	4893
3032.022	4944
3033.84	4930
3035.662	4802
3037.481	4885
3039.298	4966
3041.117	4893
3042.933	4884
3044.752	4856
3046.568	4921
3048.385	4864
3050.2	4820
3052.016	4877
3053.83	4838
3055.646	4910
3057.46	4858
3059.272	4939
3061.086	4853
3062.898	4902
3064.711	4837
3066.524	4880
3068.335	4868
3070.145	4831
3071.956	4844
3073.766	4939
3075.576	4902
3077.385	4723
3079.193	4854
3081.002	4833
3082.81	4783
3084.618	4890
3086.425	4771
3088.231	4802
3090.036	4737
3091.842	4686
3093.648	4753
3095.452	4884
3097.257	4725
3099.06	4673
3100.863	4710
3102.666	4761
3104.47	4734
3106.272	4762
3108.073	4779
3109.875	4643
3111.676	4833
3113.477	4765
3115.277	4724
3117.077	4696
3118.874	4719
3120.673	4747
3122.473	4681
3124.271	4647
3126.066	4729
3127.863	4622
3129.66	4693
3131.456	4679
3133.252	4721
3135.047	4705
3136.842	4622
3138.635	4729
3140.429	4617
3142.223	4722
3144.016	4750
3145.808	4745
3147.6	4733
3149.392	4706
3151.183	4657
3152.975	4605
3154.765	4629
3156.553	4707
3158.344	4720
3160.132	4616
3161.922	4539
3163.71	4615
3165.497	4608
3167.285	4599
3169.071	4626
3170.858	4548
3172.645	4647
3174.429	4530
3176.214	4689
3177.998	4547
3179.783	4580
3181.568	4567
3183.351	4588
3185.133	4584
3186.915	4566
3188.698	4573
3190.481	4657
3192.261	4597
3194.042	4693
3195.822	4603
3197.601	4594
3199.381	4584
3201.161	4528
3202.939	4637
3204.717	4578
3206.495	4613
3208.272	4636
3210.05	4591
3211.826	4609
3213.602	4707
3215.376	4593
3217.151	4586
3218.927	4660
3220.702	4545
3222.476	4504
3224.249	4665
3226.021	4538
3227.793	4612
3229.567	4591
3231.339	4570
3233.109	4510
3234.88	4649
3236.651	4524
3238.421	4565
3240.191	4557
3241.96	4468
3243.728	4660
3245.497	4625
3247.263	4477
3249.033	4524
3250.799	4581
3252.566	4545
3254.331	4592
3256.097	4555
3257.863	4557
3259.628	4575
3261.392	4525
3263.156	4587
3264.919	4567
3266.683	4511
3268.447	4531
3270.208	4523
3271.969	4593
3273.731	4574
3275.492	4485
3277.253	4547
3279.013	4580
3280.773	4525
3282.532	4556
3284.291	4626
3286.05	4551
3287.808	4609
3289.566	4569
3291.323	4523
3293.079	4578
3294.835	4608
3296.593	4576
3298.348	4535
3300.102	4544
3301.857	4478
3303.611	4518
3305.366	4567
3307.119	4425
3308.872	4505
3310.624	4626
3312.376	4505
3314.129	4500
3315.881	4556
3317.631	4470
3319.38	4546
3321.13	4500
3322.88	4596
3324.631	4448
3326.379	4560
3328.126	4550
3329.875	4503
3331.622	4479
3333.371	4496
3335.116	4480
3336.863	4603
3338.609	4546
3340.353	4512
3342.1	4478
3343.845	4508
3345.588	4508
3347.332	4539
3349.074	4460
3350.817	4465
3352.56	4459
3354.303	4374
3356.043	4477
3357.785	4439
3359.525	4437
3361.268	4434
3363.007	4445
3364.745	4404
3366.485	4510
3368.223	4474
3369.962	4427
3371.701	4493
3373.438	4385
3375.174	4489
3376.911	4484
3378.647	4445
3380.384	4431
3382.118	4311
3383.854	4382
3385.588	4377
3387.322	4385
3389.057	4461
3390.79	4401
3392.522	4346
3394.255	4445
3395.987	4423
3397.719	4466
3399.451	4388
3401.181	4397
3402.911	4452
3404.641	4420
3406.371	4405
3408.101	4431
3409.83	4384
3411.558	4371
3413.285	4415
3415.011	4304
3416.739	4393
3418.467	4321
3420.193	4308
3421.919	4329
3423.644	4350
3425.368	4330
3427.094	4352
3428.818	4347
3430.542	4329
3432.264	4409
3433.987	4364
3435.712	4318
3437.434	4245
3439.155	4419
3440.876	4391
3442.596	4340
3444.317	4279
3446.039	4350
3447.757	4303
3449.477	4313
3451.195	4285
3452.914	4333
3454.632	4295
3456.35	4266
3458.067	4227
3459.784	4324
3461.5	4257
3463.216	4329
3464.932	4281
3466.647	4266
3468.362	4291
3470.076	4239
3471.789	4261
3473.505	4217
3475.217	4293
3476.929	4248
3478.641	4184
3480.354	4134
3482.066	4160
3483.777	4169
3485.487	4093
3487.197	4265
3488.908	4176
3490.617	4225
3492.327	4098
3494.035	4178
3495.743	4216
3497.451	4222
3499.158	4158
3500.866	4167
3502.572	4135
3504.278	4211
3505.984	4206
3507.689	4123
3509.396	4226
3511.1	4125
3512.804	4197
3514.508	4130
3516.211	4160
3517.913	4086
3519.616	4104
3521.319	4093
3523.021	4145
3524.722	4162
3526.422	4110
3528.124	4135
3529.824	4170
3531.524	4138
3533.222	4031
3534.921	4078
3536.62	4049
3538.318	4052
3540.016	4031
3541.714	4103
3543.41	4100
3545.107	4087
3546.803	4063
3548.5	4068
3550.194	4075
3551.889	3986
3553.583	4117
3555.279	4082
3556.972	4136
3558.666	4131
3560.358	4000
3562.051	4019
3563.742	4080
3565.435	4116
3567.126	4044
3568.817	4147
3570.507	4006
3572.197	3965
3573.888	3996
3575.577	4029
3577.265	4114
3578.954	4008
3580.642	4111
3582.329	4040
3584.017	4075
3585.704	4088
3587.391	4066
3589.077	4083
3590.762	4017
3592.449	3951
3594.133	3947
3595.817	3901
3597.501	3938
3599.185	3950
3600.869	3989
3602.552	3845
3604.234	3913
3605.916	3975
3607.598	4023
3609.279	3958
3610.961	3831
3612.642	3968
3614.321	3823
3616	3926
3617.68	3816
3619.36	3870
3621.039	3876
3622.716	3914
3624.394	3834
3626.071	3899
3627.748	3914
3629.425	3877
3631.102	3947
3632.778	3832
3634.452	3808
3636.127	3793
3637.803	3877
3639.477	3891
3641.151	3756
3642.823	3893
3644.497	3739
3646.171	3862
3647.842	3852
3649.515	3799
3651.185	3895
3652.857	3810
3654.527	3847
3656.198	3764
3657.868	3896
3659.537	3854
3661.207	3876
3662.875	3858
3664.544	3819
3666.212	3834
3667.879	3807
3669.546	3791
3671.212	3880
3672.88	3775
3674.546	3849
3676.211	3793
3677.875	3776
3679.541	3794
3681.205	3764
3682.87	3745
3684.533	3741
3686.196	3667
3687.859	3783
3689.521	3748
3691.184	3829
3692.845	3838
3694.507	3697
3696.167	3804
3697.827	3695
3699.487	3706
3701.148	3782
3702.808	3708
3704.466	3667
3706.125	3741
3707.783	3642
3709.442	3659
3711.099	3797
3712.757	3793
3714.412	3843
3716.068	3766
3717.725	3726
3719.381	3738
3721.036	3758
3722.689	3668
3724.344	3746
3725.998	3756
3727.652	3708
3729.305	3633
3730.958	3768
3732.61	3712
3734.262	3707
3735.915	3690
3737.565	3644
3739.217	3758
3740.866	3748
3742.516	3689
3744.165	3666
3745.816	3653
3747.464	3669
3749.113	3635
3750.761	3742
3752.409	3668
3754.057	3695
3755.703	3634
3757.35	3698
3758.996	3690
3760.641	3629
3762.289	3645
3763.933	3719
3765.577	3655
3767.222	3655
3768.865	3596
3770.508	3610
3772.152	3640
3773.796	3600
3775.438	3743
3777.079	3651
3778.721	3655
3780.363	3619
3782.003	3587
3783.643	3619
3785.283	3551
3786.923	3622
3788.563	3563
3790.203	3672
3791.841	3600
3793.479	3632
3795.115	3521
3796.753	3605
3798.391	3651
3800.027	3558
3801.664	3528
3803.299	3556
3804.935	3588
3806.571	3642
3808.206	3602
3809.839	3438
3811.473	3601
3813.107	3520
3814.74	3459
3816.375	3547
3818.006	3511
3819.638	3513
3821.27	3509
3822.9	3548
3824.532	3499
3826.163	3523
3827.792	3555
3829.423	3487
3831.051	3594
3832.682	3605
3834.311	3448
3835.938	3555
3837.566	3489
3839.193	3522
3840.821	3482
3842.448	3405
3844.075	3460
3845.7	3512
3847.325	3483
3848.951	3466
3850.576	3508
3852.201	3466
3853.825	3496
3855.448	3436
3857.072	3463
3858.694	3463
3860.318	3446
3861.939	3428
3863.562	3424
3865.183	3505
3866.804	3490
3868.426	3380
3870.045	3437
3871.666	3483
3873.285	3466
3874.904	3395
3876.524	3415
3878.142	3474
3879.76	3456
3881.378	3401
3882.995	3463
3884.612	3436
3886.229	3346
3887.845	3472
3889.461	3501
3891.076	3378
3892.691	3411
3894.307	3362
3895.922	3394
3897.536	3448
3899.149	3419
3900.761	3412
3902.374	3427
3903.988	3401
3905.6	3410
3907.212	3449
3908.822	3315
3910.433	3404
3912.045	3475
3913.655	3391
3915.265	3383
3916.875	3391
3918.483	3354
3920.093	3364
3921.702	3431
3923.309	3400
3924.917	3428
3926.523	3412
3928.13	3336
3929.739	3265
3931.344	3322
3932.95	3341
3934.555	3379
3936.159	3366
3937.766	3337
3939.369	3323
3940.974	3317
3942.577	3334
3944.181	3439
3945.783	3364
3947.386	3368
3948.989	3363
3950.59	3356
3952.191	3293
3953.791	3311
3955.394	3443
3956.994	3342
3958.593	3376
3960.192	3378
3961.791	3405
3963.392	3362
3964.99	3326
3966.588	3352
3968.185	3340
3969.782	3341
3971.379	3303
3972.976	3347
3974.572	3326
3976.168	3275
3977.763	3345
3979.358	3339
3980.954	3307
3982.548	3270
3984.142	3218
3985.736	3321
3987.329	3284
3988.922	3268
3990.516	3245
3992.108	3262
3993.698	3234
3995.29	3247
3996.881	3306
3998.473	3192
4000.064	3286
4001.653	3207
4003.242	3226
4004.832	3185
4006.422	3181
4008.01	3223
4009.598	3260
4011.186	3211
4012.773	3223
4014.36	3213
4015.947	3197
4017.534	3223
4019.119	3263
4020.705	3213
4022.291	3205
4023.876	3177
4025.461	3159
4027.044	3144
4028.627	3176
4030.211	3161
4031.795	3226
4033.378	3130
4034.96	3155
4036.542	3159
4038.124	3110
4039.704	3174
4041.286	3167
4042.867	3143
4044.447	3160
4046.026	3147
4047.606	3080
4049.187	3124
4050.765	3209
4052.343	3162
4053.92	3169
4055.498	3148
4057.076	3137
4058.654	3079
4060.23	3041
4061.806	3133
4063.381	3103
4064.957	3165
4066.533	3042
4068.107	3082
4069.682	3159
4071.256	3117
4072.829	3092
4074.404	3143
4075.977	3145
4077.549	3149
4079.121	3038
4080.693	3099
4082.265	3031
4083.836	3088
4085.407	3139
4086.977	3133
4088.547	3093
4090.117	3059
4091.687	3080
4093.256	3170
4094.825	3082
4096.392	3073
4097.96	3015
4099.528	3040
4101.097	3082
4102.663	3034
4104.229	3116
4105.795	3128
4107.361	3046
4108.928	2992
4110.493	3047
4112.058	3060
4113.621	3068
4115.186	3033
4116.75	3018
4118.313	3033
4119.876	3007
4121.438	3041
4123	3121
4124.562	3099
4126.125	3056
4127.686	2909
4129.246	2984
4130.807	3045
4132.367	2956
4133.927	3011
4135.486	2952
4137.046	2996
4138.604	2983
4140.162	2907
4141.72	2980
4143.279	2986
4144.836	2972
4146.393	3008
4147.949	2922
4149.505	2985
4151.062	2932
4152.617	2910
4154.172	2990
4155.727	2944
4157.281	2962
4158.836	2896
4160.39	2973
4161.943	2966
4163.496	2907
4165.048	2942
4166.601	2894
4168.154	2951
4169.706	2874
4171.257	2967
4172.808	2919
4174.358	2921
4175.909	2895
4177.458	2945
4179.008	2805
4180.558	2925
4182.106	2956
4183.655	2876
4185.204	2882
4186.751	2923
4188.298	2880
4189.845	2899
4191.392	2960
4192.939	2889
4194.485	2841
4196.031	2899
4197.576	2901
4199.121	2890
4200.666	2827
4202.211	2846
4203.754	2889
4205.298	2902
4206.84	2834
4208.384	2866
4209.927	2861
4211.47	2814
4213.011	2871
4214.552	2878
4216.094	2819
4217.635	2801
4219.175	2799
4220.716	2870
4222.255	2831
4223.793	2802
4225.335	2854
4226.873	2861
4228.411	2809
4229.948	2751
4231.486	2824
4233.024	2887
4234.562	2819
4236.098	2831
4237.634	2837
4239.169	2878
4240.705	2834
4242.241	2853
4243.776	2779
4245.31	2843
4246.844	2755
4248.378	2809
4249.911	2857
4251.445	2821
4252.978	2868
4254.51	2767
4256.042	2754
4257.574	2889
4259.107	2795
4260.638	2751
4262.169	2830
4263.699	2793
4265.228	2886
4266.759	2734
4268.289	2775
4269.818	2775
4271.345	2817
4272.874	2721
4274.402	2744
4275.931	2721
4277.458	2807
4278.985	2807
4280.512	2822
4282.037	2734
4283.564	2756
4285.089	2771
4286.615	2731
4288.139	2777
4289.664	2711
4291.187	2693
4292.712	2763
4294.235	2782
4295.759	2755
4297.281	2727
4298.804	2673
4300.327	2765
4301.849	2722
4303.37	2672
4304.891	2738
4306.412	2698
4307.933	2752
4309.453	2748
4310.973	2742
4312.492	2798
