398.1873	3008
400.7097	2963
403.2336	2976
405.7547	2995
408.2751	2933
410.7948	3070
413.3138	3034
415.83	3034
418.3497	3039
420.8666	3069
423.3829	3166
425.8985	3091
428.4133	3121
430.9275	3079
433.441	3130
435.9538	3183
438.4639	3117
440.9753	3161
443.4881	3269
445.9982	3082
448.5055	3131
451.0142	3115
453.5201	3167
456.0274	3153
458.5361	3142
461.04	3185
463.5453	3219
466.0478	3170
468.5517	3250
471.0549	3151
473.5574	3198
476.0572	3237
478.5584	3167
481.0568	3210
483.5545	3260
486.0557	3265
488.5521	3279
491.0478	3171
493.5449	3252
496.0392	3269
498.5349	3320
501.0299	3306
503.5222	3233
506.0139	3299
508.5048	3306
510.9991	3329
513.4887	3355
515.9777	3346
518.4659	3301
520.9534	3326
523.4403	3302
525.9306	3310
528.4161	3296
530.9009	3342
533.3851	3368
535.8687	3238
538.3535	3293
540.8356	3330
543.3171	3329
545.7979	3297
548.278	3365
550.7595	3273
553.2383	3306
555.7144	3359
558.1918	3341
560.6685	3392
563.1446	3309
565.6221	3388
568.0968	3337
570.5688	3334
573.0422	3361
575.515	3456
577.989	3425
580.4584	3419
582.9291	3448
585.3991	3418
587.8685	3423
590.3352	3455
592.8052	3390
595.2706	3279
597.7372	3468
600.2033	3427
602.6666	3394
605.1334	3429
607.5953	3384
610.0587	3494
612.5193	3437
614.9814	3383
617.4427	3381
619.9034	3447
622.3615	3450
624.8208	3458
627.2775	3404
629.7335	3446
632.1929	3424
634.6476	3475
637.1016	3483
639.5569	3415
642.0096	3402
644.4637	3495
646.9151	3430
649.3678	3444
651.8179	3446
654.2672	3547
656.7159	3476
659.166	3543
661.6154	3435
664.0622	3397
666.5082	3532
668.9537	3565
671.4005	3511
673.8445	3454
676.288	3516
678.7308	3594
681.1729	3562
683.6163	3546
686.0572	3553
688.4973	3521
690.9368	3575
693.3757	3569
695.8138	3462
698.2534	3502
700.6902	3535
703.1245	3689
705.56	3540
707.9949	3550
710.4311	3589
712.8647	3575
715.2957	3606
717.7279	3606
720.1595	3538
722.5905	3570
725.0208	3657
727.4505	3638
729.8795	3595
732.3058	3673
734.7336	3634
737.1626	3687
739.587	3716
742.0128	3655
744.4359	3686
746.8604	3767
749.2841	3756
751.7073	3678
754.1278	3842
756.5496	3812
758.9688	3721
761.3893	3791
763.8093	3733
766.2285	3818
768.6451	3717
771.0611	3741
773.4784	3741
775.895	3799
778.3091	3726
780.7244	3828
783.1371	3714
785.5493	3871
787.9626	3834
790.3754	3777
792.7856	3697
795.1951	3794
797.6039	3857
800.0121	3728
802.4236	3829
804.8306	3756
807.2369	3840
809.6425	3930
812.0475	3802
814.4538	3872
816.8575	3777
819.2606	3881
821.663	3888
824.0648	3852
826.4659	3819
828.8683	3878
831.2682	3865
833.6674	3865
836.066	3816
838.4639	3921
840.8632	3844
843.2579	3857
845.6539	3883
848.0493	3812
850.444	3918
852.84	3892
855.2315	3819
857.6243	3812
860.0165	3858
862.4081	3792
864.797	3815
867.1892	3848
869.5789	3882
871.9659	3860
874.3542	3940
876.74	3856
879.129	3828
881.5155	3839
883.8994	3888
886.2845	3803
888.6671	3810
891.051	3851
893.4343	3860
895.8169	3869
898.197	3806
900.5783	3917
902.9571	3865
905.3372	3859
907.7167	3860
910.0936	3948
912.4698	3915
914.8474	3989
917.2244	4016
919.5987	3904
921.9744	4070
924.3475	3960
926.72	4009
929.0918	3999
931.4669	3969
933.8375	3992
936.2074	4000
938.5767	4095
940.9454	4068
943.3154	4062
945.6829	4095
948.0497	4164
950.4178	4283
952.7833	4271
955.1483	4342
957.5145	4302
959.8782	4395
962.2412	4384
964.6036	4408
966.9655	4344
969.3266	4230
971.6871	4191
974.0471	4076
976.4064	4080
978.765	4111
981.125	3973
983.4824	4107
985.8373	3985
988.1935	3889
990.549	4003
992.9039	4030
995.2602	4051
997.6119	3995
999.965	4060
1002.317	3871
1004.667	4025
1007.02	3953
1009.371	3985
1011.719	4115
1014.068	3995
1016.415	4066
1018.765	4092
1021.111	4026
1023.458	3978
1025.804	4086
1028.147	4035
1030.49	3999
1032.837	4133
1035.179	4047
1037.522	4109
1039.862	4084
1042.204	4109
1044.546	3975
1046.884	4075
1049.224	4092
1051.562	4017
1053.899	4035
1056.237	4111
1058.575	4003
1060.91	4057
1063.244	4192
1065.58	4089
1067.913	4213
1070.248	4157
1072.579	4132
1074.911	4186
1077.242	4103
1079.572	4199
1081.905	4154
1084.234	4138
1086.562	4239
1088.89	4114
1091.217	4141
1093.544	4166
1095.871	4167
1098.197	4176
1100.521	4113
1102.845	4032
1105.169	4143
1107.491	4102
1109.814	4126
1112.135	4156
1114.456	4120
1116.776	4237
1119.096	4191
1121.415	4191
1123.734	4200
1126.052	4208
1128.369	4136
1130.686	4208
1133.002	4151
1135.318	4157
1137.632	4169
1139.945	4222
1142.258	4125
1144.573	4201
1146.884	4160
1149.196	4140
1151.505	4121
1153.816	4161
1156.124	4172
1158.435	4200
1160.742	4170
1163.051	4141
1165.356	4269
1167.663	4103
1169.97	4147
1172.276	4160
1174.579	4100
1176.881	4133
1179.186	4353
1181.487	4231
1183.79	4121
1186.092	4223
1188.392	4208
1190.691	4242
1192.991	4163
1195.291	4239
1197.588	4193
1199.885	4160
1202.181	4208
1204.479	4235
1206.775	4182
1209.07	4179
1211.363	4168
1213.656	4013
1215.949	4202
1218.241	4166
1220.534	4217
1222.825	4158
1225.115	4275
1227.405	4296
1229.693	4268
1231.984	4286
1234.271	4294
1236.558	4244
1238.845	4291
1241.131	4438
1243.416	4385
1245.703	4243
1247.987	4228
1250.269	4215
1252.552	4360
1254.834	4378
1257.118	4331
1259.399	4361
1261.678	4317
1263.958	4337
1266.237	4277
1268.516	4269
1270.794	4406
1273.072	4372
1275.347	4359
1277.624	4288
1279.899	4218
1282.175	4329
1284.449	4237
1286.722	4308
1288.995	4242
1291.266	4189
1293.54	4232
1295.81	4319
1298.081	4266
1300.35	4228
1302.62	4273
1304.889	4210
1307.156	4276
1309.425	4341
1311.69	4257
1313.957	4321
1316.222	4347
1318.488	4203
1320.751	4294
1323.016	4363
1325.278	4227
1327.54	4284
1329.803	4308
1332.065	4345
1334.325	4274
1336.584	4238
1338.843	4270
1341.101	4364
1343.36	4399
1345.617	4394
1347.876	4390
1350.131	4375
1352.387	4334
1354.643	4334
1356.897	4291
1359.151	4410
1361.403	4335
1363.656	4376
1365.909	4375
1368.16	4392
1370.409	4384
1372.659	4291
1374.909	4322
1377.157	4363
1379.407	4366
1381.655	4333
1383.9	4295
1386.147	4451
1388.393	4398
1390.64	4412
1392.885	4416
1395.127	4361
1397.37	4417
1399.614	4419
1401.854	4441
1404.098	4451
1406.339	4367
1408.578	4402
1410.818	4379
1413.056	4407
1415.297	4383
1417.533	4485
1419.771	4447
1422.006	4445
1424.243	4431
1426.479	4437
1428.715	4321
1430.948	4462
1433.182	4460
1435.414	4568
1437.647	4421
1439.88	4409
1442.11	4446
1444.342	4478
1446.571	4442
1448.799	4452
1451.029	4463
1453.258	4431
1455.485	4536
1457.711	4504
1459.937	4469
1462.164	4513
1464.39	4461
1466.614	4494
1468.838	4488
1471.06	4470
1473.283	4431
1475.506	4505
1477.727	4426
1479.949	4488
1482.169	4336
1484.389	4492
1486.609	4390
1488.828	4397
1491.045	4427
1493.261	4415
1495.477	4444
1497.693	4404
1499.91	4352
1502.125	4396
1504.339	4415
1506.553	4460
1508.766	4433
1510.979	4333
1513.191	4489
1515.402	4458
1517.613	4343
1519.823	4433
1522.033	4364
1524.242	4401
1526.451	4445
1528.657	4331
1530.865	4346
1533.072	4360
1535.278	4392
1537.484	4453
1539.687	4424
1541.892	4519
1544.096	4397
1546.299	4442
1548.502	4472
1550.703	4419
1552.905	4433
1555.104	4418
1557.303	4353
1559.505	4518
1561.703	4490
1563.902	4492
1566.099	4446
1568.295	4453
1570.494	4423
1572.689	4499
1574.883	4508
1577.079	4566
1579.272	4464
1581.467	4517
1583.659	4485
1585.853	4484
1588.044	4517
1590.234	4516
1592.424	4534
1594.615	4481
1596.806	4545
1598.994	4513
1601.182	4492
1603.369	4594
1605.557	4515
1607.744	4473
1609.929	4543
1612.114	4638
1614.298	4563
1616.482	4393
1618.667	4513
1620.85	4589
1623.032	4510
1625.214	4535
1627.395	4611
1629.575	4619
1631.755	4591
1633.935	4571
1636.114	4564
1638.292	4565
1640.471	4593
1642.647	4608
1644.823	4618
1647	4586
1649.175	4456
1651.348	4567
1653.525	4631
1655.698	4602
1657.87	4603
1660.043	4624
1662.213	4597
1664.387	4623
1666.558	4581
1668.727	4512
1670.896	4532
1673.064	4606
1675.233	4600
1677.401	4623
1679.569	4604
1681.735	4572
1683.902	4632
1686.066	4653
1688.233	4577
1690.397	4509
1692.559	4579
1694.723	4644
1696.885	4586
1699.048	4566
1701.21	4565
1703.37	4494
1705.53	4503
1707.689	4602
1709.849	4573
1712.009	4704
1714.166	4582
1716.323	4662
1718.479	4573
1720.634	4543
1722.793	4581
1724.948	4588
1727.102	4637
1729.255	4544
1731.408	4533
1733.562	4680
1735.714	4614
1737.865	4660
1740.016	4601
1742.166	4607
1744.316	4502
1746.467	4626
1748.616	4574
1750.764	4536
1752.911	4657
1755.056	4601
1757.205	4612
1759.35	4664
1761.496	4692
1763.641	4685
1765.785	4621
1767.927	4682
1770.072	4666
1772.214	4624
1774.355	4701
1776.496	4660
1778.637	4695
1780.778	4682
1782.918	4593
1785.057	4689
1787.194	4625
1789.333	4702
1791.472	4692
1793.608	4641
1795.745	4649
1797.879	4649
1800.015	4673
1802.148	4652
1804.284	4650
1806.417	4709
1808.548	4694
1810.682	4603
1812.812	4811
1814.946	4658
1817.075	4684
1819.205	4648
1821.335	4586
1823.463	4642
1825.59	4635
1827.721	4693
1829.847	4654
1831.973	4691
1834.098	4679
1836.223	4594
1838.351	4663
1840.475	4633
1842.598	4589
1844.721	4595
1846.843	4635
1848.966	4663
1851.087	4611
1853.21	4701
1855.33	4644
1857.449	4660
1859.568	4631
1861.688	4729
1863.806	4567
1865.924	4616
1868.039	4695
1870.155	4674
1872.273	4620
1874.388	4596
1876.503	4596
1878.617	4632
1880.73	4691
1882.844	4675
1884.956	4665
1887.068	4747
1889.18	4636
1891.291	4594
1893.4	4651
1895.511	4636
1897.621	4594
1899.73	4754
1901.837	4722
1903.944	4773
1906.053	4647
1908.159	4753
1910.265	4645
1912.369	4657
1914.474	4748
1916.577	4704
1918.683	4714
1920.785	4698
1922.888	4644
1924.989	4709
1927.091	4721
1929.193	4771
1931.294	4682
1933.393	4742
1935.493	4663
1937.59	4781
1939.689	4700
1941.788	4787
1943.884	4729
1945.98	4798
1948.077	4651
1950.171	4652
1952.267	4745
1954.361	4721
1956.455	4760
1958.548	4762
1960.64	4808
1962.733	4751
1964.824	4678
1966.915	4688
1969.005	4750
1971.096	4729
1973.185	4744
1975.275	4781
1977.363	4742
1979.45	4738
1981.537	4721
1983.623	4754
1985.711	4864
1987.796	4754
1989.881	4639
1991.965	4679
1994.047	4732
1996.132	4669
1998.215	4739
2000.297	4708
2002.378	4648
2004.46	4611
2006.54	4713
2008.62	4685
2010.7	4699
2012.779	4608
2014.858	4709
2016.934	4749
2019.013	4663
2021.09	4801
2023.165	4745
2025.241	4641
2027.317	4715
2029.39	4732
2031.466	4628
2033.538	4768
2035.612	4727
2037.683	4647
2039.755	4676
2041.827	4756
2043.898	4710
2045.968	4755
2048.038	4666
2050.106	4733
2052.177	4688
2054.244	4767
2056.313	4820
2058.379	4735
2060.444	4711
2062.511	4764
2064.577	4724
2066.641	4694
2068.705	4782
2070.77	4713
2072.832	4692
2074.896	4764
2076.958	4754
2079.02	4652
2081.081	4781
2083.141	4711
2085.2	4796
2087.261	4769
2089.319	4744
2091.377	4713
2093.435	4796
2095.492	4774
2097.552	4734
2099.607	4738
2101.663	4745
2103.718	4732
2105.771	4763
2107.826	4766
2109.879	4715
2111.932	4755
2113.985	4696
2116.037	4713
2118.088	4774
2120.141	4790
2122.191	4825
2124.239	4795
2126.288	4797
2128.337	4748
2130.387	4591
2132.434	4653
2134.481	4702
2136.528	4807
2138.574	4724
2140.618	4782
2142.665	4718
2144.71	4845
2146.753	4762
2148.797	4683
2150.838	4702
2152.883	4726
2154.923	4729
2156.965	4725
2159.007	4675
2161.046	4723
2163.086	4788
2165.126	4785
2167.163	4754
2169.202	4783
2171.239	4735
2173.277	4782
2175.314	4622
2177.349	4713
2179.385	4709
2181.42	4650
2183.453	4743
2185.49	4689
2187.522	4639
2189.555	4760
2191.586	4726
2193.619	4737
2195.651	4651
2197.682	4655
2199.711	4639
2201.74	4762
2203.769	4678
2205.799	4651
2207.828	4629
2209.855	4684
2211.882	4686
2213.908	4584
2215.934	4590
2217.961	4559
2219.986	4674
2222.01	4685
2224.034	4606
2226.057	4719
2228.08	4798
2230.104	4617
2232.124	4733
2234.145	4630
2236.166	4729
2238.186	4624
2240.207	4676
2242.227	4660
2244.244	4614
2246.262	4581
2248.28	4659
2250.299	4550
2252.314	4708
2254.33	4659
2256.346	4727
2258.36	4644
2260.375	4695
2262.391	4690
2264.403	4715
2266.416	4648
2268.427	4687
2270.44	4629
2272.453	4644
2274.463	4768
2276.474	4707
2278.483	4619
2280.493	4631
2282.501	4696
2284.51	4573
2286.518	4684
2288.524	4605
2290.532	4694
2292.537	4663
2294.544	4658
2296.55	4703
2298.554	4608
2300.557	4661
2302.562	4679
2304.566	4678
2306.568	4682
2308.569	4612
2310.572	4698
2312.573	4715
2314.573	4648
2316.574	4636
2318.573	4604
2320.571	4724
2322.571	4718
2324.569	4618
2326.567	4619
2328.564	4520
2330.56	4715
2332.556	4672
2334.551	4697
2336.546	4685
2338.542	4567
2340.535	4582
2342.529	4608
2344.521	4620
2346.512	4671
2348.505	4607
2350.497	4632
2352.487	4590
2354.478	4605
2356.468	4642
2358.457	4559
2360.446	4716
2362.434	4664
2364.422	4634
2366.408	4622
2368.395	4621
2370.383	4641
2372.369	4545
2374.353	4564
2376.338	4534
2378.321	4618
2380.307	4514
2382.29	4578
2384.272	4533
2386.254	4543
2388.235	4575
2390.218	4643
2392.198	4633
2394.179	4624
2396.157	4561
2398.137	4641
2400.115	4573
2402.095	4630
2404.072	4547
2406.048	4593
2408.026	4530
2410.001	4557
2411.977	4619
2413.953	4554
2415.927	4432
2417.9	4534
2419.875	4548
2421.847	4601
2423.821	4528
2425.792	4512
2427.763	4587
2429.736	4602
2431.706	4572
2433.677	4621
2435.646	4618
2437.615	4633
2439.583	4489
2441.551	4628
2443.519	4586
2445.486	4589
2447.452	4511
2449.418	4559
2451.383	4548
2453.348	4650
2455.314	4505
2457.278	4502
2459.241	4485
2461.205	4530
2463.167	4596
2465.131	4529
2467.091	4487
2469.052	4553
2471.012	4544
2472.972	4555
2474.932	4522
2476.891	4524
2478.85	4581
2480.808	4500
2482.766	4583
2484.722	4548
2486.68	4564
2488.636	4567
2490.591	4574
2492.546	4563
2494.5	4447
2496.456	4403
2498.41	4510
2500.362	4570
2502.315	4440
2504.266	4561
2506.218	4495
2508.169	4477
2510.121	4625
2512.07	4504
2514.019	4348
2515.968	4518
2517.918	4516
2519.866	4459
2521.813	4460
2523.76	4569
2525.707	4535
2527.653	4485
2529.599	4461
2531.543	4590
2533.489	4483
2535.433	4477
2537.376	4446
2539.32	4570
2541.264	4507
2543.205	4469
2545.147	4556
2547.087	4405
2549.029	4473
2550.969	4459
2552.908	4439
2554.847	4593
2556.786	4488
2558.724	4555
2560.663	4522
2562.6	4531
2564.537	4475
2566.473	4465
2568.408	4440
2570.345	4577
2572.28	4518
2574.214	4463
2576.148	4499
2578.081	4500
2580.014	4539
2581.947	4559
2583.879	4571
2585.81	4484
2587.741	4497
2589.67	4564
2591.602	4561
2593.532	4490
2595.461	4423
2597.388	4572
2599.316	4501
2601.244	4526
2603.172	4559
2605.098	4524
2607.023	4535
2608.949	4543
2610.873	4510
2612.8	4588
2614.723	4509
2616.647	4548
2618.569	4572
2620.493	4535
2622.416	4499
2624.338	4357
2626.258	4560
2628.179	4480
2630.099	4554
2632.019	4492
2633.939	4475
2635.857	4474
2637.775	4543
2639.694	4553
2641.61	4552
2643.528	4536
2645.444	4557
2647.361	4531
2649.276	4556
2651.19	4525
2653.105	4515
2655.019	4594
2656.934	4493
2658.846	4582
2660.758	4596
2662.67	4518
2664.583	4507
2666.493	4462
2668.404	4538
2670.313	4506
2672.223	4530
2674.134	4489
2676.042	4442
2677.95	4504
2679.858	4363
2681.765	4477
2683.673	4494
2685.579	4452
2687.483	4576
2689.389	4475
2691.294	4582
2693.198	4514
2695.104	4420
2697.006	4455
2698.909	4473
2700.811	4464
2702.713	4430
2704.615	4485
2706.516	4533
2708.417	4550
2710.316	4426
2712.216	4340
2714.115	4493
2716.014	4457
2717.913	4515
2719.81	4519
2721.707	4416
2723.603	4469
2725.501	4504
2727.396	4447
2729.292	4414
2731.186	4440
2733.081	4398
2734.976	4437
2736.87	4483
2738.762	4446
2740.653	4335
2742.546	4441
2744.437	4389
2746.329	4454
2748.22	4439
2750.11	4469
2751.999	4482
2753.889	4332
2755.778	4443
2757.666	4380
2759.553	4503
2761.44	4329
2763.328	4416
2765.215	4490
2767.101	4343
2768.986	4348
2770.87	4426
2772.754	4454
2774.638	4421
2776.523	4409
2778.405	4397
2780.288	4431
2782.17	4415
2784.051	4373
2785.934	4392
2787.814	4397
2789.694	4383
2791.574	4346
2793.453	4451
2795.332	4353
2797.212	4429
2799.088	4347
2800.966	4432
2802.843	4418
2804.719	4356
2806.597	4386
2808.471	4444
2810.346	4460
2812.221	4382
2814.094	4389
2815.969	4416
2817.843	4392
2819.714	4394
2821.587	4326
2823.459	4363
2825.329	4327
2827.202	4318
2829.072	4400
2830.942	4408
2832.811	4447
2834.68	4405
2836.549	4415
2838.418	4326
2840.284	4444
2842.152	4372
2844.018	4486
2845.885	4404
2847.751	4425
2849.616	4480
2851.482	4335
2853.345	4363
2855.208	4322
2857.074	4407
2858.937	4483
2860.799	4403
2862.66	4385
2864.522	4436
2866.385	4367
2868.245	4404
2870.104	4472
2871.964	4417
2873.824	4484
2875.683	4481
2877.542	4472
2879.4	4453
2881.257	4512
2883.114	4544
2884.97	4582
2886.827	4543
2888.683	4516
2890.537	4567
2892.392	4542
2894.246	4519
2896.1	4498
2897.954	4446
2899.807	4599
2901.66	4513
2903.51	4465
2905.362	4492
2907.214	4505
2909.065	4487
2910.915	4587
2912.765	4485
2914.613	4512
2916.463	4484
2918.311	4579
2920.158	4620
2922.006	4526
2923.853	4574
2925.698	4652
2927.546	4616
2929.392	4544
2931.236	4569
2933.081	4682
2934.924	4648
2936.77	4593
2938.613	4604
2940.455	4645
2942.298	4764
2944.139	4695
2945.982	4652
2947.823	4699
2949.662	4682
2951.503	4726
2953.342	4646
2955.182	4577
2957.021	4636
2958.858	4625
2960.697	4612
2962.534	4596
2964.37	4573
2966.207	4511
2968.044	4628
2969.879	4424
2971.714	4450
2973.548	4511
2975.383	4466
2977.218	4504
2979.051	4488
2980.883	4419
2982.715	4403
2984.547	4569
2986.379	4472
2988.21	4378
2990.04	4396
2991.87	4443
2993.7	4415
2995.53	4324
2997.359	4392
2999.187	4406
3001.015	4295
3002.842	4317
3004.669	4283
3006.497	4307
3008.323	4312
3010.148	4216
3011.974	4169
3013.797	4301
3015.623	4259
3017.447	4219
3019.27	4361
3021.094	4248
3022.915	4179
3024.737	4230
3026.56	4219
3028.38	4237
3030.201	4269
3032.022	4256
3033.84	4183
3035.662	4198
3037.481	4233
3039.298	4175
3041.117	4211
3042.933	4200
3044.752	4192
3046.568	4197
3048.385	4258
3050.2	4135
3052.016	4097
3053.83	4069
3055.646	4134
3057.46	4235
3059.272	4206
3061.086	4138
3062.898	4231
3064.711	4119
3066.524	4194
3068.335	4168
3070.145	4247
3071.956	4155
3073.766	4103
3075.576	4167
3077.385	4064
3079.193	4134
3081.002	4079
3082.81	4070
3084.618	4097
3086.425	4083
3088.231	4090
3090.036	4042
3091.842	4101
3093.648	4047
3095.452	4096
3097.257	4079
3099.06	4098
3100.863	4043
3102.666	4117
3104.47	4035
3106.272	3979
3108.073	4061
3109.875	3976
3111.676	4129
3113.477	4006
3115.277	4030
3117.077	3979
3118.874	4074
3120.673	4022
3122.473	4021
3124.271	3964
3126.066	4078
3127.863	4107
3129.66	4039
3131.456	4042
3133.252	4032
3135.047	3952
3136.842	3999
3138.635	4042
3140.429	4054
3142.223	4014
3144.016	3959
3145.808	4050
3147.6	4028
3149.392	3958
3151.183	3931
3152.975	3911
3154.765	4050
3156.553	3933
3158.344	4015
3160.132	3962
3161.922	3948
3163.71	3975
3165.497	3913
3167.285	4063
3169.071	3977
3170.858	3969
3172.645	3899
3174.429	3995
3176.214	4065
3177.998	3962
3179.783	3898
3181.568	3896
3183.351	3959
3185.133	3988
3186.915	3984
3188.698	3890
3190.481	3848
3192.261	3856
3194.042	3946
3195.822	3914
3197.601	3974
3199.381	3987
3201.161	3958
3202.939	3934
3204.717	3979
3206.495	3864
3208.272	3947
3210.05	3940
3211.826	3929
3213.602	3992
3215.376	3861
3217.151	3944
3218.927	3911
3220.702	3910
3222.476	3830
3224.249	3799
3226.021	3901
3227.793	3893
3229.567	3874
3231.339	3943
3233.109	3896
3234.88	3885
3236.651	4006
3238.421	3856
3240.191	3829
3241.96	3937
3243.728	3859
3245.497	3854
3247.263	3960
3249.033	3911
3250.799	3901
3252.566	3797
3254.331	3845
3256.097	3764
3257.863	3866
3259.628	3896
3261.392	3854
3263.156	3954
3264.919	3888
3266.683	3844
3268.447	3815
3270.208	3905
3271.969	3900
3273.731	3808
3275.492	3862
3277.253	3917
3279.013	3837
3280.773	3935
3282.532	3822
3284.291	3890
3286.05	3903
3287.808	3838
3289.566	3940
3291.323	3821
3293.079	3860
3294.835	3959
3296.593	3903
3298.348	3817
3300.102	3833
3301.857	3773
3303.611	3937
3305.366	3912
3307.119	3837
3308.872	3845
3310.624	3839
3312.376	3898
3314.129	3862
3315.881	3773
3317.631	3829
3319.38	3809
3321.13	3823
3322.88	3867
3324.631	3825
3326.379	3782
3328.126	3795
3329.875	3803
3331.622	3863
3333.371	3815
3335.116	3850
3336.863	3809
3338.609	3770
3340.353	3786
3342.1	3781
3343.845	3845
3345.588	3850
3347.332	3872
3349.074	3761
3350.817	3767
3352.56	3763
3354.303	3775
3356.043	3760
3357.785	3649
3359.525	3806
3361.268	3743
3363.007	3857
3364.745	3768
3366.485	3750
3368.223	3834
3369.962	3827
3371.701	3833
3373.438	3777
3375.174	3812
3376.911	3764
3378.647	3791
3380.384	3818
3382.118	3708
3383.854	3797
3385.588	3794
3387.322	3761
3389.057	3660
3390.79	3799
3392.522	3777
3394.255	3834
3395.987	3786
3397.719	3687
3399.451	3812
3401.181	3777
3402.911	3721
3404.641	3776
3406.371	3721
3408.101	3734
3409.83	3691
3411.558	3746
3413.285	3759
3415.011	3651
3416.739	3708
3418.467	3707
3420.193	3775
3421.919	3731
3423.644	3705
3425.368	3666
3427.094	3733
3428.818	3720
3430.542	3695
3432.264	3684
3433.987	3694
3435.712	3770
3437.434	3718
3439.155	3698
3440.876	3755
3442.596	3611
3444.317	3636
3446.039	3728
3447.757	3719
3449.477	3668
3451.195	3733
3452.914	3693
3454.632	3628
3456.35	3621
3458.067	3638
3459.784	3627
3461.5	3615
3463.216	3777
3464.932	3555
3466.647	3648
3468.362	3605
3470.076	3652
3471.789	3657
3473.505	3594
3475.217	3624
3476.929	3678
3478.641	3617
3480.354	3603
3482.066	3624
3483.777	3665
3485.487	3543
3487.197	3569
3488.908	3624
3490.617	3637
3492.327	3585
3494.035	3578
3495.743	3645
3497.451	3570
3499.158	3496
3500.866	3563
3502.572	3517
3504.278	3547
3505.984	3559
3507.689	3601
3509.396	3577
3511.1	3601
3512.804	3566
3514.508	3520
3516.211	3573
3517.913	3601
3519.616	3593
3521.319	3588
3523.021	3568
3524.722	3599
3526.422	3521
3528.124	3619
3529.824	3567
3531.524	3508
3533.222	3529
3534.921	3588
3536.62	3586
3538.318	3477
3540.016	3553
3541.714	3563
3543.41	3570
3545.107	3561
3546.803	3457
3548.5	3479
3550.194	3504
3551.889	3514
3553.583	3507
3555.279	3450
3556.972	3459
3558.666	3434
3560.358	3538
3562.051	3555
3563.742	3444
3565.435	3518
3567.126	3571
3568.817	3489
3570.507	3550
3572.197	3411
3573.888	3405
3575.577	3468
3577.265	3419
3578.954	3479
3580.642	3567
3582.329	3432
3584.017	3373
3585.704	3406
3587.391	3474
3589.077	3412
3590.762	3434
3592.449	3512
3594.133	3463
3595.817	3437
3597.501	3436
3599.185	3452
3600.869	3399
3602.552	3445
3604.234	3425
3605.916	3488
3607.598	3446
3609.279	3434
3610.961	3361
3612.642	3417
3614.321	3392
3616	3458
3617.68	3358
3619.36	3391
3621.039	3381
3622.716	3339
3624.394	3330
3626.071	3329
3627.748	3371
3629.425	3351
3631.102	3320
3632.778	3407
3634.452	3385
3636.127	3330
3637.803	3392
3639.477	3375
3641.151	3391
3642.823	3258
3644.497	3328
3646.171	3392
3647.842	3368
3649.515	3255
3651.185	3415
3652.857	3362
3654.527	3336
3656.198	3265
3657.868	3288
3659.537	3348
3661.207	3271
3662.875	3218
3664.544	3365
3666.212	3395
3667.879	3270
3669.546	3302
3671.212	3315
3672.88	3336
3674.546	3293
3676.211	3357
3677.875	3310
3679.541	3305
3681.205	3262
3682.87	3313
3684.533	3379
3686.196	3303
3687.859	3234
3689.521	3337
3691.184	3246
3692.845	3259
3694.507	3229
3696.167	3270
3697.827	3251
3699.487	3260
3701.148	3309
3702.808	3227
3704.466	3223
3706.125	3265
3707.783	3240
3709.442	3200
3711.099	3277
3712.757	3320
3714.412	3261
3716.068	3224
3717.725	3303
3719.381	3233
3721.036	3280
3722.689	3221
3724.344	3280
3725.998	3205
3727.652	3243
3729.305	3156
3730.958	3192
3732.61	3258
3734.262	3211
3735.915	3186
3737.565	3224
3739.217	3250
3740.866	3207
3742.516	3210
3744.165	3246
3745.816	3168
3747.464	3134
3749.113	3128
3750.761	3203
3752.409	3206
3754.057	3279
3755.703	3251
3757.35	3233
3758.996	3189
3760.641	3212
3762.289	3198
3763.933	3211
3765.577	3216
3767.222	3228
3768.865	3124
3770.508	3158
3772.152	3207
3773.796	3161
3775.438	3163
3777.079	3150
3778.721	3157
3780.363	3146
3782.003	3161
3783.643	3153
3785.283	3082
3786.923	3231
3788.563	3115
3790.203	3197
3791.841	3135
3793.479	3174
3795.115	3160
3796.753	3124
3798.391	3095
3800.027	3085
3801.664	3194
3803.299	3064
3804.935	3123
3806.571	3202
3808.206	3152
3809.839	3129
3811.473	3166
3813.107	3130
3814.74	3127
3816.375	3064
3818.006	3128
3819.638	3025
3821.27	3117
3822.9	3074
3824.532	3061
3826.163	3191
3827.792	3122
3829.423	3110
3831.051	3052
3832.682	3093
3834.311	3016
3835.938	3087
3837.566	3026
3839.193	3067
3840.821	3032
3842.448	3030
3844.075	3034
3845.7	3100
3847.325	2989
3848.951	3044
3850.576	3005
3852.201	3055
3853.825	3142
3855.448	3102
3857.072	3075
3858.694	3008
3860.318	3138
3861.939	3040
3863.562	3033
3865.183	3067
3866.804	2993
3868.426	3052
3870.045	2971
3871.666	3041
3873.285	3022
3874.904	2966
3876.524	3002
3878.142	3004
3879.76	3013
3881.378	2972
3882.995	3001
3884.612	3063
3886.229	3046
3887.845	3032
3889.461	2945
3891.076	2944
3892.691	2947
3894.307	3068
3895.922	2968
3897.536	3014
3899.149	2979
3900.761	3028
3902.374	3007
3903.988	2973
3905.6	2986
3907.212	3055
3908.822	2967
3910.433	2943
3912.045	2989
3913.655	2975
3915.265	2974
3916.875	2968
3918.483	2986
3920.093	2897
3921.702	2977
3923.309	2880
3924.917	2930
3926.523	2965
3928.13	2936
3929.739	2973
3931.344	2898
3932.95	2975
3934.555	2919
3936.159	2966
3937.766	2966
3939.369	2953
3940.974	2952
3942.577	3035
3944.181	2880
3945.783	2994
3947.386	2953
3948.989	2946
3950.59	2876
3952.191	3001
3953.791	2980
3955.394	2932
3956.994	2946
3958.593	2911
3960.192	2952
3961.791	2974
3963.392	2965
3964.99	2912
3966.588	2862
3968.185	2943
3969.782	2894
3971.379	2966
3972.976	2962
3974.572	2953
3976.168	2838
3977.763	2902
3979.358	2890
3980.954	2874
3982.548	2875
3984.142	2857
3985.736	2862
3987.329	2880
3988.922	2851
3990.516	2824
3992.108	2777
3993.698	2886
3995.29	2859
3996.881	2809
3998.473	2869
4000.064	2847
4001.653	2860
4003.242	2847
4004.832	2866
4006.422	2801
4008.01	2778
4009.598	2867
4011.186	2806
4012.773	2869
4014.36	2842
4015.947	2788
4017.534	2862
4019.119	2771
4020.705	2787
4022.291	2757
4023.876	2792
4025.461	2811
4027.044	2829
4028.627	2746
4030.211	2829
4031.795	2756
4033.378	2842
4034.96	2760
4036.542	2780
4038.124	2736
4039.704	2763
4041.286	2738
4042.867	2783
4044.447	2795
4046.026	2816
4047.606	2890
4049.187	2713
4050.765	2732
4052.343	2683
4053.92	2726
4055.498	2738
4057.076	2731
4058.654	2735
4060.23	2757
4061.806	2730
4063.381	2718
4064.957	2703
4066.533	2725
4068.107	2762
4069.682	2675
4071.256	2751
4072.829	2776
4074.404	2782
4075.977	2677
4077.549	2681
4079.121	2718
4080.693	2735
4082.265	2717
4083.836	2702
4085.407	2734
4086.977	2698
4088.547	2663
4090.117	2729
4091.687	2664
4093.256	2630
4094.825	2629
4096.392	2631
4097.96	2645
4099.528	2794
4101.097	2659
4102.663	2684
4104.229	2661
4105.795	2700
4107.361	2714
4108.928	2731
4110.493	2622
4112.058	2687
4113.621	2742
4115.186	2687
4116.75	2718
4118.313	2649
4119.876	2675
4121.438	2596
4123	2671
4124.562	2658
4126.125	2583
4127.686	2650
4129.246	2645
4130.807	2570
4132.367	2613
4133.927	2638
4135.486	2611
4137.046	2568
4138.604	2672
4140.162	2591
4141.72	2645
4143.279	2568
4144.836	2560
4146.393	2554
4147.949	2610
4149.505	2625
4151.062	2612
4152.617	2593
4154.172	2524
4155.727	2643
4157.281	2576
4158.836	2596
4160.39	2573
4161.943	2575
4163.496	2569
4165.048	2631
4166.601	2533
4168.154	2585
4169.706	2591
4171.257	2635
4172.808	2592
4174.358	2551
4175.909	2511
4177.458	2586
4179.008	2507
4180.558	2541
4182.106	2617
4183.655	2592
4185.204	2559
4186.751	2515
4188.298	2601
4189.845	2566
4191.392	2510
4192.939	2527
4194.485	2533
4196.031	2544
4197.576	2568
4199.121	2513
4200.666	2458
4202.211	2522
4203.754	2536
4205.298	2515
4206.84	2504
4208.384	2488
4209.927	2480
4211.47	2562
4213.011	2484
4214.552	2504
4216.094	2456
4217.635	2471
4219.175	2480
4220.716	2491
4222.255	2495
4223.793	2502
4225.335	2502
4226.873	2506
4228.411	2485
4229.948	2423
4231.486	2482
4233.024	2537
4234.562	2492
4236.098	2502
4237.634	2477
4239.169	2462
4240.705	2442
4242.241	2463
4243.776	2445
4245.31	2444
4246.844	2457
4248.378	2430
4249.911	2453
4251.445	2429
4252.978	2496
4254.51	2402
4256.042	2397
4257.574	2483
4259.107	2469
4260.638	2451
4262.169	2460
4263.699	2465
4265.228	2403
4266.759	2431
4268.289	2466
4269.818	2405
4271.345	2387
4272.874	2464
4274.402	2441
4275.931	2416
4277.458	2470
4278.985	2403
4280.512	2467
4282.037	2445
4283.564	2423
4285.089	2455
4286.615	2436
4288.139	2387
4289.664	2378
4291.187	2475
4292.712	2417
4294.235	2354
4295.759	2369
4297.281	2426
4298.804	2386
4300.327	2454
4301.849	2382
4303.37	2456
4304.891	2376
4306.412	2312
4307.933	2431
4309.453	2389
4310.973	2382
4312.492	2341
