398.1873	3835
400.7097	3823
403.2336	3855
405.7547	3894
408.2751	3915
410.7948	3913
413.3138	3975
415.83	3968
418.3497	4036
420.8666	3962
423.3829	3985
425.8985	3927
428.4133	4039
430.9275	4020
433.441	4093
435.9538	4055
438.4639	4035
440.9753	4067
443.4881	4112
445.9982	4051
448.5055	4123
451.0142	4107
453.5201	4079
456.0274	4054
458.5361	4015
461.04	4115
463.5453	4080
466.0478	4148
468.5517	4054
471.0549	4073
473.5574	4047
476.0572	4086
478.5584	4163
481.0568	4156
483.5545	4250
486.0557	4161
488.5521	4174
491.0478	4257
493.5449	4173
496.0392	4159
498.5349	4198
501.0299	4210
503.5222	4216
506.0139	4211
508.5048	4185
510.9991	4181
513.4887	4274
515.9777	4287
518.4659	4223
520.9534	4329
523.4403	4179
525.9306	4263
528.4161	4208
530.9009	4361
533.3851	4165
535.8687	4289
538.3535	4285
540.8356	4190
543.3171	4260
545.7979	4353
548.278	4324
550.7595	4298
553.2383	4273
555.7144	4294
558.1918	4251
560.6685	4301
563.1446	4301
565.6221	4282
568.0968	4340
570.5688	4274
573.0422	4395
575.515	4430
577.989	4336
580.4584	4429
582.9291	4398
585.3991	4381
587.8685	4473
590.3352	4395
592.8052	4338
595.2706	4448
597.7372	4423
600.2033	4491
602.6666	4401
605.1334	4332
607.5953	4453
610.0587	4452
612.5193	4378
614.9814	4375
617.4427	4375
619.9034	4387
622.3615	4430
624.8208	4322
627.2775	4442
629.7335	4458
632.1929	4393
634.6476	4412
637.1016	4442
639.5569	4383
642.0096	4473
644.4637	4403
646.9151	4407
649.3678	4461
651.8179	4440
654.2672	4496
656.7159	4504
659.166	4428
661.6154	4554
664.0622	4553
666.5082	4619
668.9537	4452
671.4005	4423
673.8445	4474
676.288	4537
678.7308	4531
681.1729	4539
683.6163	4496
686.0572	4502
688.4973	4505
690.9368	4611
693.3757	4548
695.8138	4592
698.2534	4559
700.6902	4649
703.1245	4599
705.56	4683
707.9949	4742
710.4311	4700
712.8647	4512
715.2957	4519
717.7279	4639
720.1595	4672
722.5905	4731
725.0208	4771
727.4505	4669
729.8795	4738
732.3058	4665
734.7336	4638
737.1626	4848
739.587	4762
742.0128	4793
744.4359	4684
746.8604	4771
749.2841	4841
751.7073	4796
754.1278	4749
756.5496	4789
758.9688	4808
761.3893	4876
763.8093	4785
766.2285	4765
768.6451	4930
771.0611	4812
773.4784	4849
775.895	4810
778.3091	4817
780.7244	4872
783.1371	4829
785.5493	4799
787.9626	4900
790.3754	4841
792.7856	4837
795.1951	4839
797.6039	4825
800.0121	4959
802.4236	4841
804.8306	4930
807.2369	4891
809.6425	4942
812.0475	4906
814.4538	4983
816.8575	4986
819.2606	4902
821.663	4951
824.0648	4954
826.4659	4965
828.8683	4895
831.2682	4913
833.6674	4917
836.066	4909
838.4639	4930
840.8632	4900
843.2579	5047
845.6539	4933
848.0493	4941
850.444	4947
852.84	5128
855.2315	5093
857.6243	4958
860.0165	4914
862.4081	4998
864.797	4948
867.1892	4910
869.5789	5068
871.9659	4989
874.3542	5112
876.74	4990
879.129	4990
881.5155	5093
883.8994	5003
886.2845	4960
888.6671	4903
891.051	4968
893.4343	5009
895.8169	5039
898.197	5011
900.5783	5085
902.9571	5003
905.3372	5096
907.7167	5093
910.0936	5015
912.4698	5130
914.8474	5084
917.2244	5199
919.5987	5267
921.9744	5173
924.3475	5176
926.72	5151
929.0918	5238
931.4669	5175
933.8375	5190
936.2074	5121
938.5767	5154
940.9454	5206
943.3154	5230
945.6829	5374
948.0497	5545
950.4178	5578
952.7833	5673
955.1483	5754
957.5145	5833
959.8782	5860
962.2412	5963
964.6036	5842
966.9655	5630
969.3266	5700
971.6871	5403
974.0471	5357
976.4064	5249
978.765	5199
981.125	5182
983.4824	5178
985.8373	5172
988.1935	5108
990.549	5165
992.9039	5249
995.2602	5196
997.6119	5224
999.965	5211
1002.317	5224
1004.667	5181
1007.02	5133
1009.371	5221
1011.719	5161
1014.068	5176
1016.415	5253
1018.765	5190
1021.111	5185
1023.458	5267
1025.804	5247
1028.147	5203
1030.49	5333
1032.837	5248
1035.179	5266
1037.522	5313
1039.862	5219
1042.204	5352
1044.546	5282
1046.884	5264
1049.224	5253
1051.562	5285
1053.899	5228
1056.237	5270
1058.575	5417
1060.91	5327
1063.244	5343
1065.58	5367
1067.913	5396
1070.248	5308
1072.579	5418
1074.911	5394
1077.242	5317
1079.572	5358
1081.905	5383
1084.234	5289
1086.562	5317
1088.89	5178
1091.217	5244
1093.544	5391
1095.871	5361
1098.197	5251
1100.521	5279
1102.845	5314
1105.169	5363
1107.491	5256
1109.814	5350
1112.135	5413
1114.456	5390
1116.776	5390
1119.096	5420
1121.415	5375
1123.734	5392
1126.052	5281
1128.369	5382
1130.686	5289
1133.002	5401
1135.318	5418
1137.632	5409
1139.945	5272
1142.258	5292
1144.573	5452
1146.884	5395
1149.196	5505
1151.505	5369
1153.816	5313
1156.124	5433
1158.435	5387
1160.742	5466
1163.051	5251
1165.356	5375
1167.663	5451
1169.97	5254
1172.276	5316
1174.579	5487
1176.881	5393
1179.186	5431
1181.487	5423
1183.79	5368
1186.092	5376
1188.392	5314
1190.691	5415
1192.991	5385
1195.291	5254
1197.588	5439
1199.885	5359
1202.181	5352
1204.479	5535
1206.775	5417
1209.07	5450
1211.363	5398
1213.656	5423
1215.949	5450
1218.241	5451
1220.534	5421
1222.825	5342
1225.115	5455
1227.405	5398
1229.693	5431
1231.984	5533
1234.271	5389
1236.558	5442
1238.845	5450
1241.131	5481
1243.416	5477
1245.703	5487
1247.987	5620
1250.269	5538
1252.552	5577
1254.834	5611
1257.118	5538
1259.399	5489
1261.678	5630
1263.958	5549
1266.237	5568
1268.516	5571
1270.794	5517
1273.072	5623
1275.347	5543
1277.624	5579
1279.899	5518
1282.175	5488
1284.449	5626
1286.722	5520
1288.995	5492
1291.266	5499
1293.54	5528
1295.81	5450
1298.081	5496
1300.35	5573
1302.62	5598
1304.889	5550
1307.156	5515
1309.425	5564
1311.69	5543
1313.957	5444
1316.222	5595
1318.488	5501
1320.751	5557
1323.016	5626
1325.278	5612
1327.54	5638
1329.803	5519
1332.065	5615
1334.325	5491
1336.584	5601
1338.843	5582
1341.101	5598
1343.36	5597
1345.617	5476
1347.876	5595
1350.131	5545
1352.387	5487
1354.643	5564
1356.897	5512
1359.151	5528
1361.403	5497
1363.656	5541
1365.909	5614
1368.16	5475
1370.409	5643
1372.659	5668
1374.909	5669
1377.157	5630
1379.407	5571
1381.655	5621
1383.9	5556
1386.147	5540
1388.393	5659
1390.64	5656
1392.885	5805
1395.127	5695
1397.37	5674
1399.614	5562
1401.854	5759
1404.098	5595
1406.339	5668
1408.578	5752
1410.818	5674
1413.056	5717
1415.297	5727
1417.533	5768
1419.771	5805
1422.006	5756
1424.243	5675
1426.479	5630
1428.715	5757
1430.948	5680
1433.182	5702
1435.414	5760
1437.647	5845
1439.88	5850
1442.11	5769
1444.342	5832
1446.571	5818
1448.799	5746
1451.029	5872
1453.258	5845
1455.485	5762
1457.711	5740
1459.937	5744
1462.164	5788
1464.39	5748
1466.614	5751
1468.838	5822
1471.06	5696
1473.283	5726
1475.506	5760
1477.727	5796
1479.949	5699
1482.169	5634
1484.389	5629
1486.609	5685
1488.828	5614
1491.045	5631
1493.261	5667
1495.477	5783
1497.693	5729
1499.91	5662
1502.125	5738
1504.339	5670
1506.553	5682
1508.766	5689
1510.979	5705
1513.191	5659
1515.402	5703
1517.613	5560
1519.823	5632
1522.033	5600
1524.242	5704
1526.451	5674
1528.657	5725
1530.865	5707
1533.072	5647
1535.278	5716
1537.484	5635
1539.687	5792
1541.892	5678
1544.096	5580
1546.299	5663
1548.502	5606
1550.703	5697
1552.905	5643
1555.104	5693
1557.303	5798
1559.505	5867
1561.703	5684
1563.902	5801
1566.099	5740
1568.295	5784
1570.494	5690
1572.689	5808
1574.883	5761
1577.079	5870
1579.272	5771
1581.467	5805
1583.659	5868
1585.853	5821
1588.044	5778
1590.234	5776
1592.424	5915
1594.615	5818
1596.806	5870
1598.994	5865
1601.182	5901
1603.369	5891
1605.557	5815
1607.744	5893
1609.929	5787
1612.114	5965
1614.298	5962
1616.482	5913
1618.667	5828
1620.85	5925
1623.032	5902
1625.214	5827
1627.395	5918
1629.575	5965
1631.755	5804
1633.935	5880
1636.114	5901
1638.292	5858
1640.471	5811
1642.647	5844
1644.823	5966
1647	5941
1649.175	5935
1651.348	5856
1653.525	5917
1655.698	5950
1657.87	5942
1660.043	5926
1662.213	6005
1664.387	5938
1666.558	5936
1668.727	6002
1670.896	5901
1673.064	6050
1675.233	5996
1677.401	5899
1679.569	6019
1681.735	6020
1683.902	5934
1686.066	5999
1688.233	5925
1690.397	6006
1692.559	6027
1694.723	6025
1696.885	5960
1699.048	5978
1701.21	6077
1703.37	5878
1705.53	5952
1707.689	5996
1709.849	5851
1712.009	5934
1714.166	5851
1716.323	5844
1718.479	5891
1720.634	5947
1722.793	5895
1724.948	5867
1727.102	5902
1729.255	6022
1731.408	5835
1733.562	5929
1735.714	5891
1737.865	5935
1740.016	5917
1742.166	5903
1744.316	5869
1746.467	5921
1748.616	5930
1750.764	5897
1752.911	5898
1755.056	6043
1757.205	5956
1759.35	6045
1761.496	5943
1763.641	5860
1765.785	6001
1767.927	5892
1770.072	5936
1772.214	5882
1774.355	5863
1776.496	5897
1778.637	5984
1780.778	5937
1782.918	5991
1785.057	6027
1787.194	5997
1789.333	6047
1791.472	5960
1793.608	6058
1795.745	5932
1797.879	6083
1800.015	6001
1802.148	5976
1804.284	6053
1806.417	5955
1808.548	5993
1810.682	6030
1812.812	6091
1814.946	6023
1817.075	6066
1819.205	6007
1821.335	5921
1823.463	5997
1825.59	5978
1827.721	5919
1829.847	5971
1831.973	6014
1834.098	6123
1836.223	5984
1838.351	5923
1840.475	6043
1842.598	5953
1844.721	5932
1846.843	5985
1848.966	5932
1851.087	6064
1853.21	5988
1855.33	5948
1857.449	5943
1859.568	5936
1861.688	5988
1863.806	5942
1865.924	6042
1868.039	6061
1870.155	6021
1872.273	6060
1874.388	5958
1876.503	5972
1878.617	5954
1880.73	6011
1882.844	5924
1884.956	5996
1887.068	5891
1889.18	5901
1891.291	6037
1893.4	5881
1895.511	6076
1897.621	6025
1899.73	6034
1901.837	5971
1903.944	6134
1906.053	5985
1908.159	6086
1910.265	6118
1912.369	6029
1914.474	5988
1916.577	6074
1918.683	6117
1920.785	6068
1922.888	5965
1924.989	6020
1927.091	6165
1929.193	6080
1931.294	6087
1933.393	6028
1935.493	6014
1937.59	6090
1939.689	6045
1941.788	6154
1943.884	6047
1945.98	6102
1948.077	6083
1950.171	6108
1952.267	6092
1954.361	6086
1956.455	6138
1958.548	6216
1960.64	6068
1962.733	6110
1964.824	6093
1966.915	6080
1969.005	6141
1971.096	6066
1973.185	6074
1975.275	6059
1977.363	6128
1979.45	6202
1981.537	6105
1983.623	5970
1985.711	6113
1987.796	6087
1989.881	6136
1991.965	6029
1994.047	6189
1996.132	5998
1998.215	6108
2000.297	6145
2002.378	6083
2004.46	6059
2006.54	6004
2008.62	6017
2010.7	6059
2012.779	6033
2014.858	6088
2016.934	6051
2019.013	6091
2021.09	5949
2023.165	5995
2025.241	6027
2027.317	5900
2029.39	6114
2031.466	5939
2033.538	6095
2035.612	6069
2037.683	6179
2039.755	6065
2041.827	6033
2043.898	6079
2045.968	6083
2048.038	6044
2050.106	6058
2052.177	6024
2054.244	5978
2056.313	6076
2058.379	6107
2060.444	6067
2062.511	5977
2064.577	6150
2066.641	6020
2068.705	6103
2070.77	6093
2072.832	6076
2074.896	6171
2076.958	6155
2079.02	6036
2081.081	6083
2083.141	6147
2085.2	6112
2087.261	6160
2089.319	6073
2091.377	6113
2093.435	6118
2095.492	6132
2097.552	6108
2099.607	5996
2101.663	6128
2103.718	6144
2105.771	6072
2107.826	6168
2109.879	6021
2111.932	6088
2113.985	6033
2116.037	6149
2118.088	6105
2120.141	6134
2122.191	6087
2124.239	6139
2126.288	6021
2128.337	6130
2130.387	6113
2132.434	6167
2134.481	6141
2136.528	6106
2138.574	6170
2140.618	6190
2142.665	6153
2144.71	6006
2146.753	6127
2148.797	6081
2150.838	6111
2152.883	5965
2154.923	6008
2156.965	6181
2159.007	6051
2161.046	6050
2163.086	6123
2165.126	6058
2167.163	6042
2169.202	6016
2171.239	6059
2173.277	6057
2175.314	6046
2177.349	6049
2179.385	6064
2181.42	6016
2183.453	6014
2185.49	6004
2187.522	5947
2189.555	6025
2191.586	5984
2193.619	6027
2195.651	6030
2197.682	5998
2199.711	5938
2201.74	5974
2203.769	6073
2205.799	5993
2207.828	5947
2209.855	5941
2211.882	5868
2213.908	6004
2215.934	6070
2217.961	6023
2219.986	6011
2222.01	5935
2224.034	6049
2226.057	5945
2228.08	5998
2230.104	6071
2232.124	6030
2234.145	6127
2236.166	6009
2238.186	5975
2240.207	5933
2242.227	5928
2244.244	5872
2246.262	5941
2248.28	5986
2250.299	5964
2252.314	6030
2254.33	6076
2256.346	5957
2258.36	5990
2260.375	6003
2262.391	5965
2264.403	5989
2266.416	5960
2268.427	5946
2270.44	5945
2272.453	6022
2274.463	5900
2276.474	5964
2278.483	5953
2280.493	5975
2282.501	6076
2284.51	6070
2286.518	5995
2288.524	5920
2290.532	5975
2292.537	6020
2294.544	5949
2296.55	5957
2298.554	6099
2300.557	5941
2302.562	5952
2304.566	6000
2306.568	5978
2308.569	5947
2310.572	5923
2312.573	6017
2314.573	5946
2316.574	5997
2318.573	5874
2320.571	5864
2322.571	5945
2324.569	6042
2326.567	5959
2328.564	5995
2330.56	5891
2332.556	5975
2334.551	6020
2336.546	6010
2338.542	5837
2340.535	5929
2342.529	5972
2344.521	5959
2346.512	5932
2348.505	5928
2350.497	5903
2352.487	5917
2354.478	6023
2356.468	5955
2358.457	5943
2360.446	5842
2362.434	5926
2364.422	5969
2366.408	5926
2368.395	5772
2370.383	5892
2372.369	5806
2374.353	6033
2376.338	5860
2378.321	5977
2380.307	5936
2382.29	5933
2384.272	5902
2386.254	5956
2388.235	5813
2390.218	5830
2392.198	5761
2394.179	5843
2396.157	5804
2398.137	5839
2400.115	5862
2402.095	5771
2404.072	5804
2406.048	5861
2408.026	5872
2410.001	5836
2411.977	5886
2413.953	5822
2415.927	5769
2417.9	5912
2419.875	5788
2421.847	5733
2423.821	5920
2425.792	5840
2427.763	5862
2429.736	5861
2431.706	5737
2433.677	5818
2435.646	5773
2437.615	5867
2439.583	5930
2441.551	5796
2443.519	5850
2445.486	5700
2447.452	5814
2449.418	5780
2451.383	5723
2453.348	5900
2455.314	5783
2457.278	5885
2459.241	5892
2461.205	5877
2463.167	5874
2465.131	5780
2467.091	5841
2469.052	5847
2471.012	5866
2472.972	5798
2474.932	5859
2476.891	5803
2478.85	5774
2480.808	5758
2482.766	5933
2484.722	5767
2486.68	5946
2488.636	5735
2490.591	5741
2492.546	5749
2494.5	5940
2496.456	5688
2498.41	5683
2500.362	5857
2502.315	5836
2504.266	5809
2506.218	5792
2508.169	5758
2510.121	5758
2512.07	5762
2514.019	5763
2515.968	5661
2517.918	5769
2519.866	5712
2521.813	5885
2523.76	5757
2525.707	5724
2527.653	5701
2529.599	5838
2531.543	5784
2533.489	5681
2535.433	5736
2537.376	5755
2539.32	5831
2541.264	5701
2543.205	5621
2545.147	5894
2547.087	5561
2549.029	5775
2550.969	5796
2552.908	5781
2554.847	5703
2556.786	5715
2558.724	5717
2560.663	5758
2562.6	5674
2564.537	5856
2566.473	5857
2568.408	5709
2570.345	5648
2572.28	5908
2574.214	5807
2576.148	5729
2578.081	5815
2580.014	5699
2581.947	5735
2583.879	5770
2585.81	5719
2587.741	5834
2589.67	5716
2591.602	5840
2593.532	5766
2595.461	5737
2597.388	5675
2599.316	5839
2601.244	5757
2603.172	5755
2605.098	5766
2607.023	5726
2608.949	5742
2610.873	5812
2612.8	5945
2614.723	5826
2616.647	5803
2618.569	5852
2620.493	5857
2622.416	5737
2624.338	5812
2626.258	5845
2628.179	5783
2630.099	5791
2632.019	5892
2633.939	5842
2635.857	5858
2637.775	5868
2639.694	5817
2641.61	5807
2643.528	5739
2645.444	5748
2647.361	5814
2649.276	5743
2651.19	5724
2653.105	5760
2655.019	5876
2656.934	5777
2658.846	5854
2660.758	5799
2662.67	5814
2664.583	5704
2666.493	5703
2668.404	5888
2670.313	5831
2672.223	5766
2674.134	5787
2676.042	5676
2677.95	5762
2679.858	5667
2681.765	5756
2683.673	5789
2685.579	5785
2687.483	5852
2689.389	5696
2691.294	5695
2693.198	5714
2695.104	5703
2697.006	5696
2698.909	5727
2700.811	5746
2702.713	5659
2704.615	5683
2706.516	5665
2708.417	5726
2710.316	5677
2712.216	5677
2714.115	5854
2716.014	5683
2717.913	5784
2719.81	5717
2721.707	5701
2723.603	5618
2725.501	5685
2727.396	5698
2729.292	5748
2731.186	5609
2733.081	5673
2734.976	5675
2736.87	5756
2738.762	5680
2740.653	5708
2742.546	5792
2744.437	5721
2746.329	5569
2748.22	5768
2750.11	5669
2751.999	5681
2753.889	5700
2755.778	5612
2757.666	5824
2759.553	5717
2761.44	5646
2763.328	5683
2765.215	5653
2767.101	5650
2768.986	5681
2770.87	5684
2772.754	5650
2774.638	5682
2776.523	5614
2778.405	5587
2780.288	5728
2782.17	5689
2784.051	5670
2785.934	5659
2787.814	5729
2789.694	5709
2791.574	5550
2793.453	5706
2795.332	5758
2797.212	5652
2799.088	5622
2800.966	5521
2802.843	5650
2804.719	5598
2806.597	5659
2808.471	5656
2810.346	5644
2812.221	5685
2814.094	5660
2815.969	5580
2817.843	5589
2819.714	5579
2821.587	5585
2823.459	5748
2825.329	5676
2827.202	5639
2829.072	5639
2830.942	5645
2832.811	5588
2834.68	5620
2836.549	5591
2838.418	5607
2840.284	5578
2842.152	5535
2844.018	5650
2845.885	5685
2847.751	5663
2849.616	5706
2851.482	5690
2853.345	5589
2855.208	5659
2857.074	5731
2858.937	5605
2860.799	5613
2862.66	5749
2864.522	5737
2866.385	5755
2868.245	5768
2870.104	5818
2871.964	5810
2873.824	5826
2875.683	5850
2877.542	5838
2879.4	5820
2881.257	5917
2883.114	5861
2884.97	5856
2886.827	5907
2888.683	5853
2890.537	5950
2892.392	5965
2894.246	5879
2896.1	5827
2897.954	5848
2899.807	5919
2901.66	5909
2903.51	5889
2905.362	5822
2907.214	5811
2909.065	5994
2910.915	5966
2912.765	5820
2914.613	5956
2916.463	6068
2918.311	5940
2920.158	5986
2922.006	6052
2923.853	6181
2925.698	6129
2927.546	6094
2929.392	6064
2931.236	6132
2933.081	6207
2934.924	6198
2936.77	6168
2938.613	6124
2940.455	6291
2942.298	6274
2944.139	6216
2945.982	6283
2947.823	6273
2949.662	6218
2951.503	6263
2953.342	6253
2955.182	6123
2957.021	6182
2958.858	6192
2960.697	6110
2962.534	6113
2964.37	6069
2966.207	6013
2968.044	5978
2969.879	6008
2971.714	5898
2973.548	5901
2975.383	5887
2977.218	5818
2979.051	5984
2980.883	5828
2982.715	5830
2984.547	5836
2986.379	5735
2988.21	5770
2990.04	5759
2991.87	5654
2993.7	5657
2995.53	5707
2997.359	5664
2999.187	5619
3001.015	5642
3002.842	5719
3004.669	5588
3006.497	5609
3008.323	5555
3010.148	5567
3011.974	5530
3013.797	5524
3015.623	5552
3017.447	5439
3019.27	5488
3021.094	5540
3022.915	5430
3024.737	5536
3026.56	5403
3028.38	5519
3030.201	5375
3032.022	5397
3033.84	5462
3035.662	5373
3037.481	5418
3039.298	5435
3041.117	5359
3042.933	5460
3044.752	5328
3046.568	5340
3048.385	5391
3050.2	5420
3052.016	5372
3053.83	5317
3055.646	5358
3057.46	5277
3059.272	5411
3061.086	5427
3062.898	5326
3064.711	5302
3066.524	5457
3068.335	5365
3070.145	5428
3071.956	5466
3073.766	5336
3075.576	5335
3077.385	5339
3079.193	5287
3081.002	5370
3082.81	5348
3084.618	5334
3086.425	5363
3088.231	5308
3090.036	5216
3091.842	5358
3093.648	5172
3095.452	5314
3097.257	5226
3099.06	5300
3100.863	5178
3102.666	5265
3104.47	5192
3106.272	5181
3108.073	5248
3109.875	5246
3111.676	5245
3113.477	5246
3115.277	5159
3117.077	5226
3118.874	5110
3120.673	5233
3122.473	5115
3124.271	5161
3126.066	5216
3127.863	5165
3129.66	5161
3131.456	5168
3133.252	5115
3135.047	5161
3136.842	5156
3138.635	5140
3140.429	5243
3142.223	5166
3144.016	5141
3145.808	5174
3147.6	5242
3149.392	5101
3151.183	5141
3152.975	5160
3154.765	5209
3156.553	5072
3158.344	5179
3160.132	5127
3161.922	5127
3163.71	5129
3165.497	5082
3167.285	5083
3169.071	5171
3170.858	5089
3172.645	5047
3174.429	5101
3176.214	5110
3177.998	5079
3179.783	5005
3181.568	5087
3183.351	4986
3185.133	5124
3186.915	5088
3188.698	5071
3190.481	5055
3192.261	5068
3194.042	5010
3195.822	5059
3197.601	4991
3199.381	5116
3201.161	5064
3202.939	5078
3204.717	5063
3206.495	5079
3208.272	4994
3210.05	5008
3211.826	5002
3213.602	5033
3215.376	4928
3217.151	4996
3218.927	5157
3220.702	5121
3222.476	5030
3224.249	4986
3226.021	4979
3227.793	5055
3229.567	4999
3231.339	4969
3233.109	5039
3234.88	5028
3236.651	5004
3238.421	5064
3240.191	5024
3241.96	5002
3243.728	4960
3245.497	5022
3247.263	5063
3249.033	5021
3250.799	4986
3252.566	5044
3254.331	4960
3256.097	4984
3257.863	5067
3259.628	5010
3261.392	4961
3263.156	5016
3264.919	4910
3266.683	4972
3268.447	5083
3270.208	5023
3271.969	4932
3273.731	5006
3275.492	5026
3277.253	4970
3279.013	4995
3280.773	5011
3282.532	5042
3284.291	5012
3286.05	5019
3287.808	4887
3289.566	5077
3291.323	5044
3293.079	4999
3294.835	5031
3296.593	4932
3298.348	4972
3300.102	5024
3301.857	4974
3303.611	5032
3305.366	4968
3307.119	5022
3308.872	4904
3310.624	4928
3312.376	5048
3314.129	4973
3315.881	5003
3317.631	4965
3319.38	5091
3321.13	4961
3322.88	4986
3324.631	4982
3326.379	5005
3328.126	4945
3329.875	4944
3331.622	4908
3333.371	4984
3335.116	4901
3336.863	5001
3338.609	4976
3340.353	4966
3342.1	4954
3343.845	4905
3345.588	4936
3347.332	4982
3349.074	4972
3350.817	4969
3352.56	4902
3354.303	4884
3356.043	4879
3357.785	4910
3359.525	4960
3361.268	4905
3363.007	4887
3364.745	4868
3366.485	4955
3368.223	4887
3369.962	4867
3371.701	4916
3373.438	4871
3375.174	4829
3376.911	4915
3378.647	4834
3380.384	4903
3382.118	4917
3383.854	4828
3385.588	4874
3387.322	4906
3389.057	4914
3390.79	4908
3392.522	4865
3394.255	4923
3395.987	4819
3397.719	4843
3399.451	4744
3401.181	4813
3402.911	4749
3404.641	4787
3406.371	4839
3408.101	4899
3409.83	4843
3411.558	4804
3413.285	4747
3415.011	4829
3416.739	4823
3418.467	4840
3420.193	4739
3421.919	4761
3423.644	4760
3425.368	4785
3427.094	4672
3428.818	4857
3430.542	4811
3432.264	4707
3433.987	4793
3435.712	4879
3437.434	4713
3439.155	4776
3440.876	4804
3442.596	4708
3444.317	4726
3446.039	4762
3447.757	4660
3449.477	4752
3451.195	4665
3452.914	4706
3454.632	4784
3456.35	4728
3458.067	4735
3459.784	4655
3461.5	4668
3463.216	4647
3464.932	4660
3466.647	4580
3468.362	4605
3470.076	4686
3471.789	4624
3473.505	4657
3475.217	4581
3476.929	4664
3478.641	4622
3480.354	4542
3482.066	4629
3483.777	4593
3485.487	4606
3487.197	4615
3488.908	4630
3490.617	4625
3492.327	4436
3494.035	4635
3495.743	4625
3497.451	4672
3499.158	4590
3500.866	4598
3502.572	4545
3504.278	4690
3505.984	4659
3507.689	4534
3509.396	4567
3511.1	4524
3512.804	4516
3514.508	4559
3516.211	4572
3517.913	4617
3519.616	4483
3521.319	4516
3523.021	4579
3524.722	4517
3526.422	4486
3528.124	4571
3529.824	4592
3531.524	4530
3533.222	4562
3534.921	4400
3536.62	4487
3538.318	4448
3540.016	4489
3541.714	4523
3543.41	4428
3545.107	4565
3546.803	4494
3548.5	4494
3550.194	4571
3551.889	4294
3553.583	4516
3555.279	4544
3556.972	4518
3558.666	4448
3560.358	4441
3562.051	4544
3563.742	4467
3565.435	4465
3567.126	4442
3568.817	4429
3570.507	4494
3572.197	4510
3573.888	4395
3575.577	4359
3577.265	4474
3578.954	4374
3580.642	4485
3582.329	4463
3584.017	4434
3585.704	4515
3587.391	4386
3589.077	4452
3590.762	4578
3592.449	4407
3594.133	4413
3595.817	4453
3597.501	4435
3599.185	4354
3600.869	4356
3602.552	4430
3604.234	4407
3605.916	4415
3607.598	4352
3609.279	4419
3610.961	4354
3612.642	4365
3614.321	4342
3616	4282
3617.68	4283
3619.36	4271
3621.039	4361
3622.716	4256
3624.394	4374
3626.071	4259
3627.748	4375
3629.425	4319
3631.102	4308
3632.778	4196
3634.452	4347
3636.127	4294
3637.803	4174
3639.477	4304
3641.151	4242
3642.823	4300
3644.497	4224
3646.171	4335
3647.842	4282
3649.515	4255
3651.185	4291
3652.857	4222
3654.527	4175
3656.198	4274
3657.868	4155
3659.537	4227
3661.207	4226
3662.875	4171
3664.544	4147
3666.212	4304
3667.879	4267
3669.546	4158
3671.212	4154
3672.88	4218
3674.546	4189
3676.211	4172
3677.875	4257
3679.541	4201
3681.205	4304
3682.87	4173
3684.533	4235
3686.196	4151
3687.859	4160
3689.521	4274
3691.184	4188
3692.845	4204
3694.507	4197
3696.167	4253
3697.827	4058
3699.487	4151
3701.148	4097
3702.808	4168
3704.466	4183
3706.125	4140
3707.783	4156
3709.442	4099
3711.099	4136
3712.757	4083
3714.412	4111
3716.068	4015
3717.725	4062
3719.381	4198
3721.036	4151
3722.689	4173
3724.344	4086
3725.998	4055
3727.652	4127
3729.305	4134
3730.958	4159
3732.61	4092
3734.262	4058
3735.915	4099
3737.565	4119
3739.217	4061
3740.866	4062
3742.516	4162
3744.165	4172
3745.816	4070
3747.464	4005
3749.113	4077
3750.761	4103
3752.409	4061
3754.057	4096
3755.703	4113
3757.35	4035
3758.996	4076
3760.641	4133
3762.289	4094
3763.933	4017
3765.577	4024
3767.222	4076
3768.865	4116
3770.508	4066
3772.152	4019
3773.796	4021
3775.438	3992
3777.079	3952
3778.721	3990
3780.363	3986
3782.003	4066
3783.643	4039
3785.283	4044
3786.923	4047
3788.563	3998
3790.203	3927
3791.841	3959
3793.479	3916
3795.115	4022
3796.753	3895
3798.391	3916
3800.027	4058
3801.664	3939
3803.299	3961
3804.935	3951
3806.571	3985
3808.206	3904
3809.839	3899
3811.473	3935
3813.107	3977
3814.74	3915
3816.375	3914
3818.006	3919
3819.638	3888
3821.27	3972
3822.9	3867
3824.532	3966
3826.163	3894
3827.792	3838
3829.423	3929
3831.051	3986
3832.682	3824
3834.311	3893
3835.938	3938
3837.566	3886
3839.193	3935
3840.821	3947
3842.448	3928
3844.075	3772
3845.7	3866
3847.325	3731
3848.951	3811
3850.576	3830
3852.201	3812
3853.825	3846
3855.448	3868
3857.072	3805
3858.694	3840
3860.318	3859
3861.939	3870
3863.562	3767
3865.183	3860
3866.804	3896
3868.426	3904
3870.045	3873
3871.666	3791
3873.285	3822
3874.904	3933
3876.524	3779
3878.142	3824
3879.76	3815
3881.378	3790
3882.995	3799
3884.612	3753
3886.229	3811
3887.845	3878
3889.461	3820
3891.076	3800
3892.691	3769
3894.307	3791
3895.922	3854
3897.536	3792
3899.149	3739
3900.761	3780
3902.374	3684
3903.988	3757
3905.6	3804
3907.212	3822
3908.822	3707
3910.433	3774
3912.045	3761
3913.655	3751
3915.265	3722
3916.875	3822
3918.483	3681
3920.093	3815
3921.702	3800
3923.309	3779
3924.917	3804
3926.523	3790
3928.13	3791
3929.739	3816
3931.344	3709
3932.95	3756
3934.555	3770
3936.159	3759
3937.766	3751
3939.369	3763
3940.974	3790
3942.577	3701
3944.181	3661
3945.783	3784
3947.386	3798
3948.989	3726
3950.59	3708
3952.191	3668
3953.791	3803
3955.394	3623
3956.994	3747
3958.593	3724
3960.192	3765
3961.791	3733
3963.392	3650
3964.99	3688
3966.588	3724
3968.185	3616
3969.782	3677
3971.379	3638
3972.976	3696
3974.572	3729
3976.168	3675
3977.763	3668
3979.358	3703
3980.954	3663
3982.548	3682
3984.142	3623
3985.736	3641
3987.329	3551
3988.922	3643
3990.516	3624
3992.108	3625
3993.698	3601
3995.29	3623
3996.881	3619
3998.473	3616
4000.064	3537
4001.653	3538
4003.242	3529
4004.832	3574
4006.422	3549
4008.01	3613
4009.598	3547
4011.186	3578
4012.773	3564
4014.36	3555
4015.947	3440
4017.534	3581
4019.119	3519
4020.705	3533
4022.291	3501
4023.876	3622
4025.461	3455
4027.044	3545
4028.627	3530
4030.211	3513
4031.795	3491
4033.378	3545
4034.96	3606
4036.542	3490
4038.124	3553
4039.704	3528
4041.286	3480
4042.867	3497
4044.447	3504
4046.026	3427
4047.606	3550
4049.187	3492
4050.765	3432
4052.343	3522
4053.92	3429
4055.498	3552
4057.076	3453
4058.654	3438
4060.23	3442
4061.806	3528
4063.381	3488
4064.957	3501
4066.533	3467
4068.107	3501
4069.682	3421
4071.256	3443
4072.829	3409
4074.404	3470
4075.977	3427
4077.549	3505
4079.121	3385
4080.693	3426
4082.265	3395
4083.836	3503
4085.407	3418
4086.977	3399
4088.547	3392
4090.117	3433
4091.687	3446
4093.256	3374
4094.825	3443
4096.392	3466
4097.96	3411
4099.528	3419
4101.097	3418
4102.663	3402
4104.229	3434
4105.795	3411
4107.361	3339
4108.928	3333
4110.493	3343
4112.058	3355
4113.621	3335
4115.186	3372
4116.75	3363
4118.313	3402
4119.876	3331
4121.438	3389
4123	3268
4124.562	3299
4126.125	3309
4127.686	3333
4129.246	3370
4130.807	3332
4132.367	3367
4133.927	3351
4135.486	3367
4137.046	3305
4138.604	3369
4140.162	3204
4141.72	3353
4143.279	3293
4144.836	3253
4146.393	3364
4147.949	3206
4149.505	3294
4151.062	3187
4152.617	3264
4154.172	3284
4155.727	3298
4157.281	3291
4158.836	3239
4160.39	3241
4161.943	3259
4163.496	3249
4165.048	3282
4166.601	3232
4168.154	3299
4169.706	3182
4171.257	3252
4172.808	3243
4174.358	3260
4175.909	3274
4177.458	3284
4179.008	3267
4180.558	3200
4182.106	3233
4183.655	3205
4185.204	3195
4186.751	3197
4188.298	3238
4189.845	3195
4191.392	3182
4192.939	3177
4194.485	3148
4196.031	3195
4197.576	3293
4199.121	3210
4200.666	3205
4202.211	3207
4203.754	3239
4205.298	3118
4206.84	3098
4208.384	3150
4209.927	3099
4211.47	3159
4213.011	3217
4214.552	3156
4216.094	3158
4217.635	3189
4219.175	3180
4220.716	3150
4222.255	3171
4223.793	3145
4225.335	3110
4226.873	3114
4228.411	3078
4229.948	3109
4231.486	3179
4233.024	3108
4234.562	3038
4236.098	3126
4237.634	3135
4239.169	3109
4240.705	3114
4242.241	3085
4243.776	3123
4245.31	3122
4246.844	3084
4248.378	3065
4249.911	3146
4251.445	3105
4252.978	3091
4254.51	3137
4256.042	3038
4257.574	3096
4259.107	3061
4260.638	3150
4262.169	3149
4263.699	3045
4265.228	3082
4266.759	3117
4268.289	3062
4269.818	3116
4271.345	3037
4272.874	3073
4274.402	3081
4275.931	3101
4277.458	3073
4278.985	3085
4280.512	3082
4282.037	3059
4283.564	3084
4285.089	3117
4286.615	3055
4288.139	3011
4289.664	3089
4291.187	3046
4292.712	3039
4294.235	3029
4295.759	2980
4297.281	3053
4298.804	2999
4300.327	3094
4301.849	2956
4303.37	3022
4304.891	3030
4306.412	3033
4307.933	2986
4309.453	3042
4310.973	2982
4312.492	3051
