398.1873	4677
400.7097	4650
403.2336	4622
405.7547	4703
408.2751	4718
410.7948	4759
413.3138	4781
415.83	4712
418.3497	4877
420.8666	4788
423.3829	4849
425.8985	4927
428.4133	4901
430.9275	4885
433.441	4830
435.9538	4927
438.4639	4992
440.9753	5038
443.4881	4904
445.9982	4931
448.5055	5034
451.0142	5034
453.5201	4948
456.0274	4957
458.5361	4931
461.04	5052
463.5453	4914
466.0478	4948
468.5517	4988
471.0549	5063
473.5574	5060
476.0572	5128
478.5584	5022
481.0568	5066
483.5545	5181
486.0557	4995
488.5521	5068
491.0478	5137
493.5449	5046
496.0392	5091
498.5349	5196
501.0299	5124
503.5222	5217
506.0139	5151
508.5048	5134
510.9991	5169
513.4887	5254
515.9777	5172
518.4659	5211
520.9534	5199
523.4403	5201
525.9306	5255
528.4161	5248
530.9009	5072
533.3851	5162
535.8687	5275
538.3535	5192
540.8356	5240
543.3171	5166
545.7979	5218
548.278	5174
550.7595	5215
553.2383	5203
555.7144	5247
558.1918	5291
560.6685	5306
563.1446	5312
565.6221	5288
568.0968	5315
570.5688	5288
573.0422	5455
575.515	5360
577.989	5283
580.4584	5394
582.9291	5329
585.3991	5474
587.8685	5332
590.3352	5406
592.8052	5385
595.2706	5490
597.7372	5377
600.2033	5371
602.6666	5325
605.1334	5388
607.5953	5455
610.0587	5462
612.5193	5372
614.9814	5459
617.4427	5365
619.9034	5373
622.3615	5290
624.8208	5330
627.2775	5308
629.7335	5395
632.1929	5242
634.6476	5375
637.1016	5372
639.5569	5439
642.0096	5353
644.4637	5376
646.9151	5410
649.3678	5483
651.8179	5399
654.2672	5541
656.7159	5338
659.166	5484
661.6154	5467
664.0622	5395
666.5082	5504
668.9537	5510
671.4005	5521
673.8445	5575
676.288	5530
678.7308	5495
681.1729	5600
683.6163	5571
686.0572	5562
688.4973	5625
690.9368	5580
693.3757	5470
695.8138	5631
698.2534	5589
700.6902	5582
703.1245	5514
705.56	5484
707.9949	5635
710.4311	5641
712.8647	5666
715.2957	5561
717.7279	5688
720.1595	5593
722.5905	5754
725.0208	5799
727.4505	5662
729.8795	5737
732.3058	5859
734.7336	5661
737.1626	5838
739.587	5742
742.0128	5797
744.4359	5806
746.8604	5875
749.2841	5940
751.7073	5985
754.1278	5902
756.5496	5940
758.9688	5863
761.3893	5893
763.8093	6022
766.2285	5908
768.6451	5902
771.0611	5967
773.4784	5872
775.895	5841
778.3091	5981
780.7244	6026
783.1371	5914
785.5493	5903
787.9626	6003
790.3754	5976
792.7856	5952
795.1951	5915
797.6039	5869
800.0121	6055
802.4236	6005
804.8306	6081
807.2369	5999
809.6425	5955
812.0475	5989
814.4538	6011
816.8575	5963
819.2606	6034
821.663	6010
824.0648	6093
826.4659	6024
828.8683	6127
831.2682	6069
833.6674	6087
836.066	6060
838.4639	6046
840.8632	5987
843.2579	6171
845.6539	6163
848.0493	6157
850.444	6118
852.84	6154
855.2315	6133
857.6243	6145
860.0165	6146
862.4081	6104
864.797	6049
867.1892	6094
869.5789	6204
871.9659	6191
874.3542	6162
876.74	6191
879.129	6058
881.5155	6141
883.8994	6072
886.2845	6179
888.6671	6174
891.051	6144
893.4343	6123
895.8169	6246
898.197	6139
900.5783	6190
902.9571	6266
905.3372	6172
907.7167	6240
910.0936	6215
912.4698	6151
914.8474	6177
917.2244	6290
919.5987	6321
921.9744	6327
924.3475	6263
926.72	6315
929.0918	6332
931.4669	6384
933.8375	6445
936.2074	6396
938.5767	6458
940.9454	6429
943.3154	6588
945.6829	6587
948.0497	6835
950.4178	6956
952.7833	7146
955.1483	7263
957.5145	7488
959.8782	7620
962.2412	7490
964.6036	7268
966.9655	7245
969.3266	7008
971.6871	6800
974.0471	6718
976.4064	6496
978.765	6437
981.125	6432
983.4824	6321
985.8373	6332
988.1935	6351
990.549	6319
992.9039	6329
995.2602	6407
997.6119	6397
999.965	6386
1002.317	6311
1004.667	6386
1007.02	6393
1009.371	6342
1011.719	6311
1014.068	6341
1016.415	6376
1018.765	6357
1021.111	6384
1023.458	6387
1025.804	6421
1028.147	6403
1030.49	6354
1032.837	6466
1035.179	6405
1037.522	6362
1039.862	6462
1042.204	6435
1044.546	6522
1046.884	6437
1049.224	6414
1051.562	6394
1053.899	6453
1056.237	6453
1058.575	6576
1060.91	6627
1063.244	6470
1065.58	6573
1067.913	6591
1070.248	6660
1072.579	6632
1074.911	6612
1077.242	6504
1079.572	6608
1081.905	6572
1084.234	6489
1086.562	6502
1088.89	6545
1091.217	6528
1093.544	6523
1095.871	6527
1098.197	6488
1100.521	6487
1102.845	6600
1105.169	6557
1107.491	6522
1109.814	6546
1112.135	6485
1114.456	6530
1116.776	6486
1119.096	6579
1121.415	6558
1123.734	6673
1126.052	6633
1128.369	6445
1130.686	6595
1133.002	6673
1135.318	6532
1137.632	6546
1139.945	6594
1142.258	6656
1144.573	6515
1146.884	6600
1149.196	6510
1151.505	6612
1153.816	6609
1156.124	6644
1158.435	6593
1160.742	6645
1163.051	6559
1165.356	6645
1167.663	6567
1169.97	6626
1172.276	6636
1174.579	6592
1176.881	6516
1179.186	6610
1181.487	6521
1183.79	6661
1186.092	6564
1188.392	6556
1190.691	6709
1192.991	6535
1195.291	6702
1197.588	6575
1199.885	6602
1202.181	6536
1204.479	6605
1206.775	6584
1209.07	6579
1211.363	6654
1213.656	6588
1215.949	6572
1218.241	6589
1220.534	6619
1222.825	6653
1225.115	6578
1227.405	6672
1229.693	6735
1231.984	6810
1234.271	6729
1236.558	6775
1238.845	6714
1241.131	6721
1243.416	6765
1245.703	6742
1247.987	6742
1250.269	6724
1252.552	6727
1254.834	6807
1257.118	6684
1259.399	6882
1261.678	6784
1263.958	6735
1266.237	6691
1268.516	6754
1270.794	6806
1273.072	6751
1275.347	6640
1277.624	6723
1279.899	6814
1282.175	6815
1284.449	6785
1286.722	6769
1288.995	6654
1291.266	6792
1293.54	6761
1295.81	6787
1298.081	6670
1300.35	6776
1302.62	6737
1304.889	6833
1307.156	6568
1309.425	6680
1311.69	6753
1313.957	6620
1316.222	6790
1318.488	6799
1320.751	6838
1323.016	6731
1325.278	6736
1327.54	6753
1329.803	6741
1332.065	6912
1334.325	6753
1336.584	6723
1338.843	6784
1341.101	6771
1343.36	6845
1345.617	6781
1347.876	6691
1350.131	6802
1352.387	6819
1354.643	6812
1356.897	6717
1359.151	6758
1361.403	6763
1363.656	6747
1365.909	6838
1368.16	6905
1370.409	6720
1372.659	6769
1374.909	6835
1377.157	6775
1379.407	6745
1381.655	6801
1383.9	6811
1386.147	6766
1388.393	6840
1390.64	6925
1392.885	6863
1395.127	6905
1397.37	6824
1399.614	6789
1401.854	6849
1404.098	6902
1406.339	6860
1408.578	6759
1410.818	6809
1413.056	6852
1415.297	6925
1417.533	6939
1419.771	6908
1422.006	6957
1424.243	6931
1426.479	6990
1428.715	6845
1430.948	6935
1433.182	7137
1435.414	6912
1437.647	6893
1439.88	7126
1442.11	6984
1444.342	7005
1446.571	6952
1448.799	7010
1451.029	7136
1453.258	7019
1455.485	7060
1457.711	7016
1459.937	7022
1462.164	7023
1464.39	7044
1466.614	6978
1468.838	6981
1471.06	6936
1473.283	6914
1475.506	7075
1477.727	7073
1479.949	7016
1482.169	6992
1484.389	6867
1486.609	6823
1488.828	6819
1491.045	6841
1493.261	6742
1495.477	6858
1497.693	6849
1499.91	6865
1502.125	6764
1504.339	6840
1506.553	6873
1508.766	6778
1510.979	6767
1513.191	6765
1515.402	6914
1517.613	6829
1519.823	6693
1522.033	6826
1524.242	6793
1526.451	6860
1528.657	6920
1530.865	6833
1533.072	6919
1535.278	6822
1537.484	6890
1539.687	6779
1541.892	6896
1544.096	6785
1546.299	6907
1548.502	6874
1550.703	6966
1552.905	6904
1555.104	6925
1557.303	6914
1559.505	6917
1561.703	6946
1563.902	6976
1566.099	6936
1568.295	6918
1570.494	7051
1572.689	7113
1574.883	6880
1577.079	7096
1579.272	6857
1581.467	7093
1583.659	7022
1585.853	7052
1588.044	6995
1590.234	7106
1592.424	7022
1594.615	7136
1596.806	6940
1598.994	7071
1601.182	7091
1603.369	7173
1605.557	7118
1607.744	7099
1609.929	7059
1612.114	7042
1614.298	7031
1616.482	7157
1618.667	7151
1620.85	7170
1623.032	7218
1625.214	7056
1627.395	7132
1629.575	7118
1631.755	7222
1633.935	7172
1636.114	7110
1638.292	7177
1640.471	7038
1642.647	7117
1644.823	7080
1647	7146
1649.175	7066
1651.348	7172
1653.525	7172
1655.698	7077
1657.87	7256
1660.043	7035
1662.213	7243
1664.387	7103
1666.558	7039
1668.727	7283
1670.896	7163
1673.064	7170
1675.233	7317
1677.401	7025
1679.569	7172
1681.735	7185
1683.902	7187
1686.066	7178
1688.233	7157
1690.397	7130
1692.559	7154
1694.723	7295
1696.885	7175
1699.048	7148
1701.21	7111
1703.37	7149
1705.53	7148
1707.689	7083
1709.849	7201
1712.009	7104
1714.166	7113
1716.323	7154
1718.479	7070
1720.634	7187
1722.793	7016
1724.948	7032
1727.102	7180
1729.255	7158
1731.408	7003
1733.562	7170
1735.714	7077
1737.865	7150
1740.016	7153
1742.166	7118
1744.316	7171
1746.467	7168
1748.616	7131
1750.764	7234
1752.911	7081
1755.056	7206
1757.205	7071
1759.35	7105
1761.496	7206
1763.641	7199
1765.785	7066
1767.927	7284
1770.072	7118
1772.214	7132
1774.355	7107
1776.496	7146
1778.637	7257
1780.778	7270
1782.918	7155
1785.057	7153
1787.194	7099
1789.333	7294
1791.472	7115
1793.608	7252
1795.745	7124
1797.879	7236
1800.015	7178
1802.148	7170
1804.284	7236
1806.417	7195
1808.548	7233
1810.682	7140
1812.812	7294
1814.946	7231
1817.075	7245
1819.205	7305
1821.335	7162
1823.463	7189
1825.59	7230
1827.721	7260
1829.847	7240
1831.973	7203
1834.098	7247
1836.223	7271
1838.351	7289
1840.475	7199
1842.598	7176
1844.721	7278
1846.843	7252
1848.966	7074
1851.087	7263
1853.21	7206
1855.33	7131
1857.449	7157
1859.568	7136
1861.688	7202
1863.806	7159
1865.924	7083
1868.039	7139
1870.155	7201
1872.273	7209
1874.388	7140
1876.503	7160
1878.617	7248
1880.73	7220
1882.844	7120
1884.956	7162
1887.068	7286
1889.18	7255
1891.291	7334
1893.4	7096
1895.511	7284
1897.621	7245
1899.73	7206
1901.837	7208
1903.944	7218
1906.053	7166
1908.159	7244
1910.265	7137
1912.369	7157
1914.474	7176
1916.577	7208
1918.683	7444
1920.785	7214
1922.888	7312
1924.989	7377
1927.091	7330
1929.193	7320
1931.294	7302
1933.393	7296
1935.493	7346
1937.59	7358
1939.689	7319
1941.788	7251
1943.884	7295
1945.98	7339
1948.077	7308
1950.171	7370
1952.267	7256
1954.361	7384
1956.455	7289
1958.548	7364
1960.64	7338
1962.733	7393
1964.824	7223
1966.915	7211
1969.005	7266
1971.096	7216
1973.185	7103
1975.275	7305
1977.363	7271
1979.45	7294
1981.537	7278
1983.623	7371
1985.711	7318
1987.796	7219
1989.881	7159
1991.965	7238
1994.047	7317
1996.132	7290
1998.215	7279
2000.297	7340
2002.378	7203
2004.46	7229
2006.54	7235
2008.62	7260
2010.7	7185
2012.779	7279
2014.858	7250
2016.934	7334
2019.013	7299
2021.09	7234
2023.165	7233
2025.241	7193
2027.317	7294
2029.39	7175
2031.466	7252
2033.538	7381
2035.612	7285
2037.683	7291
2039.755	7272
2041.827	7321
2043.898	7098
2045.968	7191
2048.038	7292
2050.106	7305
2052.177	7217
2054.244	7265
2056.313	7227
2058.379	7157
2060.444	7195
2062.511	7314
2064.577	7312
2066.641	7238
2068.705	7243
2070.77	7306
2072.832	7230
2074.896	7428
2076.958	7293
2079.02	7286
2081.081	7323
2083.141	7149
2085.2	7389
2087.261	7318
2089.319	7306
2091.377	7325
2093.435	7252
2095.492	7302
2097.552	7262
2099.607	7257
2101.663	7333
2103.718	7266
2105.771	7237
2107.826	7263
2109.879	7369
2111.932	7498
2113.985	7303
2116.037	7348
2118.088	7323
2120.141	7207
2122.191	7406
2124.239	7352
2126.288	7394
2128.337	7332
2130.387	7182
2132.434	7324
2134.481	7163
2136.528	7321
2138.574	7355
2140.618	7293
2142.665	7265
2144.71	7231
2146.753	7263
2148.797	7281
2150.838	7181
2152.883	7287
2154.923	7327
2156.965	7203
2159.007	7270
2161.046	7198
2163.086	7186
2165.126	7220
2167.163	7350
2169.202	7150
2171.239	7159
2173.277	7168
2175.314	7229
2177.349	7141
2179.385	7199
2181.42	7146
2183.453	7141
2185.49	7188
2187.522	7011
2189.555	7230
2191.586	7116
2193.619	7153
2195.651	7099
2197.682	7172
2199.711	7113
2201.74	7059
2203.769	7217
2205.799	7057
2207.828	7104
2209.855	7076
2211.882	7012
2213.908	7041
2215.934	7090
2217.961	7198
2219.986	7146
2222.01	7082
2224.034	7195
2226.057	7010
2228.08	7015
2230.104	7012
2232.124	7221
2234.145	7031
2236.166	7098
2238.186	7079
2240.207	6909
2242.227	7224
2244.244	7185
2246.262	7070
2248.28	7140
2250.299	7071
2252.314	7087
2254.33	7192
2256.346	7199
2258.36	7105
2260.375	7111
2262.391	7191
2264.403	7141
2266.416	6994
2268.427	7198
2270.44	7203
2272.453	7123
2274.463	7247
2276.474	7175
2278.483	7105
2280.493	7108
2282.501	7150
2284.51	7232
2286.518	7087
2288.524	7142
2290.532	7159
2292.537	7116
2294.544	7175
2296.55	7214
2298.554	7085
2300.557	7135
2302.562	7055
2304.566	7265
2306.568	7019
2308.569	7034
2310.572	7069
2312.573	7221
2314.573	7032
2316.574	6961
2318.573	7033
2320.571	7149
2322.571	7172
2324.569	7030
2326.567	7024
2328.564	7178
2330.56	7003
2332.556	7061
2334.551	7089
2336.546	7067
2338.542	7021
2340.535	7065
2342.529	6993
2344.521	7059
2346.512	7001
2348.505	7006
2350.497	7017
2352.487	6989
2354.478	7055
2356.468	6974
2358.457	7084
2360.446	6974
2362.434	6996
2364.422	7016
2366.408	7060
2368.395	6861
2370.383	6980
2372.369	6922
2374.353	7066
2376.338	6797
2378.321	6901
2380.307	7047
2382.29	6993
2384.272	6929
2386.254	6808
2388.235	6883
2390.218	7011
2392.198	6874
2394.179	6777
2396.157	6881
2398.137	6867
2400.115	6882
2402.095	6997
2404.072	7060
2406.048	6896
2408.026	6864
2410.001	6835
2411.977	6877
2413.953	6925
2415.927	6854
2417.9	6887
2419.875	6956
2421.847	6787
2423.821	6898
2425.792	6959
2427.763	7044
2429.736	6880
2431.706	6963
2433.677	6845
2435.646	6902
2437.615	6977
2439.583	6827
2441.551	6916
2443.519	6971
2445.486	6822
2447.452	6875
2449.418	6795
2451.383	6958
2453.348	6946
2455.314	6840
2457.278	6949
2459.241	6898
2461.205	6996
2463.167	6999
2465.131	6868
2467.091	6815
2469.052	6771
2471.012	6857
2472.972	6855
2474.932	6849
2476.891	6766
2478.85	6758
2480.808	6726
2482.766	6903
2484.722	6764
2486.68	6910
2488.636	6880
2490.591	6854
2492.546	6829
2494.5	6906
2496.456	6839
2498.41	6881
2500.362	6832
2502.315	6790
2504.266	6753
2506.218	6846
2508.169	6732
2510.121	6802
2512.07	6841
2514.019	6775
2515.968	6952
2517.918	6769
2519.866	6874
2521.813	6728
2523.76	6807
2525.707	6788
2527.653	6685
2529.599	6764
2531.543	6813
2533.489	6866
2535.433	6773
2537.376	6781
2539.32	6629
2541.264	6730
2543.205	6745
2545.147	6779
2547.087	6772
2549.029	6767
2550.969	6709
2552.908	6845
2554.847	6808
2556.786	6836
2558.724	6751
2560.663	6736
2562.6	6778
2564.537	6826
2566.473	6705
2568.408	6861
2570.345	6799
2572.28	6805
2574.214	6811
2576.148	6804
2578.081	6829
2580.014	6784
2581.947	6778
2583.879	6809
2585.81	6783
2587.741	6813
2589.67	6785
2591.602	6747
2593.532	6793
2595.461	6805
2597.388	6710
2599.316	6724
2601.244	6857
2603.172	6819
2605.098	6797
2607.023	6804
2608.949	6731
2610.873	6829
2612.8	6857
2614.723	6779
2616.647	6867
2618.569	6838
2620.493	6810
2622.416	6816
2624.338	6755
2626.258	6844
2628.179	6887
2630.099	6803
2632.019	6823
2633.939	6804
2635.857	6600
2637.775	6877
2639.694	6847
2641.61	6829
2643.528	6700
2645.444	6837
2647.361	6841
2649.276	6678
2651.19	6782
2653.105	6826
2655.019	6672
2656.934	6848
2658.846	6639
2660.758	6823
2662.67	6827
2664.583	6760
2666.493	6727
2668.404	6843
2670.313	6736
2672.223	6785
2674.134	6713
2676.042	6802
2677.95	6870
2679.858	6802
2681.765	6724
2683.673	6774
2685.579	6682
2687.483	6777
2689.389	6829
2691.294	6742
2693.198	6655
2695.104	6788
2697.006	6721
2698.909	6781
2700.811	6684
2702.713	6725
2704.615	6798
2706.516	6644
2708.417	6643
2710.316	6715
2712.216	6747
2714.115	6647
2716.014	6738
2717.913	6624
2719.81	6677
2721.707	6656
2723.603	6754
2725.501	6697
2727.396	6687
2729.292	6623
2731.186	6680
2733.081	6684
2734.976	6804
2736.87	6619
2738.762	6678
2740.653	6516
2742.546	6702
2744.437	6664
2746.329	6699
2748.22	6637
2750.11	6656
2751.999	6724
2753.889	6633
2755.778	6618
2757.666	6501
2759.553	6618
2761.44	6649
2763.328	6710
2765.215	6678
2767.101	6671
2768.986	6611
2770.87	6602
2772.754	6697
2774.638	6546
2776.523	6493
2778.405	6572
2780.288	6704
2782.17	6657
2784.051	6628
2785.934	6619
2787.814	6632
2789.694	6675
2791.574	6690
2793.453	6676
2795.332	6639
2797.212	6586
2799.088	6520
2800.966	6660
2802.843	6525
2804.719	6544
2806.597	6738
2808.471	6584
2810.346	6595
2812.221	6560
2814.094	6552
2815.969	6576
2817.843	6500
2819.714	6574
2821.587	6518
2823.459	6580
2825.329	6497
2827.202	6547
2829.072	6518
2830.942	6467
2832.811	6679
2834.68	6562
2836.549	6551
2838.418	6580
2840.284	6572
2842.152	6502
2844.018	6458
2845.885	6511
2847.751	6554
2849.616	6614
2851.482	6568
2853.345	6692
2855.208	6595
2857.074	6548
2858.937	6647
2860.799	6723
2862.66	6662
2864.522	6613
2866.385	6617
2868.245	6797
2870.104	6755
2871.964	6700
2873.824	6826
2875.683	6824
2877.542	6670
2879.4	6712
2881.257	6761
2883.114	6678
2884.97	6855
2886.827	6808
2888.683	6861
2890.537	6846
2892.392	6830
2894.246	6830
2896.1	6810
2897.954	6712
2899.807	6821
2901.66	6811
2903.51	6828
2905.362	6879
2907.214	6874
2909.065	6728
2910.915	6848
2912.765	6837
2914.613	6960
2916.463	6878
2918.311	7038
2920.158	6929
2922.006	7023
2923.853	6965
2925.698	6921
2927.546	7031
2929.392	7118
2931.236	6997
2933.081	7087
2934.924	7092
2936.77	7164
2938.613	7147
2940.455	7275
2942.298	7215
2944.139	7275
2945.982	7445
2947.823	7209
2949.662	7227
2951.503	7132
2953.342	7146
2955.182	7023
2957.021	7175
2958.858	7034
2960.697	7137
2962.534	7026
2964.37	7011
2966.207	6977
2968.044	6860
2969.879	6962
2971.714	6742
2973.548	6827
2975.383	6889
2977.218	6704
2979.051	6882
2980.883	6663
2982.715	6690
2984.547	6854
2986.379	6778
2988.21	6720
2990.04	6738
2991.87	6686
2993.7	6679
2995.53	6592
2997.359	6550
2999.187	6541
3001.015	6545
3002.842	6527
3004.669	6564
3006.497	6534
3008.323	6475
3010.148	6395
3011.974	6374
3013.797	6349
3015.623	6365
3017.447	6311
3019.27	6349
3021.094	6365
3022.915	6376
3024.737	6367
3026.56	6305
3028.38	6243
3030.201	6342
3032.022	6289
3033.84	6265
3035.662	6202
3037.481	6372
3039.298	6295
3041.117	6228
3042.933	6257
3044.752	6224
3046.568	6259
3048.385	6131
3050.2	6313
3052.016	6293
3053.83	6167
3055.646	6189
3057.46	6296
3059.272	6268
3061.086	6176
3062.898	6231
3064.711	6212
3066.524	6264
3068.335	6208
3070.145	6187
3071.956	6148
3073.766	6197
3075.576	6170
3077.385	6080
3079.193	6185
3081.002	6165
3082.81	6063
3084.618	6098
3086.425	6119
3088.231	6080
3090.036	6140
3091.842	6120
3093.648	6032
3095.452	6061
3097.257	6029
3099.06	5984
3100.863	5959
3102.666	6097
3104.47	6097
3106.272	5992
3108.073	6138
3109.875	5959
3111.676	5947
3113.477	5958
3115.277	6029
3117.077	5991
3118.874	5903
3120.673	5952
3122.473	5991
3124.271	5979
3126.066	5889
3127.863	5925
3129.66	6063
3131.456	5975
3133.252	6025
3135.047	5976
3136.842	5881
3138.635	5891
3140.429	5890
3142.223	5916
3144.016	5936
3145.808	5854
3147.6	5896
3149.392	5946
3151.183	5820
3152.975	5880
3154.765	5890
3156.553	5878
3158.344	5908
3160.132	5905
3161.922	5954
3163.71	5939
3165.497	5876
3167.285	5839
3169.071	5818
3170.858	5862
3172.645	5850
3174.429	5909
3176.214	5836
3177.998	5839
3179.783	5870
3181.568	5814
3183.351	5765
3185.133	5858
3186.915	5844
3188.698	5783
3190.481	5796
3192.261	5881
3194.042	5787
3195.822	5777
3197.601	5801
3199.381	5708
3201.161	5881
3202.939	5789
3204.717	5775
3206.495	5873
3208.272	5732
3210.05	5808
3211.826	5825
3213.602	5761
3215.376	5827
3217.151	5815
3218.927	5777
3220.702	5775
3222.476	5707
3224.249	5845
3226.021	5778
3227.793	5744
3229.567	5818
3231.339	5733
3233.109	5645
3234.88	5728
3236.651	5759
3238.421	5677
3240.191	5859
3241.96	5722
3243.728	5719
3245.497	5699
3247.263	5805
3249.033	5766
3250.799	5752
3252.566	5790
3254.331	5760
3256.097	5726
3257.863	5737
3259.628	5655
3261.392	5746
3263.156	5922
3264.919	5742
3266.683	5778
3268.447	5662
3270.208	5765
3271.969	5724
3273.731	5750
3275.492	5864
3277.253	5718
3279.013	5681
3280.773	5818
3282.532	5772
3284.291	5780
3286.05	5766
3287.808	5673
3289.566	5719
3291.323	5816
3293.079	5760
3294.835	5724
3296.593	5691
3298.348	5804
3300.102	5553
3301.857	5761
3303.611	5681
3305.366	5727
3307.119	5656
3308.872	5626
3310.624	5727
3312.376	5672
3314.129	5697
3315.881	5737
3317.631	5678
3319.38	5630
3321.13	5644
3322.88	5786
3324.631	5755
3326.379	5554
3328.126	5631
3329.875	5628
3331.622	5656
3333.371	5638
3335.116	5647
3336.863	5706
3338.609	5780
3340.353	5707
3342.1	5696
3343.845	5722
3345.588	5593
3347.332	5706
3349.074	5719
3350.817	5635
3352.56	5625
3354.303	5655
3356.043	5600
3357.785	5616
3359.525	5591
3361.268	5585
3363.007	5627
3364.745	5532
3366.485	5568
3368.223	5681
3369.962	5571
3371.701	5609
3373.438	5586
3375.174	5637
3376.911	5532
3378.647	5576
3380.384	5491
3382.118	5507
3383.854	5542
3385.588	5637
3387.322	5565
3389.057	5587
3390.79	5499
3392.522	5589
3394.255	5549
3395.987	5507
3397.719	5415
3399.451	5582
3401.181	5532
3402.911	5403
3404.641	5515
3406.371	5455
3408.101	5589
3409.83	5449
3411.558	5438
3413.285	5433
3415.011	5548
3416.739	5468
3418.467	5398
3420.193	5394
3421.919	5405
3423.644	5413
3425.368	5460
3427.094	5432
3428.818	5356
3430.542	5533
3432.264	5500
3433.987	5520
3435.712	5458
3437.434	5315
3439.155	5406
3440.876	5427
3442.596	5387
3444.317	5416
3446.039	5565
3447.757	5228
3449.477	5410
3451.195	5510
3452.914	5445
3454.632	5348
3456.35	5377
3458.067	5325
3459.784	5394
3461.5	5413
3463.216	5311
3464.932	5344
3466.647	5255
3468.362	5351
3470.076	5316
3471.789	5296
3473.505	5278
3475.217	5349
3476.929	5322
3478.641	5260
3480.354	5342
3482.066	5328
3483.777	5344
3485.487	5238
3487.197	5234
3488.908	5287
3490.617	5316
3492.327	5200
3494.035	5233
3495.743	5228
3497.451	5210
3499.158	5109
3500.866	5181
3502.572	5215
3504.278	5158
3505.984	5205
3507.689	5164
3509.396	5188
3511.1	5114
3512.804	5198
3514.508	5202
3516.211	5169
3517.913	5179
3519.616	5203
3521.319	5160
3523.021	5181
3524.722	5072
3526.422	5237
3528.124	5102
3529.824	5183
3531.524	5227
3533.222	5189
3534.921	5123
3536.62	5136
3538.318	5066
3540.016	5098
3541.714	5111
3543.41	5176
3545.107	5132
3546.803	5148
3548.5	5093
3550.194	5047
3551.889	5044
3553.583	5109
3555.279	5090
3556.972	5070
3558.666	5153
3560.358	5076
3562.051	5052
3563.742	4986
3565.435	5117
3567.126	4998
3568.817	5089
3570.507	5056
3572.197	5158
3573.888	5006
3575.577	5082
3577.265	5006
3578.954	4928
3580.642	5144
3582.329	5005
3584.017	5015
3585.704	5040
3587.391	4987
3589.077	5003
3590.762	4970
3592.449	4951
3594.133	4938
3595.817	4928
3597.501	4993
3599.185	4989
3600.869	4859
3602.552	4978
3604.234	4907
3605.916	4881
3607.598	4871
3609.279	4853
3610.961	4834
3612.642	4974
3614.321	4858
3616	4912
3617.68	4849
3619.36	4894
3621.039	4915
3622.716	4936
3624.394	4864
3626.071	4930
3627.748	4855
3629.425	4823
3631.102	4863
3632.778	4781
3634.452	4871
3636.127	4849
3637.803	4809
3639.477	4809
3641.151	4831
3642.823	4871
3644.497	4804
3646.171	4811
3647.842	4843
3649.515	4826
3651.185	4678
3652.857	4700
3654.527	4829
3656.198	4807
3657.868	4799
3659.537	4788
3661.207	4692
3662.875	4805
3664.544	4811
3666.212	4792
3667.879	4693
3669.546	4878
3671.212	4705
3672.88	4809
3674.546	4734
3676.211	4729
3677.875	4718
3679.541	4704
3681.205	4657
3682.87	4757
3684.533	4744
3686.196	4718
3687.859	4634
3689.521	4794
3691.184	4640
3692.845	4671
3694.507	4729
3696.167	4672
3697.827	4671
3699.487	4687
3701.148	4694
3702.808	4692
3704.466	4654
3706.125	4620
3707.783	4685
3709.442	4747
3711.099	4629
3712.757	4789
3714.412	4669
3716.068	4722
3717.725	4676
3719.381	4597
3721.036	4681
3722.689	4693
3724.344	4625
3725.998	4627
3727.652	4606
3729.305	4686
3730.958	4597
3732.61	4647
3734.262	4638
3735.915	4520
3737.565	4535
3739.217	4483
3740.866	4642
3742.516	4616
3744.165	4667
3745.816	4616
3747.464	4598
3749.113	4685
3750.761	4516
3752.409	4540
3754.057	4604
3755.703	4497
3757.35	4543
3758.996	4487
3760.641	4556
3762.289	4528
3763.933	4667
3765.577	4603
3767.222	4544
3768.865	4595
3770.508	4612
3772.152	4542
3773.796	4543
3775.438	4504
3777.079	4593
3778.721	4555
3780.363	4527
3782.003	4441
3783.643	4547
3785.283	4420
3786.923	4448
3788.563	4526
3790.203	4425
3791.841	4487
3793.479	4445
3795.115	4447
3796.753	4451
3798.391	4385
3800.027	4491
3801.664	4452
3803.299	4381
3804.935	4457
3806.571	4410
3808.206	4462
3809.839	4434
3811.473	4473
3813.107	4437
3814.74	4263
3816.375	4494
3818.006	4445
3819.638	4406
3821.27	4491
3822.9	4410
3824.532	4427
3826.163	4389
3827.792	4423
3829.423	4361
3831.051	4338
3832.682	4394
3834.311	4346
3835.938	4406
3837.566	4352
3839.193	4354
3840.821	4381
3842.448	4386
3844.075	4400
3845.7	4362
3847.325	4383
3848.951	4381
3850.576	4364
3852.201	4364
3853.825	4351
3855.448	4299
3857.072	4280
3858.694	4440
3860.318	4354
3861.939	4289
3863.562	4397
3865.183	4347
3866.804	4255
3868.426	4344
3870.045	4372
3871.666	4237
3873.285	4248
3874.904	4307
3876.524	4282
3878.142	4176
3879.76	4266
3881.378	4248
3882.995	4271
3884.612	4282
3886.229	4298
3887.845	4240
3889.461	4223
3891.076	4239
3892.691	4212
3894.307	4255
3895.922	4271
3897.536	4336
3899.149	4224
3900.761	4212
3902.374	4239
3903.988	4367
3905.6	4270
3907.212	4204
3908.822	4144
3910.433	4216
3912.045	4230
3913.655	4221
3915.265	4176
3916.875	4186
3918.483	4280
3920.093	4150
3921.702	4203
3923.309	4248
3924.917	4206
3926.523	4262
3928.13	4214
3929.739	4190
3931.344	4182
3932.95	4280
3934.555	4187
3936.159	4184
3937.766	4189
3939.369	4167
3940.974	4225
3942.577	4159
3944.181	4261
3945.783	4171
3947.386	4217
3948.989	4130
3950.59	4179
3952.191	4237
3953.791	4191
3955.394	4133
3956.994	4120
3958.593	4138
3960.192	4147
3961.791	4137
3963.392	4153
3964.99	4104
3966.588	4129
3968.185	4081
3969.782	4130
3971.379	4009
3972.976	4215
3974.572	4013
3976.168	4084
3977.763	4058
3979.358	4105
3980.954	4017
3982.548	4173
3984.142	4034
3985.736	4027
3987.329	4014
3988.922	4001
3990.516	4053
3992.108	4053
3993.698	4097
3995.29	4011
3996.881	3978
3998.473	4011
4000.064	4010
4001.653	3988
4003.242	3969
4004.832	4019
4006.422	3981
4008.01	3976
4009.598	3963
4011.186	3858
4012.773	4049
4014.36	3974
4015.947	3960
4017.534	4023
4019.119	3858
4020.705	3984
4022.291	3926
4023.876	3871
4025.461	3946
4027.044	3910
4028.627	3949
4030.211	3912
4031.795	3961
4033.378	3879
4034.96	3863
4036.542	3901
4038.124	3866
4039.704	3890
4041.286	3866
4042.867	3843
4044.447	3911
4046.026	3856
4047.606	3914
4049.187	3865
4050.765	3842
4052.343	3892
4053.92	3858
4055.498	3855
4057.076	3812
4058.654	3929
4060.23	3838
4061.806	3811
4063.381	3827
4064.957	3889
4066.533	3850
4068.107	3831
4069.682	3814
4071.256	3813
4072.829	3858
4074.404	3788
4075.977	3776
4077.549	3843
4079.121	3896
4080.693	3799
4082.265	3807
4083.836	3858
4085.407	3821
4086.977	3739
4088.547	3869
4090.117	3804
4091.687	3755
4093.256	3799
4094.825	3805
4096.392	3879
4097.96	3705
4099.528	3762
4101.097	3639
4102.663	3743
4104.229	3746
4105.795	3733
4107.361	3751
4108.928	3746
4110.493	3716
4112.058	3762
4113.621	3722
4115.186	3719
4116.75	3727
4118.313	3755
4119.876	3685
4121.438	3716
4123	3654
4124.562	3746
4126.125	3696
4127.686	3694
4129.246	3744
4130.807	3690
4132.367	3657
4133.927	3731
4135.486	3625
4137.046	3681
4138.604	3648
4140.162	3653
4141.72	3643
4143.279	3669
4144.836	3669
4146.393	3621
4147.949	3597
4149.505	3756
4151.062	3654
4152.617	3675
4154.172	3599
4155.727	3618
4157.281	3531
4158.836	3602
4160.39	3607
4161.943	3626
4163.496	3546
4165.048	3633
4166.601	3592
4168.154	3604
4169.706	3485
4171.257	3531
4172.808	3634
4174.358	3555
4175.909	3597
4177.458	3528
4179.008	3612
4180.558	3564
4182.106	3523
4183.655	3512
4185.204	3595
4186.751	3521
4188.298	3527
4189.845	3544
4191.392	3471
4192.939	3458
4194.485	3473
4196.031	3533
4197.576	3501
4199.121	3499
4200.666	3547
4202.211	3462
4203.754	3586
4205.298	3560
4206.84	3505
4208.384	3453
4209.927	3426
4211.47	3484
4213.011	3491
4214.552	3418
4216.094	3525
4217.635	3449
4219.175	3460
4220.716	3469
4222.255	3521
4223.793	3383
4225.335	3454
4226.873	3477
4228.411	3504
4229.948	3428
4231.486	3453
4233.024	3415
4234.562	3390
4236.098	3582
4237.634	3447
4239.169	3420
4240.705	3518
4242.241	3513
4243.776	3498
4245.31	3451
4246.844	3502
4248.378	3395
4249.911	3471
4251.445	3423
4252.978	3416
4254.51	3400
4256.042	3460
4257.574	3416
4259.107	3442
4260.638	3475
4262.169	3392
4263.699	3284
4265.228	3418
4266.759	3463
4268.289	3366
4269.818	3345
4271.345	3430
4272.874	3357
4274.402	3422
4275.931	3370
4277.458	3363
4278.985	3419
4280.512	3308
4282.037	3319
4283.564	3361
4285.089	3355
4286.615	3341
4288.139	3314
4289.664	3405
4291.187	3363
4292.712	3351
4294.235	3342
4295.759	3291
4297.281	3339
4298.804	3355
4300.327	3288
4301.849	3374
4303.37	3285
4304.891	3272
4306.412	3288
4307.933	3306
4309.453	3335
4310.973	3241
4312.492	3260
