398.1873	10246
400.7097	10386
403.2336	10156
405.7547	10239
408.2751	10414
410.7948	10374
413.3138	10419
415.83	10557
418.3497	10581
420.8666	10645
423.3829	10561
425.8985	10769
428.4133	10693
430.9275	10835
433.441	10975
435.9538	10838
438.4639	10923
440.9753	11069
443.4881	10948
445.9982	10949
448.5055	10955
451.0142	10975
453.5201	10983
456.0274	11070
458.5361	11116
461.04	10960
463.5453	10911
466.0478	11066
468.5517	11209
471.0549	11201
473.5574	11343
476.0572	11356
478.5584	11248
481.0568	11323
483.5545	11306
486.0557	11449
488.5521	11334
491.0478	11415
493.5449	11326
496.0392	11411
498.5349	11418
501.0299	11435
503.5222	11601
506.0139	11597
508.5048	11310
510.9991	11577
513.4887	11651
515.9777	11619
518.4659	11512
520.9534	11663
523.4403	11574
525.9306	11628
528.4161	11792
530.9009	11646
533.3851	11620
535.8687	11674
538.3535	11457
540.8356	11537
543.3171	11789
545.7979	11650
548.278	11916
550.7595	11678
553.2383	11762
555.7144	11709
558.1918	11879
560.6685	11879
563.1446	11882
565.6221	11841
568.0968	11876
570.5688	12025
573.0422	11899
575.515	12006
577.989	11922
580.4584	12106
582.9291	12108
585.3991	12075
587.8685	12021
590.3352	12121
592.8052	12198
595.2706	12102
597.7372	12013
600.2033	12130
602.6666	12132
605.1334	11892
607.5953	12023
610.0587	12096
612.5193	12103
614.9814	12035
617.4427	12069
619.9034	11973
622.3615	12027
624.8208	12071
627.2775	11990
629.7335	12075
632.1929	11979
634.6476	11971
637.1016	12045
639.5569	12301
642.0096	12287
644.4637	12379
646.9151	12118
649.3678	12197
651.8179	12309
654.2672	12298
656.7159	12328
659.166	12204
661.6154	12380
664.0622	12356
666.5082	12479
668.9537	12641
671.4005	12502
673.8445	12627
676.288	12498
678.7308	12574
681.1729	12426
683.6163	12714
686.0572	12557
688.4973	12894
690.9368	12413
693.3757	12462
695.8138	12745
698.2534	12735
700.6902	12752
703.1245	12830
705.56	12817
707.9949	12754
710.4311	12758
712.8647	12797
715.2957	12784
717.7279	12825
720.1595	12891
722.5905	12658
725.0208	12854
727.4505	12835
729.8795	12952
732.3058	12931
734.7336	13120
737.1626	13270
739.587	13049
742.0128	13198
744.4359	13324
746.8604	13239
749.2841	13217
751.7073	13490
754.1278	13600
756.5496	13446
758.9688	13309
761.3893	13530
763.8093	13536
766.2285	13409
768.6451	13543
771.0611	13435
773.4784	13597
775.895	13651
778.3091	13539
780.7244	13581
783.1371	13508
785.5493	13482
787.9626	13544
790.3754	13694
792.7856	13455
795.1951	13594
797.6039	13420
800.0121	13502
802.4236	13549
804.8306	13728
807.2369	13541
809.6425	13657
812.0475	13465
814.4538	13749
816.8575	13713
819.2606	13695
821.663	13731
824.0648	13550
826.4659	13593
828.8683	13517
831.2682	13644
833.6674	13710
836.066	13734
838.4639	13748
840.8632	13706
843.2579	13810
845.6539	13894
848.0493	13764
850.444	13953
852.84	14039
855.2315	13765
857.6243	13944
860.0165	13739
862.4081	13802
864.797	13849
867.1892	13943
869.5789	13956
871.9659	13979
874.3542	13930
876.74	13880
879.129	13707
881.5155	13833
883.8994	13786
886.2845	13889
888.6671	13916
891.051	13855
893.4343	13807
895.8169	13898
898.197	13970
900.5783	13876
902.9571	13948
905.3372	13849
907.7167	13915
910.0936	13871
912.4698	14106
914.8474	14109
917.2244	14014
919.5987	14080
921.9744	14100
924.3475	14270
926.72	14234
929.0918	14192
931.4669	14328
933.8375	14285
936.2074	14371
938.5767	14518
940.9454	14497
943.3154	14486
945.6829	14582
948.0497	15002
950.4178	14987
952.7833	15251
955.1483	15570
957.5145	15711
959.8782	15839
962.2412	15988
964.6036	15703
966.9655	15176
969.3266	15119
971.6871	14856
974.0471	14562
976.4064	14577
978.765	14401
981.125	14434
983.4824	14300
985.8373	14391
988.1935	14231
990.549	14317
992.9039	14314
995.2602	14290
997.6119	14254
999.965	14352
1002.317	14476
1004.667	14085
1007.02	14600
1009.371	14383
1011.719	14441
1014.068	14393
1016.415	14336
1018.765	14284
1021.111	14339
1023.458	14401
1025.804	14481
1028.147	14515
1030.49	14481
1032.837	14602
1035.179	14445
1037.522	14645
1039.862	14543
1042.204	14709
1044.546	14576
1046.884	14553
1049.224	14723
1051.562	14521
1053.899	14754
1056.237	14521
1058.575	14593
1060.91	14520
1063.244	14761
1065.58	14448
1067.913	14915
1070.248	14805
1072.579	14740
1074.911	14940
1077.242	14789
1079.572	14658
1081.905	14823
1084.234	14896
1086.562	14791
1088.89	14659
1091.217	14630
1093.544	14693
1095.871	14625
1098.197	14748
1100.521	14607
1102.845	14659
1105.169	14777
1107.491	14863
1109.814	14647
1112.135	14774
1114.456	14709
1116.776	14752
1119.096	14747
1121.415	14785
1123.734	14747
1126.052	14865
1128.369	14935
1130.686	14780
1133.002	14883
1135.318	14768
1137.632	14682
1139.945	14806
1142.258	14987
1144.573	14944
1146.884	14818
1149.196	14763
1151.505	14973
1153.816	14856
1156.124	14919
1158.435	15069
1160.742	14967
1163.051	14826
1165.356	14852
1167.663	14853
1169.97	14769
1172.276	15031
1174.579	14832
1176.881	14782
1179.186	14910
1181.487	14825
1183.79	14815
1186.092	14895
1188.392	14705
1190.691	14911
1192.991	14838
1195.291	14904
1197.588	14798
1199.885	14969
1202.181	14767
1204.479	14898
1206.775	14788
1209.07	14815
1211.363	15030
1213.656	15008
1215.949	14980
1218.241	15001
1220.534	14893
1222.825	15022
1225.115	15010
1227.405	15123
1229.693	15144
1231.984	15003
1234.271	15177
1236.558	15070
1238.845	15172
1241.131	15116
1243.416	15297
1245.703	15284
1247.987	15201
1250.269	15226
1252.552	15320
1254.834	15223
1257.118	15154
1259.399	15448
1261.678	15106
1263.958	15152
1266.237	15321
1268.516	15291
1270.794	15194
1273.072	15271
1275.347	15259
1277.624	15336
1279.899	15153
1282.175	15433
1284.449	15198
1286.722	15135
1288.995	15214
1291.266	15111
1293.54	15046
1295.81	15191
1298.081	14936
1300.35	15180
1302.62	15181
1304.889	15162
1307.156	15096
1309.425	15013
1311.69	15161
1313.957	14975
1316.222	15290
1318.488	15367
1320.751	15021
1323.016	15240
1325.278	15164
1327.54	15242
1329.803	15131
1332.065	15310
1334.325	15208
1336.584	15249
1338.843	15074
1341.101	15257
1343.36	15231
1345.617	15295
1347.876	15283
1350.131	15261
1352.387	15357
1354.643	15301
1356.897	15182
1359.151	15409
1361.403	15287
1363.656	15273
1365.909	15402
1368.16	15206
1370.409	15258
1372.659	15207
1374.909	15519
1377.157	15297
1379.407	15215
1381.655	15293
1383.9	15119
1386.147	15407
1388.393	15427
1390.64	15318
1392.885	15409
1395.127	15287
1397.37	15221
1399.614	15359
1401.854	15509
1404.098	15154
1406.339	15488
1408.578	15477
1410.818	15472
1413.056	15401
1415.297	15343
1417.533	15595
1419.771	15392
1422.006	15537
1424.243	15597
1426.479	15432
1428.715	15705
1430.948	15678
1433.182	15674
1435.414	15642
1437.647	15763
1439.88	15666
1442.11	15523
1444.342	15569
1446.571	15721
1448.799	15692
1451.029	15734
1453.258	15873
1455.485	15727
1457.711	15881
1459.937	15802
1462.164	15890
1464.39	15653
1466.614	15917
1468.838	15605
1471.06	15603
1473.283	15502
1475.506	15842
1477.727	15568
1479.949	15501
1482.169	15584
1484.389	15481
1486.609	15515
1488.828	15184
1491.045	15389
1493.261	15343
1495.477	15455
1497.693	15353
1499.91	15359
1502.125	15364
1504.339	15258
1506.553	15325
1508.766	15231
1510.979	15219
1513.191	15560
1515.402	15408
1517.613	15603
1519.823	15269
1522.033	15256
1524.242	15368
1526.451	15228
1528.657	15297
1530.865	15316
1533.072	15522
1535.278	15298
1537.484	15409
1539.687	15258
1541.892	15442
1544.096	15493
1546.299	15382
1548.502	15373
1550.703	15444
1552.905	15553
1555.104	15591
1557.303	15621
1559.505	15480
1561.703	15467
1563.902	15803
1566.099	15647
1568.295	15472
1570.494	15507
1572.689	15655
1574.883	15753
1577.079	15757
1579.272	15854
1581.467	15758
1583.659	15877
1585.853	15644
1588.044	15989
1590.234	15717
1592.424	15781
1594.615	15867
1596.806	15773
1598.994	16043
1601.182	15954
1603.369	16061
1605.557	15896
1607.744	16098
1609.929	15981
1612.114	15776
1614.298	15856
1616.482	15873
1618.667	15875
1620.85	16078
1623.032	15766
1625.214	16001
1627.395	15948
1629.575	16018
1631.755	16060
1633.935	15913
1636.114	16001
1638.292	16028
1640.471	15887
1642.647	15790
1644.823	16057
1647	15937
1649.175	16099
1651.348	15893
1653.525	16086
1655.698	15987
1657.87	16162
1660.043	16042
1662.213	16142
1664.387	15969
1666.558	16123
1668.727	15886
1670.896	16092
1673.064	15961
1675.233	16277
1677.401	16146
1679.569	15964
1681.735	15857
1683.902	16032
1686.066	15959
1688.233	16119
1690.397	16166
1692.559	16099
1694.723	16065
1696.885	16040
1699.048	16015
1701.21	15988
1703.37	15919
1705.53	15882
1707.689	15995
1709.849	15716
1712.009	15983
1714.166	15962
1716.323	15885
1718.479	15726
1720.634	16024
1722.793	15917
1724.948	15875
1727.102	16056
1729.255	15781
1731.408	15814
1733.562	16019
1735.714	16009
1737.865	16115
1740.016	15979
1742.166	16044
1744.316	15852
1746.467	15874
1748.616	16060
1750.764	15949
1752.911	16136
1755.056	16111
1757.205	15762
1759.35	16096
1761.496	16032
1763.641	15937
1765.785	16017
1767.927	15987
1770.072	15982
1772.214	16054
1774.355	15915
1776.496	16178
1778.637	16103
1780.778	16176
1782.918	16278
1785.057	16255
1787.194	16193
1789.333	16076
1791.472	16293
1793.608	16085
1795.745	16267
1797.879	16090
1800.015	15913
1802.148	16351
1804.284	16160
1806.417	16110
1808.548	15986
1810.682	16069
1812.812	16112
1814.946	16136
1817.075	16108
1819.205	15985
1821.335	16051
1823.463	16252
1825.59	16187
1827.721	15959
1829.847	16096
1831.973	15977
1834.098	16047
1836.223	15964
1838.351	16031
1840.475	15901
1842.598	16031
1844.721	16019
1846.843	15788
1848.966	15924
1851.087	16075
1853.21	15915
1855.33	15886
1857.449	15974
1859.568	16008
1861.688	16110
1863.806	15975
1865.924	16020
1868.039	16019
1870.155	15758
1872.273	16178
1874.388	15940
1876.503	16063
1878.617	15999
1880.73	15943
1882.844	15932
1884.956	15990
1887.068	15923
1889.18	16042
1891.291	16140
1893.4	15929
1895.511	16040
1897.621	16236
1899.73	16185
1901.837	16042
1903.944	16217
1906.053	16130
1908.159	16212
1910.265	16125
1912.369	16058
1914.474	16292
1916.577	16137
1918.683	16337
1920.785	16113
1922.888	16336
1924.989	16389
1927.091	16352
1929.193	16407
1931.294	16087
1933.393	16140
1935.493	16081
1937.59	16354
1939.689	16419
1941.788	16217
1943.884	16243
1945.98	16125
1948.077	16310
1950.171	16280
1952.267	16202
1954.361	16177
1956.455	16220
1958.548	16215
1960.64	16179
1962.733	16222
1964.824	16311
1966.915	16140
1969.005	16287
1971.096	16119
1973.185	16282
1975.275	16212
1977.363	16302
1979.45	16007
1981.537	16163
1983.623	16228
1985.711	16276
1987.796	16212
1989.881	16045
1991.965	16230
1994.047	16132
1996.132	16007
1998.215	16008
2000.297	16079
2002.378	16288
2004.46	15995
2006.54	15950
2008.62	16022
2010.7	16106
2012.779	16015
2014.858	16084
2016.934	16018
2019.013	16035
2021.09	16135
2023.165	15929
2025.241	16015
2027.317	15919
2029.39	15982
2031.466	15941
2033.538	15959
2035.612	16068
2037.683	15998
2039.755	15900
2041.827	16194
2043.898	16148
2045.968	15859
2048.038	15906
2050.106	16154
2052.177	16215
2054.244	16020
2056.313	16003
2058.379	16048
2060.444	16165
2062.511	16045
2064.577	16184
2066.641	16383
2068.705	16075
2070.77	16087
2072.832	15850
2074.896	16019
2076.958	16074
2079.02	16137
2081.081	16016
2083.141	15897
2085.2	16174
2087.261	16203
2089.319	16099
2091.377	16108
2093.435	16189
2095.492	16207
2097.552	16042
2099.607	15955
2101.663	16025
2103.718	15934
2105.771	16001
2107.826	16032
2109.879	16190
2111.932	16083
2113.985	16103
2116.037	16073
2118.088	15973
2120.141	15975
2122.191	16257
2124.239	16049
2126.288	15862
2128.337	15933
2130.387	16075
2132.434	16158
2134.481	16000
2136.528	15882
2138.574	15979
2140.618	16045
2142.665	15966
2144.71	15956
2146.753	16073
2148.797	15885
2150.838	15974
2152.883	15862
2154.923	15986
2156.965	15844
2159.007	15786
2161.046	16118
2163.086	15982
2165.126	16032
2167.163	15947
2169.202	15858
2171.239	15911
2173.277	15997
2175.314	15810
2177.349	15862
2179.385	15861
2181.42	15814
2183.453	15947
2185.49	15812
2187.522	15851
2189.555	15704
2191.586	15737
2193.619	15863
2195.651	15661
2197.682	15754
2199.711	15620
2201.74	15581
2203.769	15639
2205.799	15550
2207.828	15591
2209.855	15680
2211.882	15625
2213.908	15663
2215.934	15535
2217.961	15607
2219.986	15614
2222.01	15353
2224.034	15426
2226.057	15749
2228.08	15618
2230.104	15516
2232.124	15713
2234.145	15619
2236.166	15597
2238.186	15540
2240.207	15569
2242.227	15652
2244.244	15484
2246.262	15644
2248.28	15471
2250.299	15405
2252.314	15754
2254.33	15498
2256.346	15532
2258.36	15526
2260.375	15751
2262.391	15694
2264.403	15680
2266.416	15604
2268.427	15637
2270.44	15600
2272.453	15634
2274.463	15611
2276.474	15612
2278.483	15613
2280.493	15657
2282.501	15601
2284.51	15426
2286.518	15651
2288.524	15515
2290.532	15498
2292.537	15556
2294.544	15585
2296.55	15730
2298.554	15588
2300.557	15628
2302.562	15529
2304.566	15704
2306.568	15718
2308.569	15440
2310.572	15695
2312.573	15538
2314.573	15448
2316.574	15525
2318.573	15427
2320.571	15398
2322.571	15458
2324.569	15442
2326.567	15588
2328.564	15404
2330.56	15276
2332.556	15502
2334.551	15589
2336.546	15312
2338.542	15595
2340.535	15424
2342.529	15364
2344.521	15398
2346.512	15292
2348.505	15428
2350.497	15113
2352.487	15279
2354.478	15310
2356.468	15305
2358.457	15180
2360.446	15299
2362.434	15197
2364.422	15251
2366.408	15271
2368.395	15246
2370.383	15271
2372.369	15195
2374.353	15209
2376.338	15077
2378.321	15011
2380.307	15223
2382.29	15384
2384.272	15200
2386.254	15288
2388.235	15168
2390.218	15232
2392.198	15044
2394.179	15028
2396.157	15056
2398.137	15108
2400.115	15049
2402.095	14993
2404.072	15093
2406.048	15073
2408.026	15200
2410.001	15099
2411.977	14970
2413.953	14874
2415.927	15079
2417.9	14983
2419.875	15039
2421.847	15044
2423.821	14882
2425.792	15017
2427.763	15063
2429.736	15072
2431.706	15146
2433.677	14963
2435.646	15083
2437.615	15092
2439.583	14813
2441.551	15023
2443.519	15185
2445.486	15079
2447.452	14926
2449.418	15028
2451.383	14747
2453.348	14952
2455.314	14884
2457.278	14919
2459.241	14851
2461.205	14912
2463.167	14963
2465.131	14929
2467.091	14894
2469.052	14712
2471.012	15104
2472.972	14861
2474.932	14981
2476.891	14936
2478.85	14797
2480.808	14625
2482.766	15082
2484.722	14788
2486.68	14936
2488.636	14764
2490.591	14746
2492.546	14958
2494.5	14823
2496.456	14967
2498.41	14711
2500.362	14844
2502.315	14789
2504.266	14835
2506.218	14703
2508.169	14808
2510.121	14731
2512.07	14761
2514.019	14739
2515.968	14739
2517.918	14798
2519.866	14684
2521.813	14691
2523.76	14517
2525.707	14727
2527.653	14825
2529.599	14727
2531.543	14798
2533.489	14832
2535.433	14441
2537.376	14577
2539.32	14633
2541.264	14631
2543.205	14631
2545.147	14717
2547.087	14699
2549.029	14489
2550.969	14688
2552.908	14685
2554.847	14695
2556.786	14563
2558.724	14706
2560.663	14608
2562.6	14533
2564.537	14560
2566.473	14486
2568.408	14678
2570.345	14600
2572.28	14725
2574.214	14730
2576.148	14602
2578.081	14478
2580.014	14592
2581.947	14586
2583.879	14602
2585.81	14545
2587.741	14507
2589.67	14744
2591.602	14750
2593.532	14714
2595.461	14599
2597.388	14768
2599.316	14647
2601.244	14479
2603.172	14563
2605.098	14656
2607.023	14549
2608.949	14621
2610.873	14701
2612.8	14752
2614.723	14754
2616.647	14553
2618.569	14624
2620.493	14654
2622.416	14673
2624.338	14748
2626.258	14748
2628.179	14883
2630.099	14759
2632.019	14895
2633.939	14733
2635.857	14717
2637.775	14667
2639.694	14706
2641.61	14756
2643.528	14785
2645.444	14542
2647.361	14558
2649.276	14720
2651.19	14655
2653.105	14542
2655.019	14687
2656.934	14840
2658.846	14748
2660.758	14622
2662.67	14445
2664.583	14722
2666.493	14677
2668.404	14658
2670.313	14604
2672.223	14558
2674.134	14498
2676.042	14607
2677.95	14483
2679.858	14450
2681.765	14511
2683.673	14570
2685.579	14539
2687.483	14564
2689.389	14466
2691.294	14320
2693.198	14521
2695.104	14304
2697.006	14621
2698.909	14549
2700.811	14428
2702.713	14366
2704.615	14520
2706.516	14218
2708.417	14481
2710.316	14315
2712.216	14328
2714.115	14379
2716.014	14188
2717.913	14362
2719.81	14447
2721.707	14443
2723.603	14339
2725.501	14313
2727.396	14397
2729.292	14386
2731.186	14435
2733.081	14295
2734.976	14272
2736.87	14332
2738.762	14428
2740.653	14347
2742.546	14388
2744.437	14215
2746.329	14329
2748.22	14296
2750.11	14309
2751.999	14151
2753.889	14269
2755.778	14135
2757.666	14006
2759.553	14218
2761.44	14024
2763.328	14144
2765.215	14268
2767.101	14048
2768.986	14048
2770.87	14205
2772.754	14091
2774.638	14226
2776.523	14104
2778.405	14212
2780.288	14109
2782.17	14243
2784.051	14114
2785.934	14114
2787.814	14219
2789.694	14142
2791.574	14258
2793.453	14159
2795.332	14044
2797.212	14176
2799.088	13987
2800.966	14156
2802.843	14029
2804.719	14011
2806.597	14104
2808.471	14031
2810.346	14161
2812.221	13929
2814.094	14103
2815.969	14099
2817.843	13954
2819.714	14148
2821.587	13906
2823.459	14097
2825.329	14053
2827.202	14072
2829.072	13882
2830.942	14076
2832.811	14045
2834.68	13957
2836.549	14080
2838.418	13986
2840.284	13881
2842.152	14005
2844.018	13852
2845.885	14089
2847.751	14128
2849.616	14090
2851.482	13886
2853.345	14044
2855.208	13883
2857.074	13865
2858.937	14057
2860.799	13905
2862.66	14167
2864.522	13985
2866.385	13918
2868.245	14152
2870.104	14275
2871.964	14147
2873.824	14199
2875.683	14217
2877.542	14228
2879.4	14385
2881.257	14214
2883.114	14414
2884.97	14223
2886.827	14426
2888.683	14267
2890.537	14382
2892.392	14451
2894.246	14354
2896.1	14330
2897.954	14166
2899.807	14326
2901.66	14190
2903.51	14240
2905.362	14219
2907.214	14322
2909.065	14157
2910.915	14382
2912.765	14358
2914.613	14174
2916.463	14466
2918.311	14265
2920.158	14342
2922.006	14741
2923.853	14529
2925.698	14679
2927.546	14692
2929.392	14720
2931.236	14732
2933.081	14839
2934.924	14681
2936.77	14751
2938.613	14953
2940.455	14926
2942.298	14746
2944.139	15028
2945.982	14940
2947.823	14720
2949.662	14821
2951.503	14921
2953.342	14725
2955.182	14641
2957.021	14474
2958.858	14608
2960.697	14485
2962.534	14437
2964.37	14605
2966.207	14438
2968.044	14477
2969.879	14209
2971.714	14201
2973.548	14005
2975.383	14474
2977.218	14138
2979.051	14220
2980.883	14088
2982.715	13990
2984.547	14224
2986.379	14036
2988.21	14060
2990.04	13975
2991.87	13837
2993.7	13888
2995.53	13845
2997.359	13986
2999.187	13880
3001.015	13604
3002.842	13773
3004.669	13708
3006.497	13655
3008.323	13655
3010.148	13533
3011.974	13681
3013.797	13495
3015.623	13468
3017.447	13472
3019.27	13414
3021.094	13396
3022.915	13299
3024.737	13549
3026.56	13278
3028.38	13471
3030.201	13377
3032.022	13426
3033.84	13238
3035.662	13192
3037.481	13094
3039.298	13146
3041.117	13178
3042.933	13301
3044.752	13240
3046.568	13221
3048.385	13216
3050.2	13308
3052.016	13369
3053.83	12941
3055.646	13300
3057.46	13009
3059.272	13012
3061.086	12938
3062.898	13108
3064.711	12926
3066.524	13127
3068.335	12987
3070.145	13022
3071.956	12914
3073.766	13081
3075.576	12982
3077.385	12995
3079.193	13040
3081.002	13017
3082.81	12840
3084.618	12796
3086.425	12818
3088.231	12943
3090.036	12697
3091.842	12814
3093.648	12716
3095.452	12764
3097.257	12797
3099.06	12747
3100.863	12738
3102.666	12812
3104.47	12736
3106.272	12738
3108.073	12743
3109.875	12606
3111.676	12855
3113.477	12552
3115.277	12614
3117.077	12655
3118.874	12682
3120.673	12730
3122.473	12631
3124.271	12645
3126.066	12502
3127.863	12493
3129.66	12528
3131.456	12590
3133.252	12503
3135.047	12434
3136.842	12482
3138.635	12449
3140.429	12670
3142.223	12343
3144.016	12483
3145.808	12221
3147.6	12463
3149.392	12510
3151.183	12449
3152.975	12353
3154.765	12401
3156.553	12442
3158.344	12346
3160.132	12298
3161.922	12360
3163.71	12200
3165.497	12402
3167.285	12512
3169.071	12321
3170.858	12257
3172.645	12168
3174.429	12300
3176.214	12187
3177.998	12128
3179.783	12183
3181.568	12388
3183.351	12107
3185.133	12121
3186.915	12138
3188.698	12161
3190.481	12302
3192.261	12221
3194.042	12352
3195.822	12142
3197.601	12316
3199.381	11954
3201.161	12084
3202.939	12081
3204.717	12131
3206.495	12102
3208.272	12154
3210.05	11993
3211.826	11984
3213.602	12179
3215.376	12031
3217.151	12054
3218.927	12011
3220.702	12015
3222.476	11909
3224.249	12093
3226.021	12075
3227.793	12114
3229.567	12124
3231.339	12016
3233.109	12100
3234.88	11962
3236.651	12064
3238.421	11994
3240.191	11769
3241.96	11994
3243.728	11969
3245.497	11978
3247.263	12049
3249.033	11995
3250.799	11923
3252.566	11997
3254.331	11863
3256.097	11916
3257.863	12044
3259.628	11979
3261.392	11962
3263.156	11881
3264.919	11914
3266.683	12001
3268.447	12069
3270.208	12028
3271.969	11782
3273.731	11873
3275.492	11970
3277.253	12020
3279.013	11833
3280.773	11909
3282.532	12017
3284.291	11738
3286.05	11817
3287.808	11800
3289.566	12053
3291.323	11879
3293.079	11911
3294.835	11886
3296.593	11970
3298.348	11900
3300.102	11940
3301.857	11765
3303.611	11970
3305.366	11727
3307.119	11742
3308.872	11797
3310.624	11945
3312.376	11834
3314.129	11781
3315.881	11817
3317.631	11838
3319.38	11793
3321.13	11783
3322.88	11858
3324.631	11663
3326.379	11748
3328.126	11852
3329.875	11672
3331.622	11841
3333.371	11617
3335.116	11696
3336.863	11643
3338.609	11713
3340.353	11645
3342.1	11792
3343.845	11685
3345.588	11661
3347.332	11638
3349.074	11633
3350.817	11466
3352.56	11588
3354.303	11742
3356.043	11594
3357.785	11598
3359.525	11706
3361.268	11584
3363.007	11752
3364.745	11525
3366.485	11575
3368.223	11713
3369.962	11374
3371.701	11502
3373.438	11464
3375.174	11458
3376.911	11657
3378.647	11562
3380.384	11644
3382.118	11483
3383.854	11480
3385.588	11408
3387.322	11403
3389.057	11595
3390.79	11439
3392.522	11432
3394.255	11391
3395.987	11466
3397.719	11360
3399.451	11357
3401.181	11551
3402.911	11429
3404.641	11551
3406.371	11406
3408.101	11409
3409.83	11363
3411.558	11373
3413.285	11268
3415.011	11447
3416.739	11456
3418.467	11343
3420.193	11303
3421.919	11311
3423.644	11306
3425.368	11249
3427.094	11273
3428.818	11197
3430.542	11325
3432.264	11456
3433.987	11178
3435.712	11257
3437.434	11116
3439.155	11347
3440.876	11245
3442.596	11097
3444.317	11159
3446.039	11175
3447.757	11087
3449.477	10865
3451.195	11063
3452.914	11132
3454.632	11093
3456.35	11053
3458.067	11127
3459.784	11016
3461.5	10919
3463.216	10957
3464.932	11021
3466.647	10958
3468.362	10960
3470.076	10904
3471.789	10820
3473.505	10991
3475.217	10834
3476.929	10983
3478.641	10920
3480.354	10834
3482.066	10926
3483.777	10833
3485.487	10833
3487.197	11006
3488.908	10660
3490.617	10785
3492.327	10791
3494.035	10805
3495.743	10864
3497.451	10908
3499.158	10714
3500.866	10801
3502.572	10767
3504.278	10660
3505.984	10583
3507.689	10526
3509.396	10810
3511.1	10704
3512.804	10794
3514.508	10585
3516.211	10627
3517.913	10578
3519.616	10631
3521.319	10713
3523.021	10700
3524.722	10546
3526.422	10500
3528.124	10631
3529.824	10615
3531.524	10599
3533.222	10647
3534.921	10684
3536.62	10555
3538.318	10568
3540.016	10655
3541.714	10567
3543.41	10660
3545.107	10455
3546.803	10467
3548.5	10548
3550.194	10639
3551.889	10409
3553.583	10593
3555.279	10336
3556.972	10528
3558.666	10487
3560.358	10625
3562.051	10586
3563.742	10526
3565.435	10493
3567.126	10305
3568.817	10561
3570.507	10241
3572.197	10517
3573.888	10335
3575.577	10514
3577.265	10374
3578.954	10330
3580.642	10367
3582.329	10265
3584.017	10381
3585.704	10442
3587.391	10277
3589.077	10369
3590.762	10303
3592.449	10351
3594.133	10050
3595.817	10258
3597.501	10266
3599.185	10149
3600.869	10191
3602.552	10224
3604.234	10231
3605.916	10257
3607.598	10217
3609.279	10226
3610.961	10120
3612.642	10202
3614.321	10145
3616	10208
3617.68	10064
3619.36	10147
3621.039	10124
3622.716	10075
3624.394	9991
3626.071	9988
3627.748	9936
3629.425	9976
3631.102	9894
3632.778	9914
3634.452	9973
3636.127	9856
3637.803	9960
3639.477	10039
3641.151	9881
3642.823	9914
3644.497	9917
3646.171	10016
3647.842	9935
3649.515	9713
3651.185	9850
3652.857	9850
3654.527	9809
3656.198	9786
3657.868	9757
3659.537	9745
3661.207	9770
3662.875	9727
3664.544	9945
3666.212	9740
3667.879	9848
3669.546	9751
3671.212	9754
3672.88	9697
3674.546	9631
3676.211	9884
3677.875	9812
3679.541	9709
3681.205	9722
3682.87	9758
3684.533	9775
3686.196	9693
3687.859	9861
3689.521	9687
3691.184	9662
3692.845	9644
3694.507	9680
3696.167	9656
3697.827	9716
3699.487	9772
3701.148	9659
3702.808	9606
3704.466	9528
3706.125	9715
3707.783	9672
3709.442	9668
3711.099	9749
3712.757	9633
3714.412	9584
3716.068	9607
3717.725	9576
3719.381	9550
3721.036	9417
3722.689	9493
3724.344	9436
3725.998	9460
3727.652	9454
3729.305	9532
3730.958	9606
3732.61	9526
3734.262	9480
3735.915	9577
3737.565	9426
3739.217	9498
3740.866	9357
3742.516	9515
3744.165	9580
3745.816	9441
3747.464	9334
3749.113	9383
3750.761	9408
3752.409	9273
3754.057	9288
3755.703	9277
3757.35	9589
3758.996	9371
3760.641	9329
3762.289	9452
3763.933	9337
3765.577	9374
3767.222	9470
3768.865	9249
3770.508	9299
3772.152	9398
3773.796	9282
3775.438	9296
3777.079	9282
3778.721	9165
3780.363	9340
3782.003	9124
3783.643	9220
3785.283	9166
3786.923	9384
3788.563	9189
3790.203	9165
3791.841	9309
3793.479	9116
3795.115	9205
3796.753	9116
3798.391	9076
3800.027	9088
3801.664	8986
3803.299	9093
3804.935	9193
3806.571	9093
3808.206	9086
3809.839	8971
3811.473	8966
3813.107	9003
3814.74	9050
3816.375	9048
3818.006	9207
3819.638	9044
3821.27	9041
3822.9	9101
3824.532	8973
3826.163	9010
3827.792	8970
3829.423	9027
3831.051	8962
3832.682	8895
3834.311	9065
3835.938	8938
3837.566	8806
3839.193	8868
3840.821	8898
3842.448	8954
3844.075	8878
3845.7	8922
3847.325	8792
3848.951	8851
3850.576	8982
3852.201	8854
3853.825	8872
3855.448	8881
3857.072	8814
3858.694	8977
3860.318	8818
3861.939	8830
3863.562	8711
3865.183	8803
3866.804	8619
3868.426	8751
3870.045	8791
3871.666	8818
3873.285	8891
3874.904	8738
3876.524	8635
3878.142	8718
3879.76	8751
3881.378	8678
3882.995	8703
3884.612	8728
3886.229	8694
3887.845	8705
3889.461	8833
3891.076	8677
3892.691	8767
3894.307	8708
3895.922	8642
3897.536	8673
3899.149	8681
3900.761	8651
3902.374	8651
3903.988	8718
3905.6	8685
3907.212	8526
3908.822	8613
3910.433	8666
3912.045	8658
3913.655	8766
3915.265	8427
3916.875	8474
3918.483	8682
3920.093	8622
3921.702	8573
3923.309	8545
3924.917	8572
3926.523	8604
3928.13	8475
3929.739	8629
3931.344	8496
3932.95	8480
3934.555	8557
3936.159	8574
3937.766	8463
3939.369	8429
3940.974	8492
3942.577	8428
3944.181	8546
3945.783	8280
3947.386	8503
3948.989	8562
3950.59	8464
3952.191	8431
3953.791	8361
3955.394	8383
3956.994	8390
3958.593	8478
3960.192	8518
3961.791	8511
3963.392	8471
3964.99	8303
3966.588	8414
3968.185	8322
3969.782	8308
3971.379	8454
3972.976	8327
3974.572	8333
3976.168	8345
3977.763	8312
3979.358	8167
3980.954	8341
3982.548	8275
3984.142	8192
3985.736	8212
3987.329	8273
3988.922	8245
3990.516	8253
3992.108	8211
3993.698	8211
3995.29	8206
3996.881	8151
3998.473	8113
4000.064	8149
4001.653	8095
4003.242	8117
4004.832	8179
4006.422	8155
4008.01	8026
4009.598	7967
4011.186	8125
4012.773	8063
4014.36	8059
4015.947	7965
4017.534	7955
4019.119	7947
4020.705	8084
4022.291	8116
4023.876	7941
4025.461	7929
4027.044	8014
4028.627	7956
4030.211	7881
4031.795	7883
4033.378	7984
4034.96	7988
4036.542	7975
4038.124	7938
4039.704	7854
4041.286	7756
4042.867	7864
4044.447	7820
4046.026	7847
4047.606	7841
4049.187	7780
4050.765	7790
4052.343	7738
4053.92	7716
4055.498	7802
4057.076	7786
4058.654	7689
4060.23	7624
4061.806	7828
4063.381	7677
4064.957	7751
4066.533	7785
4068.107	7648
4069.682	7680
4071.256	7732
4072.829	7744
4074.404	7764
4075.977	7760
4077.549	7677
4079.121	7710
4080.693	7771
4082.265	7623
4083.836	7644
4085.407	7820
4086.977	7597
4088.547	7589
4090.117	7700
4091.687	7568
4093.256	7707
4094.825	7655
4096.392	7527
4097.96	7622
4099.528	7620
4101.097	7567
4102.663	7549
4104.229	7597
4105.795	7542
4107.361	7566
4108.928	7585
4110.493	7496
4112.058	7483
4113.621	7526
4115.186	7376
4116.75	7517
4118.313	7476
4119.876	7409
4121.438	7345
4123	7471
4124.562	7416
4126.125	7495
4127.686	7409
4129.246	7348
4130.807	7376
4132.367	7337
4133.927	7466
4135.486	7446
4137.046	7428
4138.604	7239
4140.162	7330
4141.72	7405
4143.279	7324
4144.836	7309
4146.393	7259
4147.949	7249
4149.505	7367
4151.062	7277
4152.617	7217
4154.172	7353
4155.727	7242
4157.281	7299
4158.836	7218
4160.39	7261
4161.943	7165
4163.496	7243
4165.048	7300
4166.601	7119
4168.154	7119
4169.706	7162
4171.257	7373
4172.808	7233
4174.358	7101
4175.909	7130
4177.458	7157
4179.008	7110
4180.558	7139
4182.106	7175
4183.655	7187
4185.204	7081
4186.751	7234
4188.298	7052
4189.845	7073
4191.392	7041
4192.939	6980
4194.485	7095
4196.031	7045
4197.576	7175
4199.121	7084
4200.666	6927
4202.211	7100
4203.754	7047
4205.298	6943
4206.84	6935
4208.384	7010
4209.927	7100
4211.47	6944
4213.011	6894
4214.552	6983
4216.094	6905
4217.635	7067
4219.175	6942
4220.716	7031
4222.255	6898
4223.793	6882
4225.335	6814
4226.873	6972
4228.411	6924
4229.948	6865
4231.486	6887
4233.024	6817
4234.562	6958
4236.098	6904
4237.634	6882
4239.169	6919
4240.705	6783
4242.241	6921
4243.776	6787
4245.31	6792
4246.844	6940
4248.378	6812
4249.911	6799
4251.445	6767
4252.978	6850
4254.51	6786
4256.042	6807
4257.574	6792
4259.107	6837
4260.638	6764
4262.169	6798
4263.699	6752
4265.228	6817
4266.759	6885
4268.289	6807
4269.818	6940
4271.345	6835
4272.874	6735
4274.402	6691
4275.931	6688
4277.458	6694
4278.985	6716
4280.512	6749
4282.037	6726
4283.564	6811
4285.089	6750
4286.615	6556
4288.139	6609
4289.664	6605
4291.187	6590
4292.712	6782
4294.235	6575
4295.759	6710
4297.281	6603
4298.804	6641
4300.327	6660
4301.849	6648
4303.37	6522
4304.891	6607
4306.412	6577
4307.933	6663
4309.453	6694
4310.973	6525
4312.492	6512
