398.1873	2674
400.7097	2722
403.2336	2758
405.7547	2764
408.2751	2719
410.7948	2669
413.3138	2773
415.83	2790
418.3497	2783
420.8666	2814
423.3829	2827
425.8985	2833
428.4133	2933
430.9275	2862
433.441	2846
435.9538	2960
438.4639	2878
440.9753	2922
443.4881	2906
445.9982	2936
448.5055	2873
451.0142	2857
453.5201	2892
456.0274	2927
458.5361	2898
461.04	2897
463.5453	2890
466.0478	2874
468.5517	2934
471.0549	2918
473.5574	2886
476.0572	2849
478.5584	2959
481.0568	2952
483.5545	2985
486.0557	2891
488.5521	2913
491.0478	2982
493.5449	2930
496.0392	2985
498.5349	3012
501.0299	2938
503.5222	2914
506.0139	2938
508.5048	2991
510.9991	2960
513.4887	2966
515.9777	2963
518.4659	2966
520.9534	2979
523.4403	2983
525.9306	2960
528.4161	2957
530.9009	3005
533.3851	2987
535.8687	3078
538.3535	3015
540.8356	2999
543.3171	2984
545.7979	2987
548.278	2983
550.7595	2992
553.2383	2997
555.7144	2989
558.1918	2992
560.6685	3057
563.1446	2986
565.6221	3084
568.0968	3021
570.5688	3109
573.0422	3063
575.515	3048
577.989	3079
580.4584	3126
582.9291	3111
585.3991	3109
587.8685	3053
590.3352	3156
592.8052	3189
595.2706	3061
597.7372	3120
600.2033	3176
602.6666	3073
605.1334	3081
607.5953	3134
610.0587	3110
612.5193	3149
614.9814	3078
617.4427	2960
619.9034	3112
622.3615	3053
624.8208	3073
627.2775	3166
629.7335	3089
632.1929	3067
634.6476	3121
637.1016	3141
639.5569	3054
642.0096	3086
644.4637	3121
646.9151	3147
649.3678	3094
651.8179	3090
654.2672	3146
656.7159	3107
659.166	3116
661.6154	3125
664.0622	3051
666.5082	3170
668.9537	3148
671.4005	3167
673.8445	3150
676.288	3176
678.7308	3226
681.1729	3157
683.6163	3188
686.0572	3190
688.4973	3211
690.9368	3153
693.3757	3182
695.8138	3254
698.2534	3153
700.6902	3185
703.1245	3173
705.56	3190
707.9949	3269
710.4311	3301
712.8647	3174
715.2957	3211
717.7279	3233
720.1595	3250
722.5905	3230
725.0208	3227
727.4505	3281
729.8795	3256
732.3058	3251
734.7336	3183
737.1626	3292
739.587	3344
742.0128	3342
744.4359	3325
746.8604	3281
749.2841	3317
751.7073	3418
754.1278	3399
756.5496	3303
758.9688	3425
761.3893	3457
763.8093	3245
766.2285	3411
768.6451	3426
771.0611	3401
773.4784	3299
775.895	3404
778.3091	3318
780.7244	3397
783.1371	3425
785.5493	3387
787.9626	3347
790.3754	3429
792.7856	3410
795.1951	3383
797.6039	3423
800.0121	3387
802.4236	3427
804.8306	3478
807.2369	3372
809.6425	3507
812.0475	3472
814.4538	3490
816.8575	3432
819.2606	3429
821.663	3446
824.0648	3444
826.4659	3412
828.8683	3410
831.2682	3519
833.6674	3424
836.066	3471
838.4639	3482
840.8632	3430
843.2579	3530
845.6539	3459
848.0493	3494
850.444	3429
852.84	3536
855.2315	3464
857.6243	3494
860.0165	3484
862.4081	3539
864.797	3510
867.1892	3490
869.5789	3583
871.9659	3456
874.3542	3543
876.74	3504
879.129	3408
881.5155	3562
883.8994	3525
886.2845	3484
888.6671	3466
891.051	3536
893.4343	3532
895.8169	3453
898.197	3443
900.5783	3510
902.9571	3520
905.3372	3483
907.7167	3549
910.0936	3458
912.4698	3545
914.8474	3514
917.2244	3584
919.5987	3525
921.9744	3611
924.3475	3676
926.72	3690
929.0918	3627
931.4669	3640
933.8375	3639
936.2074	3714
938.5767	3785
940.9454	3858
943.3154	3771
945.6829	3767
948.0497	3919
950.4178	3987
952.7833	4052
955.1483	4139
957.5145	4286
959.8782	4327
962.2412	4267
964.6036	4222
966.9655	4171
969.3266	3990
971.6871	3899
974.0471	3725
976.4064	3642
978.765	3727
981.125	3650
983.4824	3583
985.8373	3586
988.1935	3668
990.549	3734
992.9039	3590
995.2602	3611
997.6119	3658
999.965	3638
1002.317	3623
1004.667	3624
1007.02	3670
1009.371	3707
1011.719	3621
1014.068	3670
1016.415	3598
1018.765	3747
1021.111	3633
1023.458	3717
1025.804	3671
1028.147	3660
1030.49	3664
1032.837	3739
1035.179	3738
1037.522	3691
1039.862	3709
1042.204	3676
1044.546	3697
1046.884	3659
1049.224	3659
1051.562	3626
1053.899	3708
1056.237	3772
1058.575	3808
1060.91	3769
1063.244	3745
1065.58	3733
1067.913	3762
1070.248	3832
1072.579	3743
1074.911	3827
1077.242	3798
1079.572	3718
1081.905	3755
1084.234	3701
1086.562	3765
1088.89	3776
1091.217	3814
1093.544	3743
1095.871	3736
1098.197	3778
1100.521	3764
1102.845	3734
1105.169	3773
1107.491	3718
1109.814	3680
1112.135	3743
1114.456	3736
1116.776	3748
1119.096	3798
1121.415	3781
1123.734	3741
1126.052	3733
1128.369	3763
1130.686	3746
1133.002	3738
1135.318	3764
1137.632	3653
1139.945	3740
1142.258	3758
1144.573	3753
1146.884	3792
1149.196	3786
1151.505	3722
1153.816	3839
1156.124	3715
1158.435	3799
1160.742	3825
1163.051	3759
1165.356	3827
1167.663	3794
1169.97	3831
1172.276	3733
1174.579	3808
1176.881	3855
1179.186	3833
1181.487	3776
1183.79	3814
1186.092	3823
1188.392	3794
1190.691	3827
1192.991	3780
1195.291	3764
1197.588	3841
1199.885	3754
1202.181	3822
1204.479	3770
1206.775	3818
1209.07	3865
1211.363	3818
1213.656	3835
1215.949	3860
1218.241	3828
1220.534	3764
1222.825	3814
1225.115	3830
1227.405	3874
1229.693	3821
1231.984	3849
1234.271	3834
1236.558	3887
1238.845	3861
1241.131	3889
1243.416	3925
1245.703	3892
1247.987	3944
1250.269	3869
1252.552	3990
1254.834	3907
1257.118	3932
1259.399	3935
1261.678	3949
1263.958	4002
1266.237	3907
1268.516	3959
1270.794	3930
1273.072	3923
1275.347	3962
1277.624	3946
1279.899	3944
1282.175	3965
1284.449	3934
1286.722	3961
1288.995	3929
1291.266	3889
1293.54	3913
1295.81	3844
1298.081	3852
1300.35	3914
1302.62	3887
1304.889	3921
1307.156	3877
1309.425	3929
1311.69	3944
1313.957	3951
1316.222	3932
1318.488	3874
1320.751	3934
1323.016	3907
1325.278	3857
1327.54	3996
1329.803	4043
1332.065	3977
1334.325	3901
1336.584	3929
1338.843	3950
1341.101	3940
1343.36	3978
1345.617	3921
1347.876	4004
1350.131	3913
1352.387	4020
1354.643	3935
1356.897	3986
1359.151	4014
1361.403	3994
1363.656	3939
1365.909	3944
1368.16	3914
1370.409	3978
1372.659	4014
1374.909	4010
1377.157	3998
1379.407	3977
1381.655	4071
1383.9	4066
1386.147	4011
1388.393	3978
1390.64	4051
1392.885	3990
1395.127	4107
1397.37	3929
1399.614	3987
1401.854	4012
1404.098	4065
1406.339	4062
1408.578	4019
1410.818	4119
1413.056	4031
1415.297	4027
1417.533	4058
1419.771	4036
1422.006	4028
1424.243	4028
1426.479	4013
1428.715	4087
1430.948	4073
1433.182	4053
1435.414	4055
1437.647	4091
1439.88	4074
1442.11	4138
1444.342	4123
1446.571	4139
1448.799	4113
1451.029	4249
1453.258	4202
1455.485	4146
1457.711	4211
1459.937	4042
1462.164	4191
1464.39	4125
1466.614	4131
1468.838	4108
1471.06	4072
1473.283	4069
1475.506	4082
1477.727	4069
1479.949	4034
1482.169	4015
1484.389	4129
1486.609	4000
1488.828	4009
1491.045	4029
1493.261	3939
1495.477	3974
1497.693	4090
1499.91	4062
1502.125	3987
1504.339	4052
1506.553	3997
1508.766	4022
1510.979	4054
1513.191	3987
1515.402	4030
1517.613	4074
1519.823	4000
1522.033	3957
1524.242	3970
1526.451	4007
1528.657	4022
1530.865	4078
1533.072	4076
1535.278	4016
1537.484	4037
1539.687	4061
1541.892	4050
1544.096	4130
1546.299	3996
1548.502	4092
1550.703	4080
1552.905	4102
1555.104	4053
1557.303	4114
1559.505	4112
1561.703	4119
1563.902	4130
1566.099	4143
1568.295	4093
1570.494	4103
1572.689	4101
1574.883	4104
1577.079	4123
1579.272	4169
1581.467	4083
1583.659	4183
1585.853	4038
1588.044	4152
1590.234	4154
1592.424	4257
1594.615	4262
1596.806	4116
1598.994	4261
1601.182	4200
1603.369	4196
1605.557	4140
1607.744	4251
1609.929	4322
1612.114	4253
1614.298	4175
1616.482	4183
1618.667	4294
1620.85	4187
1623.032	4188
1625.214	4238
1627.395	4223
1629.575	4213
1631.755	4144
1633.935	4262
1636.114	4371
1638.292	4229
1640.471	4281
1642.647	4223
1644.823	4212
1647	4200
1649.175	4133
1651.348	4197
1653.525	4318
1655.698	4344
1657.87	4363
1660.043	4280
1662.213	4328
1664.387	4303
1666.558	4249
1668.727	4300
1670.896	4281
1673.064	4289
1675.233	4303
1677.401	4338
1679.569	4238
1681.735	4251
1683.902	4197
1686.066	4319
1688.233	4391
1690.397	4138
1692.559	4256
1694.723	4225
1696.885	4240
1699.048	4263
1701.21	4226
1703.37	4276
1705.53	4198
1707.689	4272
1709.849	4264
1712.009	4224
1714.166	4271
1716.323	4204
1718.479	4203
1720.634	4277
1722.793	4238
1724.948	4266
1727.102	4203
1729.255	4194
1731.408	4233
1733.562	4194
1735.714	4268
1737.865	4375
1740.016	4217
1742.166	4240
1744.316	4348
1746.467	4229
1748.616	4307
1750.764	4276
1752.911	4289
1755.056	4205
1757.205	4300
1759.35	4259
1761.496	4277
1763.641	4227
1765.785	4365
1767.927	4318
1770.072	4296
1772.214	4329
1774.355	4233
1776.496	4433
1778.637	4374
1780.778	4336
1782.918	4309
1785.057	4359
1787.194	4387
1789.333	4303
1791.472	4359
1793.608	4361
1795.745	4329
1797.879	4272
1800.015	4382
1802.148	4377
1804.284	4354
1806.417	4372
1808.548	4281
1810.682	4366
1812.812	4406
1814.946	4306
1817.075	4252
1819.205	4385
1821.335	4333
1823.463	4450
1825.59	4367
1827.721	4372
1829.847	4379
1831.973	4334
1834.098	4295
1836.223	4375
1838.351	4344
1840.475	4364
1842.598	4344
1844.721	4472
1846.843	4404
1848.966	4376
1851.087	4288
1853.21	4392
1855.33	4275
1857.449	4372
1859.568	4375
1861.688	4477
1863.806	4376
1865.924	4409
1868.039	4276
1870.155	4377
1872.273	4413
1874.388	4391
1876.503	4374
1878.617	4378
1880.73	4325
1882.844	4295
1884.956	4365
1887.068	4377
1889.18	4426
1891.291	4506
1893.4	4430
1895.511	4491
1897.621	4471
1899.73	4434
1901.837	4343
1903.944	4443
1906.053	4514
1908.159	4394
1910.265	4467
1912.369	4402
1914.474	4502
1916.577	4480
1918.683	4450
1920.785	4499
1922.888	4438
1924.989	4465
1927.091	4534
1929.193	4506
1931.294	4498
1933.393	4477
1935.493	4405
1937.59	4571
1939.689	4509
1941.788	4488
1943.884	4455
1945.98	4581
1948.077	4434
1950.171	4523
1952.267	4413
1954.361	4519
1956.455	4488
1958.548	4525
1960.64	4572
1962.733	4474
1964.824	4479
1966.915	4508
1969.005	4556
1971.096	4405
1973.185	4537
1975.275	4504
1977.363	4497
1979.45	4539
1981.537	4506
1983.623	4599
1985.711	4472
1987.796	4541
1989.881	4562
1991.965	4599
1994.047	4460
1996.132	4602
1998.215	4519
2000.297	4455
2002.378	4510
2004.46	4475
2006.54	4594
2008.62	4435
2010.7	4514
2012.779	4514
2014.858	4558
2016.934	4470
2019.013	4488
2021.09	4465
2023.165	4497
2025.241	4635
2027.317	4514
2029.39	4569
2031.466	4484
2033.538	4496
2035.612	4542
2037.683	4459
2039.755	4620
2041.827	4608
2043.898	4587
2045.968	4481
2048.038	4602
2050.106	4576
2052.177	4533
2054.244	4612
2056.313	4611
2058.379	4544
2060.444	4550
2062.511	4569
2064.577	4681
2066.641	4614
2068.705	4621
2070.77	4640
2072.832	4598
2074.896	4650
2076.958	4596
2079.02	4607
2081.081	4563
2083.141	4648
2085.2	4683
2087.261	4627
2089.319	4661
2091.377	4699
2093.435	4682
2095.492	4688
2097.552	4712
2099.607	4661
2101.663	4695
2103.718	4690
2105.771	4586
2107.826	4654
2109.879	4644
2111.932	4688
2113.985	4706
2116.037	4630
2118.088	4707
2120.141	4707
2122.191	4621
2124.239	4607
2126.288	4694
2128.337	4724
2130.387	4711
2132.434	4657
2134.481	4729
2136.528	4725
2138.574	4678
2140.618	4696
2142.665	4722
2144.71	4659
2146.753	4727
2148.797	4605
2150.838	4598
2152.883	4705
2154.923	4755
2156.965	4633
2159.007	4746
2161.046	4695
2163.086	4691
2165.126	4678
2167.163	4628
2169.202	4717
2171.239	4718
2173.277	4691
2175.314	4736
2177.349	4752
2179.385	4749
2181.42	4771
2183.453	4735
2185.49	4650
2187.522	4712
2189.555	4638
2191.586	4656
2193.619	4646
2195.651	4672
2197.682	4676
2199.711	4727
2201.74	4725
2203.769	4613
2205.799	4723
2207.828	4688
2209.855	4620
2211.882	4733
2213.908	4692
2215.934	4787
2217.961	4746
2219.986	4658
2222.01	4783
2224.034	4755
2226.057	4713
2228.08	4645
2230.104	4698
2232.124	4832
2234.145	4630
2236.166	4676
2238.186	4744
2240.207	4737
2242.227	4624
2244.244	4814
2246.262	4727
2248.28	4722
2250.299	4730
2252.314	4701
2254.33	4758
2256.346	4772
2258.36	4733
2260.375	4802
2262.391	4823
2264.403	4819
2266.416	4690
2268.427	4851
2270.44	4724
2272.453	4791
2274.463	4872
2276.474	4849
2278.483	4819
2280.493	4780
2282.501	4872
2284.51	4719
2286.518	4884
2288.524	4783
2290.532	4846
2292.537	4931
2294.544	4801
2296.55	4877
2298.554	4729
2300.557	4816
2302.562	4889
2304.566	4850
2306.568	4859
2308.569	4804
2310.572	4894
2312.573	4844
2314.573	4855
2316.574	4872
2318.573	4808
2320.571	4841
2322.571	4804
2324.569	4797
2326.567	4820
2328.564	5015
2330.56	4843
2332.556	4935
2334.551	4866
2336.546	4828
2338.542	4809
2340.535	4883
2342.529	4920
2344.521	4845
2346.512	4946
2348.505	4886
2350.497	4823
2352.487	4873
2354.478	4884
2356.468	4869
2358.457	4885
2360.446	4881
2362.434	4827
2364.422	4982
2366.408	4889
2368.395	4866
2370.383	4949
2372.369	4854
2374.353	5058
2376.338	4953
2378.321	4881
2380.307	4972
2382.29	4975
2384.272	4962
2386.254	4897
2388.235	4946
2390.218	4933
2392.198	4886
2394.179	4954
2396.157	4875
2398.137	4890
2400.115	4932
2402.095	4924
2404.072	5017
2406.048	4916
2408.026	4950
2410.001	4924
2411.977	5027
2413.953	5019
2415.927	4934
2417.9	4967
2419.875	5008
2421.847	4999
2423.821	5078
2425.792	4960
2427.763	5051
2429.736	5031
2431.706	5074
2433.677	4931
2435.646	5056
2437.615	5060
2439.583	4989
2441.551	5057
2443.519	5040
2445.486	5075
2447.452	4998
2449.418	4991
2451.383	5086
2453.348	5066
2455.314	5138
2457.278	4999
2459.241	5025
2461.205	5072
2463.167	5020
2465.131	5082
2467.091	5091
2469.052	5139
2471.012	5020
2472.972	5174
2474.932	5191
2476.891	5159
2478.85	5132
2480.808	5115
2482.766	5235
2484.722	5080
2486.68	5138
2488.636	5074
2490.591	5078
2492.546	5210
2494.5	5108
2496.456	5167
2498.41	5240
2500.362	4997
2502.315	5164
2504.266	5185
2506.218	5220
2508.169	5169
2510.121	5319
2512.07	5145
2514.019	5220
2515.968	5192
2517.918	5191
2519.866	5177
2521.813	5136
2523.76	5192
2525.707	5220
2527.653	5156
2529.599	5242
2531.543	5328
2533.489	5283
2535.433	5147
2537.376	5278
2539.32	5292
2541.264	5318
2543.205	5175
2545.147	5289
2547.087	5268
2549.029	5294
2550.969	5383
2552.908	5352
2554.847	5353
2556.786	5279
2558.724	5274
2560.663	5277
2562.6	5358
2564.537	5413
2566.473	5345
2568.408	5400
2570.345	5336
2572.28	5349
2574.214	5413
2576.148	5406
2578.081	5370
2580.014	5402
2581.947	5410
2583.879	5340
2585.81	5409
2587.741	5578
2589.67	5339
2591.602	5449
2593.532	5446
2595.461	5492
2597.388	5522
2599.316	5563
2601.244	5437
2603.172	5492
2605.098	5523
2607.023	5599
2608.949	5579
2610.873	5533
2612.8	5497
2614.723	5551
2616.647	5454
2618.569	5646
2620.493	5540
2622.416	5715
2624.338	5539
2626.258	5674
2628.179	5640
2630.099	5634
2632.019	5661
2633.939	5637
2635.857	5700
2637.775	5652
2639.694	5709
2641.61	5659
2643.528	5763
2645.444	5679
2647.361	5622
2649.276	5837
2651.19	5655
2653.105	5769
2655.019	5696
2656.934	5765
2658.846	5691
2660.758	5746
2662.67	5793
2664.583	5811
2666.493	5723
2668.404	5772
2670.313	5756
2672.223	5782
2674.134	5782
2676.042	5795
2677.95	5906
2679.858	5775
2681.765	5816
2683.673	5787
2685.579	5876
2687.483	5841
2689.389	5893
2691.294	5834
2693.198	5905
2695.104	5833
2697.006	5900
2698.909	5833
2700.811	5951
2702.713	5916
2704.615	5961
2706.516	5853
2708.417	5824
2710.316	5932
2712.216	5963
2714.115	5922
2716.014	5971
2717.913	5948
2719.81	5996
2721.707	6017
2723.603	5927
2725.501	6000
2727.396	5963
2729.292	5951
2731.186	6023
2733.081	6060
2734.976	5920
2736.87	6058
2738.762	6031
2740.653	6072
2742.546	6041
2744.437	6000
2746.329	6036
2748.22	6106
2750.11	6096
2751.999	6099
2753.889	6226
2755.778	6204
2757.666	6029
2759.553	6061
2761.44	6203
2763.328	6074
2765.215	6129
2767.101	6258
2768.986	6260
2770.87	6228
2772.754	6126
2774.638	6266
2776.523	6341
2778.405	6295
2780.288	6260
2782.17	6263
2784.051	6265
2785.934	6311
2787.814	6426
2789.694	6211
2791.574	6483
2793.453	6178
2795.332	6248
2797.212	6242
2799.088	6344
2800.966	6331
2802.843	6327
2804.719	6371
2806.597	6327
2808.471	6455
2810.346	6353
2812.221	6411
2814.094	6569
2815.969	6459
2817.843	6515
2819.714	6443
2821.587	6548
2823.459	6492
2825.329	6396
2827.202	6557
2829.072	6519
2830.942	6539
2832.811	6410
2834.68	6502
2836.549	6611
2838.418	6526
2840.284	6431
2842.152	6623
2844.018	6608
2845.885	6537
2847.751	6645
2849.616	6580
2851.482	6791
2853.345	6696
2855.208	6686
2857.074	6727
2858.937	6808
2860.799	6872
2862.66	6861
2864.522	6757
2866.385	6836
2868.245	6946
2870.104	6900
2871.964	6896
2873.824	6961
2875.683	7031
2877.542	7062
2879.4	7065
2881.257	7086
2883.114	7087
2884.97	7158
2886.827	7140
2888.683	7244
2890.537	7075
2892.392	7136
2894.246	7212
2896.1	7196
2897.954	7134
2899.807	7220
2901.66	7269
2903.51	7203
2905.362	7192
2907.214	7125
2909.065	7266
2910.915	7395
2912.765	7352
2914.613	7261
2916.463	7329
2918.311	7421
2920.158	7441
2922.006	7347
2923.853	7544
2925.698	7394
2927.546	7560
2929.392	7623
2931.236	7609
2933.081	7657
2934.924	7688
2936.77	7617
2938.613	7710
2940.455	7835
2942.298	7866
2944.139	7950
2945.982	7974
2947.823	7745
2949.662	7722
2951.503	7990
2953.342	7839
2955.182	7858
2957.021	7895
2958.858	7841
2960.697	7782
2962.534	7849
2964.37	7845
2966.207	7860
2968.044	7815
2969.879	7835
2971.714	7687
2973.548	7798
2975.383	7910
2977.218	7757
2979.051	7764
2980.883	7884
2982.715	7824
2984.547	7825
2986.379	7834
2988.21	7810
2990.04	7775
2991.87	7735
2993.7	7850
2995.53	7771
2997.359	7841
2999.187	7871
3001.015	7867
3002.842	7899
3004.669	7785
3006.497	7764
3008.323	7783
3010.148	7819
3011.974	7835
3013.797	7800
3015.623	7784
3017.447	7741
3019.27	7786
3021.094	7859
3022.915	7765
3024.737	7806
3026.56	7842
3028.38	7916
3030.201	7764
3032.022	7800
3033.84	7800
3035.662	7868
3037.481	7917
3039.298	7763
3041.117	7870
3042.933	7825
3044.752	8013
3046.568	8026
3048.385	7961
3050.2	7963
3052.016	7968
3053.83	8126
3055.646	8038
3057.46	8057
3059.272	8002
3061.086	8011
3062.898	8061
3064.711	8121
3066.524	8122
3068.335	8209
3070.145	7998
3071.956	8117
3073.766	8166
3075.576	8093
3077.385	8123
3079.193	8083
3081.002	8263
3082.81	8142
3084.618	8193
3086.425	8092
3088.231	8228
3090.036	8152
3091.842	8435
3093.648	8152
3095.452	8310
3097.257	8390
3099.06	8367
3100.863	8232
3102.666	8308
3104.47	8382
3106.272	8270
3108.073	8480
3109.875	8275
3111.676	8422
3113.477	8416
3115.277	8509
3117.077	8300
3118.874	8341
3120.673	8446
3122.473	8485
3124.271	8450
3126.066	8424
3127.863	8450
3129.66	8624
3131.456	8488
3133.252	8453
3135.047	8434
3136.842	8374
3138.635	8497
3140.429	8514
3142.223	8611
3144.016	8715
3145.808	8614
3147.6	8578
3149.392	8786
3151.183	8639
3152.975	8641
3154.765	8761
3156.553	8697
3158.344	8772
3160.132	8699
3161.922	8657
3163.71	8774
3165.497	8834
3167.285	8795
3169.071	8720
3170.858	8784
3172.645	8876
3174.429	8927
3176.214	8848
3177.998	8826
3179.783	8823
3181.568	9013
3183.351	9080
3185.133	9021
3186.915	8780
3188.698	9023
3190.481	8881
3192.261	9187
3194.042	9146
3195.822	9131
3197.601	9052
3199.381	9147
3201.161	9136
3202.939	9225
3204.717	9153
3206.495	9232
3208.272	9167
3210.05	9149
3211.826	9259
3213.602	9241
3215.376	9192
3217.151	9390
3218.927	9252
3220.702	9300
3222.476	9246
3224.249	9486
3226.021	9435
3227.793	9415
3229.567	9476
3231.339	9509
3233.109	9392
3234.88	9534
3236.651	9553
3238.421	9536
3240.191	9464
3241.96	9591
3243.728	9676
3245.497	9609
3247.263	9669
3249.033	9757
3250.799	9600
3252.566	9741
3254.331	9804
3256.097	9645
3257.863	9812
3259.628	9697
3261.392	9803
3263.156	9930
3264.919	9842
3266.683	9868
3268.447	9763
3270.208	10001
3271.969	9884
3273.731	9951
3275.492	9931
3277.253	9995
3279.013	10039
3280.773	10096
3282.532	10223
3284.291	10178
3286.05	10223
3287.808	10141
3289.566	10232
3291.323	10365
3293.079	10299
3294.835	10236
3296.593	10283
3298.348	10404
3300.102	10413
3301.857	10306
3303.611	10403
3305.366	10336
3307.119	10428
3308.872	10392
3310.624	10470
3312.376	10606
3314.129	10536
3315.881	10579
3317.631	10544
3319.38	10510
3321.13	10560
3322.88	10720
3324.631	10783
3326.379	10485
3328.126	10689
3329.875	10597
3331.622	10747
3333.371	10802
3335.116	10818
3336.863	10698
3338.609	10954
3340.353	10736
3342.1	11031
3343.845	10921
3345.588	10955
3347.332	10910
3349.074	10892
3350.817	10968
3352.56	10977
3354.303	11056
3356.043	11010
3357.785	11072
3359.525	11135
3361.268	11097
3363.007	11319
3364.745	11074
3366.485	11302
3368.223	11221
3369.962	11289
3371.701	11404
3373.438	11252
3375.174	11482
3376.911	11397
3378.647	11411
3380.384	11337
3382.118	11429
3383.854	11463
3385.588	11439
3387.322	11611
3389.057	11553
3390.79	11594
3392.522	11563
3394.255	11584
3395.987	11564
3397.719	11510
3399.451	11738
3401.181	11690
3402.911	11605
3404.641	11667
3406.371	11698
3408.101	11800
3409.83	11706
3411.558	11669
3413.285	11723
3415.011	11917
3416.739	12096
3418.467	12056
3420.193	11925
3421.919	11851
3423.644	11947
3425.368	12171
3427.094	11893
3428.818	11867
3430.542	12187
3432.264	12086
3433.987	12102
3435.712	12100
3437.434	12300
3439.155	12113
3440.876	12169
3442.596	12165
3444.317	12286
3446.039	12227
3447.757	12334
3449.477	12332
3451.195	12268
3452.914	12350
3454.632	12315
3456.35	12332
3458.067	12497
3459.784	12589
3461.5	12493
3463.216	12590
3464.932	12471
3466.647	12515
3468.362	12568
3470.076	12499
3471.789	12659
3473.505	12589
3475.217	12794
3476.929	12653
3478.641	12638
3480.354	12903
3482.066	12727
3483.777	12874
3485.487	12600
3487.197	13028
3488.908	12863
3490.617	12861
3492.327	12905
3494.035	13082
3495.743	13065
3497.451	13111
3499.158	13057
3500.866	13021
3502.572	12914
3504.278	13045
3505.984	13218
3507.689	13072
3509.396	13209
3511.1	13137
3512.804	13158
3514.508	13283
3516.211	13354
3517.913	13269
3519.616	13309
3521.319	13441
3523.021	13211
3524.722	13402
3526.422	13367
3528.124	13585
3529.824	13603
3531.524	13573
3533.222	13517
3534.921	13568
3536.62	13570
3538.318	13756
3540.016	13530
3541.714	13629
3543.41	13793
3545.107	13775
3546.803	13862
3548.5	13756
3550.194	13963
3551.889	13897
3553.583	13960
3555.279	13947
3556.972	14134
3558.666	14216
3560.358	14090
3562.051	14035
3563.742	14100
3565.435	14077
3567.126	14350
3568.817	14218
3570.507	14306
3572.197	14358
3573.888	14320
3575.577	14488
3577.265	14352
3578.954	14254
3580.642	14463
3582.329	14358
3584.017	14474
3585.704	14452
3587.391	14629
3589.077	14557
3590.762	14356
3592.449	14571
3594.133	14774
3595.817	14625
3597.501	14769
3599.185	14594
3600.869	14810
3602.552	14735
3604.234	15000
3605.916	14873
3607.598	14741
3609.279	14663
3610.961	14731
3612.642	14905
3614.321	14822
3616	15059
3617.68	14911
3619.36	15132
3621.039	15055
3622.716	15185
3624.394	15017
3626.071	15123
3627.748	15148
3629.425	15282
3631.102	15183
3632.778	15213
3634.452	15079
3636.127	15183
3637.803	15216
3639.477	15451
3641.151	15505
3642.823	15403
3644.497	15458
3646.171	15438
3647.842	15504
3649.515	15574
3651.185	15523
3652.857	15665
3654.527	15700
3656.198	15666
3657.868	15720
3659.537	15713
3661.207	15700
3662.875	15762
3664.544	15851
3666.212	15893
3667.879	15871
3669.546	15861
3671.212	15819
3672.88	15898
3674.546	16084
3676.211	16149
3677.875	16013
3679.541	16218
3681.205	16214
3682.87	16267
3684.533	16265
3686.196	16441
3687.859	16464
3689.521	16408
3691.184	16240
3692.845	16552
3694.507	16521
3696.167	16487
3697.827	16372
3699.487	16774
3701.148	16676
3702.808	16729
3704.466	16718
3706.125	16802
3707.783	16716
3709.442	16848
3711.099	16803
3712.757	16653
3714.412	16962
3716.068	16736
3717.725	16855
3719.381	17209
3721.036	17040
3722.689	16984
3724.344	17236
3725.998	17183
3727.652	17172
3729.305	17271
3730.958	17212
3732.61	17291
3734.262	17339
3735.915	17313
3737.565	17362
3739.217	17392
3740.866	17397
3742.516	17685
3744.165	17800
3745.816	17519
3747.464	17481
3749.113	17688
3750.761	17569
3752.409	17658
3754.057	17678
3755.703	17653
3757.35	17706
3758.996	17973
3760.641	17922
3762.289	17957
3763.933	18048
3765.577	17935
3767.222	17912
3768.865	18105
3770.508	17849
3772.152	18179
3773.796	18038
3775.438	18041
3777.079	18299
3778.721	18239
3780.363	18324
3782.003	18162
3783.643	18300
3785.283	18684
3786.923	18449
3788.563	18506
3790.203	18464
3791.841	18427
3793.479	18616
3795.115	18516
3796.753	18610
3798.391	18733
3800.027	18537
3801.664	18736
3803.299	18725
3804.935	18754
3806.571	18787
3808.206	18579
3809.839	18699
3811.473	19129
3813.107	18769
3814.74	19125
3816.375	18970
3818.006	18904
3819.638	18958
3821.27	19218
3822.9	19108
3824.532	19226
3826.163	19211
3827.792	19274
3829.423	19182
3831.051	19269
3832.682	19508
3834.311	19404
3835.938	19291
3837.566	19381
3839.193	19653
3840.821	19608
3842.448	19729
3844.075	19601
3845.7	19749
3847.325	19310
3848.951	19782
3850.576	19780
3852.201	19738
3853.825	19889
3855.448	19895
3857.072	20001
3858.694	19859
3860.318	19901
3861.939	19980
3863.562	20269
3865.183	20190
3866.804	20029
3868.426	19967
3870.045	20104
3871.666	19907
3873.285	20433
3874.904	20309
3876.524	20317
3878.142	20501
3879.76	20275
3881.378	20307
3882.995	20492
3884.612	20649
3886.229	20621
3887.845	20284
3889.461	20890
3891.076	20708
3892.691	20788
3894.307	20837
3895.922	20669
3897.536	21006
3899.149	21113
3900.761	21106
3902.374	20845
3903.988	21176
3905.6	21040
3907.212	21031
3908.822	21074
3910.433	21426
3912.045	21272
3913.655	21116
3915.265	21242
3916.875	21251
3918.483	21621
3920.093	21601
3921.702	21653
3923.309	21544
3924.917	21853
3926.523	21804
3928.13	21583
3929.739	21779
3931.344	21837
3932.95	21798
3934.555	21578
3936.159	21761
3937.766	22171
3939.369	21871
3940.974	22116
3942.577	21864
3944.181	22330
3945.783	22121
3947.386	21981
3948.989	22410
3950.59	22099
3952.191	22361
3953.791	22359
3955.394	22431
3956.994	22463
3958.593	22467
3960.192	22480
3961.791	22513
3963.392	22624
3964.99	22425
3966.588	22583
3968.185	22930
3969.782	22614
3971.379	22465
3972.976	22744
3974.572	22721
3976.168	22861
3977.763	22893
3979.358	22875
3980.954	23075
3982.548	22921
3984.142	22981
3985.736	22953
3987.329	23016
3988.922	22892
3990.516	22742
3992.108	23266
3993.698	23265
3995.29	22950
3996.881	23252
3998.473	23082
4000.064	23323
4001.653	23507
4003.242	23157
4004.832	23202
4006.422	23295
4008.01	23182
4009.598	23456
4011.186	23284
4012.773	23424
4014.36	23542
4015.947	23330
4017.534	23743
4019.119	23444
4020.705	23603
4022.291	23629
4023.876	23568
4025.461	23670
4027.044	23986
4028.627	23514
4030.211	23910
4031.795	23900
4033.378	23814
4034.96	23965
4036.542	24081
4038.124	24115
4039.704	24064
4041.286	23944
4042.867	24288
4044.447	24071
4046.026	24339
4047.606	24160
4049.187	24245
4050.765	24219
4052.343	24310
4053.92	24482
4055.498	24204
4057.076	24608
4058.654	24514
4060.23	24467
4061.806	24672
4063.381	24434
4064.957	24550
4066.533	24705
4068.107	24799
4069.682	24622
4071.256	24656
4072.829	24488
4074.404	24671
4075.977	24725
4077.549	25245
4079.121	24943
4080.693	24868
4082.265	25090
4083.836	25179
4085.407	25202
4086.977	25422
4088.547	25264
4090.117	25432
4091.687	25289
4093.256	25658
4094.825	25160
4096.392	25476
4097.96	25444
4099.528	25492
4101.097	25471
4102.663	25803
4104.229	25366
4105.795	25876
4107.361	25921
4108.928	25835
4110.493	25795
4112.058	25937
4113.621	25816
4115.186	25781
4116.75	26216
4118.313	26018
4119.876	25859
4121.438	25881
4123	25959
4124.562	26285
4126.125	26016
4127.686	25842
4129.246	26415
4130.807	26332
4132.367	26258
4133.927	26403
4135.486	26584
4137.046	26167
4138.604	26644
4140.162	26218
4141.72	26534
4143.279	26396
4144.836	26425
4146.393	26642
4147.949	26528
4149.505	26662
4151.062	26670
4152.617	26941
4154.172	26443
4155.727	26617
4157.281	26545
4158.836	26706
4160.39	27068
4161.943	26817
4163.496	26765
4165.048	26901
4166.601	27015
4168.154	27151
4169.706	27101
4171.257	27059
4172.808	27046
4174.358	27097
4175.909	27377
4177.458	27295
4179.008	27350
4180.558	27193
4182.106	27244
4183.655	27477
4185.204	27291
4186.751	27353
4188.298	27502
4189.845	27268
4191.392	27564
4192.939	27517
4194.485	27446
4196.031	27676
4197.576	27712
4199.121	27532
4200.666	27745
4202.211	27803
4203.754	28138
4205.298	28012
4206.84	27918
4208.384	27957
4209.927	27841
4211.47	28010
4213.011	28272
4214.552	28158
4216.094	28382
4217.635	28213
4219.175	28318
4220.716	28536
4222.255	28403
4223.793	28405
4225.335	28443
4226.873	28566
4228.411	28799
4229.948	28396
4231.486	28441
4233.024	28850
4234.562	28900
4236.098	29069
4237.634	28786
4239.169	28808
4240.705	28845
4242.241	29181
4243.776	29018
4245.31	29145
4246.844	29217
4248.378	29102
4249.911	29216
4251.445	29261
4252.978	29184
4254.51	29235
4256.042	29487
4257.574	29681
4259.107	29363
4260.638	29477
4262.169	29469
4263.699	29578
4265.228	29661
4266.759	29503
4268.289	29544
4269.818	29903
4271.345	29706
4272.874	29930
4274.402	29745
4275.931	29721
4277.458	30232
4278.985	29977
4280.512	30129
4282.037	30117
4283.564	30299
4285.089	30024
4286.615	30041
4288.139	30784
4289.664	30417
4291.187	30281
4292.712	30404
4294.235	30519
4295.759	30557
4297.281	30378
4298.804	30395
4300.327	30534
4301.849	30622
4303.37	30690
4304.891	30893
4306.412	30666
4307.933	30680
4309.453	30676
4310.973	30465
4312.492	31142
