398.1873	4468
400.7097	4404
403.2336	4445
405.7547	4429
408.2751	4378
410.7948	4524
413.3138	4495
415.83	4529
418.3497	4480
420.8666	4589
423.3829	4582
425.8985	4585
428.4133	4641
430.9275	4726
433.441	4678
435.9538	4712
438.4639	4606
440.9753	4744
443.4881	4696
445.9982	4730
448.5055	4713
451.0142	4738
453.5201	4635
456.0274	4763
458.5361	4711
461.04	4593
463.5453	4737
466.0478	4754
468.5517	4723
471.0549	4792
473.5574	4727
476.0572	4681
478.5584	4691
481.0568	4738
483.5545	4776
486.0557	4761
488.5521	4767
491.0478	4827
493.5449	4843
496.0392	4790
498.5349	4854
501.0299	4861
503.5222	4870
506.0139	4842
508.5048	4900
510.9991	4844
513.4887	4873
515.9777	4902
518.4659	4936
520.9534	4917
523.4403	4863
525.9306	4861
528.4161	4903
530.9009	4845
533.3851	4986
535.8687	4845
538.3535	4929
540.8356	4913
543.3171	4905
545.7979	4895
548.278	4902
550.7595	4942
553.2383	4832
555.7144	4875
558.1918	4930
560.6685	4910
563.1446	4832
565.6221	4913
568.0968	5027
570.5688	4956
573.0422	4959
575.515	4843
577.989	4958
580.4584	5066
582.9291	4991
585.3991	5128
587.8685	5135
590.3352	5257
592.8052	5118
595.2706	5050
597.7372	5149
600.2033	5077
602.6666	5112
605.1334	5080
607.5953	5065
610.0587	5064
612.5193	5042
614.9814	5044
617.4427	5057
619.9034	5045
622.3615	5102
624.8208	5054
627.2775	5018
629.7335	4978
632.1929	5031
634.6476	5092
637.1016	4991
639.5569	5151
642.0096	5111
644.4637	5049
646.9151	5252
649.3678	5066
651.8179	5145
654.2672	5204
656.7159	5075
659.166	5118
661.6154	5223
664.0622	5095
666.5082	5255
668.9537	5168
671.4005	5214
673.8445	5248
676.288	5187
678.7308	5251
681.1729	5227
683.6163	5278
686.0572	5268
688.4973	5162
690.9368	5215
693.3757	5252
695.8138	5315
698.2534	5246
700.6902	5336
703.1245	5273
705.56	5334
707.9949	5340
710.4311	5315
712.8647	5443
715.2957	5315
717.7279	5328
720.1595	5361
722.5905	5383
725.0208	5440
727.4505	5325
729.8795	5350
732.3058	5439
734.7336	5467
737.1626	5435
739.587	5481
742.0128	5433
744.4359	5440
746.8604	5503
749.2841	5549
751.7073	5528
754.1278	5548
756.5496	5526
758.9688	5662
761.3893	5652
763.8093	5657
766.2285	5580
768.6451	5570
771.0611	5506
773.4784	5562
775.895	5675
778.3091	5612
780.7244	5603
783.1371	5538
785.5493	5553
787.9626	5583
790.3754	5640
792.7856	5606
795.1951	5652
797.6039	5675
800.0121	5716
802.4236	5637
804.8306	5725
807.2369	5631
809.6425	5610
812.0475	5722
814.4538	5651
816.8575	5624
819.2606	5785
821.663	5663
824.0648	5787
826.4659	5583
828.8683	5603
831.2682	5677
833.6674	5689
836.066	5672
838.4639	5714
840.8632	5743
843.2579	5801
845.6539	5727
848.0493	5724
850.444	5851
852.84	5753
855.2315	5676
857.6243	5795
860.0165	5741
862.4081	5699
864.797	5753
867.1892	5751
869.5789	5708
871.9659	5760
874.3542	5800
876.74	5713
879.129	5738
881.5155	5662
883.8994	5763
886.2845	5871
888.6671	5714
891.051	5698
893.4343	5770
895.8169	5789
898.197	5723
900.5783	5651
902.9571	5829
905.3372	5814
907.7167	5798
910.0936	5879
912.4698	5780
914.8474	6010
917.2244	5855
919.5987	5950
921.9744	6059
924.3475	6060
926.72	5997
929.0918	6120
931.4669	5912
933.8375	6021
936.2074	6012
938.5767	6024
940.9454	6079
943.3154	6144
945.6829	6217
948.0497	6269
950.4178	6466
952.7833	6500
955.1483	6620
957.5145	6714
959.8782	6773
962.2412	6919
964.6036	6784
966.9655	6571
969.3266	6455
971.6871	6227
974.0471	6063
976.4064	6214
978.765	6087
981.125	6054
983.4824	6065
985.8373	6009
988.1935	5933
990.549	5954
992.9039	5916
995.2602	6002
997.6119	5998
999.965	5968
1002.317	6085
1004.667	5967
1007.02	5999
1009.371	5946
1011.719	5914
1014.068	6051
1016.415	5921
1018.765	6027
1021.111	6063
1023.458	6119
1025.804	6036
1028.147	6000
1030.49	6113
1032.837	6074
1035.179	6046
1037.522	6057
1039.862	5988
1042.204	6130
1044.546	6114
1046.884	6002
1049.224	6041
1051.562	6125
1053.899	6068
1056.237	6059
1058.575	6050
1060.91	6065
1063.244	6267
1065.58	6185
1067.913	6126
1070.248	6168
1072.579	6227
1074.911	6197
1077.242	6157
1079.572	6137
1081.905	6128
1084.234	6097
1086.562	6158
1088.89	6109
1091.217	6063
1093.544	6186
1095.871	6133
1098.197	6178
1100.521	6146
1102.845	6125
1105.169	6047
1107.491	6172
1109.814	6050
1112.135	6172
1114.456	6206
1116.776	6216
1119.096	6136
1121.415	6177
1123.734	6274
1126.052	6230
1128.369	6311
1130.686	6116
1133.002	6190
1135.318	6242
1137.632	6138
1139.945	6186
1142.258	6090
1144.573	6178
1146.884	6221
1149.196	6197
1151.505	6132
1153.816	6159
1156.124	6228
1158.435	6222
1160.742	6118
1163.051	6126
1165.356	6163
1167.663	6204
1169.97	6176
1172.276	6202
1174.579	6258
1176.881	6258
1179.186	6180
1181.487	6120
1183.79	6302
1186.092	6216
1188.392	6173
1190.691	6177
1192.991	6295
1195.291	5923
1197.588	6131
1199.885	6217
1202.181	6245
1204.479	6213
1206.775	6221
1209.07	6228
1211.363	6211
1213.656	6183
1215.949	6237
1218.241	6250
1220.534	6103
1222.825	6278
1225.115	6206
1227.405	6274
1229.693	6365
1231.984	6325
1234.271	6267
1236.558	6336
1238.845	6350
1241.131	6464
1243.416	6313
1245.703	6408
1247.987	6312
1250.269	6315
1252.552	6397
1254.834	6412
1257.118	6299
1259.399	6396
1261.678	6328
1263.958	6418
1266.237	6398
1268.516	6430
1270.794	6389
1273.072	6504
1275.347	6265
1277.624	6416
1279.899	6338
1282.175	6324
1284.449	6318
1286.722	6350
1288.995	6315
1291.266	6335
1293.54	6427
1295.81	6405
1298.081	6385
1300.35	6314
1302.62	6356
1304.889	6336
1307.156	6310
1309.425	6295
1311.69	6403
1313.957	6362
1316.222	6399
1318.488	6252
1320.751	6411
1323.016	6301
1325.278	6332
1327.54	6387
1329.803	6340
1332.065	6424
1334.325	6378
1336.584	6415
1338.843	6382
1341.101	6429
1343.36	6237
1345.617	6351
1347.876	6334
1350.131	6400
1352.387	6306
1354.643	6301
1356.897	6254
1359.151	6408
1361.403	6403
1363.656	6433
1365.909	6367
1368.16	6389
1370.409	6472
1372.659	6487
1374.909	6351
1377.157	6398
1379.407	6449
1381.655	6472
1383.9	6402
1386.147	6425
1388.393	6442
1390.64	6524
1392.885	6484
1395.127	6467
1397.37	6538
1399.614	6519
1401.854	6650
1404.098	6571
1406.339	6594
1408.578	6503
1410.818	6521
1413.056	6547
1415.297	6579
1417.533	6558
1419.771	6547
1422.006	6526
1424.243	6595
1426.479	6631
1428.715	6590
1430.948	6601
1433.182	6627
1435.414	6644
1437.647	6668
1439.88	6693
1442.11	6751
1444.342	6718
1446.571	6612
1448.799	6591
1451.029	6610
1453.258	6730
1455.485	6666
1457.711	6725
1459.937	6553
1462.164	6612
1464.39	6683
1466.614	6478
1468.838	6522
1471.06	6537
1473.283	6514
1475.506	6380
1477.727	6523
1479.949	6552
1482.169	6519
1484.389	6417
1486.609	6519
1488.828	6491
1491.045	6504
1493.261	6458
1495.477	6502
1497.693	6341
1499.91	6481
1502.125	6353
1504.339	6475
1506.553	6432
1508.766	6389
1510.979	6389
1513.191	6410
1515.402	6556
1517.613	6369
1519.823	6439
1522.033	6400
1524.242	6381
1526.451	6424
1528.657	6403
1530.865	6493
1533.072	6469
1535.278	6443
1537.484	6460
1539.687	6412
1541.892	6408
1544.096	6531
1546.299	6413
1548.502	6448
1550.703	6564
1552.905	6485
1555.104	6371
1557.303	6611
1559.505	6581
1561.703	6615
1563.902	6616
1566.099	6647
1568.295	6695
1570.494	6605
1572.689	6557
1574.883	6447
1577.079	6675
1579.272	6593
1581.467	6592
1583.659	6742
1585.853	6610
1588.044	6609
1590.234	6774
1592.424	6663
1594.615	6572
1596.806	6635
1598.994	6674
1601.182	6691
1603.369	6645
1605.557	6715
1607.744	6710
1609.929	6685
1612.114	6589
1614.298	6706
1616.482	6705
1618.667	6667
1620.85	6740
1623.032	6720
1625.214	6598
1627.395	6729
1629.575	6688
1631.755	6704
1633.935	6656
1636.114	6756
1638.292	6621
1640.471	6659
1642.647	6810
1644.823	6721
1647	6746
1649.175	6714
1651.348	6796
1653.525	6779
1655.698	6721
1657.87	6773
1660.043	6685
1662.213	6781
1664.387	6752
1666.558	6704
1668.727	6766
1670.896	6788
1673.064	6854
1675.233	6760
1677.401	6869
1679.569	6688
1681.735	6720
1683.902	6699
1686.066	6734
1688.233	6772
1690.397	6773
1692.559	6752
1694.723	6689
1696.885	6751
1699.048	6775
1701.21	6703
1703.37	6747
1705.53	6681
1707.689	6769
1709.849	6720
1712.009	6743
1714.166	6695
1716.323	6668
1718.479	6672
1720.634	6662
1722.793	6671
1724.948	6659
1727.102	6617
1729.255	6688
1731.408	6795
1733.562	6718
1735.714	6686
1737.865	6574
1740.016	6751
1742.166	6819
1744.316	6741
1746.467	6674
1748.616	6721
1750.764	6803
1752.911	6752
1755.056	6747
1757.205	6683
1759.35	6745
1761.496	6667
1763.641	6696
1765.785	6745
1767.927	6717
1770.072	6758
1772.214	6655
1774.355	6839
1776.496	6658
1778.637	6875
1780.778	6814
1782.918	6794
1785.057	6699
1787.194	6768
1789.333	6759
1791.472	6763
1793.608	6757
1795.745	6852
1797.879	6710
1800.015	6884
1802.148	6733
1804.284	6773
1806.417	6903
1808.548	6780
1810.682	6693
1812.812	6751
1814.946	6772
1817.075	6745
1819.205	6776
1821.335	6743
1823.463	6812
1825.59	6849
1827.721	6728
1829.847	6796
1831.973	6833
1834.098	6764
1836.223	6813
1838.351	6811
1840.475	6698
1842.598	6655
1844.721	6712
1846.843	6816
1848.966	6654
1851.087	6742
1853.21	6662
1855.33	6778
1857.449	6672
1859.568	6694
1861.688	6767
1863.806	6745
1865.924	6737
1868.039	6778
1870.155	6676
1872.273	6688
1874.388	6815
1876.503	6696
1878.617	6738
1880.73	6737
1882.844	6730
1884.956	6704
1887.068	6761
1889.18	6656
1891.291	6769
1893.4	6800
1895.511	6765
1897.621	6759
1899.73	6862
1901.837	6786
1903.944	6766
1906.053	6724
1908.159	6776
1910.265	6755
1912.369	6898
1914.474	6851
1916.577	6802
1918.683	6840
1920.785	6818
1922.888	6831
1924.989	6781
1927.091	6936
1929.193	6759
1931.294	6916
1933.393	6791
1935.493	6860
1937.59	6751
1939.689	6787
1941.788	6974
1943.884	6827
1945.98	6796
1948.077	6738
1950.171	6867
1952.267	6878
1954.361	7018
1956.455	6846
1958.548	6904
1960.64	6877
1962.733	6958
1964.824	6852
1966.915	6818
1969.005	6785
1971.096	6877
1973.185	6791
1975.275	6862
1977.363	6797
1979.45	6804
1981.537	6712
1983.623	6909
1985.711	6834
1987.796	6821
1989.881	6756
1991.965	6837
1994.047	6760
1996.132	6802
1998.215	6825
2000.297	6755
2002.378	6871
2004.46	6865
2006.54	6874
2008.62	6874
2010.7	6759
2012.779	6767
2014.858	6835
2016.934	6826
2019.013	6740
2021.09	6914
2023.165	6839
2025.241	6768
2027.317	6791
2029.39	6745
2031.466	6800
2033.538	6730
2035.612	6765
2037.683	6814
2039.755	6785
2041.827	6726
2043.898	6747
2045.968	6777
2048.038	6745
2050.106	6814
2052.177	6812
2054.244	6868
2056.313	6805
2058.379	6822
2060.444	6800
2062.511	6864
2064.577	6867
2066.641	6765
2068.705	6906
2070.77	6813
2072.832	6802
2074.896	6788
2076.958	6705
2079.02	6838
2081.081	6813
2083.141	6925
2085.2	6844
2087.261	6837
2089.319	6773
2091.377	6772
2093.435	6830
2095.492	6810
2097.552	6779
2099.607	6735
2101.663	6944
2103.718	6800
2105.771	6844
2107.826	6881
2109.879	6862
2111.932	6872
2113.985	6860
2116.037	6793
2118.088	6829
2120.141	6773
2122.191	6868
2124.239	6866
2126.288	6834
2128.337	6878
2130.387	6784
2132.434	6957
2134.481	6784
2136.528	6765
2138.574	6771
2140.618	6823
2142.665	6808
2144.71	6769
2146.753	6813
2148.797	6781
2150.838	6775
2152.883	6733
2154.923	6816
2156.965	6922
2159.007	6919
2161.046	6800
2163.086	6795
2165.126	6753
2167.163	6747
2169.202	6795
2171.239	6867
2173.277	6849
2175.314	6760
2177.349	6789
2179.385	6800
2181.42	6843
2183.453	6804
2185.49	6786
2187.522	6818
2189.555	6720
2191.586	6767
2193.619	6725
2195.651	6846
2197.682	6684
2199.711	6691
2201.74	6773
2203.769	6705
2205.799	6691
2207.828	6726
2209.855	6583
2211.882	6664
2213.908	6685
2215.934	6583
2217.961	6807
2219.986	6695
2222.01	6669
2224.034	6743
2226.057	6735
2228.08	6688
2230.104	6721
2232.124	6751
2234.145	6541
2236.166	6743
2238.186	6676
2240.207	6559
2242.227	6735
2244.244	6669
2246.262	6679
2248.28	6804
2250.299	6646
2252.314	6712
2254.33	6681
2256.346	6762
2258.36	6654
2260.375	6719
2262.391	6729
2264.403	6704
2266.416	6598
2268.427	6722
2270.44	6701
2272.453	6607
2274.463	6774
2276.474	6591
2278.483	6838
2280.493	6715
2282.501	6675
2284.51	6729
2286.518	6706
2288.524	6616
2290.532	6773
2292.537	6615
2294.544	6707
2296.55	6687
2298.554	6728
2300.557	6702
2302.562	6549
2304.566	6630
2306.568	6473
2308.569	6557
2310.572	6807
2312.573	6758
2314.573	6665
2316.574	6630
2318.573	6720
2320.571	6714
2322.571	6659
2324.569	6594
2326.567	6598
2328.564	6618
2330.56	6544
2332.556	6565
2334.551	6611
2336.546	6602
2338.542	6634
2340.535	6639
2342.529	6745
2344.521	6620
2346.512	6622
2348.505	6588
2350.497	6529
2352.487	6558
2354.478	6611
2356.468	6576
2358.457	6572
2360.446	6535
2362.434	6575
2364.422	6569
2366.408	6597
2368.395	6552
2370.383	6503
2372.369	6618
2374.353	6515
2376.338	6621
2378.321	6532
2380.307	6552
2382.29	6544
2384.272	6468
2386.254	6527
2388.235	6621
2390.218	6366
2392.198	6499
2394.179	6554
2396.157	6567
2398.137	6589
2400.115	6461
2402.095	6567
2404.072	6485
2406.048	6486
2408.026	6497
2410.001	6517
2411.977	6424
2413.953	6587
2415.927	6389
2417.9	6345
2419.875	6500
2421.847	6548
2423.821	6531
2425.792	6577
2427.763	6573
2429.736	6562
2431.706	6471
2433.677	6628
2435.646	6373
2437.615	6429
2439.583	6530
2441.551	6528
2443.519	6454
2445.486	6458
2447.452	6551
2449.418	6457
2451.383	6440
2453.348	6517
2455.314	6402
2457.278	6580
2459.241	6446
2461.205	6457
2463.167	6412
2465.131	6428
2467.091	6434
2469.052	6382
2471.012	6502
2472.972	6597
2474.932	6488
2476.891	6445
2478.85	6390
2480.808	6333
2482.766	6508
2484.722	6441
2486.68	6626
2488.636	6446
2490.591	6327
2492.546	6497
2494.5	6378
2496.456	6455
2498.41	6328
2500.362	6631
2502.315	6375
2504.266	6405
2506.218	6453
2508.169	6500
2510.121	6357
2512.07	6447
2514.019	6352
2515.968	6549
2517.918	6402
2519.866	6327
2521.813	6378
2523.76	6352
2525.707	6396
2527.653	6410
2529.599	6380
2531.543	6429
2533.489	6349
2535.433	6368
2537.376	6302
2539.32	6399
2541.264	6337
2543.205	6271
2545.147	6458
2547.087	6415
2549.029	6322
2550.969	6394
2552.908	6338
2554.847	6351
2556.786	6311
2558.724	6428
2560.663	6346
2562.6	6345
2564.537	6341
2566.473	6486
2568.408	6464
2570.345	6361
2572.28	6387
2574.214	6273
2576.148	6550
2578.081	6293
2580.014	6510
2581.947	6372
2583.879	6362
2585.81	6236
2587.741	6452
2589.67	6284
2591.602	6407
2593.532	6397
2595.461	6367
2597.388	6454
2599.316	6341
2601.244	6444
2603.172	6341
2605.098	6472
2607.023	6389
2608.949	6486
2610.873	6282
2612.8	6385
2614.723	6480
2616.647	6417
2618.569	6419
2620.493	6371
2622.416	6407
2624.338	6275
2626.258	6377
2628.179	6487
2630.099	6401
2632.019	6519
2633.939	6373
2635.857	6419
2637.775	6470
2639.694	6448
2641.61	6484
2643.528	6541
2645.444	6375
2647.361	6347
2649.276	6505
2651.19	6355
2653.105	6465
2655.019	6405
2656.934	6391
2658.846	6478
2660.758	6491
2662.67	6360
2664.583	6467
2666.493	6288
2668.404	6424
2670.313	6360
2672.223	6443
2674.134	6314
2676.042	6456
2677.95	6402
2679.858	6311
2681.765	6344
2683.673	6353
2685.579	6299
2687.483	6366
2689.389	6265
2691.294	6315
2693.198	6415
2695.104	6335
2697.006	6372
2698.909	6304
2700.811	6329
2702.713	6222
2704.615	6327
2706.516	6326
2708.417	6261
2710.316	6260
2712.216	6366
2714.115	6324
2716.014	6303
2717.913	6243
2719.81	6244
2721.707	6255
2723.603	6242
2725.501	6222
2727.396	6302
2729.292	6254
2731.186	6253
2733.081	6312
2734.976	6174
2736.87	6297
2738.762	6233
2740.653	6216
2742.546	6297
2744.437	6288
2746.329	6099
2748.22	6231
2750.11	6203
2751.999	6292
2753.889	6283
2755.778	6239
2757.666	6279
2759.553	6219
2761.44	6226
2763.328	6289
2765.215	6241
2767.101	6214
2768.986	6307
2770.87	6247
2772.754	6271
2774.638	6274
2776.523	6145
2778.405	6323
2780.288	6299
2782.17	6251
2784.051	6140
2785.934	6201
2787.814	6057
2789.694	6222
2791.574	6184
2793.453	6094
2795.332	6299
2797.212	6221
2799.088	6180
2800.966	6255
2802.843	6222
2804.719	6280
2806.597	6198
2808.471	6049
2810.346	6227
2812.221	6355
2814.094	6155
2815.969	6199
2817.843	6195
2819.714	6311
2821.587	6150
2823.459	6246
2825.329	6191
2827.202	6241
2829.072	6170
2830.942	6119
2832.811	6258
2834.68	6196
2836.549	6152
2838.418	6242
2840.284	6168
2842.152	6173
2844.018	6362
2845.885	6248
2847.751	6243
2849.616	6347
2851.482	6429
2853.345	6305
2855.208	6306
2857.074	6326
2858.937	6216
2860.799	6260
2862.66	6391
2864.522	6281
2866.385	6336
2868.245	6470
2870.104	6357
2871.964	6317
2873.824	6423
2875.683	6377
2877.542	6414
2879.4	6484
2881.257	6505
2883.114	6615
2884.97	6702
2886.827	6625
2888.683	6632
2890.537	6602
2892.392	6644
2894.246	6546
2896.1	6678
2897.954	6560
2899.807	6723
2901.66	6521
2903.51	6633
2905.362	6535
2907.214	6546
2909.065	6654
2910.915	6783
2912.765	6673
2914.613	6584
2916.463	6719
2918.311	6654
2920.158	6663
2922.006	6713
2923.853	6761
2925.698	6854
2927.546	6735
2929.392	6905
2931.236	6846
2933.081	6848
2934.924	6785
2936.77	6830
2938.613	6910
2940.455	6958
2942.298	7068
2944.139	7085
2945.982	7163
2947.823	7183
2949.662	7085
2951.503	7290
2953.342	7051
2955.182	7048
2957.021	6977
2958.858	7191
2960.697	7048
2962.534	7005
2964.37	7001
2966.207	6938
2968.044	6808
2969.879	6617
2971.714	6593
2973.548	6496
2975.383	6514
2977.218	6477
2979.051	6567
2980.883	6403
2982.715	6427
2984.547	6439
2986.379	6501
2988.21	6389
2990.04	6391
2991.87	6433
2993.7	6286
2995.53	6277
2997.359	6252
2999.187	6239
3001.015	6213
3002.842	6175
3004.669	6197
3006.497	6132
3008.323	5979
3010.148	6069
3011.974	5996
3013.797	6056
3015.623	5894
3017.447	6134
3019.27	6054
3021.094	6015
3022.915	5934
3024.737	6026
3026.56	6062
3028.38	5942
3030.201	5977
3032.022	5989
3033.84	5935
3035.662	5947
3037.481	5889
3039.298	5982
3041.117	5966
3042.933	5918
3044.752	5893
3046.568	5953
3048.385	5801
3050.2	5973
3052.016	5923
3053.83	5999
3055.646	5948
3057.46	5860
3059.272	5929
3061.086	5855
3062.898	5901
3064.711	5895
3066.524	5904
3068.335	5836
3070.145	5856
3071.956	5818
3073.766	5830
3075.576	5876
3077.385	5748
3079.193	5813
3081.002	5709
3082.81	5773
3084.618	5655
3086.425	5749
3088.231	5831
3090.036	5735
3091.842	5710
3093.648	5768
3095.452	5751
3097.257	5726
3099.06	5783
3100.863	5790
3102.666	5767
3104.47	5686
3106.272	5824
3108.073	5678
3109.875	5690
3111.676	5743
3113.477	5738
3115.277	5737
3117.077	5662
3118.874	5676
3120.673	5652
3122.473	5663
3124.271	5704
3126.066	5735
3127.863	5574
3129.66	5612
3131.456	5632
3133.252	5788
3135.047	5684
3136.842	5644
3138.635	5497
3140.429	5655
3142.223	5709
3144.016	5688
3145.808	5616
3147.6	5653
3149.392	5757
3151.183	5632
3152.975	5626
3154.765	5634
3156.553	5667
3158.344	5559
3160.132	5517
3161.922	5531
3163.71	5484
3165.497	5484
3167.285	5568
3169.071	5522
3170.858	5561
3172.645	5625
3174.429	5595
3176.214	5548
3177.998	5532
3179.783	5506
3181.568	5612
3183.351	5502
3185.133	5566
3186.915	5503
3188.698	5547
3190.481	5488
3192.261	5513
3194.042	5544
3195.822	5488
3197.601	5559
3199.381	5549
3201.161	5565
3202.939	5493
3204.717	5519
3206.495	5472
3208.272	5584
3210.05	5474
3211.826	5422
3213.602	5466
3215.376	5522
3217.151	5507
3218.927	5499
3220.702	5478
3222.476	5393
3224.249	5489
3226.021	5437
3227.793	5586
3229.567	5394
3231.339	5426
3233.109	5547
3234.88	5494
3236.651	5498
3238.421	5562
3240.191	5415
3241.96	5513
3243.728	5531
3245.497	5395
3247.263	5496
3249.033	5439
3250.799	5436
3252.566	5462
3254.331	5654
3256.097	5451
3257.863	5514
3259.628	5522
3261.392	5369
3263.156	5411
3264.919	5368
3266.683	5501
3268.447	5464
3270.208	5423
3271.969	5540
3273.731	5498
3275.492	5471
3277.253	5441
3279.013	5417
3280.773	5486
3282.532	5508
3284.291	5391
3286.05	5532
3287.808	5412
3289.566	5457
3291.323	5452
3293.079	5377
3294.835	5364
3296.593	5454
3298.348	5444
3300.102	5491
3301.857	5424
3303.611	5437
3305.366	5415
3307.119	5455
3308.872	5463
3310.624	5407
3312.376	5395
3314.129	5404
3315.881	5470
3317.631	5366
3319.38	5442
3321.13	5397
3322.88	5434
3324.631	5359
3326.379	5387
3328.126	5496
3329.875	5347
3331.622	5361
3333.371	5426
3335.116	5249
3336.863	5375
3338.609	5329
3340.353	5393
3342.1	5326
3343.845	5335
3345.588	5271
3347.332	5366
3349.074	5330
3350.817	5356
3352.56	5300
3354.303	5340
3356.043	5351
3357.785	5232
3359.525	5366
3361.268	5309
3363.007	5337
3364.745	5231
3366.485	5328
3368.223	5404
3369.962	5305
3371.701	5409
3373.438	5315
3375.174	5233
3376.911	5214
3378.647	5200
3380.384	5220
3382.118	5227
3383.854	5333
3385.588	5354
3387.322	5252
3389.057	5327
3390.79	5224
3392.522	5265
3394.255	5289
3395.987	5194
3397.719	5240
3399.451	5287
3401.181	5146
3402.911	5239
3404.641	5296
3406.371	5168
3408.101	5230
3409.83	5241
3411.558	5244
3413.285	5136
3415.011	5102
3416.739	5255
3418.467	5208
3420.193	5175
3421.919	5178
3423.644	5151
3425.368	5172
3427.094	5129
3428.818	5151
3430.542	5282
3432.264	5180
3433.987	5137
3435.712	5119
3437.434	5236
3439.155	5176
3440.876	5119
3442.596	5079
3444.317	5009
3446.039	5145
3447.757	5046
3449.477	5154
3451.195	5069
3452.914	5095
3454.632	5132
3456.35	4983
3458.067	5119
3459.784	5126
3461.5	5097
3463.216	5060
3464.932	5102
3466.647	5014
3468.362	5022
3470.076	5042
3471.789	5036
3473.505	5035
3475.217	4972
3476.929	4992
3478.641	4935
3480.354	4925
3482.066	4942
3483.777	4987
3485.487	4964
3487.197	5002
3488.908	4968
3490.617	4948
3492.327	4880
3494.035	4938
3495.743	4865
3497.451	4934
3499.158	4951
3500.866	5002
3502.572	4959
3504.278	4932
3505.984	4979
3507.689	4921
3509.396	4949
3511.1	4927
3512.804	4962
3514.508	4817
3516.211	4919
3517.913	4855
3519.616	4903
3521.319	4994
3523.021	4894
3524.722	4847
3526.422	4803
3528.124	4910
3529.824	4847
3531.524	4797
3533.222	4895
3534.921	4877
3536.62	4930
3538.318	4779
3540.016	4808
3541.714	4859
3543.41	4745
3545.107	4790
3546.803	4793
3548.5	4800
3550.194	4808
3551.889	4895
3553.583	4835
3555.279	4756
3556.972	4845
3558.666	4737
3560.358	4804
3562.051	4781
3563.742	4761
3565.435	4884
3567.126	4804
3568.817	4688
3570.507	4801
3572.197	4834
3573.888	4830
3575.577	4641
3577.265	4744
3578.954	4688
3580.642	4808
3582.329	4757
3584.017	4863
3585.704	4614
3587.391	4803
3589.077	4736
3590.762	4728
3592.449	4798
3594.133	4743
3595.817	4642
3597.501	4717
3599.185	4675
3600.869	4649
3602.552	4720
3604.234	4707
3605.916	4681
3607.598	4635
3609.279	4643
3610.961	4655
3612.642	4608
3614.321	4580
3616	4693
3617.68	4657
3619.36	4604
3621.039	4664
3622.716	4598
3624.394	4678
3626.071	4570
3627.748	4649
3629.425	4588
3631.102	4674
3632.778	4563
3634.452	4538
3636.127	4541
3637.803	4654
3639.477	4627
3641.151	4482
3642.823	4616
3644.497	4608
3646.171	4490
3647.842	4495
3649.515	4554
3651.185	4508
3652.857	4471
3654.527	4610
3656.198	4619
3657.868	4449
3659.537	4578
3661.207	4487
3662.875	4565
3664.544	4511
3666.212	4507
3667.879	4433
3669.546	4474
3671.212	4501
3672.88	4494
3674.546	4378
3676.211	4612
3677.875	4493
3679.541	4395
3681.205	4552
3682.87	4466
3684.533	4363
3686.196	4423
3687.859	4358
3689.521	4415
3691.184	4501
3692.845	4357
3694.507	4454
3696.167	4461
3697.827	4460
3699.487	4408
3701.148	4405
3702.808	4448
3704.466	4449
3706.125	4413
3707.783	4487
3709.442	4396
3711.099	4432
3712.757	4431
3714.412	4342
3716.068	4374
3717.725	4361
3719.381	4424
3721.036	4436
3722.689	4360
3724.344	4300
3725.998	4279
3727.652	4396
3729.305	4361
3730.958	4413
3732.61	4333
3734.262	4329
3735.915	4323
3737.565	4212
3739.217	4444
3740.866	4364
3742.516	4310
3744.165	4299
3745.816	4309
3747.464	4324
3749.113	4350
3750.761	4313
3752.409	4397
3754.057	4400
3755.703	4362
3757.35	4298
3758.996	4349
3760.641	4259
3762.289	4328
3763.933	4260
3765.577	4311
3767.222	4351
3768.865	4287
3770.508	4310
3772.152	4279
3773.796	4170
3775.438	4402
3777.079	4283
3778.721	4260
3780.363	4291
3782.003	4179
3783.643	4286
3785.283	4197
3786.923	4294
3788.563	4178
3790.203	4225
3791.841	4299
3793.479	4159
3795.115	4286
3796.753	4171
3798.391	4195
3800.027	4177
3801.664	4190
3803.299	4229
3804.935	4244
3806.571	4194
3808.206	4240
3809.839	4080
3811.473	4301
3813.107	4199
3814.74	4204
3816.375	4162
3818.006	4162
3819.638	4137
3821.27	4123
3822.9	4118
3824.532	4143
3826.163	4240
3827.792	4065
3829.423	4121
3831.051	4149
3832.682	4166
3834.311	4172
3835.938	4076
3837.566	4238
3839.193	4077
3840.821	4100
3842.448	4133
3844.075	4154
3845.7	4056
3847.325	4107
3848.951	4080
3850.576	4043
3852.201	4119
3853.825	4068
3855.448	4112
3857.072	4074
3858.694	4128
3860.318	4069
3861.939	4042
3863.562	4071
3865.183	4018
3866.804	4074
3868.426	4099
3870.045	3953
3871.666	3968
3873.285	4088
3874.904	4054
3876.524	3970
3878.142	4054
3879.76	4073
3881.378	3982
3882.995	4044
3884.612	4013
3886.229	4019
3887.845	3955
3889.461	4178
3891.076	3991
3892.691	3975
3894.307	3976
3895.922	4063
3897.536	3983
3899.149	3885
3900.761	3991
3902.374	4037
3903.988	4016
3905.6	3950
3907.212	4047
3908.822	3949
3910.433	4002
3912.045	4085
3913.655	3928
3915.265	3959
3916.875	3935
3918.483	4059
3920.093	4011
3921.702	3972
3923.309	3950
3924.917	3973
3926.523	4012
3928.13	3926
3929.739	3991
3931.344	3950
3932.95	3943
3934.555	3909
3936.159	3948
3937.766	3972
3939.369	3845
3940.974	4043
3942.577	3911
3944.181	3895
3945.783	3903
3947.386	4005
3948.989	3963
3950.59	3979
3952.191	3908
3953.791	3897
3955.394	3937
3956.994	3884
3958.593	3864
3960.192	3861
3961.791	3905
3963.392	3896
3964.99	3830
3966.588	3911
3968.185	3855
3969.782	3877
3971.379	3810
3972.976	3889
3974.572	3909
3976.168	3859
3977.763	3807
3979.358	3868
3980.954	3769
3982.548	3836
3984.142	3808
3985.736	3854
3987.329	3837
3988.922	3813
3990.516	3806
3992.108	3818
3993.698	3802
3995.29	3737
3996.881	3711
3998.473	3741
4000.064	3758
4001.653	3826
4003.242	3824
4004.832	3726
4006.422	3710
4008.01	3744
4009.598	3789
4011.186	3767
4012.773	3714
4014.36	3783
4015.947	3767
4017.534	3672
4019.119	3717
4020.705	3680
4022.291	3768
4023.876	3665
4025.461	3629
4027.044	3735
4028.627	3630
4030.211	3683
4031.795	3672
4033.378	3665
4034.96	3731
4036.542	3680
4038.124	3723
4039.704	3671
4041.286	3735
4042.867	3607
4044.447	3667
4046.026	3663
4047.606	3671
4049.187	3619
4050.765	3690
4052.343	3673
4053.92	3625
4055.498	3713
4057.076	3669
4058.654	3655
4060.23	3602
4061.806	3559
4063.381	3578
4064.957	3591
4066.533	3579
4068.107	3681
4069.682	3729
4071.256	3597
4072.829	3676
4074.404	3684
4075.977	3648
4077.549	3617
4079.121	3556
4080.693	3608
4082.265	3514
4083.836	3593
4085.407	3641
4086.977	3621
4088.547	3602
4090.117	3680
4091.687	3557
4093.256	3628
4094.825	3590
4096.392	3545
4097.96	3573
4099.528	3498
4101.097	3534
4102.663	3615
4104.229	3508
4105.795	3596
4107.361	3485
4108.928	3523
4110.493	3579
4112.058	3526
4113.621	3536
4115.186	3437
4116.75	3579
4118.313	3509
4119.876	3569
4121.438	3485
4123	3492
4124.562	3526
4126.125	3507
4127.686	3505
4129.246	3516
4130.807	3551
4132.367	3552
4133.927	3509
4135.486	3483
4137.046	3511
4138.604	3438
4140.162	3399
4141.72	3423
4143.279	3446
4144.836	3441
4146.393	3498
4147.949	3469
4149.505	3425
4151.062	3418
4152.617	3440
4154.172	3378
4155.727	3423
4157.281	3371
4158.836	3461
4160.39	3431
4161.943	3450
4163.496	3432
4165.048	3377
4166.601	3421
4168.154	3413
4169.706	3316
4171.257	3383
4172.808	3443
4174.358	3453
4175.909	3402
4177.458	3347
4179.008	3414
4180.558	3405
4182.106	3368
4183.655	3407
4185.204	3340
4186.751	3364
4188.298	3247
4189.845	3304
4191.392	3405
4192.939	3337
4194.485	3298
4196.031	3358
4197.576	3313
4199.121	3326
4200.666	3296
4202.211	3327
4203.754	3374
4205.298	3309
4206.84	3388
4208.384	3312
4209.927	3355
4211.47	3251
4213.011	3294
4214.552	3245
4216.094	3334
4217.635	3356
4219.175	3266
4220.716	3342
4222.255	3326
4223.793	3267
4225.335	3279
4226.873	3293
4228.411	3209
4229.948	3251
4231.486	3333
4233.024	3282
4234.562	3274
4236.098	3372
4237.634	3224
4239.169	3157
4240.705	3188
4242.241	3303
4243.776	3246
4245.31	3254
4246.844	3294
4248.378	3300
4249.911	3240
4251.445	3262
4252.978	3296
4254.51	3228
4256.042	3243
4257.574	3249
4259.107	3198
4260.638	3265
4262.169	3241
4263.699	3218
4265.228	3263
4266.759	3200
4268.289	3207
4269.818	3189
4271.345	3196
4272.874	3250
4274.402	3209
4275.931	3189
4277.458	3170
4278.985	3165
4280.512	3158
4282.037	3170
4283.564	3206
4285.089	3183
4286.615	3175
4288.139	3179
4289.664	3164
4291.187	3136
4292.712	3154
4294.235	3190
4295.759	3152
4297.281	3149
4298.804	3148
4300.327	3166
4301.849	3167
4303.37	3174
4304.891	3203
4306.412	3208
4307.933	3087
4309.453	3079
4310.973	3089
4312.492	3082
