398.1873	3328
400.7097	3367
403.2336	3450
405.7547	3505
408.2751	3467
410.7948	3472
413.3138	3427
415.83	3436
418.3497	3517
420.8666	3526
423.3829	3439
425.8985	3557
428.4133	3530
430.9275	3622
433.441	3577
435.9538	3630
438.4639	3637
440.9753	3598
443.4881	3655
445.9982	3638
448.5055	3679
451.0142	3597
453.5201	3635
456.0274	3558
458.5361	3614
461.04	3644
463.5453	3592
466.0478	3625
468.5517	3589
471.0549	3570
473.5574	3538
476.0572	3667
478.5584	3600
481.0568	3727
483.5545	3692
486.0557	3636
488.5521	3672
491.0478	3695
493.5449	3691
496.0392	3708
498.5349	3709
501.0299	3681
503.5222	3805
506.0139	3683
508.5048	3780
510.9991	3765
513.4887	3755
515.9777	3765
518.4659	3707
520.9534	3686
523.4403	3737
525.9306	3740
528.4161	3740
530.9009	3662
533.3851	3802
535.8687	3813
538.3535	3749
540.8356	3776
543.3171	3756
545.7979	3827
548.278	3808
550.7595	3795
553.2383	3764
555.7144	3728
558.1918	3719
560.6685	3787
563.1446	3831
565.6221	3777
568.0968	3828
570.5688	3880
573.0422	3858
575.515	3856
577.989	3907
580.4584	3972
582.9291	3861
585.3991	3872
587.8685	3909
590.3352	3983
592.8052	3878
595.2706	3825
597.7372	3890
600.2033	3934
602.6666	3826
605.1334	3969
607.5953	3890
610.0587	3863
612.5193	3823
614.9814	3945
617.4427	3893
619.9034	3913
622.3615	3987
624.8208	3891
627.2775	3920
629.7335	3829
632.1929	3893
634.6476	3872
637.1016	3891
639.5569	3947
642.0096	3907
644.4637	3904
646.9151	3905
649.3678	3927
651.8179	3825
654.2672	3935
656.7159	3919
659.166	4038
661.6154	4002
664.0622	3999
666.5082	3988
668.9537	4016
671.4005	3920
673.8445	4035
676.288	3941
678.7308	4031
681.1729	4048
683.6163	3945
686.0572	4000
688.4973	4085
690.9368	3994
693.3757	4049
695.8138	4022
698.2534	3976
700.6902	4019
703.1245	4062
705.56	4027
707.9949	4053
710.4311	4072
712.8647	4190
715.2957	4064
717.7279	4158
720.1595	4125
722.5905	4028
725.0208	4133
727.4505	4044
729.8795	4036
732.3058	4206
734.7336	4093
737.1626	4189
739.587	4182
742.0128	4219
744.4359	4156
746.8604	4243
749.2841	4209
751.7073	4251
754.1278	4195
756.5496	4269
758.9688	4223
761.3893	4327
763.8093	4327
766.2285	4337
768.6451	4265
771.0611	4234
773.4784	4201
775.895	4216
778.3091	4318
780.7244	4347
783.1371	4300
785.5493	4265
787.9626	4399
790.3754	4289
792.7856	4317
795.1951	4280
797.6039	4275
800.0121	4227
802.4236	4283
804.8306	4312
807.2369	4372
809.6425	4334
812.0475	4287
814.4538	4304
816.8575	4334
819.2606	4405
821.663	4322
824.0648	4348
826.4659	4272
828.8683	4341
831.2682	4271
833.6674	4264
836.066	4300
838.4639	4324
840.8632	4296
843.2579	4366
845.6539	4364
848.0493	4313
850.444	4508
852.84	4424
855.2315	4425
857.6243	4359
860.0165	4427
862.4081	4435
864.797	4356
867.1892	4465
869.5789	4470
871.9659	4325
874.3542	4470
876.74	4270
879.129	4381
881.5155	4437
883.8994	4401
886.2845	4462
888.6671	4346
891.051	4351
893.4343	4437
895.8169	4406
898.197	4386
900.5783	4402
902.9571	4353
905.3372	4433
907.7167	4474
910.0936	4478
912.4698	4440
914.8474	4502
917.2244	4503
919.5987	4507
921.9744	4550
924.3475	4455
926.72	4624
929.0918	4541
931.4669	4596
933.8375	4510
936.2074	4695
938.5767	4655
940.9454	4722
943.3154	4653
945.6829	4805
948.0497	4930
950.4178	5013
952.7833	5162
955.1483	5153
957.5145	5356
959.8782	5462
962.2412	5395
964.6036	5237
966.9655	5244
969.3266	5102
971.6871	4863
974.0471	4812
976.4064	4687
978.765	4717
981.125	4681
983.4824	4486
985.8373	4609
988.1935	4630
990.549	4522
992.9039	4576
995.2602	4590
997.6119	4551
999.965	4653
1002.317	4520
1004.667	4617
1007.02	4682
1009.371	4603
1011.719	4531
1014.068	4553
1016.415	4576
1018.765	4557
1021.111	4587
1023.458	4532
1025.804	4678
1028.147	4708
1030.49	4582
1032.837	4687
1035.179	4622
1037.522	4689
1039.862	4582
1042.204	4695
1044.546	4642
1046.884	4664
1049.224	4604
1051.562	4684
1053.899	4665
1056.237	4736
1058.575	4723
1060.91	4680
1063.244	4689
1065.58	4767
1067.913	4686
1070.248	4745
1072.579	4710
1074.911	4769
1077.242	4820
1079.572	4665
1081.905	4706
1084.234	4667
1086.562	4682
1088.89	4707
1091.217	4659
1093.544	4613
1095.871	4732
1098.197	4679
1100.521	4704
1102.845	4807
1105.169	4687
1107.491	4676
1109.814	4756
1112.135	4679
1114.456	4649
1116.776	4664
1119.096	4706
1121.415	4645
1123.734	4726
1126.052	4661
1128.369	4784
1130.686	4693
1133.002	4745
1135.318	4754
1137.632	4669
1139.945	4669
1142.258	4699
1144.573	4719
1146.884	4696
1149.196	4696
1151.505	4669
1153.816	4796
1156.124	4778
1158.435	4722
1160.742	4730
1163.051	4760
1165.356	4718
1167.663	4652
1169.97	4686
1172.276	4693
1174.579	4674
1176.881	4652
1179.186	4733
1181.487	4762
1183.79	4693
1186.092	4747
1188.392	4638
1190.691	4772
1192.991	4835
1195.291	4742
1197.588	4723
1199.885	4766
1202.181	4737
1204.479	4751
1206.775	4762
1209.07	4756
1211.363	4692
1213.656	4771
1215.949	4756
1218.241	4756
1220.534	4758
1222.825	4776
1225.115	4863
1227.405	4809
1229.693	4856
1231.984	4780
1234.271	4878
1236.558	4878
1238.845	4858
1241.131	4878
1243.416	4866
1245.703	4828
1247.987	4904
1250.269	4842
1252.552	4935
1254.834	4813
1257.118	5013
1259.399	4873
1261.678	4891
1263.958	4866
1266.237	4863
1268.516	4880
1270.794	4979
1273.072	4867
1275.347	4962
1277.624	4915
1279.899	4848
1282.175	4854
1284.449	4836
1286.722	4817
1288.995	4768
1291.266	4927
1293.54	4870
1295.81	4859
1298.081	4800
1300.35	4899
1302.62	4806
1304.889	4864
1307.156	4798
1309.425	4848
1311.69	4828
1313.957	4725
1316.222	4801
1318.488	4869
1320.751	4884
1323.016	4891
1325.278	4829
1327.54	4831
1329.803	4780
1332.065	4854
1334.325	4843
1336.584	4877
1338.843	4896
1341.101	4863
1343.36	4936
1345.617	4883
1347.876	4843
1350.131	4858
1352.387	4865
1354.643	4855
1356.897	4821
1359.151	4869
1361.403	4890
1363.656	4777
1365.909	4879
1368.16	4847
1370.409	4785
1372.659	4825
1374.909	4889
1377.157	4898
1379.407	4897
1381.655	4894
1383.9	4899
1386.147	5071
1388.393	4890
1390.64	4933
1392.885	4914
1395.127	4946
1397.37	4841
1399.614	5055
1401.854	4985
1404.098	4957
1406.339	4959
1408.578	4970
1410.818	5032
1413.056	4948
1415.297	5108
1417.533	4942
1419.771	4918
1422.006	5037
1424.243	4907
1426.479	5015
1428.715	5003
1430.948	5009
1433.182	5009
1435.414	5046
1437.647	5049
1439.88	5136
1442.11	5050
1444.342	5109
1446.571	5037
1448.799	5013
1451.029	5052
1453.258	5110
1455.485	5173
1457.711	5027
1459.937	5078
1462.164	5042
1464.39	5135
1466.614	5077
1468.838	4999
1471.06	5018
1473.283	5077
1475.506	5089
1477.727	4958
1479.949	4875
1482.169	5001
1484.389	4994
1486.609	4985
1488.828	4933
1491.045	4828
1493.261	4842
1495.477	4924
1497.693	4971
1499.91	5018
1502.125	4988
1504.339	4918
1506.553	4875
1508.766	4849
1510.979	4870
1513.191	4957
1515.402	4986
1517.613	4928
1519.823	4802
1522.033	4967
1524.242	4903
1526.451	4890
1528.657	4910
1530.865	4954
1533.072	4944
1535.278	5012
1537.484	5021
1539.687	4886
1541.892	5024
1544.096	4996
1546.299	4983
1548.502	4989
1550.703	5041
1552.905	4961
1555.104	4937
1557.303	5017
1559.505	4967
1561.703	5012
1563.902	5077
1566.099	5032
1568.295	4965
1570.494	5039
1572.689	5058
1574.883	5087
1577.079	5075
1579.272	5104
1581.467	5152
1583.659	5037
1585.853	5061
1588.044	5118
1590.234	5111
1592.424	5006
1594.615	5108
1596.806	5142
1598.994	5108
1601.182	5089
1603.369	5095
1605.557	5100
1607.744	5097
1609.929	5014
1612.114	5057
1614.298	5144
1616.482	5162
1618.667	5135
1620.85	5115
1623.032	5086
1625.214	5099
1627.395	5159
1629.575	5170
1631.755	5181
1633.935	5208
1636.114	5132
1638.292	5127
1640.471	5190
1642.647	5187
1644.823	5253
1647	5175
1649.175	5184
1651.348	5174
1653.525	5194
1655.698	5184
1657.87	5121
1660.043	5192
1662.213	5098
1664.387	5246
1666.558	5241
1668.727	5233
1670.896	5282
1673.064	5214
1675.233	5161
1677.401	5248
1679.569	5200
1681.735	5247
1683.902	5225
1686.066	5164
1688.233	5163
1690.397	5171
1692.559	5154
1694.723	5140
1696.885	5185
1699.048	5117
1701.21	5147
1703.37	5148
1705.53	5101
1707.689	5136
1709.849	5023
1712.009	5121
1714.166	5194
1716.323	5202
1718.479	5198
1720.634	5097
1722.793	5123
1724.948	5192
1727.102	5116
1729.255	5170
1731.408	5088
1733.562	5138
1735.714	5158
1737.865	5154
1740.016	5159
1742.166	5166
1744.316	5102
1746.467	5015
1748.616	5218
1750.764	5106
1752.911	5234
1755.056	5190
1757.205	5177
1759.35	5209
1761.496	5239
1763.641	5220
1765.785	5130
1767.927	5132
1770.072	5067
1772.214	5176
1774.355	5256
1776.496	5257
1778.637	5202
1780.778	5205
1782.918	5259
1785.057	5331
1787.194	5233
1789.333	5264
1791.472	5323
1793.608	5138
1795.745	5202
1797.879	5205
1800.015	5242
1802.148	5253
1804.284	5170
1806.417	5338
1808.548	5225
1810.682	5197
1812.812	5230
1814.946	5190
1817.075	5238
1819.205	5294
1821.335	5221
1823.463	5291
1825.59	5201
1827.721	5240
1829.847	5223
1831.973	5199
1834.098	5169
1836.223	5220
1838.351	5221
1840.475	5215
1842.598	5197
1844.721	5329
1846.843	5167
1848.966	5143
1851.087	5190
1853.21	5170
1855.33	5223
1857.449	5126
1859.568	5211
1861.688	5156
1863.806	5157
1865.924	5267
1868.039	5291
1870.155	5138
1872.273	5210
1874.388	5278
1876.503	5152
1878.617	5284
1880.73	5169
1882.844	5119
1884.956	5199
1887.068	5180
1889.18	5149
1891.291	5333
1893.4	5249
1895.511	5245
1897.621	5252
1899.73	5251
1901.837	5249
1903.944	5290
1906.053	5279
1908.159	5209
1910.265	5199
1912.369	5290
1914.474	5324
1916.577	5090
1918.683	5228
1920.785	5376
1922.888	5326
1924.989	5320
1927.091	5228
1929.193	5300
1931.294	5337
1933.393	5337
1935.493	5404
1937.59	5359
1939.689	5288
1941.788	5297
1943.884	5347
1945.98	5227
1948.077	5261
1950.171	5322
1952.267	5377
1954.361	5388
1956.455	5214
1958.548	5335
1960.64	5266
1962.733	5229
1964.824	5271
1966.915	5268
1969.005	5253
1971.096	5332
1973.185	5282
1975.275	5344
1977.363	5256
1979.45	5375
1981.537	5235
1983.623	5280
1985.711	5256
1987.796	5252
1989.881	5295
1991.965	5237
1994.047	5281
1996.132	5322
1998.215	5165
2000.297	5312
2002.378	5255
2004.46	5310
2006.54	5244
2008.62	5250
2010.7	5391
2012.779	5295
2014.858	5174
2016.934	5341
2019.013	5301
2021.09	5290
2023.165	5280
2025.241	5268
2027.317	5234
2029.39	5254
2031.466	5212
2033.538	5228
2035.612	5321
2037.683	5329
2039.755	5228
2041.827	5292
2043.898	5278
2045.968	5239
2048.038	5322
2050.106	5272
2052.177	5188
2054.244	5309
2056.313	5255
2058.379	5253
2060.444	5406
2062.511	5336
2064.577	5275
2066.641	5299
2068.705	5324
2070.77	5302
2072.832	5269
2074.896	5261
2076.958	5295
2079.02	5274
2081.081	5322
2083.141	5324
2085.2	5255
2087.261	5294
2089.319	5269
2091.377	5258
2093.435	5381
2095.492	5310
2097.552	5271
2099.607	5301
2101.663	5343
2103.718	5299
2105.771	5313
2107.826	5296
2109.879	5341
2111.932	5283
2113.985	5260
2116.037	5368
2118.088	5283
2120.141	5293
2122.191	5320
2124.239	5272
2126.288	5295
2128.337	5162
2130.387	5342
2132.434	5376
2134.481	5298
2136.528	5297
2138.574	5295
2140.618	5337
2142.665	5339
2144.71	5241
2146.753	5298
2148.797	5244
2150.838	5272
2152.883	5266
2154.923	5248
2156.965	5297
2159.007	5284
2161.046	5207
2163.086	5337
2165.126	5349
2167.163	5302
2169.202	5306
2171.239	5275
2173.277	5227
2175.314	5218
2177.349	5210
2179.385	5286
2181.42	5293
2183.453	5321
2185.49	5232
2187.522	5221
2189.555	5190
2191.586	5250
2193.619	5153
2195.651	5233
2197.682	5301
2199.711	5254
2201.74	5310
2203.769	5215
2205.799	5214
2207.828	5191
2209.855	5226
2211.882	5244
2213.908	5174
2215.934	5228
2217.961	5198
2219.986	5234
2222.01	5150
2224.034	5098
2226.057	5265
2228.08	5157
2230.104	5136
2232.124	5293
2234.145	5224
2236.166	5234
2238.186	5240
2240.207	5215
2242.227	5182
2244.244	5153
2246.262	5192
2248.28	5187
2250.299	5129
2252.314	5290
2254.33	5218
2256.346	5229
2258.36	5104
2260.375	5200
2262.391	5227
2264.403	5214
2266.416	5294
2268.427	5222
2270.44	5197
2272.453	5114
2274.463	5190
2276.474	5329
2278.483	5182
2280.493	5216
2282.501	5219
2284.51	5253
2286.518	5143
2288.524	5235
2290.532	5194
2292.537	5245
2294.544	5250
2296.55	5325
2298.554	5164
2300.557	5278
2302.562	5220
2304.566	5171
2306.568	5245
2308.569	5112
2310.572	5263
2312.573	5212
2314.573	5239
2316.574	5134
2318.573	5143
2320.571	5236
2322.571	5171
2324.569	5214
2326.567	5153
2328.564	5244
2330.56	5209
2332.556	5201
2334.551	5196
2336.546	5229
2338.542	5190
2340.535	5221
2342.529	5206
2344.521	5148
2346.512	5081
2348.505	5200
2350.497	5112
2352.487	5192
2354.478	5064
2356.468	5089
2358.457	5188
2360.446	5218
2362.434	5169
2364.422	5071
2366.408	5174
2368.395	5159
2370.383	5176
2372.369	5186
2374.353	5117
2376.338	5159
2378.321	5147
2380.307	5140
2382.29	5079
2384.272	5075
2386.254	5064
2388.235	5126
2390.218	5080
2392.198	5104
2394.179	5048
2396.157	5098
2398.137	5169
2400.115	5131
2402.095	5135
2404.072	5138
2406.048	5238
2408.026	5101
2410.001	5097
2411.977	5157
2413.953	5102
2415.927	5070
2417.9	4993
2419.875	5101
2421.847	5069
2423.821	5081
2425.792	5165
2427.763	5149
2429.736	5085
2431.706	5122
2433.677	5092
2435.646	5177
2437.615	5082
2439.583	5083
2441.551	5043
2443.519	5040
2445.486	5063
2447.452	5198
2449.418	5102
2451.383	5090
2453.348	5147
2455.314	5058
2457.278	5141
2459.241	5107
2461.205	5112
2463.167	5100
2465.131	5086
2467.091	5126
2469.052	5043
2471.012	5086
2472.972	5008
2474.932	5028
2476.891	4947
2478.85	5031
2480.808	4975
2482.766	5008
2484.722	5034
2486.68	4999
2488.636	5019
2490.591	4961
2492.546	5026
2494.5	5042
2496.456	5043
2498.41	5065
2500.362	5077
2502.315	5013
2504.266	5078
2506.218	5029
2508.169	5043
2510.121	4946
2512.07	5103
2514.019	5011
2515.968	5105
2517.918	5033
2519.866	5023
2521.813	5098
2523.76	4969
2525.707	5094
2527.653	4965
2529.599	4938
2531.543	4977
2533.489	5009
2535.433	4940
2537.376	5059
2539.32	5009
2541.264	5037
2543.205	5061
2545.147	4995
2547.087	4986
2549.029	4967
2550.969	4944
2552.908	5002
2554.847	5024
2556.786	5008
2558.724	4951
2560.663	5014
2562.6	5027
2564.537	5021
2566.473	5042
2568.408	4956
2570.345	5056
2572.28	5002
2574.214	4999
2576.148	5070
2578.081	5033
2580.014	5007
2581.947	5054
2583.879	4956
2585.81	5032
2587.741	5024
2589.67	4969
2591.602	4939
2593.532	5019
2595.461	5168
2597.388	5039
2599.316	5019
2601.244	5058
2603.172	4991
2605.098	5067
2607.023	5063
2608.949	5035
2610.873	4983
2612.8	5052
2614.723	5033
2616.647	5000
2618.569	5012
2620.493	5032
2622.416	4988
2624.338	5131
2626.258	5102
2628.179	4950
2630.099	4955
2632.019	5042
2633.939	5083
2635.857	5064
2637.775	5134
2639.694	5083
2641.61	5045
2643.528	5132
2645.444	5173
2647.361	4944
2649.276	5007
2651.19	5068
2653.105	5029
2655.019	5045
2656.934	5152
2658.846	5085
2660.758	5022
2662.67	4998
2664.583	5015
2666.493	5073
2668.404	5062
2670.313	5039
2672.223	4982
2674.134	4983
2676.042	4990
2677.95	5062
2679.858	4987
2681.765	5027
2683.673	5099
2685.579	4978
2687.483	5059
2689.389	4976
2691.294	4885
2693.198	5068
2695.104	4946
2697.006	5037
2698.909	4952
2700.811	4996
2702.713	5032
2704.615	4940
2706.516	5049
2708.417	4955
2710.316	5103
2712.216	4926
2714.115	5035
2716.014	5058
2717.913	4926
2719.81	4932
2721.707	5085
2723.603	5020
2725.501	4994
2727.396	4983
2729.292	4946
2731.186	4946
2733.081	4965
2734.976	4900
2736.87	4909
2738.762	5021
2740.653	4918
2742.546	4927
2744.437	5004
2746.329	4977
2748.22	4944
2750.11	4887
2751.999	4864
2753.889	4930
2755.778	4932
2757.666	4877
2759.553	4962
2761.44	5044
2763.328	4946
2765.215	4984
2767.101	4933
2768.986	4954
2770.87	4933
2772.754	4935
2774.638	4942
2776.523	4956
2778.405	4994
2780.288	4786
2782.17	5030
2784.051	4906
2785.934	4881
2787.814	4872
2789.694	4892
2791.574	4832
2793.453	4819
2795.332	4974
2797.212	4946
2799.088	4817
2800.966	4937
2802.843	4878
2804.719	4995
2806.597	4875
2808.471	4890
2810.346	4902
2812.221	4868
2814.094	4920
2815.969	4906
2817.843	4888
2819.714	4911
2821.587	4850
2823.459	4954
2825.329	4886
2827.202	4957
2829.072	4839
2830.942	4880
2832.811	4908
2834.68	4905
2836.549	4979
2838.418	4902
2840.284	4871
2842.152	4893
2844.018	4869
2845.885	4904
2847.751	4849
2849.616	5024
2851.482	4986
2853.345	4979
2855.208	4861
2857.074	4954
2858.937	4961
2860.799	4969
2862.66	4892
2864.522	4960
2866.385	5030
2868.245	4952
2870.104	5022
2871.964	5027
2873.824	5119
2875.683	5183
2877.542	5152
2879.4	5194
2881.257	5160
2883.114	5153
2884.97	5107
2886.827	5090
2888.683	5219
2890.537	5185
2892.392	5183
2894.246	5041
2896.1	5235
2897.954	5192
2899.807	5122
2901.66	5176
2903.51	5097
2905.362	5096
2907.214	5179
2909.065	5240
2910.915	5135
2912.765	5167
2914.613	5194
2916.463	5216
2918.311	5254
2920.158	5199
2922.006	5256
2923.853	5389
2925.698	5368
2927.546	5496
2929.392	5444
2931.236	5536
2933.081	5442
2934.924	5500
2936.77	5552
2938.613	5512
2940.455	5582
2942.298	5513
2944.139	5491
2945.982	5624
2947.823	5521
2949.662	5507
2951.503	5481
2953.342	5410
2955.182	5450
2957.021	5385
2958.858	5428
2960.697	5355
2962.534	5361
2964.37	5238
2966.207	5321
2968.044	5294
2969.879	5295
2971.714	5343
2973.548	5178
2975.383	5203
2977.218	5147
2979.051	5195
2980.883	5194
2982.715	5202
2984.547	5149
2986.379	5138
2988.21	5148
2990.04	5141
2991.87	5082
2993.7	5021
2995.53	5007
2997.359	5021
2999.187	5101
3001.015	4970
3002.842	4933
3004.669	4976
3006.497	4909
3008.323	4808
3010.148	4791
3011.974	4905
3013.797	4822
3015.623	4821
3017.447	4875
3019.27	4850
3021.094	4806
3022.915	4832
3024.737	4779
3026.56	4843
3028.38	4735
3030.201	4723
3032.022	4657
3033.84	4714
3035.662	4780
3037.481	4706
3039.298	4706
3041.117	4813
3042.933	4687
3044.752	4750
3046.568	4712
3048.385	4760
3050.2	4706
3052.016	4769
3053.83	4715
3055.646	4715
3057.46	4710
3059.272	4614
3061.086	4677
3062.898	4791
3064.711	4595
3066.524	4744
3068.335	4679
3070.145	4729
3071.956	4705
3073.766	4669
3075.576	4591
3077.385	4615
3079.193	4676
3081.002	4676
3082.81	4578
3084.618	4618
3086.425	4594
3088.231	4596
3090.036	4563
3091.842	4635
3093.648	4673
3095.452	4612
3097.257	4578
3099.06	4580
3100.863	4506
3102.666	4544
3104.47	4678
3106.272	4582
3108.073	4598
3109.875	4588
3111.676	4503
3113.477	4605
3115.277	4564
3117.077	4539
3118.874	4539
3120.673	4518
3122.473	4561
3124.271	4524
3126.066	4495
3127.863	4542
3129.66	4489
3131.456	4487
3133.252	4516
3135.047	4499
3136.842	4518
3138.635	4489
3140.429	4548
3142.223	4467
3144.016	4435
3145.808	4452
3147.6	4581
3149.392	4536
3151.183	4492
3152.975	4572
3154.765	4453
3156.553	4411
3158.344	4536
3160.132	4325
3161.922	4475
3163.71	4481
3165.497	4506
3167.285	4476
3169.071	4361
3170.858	4426
3172.645	4385
3174.429	4518
3176.214	4401
3177.998	4467
3179.783	4396
3181.568	4372
3183.351	4466
3185.133	4394
3186.915	4331
3188.698	4500
3190.481	4399
3192.261	4444
3194.042	4434
3195.822	4449
3197.601	4383
3199.381	4416
3201.161	4392
3202.939	4454
3204.717	4389
3206.495	4401
3208.272	4412
3210.05	4369
3211.826	4407
3213.602	4375
3215.376	4488
3217.151	4452
3218.927	4418
3220.702	4447
3222.476	4437
3224.249	4369
3226.021	4453
3227.793	4432
3229.567	4431
3231.339	4387
3233.109	4439
3234.88	4362
3236.651	4359
3238.421	4448
3240.191	4379
3241.96	4398
3243.728	4444
3245.497	4378
3247.263	4495
3249.033	4451
3250.799	4371
3252.566	4411
3254.331	4441
3256.097	4345
3257.863	4451
3259.628	4394
3261.392	4381
3263.156	4339
3264.919	4432
3266.683	4370
3268.447	4480
3270.208	4379
3271.969	4491
3273.731	4319
3275.492	4426
3277.253	4419
3279.013	4343
3280.773	4360
3282.532	4435
3284.291	4466
3286.05	4341
3287.808	4406
3289.566	4308
3291.323	4342
3293.079	4334
3294.835	4287
3296.593	4366
3298.348	4353
3300.102	4337
3301.857	4299
3303.611	4299
3305.366	4330
3307.119	4343
3308.872	4350
3310.624	4413
3312.376	4479
3314.129	4354
3315.881	4370
3317.631	4388
3319.38	4413
3321.13	4348
3322.88	4433
3324.631	4378
3326.379	4340
3328.126	4315
3329.875	4264
3331.622	4332
3333.371	4389
3335.116	4276
3336.863	4421
3338.609	4386
3340.353	4372
3342.1	4397
3343.845	4390
3345.588	4258
3347.332	4337
3349.074	4345
3350.817	4333
3352.56	4346
3354.303	4354
3356.043	4322
3357.785	4375
3359.525	4318
3361.268	4284
3363.007	4308
3364.745	4314
3366.485	4348
3368.223	4336
3369.962	4299
3371.701	4258
3373.438	4397
3375.174	4295
3376.911	4268
3378.647	4365
3380.384	4222
3382.118	4298
3383.854	4303
3385.588	4253
3387.322	4293
3389.057	4277
3390.79	4227
3392.522	4313
3394.255	4200
3395.987	4308
3397.719	4224
3399.451	4334
3401.181	4253
3402.911	4328
3404.641	4281
3406.371	4247
3408.101	4208
3409.83	4235
3411.558	4254
3413.285	4184
3415.011	4200
3416.739	4245
3418.467	4134
3420.193	4186
3421.919	4235
3423.644	4280
3425.368	4163
3427.094	4192
3428.818	4167
3430.542	4242
3432.264	4213
3433.987	4159
3435.712	4215
3437.434	4120
3439.155	4295
3440.876	4243
3442.596	4098
3444.317	4110
3446.039	4207
3447.757	4129
3449.477	4178
3451.195	4182
3452.914	4132
3454.632	4135
3456.35	4083
3458.067	4144
3459.784	4131
3461.5	4164
3463.216	4071
3464.932	4098
3466.647	4053
3468.362	4099
3470.076	4200
3471.789	4032
3473.505	4068
3475.217	4082
3476.929	4042
3478.641	4096
3480.354	4079
3482.066	4005
3483.777	4098
3485.487	4050
3487.197	4114
3488.908	4025
3490.617	3981
3492.327	4042
3494.035	4094
3495.743	4080
3497.451	3933
3499.158	4089
3500.866	4103
3502.572	4062
3504.278	4049
3505.984	4095
3507.689	4011
3509.396	4048
3511.1	3981
3512.804	4041
3514.508	3941
3516.211	4004
3517.913	4046
3519.616	3977
3521.319	3990
3523.021	3975
3524.722	3992
3526.422	3930
3528.124	3938
3529.824	4055
3531.524	3958
3533.222	4036
3534.921	3955
3536.62	3989
3538.318	3984
3540.016	3913
3541.714	3894
3543.41	3863
3545.107	3998
3546.803	4055
3548.5	3988
3550.194	3917
3551.889	3912
3553.583	3954
3555.279	3939
3556.972	3954
3558.666	3878
3560.358	3948
3562.051	4006
3563.742	3945
3565.435	3929
3567.126	3895
3568.817	3873
3570.507	3892
3572.197	3887
3573.888	3929
3575.577	3857
3577.265	3956
3578.954	3970
3580.642	3870
3582.329	3945
3584.017	3881
3585.704	3898
3587.391	3948
3589.077	3863
3590.762	3859
3592.449	3903
3594.133	3817
3595.817	3811
3597.501	3853
3599.185	3853
3600.869	3786
3602.552	3833
3604.234	3869
3605.916	3912
3607.598	3787
3609.279	3803
3610.961	3765
3612.642	3768
3614.321	3788
3616	3780
3617.68	3732
3619.36	3754
3621.039	3768
3622.716	3749
3624.394	3761
3626.071	3796
3627.748	3757
3629.425	3775
3631.102	3726
3632.778	3684
3634.452	3675
3636.127	3699
3637.803	3794
3639.477	3708
3641.151	3784
3642.823	3661
3644.497	3754
3646.171	3755
3647.842	3795
3649.515	3727
3651.185	3723
3652.857	3693
3654.527	3690
3656.198	3739
3657.868	3733
3659.537	3722
3661.207	3726
3662.875	3696
3664.544	3686
3666.212	3673
3667.879	3605
3669.546	3780
3671.212	3649
3672.88	3717
3674.546	3668
3676.211	3734
3677.875	3586
3679.541	3588
3681.205	3707
3682.87	3700
3684.533	3618
3686.196	3643
3687.859	3707
3689.521	3676
3691.184	3643
3692.845	3644
3694.507	3626
3696.167	3622
3697.827	3678
3699.487	3589
3701.148	3597
3702.808	3634
3704.466	3550
3706.125	3635
3707.783	3594
3709.442	3631
3711.099	3637
3712.757	3588
3714.412	3588
3716.068	3655
3717.725	3664
3719.381	3549
3721.036	3608
3722.689	3623
3724.344	3529
3725.998	3669
3727.652	3512
3729.305	3589
3730.958	3632
3732.61	3638
3734.262	3638
3735.915	3539
3737.565	3605
3739.217	3534
3740.866	3531
3742.516	3573
3744.165	3636
3745.816	3553
3747.464	3618
3749.113	3513
3750.761	3550
3752.409	3535
3754.057	3571
3755.703	3509
3757.35	3500
3758.996	3556
3760.641	3533
3762.289	3530
3763.933	3518
3765.577	3564
3767.222	3532
3768.865	3562
3770.508	3539
3772.152	3498
3773.796	3498
3775.438	3519
3777.079	3477
3778.721	3564
3780.363	3652
3782.003	3454
3783.643	3550
3785.283	3430
3786.923	3491
3788.563	3557
3790.203	3433
3791.841	3592
3793.479	3448
3795.115	3456
3796.753	3483
3798.391	3492
3800.027	3399
3801.664	3579
3803.299	3453
3804.935	3488
3806.571	3446
3808.206	3447
3809.839	3496
3811.473	3454
3813.107	3470
3814.74	3412
3816.375	3410
3818.006	3406
3819.638	3424
3821.27	3372
3822.9	3392
3824.532	3405
3826.163	3427
3827.792	3450
3829.423	3484
3831.051	3446
3832.682	3437
3834.311	3344
3835.938	3394
3837.566	3362
3839.193	3369
3840.821	3412
3842.448	3441
3844.075	3362
3845.7	3425
3847.325	3357
3848.951	3439
3850.576	3384
3852.201	3425
3853.825	3395
3855.448	3333
3857.072	3380
3858.694	3285
3860.318	3399
3861.939	3289
3863.562	3382
3865.183	3382
3866.804	3344
3868.426	3396
3870.045	3392
3871.666	3347
3873.285	3328
3874.904	3325
3876.524	3235
3878.142	3320
3879.76	3330
3881.378	3358
3882.995	3253
3884.612	3360
3886.229	3333
3887.845	3363
3889.461	3314
3891.076	3413
3892.691	3307
3894.307	3270
3895.922	3353
3897.536	3225
3899.149	3231
3900.761	3382
3902.374	3360
3903.988	3341
3905.6	3333
3907.212	3347
3908.822	3302
3910.433	3336
3912.045	3306
3913.655	3273
3915.265	3328
3916.875	3279
3918.483	3249
3920.093	3207
3921.702	3271
3923.309	3242
3924.917	3239
3926.523	3286
3928.13	3329
3929.739	3345
3931.344	3331
3932.95	3324
3934.555	3240
3936.159	3277
3937.766	3318
3939.369	3305
3940.974	3262
3942.577	3213
3944.181	3271
3945.783	3279
3947.386	3206
3948.989	3285
3950.59	3274
3952.191	3248
3953.791	3208
3955.394	3254
3956.994	3231
3958.593	3256
3960.192	3278
3961.791	3212
3963.392	3202
3964.99	3224
3966.588	3189
3968.185	3181
3969.782	3206
3971.379	3174
3972.976	3233
3974.572	3267
3976.168	3195
3977.763	3244
3979.358	3196
3980.954	3251
3982.548	3214
3984.142	3135
3985.736	3152
3987.329	3134
3988.922	3200
3990.516	3183
3992.108	3128
3993.698	3081
3995.29	3171
3996.881	3095
3998.473	3122
4000.064	3204
4001.653	3138
4003.242	3156
4004.832	3169
4006.422	3173
4008.01	3093
4009.598	3170
4011.186	3177
4012.773	3128
4014.36	3106
4015.947	3095
4017.534	3131
4019.119	3098
4020.705	3101
4022.291	3115
4023.876	3071
4025.461	3183
4027.044	3085
4028.627	3168
4030.211	3051
4031.795	3005
4033.378	3076
4034.96	3070
4036.542	3058
4038.124	2987
4039.704	3062
4041.286	3060
4042.867	3093
4044.447	2975
4046.026	3073
4047.606	3115
4049.187	3084
4050.765	3065
4052.343	3062
4053.92	3027
4055.498	3044
4057.076	3000
4058.654	2973
4060.23	2959
4061.806	3024
4063.381	3028
4064.957	3052
4066.533	2989
4068.107	2997
4069.682	3065
4071.256	2973
4072.829	2969
4074.404	2935
4075.977	3004
4077.549	3016
4079.121	3002
4080.693	2947
4082.265	2992
4083.836	2979
4085.407	3024
4086.977	3032
4088.547	3000
4090.117	3018
4091.687	2976
4093.256	3040
4094.825	2957
4096.392	2958
4097.96	2997
4099.528	2950
4101.097	3050
4102.663	2910
4104.229	2951
4105.795	3010
4107.361	2938
4108.928	2945
4110.493	2963
4112.058	2953
4113.621	2963
4115.186	2955
4116.75	2902
4118.313	2961
4119.876	2894
4121.438	3001
4123	2929
4124.562	2954
4126.125	2938
4127.686	2933
4129.246	2909
4130.807	2944
4132.367	2881
4133.927	2938
4135.486	2929
4137.046	2838
4138.604	2964
4140.162	2922
4141.72	2854
4143.279	2946
4144.836	2897
4146.393	2890
4147.949	2911
4149.505	2863
4151.062	2802
4152.617	2798
4154.172	2865
4155.727	2936
4157.281	2855
4158.836	2825
4160.39	2919
4161.943	2873
4163.496	2886
4165.048	2835
4166.601	2882
4168.154	2880
4169.706	2839
4171.257	2830
4172.808	2828
4174.358	2896
4175.909	2812
4177.458	2849
4179.008	2811
4180.558	2840
4182.106	2823
4183.655	2768
4185.204	2785
4186.751	2831
4188.298	2846
4189.845	2800
4191.392	2760
4192.939	2799
4194.485	2806
4196.031	2834
4197.576	2821
4199.121	2743
4200.666	2801
4202.211	2775
4203.754	2772
4205.298	2703
4206.84	2802
4208.384	2757
4209.927	2768
4211.47	2781
4213.011	2800
4214.552	2741
4216.094	2787
4217.635	2689
4219.175	2719
4220.716	2755
4222.255	2769
4223.793	2806
4225.335	2734
4226.873	2742
4228.411	2807
4229.948	2731
4231.486	2766
4233.024	2749
4234.562	2730
4236.098	2851
4237.634	2756
4239.169	2715
4240.705	2763
4242.241	2749
4243.776	2726
4245.31	2699
4246.844	2703
4248.378	2734
4249.911	2743
4251.445	2780
4252.978	2753
4254.51	2684
4256.042	2699
4257.574	2677
4259.107	2774
4260.638	2657
4262.169	2695
4263.699	2717
4265.228	2714
4266.759	2669
4268.289	2713
4269.818	2656
4271.345	2763
4272.874	2676
4274.402	2700
4275.931	2731
4277.458	2675
4278.985	2693
4280.512	2656
4282.037	2683
4283.564	2738
4285.089	2690
4286.615	2687
4288.139	2691
4289.664	2651
4291.187	2701
4292.712	2632
4294.235	2637
4295.759	2589
4297.281	2606
4298.804	2619
4300.327	2619
4301.849	2611
4303.37	2615
4304.891	2688
4306.412	2716
4307.933	2637
4309.453	2654
4310.973	2595
4312.492	2683
