398.1873	4372
400.7097	4367
403.2336	4393
405.7547	4402
408.2751	4456
410.7948	4348
413.3138	4423
415.83	4499
418.3497	4473
420.8666	4652
423.3829	4505
425.8985	4565
428.4133	4615
430.9275	4617
433.441	4602
435.9538	4715
438.4639	4594
440.9753	4677
443.4881	4632
445.9982	4736
448.5055	4621
451.0142	4612
453.5201	4672
456.0274	4663
458.5361	4644
461.04	4679
463.5453	4624
466.0478	4714
468.5517	4681
471.0549	4607
473.5574	4661
476.0572	4698
478.5584	4706
481.0568	4675
483.5545	4761
486.0557	4606
488.5521	4769
491.0478	4702
493.5449	4749
496.0392	4723
498.5349	4753
501.0299	4779
503.5222	4855
506.0139	4822
508.5048	4876
510.9991	4897
513.4887	4777
515.9777	4798
518.4659	4810
520.9534	4840
523.4403	4773
525.9306	4758
528.4161	4767
530.9009	4842
533.3851	4885
535.8687	4889
538.3535	4842
540.8356	4825
543.3171	4822
545.7979	4835
548.278	4868
550.7595	4818
553.2383	4891
555.7144	4971
558.1918	4855
560.6685	4894
563.1446	4890
565.6221	4971
568.0968	4961
570.5688	5021
573.0422	4942
575.515	4999
577.989	5057
580.4584	5016
582.9291	5077
585.3991	4958
587.8685	5139
590.3352	5022
592.8052	5052
595.2706	4966
597.7372	4890
600.2033	5035
602.6666	4998
605.1334	5027
607.5953	4967
610.0587	4865
612.5193	5035
614.9814	5016
617.4427	4894
619.9034	4993
622.3615	4965
624.8208	5005
627.2775	4947
629.7335	5040
632.1929	4955
634.6476	4934
637.1016	5064
639.5569	4988
642.0096	4992
644.4637	5029
646.9151	4946
649.3678	5134
651.8179	5052
654.2672	5127
656.7159	5024
659.166	4981
661.6154	5106
664.0622	5068
666.5082	5104
668.9537	4991
671.4005	5146
673.8445	5071
676.288	5034
678.7308	5103
681.1729	5125
683.6163	5119
686.0572	5152
688.4973	5202
690.9368	5169
693.3757	5272
695.8138	5173
698.2534	5091
700.6902	5194
703.1245	5248
705.56	5194
707.9949	5153
710.4311	5262
712.8647	5329
715.2957	5275
717.7279	5192
720.1595	5206
722.5905	5233
725.0208	5240
727.4505	5271
729.8795	5299
732.3058	5418
734.7336	5394
737.1626	5341
739.587	5348
742.0128	5506
744.4359	5458
746.8604	5409
749.2841	5390
751.7073	5526
754.1278	5558
756.5496	5369
758.9688	5522
761.3893	5410
763.8093	5542
766.2285	5562
768.6451	5612
771.0611	5575
773.4784	5575
775.895	5526
778.3091	5508
780.7244	5467
783.1371	5551
785.5493	5591
787.9626	5459
790.3754	5498
792.7856	5454
795.1951	5490
797.6039	5523
800.0121	5560
802.4236	5537
804.8306	5620
807.2369	5523
809.6425	5667
812.0475	5658
814.4538	5665
816.8575	5665
819.2606	5519
821.663	5612
824.0648	5555
826.4659	5642
828.8683	5605
831.2682	5602
833.6674	5604
836.066	5572
838.4639	5696
840.8632	5666
843.2579	5783
845.6539	5704
848.0493	5648
850.444	5787
852.84	5685
855.2315	5694
857.6243	5788
860.0165	5642
862.4081	5653
864.797	5615
867.1892	5666
869.5789	5746
871.9659	5600
874.3542	5679
876.74	5631
879.129	5740
881.5155	5785
883.8994	5781
886.2845	5657
888.6671	5704
891.051	5705
893.4343	5718
895.8169	5667
898.197	5672
900.5783	5611
902.9571	5819
905.3372	5689
907.7167	5729
910.0936	5670
912.4698	5750
914.8474	5870
917.2244	5846
919.5987	5942
921.9744	5928
924.3475	5882
926.72	5889
929.0918	5980
931.4669	6038
933.8375	6014
936.2074	5976
938.5767	6090
940.9454	6104
943.3154	6130
945.6829	6241
948.0497	6319
950.4178	6672
952.7833	6748
955.1483	7041
957.5145	7167
959.8782	7351
962.2412	7377
964.6036	7075
966.9655	6918
969.3266	6638
971.6871	6562
974.0471	6283
976.4064	6073
978.765	6049
981.125	5911
983.4824	5959
985.8373	5916
988.1935	5827
990.549	5914
992.9039	5939
995.2602	5951
997.6119	5949
999.965	5952
1002.317	6028
1004.667	5973
1007.02	5925
1009.371	5932
1011.719	5857
1014.068	5861
1016.415	5932
1018.765	5922
1021.111	5991
1023.458	5988
1025.804	5935
1028.147	6102
1030.49	5935
1032.837	5971
1035.179	6205
1037.522	6019
1039.862	5980
1042.204	6132
1044.546	6095
1046.884	5990
1049.224	6006
1051.562	6026
1053.899	6061
1056.237	6090
1058.575	6118
1060.91	6009
1063.244	6152
1065.58	6295
1067.913	6184
1070.248	6098
1072.579	6180
1074.911	6211
1077.242	6251
1079.572	6231
1081.905	6100
1084.234	6012
1086.562	6068
1088.89	6062
1091.217	6011
1093.544	5983
1095.871	5962
1098.197	6092
1100.521	6104
1102.845	6073
1105.169	6181
1107.491	6053
1109.814	6029
1112.135	6008
1114.456	6059
1116.776	5998
1119.096	6096
1121.415	6038
1123.734	6156
1126.052	6147
1128.369	6097
1130.686	6128
1133.002	5966
1135.318	6000
1137.632	6006
1139.945	6014
1142.258	5850
1144.573	6002
1146.884	6105
1149.196	6112
1151.505	6143
1153.816	6142
1156.124	6050
1158.435	6153
1160.742	6081
1163.051	6048
1165.356	6167
1167.663	6038
1169.97	6094
1172.276	6085
1174.579	6115
1176.881	6169
1179.186	6070
1181.487	6014
1183.79	6121
1186.092	6048
1188.392	6049
1190.691	5979
1192.991	6151
1195.291	6186
1197.588	6110
1199.885	6153
1202.181	6090
1204.479	5965
1206.775	6150
1209.07	6050
1211.363	6157
1213.656	6089
1215.949	6136
1218.241	6259
1220.534	6094
1222.825	6160
1225.115	6259
1227.405	6218
1229.693	6226
1231.984	6253
1234.271	6228
1236.558	6311
1238.845	6350
1241.131	6383
1243.416	6314
1245.703	6387
1247.987	6366
1250.269	6386
1252.552	6444
1254.834	6271
1257.118	6341
1259.399	6194
1261.678	6327
1263.958	6306
1266.237	6379
1268.516	6391
1270.794	6348
1273.072	6364
1275.347	6236
1277.624	6357
1279.899	6159
1282.175	6344
1284.449	6206
1286.722	6290
1288.995	6240
1291.266	6279
1293.54	6144
1295.81	6173
1298.081	6229
1300.35	6305
1302.62	6090
1304.889	6220
1307.156	6227
1309.425	6244
1311.69	6171
1313.957	6231
1316.222	6262
1318.488	6256
1320.751	6241
1323.016	6225
1325.278	6176
1327.54	6200
1329.803	6277
1332.065	6320
1334.325	6310
1336.584	6307
1338.843	6192
1341.101	6323
1343.36	6310
1345.617	6251
1347.876	6264
1350.131	6210
1352.387	6237
1354.643	6295
1356.897	6222
1359.151	6248
1361.403	6334
1363.656	6356
1365.909	6311
1368.16	6335
1370.409	6345
1372.659	6352
1374.909	6346
1377.157	6399
1379.407	6196
1381.655	6301
1383.9	6409
1386.147	6333
1388.393	6379
1390.64	6467
1392.885	6369
1395.127	6426
1397.37	6413
1399.614	6407
1401.854	6459
1404.098	6440
1406.339	6374
1408.578	6454
1410.818	6424
1413.056	6396
1415.297	6424
1417.533	6454
1419.771	6443
1422.006	6590
1424.243	6558
1426.479	6438
1428.715	6521
1430.948	6562
1433.182	6454
1435.414	6556
1437.647	6484
1439.88	6505
1442.11	6499
1444.342	6587
1446.571	6544
1448.799	6604
1451.029	6576
1453.258	6590
1455.485	6577
1457.711	6610
1459.937	6515
1462.164	6624
1464.39	6559
1466.614	6426
1468.838	6443
1471.06	6443
1473.283	6434
1475.506	6457
1477.727	6427
1479.949	6573
1482.169	6327
1484.389	6354
1486.609	6451
1488.828	6459
1491.045	6397
1493.261	6308
1495.477	6486
1497.693	6468
1499.91	6247
1502.125	6270
1504.339	6355
1506.553	6401
1508.766	6334
1510.979	6277
1513.191	6273
1515.402	6298
1517.613	6240
1519.823	6375
1522.033	6275
1524.242	6320
1526.451	6435
1528.657	6285
1530.865	6414
1533.072	6254
1535.278	6384
1537.484	6404
1539.687	6374
1541.892	6283
1544.096	6399
1546.299	6490
1548.502	6415
1550.703	6408
1552.905	6562
1555.104	6315
1557.303	6436
1559.505	6316
1561.703	6493
1563.902	6340
1566.099	6529
1568.295	6468
1570.494	6415
1572.689	6479
1574.883	6624
1577.079	6555
1579.272	6515
1581.467	6606
1583.659	6525
1585.853	6618
1588.044	6507
1590.234	6543
1592.424	6525
1594.615	6654
1596.806	6521
1598.994	6606
1601.182	6632
1603.369	6513
1605.557	6539
1607.744	6576
1609.929	6600
1612.114	6705
1614.298	6664
1616.482	6657
1618.667	6563
1620.85	6647
1623.032	6547
1625.214	6571
1627.395	6669
1629.575	6639
1631.755	6635
1633.935	6587
1636.114	6744
1638.292	6734
1640.471	6717
1642.647	6663
1644.823	6690
1647	6584
1649.175	6636
1651.348	6569
1653.525	6496
1655.698	6752
1657.87	6695
1660.043	6701
1662.213	6815
1664.387	6632
1666.558	6740
1668.727	6893
1670.896	6734
1673.064	6790
1675.233	6651
1677.401	6751
1679.569	6815
1681.735	6650
1683.902	6692
1686.066	6662
1688.233	6653
1690.397	6671
1692.559	6696
1694.723	6675
1696.885	6776
1699.048	6555
1701.21	6644
1703.37	6576
1705.53	6580
1707.689	6682
1709.849	6573
1712.009	6664
1714.166	6644
1716.323	6599
1718.479	6651
1720.634	6625
1722.793	6554
1724.948	6618
1727.102	6605
1729.255	6583
1731.408	6565
1733.562	6543
1735.714	6559
1737.865	6594
1740.016	6537
1742.166	6564
1744.316	6615
1746.467	6540
1748.616	6667
1750.764	6674
1752.911	6558
1755.056	6643
1757.205	6665
1759.35	6679
1761.496	6678
1763.641	6538
1765.785	6721
1767.927	6763
1770.072	6680
1772.214	6678
1774.355	6584
1776.496	6648
1778.637	6789
1780.778	6704
1782.918	6684
1785.057	6679
1787.194	6763
1789.333	6709
1791.472	6723
1793.608	6776
1795.745	6672
1797.879	6725
1800.015	6728
1802.148	6669
1804.284	6753
1806.417	6756
1808.548	6669
1810.682	6620
1812.812	6729
1814.946	6708
1817.075	6620
1819.205	6700
1821.335	6703
1823.463	6712
1825.59	6818
1827.721	6723
1829.847	6602
1831.973	6764
1834.098	6605
1836.223	6699
1838.351	6691
1840.475	6605
1842.598	6725
1844.721	6705
1846.843	6627
1848.966	6730
1851.087	6664
1853.21	6631
1855.33	6668
1857.449	6643
1859.568	6569
1861.688	6530
1863.806	6624
1865.924	6554
1868.039	6698
1870.155	6723
1872.273	6645
1874.388	6662
1876.503	6604
1878.617	6638
1880.73	6668
1882.844	6726
1884.956	6686
1887.068	6693
1889.18	6605
1891.291	6746
1893.4	6705
1895.511	6537
1897.621	6747
1899.73	6651
1901.837	6736
1903.944	6769
1906.053	6661
1908.159	6787
1910.265	6768
1912.369	6767
1914.474	6776
1916.577	6788
1918.683	6778
1920.785	6773
1922.888	6883
1924.989	6768
1927.091	6749
1929.193	6853
1931.294	6818
1933.393	6806
1935.493	6800
1937.59	6813
1939.689	6843
1941.788	6782
1943.884	6793
1945.98	6680
1948.077	6671
1950.171	6762
1952.267	6780
1954.361	6733
1956.455	6779
1958.548	6722
1960.64	6758
1962.733	6841
1964.824	6764
1966.915	6757
1969.005	6786
1971.096	6841
1973.185	6850
1975.275	6744
1977.363	6801
1979.45	6687
1981.537	6748
1983.623	6645
1985.711	6814
1987.796	6782
1989.881	6695
1991.965	6772
1994.047	6790
1996.132	6690
1998.215	6800
2000.297	6750
2002.378	6738
2004.46	6646
2006.54	6647
2008.62	6679
2010.7	6754
2012.779	6724
2014.858	6670
2016.934	6606
2019.013	6785
2021.09	6696
2023.165	6698
2025.241	6790
2027.317	6715
2029.39	6771
2031.466	6685
2033.538	6767
2035.612	6698
2037.683	6801
2039.755	6805
2041.827	6809
2043.898	6655
2045.968	6706
2048.038	6726
2050.106	6643
2052.177	6726
2054.244	6738
2056.313	6726
2058.379	6795
2060.444	6801
2062.511	6820
2064.577	6692
2066.641	6747
2068.705	6679
2070.77	6802
2072.832	6745
2074.896	6751
2076.958	6868
2079.02	6877
2081.081	6708
2083.141	6778
2085.2	6820
2087.261	6763
2089.319	6745
2091.377	6727
2093.435	6795
2095.492	6759
2097.552	6710
2099.607	6862
2101.663	6803
2103.718	6815
2105.771	6729
2107.826	6871
2109.879	6796
2111.932	6825
2113.985	6699
2116.037	6794
2118.088	6751
2120.141	6725
2122.191	6793
2124.239	6749
2126.288	6858
2128.337	6655
2130.387	6684
2132.434	6862
2134.481	6918
2136.528	6845
2138.574	6823
2140.618	6769
2142.665	6801
2144.71	6696
2146.753	6813
2148.797	6714
2150.838	6754
2152.883	6643
2154.923	6753
2156.965	6794
2159.007	6541
2161.046	6717
2163.086	6669
2165.126	6515
2167.163	6652
2169.202	6884
2171.239	6670
2173.277	6630
2175.314	6642
2177.349	6642
2179.385	6714
2181.42	6676
2183.453	6568
2185.49	6676
2187.522	6699
2189.555	6708
2191.586	6614
2193.619	6694
2195.651	6685
2197.682	6571
2199.711	6661
2201.74	6594
2203.769	6681
2205.799	6662
2207.828	6799
2209.855	6741
2211.882	6624
2213.908	6621
2215.934	6642
2217.961	6651
2219.986	6647
2222.01	6581
2224.034	6687
2226.057	6666
2228.08	6592
2230.104	6581
2232.124	6728
2234.145	6617
2236.166	6525
2238.186	6670
2240.207	6570
2242.227	6678
2244.244	6570
2246.262	6570
2248.28	6694
2250.299	6526
2252.314	6607
2254.33	6625
2256.346	6606
2258.36	6521
2260.375	6727
2262.391	6578
2264.403	6592
2266.416	6638
2268.427	6731
2270.44	6645
2272.453	6655
2274.463	6563
2276.474	6603
2278.483	6680
2280.493	6732
2282.501	6570
2284.51	6640
2286.518	6686
2288.524	6583
2290.532	6689
2292.537	6552
2294.544	6546
2296.55	6614
2298.554	6621
2300.557	6682
2302.562	6499
2304.566	6586
2306.568	6565
2308.569	6627
2310.572	6729
2312.573	6644
2314.573	6390
2316.574	6553
2318.573	6601
2320.571	6561
2322.571	6680
2324.569	6564
2326.567	6610
2328.564	6518
2330.56	6587
2332.556	6605
2334.551	6623
2336.546	6562
2338.542	6543
2340.535	6475
2342.529	6522
2344.521	6534
2346.512	6416
2348.505	6569
2350.497	6578
2352.487	6629
2354.478	6542
2356.468	6584
2358.457	6533
2360.446	6471
2362.434	6526
2364.422	6491
2366.408	6549
2368.395	6457
2370.383	6568
2372.369	6536
2374.353	6559
2376.338	6454
2378.321	6534
2380.307	6660
2382.29	6407
2384.272	6514
2386.254	6495
2388.235	6506
2390.218	6543
2392.198	6547
2394.179	6411
2396.157	6398
2398.137	6551
2400.115	6385
2402.095	6468
2404.072	6515
2406.048	6540
2408.026	6444
2410.001	6440
2411.977	6382
2413.953	6524
2415.927	6503
2417.9	6492
2419.875	6516
2421.847	6440
2423.821	6620
2425.792	6362
2427.763	6420
2429.736	6387
2431.706	6345
2433.677	6437
2435.646	6439
2437.615	6553
2439.583	6450
2441.551	6518
2443.519	6546
2445.486	6497
2447.452	6559
2449.418	6358
2451.383	6335
2453.348	6370
2455.314	6444
2457.278	6447
2459.241	6435
2461.205	6364
2463.167	6283
2465.131	6520
2467.091	6443
2469.052	6361
2471.012	6552
2472.972	6407
2474.932	6437
2476.891	6516
2478.85	6375
2480.808	6339
2482.766	6379
2484.722	6405
2486.68	6372
2488.636	6315
2490.591	6422
2492.546	6350
2494.5	6419
2496.456	6244
2498.41	6408
2500.362	6320
2502.315	6276
2504.266	6328
2506.218	6365
2508.169	6421
2510.121	6393
2512.07	6389
2514.019	6363
2515.968	6438
2517.918	6428
2519.866	6358
2521.813	6299
2523.76	6360
2525.707	6340
2527.653	6400
2529.599	6397
2531.543	6292
2533.489	6275
2535.433	6390
2537.376	6333
2539.32	6436
2541.264	6399
2543.205	6308
2545.147	6301
2547.087	6418
2549.029	6282
2550.969	6305
2552.908	6357
2554.847	6390
2556.786	6325
2558.724	6355
2560.663	6246
2562.6	6348
2564.537	6467
2566.473	6411
2568.408	6352
2570.345	6350
2572.28	6439
2574.214	6305
2576.148	6370
2578.081	6277
2580.014	6302
2581.947	6331
2583.879	6359
2585.81	6308
2587.741	6292
2589.67	6381
2591.602	6392
2593.532	6199
2595.461	6335
2597.388	6354
2599.316	6359
2601.244	6450
2603.172	6340
2605.098	6401
2607.023	6440
2608.949	6489
2610.873	6238
2612.8	6361
2614.723	6292
2616.647	6267
2618.569	6381
2620.493	6337
2622.416	6338
2624.338	6288
2626.258	6366
2628.179	6349
2630.099	6323
2632.019	6441
2633.939	6317
2635.857	6370
2637.775	6439
2639.694	6309
2641.61	6433
2643.528	6414
2645.444	6281
2647.361	6324
2649.276	6468
2651.19	6300
2653.105	6351
2655.019	6392
2656.934	6449
2658.846	6405
2660.758	6315
2662.67	6349
2664.583	6370
2666.493	6427
2668.404	6359
2670.313	6309
2672.223	6346
2674.134	6291
2676.042	6335
2677.95	6350
2679.858	6377
2681.765	6426
2683.673	6254
2685.579	6254
2687.483	6381
2689.389	6346
2691.294	6383
2693.198	6400
2695.104	6297
2697.006	6384
2698.909	6290
2700.811	6357
2702.713	6234
2704.615	6406
2706.516	6254
2708.417	6243
2710.316	6281
2712.216	6216
2714.115	6321
2716.014	6359
2717.913	6316
2719.81	6266
2721.707	6307
2723.603	6350
2725.501	6233
2727.396	6259
2729.292	6271
2731.186	6222
2733.081	6267
2734.976	6362
2736.87	6258
2738.762	6208
2740.653	6258
2742.546	6256
2744.437	6250
2746.329	6331
2748.22	6319
2750.11	6282
2751.999	6220
2753.889	6272
2755.778	6311
2757.666	6171
2759.553	6178
2761.44	6262
2763.328	6194
2765.215	6318
2767.101	6261
2768.986	6266
2770.87	6240
2772.754	6222
2774.638	6264
2776.523	6294
2778.405	6162
2780.288	6113
2782.17	6327
2784.051	6178
2785.934	6287
2787.814	6237
2789.694	6294
2791.574	6021
2793.453	6213
2795.332	6272
2797.212	6194
2799.088	6213
2800.966	6225
2802.843	6185
2804.719	6195
2806.597	6147
2808.471	6184
2810.346	6335
2812.221	6184
2814.094	6151
2815.969	6130
2817.843	6205
2819.714	6277
2821.587	6269
2823.459	6205
2825.329	6189
2827.202	6189
2829.072	6223
2830.942	6253
2832.811	6169
2834.68	6243
2836.549	6297
2838.418	6241
2840.284	6233
2842.152	6301
2844.018	6262
2845.885	6179
2847.751	6221
2849.616	6300
2851.482	6112
2853.345	6268
2855.208	6240
2857.074	6232
2858.937	6278
2860.799	6343
2862.66	6297
2864.522	6296
2866.385	6334
2868.245	6336
2870.104	6387
2871.964	6398
2873.824	6445
2875.683	6493
2877.542	6506
2879.4	6569
2881.257	6564
2883.114	6606
2884.97	6655
2886.827	6604
2888.683	6581
2890.537	6649
2892.392	6520
2894.246	6554
2896.1	6600
2897.954	6529
2899.807	6569
2901.66	6629
2903.51	6562
2905.362	6561
2907.214	6555
2909.065	6600
2910.915	6757
2912.765	6772
2914.613	6707
2916.463	6681
2918.311	6804
2920.158	6801
2922.006	6797
2923.853	6868
2925.698	6919
2927.546	6874
2929.392	6983
2931.236	7024
2933.081	7111
2934.924	7125
2936.77	7198
2938.613	7168
2940.455	7266
2942.298	7195
2944.139	7230
2945.982	7374
2947.823	7181
2949.662	7182
2951.503	7118
2953.342	7163
2955.182	7113
2957.021	7085
2958.858	7045
2960.697	7009
2962.534	7037
2964.37	6943
2966.207	6881
2968.044	6783
2969.879	6787
2971.714	6706
2973.548	6655
2975.383	6690
2977.218	6699
2979.051	6778
2980.883	6565
2982.715	6570
2984.547	6529
2986.379	6593
2988.21	6634
2990.04	6631
2991.87	6419
2993.7	6383
2995.53	6491
2997.359	6468
2999.187	6364
3001.015	6392
3002.842	6295
3004.669	6162
3006.497	6315
3008.323	6251
3010.148	6208
3011.974	6179
3013.797	6218
3015.623	6181
3017.447	5969
3019.27	6027
3021.094	6096
3022.915	6047
3024.737	5911
3026.56	5995
3028.38	5967
3030.201	6005
3032.022	6026
3033.84	5988
3035.662	5971
3037.481	5911
3039.298	5941
3041.117	5945
3042.933	6015
3044.752	5804
3046.568	6066
3048.385	5919
3050.2	5946
3052.016	5833
3053.83	5935
3055.646	6047
3057.46	5908
3059.272	5915
3061.086	5805
3062.898	5847
3064.711	5962
3066.524	5892
3068.335	5939
3070.145	5965
3071.956	5776
3073.766	5954
3075.576	5921
3077.385	5909
3079.193	5922
3081.002	5881
3082.81	5727
3084.618	5788
3086.425	5803
3088.231	5831
3090.036	5667
3091.842	5884
3093.648	5738
3095.452	5768
3097.257	5939
3099.06	5729
3100.863	5768
3102.666	5771
3104.47	5730
3106.272	5768
3108.073	5805
3109.875	5725
3111.676	5840
3113.477	5758
3115.277	5638
3117.077	5652
3118.874	5745
3120.673	5807
3122.473	5745
3124.271	5637
3126.066	5631
3127.863	5741
3129.66	5664
3131.456	5668
3133.252	5697
3135.047	5636
3136.842	5665
3138.635	5591
3140.429	5692
3142.223	5661
3144.016	5676
3145.808	5708
3147.6	5626
3149.392	5593
3151.183	5650
3152.975	5623
3154.765	5677
3156.553	5577
3158.344	5675
3160.132	5617
3161.922	5565
3163.71	5587
3165.497	5605
3167.285	5530
3169.071	5656
3170.858	5707
3172.645	5628
3174.429	5600
3176.214	5665
3177.998	5619
3179.783	5410
3181.568	5638
3183.351	5494
3185.133	5553
3186.915	5690
3188.698	5603
3190.481	5633
3192.261	5588
3194.042	5650
3195.822	5575
3197.601	5572
3199.381	5494
3201.161	5629
3202.939	5576
3204.717	5606
3206.495	5523
3208.272	5525
3210.05	5561
3211.826	5588
3213.602	5612
3215.376	5454
3217.151	5596
3218.927	5691
3220.702	5607
3222.476	5562
3224.249	5504
3226.021	5558
3227.793	5564
3229.567	5530
3231.339	5506
3233.109	5498
3234.88	5546
3236.651	5487
3238.421	5537
3240.191	5493
3241.96	5615
3243.728	5573
3245.497	5624
3247.263	5470
3249.033	5496
3250.799	5635
3252.566	5539
3254.331	5554
3256.097	5477
3257.863	5457
3259.628	5484
3261.392	5562
3263.156	5554
3264.919	5471
3266.683	5458
3268.447	5561
3270.208	5554
3271.969	5503
3273.731	5547
3275.492	5540
3277.253	5637
3279.013	5471
3280.773	5625
3282.532	5521
3284.291	5511
3286.05	5497
3287.808	5482
3289.566	5570
3291.323	5546
3293.079	5476
3294.835	5521
3296.593	5539
3298.348	5462
3300.102	5517
3301.857	5501
3303.611	5606
3305.366	5586
3307.119	5560
3308.872	5580
3310.624	5501
3312.376	5550
3314.129	5524
3315.881	5559
3317.631	5720
3319.38	5537
3321.13	5505
3322.88	5593
3324.631	5473
3326.379	5458
3328.126	5517
3329.875	5500
3331.622	5563
3333.371	5572
3335.116	5500
3336.863	5504
3338.609	5540
3340.353	5473
3342.1	5472
3343.845	5486
3345.588	5340
3347.332	5512
3349.074	5506
3350.817	5498
3352.56	5415
3354.303	5511
3356.043	5455
3357.785	5470
3359.525	5424
3361.268	5448
3363.007	5452
3364.745	5416
3366.485	5460
3368.223	5404
3369.962	5290
3371.701	5422
3373.438	5323
3375.174	5404
3376.911	5299
3378.647	5367
3380.384	5437
3382.118	5411
3383.854	5425
3385.588	5363
3387.322	5402
3389.057	5393
3390.79	5464
3392.522	5410
3394.255	5416
3395.987	5374
3397.719	5271
3399.451	5393
3401.181	5291
3402.911	5329
3404.641	5410
3406.371	5305
3408.101	5269
3409.83	5252
3411.558	5292
3413.285	5391
3415.011	5380
3416.739	5380
3418.467	5271
3420.193	5266
3421.919	5293
3423.644	5309
3425.368	5387
3427.094	5293
3428.818	5292
3430.542	5314
3432.264	5250
3433.987	5268
3435.712	5346
3437.434	5070
3439.155	5242
3440.876	5232
3442.596	5261
3444.317	5294
3446.039	5310
3447.757	5184
3449.477	5199
3451.195	5247
3452.914	5190
3454.632	5138
3456.35	5141
3458.067	5176
3459.784	5108
3461.5	5133
3463.216	5117
3464.932	5102
3466.647	5186
3468.362	5183
3470.076	5127
3471.789	5150
3473.505	5158
3475.217	5167
3476.929	5106
3478.641	5083
3480.354	5055
3482.066	5107
3483.777	5116
3485.487	5149
3487.197	5219
3488.908	5092
3490.617	5069
3492.327	5032
3494.035	5042
3495.743	5096
3497.451	5056
3499.158	5002
3500.866	5005
3502.572	5011
3504.278	5062
3505.984	5074
3507.689	5045
3509.396	5064
3511.1	5055
3512.804	5065
3514.508	4999
3516.211	5102
3517.913	4921
3519.616	5110
3521.319	4953
3523.021	4913
3524.722	5008
3526.422	4957
3528.124	4922
3529.824	4946
3531.524	5041
3533.222	4978
3534.921	4951
3536.62	4908
3538.318	4927
3540.016	4919
3541.714	4894
3543.41	4847
3545.107	4981
3546.803	4889
3548.5	4839
3550.194	4914
3551.889	4859
3553.583	4847
3555.279	4901
3556.972	4952
3558.666	4895
3560.358	4924
3562.051	4830
3563.742	4926
3565.435	4886
3567.126	4868
3568.817	4902
3570.507	4933
3572.197	4711
3573.888	4841
3575.577	4906
3577.265	4841
3578.954	4794
3580.642	4833
3582.329	4761
3584.017	4834
3585.704	4863
3587.391	4813
3589.077	4864
3590.762	4807
3592.449	4907
3594.133	4782
3595.817	4869
3597.501	4836
3599.185	4774
3600.869	4804
3602.552	4709
3604.234	4768
3605.916	4700
3607.598	4785
3609.279	4706
3610.961	4655
3612.642	4701
3614.321	4735
3616	4706
3617.68	4685
3619.36	4705
3621.039	4728
3622.716	4628
3624.394	4719
3626.071	4704
3627.748	4676
3629.425	4590
3631.102	4562
3632.778	4721
3634.452	4548
3636.127	4720
3637.803	4655
3639.477	4541
3641.151	4643
3642.823	4591
3644.497	4557
3646.171	4732
3647.842	4595
3649.515	4664
3651.185	4535
3652.857	4562
3654.527	4520
3656.198	4563
3657.868	4527
3659.537	4598
3661.207	4603
3662.875	4585
3664.544	4591
3666.212	4646
3667.879	4537
3669.546	4554
3671.212	4547
3672.88	4563
3674.546	4555
3676.211	4474
3677.875	4600
3679.541	4539
3681.205	4511
3682.87	4515
3684.533	4452
3686.196	4503
3687.859	4545
3689.521	4562
3691.184	4489
3692.845	4624
3694.507	4505
3696.167	4543
3697.827	4481
3699.487	4570
3701.148	4567
3702.808	4422
3704.466	4534
3706.125	4459
3707.783	4519
3709.442	4475
3711.099	4564
3712.757	4389
3714.412	4475
3716.068	4420
3717.725	4482
3719.381	4396
3721.036	4485
3722.689	4351
3724.344	4388
3725.998	4445
3727.652	4482
3729.305	4520
3730.958	4525
3732.61	4482
3734.262	4377
3735.915	4341
3737.565	4549
3739.217	4355
3740.866	4387
3742.516	4437
3744.165	4469
3745.816	4356
3747.464	4427
3749.113	4402
3750.761	4488
3752.409	4380
3754.057	4407
3755.703	4399
3757.35	4361
3758.996	4352
3760.641	4415
3762.289	4364
3763.933	4371
3765.577	4325
3767.222	4462
3768.865	4456
3770.508	4290
3772.152	4346
3773.796	4379
3775.438	4321
3777.079	4334
3778.721	4381
3780.363	4365
3782.003	4308
3783.643	4415
3785.283	4238
3786.923	4333
3788.563	4296
3790.203	4335
3791.841	4333
3793.479	4405
3795.115	4309
3796.753	4318
3798.391	4282
3800.027	4377
3801.664	4305
3803.299	4298
3804.935	4311
3806.571	4288
3808.206	4294
3809.839	4348
3811.473	4235
3813.107	4234
3814.74	4210
3816.375	4264
3818.006	4286
3819.638	4252
3821.27	4194
3822.9	4246
3824.532	4177
3826.163	4216
3827.792	4221
3829.423	4222
3831.051	4311
3832.682	4150
3834.311	4237
3835.938	4246
3837.566	4261
3839.193	4154
3840.821	4217
3842.448	4235
3844.075	4165
3845.7	4148
3847.325	4259
3848.951	4162
3850.576	4207
3852.201	4216
3853.825	4217
3855.448	4127
3857.072	4194
3858.694	4108
3860.318	4156
3861.939	4126
3863.562	4189
3865.183	4188
3866.804	4081
3868.426	4143
3870.045	4185
3871.666	4154
3873.285	4207
3874.904	4160
3876.524	4143
3878.142	4110
3879.76	4104
3881.378	4178
3882.995	4132
3884.612	4148
3886.229	4122
3887.845	4092
3889.461	4047
3891.076	4055
3892.691	4125
3894.307	4145
3895.922	4124
3897.536	4076
3899.149	4112
3900.761	4079
3902.374	4075
3903.988	4062
3905.6	4040
3907.212	4051
3908.822	4065
3910.433	3950
3912.045	4033
3913.655	4070
3915.265	4087
3916.875	4048
3918.483	4151
3920.093	4045
3921.702	4033
3923.309	4036
3924.917	4018
3926.523	4083
3928.13	4050
3929.739	4058
3931.344	3971
3932.95	4044
3934.555	4001
3936.159	3955
3937.766	4077
3939.369	4008
3940.974	4136
3942.577	4027
3944.181	4074
3945.783	3982
3947.386	4053
3948.989	4027
3950.59	3929
3952.191	3977
3953.791	4000
3955.394	4055
3956.994	3944
3958.593	3961
3960.192	4015
3961.791	4024
3963.392	3966
3964.99	3981
3966.588	3885
3968.185	4049
3969.782	3950
3971.379	3996
3972.976	3966
3974.572	3922
3976.168	4001
3977.763	3951
3979.358	3928
3980.954	3923
3982.548	3997
3984.142	3845
3985.736	3926
3987.329	3909
3988.922	4018
3990.516	3873
3992.108	3899
3993.698	3922
3995.29	3903
3996.881	3921
3998.473	3899
4000.064	3887
4001.653	3898
4003.242	3819
4004.832	3788
4006.422	3869
4008.01	3817
4009.598	3917
4011.186	3809
4012.773	3841
4014.36	3899
4015.947	3750
4017.534	3829
4019.119	3816
4020.705	3832
4022.291	3823
4023.876	3782
4025.461	3731
4027.044	3839
4028.627	3773
4030.211	3764
4031.795	3798
4033.378	3693
4034.96	3796
4036.542	3770
4038.124	3890
4039.704	3768
4041.286	3775
4042.867	3739
4044.447	3722
4046.026	3664
4047.606	3811
4049.187	3745
4050.765	3696
4052.343	3787
4053.92	3701
4055.498	3711
4057.076	3702
4058.654	3630
4060.23	3720
4061.806	3760
4063.381	3703
4064.957	3755
4066.533	3686
4068.107	3680
4069.682	3836
4071.256	3737
4072.829	3644
4074.404	3685
4075.977	3659
4077.549	3675
4079.121	3654
4080.693	3756
4082.265	3676
4083.836	3705
4085.407	3710
4086.977	3577
4088.547	3684
4090.117	3680
4091.687	3645
4093.256	3638
4094.825	3670
4096.392	3736
4097.96	3641
4099.528	3621
4101.097	3671
4102.663	3677
4104.229	3597
4105.795	3576
4107.361	3663
4108.928	3622
4110.493	3594
4112.058	3684
4113.621	3701
4115.186	3603
4116.75	3677
4118.313	3630
4119.876	3681
4121.438	3548
4123	3555
4124.562	3568
4126.125	3575
4127.686	3548
4129.246	3613
4130.807	3593
4132.367	3592
4133.927	3551
4135.486	3560
4137.046	3506
4138.604	3621
4140.162	3565
4141.72	3604
4143.279	3510
4144.836	3516
4146.393	3528
4147.949	3476
4149.505	3533
4151.062	3561
4152.617	3484
4154.172	3477
4155.727	3484
4157.281	3519
4158.836	3406
4160.39	3551
4161.943	3530
4163.496	3525
4165.048	3457
4166.601	3433
4168.154	3476
4169.706	3467
4171.257	3519
4172.808	3418
4174.358	3501
4175.909	3566
4177.458	3414
4179.008	3459
4180.558	3550
4182.106	3474
4183.655	3382
4185.204	3406
4186.751	3420
4188.298	3392
4189.845	3444
4191.392	3429
4192.939	3523
4194.485	3461
4196.031	3439
4197.576	3459
4199.121	3391
4200.666	3397
4202.211	3409
4203.754	3445
4205.298	3401
4206.84	3343
4208.384	3382
4209.927	3320
4211.47	3367
4213.011	3416
4214.552	3393
4216.094	3334
4217.635	3413
4219.175	3394
4220.716	3442
4222.255	3397
4223.793	3355
4225.335	3360
4226.873	3373
4228.411	3356
4229.948	3305
4231.486	3391
4233.024	3401
4234.562	3367
4236.098	3365
4237.634	3361
4239.169	3370
4240.705	3397
4242.241	3360
4243.776	3277
4245.31	3389
4246.844	3379
4248.378	3296
4249.911	3358
4251.445	3349
4252.978	3395
4254.51	3345
4256.042	3336
4257.574	3279
4259.107	3272
4260.638	3324
4262.169	3333
4263.699	3395
4265.228	3356
4266.759	3276
4268.289	3321
4269.818	3322
4271.345	3325
4272.874	3259
4274.402	3243
4275.931	3310
4277.458	3317
4278.985	3283
4280.512	3358
4282.037	3297
4283.564	3281
4285.089	3239
4286.615	3253
4288.139	3329
4289.664	3216
4291.187	3265
4292.712	3244
4294.235	3245
4295.759	3174
4297.281	3212
4298.804	3198
4300.327	3280
4301.849	3261
4303.37	3205
4304.891	3279
4306.412	3189
4307.933	3273
4309.453	3181
4310.973	3221
4312.492	3193
