398.1873	5686
400.7097	5612
403.2336	5686
405.7547	5523
408.2751	5637
410.7948	5650
413.3138	5800
415.83	5742
418.3497	5700
420.8666	5890
423.3829	5781
425.8985	5908
428.4133	5924
430.9275	6036
433.441	5779
435.9538	6035
438.4639	5954
440.9753	5953
443.4881	6049
445.9982	5968
448.5055	5949
451.0142	5997
453.5201	5947
456.0274	5891
458.5361	5927
461.04	6096
463.5453	5978
466.0478	5858
468.5517	5905
471.0549	5884
473.5574	6060
476.0572	6032
478.5584	6043
481.0568	6077
483.5545	6096
486.0557	6060
488.5521	6130
491.0478	6108
493.5449	6153
496.0392	6280
498.5349	6198
501.0299	6247
503.5222	6162
506.0139	6184
508.5048	6109
510.9991	6233
513.4887	6340
515.9777	6258
518.4659	6235
520.9534	6144
523.4403	6153
525.9306	6262
528.4161	6274
530.9009	6302
533.3851	6197
535.8687	6284
538.3535	6266
540.8356	6242
543.3171	6297
545.7979	6160
548.278	6247
550.7595	6206
553.2383	6354
555.7144	6404
558.1918	6262
560.6685	6333
563.1446	6498
565.6221	6352
568.0968	6372
570.5688	6380
573.0422	6299
575.515	6359
577.989	6524
580.4584	6431
582.9291	6512
585.3991	6580
587.8685	6533
590.3352	6611
592.8052	6522
595.2706	6607
597.7372	6534
600.2033	6395
602.6666	6426
605.1334	6509
607.5953	6483
610.0587	6467
612.5193	6530
614.9814	6553
617.4427	6507
619.9034	6377
622.3615	6467
624.8208	6465
627.2775	6409
629.7335	6438
632.1929	6356
634.6476	6387
637.1016	6428
639.5569	6477
642.0096	6414
644.4637	6511
646.9151	6478
649.3678	6483
651.8179	6504
654.2672	6479
656.7159	6632
659.166	6543
661.6154	6628
664.0622	6608
666.5082	6584
668.9537	6620
671.4005	6704
673.8445	6763
676.288	6707
678.7308	6553
681.1729	6724
683.6163	6842
686.0572	6748
688.4973	6756
690.9368	6712
693.3757	6599
695.8138	6607
698.2534	6717
700.6902	6717
703.1245	6797
705.56	6759
707.9949	6765
710.4311	6748
712.8647	6741
715.2957	6745
717.7279	6822
720.1595	6961
722.5905	6974
725.0208	6947
727.4505	6792
729.8795	6857
732.3058	6977
734.7336	7003
737.1626	6927
739.587	6998
742.0128	7004
744.4359	7088
746.8604	7015
749.2841	7061
751.7073	6967
754.1278	7124
756.5496	7051
758.9688	7209
761.3893	7123
763.8093	7327
766.2285	7109
768.6451	7120
771.0611	7194
773.4784	7038
775.895	7242
778.3091	7202
780.7244	7213
783.1371	7099
785.5493	7163
787.9626	7221
790.3754	7149
792.7856	7116
795.1951	7214
797.6039	7171
800.0121	7255
802.4236	7171
804.8306	7297
807.2369	7273
809.6425	7122
812.0475	7318
814.4538	7203
816.8575	7219
819.2606	7293
821.663	7357
824.0648	7163
826.4659	7333
828.8683	7151
831.2682	7338
833.6674	7216
836.066	7283
838.4639	7307
840.8632	7361
843.2579	7361
845.6539	7379
848.0493	7428
850.444	7375
852.84	7425
855.2315	7417
857.6243	7380
860.0165	7340
862.4081	7322
864.797	7311
867.1892	7365
869.5789	7459
871.9659	7367
874.3542	7358
876.74	7293
879.129	7336
881.5155	7319
883.8994	7392
886.2845	7315
888.6671	7378
891.051	7385
893.4343	7384
895.8169	7395
898.197	7456
900.5783	7356
902.9571	7440
905.3372	7268
907.7167	7557
910.0936	7516
912.4698	7440
914.8474	7572
917.2244	7559
919.5987	7573
921.9744	7632
924.3475	7627
926.72	7631
929.0918	7664
931.4669	7734
933.8375	7673
936.2074	7715
938.5767	7865
940.9454	7893
943.3154	7816
945.6829	7990
948.0497	8126
950.4178	8411
952.7833	8656
955.1483	8731
957.5145	8881
959.8782	8979
962.2412	9154
964.6036	9018
966.9655	8692
969.3266	8365
971.6871	8316
974.0471	7960
976.4064	7844
978.765	7757
981.125	7699
983.4824	7586
985.8373	7611
988.1935	7653
990.549	7595
992.9039	7609
995.2602	7652
997.6119	7614
999.965	7621
1002.317	7606
1004.667	7634
1007.02	7636
1009.371	7721
1011.719	7637
1014.068	7716
1016.415	7654
1018.765	7732
1021.111	7770
1023.458	7682
1025.804	7710
1028.147	7709
1030.49	7771
1032.837	7781
1035.179	7840
1037.522	7794
1039.862	7799
1042.204	7708
1044.546	7726
1046.884	7632
1049.224	7790
1051.562	7857
1053.899	7921
1056.237	7677
1058.575	7805
1060.91	7781
1063.244	7923
1065.58	7901
1067.913	7962
1070.248	7939
1072.579	7939
1074.911	7926
1077.242	7970
1079.572	7917
1081.905	7907
1084.234	7842
1086.562	7903
1088.89	7992
1091.217	7688
1093.544	7935
1095.871	7781
1098.197	7913
1100.521	7838
1102.845	7818
1105.169	7909
1107.491	7811
1109.814	7935
1112.135	7815
1114.456	7937
1116.776	7889
1119.096	7847
1121.415	7853
1123.734	7903
1126.052	7946
1128.369	7897
1130.686	7802
1133.002	7952
1135.318	7960
1137.632	7902
1139.945	7990
1142.258	7810
1144.573	7902
1146.884	7769
1149.196	8007
1151.505	7893
1153.816	7967
1156.124	7880
1158.435	7980
1160.742	7936
1163.051	7924
1165.356	8061
1167.663	7995
1169.97	7887
1172.276	7946
1174.579	7987
1176.881	7921
1179.186	7893
1181.487	7974
1183.79	7798
1186.092	7856
1188.392	7962
1190.691	7974
1192.991	7914
1195.291	7850
1197.588	7938
1199.885	7955
1202.181	8006
1204.479	7951
1206.775	8028
1209.07	8018
1211.363	7987
1213.656	7852
1215.949	8031
1218.241	8082
1220.534	8050
1222.825	7998
1225.115	8007
1227.405	8133
1229.693	7990
1231.984	8115
1234.271	8131
1236.558	8193
1238.845	8179
1241.131	8133
1243.416	8229
1245.703	8224
1247.987	8175
1250.269	8106
1252.552	8081
1254.834	8119
1257.118	8213
1259.399	8201
1261.678	8187
1263.958	8247
1266.237	8173
1268.516	8209
1270.794	8098
1273.072	8337
1275.347	8317
1277.624	8204
1279.899	8180
1282.175	8206
1284.449	8080
1286.722	8158
1288.995	8181
1291.266	8216
1293.54	8059
1295.81	8159
1298.081	8176
1300.35	8215
1302.62	7976
1304.889	8213
1307.156	8058
1309.425	8087
1311.69	8123
1313.957	8144
1316.222	8245
1318.488	8298
1320.751	8099
1323.016	8074
1325.278	8049
1327.54	8304
1329.803	8151
1332.065	8083
1334.325	8192
1336.584	8123
1338.843	8158
1341.101	8087
1343.36	8082
1345.617	8170
1347.876	8248
1350.131	8241
1352.387	8192
1354.643	8142
1356.897	8103
1359.151	8116
1361.403	8129
1363.656	8123
1365.909	8147
1368.16	8200
1370.409	8274
1372.659	8125
1374.909	8358
1377.157	8176
1379.407	8104
1381.655	8241
1383.9	8230
1386.147	8299
1388.393	8257
1390.64	8152
1392.885	8271
1395.127	8223
1397.37	8196
1399.614	8274
1401.854	8302
1404.098	8416
1406.339	8236
1408.578	8374
1410.818	8436
1413.056	8353
1415.297	8386
1417.533	8351
1419.771	8340
1422.006	8335
1424.243	8385
1426.479	8249
1428.715	8357
1430.948	8465
1433.182	8435
1435.414	8433
1437.647	8362
1439.88	8504
1442.11	8534
1444.342	8526
1446.571	8483
1448.799	8488
1451.029	8498
1453.258	8575
1455.485	8484
1457.711	8689
1459.937	8533
1462.164	8559
1464.39	8425
1466.614	8388
1468.838	8455
1471.06	8348
1473.283	8528
1475.506	8456
1477.727	8364
1479.949	8392
1482.169	8457
1484.389	8319
1486.609	8222
1488.828	8155
1491.045	8201
1493.261	8403
1495.477	8424
1497.693	8308
1499.91	8259
1502.125	8212
1504.339	8247
1506.553	8264
1508.766	8177
1510.979	8277
1513.191	8439
1515.402	8208
1517.613	8174
1519.823	8197
1522.033	8308
1524.242	8380
1526.451	8238
1528.657	8141
1530.865	8211
1533.072	8341
1535.278	8212
1537.484	8358
1539.687	8237
1541.892	8234
1544.096	8366
1546.299	8357
1548.502	8210
1550.703	8293
1552.905	8370
1555.104	8256
1557.303	8488
1559.505	8413
1561.703	8399
1563.902	8300
1566.099	8454
1568.295	8400
1570.494	8485
1572.689	8435
1574.883	8429
1577.079	8479
1579.272	8416
1581.467	8493
1583.659	8553
1585.853	8561
1588.044	8491
1590.234	8594
1592.424	8588
1594.615	8449
1596.806	8492
1598.994	8529
1601.182	8466
1603.369	8487
1605.557	8634
1607.744	8667
1609.929	8507
1612.114	8638
1614.298	8643
1616.482	8597
1618.667	8596
1620.85	8631
1623.032	8474
1625.214	8496
1627.395	8564
1629.575	8604
1631.755	8581
1633.935	8741
1636.114	8517
1638.292	8580
1640.471	8723
1642.647	8680
1644.823	8656
1647	8648
1649.175	8642
1651.348	8670
1653.525	8705
1655.698	8600
1657.87	8687
1660.043	8726
1662.213	8716
1664.387	8643
1666.558	8622
1668.727	8637
1670.896	8685
1673.064	8623
1675.233	8796
1677.401	8742
1679.569	8779
1681.735	8694
1683.902	8757
1686.066	8577
1688.233	8699
1690.397	8579
1692.559	8582
1694.723	8667
1696.885	8761
1699.048	8468
1701.21	8727
1703.37	8505
1705.53	8591
1707.689	8728
1709.849	8720
1712.009	8625
1714.166	8558
1716.323	8518
1718.479	8691
1720.634	8548
1722.793	8605
1724.948	8616
1727.102	8590
1729.255	8532
1731.408	8429
1733.562	8485
1735.714	8532
1737.865	8625
1740.016	8605
1742.166	8534
1744.316	8659
1746.467	8516
1748.616	8541
1750.764	8602
1752.911	8610
1755.056	8679
1757.205	8616
1759.35	8626
1761.496	8623
1763.641	8735
1765.785	8637
1767.927	8783
1770.072	8648
1772.214	8534
1774.355	8646
1776.496	8542
1778.637	8673
1780.778	8682
1782.918	8746
1785.057	8597
1787.194	8690
1789.333	8719
1791.472	8583
1793.608	8767
1795.745	8662
1797.879	8654
1800.015	8643
1802.148	8738
1804.284	8802
1806.417	8629
1808.548	8711
1810.682	8614
1812.812	8604
1814.946	8712
1817.075	8646
1819.205	8661
1821.335	8671
1823.463	8632
1825.59	8711
1827.721	8744
1829.847	8702
1831.973	8624
1834.098	8709
1836.223	8560
1838.351	8656
1840.475	8558
1842.598	8668
1844.721	8599
1846.843	8617
1848.966	8569
1851.087	8676
1853.21	8657
1855.33	8670
1857.449	8478
1859.568	8620
1861.688	8708
1863.806	8686
1865.924	8640
1868.039	8404
1870.155	8598
1872.273	8608
1874.388	8642
1876.503	8578
1878.617	8702
1880.73	8788
1882.844	8756
1884.956	8627
1887.068	8607
1889.18	8682
1891.291	8618
1893.4	8573
1895.511	8678
1897.621	8734
1899.73	8787
1901.837	8590
1903.944	8796
1906.053	8669
1908.159	8741
1910.265	8668
1912.369	8804
1914.474	8683
1916.577	8729
1918.683	8675
1920.785	8781
1922.888	8790
1924.989	8805
1927.091	8783
1929.193	8774
1931.294	8844
1933.393	8789
1935.493	8730
1937.59	8635
1939.689	8793
1941.788	8670
1943.884	8756
1945.98	8800
1948.077	8770
1950.171	8793
1952.267	8777
1954.361	8716
1956.455	8862
1958.548	8930
1960.64	8891
1962.733	8691
1964.824	8747
1966.915	8778
1969.005	8816
1971.096	8805
1973.185	8763
1975.275	8737
1977.363	8783
1979.45	8801
1981.537	8695
1983.623	8733
1985.711	8712
1987.796	8807
1989.881	8701
1991.965	8725
1994.047	8661
1996.132	8716
1998.215	8748
2000.297	8857
2002.378	8760
2004.46	8568
2006.54	8668
2008.62	8675
2010.7	8803
2012.779	8758
2014.858	8788
2016.934	8653
2019.013	8698
2021.09	8702
2023.165	8844
2025.241	8650
2027.317	8755
2029.39	8663
2031.466	8594
2033.538	8691
2035.612	8681
2037.683	8624
2039.755	8745
2041.827	8731
2043.898	8629
2045.968	8819
2048.038	8802
2050.106	8767
2052.177	8749
2054.244	8782
2056.313	8798
2058.379	8776
2060.444	8713
2062.511	8842
2064.577	8950
2066.641	8768
2068.705	8733
2070.77	8929
2072.832	8746
2074.896	8688
2076.958	8856
2079.02	8743
2081.081	8712
2083.141	8706
2085.2	8668
2087.261	8632
2089.319	8855
2091.377	8734
2093.435	8771
2095.492	8842
2097.552	8671
2099.607	8783
2101.663	8819
2103.718	8748
2105.771	8703
2107.826	8700
2109.879	8729
2111.932	8838
2113.985	8811
2116.037	8834
2118.088	8772
2120.141	8856
2122.191	8859
2124.239	8625
2126.288	8873
2128.337	8745
2130.387	8693
2132.434	8772
2134.481	8814
2136.528	8713
2138.574	8797
2140.618	8690
2142.665	8820
2144.71	8716
2146.753	8726
2148.797	8688
2150.838	8679
2152.883	8650
2154.923	8671
2156.965	8686
2159.007	8665
2161.046	8701
2163.086	8772
2165.126	8735
2167.163	8630
2169.202	8698
2171.239	8661
2173.277	8620
2175.314	8613
2177.349	8753
2179.385	8707
2181.42	8622
2183.453	8601
2185.49	8565
2187.522	8632
2189.555	8675
2191.586	8723
2193.619	8587
2195.651	8464
2197.682	8524
2199.711	8670
2201.74	8721
2203.769	8550
2205.799	8446
2207.828	8572
2209.855	8568
2211.882	8500
2213.908	8561
2215.934	8599
2217.961	8617
2219.986	8672
2222.01	8522
2224.034	8559
2226.057	8572
2228.08	8701
2230.104	8500
2232.124	8692
2234.145	8530
2236.166	8536
2238.186	8638
2240.207	8509
2242.227	8550
2244.244	8541
2246.262	8537
2248.28	8568
2250.299	8516
2252.314	8650
2254.33	8533
2256.346	8658
2258.36	8692
2260.375	8603
2262.391	8575
2264.403	8610
2266.416	8724
2268.427	8566
2270.44	8688
2272.453	8671
2274.463	8648
2276.474	8590
2278.483	8700
2280.493	8713
2282.501	8629
2284.51	8572
2286.518	8686
2288.524	8519
2290.532	8573
2292.537	8683
2294.544	8600
2296.55	8640
2298.554	8641
2300.557	8512
2302.562	8456
2304.566	8521
2306.568	8569
2308.569	8655
2310.572	8574
2312.573	8606
2314.573	8575
2316.574	8509
2318.573	8552
2320.571	8631
2322.571	8526
2324.569	8364
2326.567	8551
2328.564	8416
2330.56	8463
2332.556	8463
2334.551	8514
2336.546	8465
2338.542	8438
2340.535	8468
2342.529	8525
2344.521	8490
2346.512	8356
2348.505	8495
2350.497	8419
2352.487	8452
2354.478	8430
2356.468	8449
2358.457	8339
2360.446	8564
2362.434	8336
2364.422	8416
2366.408	8420
2368.395	8316
2370.383	8288
2372.369	8448
2374.353	8320
2376.338	8418
2378.321	8456
2380.307	8419
2382.29	8351
2384.272	8242
2386.254	8377
2388.235	8379
2390.218	8345
2392.198	8229
2394.179	8314
2396.157	8300
2398.137	8274
2400.115	8238
2402.095	8388
2404.072	8424
2406.048	8340
2408.026	8366
2410.001	8291
2411.977	8353
2413.953	8460
2415.927	8294
2417.9	8432
2419.875	8383
2421.847	8261
2423.821	8337
2425.792	8193
2427.763	8363
2429.736	8376
2431.706	8196
2433.677	8312
2435.646	8350
2437.615	8276
2439.583	8302
2441.551	8463
2443.519	8248
2445.486	8204
2447.452	8363
2449.418	8193
2451.383	8344
2453.348	8185
2455.314	8317
2457.278	8257
2459.241	8145
2461.205	8304
2463.167	8358
2465.131	8253
2467.091	8213
2469.052	8252
2471.012	8336
2472.972	8160
2474.932	8288
2476.891	8277
2478.85	8322
2480.808	8261
2482.766	8305
2484.722	8236
2486.68	8188
2488.636	8250
2490.591	8159
2492.546	8142
2494.5	8225
2496.456	8220
2498.41	8218
2500.362	8194
2502.315	8156
2504.266	8198
2506.218	8272
2508.169	8211
2510.121	8300
2512.07	8224
2514.019	8137
2515.968	8220
2517.918	8244
2519.866	8126
2521.813	8085
2523.76	8080
2525.707	8228
2527.653	8204
2529.599	8208
2531.543	8271
2533.489	8054
2535.433	8132
2537.376	8232
2539.32	8040
2541.264	8055
2543.205	8166
2545.147	8238
2547.087	8244
2549.029	8201
2550.969	8020
2552.908	8106
2554.847	8128
2556.786	8140
2558.724	8238
2560.663	8189
2562.6	8155
2564.537	8060
2566.473	8160
2568.408	8184
2570.345	8270
2572.28	8332
2574.214	8199
2576.148	8194
2578.081	8165
2580.014	8154
2581.947	8134
2583.879	8187
2585.81	8156
2587.741	8180
2589.67	8288
2591.602	8191
2593.532	8101
2595.461	8071
2597.388	8113
2599.316	8189
2601.244	8246
2603.172	8272
2605.098	8189
2607.023	8290
2608.949	8132
2610.873	8195
2612.8	8179
2614.723	8167
2616.647	8287
2618.569	8101
2620.493	8282
2622.416	8230
2624.338	8218
2626.258	8164
2628.179	8287
2630.099	8302
2632.019	8360
2633.939	8163
2635.857	8291
2637.775	8199
2639.694	8216
2641.61	8229
2643.528	8313
2645.444	8269
2647.361	8175
2649.276	8225
2651.19	8225
2653.105	8094
2655.019	8205
2656.934	8225
2658.846	8199
2660.758	8068
2662.67	8318
2664.583	8044
2666.493	8202
2668.404	8209
2670.313	8296
2672.223	8070
2674.134	8093
2676.042	8050
2677.95	8023
2679.858	8153
2681.765	8191
2683.673	8194
2685.579	8110
2687.483	8213
2689.389	8029
2691.294	8179
2693.198	8157
2695.104	8081
2697.006	7969
2698.909	8227
2700.811	8045
2702.713	8127
2704.615	8144
2706.516	8061
2708.417	8148
2710.316	8216
2712.216	8126
2714.115	8021
2716.014	8261
2717.913	8102
2719.81	8026
2721.707	8147
2723.603	8191
2725.501	8145
2727.396	8006
2729.292	8003
2731.186	7975
2733.081	8044
2734.976	8156
2736.87	8139
2738.762	8171
2740.653	7967
2742.546	7982
2744.437	8074
2746.329	8038
2748.22	7941
2750.11	8041
2751.999	7908
2753.889	8004
2755.778	8095
2757.666	8048
2759.553	7971
2761.44	8059
2763.328	8021
2765.215	7936
2767.101	8023
2768.986	7937
2770.87	7967
2772.754	7959
2774.638	8011
2776.523	7997
2778.405	8092
2780.288	8104
2782.17	8003
2784.051	7981
2785.934	8007
2787.814	7986
2789.694	7881
2791.574	7867
2793.453	7955
2795.332	7906
2797.212	8014
2799.088	7942
2800.966	7907
2802.843	7956
2804.719	7964
2806.597	7941
2808.471	7974
2810.346	7861
2812.221	7932
2814.094	7868
2815.969	7961
2817.843	7841
2819.714	7952
2821.587	7893
2823.459	7879
2825.329	7838
2827.202	7907
2829.072	7875
2830.942	7994
2832.811	7913
2834.68	7929
2836.549	7936
2838.418	7812
2840.284	7898
2842.152	8035
2844.018	7942
2845.885	7821
2847.751	7892
2849.616	7947
2851.482	7929
2853.345	7942
2855.208	7909
2857.074	8090
2858.937	7951
2860.799	7943
2862.66	8087
2864.522	8128
2866.385	8001
2868.245	8172
2870.104	8124
2871.964	8056
2873.824	8178
2875.683	8202
2877.542	8300
2879.4	8296
2881.257	8155
2883.114	8380
2884.97	8249
2886.827	8351
2888.683	8274
2890.537	8386
2892.392	8422
2894.246	8251
2896.1	8222
2897.954	8197
2899.807	8189
2901.66	8234
2903.51	8297
2905.362	8254
2907.214	8168
2909.065	8239
2910.915	8249
2912.765	8354
2914.613	8319
2916.463	8463
2918.311	8439
2920.158	8304
2922.006	8555
2923.853	8613
2925.698	8655
2927.546	8688
2929.392	8651
2931.236	8866
2933.081	8637
2934.924	8753
2936.77	8762
2938.613	8816
2940.455	8893
2942.298	8866
2944.139	8907
2945.982	8958
2947.823	8915
2949.662	8904
2951.503	8835
2953.342	8748
2955.182	8860
2957.021	8738
2958.858	8670
2960.697	8495
2962.534	8498
2964.37	8665
2966.207	8443
2968.044	8418
2969.879	8460
2971.714	8478
2973.548	8331
2975.383	8295
2977.218	8293
2979.051	8372
2980.883	8422
2982.715	8316
2984.547	8217
2986.379	8340
2988.21	8271
2990.04	8117
2991.87	8089
2993.7	8052
2995.53	8132
2997.359	8024
2999.187	7992
3001.015	7991
3002.842	7880
3004.669	7930
3006.497	7847
3008.323	7765
3010.148	7958
3011.974	7660
3013.797	7762
3015.623	7747
3017.447	7781
3019.27	7690
3021.094	7723
3022.915	7730
3024.737	7625
3026.56	7602
3028.38	7706
3030.201	7634
3032.022	7639
3033.84	7563
3035.662	7667
3037.481	7602
3039.298	7665
3041.117	7652
3042.933	7513
3044.752	7537
3046.568	7619
3048.385	7582
3050.2	7528
3052.016	7585
3053.83	7405
3055.646	7549
3057.46	7397
3059.272	7446
3061.086	7477
3062.898	7548
3064.711	7490
3066.524	7495
3068.335	7512
3070.145	7564
3071.956	7468
3073.766	7526
3075.576	7585
3077.385	7490
3079.193	7448
3081.002	7431
3082.81	7331
3084.618	7466
3086.425	7334
3088.231	7434
3090.036	7288
3091.842	7296
3093.648	7322
3095.452	7436
3097.257	7416
3099.06	7201
3100.863	7362
3102.666	7380
3104.47	7303
3106.272	7269
3108.073	7272
3109.875	7416
3111.676	7440
3113.477	7227
3115.277	7272
3117.077	7245
3118.874	7352
3120.673	7311
3122.473	7227
3124.271	7194
3126.066	7304
3127.863	7186
3129.66	7283
3131.456	7068
3133.252	7243
3135.047	7205
3136.842	7217
3138.635	7150
3140.429	7110
3142.223	7263
3144.016	7162
3145.808	7070
3147.6	7078
3149.392	7202
3151.183	7259
3152.975	7126
3154.765	7136
3156.553	7094
3158.344	7251
3160.132	7139
3161.922	7121
3163.71	7094
3165.497	7097
3167.285	7166
3169.071	7068
3170.858	7155
3172.645	7072
3174.429	7005
3176.214	7062
3177.998	7142
3179.783	7023
3181.568	7067
3183.351	7174
3185.133	7081
3186.915	7080
3188.698	7051
3190.481	7025
3192.261	7122
3194.042	7020
3195.822	7043
3197.601	7120
3199.381	7081
3201.161	7112
3202.939	7023
3204.717	6986
3206.495	7090
3208.272	6959
3210.05	7063
3211.826	7002
3213.602	7044
3215.376	7064
3217.151	7005
3218.927	7098
3220.702	7001
3222.476	7050
3224.249	7084
3226.021	6973
3227.793	7098
3229.567	7062
3231.339	7075
3233.109	7154
3234.88	6858
3236.651	7024
3238.421	6950
3240.191	7042
3241.96	6982
3243.728	7128
3245.497	7121
3247.263	6993
3249.033	7014
3250.799	7000
3252.566	6978
3254.331	7062
3256.097	6984
3257.863	7017
3259.628	7044
3261.392	6919
3263.156	6983
3264.919	7033
3266.683	7012
3268.447	7050
3270.208	7055
3271.969	6825
3273.731	6941
3275.492	7023
3277.253	6947
3279.013	6936
3280.773	7029
3282.532	7000
3284.291	7006
3286.05	6954
3287.808	7068
3289.566	7003
3291.323	6983
3293.079	6981
3294.835	7072
3296.593	6996
3298.348	6844
3300.102	6941
3301.857	6919
3303.611	6982
3305.366	6889
3307.119	6944
3308.872	7005
3310.624	7029
3312.376	6920
3314.129	6881
3315.881	7010
3317.631	6894
3319.38	6937
3321.13	6897
3322.88	6872
3324.631	6977
3326.379	6864
3328.126	6933
3329.875	6835
3331.622	6925
3333.371	6897
3335.116	6899
3336.863	6949
3338.609	6914
3340.353	6793
3342.1	6868
3343.845	6954
3345.588	6857
3347.332	6923
3349.074	6924
3350.817	6948
3352.56	6838
3354.303	6949
3356.043	6925
3357.785	6881
3359.525	6840
3361.268	6752
3363.007	6800
3364.745	6824
3366.485	6964
3368.223	6737
3369.962	6827
3371.701	6845
3373.438	6821
3375.174	6845
3376.911	6768
3378.647	6890
3380.384	6812
3382.118	6793
3383.854	6782
3385.588	6766
3387.322	6879
3389.057	6784
3390.79	6684
3392.522	6703
3394.255	6809
3395.987	6754
3397.719	6682
3399.451	6779
3401.181	6682
3402.911	6691
3404.641	6716
3406.371	6693
3408.101	6773
3409.83	6777
3411.558	6731
3413.285	6657
3415.011	6633
3416.739	6595
3418.467	6650
3420.193	6677
3421.919	6763
3423.644	6738
3425.368	6653
3427.094	6572
3428.818	6595
3430.542	6701
3432.264	6708
3433.987	6609
3435.712	6585
3437.434	6688
3439.155	6570
3440.876	6643
3442.596	6652
3444.317	6598
3446.039	6595
3447.757	6573
3449.477	6592
3451.195	6569
3452.914	6716
3454.632	6593
3456.35	6562
3458.067	6469
3459.784	6445
3461.5	6476
3463.216	6555
3464.932	6494
3466.647	6433
3468.362	6438
3470.076	6432
3471.789	6482
3473.505	6542
3475.217	6357
3476.929	6488
3478.641	6473
3480.354	6331
3482.066	6408
3483.777	6564
3485.487	6419
3487.197	6368
3488.908	6335
3490.617	6404
3492.327	6411
3494.035	6306
3495.743	6400
3497.451	6454
3499.158	6349
3500.866	6426
3502.572	6333
3504.278	6391
3505.984	6301
3507.689	6389
3509.396	6438
3511.1	6423
3512.804	6303
3514.508	6335
3516.211	6308
3517.913	6360
3519.616	6255
3521.319	6311
3523.021	6358
3524.722	6171
3526.422	6288
3528.124	6319
3529.824	6250
3531.524	6253
3533.222	6237
3534.921	6197
3536.62	6243
3538.318	6344
3540.016	6224
3541.714	6291
3543.41	6328
3545.107	6188
3546.803	6104
3548.5	6219
3550.194	6291
3551.889	6197
3553.583	6218
3555.279	6117
3556.972	6181
3558.666	6123
3560.358	6196
3562.051	6295
3563.742	6131
3565.435	6104
3567.126	6153
3568.817	6149
3570.507	6175
3572.197	6193
3573.888	6196
3575.577	6179
3577.265	6176
3578.954	6145
3580.642	6111
3582.329	6027
3584.017	6068
3585.704	6202
3587.391	5973
3589.077	6205
3590.762	6030
3592.449	6107
3594.133	6158
3595.817	6137
3597.501	6194
3599.185	5984
3600.869	5999
3602.552	5969
3604.234	6075
3605.916	5981
3607.598	5981
3609.279	6012
3610.961	6001
3612.642	5854
3614.321	5971
3616	5945
3617.68	5943
3619.36	5924
3621.039	5879
3622.716	5914
3624.394	5981
3626.071	5958
3627.748	5940
3629.425	5888
3631.102	5912
3632.778	5912
3634.452	5811
3636.127	6011
3637.803	5968
3639.477	5850
3641.151	5903
3642.823	5794
3644.497	5833
3646.171	5874
3647.842	5818
3649.515	5854
3651.185	5825
3652.857	5862
3654.527	5880
3656.198	5725
3657.868	5747
3659.537	5780
3661.207	5899
3662.875	5812
3664.544	5785
3666.212	5749
3667.879	5775
3669.546	5776
3671.212	5742
3672.88	5671
3674.546	5829
3676.211	5762
3677.875	5781
3679.541	5841
3681.205	5733
3682.87	5733
3684.533	5796
3686.196	5766
3687.859	5704
3689.521	5756
3691.184	5689
3692.845	5657
3694.507	5749
3696.167	5746
3697.827	5683
3699.487	5627
3701.148	5666
3702.808	5730
3704.466	5765
3706.125	5732
3707.783	5739
3709.442	5667
3711.099	5551
3712.757	5738
3714.412	5618
3716.068	5722
3717.725	5672
3719.381	5699
3721.036	5677
3722.689	5695
3724.344	5640
3725.998	5697
3727.652	5692
3729.305	5585
3730.958	5584
3732.61	5691
3734.262	5516
3735.915	5680
3737.565	5675
3739.217	5718
3740.866	5588
3742.516	5527
3744.165	5601
3745.816	5580
3747.464	5472
3749.113	5660
3750.761	5655
3752.409	5676
3754.057	5552
3755.703	5600
3757.35	5560
3758.996	5541
3760.641	5560
3762.289	5553
3763.933	5588
3765.577	5506
3767.222	5611
3768.865	5527
3770.508	5505
3772.152	5508
3773.796	5429
3775.438	5519
3777.079	5521
3778.721	5486
3780.363	5571
3782.003	5465
3783.643	5464
3785.283	5499
3786.923	5456
3788.563	5408
3790.203	5503
3791.841	5494
3793.479	5389
3795.115	5446
3796.753	5528
3798.391	5486
3800.027	5384
3801.664	5463
3803.299	5481
3804.935	5393
3806.571	5386
3808.206	5413
3809.839	5381
3811.473	5460
3813.107	5383
3814.74	5297
3816.375	5393
3818.006	5321
3819.638	5414
3821.27	5337
3822.9	5406
3824.532	5400
3826.163	5377
3827.792	5381
3829.423	5337
3831.051	5375
3832.682	5310
3834.311	5444
3835.938	5301
3837.566	5347
3839.193	5296
3840.821	5397
3842.448	5247
3844.075	5248
3845.7	5281
3847.325	5389
3848.951	5329
3850.576	5263
3852.201	5269
3853.825	5282
3855.448	5317
3857.072	5263
3858.694	5266
3860.318	5278
3861.939	5256
3863.562	5378
3865.183	5220
3866.804	5265
3868.426	5219
3870.045	5220
3871.666	5158
3873.285	5213
3874.904	5240
3876.524	5288
3878.142	5224
3879.76	5241
3881.378	5214
3882.995	5147
3884.612	5240
3886.229	5196
3887.845	5295
3889.461	5185
3891.076	5287
3892.691	5258
3894.307	5134
3895.922	5158
3897.536	5214
3899.149	5163
3900.761	5186
3902.374	5242
3903.988	5169
3905.6	5068
3907.212	5122
3908.822	5137
3910.433	5267
3912.045	5171
3913.655	5179
3915.265	5095
3916.875	5091
3918.483	5234
3920.093	5157
3921.702	5130
3923.309	5098
3924.917	5188
3926.523	5119
3928.13	5239
3929.739	5161
3931.344	5086
3932.95	5155
3934.555	5232
3936.159	5145
3937.766	5068
3939.369	5070
3940.974	5181
3942.577	5084
3944.181	5093
3945.783	5113
3947.386	5137
3948.989	5123
3950.59	5059
3952.191	5159
3953.791	5148
3955.394	4984
3956.994	5054
3958.593	5061
3960.192	5059
3961.791	5030
3963.392	5056
3964.99	5013
3966.588	5124
3968.185	4958
3969.782	5030
3971.379	5047
3972.976	5102
3974.572	5035
3976.168	5004
3977.763	4950
3979.358	5004
3980.954	5025
3982.548	4901
3984.142	5026
3985.736	5000
3987.329	5006
3988.922	4989
3990.516	4877
3992.108	4927
3993.698	4909
3995.29	4904
3996.881	4870
3998.473	4998
4000.064	4831
4001.653	4866
4003.242	4848
4004.832	4930
4006.422	4846
4008.01	4872
4009.598	4879
4011.186	4894
4012.773	4826
4014.36	4863
4015.947	4874
4017.534	4884
4019.119	4889
4020.705	4836
4022.291	4737
4023.876	4847
4025.461	4828
4027.044	4842
4028.627	4736
4030.211	4821
4031.795	4785
4033.378	4784
4034.96	4772
4036.542	4841
4038.124	4750
4039.704	4763
4041.286	4686
4042.867	4780
4044.447	4722
4046.026	4722
4047.606	4749
4049.187	4747
4050.765	4691
4052.343	4769
4053.92	4783
4055.498	4848
4057.076	4767
4058.654	4720
4060.23	4658
4061.806	4701
4063.381	4735
4064.957	4697
4066.533	4803
4068.107	4691
4069.682	4759
4071.256	4672
4072.829	4697
4074.404	4614
4075.977	4620
4077.549	4724
4079.121	4660
4080.693	4742
4082.265	4631
4083.836	4773
4085.407	4683
4086.977	4599
4088.547	4590
4090.117	4639
4091.687	4658
4093.256	4695
4094.825	4622
4096.392	4707
4097.96	4676
4099.528	4595
4101.097	4590
4102.663	4552
4104.229	4610
4105.795	4500
4107.361	4604
4108.928	4637
4110.493	4566
4112.058	4545
4113.621	4594
4115.186	4619
4116.75	4565
4118.313	4547
4119.876	4542
4121.438	4563
4123	4548
4124.562	4541
4126.125	4581
4127.686	4491
4129.246	4625
4130.807	4537
4132.367	4507
4133.927	4496
4135.486	4497
4137.046	4511
4138.604	4426
4140.162	4531
4141.72	4509
4143.279	4423
4144.836	4411
4146.393	4544
4147.949	4392
4149.505	4377
4151.062	4392
4152.617	4520
4154.172	4375
4155.727	4475
4157.281	4475
4158.836	4368
4160.39	4371
4161.943	4412
4163.496	4481
4165.048	4354
4166.601	4383
4168.154	4403
4169.706	4346
4171.257	4410
4172.808	4451
4174.358	4354
4175.909	4418
4177.458	4398
4179.008	4302
4180.558	4384
4182.106	4384
4183.655	4339
4185.204	4248
4186.751	4331
4188.298	4423
4189.845	4298
4191.392	4350
4192.939	4338
4194.485	4391
4196.031	4285
4197.576	4242
4199.121	4272
4200.666	4327
4202.211	4372
4203.754	4375
4205.298	4336
4206.84	4298
4208.384	4297
4209.927	4221
4211.47	4290
4213.011	4317
4214.552	4272
4216.094	4247
4217.635	4297
4219.175	4286
4220.716	4350
4222.255	4343
4223.793	4286
4225.335	4299
4226.873	4315
4228.411	4188
4229.948	4353
4231.486	4192
4233.024	4266
4234.562	4222
4236.098	4227
4237.634	4249
4239.169	4234
4240.705	4281
4242.241	4277
4243.776	4254
4245.31	4298
4246.844	4233
4248.378	4252
4249.911	4137
4251.445	4241
4252.978	4257
4254.51	4128
4256.042	4230
4257.574	4160
4259.107	4270
4260.638	4159
4262.169	4255
4263.699	4236
4265.228	4150
4266.759	4145
4268.289	4153
4269.818	4116
4271.345	4144
4272.874	4117
4274.402	4244
4275.931	4157
4277.458	4094
4278.985	4219
4280.512	4159
4282.037	4093
4283.564	4120
4285.089	4146
4286.615	4119
4288.139	4094
4289.664	4124
4291.187	4102
4292.712	4073
4294.235	4117
4295.759	4110
4297.281	4078
4298.804	4018
4300.327	4144
4301.849	4105
4303.37	4079
4304.891	4051
4306.412	4099
4307.933	4059
4309.453	3978
4310.973	4049
4312.492	4132
