398.1873	3085
400.7097	3127
403.2336	3039
405.7547	3165
408.2751	3136
410.7948	3198
413.3138	3119
415.83	3090
418.3497	3292
420.8666	3165
423.3829	3261
425.8985	3251
428.4133	3288
430.9275	3308
433.441	3267
435.9538	3307
438.4639	3344
440.9753	3332
443.4881	3306
445.9982	3310
448.5055	3346
451.0142	3297
453.5201	3320
456.0274	3303
458.5361	3300
461.04	3279
463.5453	3337
466.0478	3263
468.5517	3376
471.0549	3277
473.5574	3390
476.0572	3295
478.5584	3291
481.0568	3345
483.5545	3309
486.0557	3270
488.5521	3368
491.0478	3327
493.5449	3383
496.0392	3381
498.5349	3455
501.0299	3292
503.5222	3389
506.0139	3414
508.5048	3416
510.9991	3394
513.4887	3420
515.9777	3404
518.4659	3486
520.9534	3374
523.4403	3405
525.9306	3386
528.4161	3414
530.9009	3459
533.3851	3398
535.8687	3465
538.3535	3421
540.8356	3350
543.3171	3550
545.7979	3391
548.278	3367
550.7595	3363
553.2383	3352
555.7144	3404
558.1918	3421
560.6685	3423
563.1446	3514
565.6221	3424
568.0968	3487
570.5688	3478
573.0422	3454
575.515	3511
577.989	3558
580.4584	3562
582.9291	3524
585.3991	3481
587.8685	3656
590.3352	3588
592.8052	3507
595.2706	3486
597.7372	3644
600.2033	3539
602.6666	3533
605.1334	3526
607.5953	3460
610.0587	3553
612.5193	3514
614.9814	3467
617.4427	3523
619.9034	3496
622.3615	3447
624.8208	3503
627.2775	3523
629.7335	3467
632.1929	3481
634.6476	3534
637.1016	3468
639.5569	3546
642.0096	3512
644.4637	3502
646.9151	3598
649.3678	3590
651.8179	3553
654.2672	3540
656.7159	3551
659.166	3532
661.6154	3585
664.0622	3608
666.5082	3660
668.9537	3615
671.4005	3583
673.8445	3641
676.288	3647
678.7308	3595
681.1729	3562
683.6163	3593
686.0572	3599
688.4973	3715
690.9368	3634
693.3757	3619
695.8138	3685
698.2534	3736
700.6902	3598
703.1245	3679
705.56	3663
707.9949	3689
710.4311	3686
712.8647	3667
715.2957	3687
717.7279	3725
720.1595	3704
722.5905	3664
725.0208	3774
727.4505	3832
729.8795	3760
732.3058	3736
734.7336	3816
737.1626	3882
739.587	3828
742.0128	3737
744.4359	3712
746.8604	3864
749.2841	3899
751.7073	3805
754.1278	3858
756.5496	3908
758.9688	3758
761.3893	3889
763.8093	3889
766.2285	3907
768.6451	3966
771.0611	3841
773.4784	3839
775.895	3881
778.3091	3877
780.7244	3880
783.1371	3888
785.5493	3873
787.9626	3953
790.3754	3912
792.7856	3913
795.1951	3930
797.6039	3942
800.0121	3864
802.4236	3866
804.8306	3964
807.2369	3924
809.6425	3881
812.0475	3942
814.4538	3914
816.8575	3982
819.2606	4006
821.663	3990
824.0648	3942
826.4659	3966
828.8683	3849
831.2682	3960
833.6674	3998
836.066	3943
838.4639	3969
840.8632	3984
843.2579	3919
845.6539	3972
848.0493	3945
850.444	4036
852.84	4127
855.2315	3919
857.6243	3992
860.0165	3959
862.4081	3944
864.797	3992
867.1892	3978
869.5789	3934
871.9659	3939
874.3542	3997
876.74	3961
879.129	4005
881.5155	3977
883.8994	3992
886.2845	4091
888.6671	3963
891.051	3976
893.4343	3970
895.8169	3969
898.197	3947
900.5783	4121
902.9571	4045
905.3372	4002
907.7167	4016
910.0936	4025
912.4698	4147
914.8474	4119
917.2244	4064
919.5987	4119
921.9744	4151
924.3475	4142
926.72	4188
929.0918	4118
931.4669	4169
933.8375	4233
936.2074	4232
938.5767	4200
940.9454	4191
943.3154	4339
945.6829	4440
948.0497	4432
950.4178	4442
952.7833	4662
955.1483	4766
957.5145	4962
959.8782	4927
962.2412	4990
964.6036	4942
966.9655	4801
969.3266	4633
971.6871	4528
974.0471	4454
976.4064	4278
978.765	4206
981.125	4207
983.4824	4085
985.8373	4150
988.1935	4179
990.549	4218
992.9039	4147
995.2602	4192
997.6119	4118
999.965	4182
1002.317	4152
1004.667	4170
1007.02	4163
1009.371	4163
1011.719	4098
1014.068	4181
1016.415	4219
1018.765	4111
1021.111	4156
1023.458	4212
1025.804	4210
1028.147	4145
1030.49	4212
1032.837	4328
1035.179	4261
1037.522	4219
1039.862	4162
1042.204	4225
1044.546	4206
1046.884	4213
1049.224	4275
1051.562	4220
1053.899	4313
1056.237	4258
1058.575	4208
1060.91	4252
1063.244	4306
1065.58	4295
1067.913	4255
1070.248	4251
1072.579	4411
1074.911	4294
1077.242	4303
1079.572	4320
1081.905	4185
1084.234	4308
1086.562	4243
1088.89	4180
1091.217	4263
1093.544	4322
1095.871	4228
1098.197	4296
1100.521	4272
1102.845	4169
1105.169	4291
1107.491	4349
1109.814	4242
1112.135	4284
1114.456	4325
1116.776	4225
1119.096	4287
1121.415	4202
1123.734	4398
1126.052	4343
1128.369	4311
1130.686	4277
1133.002	4268
1135.318	4250
1137.632	4307
1139.945	4263
1142.258	4370
1144.573	4221
1146.884	4322
1149.196	4203
1151.505	4389
1153.816	4352
1156.124	4259
1158.435	4335
1160.742	4262
1163.051	4285
1165.356	4262
1167.663	4266
1169.97	4360
1172.276	4375
1174.579	4329
1176.881	4331
1179.186	4326
1181.487	4227
1183.79	4168
1186.092	4221
1188.392	4296
1190.691	4297
1192.991	4244
1195.291	4319
1197.588	4244
1199.885	4236
1202.181	4380
1204.479	4328
1206.775	4256
1209.07	4316
1211.363	4316
1213.656	4304
1215.949	4324
1218.241	4313
1220.534	4276
1222.825	4357
1225.115	4372
1227.405	4311
1229.693	4404
1231.984	4375
1234.271	4351
1236.558	4485
1238.845	4451
1241.131	4497
1243.416	4445
1245.703	4481
1247.987	4466
1250.269	4429
1252.552	4479
1254.834	4407
1257.118	4378
1259.399	4533
1261.678	4466
1263.958	4456
1266.237	4363
1268.516	4435
1270.794	4474
1273.072	4538
1275.347	4476
1277.624	4453
1279.899	4441
1282.175	4351
1284.449	4325
1286.722	4455
1288.995	4438
1291.266	4333
1293.54	4370
1295.81	4436
1298.081	4426
1300.35	4357
1302.62	4450
1304.889	4446
1307.156	4405
1309.425	4404
1311.69	4390
1313.957	4403
1316.222	4403
1318.488	4432
1320.751	4376
1323.016	4385
1325.278	4404
1327.54	4399
1329.803	4454
1332.065	4420
1334.325	4331
1336.584	4413
1338.843	4431
1341.101	4452
1343.36	4466
1345.617	4461
1347.876	4435
1350.131	4327
1352.387	4398
1354.643	4505
1356.897	4302
1359.151	4479
1361.403	4535
1363.656	4376
1365.909	4451
1368.16	4517
1370.409	4596
1372.659	4442
1374.909	4443
1377.157	4497
1379.407	4425
1381.655	4440
1383.9	4405
1386.147	4450
1388.393	4502
1390.64	4443
1392.885	4537
1395.127	4493
1397.37	4549
1399.614	4570
1401.854	4600
1404.098	4469
1406.339	4466
1408.578	4618
1410.818	4523
1413.056	4533
1415.297	4562
1417.533	4595
1419.771	4571
1422.006	4570
1424.243	4601
1426.479	4573
1428.715	4556
1430.948	4623
1433.182	4555
1435.414	4625
1437.647	4604
1439.88	4627
1442.11	4649
1444.342	4654
1446.571	4614
1448.799	4571
1451.029	4659
1453.258	4651
1455.485	4776
1457.711	4656
1459.937	4702
1462.164	4686
1464.39	4628
1466.614	4635
1468.838	4636
1471.06	4564
1473.283	4554
1475.506	4537
1477.727	4576
1479.949	4574
1482.169	4559
1484.389	4534
1486.609	4438
1488.828	4578
1491.045	4479
1493.261	4487
1495.477	4543
1497.693	4524
1499.91	4554
1502.125	4491
1504.339	4461
1506.553	4463
1508.766	4519
1510.979	4400
1513.191	4524
1515.402	4456
1517.613	4475
1519.823	4519
1522.033	4549
1524.242	4470
1526.451	4517
1528.657	4487
1530.865	4466
1533.072	4557
1535.278	4547
1537.484	4619
1539.687	4509
1541.892	4540
1544.096	4539
1546.299	4480
1548.502	4535
1550.703	4689
1552.905	4542
1555.104	4513
1557.303	4497
1559.505	4578
1561.703	4586
1563.902	4541
1566.099	4538
1568.295	4509
1570.494	4565
1572.689	4719
1574.883	4515
1577.079	4704
1579.272	4743
1581.467	4634
1583.659	4583
1585.853	4620
1588.044	4709
1590.234	4634
1592.424	4700
1594.615	4620
1596.806	4666
1598.994	4663
1601.182	4610
1603.369	4653
1605.557	4705
1607.744	4646
1609.929	4645
1612.114	4702
1614.298	4693
1616.482	4707
1618.667	4519
1620.85	4687
1623.032	4705
1625.214	4587
1627.395	4749
1629.575	4727
1631.755	4774
1633.935	4684
1636.114	4709
1638.292	4763
1640.471	4780
1642.647	4674
1644.823	4744
1647	4681
1649.175	4644
1651.348	4778
1653.525	4692
1655.698	4750
1657.87	4787
1660.043	4748
1662.213	4749
1664.387	4704
1666.558	4801
1668.727	4779
1670.896	4603
1673.064	4784
1675.233	4718
1677.401	4808
1679.569	4791
1681.735	4782
1683.902	4720
1686.066	4773
1688.233	4733
1690.397	4641
1692.559	4681
1694.723	4771
1696.885	4739
1699.048	4684
1701.21	4743
1703.37	4672
1705.53	4615
1707.689	4632
1709.849	4728
1712.009	4782
1714.166	4688
1716.323	4719
1718.479	4701
1720.634	4744
1722.793	4775
1724.948	4732
1727.102	4707
1729.255	4694
1731.408	4646
1733.562	4723
1735.714	4671
1737.865	4751
1740.016	4610
1742.166	4679
1744.316	4725
1746.467	4743
1748.616	4821
1750.764	4658
1752.911	4738
1755.056	4787
1757.205	4697
1759.35	4718
1761.496	4729
1763.641	4723
1765.785	4724
1767.927	4709
1770.072	4819
1772.214	4693
1774.355	4751
1776.496	4744
1778.637	4817
1780.778	4671
1782.918	4790
1785.057	4731
1787.194	4743
1789.333	4740
1791.472	4688
1793.608	4759
1795.745	4774
1797.879	4767
1800.015	4787
1802.148	4821
1804.284	4823
1806.417	4835
1808.548	4818
1810.682	4760
1812.812	4943
1814.946	4782
1817.075	4870
1819.205	4858
1821.335	4771
1823.463	4775
1825.59	4772
1827.721	4724
1829.847	4737
1831.973	4718
1834.098	4685
1836.223	4661
1838.351	4773
1840.475	4745
1842.598	4685
1844.721	4774
1846.843	4785
1848.966	4733
1851.087	4627
1853.21	4780
1855.33	4810
1857.449	4701
1859.568	4749
1861.688	4728
1863.806	4827
1865.924	4766
1868.039	4768
1870.155	4691
1872.273	4777
1874.388	4763
1876.503	4797
1878.617	4835
1880.73	4800
1882.844	4734
1884.956	4800
1887.068	4774
1889.18	4750
1891.291	4762
1893.4	4737
1895.511	4810
1897.621	4874
1899.73	4764
1901.837	4726
1903.944	4778
1906.053	4856
1908.159	4777
1910.265	4778
1912.369	4858
1914.474	4846
1916.577	4852
1918.683	4795
1920.785	4800
1922.888	4840
1924.989	4889
1927.091	4946
1929.193	4898
1931.294	4885
1933.393	4856
1935.493	4850
1937.59	4904
1939.689	4933
1941.788	4893
1943.884	4786
1945.98	4836
1948.077	4909
1950.171	4879
1952.267	4867
1954.361	4867
1956.455	4812
1958.548	4928
1960.64	4819
1962.733	4829
1964.824	4832
1966.915	4813
1969.005	4906
1971.096	4917
1973.185	4902
1975.275	4837
1977.363	4814
1979.45	4720
1981.537	4889
1983.623	4869
1985.711	4873
1987.796	4895
1989.881	4878
1991.965	4837
1994.047	4811
1996.132	4822
1998.215	4731
2000.297	4835
2002.378	4806
2004.46	4806
2006.54	4818
2008.62	4865
2010.7	4787
2012.779	4802
2014.858	4676
2016.934	4848
2019.013	4790
2021.09	4845
2023.165	4863
2025.241	4924
2027.317	4930
2029.39	4827
2031.466	4743
2033.538	4735
2035.612	4750
2037.683	4706
2039.755	4779
2041.827	4878
2043.898	4967
2045.968	4805
2048.038	4883
2050.106	4817
2052.177	4876
2054.244	4795
2056.313	4890
2058.379	4812
2060.444	4854
2062.511	4767
2064.577	4881
2066.641	4825
2068.705	4779
2070.77	4938
2072.832	4784
2074.896	4794
2076.958	4826
2079.02	4800
2081.081	4851
2083.141	4815
2085.2	4918
2087.261	4882
2089.319	4890
2091.377	4807
2093.435	4920
2095.492	4782
2097.552	4891
2099.607	4810
2101.663	4825
2103.718	4857
2105.771	4887
2107.826	4897
2109.879	4891
2111.932	4899
2113.985	4904
2116.037	4857
2118.088	4872
2120.141	4827
2122.191	4868
2124.239	4832
2126.288	4864
2128.337	4783
2130.387	4852
2132.434	4818
2134.481	4862
2136.528	4837
2138.574	4844
2140.618	4922
2142.665	4848
2144.71	4806
2146.753	4871
2148.797	4796
2150.838	4938
2152.883	4932
2154.923	4905
2156.965	4882
2159.007	4776
2161.046	4809
2163.086	4843
2165.126	4837
2167.163	4783
2169.202	4856
2171.239	4865
2173.277	4856
2175.314	4862
2177.349	4896
2179.385	4851
2181.42	4840
2183.453	4853
2185.49	4770
2187.522	4856
2189.555	4779
2191.586	4825
2193.619	4734
2195.651	4741
2197.682	4847
2199.711	4743
2201.74	4870
2203.769	4726
2205.799	4756
2207.828	4737
2209.855	4780
2211.882	4683
2213.908	4840
2215.934	4872
2217.961	4875
2219.986	4728
2222.01	4757
2224.034	4768
2226.057	4721
2228.08	4732
2230.104	4784
2232.124	4896
2234.145	4817
2236.166	4724
2238.186	4796
2240.207	4750
2242.227	4758
2244.244	4748
2246.262	4760
2248.28	4773
2250.299	4840
2252.314	4730
2254.33	4850
2256.346	4902
2258.36	4744
2260.375	4754
2262.391	4812
2264.403	4775
2266.416	4829
2268.427	4854
2270.44	4805
2272.453	4781
2274.463	4797
2276.474	4879
2278.483	4712
2280.493	4747
2282.501	4858
2284.51	4737
2286.518	4804
2288.524	4797
2290.532	4783
2292.537	4758
2294.544	4835
2296.55	4901
2298.554	4812
2300.557	4754
2302.562	4801
2304.566	4781
2306.568	4884
2308.569	4805
2310.572	4893
2312.573	4805
2314.573	4719
2316.574	4698
2318.573	4807
2320.571	4741
2322.571	4788
2324.569	4772
2326.567	4847
2328.564	4824
2330.56	4742
2332.556	4739
2334.551	4797
2336.546	4830
2338.542	4752
2340.535	4705
2342.529	4754
2344.521	4756
2346.512	4719
2348.505	4706
2350.497	4751
2352.487	4802
2354.478	4658
2356.468	4684
2358.457	4666
2360.446	4783
2362.434	4809
2364.422	4744
2366.408	4653
2368.395	4692
2370.383	4790
2372.369	4728
2374.353	4723
2376.338	4627
2378.321	4774
2380.307	4718
2382.29	4648
2384.272	4719
2386.254	4720
2388.235	4658
2390.218	4635
2392.198	4640
2394.179	4795
2396.157	4644
2398.137	4792
2400.115	4722
2402.095	4627
2404.072	4774
2406.048	4793
2408.026	4695
2410.001	4693
2411.977	4683
2413.953	4731
2415.927	4726
2417.9	4698
2419.875	4720
2421.847	4678
2423.821	4686
2425.792	4658
2427.763	4642
2429.736	4657
2431.706	4681
2433.677	4739
2435.646	4678
2437.615	4606
2439.583	4673
2441.551	4701
2443.519	4637
2445.486	4710
2447.452	4703
2449.418	4668
2451.383	4738
2453.348	4683
2455.314	4642
2457.278	4640
2459.241	4735
2461.205	4700
2463.167	4708
2465.131	4634
2467.091	4715
2469.052	4606
2471.012	4666
2472.972	4780
2474.932	4625
2476.891	4731
2478.85	4649
2480.808	4628
2482.766	4582
2484.722	4581
2486.68	4594
2488.636	4637
2490.591	4589
2492.546	4616
2494.5	4640
2496.456	4732
2498.41	4610
2500.362	4603
2502.315	4625
2504.266	4685
2506.218	4670
2508.169	4622
2510.121	4551
2512.07	4646
2514.019	4593
2515.968	4696
2517.918	4560
2519.866	4672
2521.813	4707
2523.76	4739
2525.707	4661
2527.653	4668
2529.599	4699
2531.543	4661
2533.489	4615
2535.433	4683
2537.376	4556
2539.32	4665
2541.264	4543
2543.205	4472
2545.147	4636
2547.087	4644
2549.029	4750
2550.969	4578
2552.908	4648
2554.847	4729
2556.786	4608
2558.724	4651
2560.663	4586
2562.6	4652
2564.537	4603
2566.473	4659
2568.408	4691
2570.345	4687
2572.28	4644
2574.214	4571
2576.148	4621
2578.081	4577
2580.014	4685
2581.947	4636
2583.879	4607
2585.81	4647
2587.741	4592
2589.67	4639
2591.602	4623
2593.532	4650
2595.461	4615
2597.388	4662
2599.316	4693
2601.244	4640
2603.172	4566
2605.098	4576
2607.023	4644
2608.949	4688
2610.873	4702
2612.8	4661
2614.723	4603
2616.647	4677
2618.569	4659
2620.493	4662
2622.416	4586
2624.338	4615
2626.258	4697
2628.179	4683
2630.099	4727
2632.019	4641
2633.939	4660
2635.857	4689
2637.775	4675
2639.694	4615
2641.61	4699
2643.528	4716
2645.444	4633
2647.361	4605
2649.276	4743
2651.19	4667
2653.105	4772
2655.019	4688
2656.934	4823
2658.846	4711
2660.758	4763
2662.67	4699
2664.583	4597
2666.493	4730
2668.404	4660
2670.313	4701
2672.223	4711
2674.134	4605
2676.042	4603
2677.95	4576
2679.858	4578
2681.765	4693
2683.673	4771
2685.579	4618
2687.483	4556
2689.389	4694
2691.294	4598
2693.198	4684
2695.104	4521
2697.006	4596
2698.909	4595
2700.811	4682
2702.713	4540
2704.615	4720
2706.516	4577
2708.417	4602
2710.316	4718
2712.216	4517
2714.115	4635
2716.014	4741
2717.913	4534
2719.81	4633
2721.707	4588
2723.603	4654
2725.501	4567
2727.396	4490
2729.292	4653
2731.186	4587
2733.081	4674
2734.976	4624
2736.87	4637
2738.762	4590
2740.653	4637
2742.546	4615
2744.437	4570
2746.329	4646
2748.22	4732
2750.11	4644
2751.999	4577
2753.889	4575
2755.778	4637
2757.666	4624
2759.553	4531
2761.44	4596
2763.328	4596
2765.215	4608
2767.101	4656
2768.986	4613
2770.87	4558
2772.754	4587
2774.638	4632
2776.523	4556
2778.405	4567
2780.288	4645
2782.17	4669
2784.051	4658
2785.934	4594
2787.814	4590
2789.694	4547
2791.574	4592
2793.453	4477
2795.332	4646
2797.212	4515
2799.088	4587
2800.966	4551
2802.843	4512
2804.719	4594
2806.597	4516
2808.471	4525
2810.346	4555
2812.221	4535
2814.094	4490
2815.969	4581
2817.843	4529
2819.714	4523
2821.587	4622
2823.459	4486
2825.329	4621
2827.202	4516
2829.072	4537
2830.942	4528
2832.811	4583
2834.68	4641
2836.549	4568
2838.418	4541
2840.284	4529
2842.152	4599
2844.018	4582
2845.885	4626
2847.751	4549
2849.616	4604
2851.482	4547
2853.345	4630
2855.208	4618
2857.074	4661
2858.937	4600
2860.799	4635
2862.66	4603
2864.522	4693
2866.385	4726
2868.245	4639
2870.104	4809
2871.964	4640
2873.824	4702
2875.683	4691
2877.542	4715
2879.4	4823
2881.257	4825
2883.114	4834
2884.97	4809
2886.827	4845
2888.683	4921
2890.537	4831
2892.392	4817
2894.246	4823
2896.1	4860
2897.954	4805
2899.807	4902
2901.66	4800
2903.51	4753
2905.362	4929
2907.214	4814
2909.065	4790
2910.915	4828
2912.765	4834
2914.613	4806
2916.463	4898
2918.311	4952
2920.158	4966
2922.006	5102
2923.853	4999
2925.698	5110
2927.546	5111
2929.392	5027
2931.236	5117
2933.081	5164
2934.924	5206
2936.77	5143
2938.613	5238
2940.455	5229
2942.298	5255
2944.139	5235
2945.982	5366
2947.823	5198
2949.662	5256
2951.503	5277
2953.342	5056
2955.182	5188
2957.021	5123
2958.858	5174
2960.697	5046
2962.534	4987
2964.37	5013
2966.207	4969
2968.044	5022
2969.879	4920
2971.714	4889
2973.548	4852
2975.383	4901
2977.218	4937
2979.051	4840
2980.883	4836
2982.715	4931
2984.547	4876
2986.379	4800
2988.21	4719
2990.04	4743
2991.87	4757
2993.7	4741
2995.53	4590
2997.359	4730
2999.187	4644
3001.015	4585
3002.842	4602
3004.669	4541
3006.497	4503
3008.323	4592
3010.148	4549
3011.974	4537
3013.797	4520
3015.623	4544
3017.447	4456
3019.27	4472
3021.094	4532
3022.915	4533
3024.737	4467
3026.56	4447
3028.38	4479
3030.201	4466
3032.022	4452
3033.84	4475
3035.662	4442
3037.481	4402
3039.298	4352
3041.117	4417
3042.933	4494
3044.752	4339
3046.568	4365
3048.385	4348
3050.2	4426
3052.016	4388
3053.83	4317
3055.646	4394
3057.46	4454
3059.272	4360
3061.086	4366
3062.898	4374
3064.711	4358
3066.524	4408
3068.335	4496
3070.145	4432
3071.956	4391
3073.766	4393
3075.576	4350
3077.385	4388
3079.193	4373
3081.002	4344
3082.81	4285
3084.618	4294
3086.425	4271
3088.231	4338
3090.036	4296
3091.842	4228
3093.648	4299
3095.452	4320
3097.257	4251
3099.06	4216
3100.863	4321
3102.666	4256
3104.47	4276
3106.272	4231
3108.073	4240
3109.875	4296
3111.676	4242
3113.477	4252
3115.277	4256
3117.077	4234
3118.874	4320
3120.673	4303
3122.473	4244
3124.271	4313
3126.066	4246
3127.863	4185
3129.66	4288
3131.456	4208
3133.252	4222
3135.047	4222
3136.842	4341
3138.635	4228
3140.429	4269
3142.223	4196
3144.016	4309
3145.808	4244
3147.6	4164
3149.392	4125
3151.183	4155
3152.975	4243
3154.765	4139
3156.553	4186
3158.344	4132
3160.132	4147
3161.922	4216
3163.71	4188
3165.497	4185
3167.285	4199
3169.071	4190
3170.858	4136
3172.645	4166
3174.429	4189
3176.214	4148
3177.998	4152
3179.783	4155
3181.568	4171
3183.351	4146
3185.133	4178
3186.915	4162
3188.698	4213
3190.481	4119
3192.261	4131
3194.042	4187
3195.822	4155
3197.601	4100
3199.381	4136
3201.161	4179
3202.939	4191
3204.717	4096
3206.495	4116
3208.272	4119
3210.05	4224
3211.826	4135
3213.602	4143
3215.376	4125
3217.151	4138
3218.927	4106
3220.702	4154
3222.476	4101
3224.249	4147
3226.021	4069
3227.793	4134
3229.567	4089
3231.339	4105
3233.109	4143
3234.88	4234
3236.651	4066
3238.421	4097
3240.191	4133
3241.96	4110
3243.728	4153
3245.497	4124
3247.263	4112
3249.033	4103
3250.799	4115
3252.566	4090
3254.331	4146
3256.097	3971
3257.863	4111
3259.628	4068
3261.392	4174
3263.156	4087
3264.919	4019
3266.683	4143
3268.447	4147
3270.208	4052
3271.969	4123
3273.731	4093
3275.492	4173
3277.253	4044
3279.013	4150
3280.773	4129
3282.532	4109
3284.291	4160
3286.05	4077
3287.808	4095
3289.566	4099
3291.323	4092
3293.079	4133
3294.835	4131
3296.593	4139
3298.348	4103
3300.102	4169
3301.857	4110
3303.611	4100
3305.366	4122
3307.119	4140
3308.872	3987
3310.624	4091
3312.376	4162
3314.129	4052
3315.881	4054
3317.631	4089
3319.38	4064
3321.13	4053
3322.88	4117
3324.631	4097
3326.379	4114
3328.126	4148
3329.875	4071
3331.622	4099
3333.371	4061
3335.116	4020
3336.863	4087
3338.609	4026
3340.353	4074
3342.1	4031
3343.845	4002
3345.588	4050
3347.332	4059
3349.074	4118
3350.817	4077
3352.56	3989
3354.303	4041
3356.043	3950
3357.785	4046
3359.525	4044
3361.268	3953
3363.007	3997
3364.745	4078
3366.485	4076
3368.223	4096
3369.962	4013
3371.701	4037
3373.438	4011
3375.174	4073
3376.911	4011
3378.647	4038
3380.384	4005
3382.118	3994
3383.854	4021
3385.588	4090
3387.322	4010
3389.057	4053
3390.79	4008
3392.522	3998
3394.255	4035
3395.987	4049
3397.719	4024
3399.451	4051
3401.181	4000
3402.911	3962
3404.641	3976
3406.371	3919
3408.101	4025
3409.83	4080
3411.558	3904
3413.285	3937
3415.011	3991
3416.739	3963
3418.467	3980
3420.193	4013
3421.919	4076
3423.644	3967
3425.368	3972
3427.094	3949
3428.818	3892
3430.542	3915
3432.264	3896
3433.987	3931
3435.712	3897
3437.434	3924
3439.155	3883
3440.876	3944
3442.596	3890
3444.317	3871
3446.039	3955
3447.757	3878
3449.477	3965
3451.195	3889
3452.914	3852
3454.632	3835
3456.35	3923
3458.067	3896
3459.784	3874
3461.5	3855
3463.216	3925
3464.932	3789
3466.647	3848
3468.362	3765
3470.076	3892
3471.789	3822
3473.505	3862
3475.217	3828
3476.929	3851
3478.641	3837
3480.354	3850
3482.066	3770
3483.777	3825
3485.487	3740
3487.197	3836
3488.908	3806
3490.617	3802
3492.327	3808
3494.035	3767
3495.743	3804
3497.451	3700
3499.158	3829
3500.866	3751
3502.572	3832
3504.278	3807
3505.984	3784
3507.689	3772
3509.396	3787
3511.1	3790
3512.804	3681
3514.508	3751
3516.211	3732
3517.913	3788
3519.616	3744
3521.319	3770
3523.021	3762
3524.722	3758
3526.422	3755
3528.124	3750
3529.824	3683
3531.524	3735
3533.222	3628
3534.921	3724
3536.62	3746
3538.318	3689
3540.016	3746
3541.714	3720
3543.41	3705
3545.107	3724
3546.803	3628
3548.5	3653
3550.194	3633
3551.889	3647
3553.583	3714
3555.279	3681
3556.972	3706
3558.666	3607
3560.358	3693
3562.051	3700
3563.742	3698
3565.435	3698
3567.126	3549
3568.817	3713
3570.507	3688
3572.197	3723
3573.888	3664
3575.577	3728
3577.265	3634
3578.954	3669
3580.642	3713
3582.329	3628
3584.017	3666
3585.704	3650
3587.391	3610
3589.077	3682
3590.762	3550
3592.449	3676
3594.133	3671
3595.817	3639
3597.501	3568
3599.185	3591
3600.869	3565
3602.552	3625
3604.234	3601
3605.916	3594
3607.598	3577
3609.279	3593
3610.961	3618
3612.642	3554
3614.321	3623
3616	3617
3617.68	3592
3619.36	3530
3621.039	3559
3622.716	3501
3624.394	3550
3626.071	3570
3627.748	3538
3629.425	3518
3631.102	3522
3632.778	3477
3634.452	3489
3636.127	3499
3637.803	3518
3639.477	3477
3641.151	3584
3642.823	3466
3644.497	3410
3646.171	3472
3647.842	3462
3649.515	3496
3651.185	3478
3652.857	3534
3654.527	3476
3656.198	3505
3657.868	3417
3659.537	3555
3661.207	3466
3662.875	3406
3664.544	3501
3666.212	3461
3667.879	3477
3669.546	3401
3671.212	3354
3672.88	3453
3674.546	3434
3676.211	3459
3677.875	3433
3679.541	3415
3681.205	3430
3682.87	3440
3684.533	3374
3686.196	3454
3687.859	3403
3689.521	3474
3691.184	3448
3692.845	3295
3694.507	3343
3696.167	3455
3697.827	3504
3699.487	3387
3701.148	3373
3702.808	3405
3704.466	3409
3706.125	3406
3707.783	3411
3709.442	3418
3711.099	3377
3712.757	3446
3714.412	3356
3716.068	3402
3717.725	3362
3719.381	3320
3721.036	3429
3722.689	3361
3724.344	3340
3725.998	3375
3727.652	3395
3729.305	3379
3730.958	3324
3732.61	3369
3734.262	3358
3735.915	3371
3737.565	3372
3739.217	3344
3740.866	3385
3742.516	3331
3744.165	3356
3745.816	3349
3747.464	3398
3749.113	3252
3750.761	3376
3752.409	3430
3754.057	3357
3755.703	3339
3757.35	3298
3758.996	3303
3760.641	3290
3762.289	3364
3763.933	3318
3765.577	3297
3767.222	3286
3768.865	3456
3770.508	3283
3772.152	3321
3773.796	3344
3775.438	3244
3777.079	3267
3778.721	3238
3780.363	3265
3782.003	3316
3783.643	3256
3785.283	3299
3786.923	3196
3788.563	3287
3790.203	3291
3791.841	3278
3793.479	3213
3795.115	3266
3796.753	3270
3798.391	3203
3800.027	3256
3801.664	3261
3803.299	3235
3804.935	3210
3806.571	3173
3808.206	3187
3809.839	3283
3811.473	3285
3813.107	3246
3814.74	3232
3816.375	3232
3818.006	3279
3819.638	3252
3821.27	3183
3822.9	3289
3824.532	3180
3826.163	3261
3827.792	3209
3829.423	3248
3831.051	3228
3832.682	3260
3834.311	3111
3835.938	3224
3837.566	3216
3839.193	3182
3840.821	3166
3842.448	3181
3844.075	3057
3845.7	3203
3847.325	3140
3848.951	3265
3850.576	3183
3852.201	3138
3853.825	3179
3855.448	3209
3857.072	3232
3858.694	3208
3860.318	3120
3861.939	3072
3863.562	3179
3865.183	3139
3866.804	3209
3868.426	3171
3870.045	3154
3871.666	3182
3873.285	3158
3874.904	3170
3876.524	3153
3878.142	3099
3879.76	3134
3881.378	3104
3882.995	3094
3884.612	3159
3886.229	3183
3887.845	3113
3889.461	3076
3891.076	3236
3892.691	3151
3894.307	3087
3895.922	3073
3897.536	3182
3899.149	3084
3900.761	3153
3902.374	3106
3903.988	3162
3905.6	3078
3907.212	3135
3908.822	3090
3910.433	3088
3912.045	3104
3913.655	3165
3915.265	3121
3916.875	3124
3918.483	3034
3920.093	3103
3921.702	3124
3923.309	3155
3924.917	3114
3926.523	3071
3928.13	3037
3929.739	3071
3931.344	3095
3932.95	3105
3934.555	3092
3936.159	3135
3937.766	3049
3939.369	3039
3940.974	3100
3942.577	3079
3944.181	3110
3945.783	3138
3947.386	3061
3948.989	3062
3950.59	3005
3952.191	3111
3953.791	3019
3955.394	3068
3956.994	3107
3958.593	3133
3960.192	2975
3961.791	3057
3963.392	3056
3964.99	3085
3966.588	3049
3968.185	3042
3969.782	3089
3971.379	3050
3972.976	2980
3974.572	2988
3976.168	3016
3977.763	2986
3979.358	3019
3980.954	3016
3982.548	3012
3984.142	2982
3985.736	2971
3987.329	2947
3988.922	3018
3990.516	2993
3992.108	2974
3993.698	3102
3995.29	2972
3996.881	3001
3998.473	3015
4000.064	2930
4001.653	3077
4003.242	2960
4004.832	2935
4006.422	2932
4008.01	2987
4009.598	2952
4011.186	2954
4012.773	2928
4014.36	2953
4015.947	2856
4017.534	2867
4019.119	2934
4020.705	2891
4022.291	2891
4023.876	2900
4025.461	2909
4027.044	2954
4028.627	2864
4030.211	2967
4031.795	2864
4033.378	2921
4034.96	2932
4036.542	2842
4038.124	2863
4039.704	2960
4041.286	2886
4042.867	2883
4044.447	2886
4046.026	2826
4047.606	2861
4049.187	2815
4050.765	2900
4052.343	2856
4053.92	2843
4055.498	2931
4057.076	2795
4058.654	2832
4060.23	2834
4061.806	2896
4063.381	2952
4064.957	2822
4066.533	2824
4068.107	2865
4069.682	2894
4071.256	2764
4072.829	2901
4074.404	2850
4075.977	2804
4077.549	2925
4079.121	2855
4080.693	2855
4082.265	2807
4083.836	2764
4085.407	2810
4086.977	2805
4088.547	2866
4090.117	2904
4091.687	2805
4093.256	2839
4094.825	2844
4096.392	2920
4097.96	2797
4099.528	2776
4101.097	2840
4102.663	2810
4104.229	2752
4105.795	2848
4107.361	2894
4108.928	2873
4110.493	2820
4112.058	2843
4113.621	2809
4115.186	2762
4116.75	2795
4118.313	2797
4119.876	2785
4121.438	2821
4123	2710
4124.562	2780
4126.125	2722
4127.686	2828
4129.246	2740
4130.807	2709
4132.367	2782
4133.927	2778
4135.486	2694
4137.046	2754
4138.604	2827
4140.162	2751
4141.72	2728
4143.279	2724
4144.836	2783
4146.393	2692
4147.949	2717
4149.505	2690
4151.062	2739
4152.617	2700
4154.172	2735
4155.727	2713
4157.281	2717
4158.836	2778
4160.39	2699
4161.943	2688
4163.496	2616
4165.048	2723
4166.601	2719
4168.154	2701
4169.706	2615
4171.257	2710
4172.808	2654
4174.358	2684
4175.909	2730
4177.458	2734
4179.008	2704
4180.558	2681
4182.106	2629
4183.655	2682
4185.204	2722
4186.751	2637
4188.298	2672
4189.845	2703
4191.392	2624
4192.939	2613
4194.485	2693
4196.031	2633
4197.576	2637
4199.121	2652
4200.666	2654
4202.211	2632
4203.754	2636
4205.298	2643
4206.84	2648
4208.384	2633
4209.927	2611
4211.47	2594
4213.011	2610
4214.552	2646
4216.094	2632
4217.635	2575
4219.175	2622
4220.716	2635
4222.255	2597
4223.793	2603
4225.335	2665
4226.873	2608
4228.411	2652
4229.948	2577
4231.486	2692
4233.024	2568
4234.562	2604
4236.098	2637
4237.634	2596
4239.169	2548
4240.705	2567
4242.241	2568
4243.776	2576
4245.31	2638
4246.844	2650
4248.378	2642
4249.911	2619
4251.445	2601
4252.978	2607
4254.51	2573
4256.042	2582
4257.574	2545
4259.107	2575
4260.638	2606
4262.169	2548
4263.699	2543
4265.228	2600
4266.759	2606
4268.289	2627
4269.818	2502
4271.345	2542
4272.874	2614
4274.402	2580
4275.931	2528
4277.458	2456
4278.985	2596
4280.512	2522
4282.037	2577
4283.564	2509
4285.089	2568
4286.615	2480
4288.139	2549
4289.664	2537
4291.187	2584
4292.712	2607
4294.235	2537
4295.759	2468
4297.281	2471
4298.804	2542
4300.327	2582
4301.849	2469
4303.37	2515
4304.891	2480
4306.412	2519
4307.933	2576
4309.453	2488
4310.973	2573
4312.492	2491
