398.1873	2721
400.7097	2712
403.2336	2770
405.7547	2724
408.2751	2775
410.7948	2852
413.3138	2830
415.83	2799
418.3497	2883
420.8666	2891
423.3829	2830
425.8985	2932
428.4133	2929
430.9275	2847
433.441	2941
435.9538	2871
438.4639	2913
440.9753	2919
443.4881	2957
445.9982	2972
448.5055	2924
451.0142	2968
453.5201	2944
456.0274	2927
458.5361	2884
461.04	2977
463.5453	2905
466.0478	2938
468.5517	2872
471.0549	2887
473.5574	3015
476.0572	2916
478.5584	2894
481.0568	2932
483.5545	2905
486.0557	2908
488.5521	2991
491.0478	3028
493.5449	2943
496.0392	2996
498.5349	2970
501.0299	2966
503.5222	3003
506.0139	3041
508.5048	3022
510.9991	3014
513.4887	3049
515.9777	3065
518.4659	2947
520.9534	3006
523.4403	2989
525.9306	3034
528.4161	3105
530.9009	3050
533.3851	2955
535.8687	2953
538.3535	3047
540.8356	3091
543.3171	3059
545.7979	3103
548.278	3048
550.7595	3041
553.2383	3026
555.7144	3071
558.1918	3098
560.6685	2979
563.1446	3082
565.6221	3037
568.0968	3054
570.5688	3084
573.0422	3023
575.515	3122
577.989	3120
580.4584	3194
582.9291	3124
585.3991	3134
587.8685	3116
590.3352	3148
592.8052	3156
595.2706	3124
597.7372	3191
600.2033	3177
602.6666	3157
605.1334	3157
607.5953	3084
610.0587	3101
612.5193	3149
614.9814	3167
617.4427	3120
619.9034	3149
622.3615	3183
624.8208	3140
627.2775	3080
629.7335	3122
632.1929	3053
634.6476	3163
637.1016	3108
639.5569	3105
642.0096	3145
644.4637	3149
646.9151	3180
649.3678	3125
651.8179	3143
654.2672	3093
656.7159	3240
659.166	3124
661.6154	3248
664.0622	3151
666.5082	3165
668.9537	3184
671.4005	3204
673.8445	3195
676.288	3195
678.7308	3216
681.1729	3227
683.6163	3191
686.0572	3173
688.4973	3226
690.9368	3171
693.3757	3235
695.8138	3178
698.2534	3264
700.6902	3254
703.1245	3259
705.56	3347
707.9949	3322
710.4311	3340
712.8647	3191
715.2957	3282
717.7279	3351
720.1595	3204
722.5905	3309
725.0208	3242
727.4505	3257
729.8795	3324
732.3058	3296
734.7336	3332
737.1626	3377
739.587	3293
742.0128	3336
744.4359	3367
746.8604	3437
749.2841	3413
751.7073	3439
754.1278	3403
756.5496	3404
758.9688	3316
761.3893	3412
763.8093	3464
766.2285	3470
768.6451	3423
771.0611	3471
773.4784	3445
775.895	3438
778.3091	3471
780.7244	3433
783.1371	3457
785.5493	3411
787.9626	3401
790.3754	3437
792.7856	3500
795.1951	3557
797.6039	3505
800.0121	3441
802.4236	3416
804.8306	3515
807.2369	3413
809.6425	3415
812.0475	3497
814.4538	3460
816.8575	3449
819.2606	3465
821.663	3399
824.0648	3455
826.4659	3546
828.8683	3460
831.2682	3425
833.6674	3467
836.066	3536
838.4639	3594
840.8632	3506
843.2579	3546
845.6539	3476
848.0493	3455
850.444	3470
852.84	3511
855.2315	3549
857.6243	3499
860.0165	3509
862.4081	3537
864.797	3556
867.1892	3524
869.5789	3579
871.9659	3513
874.3542	3461
876.74	3486
879.129	3557
881.5155	3478
883.8994	3542
886.2845	3590
888.6671	3548
891.051	3481
893.4343	3508
895.8169	3557
898.197	3576
900.5783	3514
902.9571	3490
905.3372	3558
907.7167	3602
910.0936	3559
912.4698	3694
914.8474	3539
917.2244	3612
919.5987	3592
921.9744	3677
924.3475	3714
926.72	3596
929.0918	3638
931.4669	3670
933.8375	3612
936.2074	3755
938.5767	3697
940.9454	3754
943.3154	3754
945.6829	3770
948.0497	3845
950.4178	3921
952.7833	4052
955.1483	4159
957.5145	4209
959.8782	4219
962.2412	4193
964.6036	4191
966.9655	4108
969.3266	3983
971.6871	3823
974.0471	3758
976.4064	3810
978.765	3702
981.125	3677
983.4824	3601
985.8373	3654
988.1935	3594
990.549	3688
992.9039	3630
995.2602	3692
997.6119	3579
999.965	3684
1002.317	3744
1004.667	3660
1007.02	3661
1009.371	3704
1011.719	3605
1014.068	3630
1016.415	3647
1018.765	3650
1021.111	3668
1023.458	3686
1025.804	3660
1028.147	3683
1030.49	3730
1032.837	3648
1035.179	3694
1037.522	3731
1039.862	3711
1042.204	3707
1044.546	3717
1046.884	3673
1049.224	3734
1051.562	3718
1053.899	3729
1056.237	3750
1058.575	3740
1060.91	3696
1063.244	3749
1065.58	3870
1067.913	3770
1070.248	3740
1072.579	3798
1074.911	3837
1077.242	3830
1079.572	3805
1081.905	3804
1084.234	3785
1086.562	3726
1088.89	3749
1091.217	3766
1093.544	3717
1095.871	3733
1098.197	3784
1100.521	3824
1102.845	3741
1105.169	3788
1107.491	3722
1109.814	3768
1112.135	3761
1114.456	3792
1116.776	3796
1119.096	3777
1121.415	3728
1123.734	3878
1126.052	3767
1128.369	3846
1130.686	3776
1133.002	3725
1135.318	3886
1137.632	3819
1139.945	3740
1142.258	3739
1144.573	3814
1146.884	3847
1149.196	3711
1151.505	3807
1153.816	3766
1156.124	3724
1158.435	3848
1160.742	3833
1163.051	3793
1165.356	3834
1167.663	3815
1169.97	3775
1172.276	3803
1174.579	3762
1176.881	3750
1179.186	3837
1181.487	3760
1183.79	3700
1186.092	3803
1188.392	3767
1190.691	3839
1192.991	3832
1195.291	3786
1197.588	3865
1199.885	3774
1202.181	3811
1204.479	3785
1206.775	3813
1209.07	3840
1211.363	3830
1213.656	3867
1215.949	3829
1218.241	3890
1220.534	3800
1222.825	3860
1225.115	3772
1227.405	3811
1229.693	3902
1231.984	3948
1234.271	3870
1236.558	3809
1238.845	3893
1241.131	3882
1243.416	3855
1245.703	3881
1247.987	3998
1250.269	3934
1252.552	3975
1254.834	3947
1257.118	3911
1259.399	3937
1261.678	3880
1263.958	3837
1266.237	3932
1268.516	3910
1270.794	3969
1273.072	3906
1275.347	3894
1277.624	3951
1279.899	3834
1282.175	3989
1284.449	3877
1286.722	3907
1288.995	3942
1291.266	3946
1293.54	3845
1295.81	3946
1298.081	3906
1300.35	3932
1302.62	3884
1304.889	3957
1307.156	3811
1309.425	3941
1311.69	3870
1313.957	3948
1316.222	3903
1318.488	3915
1320.751	3915
1323.016	3867
1325.278	3795
1327.54	3946
1329.803	3873
1332.065	3903
1334.325	3941
1336.584	3943
1338.843	3896
1341.101	3914
1343.36	4008
1345.617	3908
1347.876	3886
1350.131	3883
1352.387	3923
1354.643	3939
1356.897	3921
1359.151	3870
1361.403	3857
1363.656	3975
1365.909	3973
1368.16	4039
1370.409	3908
1372.659	4004
1374.909	3993
1377.157	3829
1379.407	3938
1381.655	3976
1383.9	3998
1386.147	3980
1388.393	4024
1390.64	4034
1392.885	4025
1395.127	4068
1397.37	4070
1399.614	4037
1401.854	3983
1404.098	4092
1406.339	4059
1408.578	4144
1410.818	3976
1413.056	3988
1415.297	4075
1417.533	4050
1419.771	3967
1422.006	4048
1424.243	4003
1426.479	4050
1428.715	4027
1430.948	4038
1433.182	4230
1435.414	4038
1437.647	4106
1439.88	4100
1442.11	4104
1444.342	4079
1446.571	4100
1448.799	4111
1451.029	4255
1453.258	4116
1455.485	4124
1457.711	4057
1459.937	4103
1462.164	4093
1464.39	4070
1466.614	4119
1468.838	3989
1471.06	4092
1473.283	4014
1475.506	4021
1477.727	4021
1479.949	3981
1482.169	4023
1484.389	3974
1486.609	4005
1488.828	3992
1491.045	4041
1493.261	4007
1495.477	4000
1497.693	4112
1499.91	3979
1502.125	3868
1504.339	3929
1506.553	4068
1508.766	3970
1510.979	3988
1513.191	3952
1515.402	3955
1517.613	4025
1519.823	3990
1522.033	3898
1524.242	3981
1526.451	3909
1528.657	3983
1530.865	3925
1533.072	4028
1535.278	3985
1537.484	3998
1539.687	4038
1541.892	4008
1544.096	4055
1546.299	3954
1548.502	4088
1550.703	3954
1552.905	4016
1555.104	4046
1557.303	3920
1559.505	3975
1561.703	4143
1563.902	4059
1566.099	4021
1568.295	4134
1570.494	4066
1572.689	4045
1574.883	4125
1577.079	4035
1579.272	4085
1581.467	4045
1583.659	4046
1585.853	4189
1588.044	4105
1590.234	4067
1592.424	4171
1594.615	4241
1596.806	4149
1598.994	4142
1601.182	4087
1603.369	4149
1605.557	4081
1607.744	4040
1609.929	4088
1612.114	4136
1614.298	4048
1616.482	4119
1618.667	4108
1620.85	4125
1623.032	4129
1625.214	4240
1627.395	4153
1629.575	4189
1631.755	4222
1633.935	4140
1636.114	4161
1638.292	4210
1640.471	4117
1642.647	4210
1644.823	4227
1647	4211
1649.175	4151
1651.348	4180
1653.525	4201
1655.698	4218
1657.87	4129
1660.043	4182
1662.213	4305
1664.387	4215
1666.558	4226
1668.727	4161
1670.896	4324
1673.064	4261
1675.233	4243
1677.401	4202
1679.569	4181
1681.735	4211
1683.902	4149
1686.066	4142
1688.233	4185
1690.397	4170
1692.559	4094
1694.723	4126
1696.885	4165
1699.048	4090
1701.21	4282
1703.37	4187
1705.53	4175
1707.689	4142
1709.849	4119
1712.009	4124
1714.166	4163
1716.323	4073
1718.479	4128
1720.634	4115
1722.793	4093
1724.948	4031
1727.102	4193
1729.255	4125
1731.408	4210
1733.562	4121
1735.714	4196
1737.865	4208
1740.016	4184
1742.166	4099
1744.316	4085
1746.467	4133
1748.616	4151
1750.764	4243
1752.911	4200
1755.056	4253
1757.205	4260
1759.35	4156
1761.496	4156
1763.641	4281
1765.785	4112
1767.927	4207
1770.072	4243
1772.214	4214
1774.355	4206
1776.496	4273
1778.637	4270
1780.778	4258
1782.918	4232
1785.057	4193
1787.194	4169
1789.333	4212
1791.472	4206
1793.608	4156
1795.745	4272
1797.879	4208
1800.015	4290
1802.148	4231
1804.284	4175
1806.417	4182
1808.548	4216
1810.682	4198
1812.812	4225
1814.946	4221
1817.075	4169
1819.205	4260
1821.335	4188
1823.463	4259
1825.59	4246
1827.721	4199
1829.847	4165
1831.973	4251
1834.098	4159
1836.223	4229
1838.351	4177
1840.475	4227
1842.598	4256
1844.721	4179
1846.843	4185
1848.966	4202
1851.087	4221
1853.21	4143
1855.33	4206
1857.449	4307
1859.568	4237
1861.688	4169
1863.806	4156
1865.924	4206
1868.039	4201
1870.155	4215
1872.273	4116
1874.388	4241
1876.503	4168
1878.617	4168
1880.73	4264
1882.844	4228
1884.956	4220
1887.068	4172
1889.18	4264
1891.291	4192
1893.4	4278
1895.511	4239
1897.621	4167
1899.73	4239
1901.837	4237
1903.944	4214
1906.053	4234
1908.159	4254
1910.265	4322
1912.369	4325
1914.474	4245
1916.577	4284
1918.683	4277
1920.785	4222
1922.888	4316
1924.989	4295
1927.091	4245
1929.193	4319
1931.294	4299
1933.393	4284
1935.493	4247
1937.59	4308
1939.689	4378
1941.788	4302
1943.884	4297
1945.98	4332
1948.077	4320
1950.171	4273
1952.267	4324
1954.361	4278
1956.455	4343
1958.548	4300
1960.64	4378
1962.733	4273
1964.824	4328
1966.915	4307
1969.005	4308
1971.096	4324
1973.185	4233
1975.275	4305
1977.363	4329
1979.45	4284
1981.537	4332
1983.623	4312
1985.711	4304
1987.796	4283
1989.881	4301
1991.965	4340
1994.047	4279
1996.132	4244
1998.215	4234
2000.297	4324
2002.378	4290
2004.46	4376
2006.54	4301
2008.62	4198
2010.7	4269
2012.779	4229
2014.858	4299
2016.934	4298
2019.013	4290
2021.09	4211
2023.165	4282
2025.241	4369
2027.317	4383
2029.39	4302
2031.466	4286
2033.538	4232
2035.612	4255
2037.683	4283
2039.755	4278
2041.827	4264
2043.898	4283
2045.968	4311
2048.038	4212
2050.106	4381
2052.177	4328
2054.244	4325
2056.313	4359
2058.379	4239
2060.444	4362
2062.511	4273
2064.577	4271
2066.641	4326
2068.705	4331
2070.77	4332
2072.832	4344
2074.896	4306
2076.958	4260
2079.02	4373
2081.081	4279
2083.141	4250
2085.2	4341
2087.261	4259
2089.319	4348
2091.377	4313
2093.435	4327
2095.492	4295
2097.552	4246
2099.607	4380
2101.663	4200
2103.718	4400
2105.771	4347
2107.826	4242
2109.879	4291
2111.932	4345
2113.985	4391
2116.037	4311
2118.088	4336
2120.141	4282
2122.191	4206
2124.239	4391
2126.288	4298
2128.337	4302
2130.387	4296
2132.434	4363
2134.481	4295
2136.528	4286
2138.574	4239
2140.618	4381
2142.665	4251
2144.71	4338
2146.753	4380
2148.797	4394
2150.838	4399
2152.883	4291
2154.923	4374
2156.965	4258
2159.007	4253
2161.046	4222
2163.086	4276
2165.126	4350
2167.163	4297
2169.202	4295
2171.239	4336
2173.277	4204
2175.314	4222
2177.349	4283
2179.385	4232
2181.42	4239
2183.453	4231
2185.49	4271
2187.522	4314
2189.555	4250
2191.586	4299
2193.619	4240
2195.651	4205
2197.682	4288
2199.711	4243
2201.74	4252
2203.769	4233
2205.799	4293
2207.828	4214
2209.855	4278
2211.882	4311
2213.908	4272
2215.934	4268
2217.961	4250
2219.986	4289
2222.01	4246
2224.034	4293
2226.057	4259
2228.08	4206
2230.104	4241
2232.124	4292
2234.145	4267
2236.166	4221
2238.186	4245
2240.207	4236
2242.227	4254
2244.244	4267
2246.262	4294
2248.28	4195
2250.299	4250
2252.314	4189
2254.33	4312
2256.346	4211
2258.36	4262
2260.375	4268
2262.391	4222
2264.403	4230
2266.416	4338
2268.427	4259
2270.44	4199
2272.453	4253
2274.463	4258
2276.474	4219
2278.483	4202
2280.493	4285
2282.501	4302
2284.51	4292
2286.518	4280
2288.524	4243
2290.532	4231
2292.537	4246
2294.544	4254
2296.55	4287
2298.554	4177
2300.557	4249
2302.562	4259
2304.566	4279
2306.568	4219
2308.569	4233
2310.572	4199
2312.573	4296
2314.573	4236
2316.574	4213
2318.573	4153
2320.571	4184
2322.571	4214
2324.569	4231
2326.567	4266
2328.564	4210
2330.56	4258
2332.556	4219
2334.551	4264
2336.546	4241
2338.542	4188
2340.535	4208
2342.529	4242
2344.521	4134
2346.512	4173
2348.505	4222
2350.497	4164
2352.487	4154
2354.478	4245
2356.468	4119
2358.457	4146
2360.446	4124
2362.434	4134
2364.422	4133
2366.408	4245
2368.395	4169
2370.383	4187
2372.369	4254
2374.353	4200
2376.338	4224
2378.321	4273
2380.307	4215
2382.29	4103
2384.272	4185
2386.254	4272
2388.235	4207
2390.218	4206
2392.198	4206
2394.179	4092
2396.157	4173
2398.137	4207
2400.115	4153
2402.095	4118
2404.072	4107
2406.048	4180
2408.026	4226
2410.001	4193
2411.977	4084
2413.953	4145
2415.927	4087
2417.9	4172
2419.875	4210
2421.847	4157
2423.821	4194
2425.792	4093
2427.763	4172
2429.736	4203
2431.706	4277
2433.677	4156
2435.646	4154
2437.615	4203
2439.583	4178
2441.551	4212
2443.519	4147
2445.486	4095
2447.452	4205
2449.418	4146
2451.383	4235
2453.348	4058
2455.314	4182
2457.278	4238
2459.241	4250
2461.205	4137
2463.167	4141
2465.131	4142
2467.091	4134
2469.052	4133
2471.012	4047
2472.972	4099
2474.932	4107
2476.891	4124
2478.85	4144
2480.808	4098
2482.766	4139
2484.722	3957
2486.68	4111
2488.636	4179
2490.591	4174
2492.546	4127
2494.5	4163
2496.456	4125
2498.41	4118
2500.362	4232
2502.315	4149
2504.266	4036
2506.218	4079
2508.169	4173
2510.121	4097
2512.07	4062
2514.019	4096
2515.968	4152
2517.918	4145
2519.866	4204
2521.813	4162
2523.76	4132
2525.707	4127
2527.653	4013
2529.599	4092
2531.543	4155
2533.489	4089
2535.433	4065
2537.376	4118
2539.32	4113
2541.264	4074
2543.205	4145
2545.147	4126
2547.087	4113
2549.029	4104
2550.969	4085
2552.908	4101
2554.847	4082
2556.786	4038
2558.724	4118
2560.663	4086
2562.6	4117
2564.537	4130
2566.473	4156
2568.408	4143
2570.345	4090
2572.28	4137
2574.214	4205
2576.148	4015
2578.081	4151
2580.014	4218
2581.947	4159
2583.879	4163
2585.81	4147
2587.741	4088
2589.67	4047
2591.602	4167
2593.532	4247
2595.461	4207
2597.388	4097
2599.316	4122
2601.244	4111
2603.172	4108
2605.098	4010
2607.023	4100
2608.949	4048
2610.873	4166
2612.8	4045
2614.723	4132
2616.647	4168
2618.569	4074
2620.493	4142
2622.416	4111
2624.338	4084
2626.258	4138
2628.179	4181
2630.099	4117
2632.019	4133
2633.939	4159
2635.857	4120
2637.775	4214
2639.694	4181
2641.61	4133
2643.528	4198
2645.444	4159
2647.361	4144
2649.276	4173
2651.19	4046
2653.105	4120
2655.019	4187
2656.934	4204
2658.846	4081
2660.758	4155
2662.67	4126
2664.583	4091
2666.493	4149
2668.404	4104
2670.313	4058
2672.223	4198
2674.134	4195
2676.042	4182
2677.95	4053
2679.858	4158
2681.765	4075
2683.673	4137
2685.579	4177
2687.483	4102
2689.389	4130
2691.294	4106
2693.198	4144
2695.104	4138
2697.006	4092
2698.909	4079
2700.811	4143
2702.713	4092
2704.615	4107
2706.516	4139
2708.417	4094
2710.316	4121
2712.216	4033
2714.115	4111
2716.014	4086
2717.913	4052
2719.81	4028
2721.707	4126
2723.603	4073
2725.501	4064
2727.396	4022
2729.292	4062
2731.186	4064
2733.081	4005
2734.976	4093
2736.87	4173
2738.762	4057
2740.653	4061
2742.546	4093
2744.437	4106
2746.329	4074
2748.22	4135
2750.11	4076
2751.999	4070
2753.889	4031
2755.778	4133
2757.666	4026
2759.553	4066
2761.44	4112
2763.328	4041
2765.215	4117
2767.101	4030
2768.986	4096
2770.87	4002
2772.754	4133
2774.638	4042
2776.523	3976
2778.405	4111
2780.288	4121
2782.17	4071
2784.051	4006
2785.934	4057
2787.814	4018
2789.694	4002
2791.574	4008
2793.453	4025
2795.332	4038
2797.212	4140
2799.088	4040
2800.966	4078
2802.843	3997
2804.719	4017
2806.597	4069
2808.471	4082
2810.346	4026
2812.221	4002
2814.094	4069
2815.969	3978
2817.843	3994
2819.714	4006
2821.587	4036
2823.459	4124
2825.329	4046
2827.202	3948
2829.072	4108
2830.942	4029
2832.811	3963
2834.68	4082
2836.549	3982
2838.418	4014
2840.284	3994
2842.152	4089
2844.018	4078
2845.885	4178
2847.751	4091
2849.616	4127
2851.482	4063
2853.345	4064
2855.208	4016
2857.074	4110
2858.937	4126
2860.799	4124
2862.66	4156
2864.522	4116
2866.385	4185
2868.245	4148
2870.104	4258
2871.964	4198
2873.824	4208
2875.683	4230
2877.542	4257
2879.4	4251
2881.257	4232
2883.114	4217
2884.97	4291
2886.827	4286
2888.683	4320
2890.537	4339
2892.392	4210
2894.246	4268
2896.1	4295
2897.954	4256
2899.807	4196
2901.66	4313
2903.51	4181
2905.362	4191
2907.214	4186
2909.065	4312
2910.915	4289
2912.765	4322
2914.613	4333
2916.463	4359
2918.311	4367
2920.158	4141
2922.006	4316
2923.853	4328
2925.698	4427
2927.546	4407
2929.392	4426
2931.236	4394
2933.081	4439
2934.924	4561
2936.77	4483
2938.613	4509
2940.455	4557
2942.298	4517
2944.139	4582
2945.982	4512
2947.823	4496
2949.662	4501
2951.503	4588
2953.342	4514
2955.182	4419
2957.021	4460
2958.858	4488
2960.697	4464
2962.534	4379
2964.37	4393
2966.207	4339
2968.044	4317
2969.879	4291
2971.714	4256
2973.548	4282
2975.383	4272
2977.218	4216
2979.051	4316
2980.883	4201
2982.715	4147
2984.547	4212
2986.379	4214
2988.21	4218
2990.04	4092
2991.87	4167
2993.7	4134
2995.53	4089
2997.359	4184
2999.187	4035
3001.015	4014
3002.842	4023
3004.669	4037
3006.497	4038
3008.323	4010
3010.148	4052
3011.974	3955
3013.797	4016
3015.623	3941
3017.447	3957
3019.27	3970
3021.094	3939
3022.915	3883
3024.737	3938
3026.56	3869
3028.38	3857
3030.201	3891
3032.022	3868
3033.84	3840
3035.662	3945
3037.481	3894
3039.298	3888
3041.117	3868
3042.933	3969
3044.752	3886
3046.568	3906
3048.385	3853
3050.2	3882
3052.016	3871
3053.83	3876
3055.646	3879
3057.46	3924
3059.272	3907
3061.086	3851
3062.898	3910
3064.711	3786
3066.524	3848
3068.335	3822
3070.145	3848
3071.956	3824
3073.766	3896
3075.576	3856
3077.385	3818
3079.193	3921
3081.002	3887
3082.81	3738
3084.618	3818
3086.425	3833
3088.231	3765
3090.036	3810
3091.842	3817
3093.648	3785
3095.452	3805
3097.257	3761
3099.06	3765
3100.863	3754
3102.666	3767
3104.47	3847
3106.272	3692
3108.073	3812
3109.875	3703
3111.676	3744
3113.477	3742
3115.277	3769
3117.077	3794
3118.874	3816
3120.673	3739
3122.473	3683
3124.271	3680
3126.066	3731
3127.863	3752
3129.66	3783
3131.456	3692
3133.252	3775
3135.047	3629
3136.842	3695
3138.635	3686
3140.429	3649
3142.223	3773
3144.016	3765
3145.808	3672
3147.6	3699
3149.392	3724
3151.183	3644
3152.975	3729
3154.765	3645
3156.553	3644
3158.344	3646
3160.132	3696
3161.922	3713
3163.71	3724
3165.497	3754
3167.285	3658
3169.071	3640
3170.858	3707
3172.645	3660
3174.429	3718
3176.214	3652
3177.998	3662
3179.783	3610
3181.568	3654
3183.351	3561
3185.133	3650
3186.915	3670
3188.698	3714
3190.481	3675
3192.261	3564
3194.042	3651
3195.822	3648
3197.601	3652
3199.381	3607
3201.161	3671
3202.939	3659
3204.717	3690
3206.495	3677
3208.272	3678
3210.05	3610
3211.826	3615
3213.602	3651
3215.376	3720
3217.151	3617
3218.927	3552
3220.702	3677
3222.476	3550
3224.249	3569
3226.021	3582
3227.793	3574
3229.567	3574
3231.339	3602
3233.109	3642
3234.88	3614
3236.651	3592
3238.421	3551
3240.191	3593
3241.96	3610
3243.728	3633
3245.497	3600
3247.263	3649
3249.033	3561
3250.799	3602
3252.566	3657
3254.331	3625
3256.097	3548
3257.863	3575
3259.628	3529
3261.392	3637
3263.156	3655
3264.919	3449
3266.683	3602
3268.447	3636
3270.208	3559
3271.969	3569
3273.731	3656
3275.492	3526
3277.253	3636
3279.013	3512
3280.773	3575
3282.532	3646
3284.291	3673
3286.05	3686
3287.808	3584
3289.566	3720
3291.323	3609
3293.079	3648
3294.835	3578
3296.593	3586
3298.348	3580
3300.102	3648
3301.857	3645
3303.611	3565
3305.366	3615
3307.119	3523
3308.872	3606
3310.624	3517
3312.376	3591
3314.129	3663
3315.881	3614
3317.631	3580
3319.38	3593
3321.13	3564
3322.88	3625
3324.631	3621
3326.379	3625
3328.126	3628
3329.875	3609
3331.622	3599
3333.371	3628
3335.116	3637
3336.863	3618
3338.609	3585
3340.353	3607
3342.1	3561
3343.845	3565
3345.588	3649
3347.332	3565
3349.074	3552
3350.817	3457
3352.56	3593
3354.303	3492
3356.043	3491
3357.785	3552
3359.525	3577
3361.268	3501
3363.007	3583
3364.745	3481
3366.485	3578
3368.223	3585
3369.962	3533
3371.701	3598
3373.438	3529
3375.174	3550
3376.911	3591
3378.647	3598
3380.384	3529
3382.118	3519
3383.854	3522
3385.588	3568
3387.322	3494
3389.057	3586
3390.79	3474
3392.522	3460
3394.255	3502
3395.987	3492
3397.719	3477
3399.451	3446
3401.181	3496
3402.911	3438
3404.641	3601
3406.371	3459
3408.101	3524
3409.83	3428
3411.558	3512
3413.285	3518
3415.011	3458
3416.739	3464
3418.467	3443
3420.193	3405
3421.919	3527
3423.644	3392
3425.368	3468
3427.094	3440
3428.818	3469
3430.542	3439
3432.264	3456
3433.987	3443
3435.712	3437
3437.434	3529
3439.155	3488
3440.876	3431
3442.596	3379
3444.317	3429
3446.039	3432
3447.757	3516
3449.477	3483
3451.195	3433
3452.914	3449
3454.632	3452
3456.35	3390
3458.067	3402
3459.784	3323
3461.5	3456
3463.216	3414
3464.932	3389
3466.647	3401
3468.362	3358
3470.076	3298
3471.789	3396
3473.505	3453
3475.217	3410
3476.929	3392
3478.641	3384
3480.354	3388
3482.066	3361
3483.777	3457
3485.487	3386
3487.197	3323
3488.908	3314
3490.617	3326
3492.327	3369
3494.035	3325
3495.743	3391
3497.451	3253
3499.158	3292
3500.866	3350
3502.572	3286
3504.278	3331
3505.984	3242
3507.689	3280
3509.396	3351
3511.1	3328
3512.804	3355
3514.508	3301
3516.211	3285
3517.913	3330
3519.616	3289
3521.319	3295
3523.021	3332
3524.722	3310
3526.422	3292
3528.124	3310
3529.824	3335
3531.524	3301
3533.222	3281
3534.921	3248
3536.62	3279
3538.318	3217
3540.016	3219
3541.714	3334
3543.41	3272
3545.107	3296
3546.803	3304
3548.5	3279
3550.194	3248
3551.889	3147
3553.583	3194
3555.279	3173
3556.972	3329
3558.666	3210
3560.358	3252
3562.051	3252
3563.742	3203
3565.435	3205
3567.126	3195
3568.817	3238
3570.507	3186
3572.197	3184
3573.888	3191
3575.577	3274
3577.265	3238
3578.954	3172
3580.642	3311
3582.329	3158
3584.017	3260
3585.704	3247
3587.391	3214
3589.077	3139
3590.762	3196
3592.449	3204
3594.133	3185
3595.817	3157
3597.501	3198
3599.185	3174
3600.869	3217
3602.552	3107
3604.234	3204
3605.916	3072
3607.598	3124
3609.279	3143
3610.961	3063
3612.642	3167
3614.321	3076
3616	3127
3617.68	3088
3619.36	3124
3621.039	3110
3622.716	3069
3624.394	3148
3626.071	3193
3627.748	3076
3629.425	3156
3631.102	3133
3632.778	3113
3634.452	3098
3636.127	3044
3637.803	3103
3639.477	3106
3641.151	3146
3642.823	3087
3644.497	3006
3646.171	3088
3647.842	3048
3649.515	3018
3651.185	3055
3652.857	3058
3654.527	3090
3656.198	3086
3657.868	3059
3659.537	3074
3661.207	3092
3662.875	3035
3664.544	3134
3666.212	3030
3667.879	3070
3669.546	3081
3671.212	3043
3672.88	3112
3674.546	3034
3676.211	3054
3677.875	2990
3679.541	3030
3681.205	3067
3682.87	3088
3684.533	3119
3686.196	2991
3687.859	3060
3689.521	3081
3691.184	2976
3692.845	3021
3694.507	3059
3696.167	3034
3697.827	3079
3699.487	2998
3701.148	3017
3702.808	3038
3704.466	2946
3706.125	2997
3707.783	3019
3709.442	3013
3711.099	3064
3712.757	3058
3714.412	3018
3716.068	3018
3717.725	3030
3719.381	2950
3721.036	2980
3722.689	3017
3724.344	3017
3725.998	2998
3727.652	3032
3729.305	2971
3730.958	2974
3732.61	2992
3734.262	3002
3735.915	3004
3737.565	2973
3739.217	2966
3740.866	2944
3742.516	2992
3744.165	3003
3745.816	2928
3747.464	2942
3749.113	3025
3750.761	3025
3752.409	3011
3754.057	2944
3755.703	3018
3757.35	2988
3758.996	2928
3760.641	2902
3762.289	2856
3763.933	2977
3765.577	2996
3767.222	2916
3768.865	2953
3770.508	2906
3772.152	2959
3773.796	2920
3775.438	2902
3777.079	2965
3778.721	2946
3780.363	2879
3782.003	2908
3783.643	2945
3785.283	2878
3786.923	2970
3788.563	2923
3790.203	2881
3791.841	2887
3793.479	2819
3795.115	3043
3796.753	2880
3798.391	2888
3800.027	2911
3801.664	2932
3803.299	2854
3804.935	2944
3806.571	2922
3808.206	2813
3809.839	2895
3811.473	2806
3813.107	2753
3814.74	2889
3816.375	2940
3818.006	2864
3819.638	2921
3821.27	2860
3822.9	2914
3824.532	2863
3826.163	2805
3827.792	2846
3829.423	2856
3831.051	2825
3832.682	2815
3834.311	2856
3835.938	2766
3837.566	2861
3839.193	2909
3840.821	2876
3842.448	2857
3844.075	2780
3845.7	2889
3847.325	2799
3848.951	2769
3850.576	2858
3852.201	2816
3853.825	2796
3855.448	2823
3857.072	2857
3858.694	2807
3860.318	2802
3861.939	2804
3863.562	2819
3865.183	2900
3866.804	2801
3868.426	2812
3870.045	2746
3871.666	2830
3873.285	2787
3874.904	2791
3876.524	2756
3878.142	2757
3879.76	2766
3881.378	2801
3882.995	2792
3884.612	2749
3886.229	2794
3887.845	2778
3889.461	2786
3891.076	2780
3892.691	2785
3894.307	2749
3895.922	2780
3897.536	2708
3899.149	2775
3900.761	2754
3902.374	2837
3903.988	2759
3905.6	2744
3907.212	2728
3908.822	2774
3910.433	2775
3912.045	2832
3913.655	2813
3915.265	2754
3916.875	2793
3918.483	2783
3920.093	2750
3921.702	2779
3923.309	2787
3924.917	2772
3926.523	2770
3928.13	2727
3929.739	2715
3931.344	2715
3932.95	2738
3934.555	2698
3936.159	2721
3937.766	2781
3939.369	2714
3940.974	2780
3942.577	2688
3944.181	2765
3945.783	2726
3947.386	2758
3948.989	2762
3950.59	2756
3952.191	2787
3953.791	2715
3955.394	2723
3956.994	2745
3958.593	2720
3960.192	2730
3961.791	2785
3963.392	2744
3964.99	2730
3966.588	2671
3968.185	2690
3969.782	2733
3971.379	2695
3972.976	2682
3974.572	2726
3976.168	2690
3977.763	2695
3979.358	2650
3980.954	2699
3982.548	2690
3984.142	2673
3985.736	2678
3987.329	2603
3988.922	2637
3990.516	2720
3992.108	2636
3993.698	2618
3995.29	2637
3996.881	2653
3998.473	2672
4000.064	2647
4001.653	2705
4003.242	2629
4004.832	2655
4006.422	2611
4008.01	2602
4009.598	2675
4011.186	2615
4012.773	2660
4014.36	2581
4015.947	2595
4017.534	2617
4019.119	2609
4020.705	2635
4022.291	2635
4023.876	2603
4025.461	2598
4027.044	2619
4028.627	2616
4030.211	2666
4031.795	2607
4033.378	2597
4034.96	2626
4036.542	2571
4038.124	2549
4039.704	2568
4041.286	2573
4042.867	2574
4044.447	2582
4046.026	2548
4047.606	2591
4049.187	2627
4050.765	2594
4052.343	2539
4053.92	2583
4055.498	2559
4057.076	2571
4058.654	2522
4060.23	2575
4061.806	2538
4063.381	2537
4064.957	2619
4066.533	2517
4068.107	2522
4069.682	2510
4071.256	2582
4072.829	2512
4074.404	2576
4075.977	2504
4077.549	2552
4079.121	2539
4080.693	2513
4082.265	2511
4083.836	2556
4085.407	2484
4086.977	2536
4088.547	2534
4090.117	2522
4091.687	2519
4093.256	2470
4094.825	2472
4096.392	2508
4097.96	2527
4099.528	2525
4101.097	2526
4102.663	2476
4104.229	2520
4105.795	2492
4107.361	2484
4108.928	2518
4110.493	2539
4112.058	2449
4113.621	2505
4115.186	2500
4116.75	2498
4118.313	2418
4119.876	2506
4121.438	2456
4123	2456
4124.562	2416
4126.125	2456
4127.686	2459
4129.246	2487
4130.807	2420
4132.367	2489
4133.927	2531
4135.486	2454
4137.046	2399
4138.604	2446
4140.162	2377
4141.72	2471
4143.279	2391
4144.836	2393
4146.393	2441
4147.949	2363
4149.505	2479
4151.062	2396
4152.617	2434
4154.172	2414
4155.727	2402
4157.281	2408
4158.836	2402
4160.39	2441
4161.943	2386
4163.496	2373
4165.048	2417
4166.601	2396
4168.154	2423
4169.706	2404
4171.257	2361
4172.808	2317
4174.358	2325
4175.909	2440
4177.458	2306
4179.008	2332
4180.558	2317
4182.106	2372
4183.655	2421
4185.204	2339
4186.751	2390
4188.298	2353
4189.845	2294
4191.392	2363
4192.939	2385
4194.485	2399
4196.031	2384
4197.576	2375
4199.121	2338
4200.666	2389
4202.211	2356
4203.754	2333
4205.298	2293
4206.84	2289
4208.384	2298
4209.927	2318
4211.47	2314
4213.011	2378
4214.552	2329
4216.094	2338
4217.635	2346
4219.175	2342
4220.716	2350
4222.255	2315
4223.793	2304
4225.335	2354
4226.873	2372
4228.411	2343
4229.948	2286
4231.486	2321
4233.024	2351
4234.562	2316
4236.098	2363
4237.634	2317
4239.169	2316
4240.705	2303
4242.241	2291
4243.776	2342
4245.31	2271
4246.844	2331
4248.378	2318
4249.911	2320
4251.445	2319
4252.978	2298
4254.51	2305
4256.042	2283
4257.574	2260
4259.107	2314
4260.638	2255
4262.169	2363
4263.699	2301
4265.228	2286
4266.759	2204
4268.289	2252
4269.818	2233
4271.345	2275
4272.874	2284
4274.402	2163
4275.931	2266
4277.458	2300
4278.985	2267
4280.512	2284
4282.037	2241
4283.564	2280
4285.089	2250
4286.615	2263
4288.139	2267
4289.664	2265
4291.187	2304
4292.712	2248
4294.235	2232
4295.759	2243
4297.281	2275
4298.804	2219
4300.327	2224
4301.849	2235
4303.37	2218
4304.891	2224
4306.412	2241
4307.933	2186
4309.453	2251
4310.973	2258
4312.492	2182
