398.1873	3177
400.7097	3242
403.2336	3248
405.7547	3163
408.2751	3197
410.7948	3257
413.3138	3357
415.83	3294
418.3497	3259
420.8666	3371
423.3829	3375
425.8985	3393
428.4133	3419
430.9275	3387
433.441	3379
435.9538	3444
438.4639	3405
440.9753	3408
443.4881	3351
445.9982	3446
448.5055	3437
451.0142	3455
453.5201	3498
456.0274	3367
458.5361	3443
461.04	3437
463.5453	3453
466.0478	3482
468.5517	3419
471.0549	3419
473.5574	3461
476.0572	3425
478.5584	3415
481.0568	3456
483.5545	3424
486.0557	3531
488.5521	3487
491.0478	3520
493.5449	3483
496.0392	3505
498.5349	3588
501.0299	3464
503.5222	3551
506.0139	3576
508.5048	3622
510.9991	3579
513.4887	3613
515.9777	3601
518.4659	3535
520.9534	3573
523.4403	3594
525.9306	3587
528.4161	3647
530.9009	3658
533.3851	3571
535.8687	3601
538.3535	3595
540.8356	3626
543.3171	3606
545.7979	3603
548.278	3608
550.7595	3615
553.2383	3678
555.7144	3593
558.1918	3569
560.6685	3550
563.1446	3662
565.6221	3636
568.0968	3727
570.5688	3716
573.0422	3650
575.515	3693
577.989	3725
580.4584	3806
582.9291	3722
585.3991	3737
587.8685	3670
590.3352	3637
592.8052	3694
595.2706	3718
597.7372	3741
600.2033	3745
602.6666	3662
605.1334	3686
607.5953	3656
610.0587	3703
612.5193	3699
614.9814	3661
617.4427	3689
619.9034	3615
622.3615	3684
624.8208	3648
627.2775	3609
629.7335	3627
632.1929	3696
634.6476	3691
637.1016	3746
639.5569	3742
642.0096	3690
644.4637	3674
646.9151	3735
649.3678	3733
651.8179	3773
654.2672	3768
656.7159	3774
659.166	3766
661.6154	3684
664.0622	3727
666.5082	3765
668.9537	3802
671.4005	3782
673.8445	3775
676.288	3841
678.7308	3813
681.1729	3818
683.6163	3790
686.0572	3760
688.4973	3791
690.9368	3858
693.3757	3833
695.8138	3931
698.2534	3839
700.6902	3755
703.1245	3849
705.56	3764
707.9949	3855
710.4311	3793
712.8647	3872
715.2957	3870
717.7279	3874
720.1595	3861
722.5905	3846
725.0208	3911
727.4505	3882
729.8795	3912
732.3058	3965
734.7336	4019
737.1626	3965
739.587	3911
742.0128	4030
744.4359	3978
746.8604	3975
749.2841	4110
751.7073	4028
754.1278	4076
756.5496	4057
758.9688	4014
761.3893	4092
763.8093	4162
766.2285	4028
768.6451	4077
771.0611	4038
773.4784	4037
775.895	4052
778.3091	4136
780.7244	4072
783.1371	4117
785.5493	4111
787.9626	4113
790.3754	4045
792.7856	4077
795.1951	4057
797.6039	4115
800.0121	4113
802.4236	3955
804.8306	4087
807.2369	4218
809.6425	4189
812.0475	4093
814.4538	4155
816.8575	4109
819.2606	4139
821.663	4209
824.0648	4126
826.4659	4130
828.8683	4178
831.2682	4126
833.6674	4146
836.066	4196
838.4639	4118
840.8632	4151
843.2579	4157
845.6539	4227
848.0493	4145
850.444	4179
852.84	4203
855.2315	4213
857.6243	4249
860.0165	4161
862.4081	4222
864.797	4186
867.1892	4192
869.5789	4284
871.9659	4185
874.3542	4259
876.74	4151
879.129	4212
881.5155	4285
883.8994	4176
886.2845	4238
888.6671	4147
891.051	4231
893.4343	4183
895.8169	4145
898.197	4182
900.5783	4213
902.9571	4163
905.3372	4189
907.7167	4227
910.0936	4283
912.4698	4239
914.8474	4291
917.2244	4266
919.5987	4220
921.9744	4324
924.3475	4350
926.72	4353
929.0918	4270
931.4669	4258
933.8375	4363
936.2074	4390
938.5767	4431
940.9454	4400
943.3154	4528
945.6829	4562
948.0497	4676
950.4178	4761
952.7833	4822
955.1483	4935
957.5145	4958
959.8782	5069
962.2412	5161
964.6036	4913
966.9655	4778
969.3266	4819
971.6871	4622
974.0471	4511
976.4064	4462
978.765	4449
981.125	4403
983.4824	4438
985.8373	4374
988.1935	4440
990.549	4337
992.9039	4279
995.2602	4302
997.6119	4323
999.965	4347
1002.317	4424
1004.667	4402
1007.02	4419
1009.371	4395
1011.719	4363
1014.068	4375
1016.415	4394
1018.765	4397
1021.111	4352
1023.458	4406
1025.804	4422
1028.147	4414
1030.49	4441
1032.837	4371
1035.179	4357
1037.522	4448
1039.862	4445
1042.204	4441
1044.546	4422
1046.884	4408
1049.224	4483
1051.562	4449
1053.899	4419
1056.237	4511
1058.575	4456
1060.91	4405
1063.244	4464
1065.58	4577
1067.913	4489
1070.248	4526
1072.579	4489
1074.911	4493
1077.242	4504
1079.572	4552
1081.905	4494
1084.234	4489
1086.562	4538
1088.89	4400
1091.217	4465
1093.544	4394
1095.871	4534
1098.197	4514
1100.521	4404
1102.845	4525
1105.169	4531
1107.491	4473
1109.814	4545
1112.135	4481
1114.456	4519
1116.776	4399
1119.096	4522
1121.415	4490
1123.734	4524
1126.052	4582
1128.369	4537
1130.686	4480
1133.002	4451
1135.318	4473
1137.632	4557
1139.945	4530
1142.258	4629
1144.573	4471
1146.884	4527
1149.196	4488
1151.505	4605
1153.816	4568
1156.124	4600
1158.435	4519
1160.742	4543
1163.051	4521
1165.356	4478
1167.663	4537
1169.97	4500
1172.276	4504
1174.579	4558
1176.881	4480
1179.186	4500
1181.487	4474
1183.79	4526
1186.092	4575
1188.392	4538
1190.691	4561
1192.991	4538
1195.291	4549
1197.588	4520
1199.885	4561
1202.181	4544
1204.479	4587
1206.775	4615
1209.07	4595
1211.363	4543
1213.656	4492
1215.949	4625
1218.241	4631
1220.534	4565
1222.825	4522
1225.115	4609
1227.405	4668
1229.693	4632
1231.984	4593
1234.271	4701
1236.558	4654
1238.845	4682
1241.131	4730
1243.416	4643
1245.703	4742
1247.987	4665
1250.269	4699
1252.552	4602
1254.834	4697
1257.118	4630
1259.399	4677
1261.678	4645
1263.958	4691
1266.237	4700
1268.516	4651
1270.794	4653
1273.072	4647
1275.347	4697
1277.624	4676
1279.899	4653
1282.175	4743
1284.449	4777
1286.722	4575
1288.995	4623
1291.266	4640
1293.54	4647
1295.81	4679
1298.081	4737
1300.35	4643
1302.62	4602
1304.889	4682
1307.156	4705
1309.425	4654
1311.69	4590
1313.957	4669
1316.222	4708
1318.488	4680
1320.751	4651
1323.016	4648
1325.278	4613
1327.54	4602
1329.803	4686
1332.065	4664
1334.325	4560
1336.584	4677
1338.843	4691
1341.101	4678
1343.36	4744
1345.617	4678
1347.876	4631
1350.131	4697
1352.387	4684
1354.643	4671
1356.897	4732
1359.151	4650
1361.403	4687
1363.656	4732
1365.909	4627
1368.16	4756
1370.409	4609
1372.659	4718
1374.909	4792
1377.157	4690
1379.407	4687
1381.655	4773
1383.9	4799
1386.147	4696
1388.393	4670
1390.64	4705
1392.885	4764
1395.127	4822
1397.37	4760
1399.614	4781
1401.854	4785
1404.098	4829
1406.339	4773
1408.578	4804
1410.818	4748
1413.056	4775
1415.297	4924
1417.533	4812
1419.771	4769
1422.006	4721
1424.243	4854
1426.479	4807
1428.715	4814
1430.948	4946
1433.182	4779
1435.414	4848
1437.647	4871
1439.88	5062
1442.11	4797
1444.342	4891
1446.571	4952
1448.799	4923
1451.029	4892
1453.258	4882
1455.485	4935
1457.711	4844
1459.937	4832
1462.164	4863
1464.39	4856
1466.614	4946
1468.838	4880
1471.06	4839
1473.283	4977
1475.506	4772
1477.727	4838
1479.949	4770
1482.169	4841
1484.389	4792
1486.609	4809
1488.828	4756
1491.045	4809
1493.261	4702
1495.477	4716
1497.693	4827
1499.91	4769
1502.125	4707
1504.339	4769
1506.553	4825
1508.766	4682
1510.979	4762
1513.191	4838
1515.402	4691
1517.613	4776
1519.823	4752
1522.033	4801
1524.242	4887
1526.451	4794
1528.657	4789
1530.865	4838
1533.072	4804
1535.278	4680
1537.484	4884
1539.687	4744
1541.892	4901
1544.096	4856
1546.299	4719
1548.502	4887
1550.703	4823
1552.905	4796
1555.104	4796
1557.303	4964
1559.505	4850
1561.703	4839
1563.902	4764
1566.099	4826
1568.295	4866
1570.494	4940
1572.689	4910
1574.883	4878
1577.079	4833
1579.272	4895
1581.467	4927
1583.659	4920
1585.853	5005
1588.044	4925
1590.234	4920
1592.424	5013
1594.615	4935
1596.806	4952
1598.994	4988
1601.182	4984
1603.369	4929
1605.557	4970
1607.744	4958
1609.929	5016
1612.114	4991
1614.298	4993
1616.482	4924
1618.667	4929
1620.85	4943
1623.032	4941
1625.214	4983
1627.395	5011
1629.575	5016
1631.755	4981
1633.935	4885
1636.114	4986
1638.292	5013
1640.471	4972
1642.647	5073
1644.823	5004
1647	4963
1649.175	4992
1651.348	5077
1653.525	5028
1655.698	4914
1657.87	5055
1660.043	5006
1662.213	5054
1664.387	5072
1666.558	5124
1668.727	5072
1670.896	5149
1673.064	4998
1675.233	5023
1677.401	5083
1679.569	5006
1681.735	5084
1683.902	4997
1686.066	4948
1688.233	5168
1690.397	5042
1692.559	5028
1694.723	4983
1696.885	5052
1699.048	4999
1701.21	5131
1703.37	4938
1705.53	5033
1707.689	5020
1709.849	5046
1712.009	4957
1714.166	5079
1716.323	5005
1718.479	4986
1720.634	4953
1722.793	4977
1724.948	4901
1727.102	4927
1729.255	4960
1731.408	4996
1733.562	5008
1735.714	4951
1737.865	4979
1740.016	4950
1742.166	4989
1744.316	4909
1746.467	4881
1748.616	5039
1750.764	4983
1752.911	4907
1755.056	5111
1757.205	4973
1759.35	5042
1761.496	5058
1763.641	5008
1765.785	5025
1767.927	4952
1770.072	5021
1772.214	4958
1774.355	5040
1776.496	5028
1778.637	5033
1780.778	5163
1782.918	5035
1785.057	5099
1787.194	4988
1789.333	4982
1791.472	5062
1793.608	5130
1795.745	5044
1797.879	4981
1800.015	5131
1802.148	4992
1804.284	5092
1806.417	5108
1808.548	5098
1810.682	4984
1812.812	5088
1814.946	5077
1817.075	5067
1819.205	5070
1821.335	5051
1823.463	5061
1825.59	5066
1827.721	5014
1829.847	5078
1831.973	5094
1834.098	5116
1836.223	5067
1838.351	5012
1840.475	5081
1842.598	5034
1844.721	5135
1846.843	4998
1848.966	5101
1851.087	5001
1853.21	5075
1855.33	4988
1857.449	5102
1859.568	5078
1861.688	4982
1863.806	4993
1865.924	5023
1868.039	4941
1870.155	5085
1872.273	5035
1874.388	4993
1876.503	5002
1878.617	5105
1880.73	5114
1882.844	5086
1884.956	5150
1887.068	5089
1889.18	5068
1891.291	5046
1893.4	5126
1895.511	5063
1897.621	5106
1899.73	5053
1901.837	5065
1903.944	5075
1906.053	5072
1908.159	5150
1910.265	5179
1912.369	5096
1914.474	5164
1916.577	5172
1918.683	5093
1920.785	5143
1922.888	5091
1924.989	5150
1927.091	5125
1929.193	5249
1931.294	5259
1933.393	5198
1935.493	5117
1937.59	5166
1939.689	5112
1941.788	5117
1943.884	5170
1945.98	5231
1948.077	5151
1950.171	5210
1952.267	5157
1954.361	5192
1956.455	5176
1958.548	5228
1960.64	5098
1962.733	5136
1964.824	5166
1966.915	5160
1969.005	5083
1971.096	5098
1973.185	5178
1975.275	5125
1977.363	4999
1979.45	5227
1981.537	5110
1983.623	5140
1985.711	5182
1987.796	5132
1989.881	5084
1991.965	5268
1994.047	5097
1996.132	5155
1998.215	5063
2000.297	5239
2002.378	5052
2004.46	5127
2006.54	5200
2008.62	5112
2010.7	5098
2012.779	5143
2014.858	5151
2016.934	5203
2019.013	5042
2021.09	5235
2023.165	5143
2025.241	5160
2027.317	5084
2029.39	5093
2031.466	5181
2033.538	5136
2035.612	5033
2037.683	5067
2039.755	5086
2041.827	5160
2043.898	5162
2045.968	5188
2048.038	5152
2050.106	5095
2052.177	5143
2054.244	5202
2056.313	5119
2058.379	5253
2060.444	5189
2062.511	5206
2064.577	5189
2066.641	5135
2068.705	5170
2070.77	5164
2072.832	5082
2074.896	5122
2076.958	5197
2079.02	5089
2081.081	5168
2083.141	5105
2085.2	5267
2087.261	5228
2089.319	5175
2091.377	5262
2093.435	5150
2095.492	5148
2097.552	5120
2099.607	5097
2101.663	5183
2103.718	5118
2105.771	5154
2107.826	5225
2109.879	5243
2111.932	5067
2113.985	5276
2116.037	5151
2118.088	5088
2120.141	5219
2122.191	5182
2124.239	5132
2126.288	5176
2128.337	5241
2130.387	5182
2132.434	5214
2134.481	5182
2136.528	5176
2138.574	5159
2140.618	5181
2142.665	5221
2144.71	5145
2146.753	5121
2148.797	5132
2150.838	5218
2152.883	5226
2154.923	5173
2156.965	5053
2159.007	5134
2161.046	5155
2163.086	5248
2165.126	5163
2167.163	5092
2169.202	5177
2171.239	5123
2173.277	5078
2175.314	5136
2177.349	5175
2179.385	5082
2181.42	5091
2183.453	5110
2185.49	5067
2187.522	5095
2189.555	5118
2191.586	5145
2193.619	5008
2195.651	5059
2197.682	5213
2199.711	5080
2201.74	5063
2203.769	5157
2205.799	5067
2207.828	5095
2209.855	5020
2211.882	5095
2213.908	5022
2215.934	5051
2217.961	5123
2219.986	5068
2222.01	5116
2224.034	5051
2226.057	5068
2228.08	5156
2230.104	5056
2232.124	5074
2234.145	5070
2236.166	5047
2238.186	5043
2240.207	5067
2242.227	5098
2244.244	5132
2246.262	5101
2248.28	5140
2250.299	5140
2252.314	5133
2254.33	5084
2256.346	5127
2258.36	5082
2260.375	5125
2262.391	5102
2264.403	5063
2266.416	5102
2268.427	5125
2270.44	5202
2272.453	5170
2274.463	5035
2276.474	5111
2278.483	5019
2280.493	5066
2282.501	5121
2284.51	5127
2286.518	5048
2288.524	5129
2290.532	5224
2292.537	5108
2294.544	5108
2296.55	5222
2298.554	5094
2300.557	5089
2302.562	5130
2304.566	5145
2306.568	5045
2308.569	5098
2310.572	4970
2312.573	5071
2314.573	5191
2316.574	5124
2318.573	5003
2320.571	5023
2322.571	5091
2324.569	5097
2326.567	5124
2328.564	5062
2330.56	5022
2332.556	5103
2334.551	5101
2336.546	5130
2338.542	4994
2340.535	5073
2342.529	5019
2344.521	5044
2346.512	5004
2348.505	5084
2350.497	5073
2352.487	4978
2354.478	4953
2356.468	5069
2358.457	5059
2360.446	4977
2362.434	4967
2364.422	5003
2366.408	5069
2368.395	5086
2370.383	5125
2372.369	5085
2374.353	5023
2376.338	5015
2378.321	5028
2380.307	5016
2382.29	4987
2384.272	5077
2386.254	5037
2388.235	4891
2390.218	5033
2392.198	5021
2394.179	4969
2396.157	4914
2398.137	4999
2400.115	5043
2402.095	4950
2404.072	4973
2406.048	4966
2408.026	4955
2410.001	5087
2411.977	4954
2413.953	4868
2415.927	4962
2417.9	4994
2419.875	5020
2421.847	4927
2423.821	4967
2425.792	4940
2427.763	4998
2429.736	4915
2431.706	4921
2433.677	4979
2435.646	4864
2437.615	5025
2439.583	5031
2441.551	4993
2443.519	5009
2445.486	5017
2447.452	4924
2449.418	4953
2451.383	5053
2453.348	4967
2455.314	4981
2457.278	4968
2459.241	5079
2461.205	4970
2463.167	4982
2465.131	4867
2467.091	4891
2469.052	4974
2471.012	4930
2472.972	4952
2474.932	4949
2476.891	4929
2478.85	4934
2480.808	4992
2482.766	4964
2484.722	5012
2486.68	5000
2488.636	4934
2490.591	4867
2492.546	4858
2494.5	5053
2496.456	4968
2498.41	4945
2500.362	4903
2502.315	4976
2504.266	5007
2506.218	4805
2508.169	4919
2510.121	5001
2512.07	5037
2514.019	4900
2515.968	4998
2517.918	4899
2519.866	5031
2521.813	5009
2523.76	4937
2525.707	4969
2527.653	4944
2529.599	4890
2531.543	4899
2533.489	4938
2535.433	4961
2537.376	4914
2539.32	4980
2541.264	5051
2543.205	4880
2545.147	4950
2547.087	4913
2549.029	4894
2550.969	4849
2552.908	4931
2554.847	4907
2556.786	4855
2558.724	4968
2560.663	4933
2562.6	5076
2564.537	5021
2566.473	4960
2568.408	4923
2570.345	4946
2572.28	4973
2574.214	4942
2576.148	4916
2578.081	5012
2580.014	4905
2581.947	4930
2583.879	5028
2585.81	4940
2587.741	4908
2589.67	4946
2591.602	4921
2593.532	4964
2595.461	4905
2597.388	4890
2599.316	4995
2601.244	4895
2603.172	4981
2605.098	4895
2607.023	4865
2608.949	4892
2610.873	4922
2612.8	5040
2614.723	5027
2616.647	4986
2618.569	4973
2620.493	4966
2622.416	4995
2624.338	4958
2626.258	5095
2628.179	4952
2630.099	4946
2632.019	4958
2633.939	4941
2635.857	4966
2637.775	5097
2639.694	4999
2641.61	5050
2643.528	5027
2645.444	4965
2647.361	4923
2649.276	5016
2651.19	5034
2653.105	4880
2655.019	4972
2656.934	4943
2658.846	5033
2660.758	4979
2662.67	4910
2664.583	4952
2666.493	4947
2668.404	5001
2670.313	4970
2672.223	4955
2674.134	4944
2676.042	4976
2677.95	4955
2679.858	4927
2681.765	5043
2683.673	4904
2685.579	4979
2687.483	4985
2689.389	4843
2691.294	4961
2693.198	4973
2695.104	4941
2697.006	4930
2698.909	4916
2700.811	4942
2702.713	4976
2704.615	5024
2706.516	4896
2708.417	4878
2710.316	4909
2712.216	4825
2714.115	4978
2716.014	4943
2717.913	4861
2719.81	4956
2721.707	4817
2723.603	4847
2725.501	4868
2727.396	4916
2729.292	4877
2731.186	5005
2733.081	4955
2734.976	4875
2736.87	4935
2738.762	4893
2740.653	4900
2742.546	4853
2744.437	4850
2746.329	5007
2748.22	4827
2750.11	4870
2751.999	4910
2753.889	4915
2755.778	4918
2757.666	4840
2759.553	4807
2761.44	4783
2763.328	4847
2765.215	4791
2767.101	4903
2768.986	4870
2770.87	4808
2772.754	4853
2774.638	4866
2776.523	4890
2778.405	4815
2780.288	4883
2782.17	4893
2784.051	4807
2785.934	4899
2787.814	4860
2789.694	4929
2791.574	4884
2793.453	4892
2795.332	4878
2797.212	4812
2799.088	4808
2800.966	4909
2802.843	4926
2804.719	4867
2806.597	4768
2808.471	4797
2810.346	4861
2812.221	4824
2814.094	4881
2815.969	4745
2817.843	4815
2819.714	4984
2821.587	4830
2823.459	4863
2825.329	4837
2827.202	4844
2829.072	4832
2830.942	4812
2832.811	4847
2834.68	4788
2836.549	4895
2838.418	4830
2840.284	4826
2842.152	4885
2844.018	4806
2845.885	4856
2847.751	4868
2849.616	4849
2851.482	4764
2853.345	4915
2855.208	4844
2857.074	4827
2858.937	4893
2860.799	4928
2862.66	4816
2864.522	4905
2866.385	4925
2868.245	4894
2870.104	5061
2871.964	4937
2873.824	4921
2875.683	5031
2877.542	5039
2879.4	5074
2881.257	4958
2883.114	5101
2884.97	5070
2886.827	4930
2888.683	4957
2890.537	4993
2892.392	5119
2894.246	5024
2896.1	5014
2897.954	5012
2899.807	5070
2901.66	5028
2903.51	5027
2905.362	5098
2907.214	5105
2909.065	5010
2910.915	5153
2912.765	5065
2914.613	5078
2916.463	5213
2918.311	5093
2920.158	5177
2922.006	5054
2923.853	5175
2925.698	5309
2927.546	5238
2929.392	5266
2931.236	5337
2933.081	5300
2934.924	5281
2936.77	5259
2938.613	5279
2940.455	5352
2942.298	5339
2944.139	5327
2945.982	5369
2947.823	5349
2949.662	5353
2951.503	5318
2953.342	5261
2955.182	5189
2957.021	5218
2958.858	5246
2960.697	5203
2962.534	5195
2964.37	5079
2966.207	4979
2968.044	5137
2969.879	5144
2971.714	5158
2973.548	5015
2975.383	5102
2977.218	4981
2979.051	5023
2980.883	4922
2982.715	5075
2984.547	5080
2986.379	4979
2988.21	4988
2990.04	4934
2991.87	4926
2993.7	5019
2995.53	4907
2997.359	4928
2999.187	4849
3001.015	4855
3002.842	4871
3004.669	4831
3006.497	4789
3008.323	4820
3010.148	4690
3011.974	4768
3013.797	4849
3015.623	4803
3017.447	4768
3019.27	4666
3021.094	4710
3022.915	4771
3024.737	4720
3026.56	4616
3028.38	4755
3030.201	4615
3032.022	4789
3033.84	4664
3035.662	4701
3037.481	4643
3039.298	4618
3041.117	4582
3042.933	4652
3044.752	4603
3046.568	4663
3048.385	4648
3050.2	4639
3052.016	4704
3053.83	4602
3055.646	4760
3057.46	4625
3059.272	4658
3061.086	4684
3062.898	4557
3064.711	4619
3066.524	4663
3068.335	4638
3070.145	4525
3071.956	4583
3073.766	4534
3075.576	4608
3077.385	4482
3079.193	4615
3081.002	4627
3082.81	4479
3084.618	4594
3086.425	4559
3088.231	4619
3090.036	4524
3091.842	4481
3093.648	4521
3095.452	4456
3097.257	4526
3099.06	4633
3100.863	4456
3102.666	4635
3104.47	4509
3106.272	4467
3108.073	4507
3109.875	4529
3111.676	4411
3113.477	4553
3115.277	4529
3117.077	4553
3118.874	4466
3120.673	4552
3122.473	4506
3124.271	4426
3126.066	4453
3127.863	4545
3129.66	4467
3131.456	4382
3133.252	4471
3135.047	4517
3136.842	4503
3138.635	4467
3140.429	4422
3142.223	4475
3144.016	4335
3145.808	4479
3147.6	4460
3149.392	4431
3151.183	4386
3152.975	4402
3154.765	4420
3156.553	4437
3158.344	4499
3160.132	4438
3161.922	4391
3163.71	4410
3165.497	4429
3167.285	4404
3169.071	4422
3170.858	4464
3172.645	4351
3174.429	4344
3176.214	4356
3177.998	4383
3179.783	4378
3181.568	4326
3183.351	4425
3185.133	4314
3186.915	4400
3188.698	4371
3190.481	4405
3192.261	4367
3194.042	4422
3195.822	4418
3197.601	4334
3199.381	4447
3201.161	4421
3202.939	4439
3204.717	4326
3206.495	4381
3208.272	4378
3210.05	4273
3211.826	4391
3213.602	4408
3215.376	4306
3217.151	4479
3218.927	4272
3220.702	4402
3222.476	4316
3224.249	4363
3226.021	4372
3227.793	4391
3229.567	4282
3231.339	4367
3233.109	4273
3234.88	4314
3236.651	4320
3238.421	4294
3240.191	4311
3241.96	4312
3243.728	4347
3245.497	4251
3247.263	4334
3249.033	4431
3250.799	4426
3252.566	4264
3254.331	4277
3256.097	4363
3257.863	4246
3259.628	4217
3261.392	4439
3263.156	4355
3264.919	4278
3266.683	4302
3268.447	4317
3270.208	4322
3271.969	4353
3273.731	4349
3275.492	4289
3277.253	4417
3279.013	4280
3280.773	4335
3282.532	4225
3284.291	4278
3286.05	4339
3287.808	4272
3289.566	4315
3291.323	4362
3293.079	4250
3294.835	4270
3296.593	4362
3298.348	4341
3300.102	4391
3301.857	4377
3303.611	4257
3305.366	4253
3307.119	4321
3308.872	4295
3310.624	4362
3312.376	4382
3314.129	4279
3315.881	4341
3317.631	4382
3319.38	4326
3321.13	4362
3322.88	4265
3324.631	4296
3326.379	4308
3328.126	4238
3329.875	4278
3331.622	4310
3333.371	4345
3335.116	4264
3336.863	4296
3338.609	4292
3340.353	4327
3342.1	4375
3343.845	4263
3345.588	4189
3347.332	4264
3349.074	4189
3350.817	4198
3352.56	4254
3354.303	4297
3356.043	4235
3357.785	4219
3359.525	4284
3361.268	4174
3363.007	4290
3364.745	4195
3366.485	4257
3368.223	4227
3369.962	4243
3371.701	4373
3373.438	4200
3375.174	4225
3376.911	4346
3378.647	4225
3380.384	4245
3382.118	4242
3383.854	4238
3385.588	4124
3387.322	4279
3389.057	4173
3390.79	4213
3392.522	4271
3394.255	4229
3395.987	4247
3397.719	4190
3399.451	4045
3401.181	4183
3402.911	4171
3404.641	4189
3406.371	4239
3408.101	4239
3409.83	4162
3411.558	4253
3413.285	4208
3415.011	4219
3416.739	4180
3418.467	4115
3420.193	4129
3421.919	4156
3423.644	4160
3425.368	4243
3427.094	4213
3428.818	4091
3430.542	4121
3432.264	4200
3433.987	4149
3435.712	4105
3437.434	4069
3439.155	4155
3440.876	4094
3442.596	4128
3444.317	4048
3446.039	4202
3447.757	4178
3449.477	4158
3451.195	4100
3452.914	4149
3454.632	4089
3456.35	4169
3458.067	4133
3459.784	4101
3461.5	4106
3463.216	4137
3464.932	4032
3466.647	4075
3468.362	4052
3470.076	4033
3471.789	4020
3473.505	4125
3475.217	4087
3476.929	4118
3478.641	3906
3480.354	4023
3482.066	4010
3483.777	4004
3485.487	4014
3487.197	3965
3488.908	4076
3490.617	3972
3492.327	4082
3494.035	4000
3495.743	3993
3497.451	3994
3499.158	3976
3500.866	3975
3502.572	3973
3504.278	4007
3505.984	4048
3507.689	4060
3509.396	3956
3511.1	4023
3512.804	3900
3514.508	3968
3516.211	3966
3517.913	3939
3519.616	3959
3521.319	3924
3523.021	4003
3524.722	3901
3526.422	3971
3528.124	3979
3529.824	4004
3531.524	3943
3533.222	3911
3534.921	4006
3536.62	4001
3538.318	3963
3540.016	3860
3541.714	3929
3543.41	3945
3545.107	3853
3546.803	3925
3548.5	3961
3550.194	3780
3551.889	3857
3553.583	3961
3555.279	3891
3556.972	3853
3558.666	3794
3560.358	3935
3562.051	3853
3563.742	3921
3565.435	3799
3567.126	4009
3568.817	3877
3570.507	3966
3572.197	3848
3573.888	3870
3575.577	3873
3577.265	3982
3578.954	3906
3580.642	3821
3582.329	3860
3584.017	3923
3585.704	3817
3587.391	3758
3589.077	3830
3590.762	3769
3592.449	3849
3594.133	3837
3595.817	3864
3597.501	3897
3599.185	3809
3600.869	3835
3602.552	3780
3604.234	3792
3605.916	3812
3607.598	3829
3609.279	3795
3610.961	3847
3612.642	3774
3614.321	3828
3616	3778
3617.68	3703
3619.36	3738
3621.039	3797
3622.716	3682
3624.394	3766
3626.071	3713
3627.748	3812
3629.425	3791
3631.102	3706
3632.778	3650
3634.452	3658
3636.127	3831
3637.803	3750
3639.477	3696
3641.151	3706
3642.823	3763
3644.497	3717
3646.171	3677
3647.842	3739
3649.515	3655
3651.185	3740
3652.857	3701
3654.527	3755
3656.198	3657
3657.868	3677
3659.537	3644
3661.207	3581
3662.875	3796
3664.544	3684
3666.212	3630
3667.879	3679
3669.546	3687
3671.212	3681
3672.88	3534
3674.546	3604
3676.211	3616
3677.875	3686
3679.541	3637
3681.205	3582
3682.87	3620
3684.533	3646
3686.196	3590
3687.859	3692
3689.521	3666
3691.184	3671
3692.845	3591
3694.507	3634
3696.167	3522
3697.827	3591
3699.487	3644
3701.148	3649
3702.808	3732
3704.466	3625
3706.125	3546
3707.783	3623
3709.442	3581
3711.099	3627
3712.757	3609
3714.412	3632
3716.068	3546
3717.725	3539
3719.381	3610
3721.036	3550
3722.689	3556
3724.344	3629
3725.998	3598
3727.652	3633
3729.305	3600
3730.958	3579
3732.61	3611
3734.262	3577
3735.915	3604
3737.565	3575
3739.217	3589
3740.866	3560
3742.516	3525
3744.165	3577
3745.816	3556
3747.464	3499
3749.113	3585
3750.761	3503
3752.409	3550
3754.057	3593
3755.703	3509
3757.35	3562
3758.996	3652
3760.641	3516
3762.289	3621
3763.933	3558
3765.577	3550
3767.222	3535
3768.865	3537
3770.508	3559
3772.152	3472
3773.796	3445
3775.438	3477
3777.079	3470
3778.721	3506
3780.363	3556
3782.003	3471
3783.643	3465
3785.283	3476
3786.923	3516
3788.563	3537
3790.203	3453
3791.841	3511
3793.479	3455
3795.115	3578
3796.753	3492
3798.391	3443
3800.027	3415
3801.664	3511
3803.299	3518
3804.935	3502
3806.571	3389
3808.206	3413
3809.839	3433
3811.473	3416
3813.107	3468
3814.74	3433
3816.375	3467
3818.006	3416
3819.638	3345
3821.27	3408
3822.9	3388
3824.532	3394
3826.163	3433
3827.792	3448
3829.423	3403
3831.051	3485
3832.682	3454
3834.311	3333
3835.938	3425
3837.566	3406
3839.193	3369
3840.821	3384
3842.448	3336
3844.075	3361
3845.7	3351
3847.325	3338
3848.951	3371
3850.576	3348
3852.201	3376
3853.825	3306
3855.448	3319
3857.072	3421
3858.694	3433
3860.318	3407
3861.939	3354
3863.562	3293
3865.183	3346
3866.804	3311
3868.426	3361
3870.045	3364
3871.666	3342
3873.285	3358
3874.904	3238
3876.524	3324
3878.142	3333
3879.76	3354
3881.378	3293
3882.995	3371
3884.612	3361
3886.229	3342
3887.845	3339
3889.461	3334
3891.076	3279
3892.691	3355
3894.307	3386
3895.922	3277
3897.536	3347
3899.149	3288
3900.761	3268
3902.374	3264
3903.988	3327
3905.6	3333
3907.212	3283
3908.822	3347
3910.433	3231
3912.045	3389
3913.655	3313
3915.265	3289
3916.875	3282
3918.483	3241
3920.093	3263
3921.702	3375
3923.309	3374
3924.917	3372
3926.523	3256
3928.13	3289
3929.739	3331
3931.344	3281
3932.95	3259
3934.555	3354
3936.159	3309
3937.766	3289
3939.369	3242
3940.974	3268
3942.577	3205
3944.181	3259
3945.783	3316
3947.386	3258
3948.989	3258
3950.59	3294
3952.191	3326
3953.791	3176
3955.394	3255
3956.994	3239
3958.593	3256
3960.192	3219
3961.791	3256
3963.392	3218
3964.99	3238
3966.588	3281
3968.185	3258
3969.782	3192
3971.379	3225
3972.976	3222
3974.572	3190
3976.168	3180
3977.763	3158
3979.358	3160
3980.954	3190
3982.548	3241
3984.142	3205
3985.736	3174
3987.329	3139
3988.922	3162
3990.516	3134
3992.108	3155
3993.698	3170
3995.29	3137
3996.881	3168
3998.473	3218
4000.064	3161
4001.653	3212
4003.242	3139
4004.832	3182
4006.422	3072
4008.01	3180
4009.598	3139
4011.186	3107
4012.773	3123
4014.36	3118
4015.947	3193
4017.534	3105
4019.119	3157
4020.705	3152
4022.291	3127
4023.876	3128
4025.461	3053
4027.044	3161
4028.627	3070
4030.211	3063
4031.795	3049
4033.378	3079
4034.96	3103
4036.542	3106
4038.124	3127
4039.704	3106
4041.286	3103
4042.867	3049
4044.447	3007
4046.026	2973
4047.606	3119
4049.187	3097
4050.765	3110
4052.343	3054
4053.92	3050
4055.498	3011
4057.076	3081
4058.654	3076
4060.23	3072
4061.806	3056
4063.381	3120
4064.957	2955
4066.533	3052
4068.107	3053
4069.682	3088
4071.256	3013
4072.829	3035
4074.404	3075
4075.977	3058
4077.549	3021
4079.121	3004
4080.693	3006
4082.265	2991
4083.836	3006
4085.407	2991
4086.977	2952
4088.547	3062
4090.117	2974
4091.687	2935
4093.256	3003
4094.825	3002
4096.392	2913
4097.96	2945
4099.528	3097
4101.097	2960
4102.663	2994
4104.229	2991
4105.795	3055
4107.361	2972
4108.928	2972
4110.493	2915
4112.058	3020
4113.621	2967
4115.186	2990
4116.75	2937
4118.313	2945
4119.876	2908
4121.438	2988
4123	2882
4124.562	2946
4126.125	2962
4127.686	2972
4129.246	2970
4130.807	2936
4132.367	2961
4133.927	2989
4135.486	2929
4137.046	2859
4138.604	2960
4140.162	2914
4141.72	2896
4143.279	2913
4144.836	2885
4146.393	2967
4147.949	2948
4149.505	2947
4151.062	2866
4152.617	2880
4154.172	2857
4155.727	2870
4157.281	2929
4158.836	2816
4160.39	2858
4161.943	2840
4163.496	2842
4165.048	2841
4166.601	2831
4168.154	2891
4169.706	2839
4171.257	2860
4172.808	2901
4174.358	2860
4175.909	2790
4177.458	2903
4179.008	2736
4180.558	2849
4182.106	2826
4183.655	2856
4185.204	2787
4186.751	2783
4188.298	2798
4189.845	2821
4191.392	2877
4192.939	2812
4194.485	2878
4196.031	2800
4197.576	2814
4199.121	2839
4200.666	2859
4202.211	2814
4203.754	2755
4205.298	2836
4206.84	2777
4208.384	2801
4209.927	2823
4211.47	2825
4213.011	2829
4214.552	2817
4216.094	2895
4217.635	2777
4219.175	2748
4220.716	2726
4222.255	2762
4223.793	2770
4225.335	2784
4226.873	2794
4228.411	2851
4229.948	2717
4231.486	2793
4233.024	2740
4234.562	2734
4236.098	2739
4237.634	2765
4239.169	2818
4240.705	2750
4242.241	2813
4243.776	2745
4245.31	2824
4246.844	2772
4248.378	2770
4249.911	2760
4251.445	2772
4252.978	2769
4254.51	2771
4256.042	2746
4257.574	2715
4259.107	2676
4260.638	2687
4262.169	2742
4263.699	2683
4265.228	2693
4266.759	2755
4268.289	2734
4269.818	2746
4271.345	2711
4272.874	2734
4274.402	2781
4275.931	2710
4277.458	2706
4278.985	2751
4280.512	2680
4282.037	2696
4283.564	2689
4285.089	2633
4286.615	2728
4288.139	2670
4289.664	2718
4291.187	2650
4292.712	2661
4294.235	2697
4295.759	2722
4297.281	2733
4298.804	2659
4300.327	2667
4301.849	2656
4303.37	2672
4304.891	2628
4306.412	2653
4307.933	2690
4309.453	2615
4310.973	2583
4312.492	2617
