398.1873	10116
400.7097	9968
403.2336	10049
405.7547	10111
408.2751	10068
410.7948	10244
413.3138	10135
415.83	10232
418.3497	10430
420.8666	10251
423.3829	10392
425.8985	10380
428.4133	10680
430.9275	10676
433.441	10634
435.9538	10630
438.4639	10556
440.9753	10655
443.4881	10857
445.9982	10655
448.5055	10828
451.0142	10852
453.5201	10661
456.0274	10981
458.5361	10751
461.04	10785
463.5453	10854
466.0478	10830
468.5517	10861
471.0549	10916
473.5574	11015
476.0572	10909
478.5584	10972
481.0568	11019
483.5545	11025
486.0557	11176
488.5521	11161
491.0478	11050
493.5449	11187
496.0392	11368
498.5349	11200
501.0299	11384
503.5222	11316
506.0139	11311
508.5048	11441
510.9991	11166
513.4887	11395
515.9777	11351
518.4659	11261
520.9534	11334
523.4403	11397
525.9306	11494
528.4161	11387
530.9009	11490
533.3851	11486
535.8687	11332
538.3535	11350
540.8356	11264
543.3171	11386
545.7979	11467
548.278	11402
550.7595	11345
553.2383	11446
555.7144	11495
558.1918	11579
560.6685	11474
563.1446	11616
565.6221	11543
568.0968	11530
570.5688	11671
573.0422	11603
575.515	11618
577.989	11565
580.4584	11582
582.9291	11753
585.3991	11747
587.8685	11835
590.3352	11900
592.8052	11913
595.2706	11904
597.7372	11779
600.2033	11756
602.6666	11740
605.1334	11816
607.5953	11914
610.0587	11717
612.5193	11766
614.9814	11851
617.4427	11803
619.9034	11982
622.3615	11877
624.8208	11675
627.2775	11875
629.7335	11739
632.1929	11771
634.6476	11842
637.1016	11906
639.5569	11867
642.0096	11869
644.4637	11842
646.9151	11851
649.3678	11868
651.8179	12059
654.2672	11980
656.7159	11931
659.166	12167
661.6154	12204
664.0622	12087
666.5082	12155
668.9537	12128
671.4005	12230
673.8445	12291
676.288	12249
678.7308	12368
681.1729	12241
683.6163	12256
686.0572	12496
688.4973	12310
690.9368	12339
693.3757	12345
695.8138	12308
698.2534	12474
700.6902	12408
703.1245	12252
705.56	12393
707.9949	12431
710.4311	12581
712.8647	12501
715.2957	12468
717.7279	12801
720.1595	12422
722.5905	12631
725.0208	12701
727.4505	12641
729.8795	12695
732.3058	12836
734.7336	12724
737.1626	12838
739.587	12777
742.0128	12954
744.4359	12973
746.8604	12927
749.2841	13188
751.7073	13202
754.1278	12985
756.5496	13019
758.9688	13010
761.3893	13290
763.8093	13151
766.2285	13302
768.6451	13234
771.0611	13251
773.4784	13245
775.895	13286
778.3091	13318
780.7244	13409
783.1371	13489
785.5493	13325
787.9626	13198
790.3754	13277
792.7856	13209
795.1951	13375
797.6039	13405
800.0121	13222
802.4236	13213
804.8306	13394
807.2369	13417
809.6425	13471
812.0475	13239
814.4538	13352
816.8575	13354
819.2606	13213
821.663	13556
824.0648	13355
826.4659	13303
828.8683	13532
831.2682	13526
833.6674	13402
836.066	13519
838.4639	13441
840.8632	13640
843.2579	13528
845.6539	13549
848.0493	13562
850.444	13696
852.84	13525
855.2315	13323
857.6243	13568
860.0165	13596
862.4081	13482
864.797	13645
867.1892	13555
869.5789	13523
871.9659	13565
874.3542	13379
876.74	13485
879.129	13517
881.5155	13494
883.8994	13412
886.2845	13572
888.6671	13444
891.051	13483
893.4343	13578
895.8169	13484
898.197	13458
900.5783	13644
902.9571	13584
905.3372	13777
907.7167	13681
910.0936	13647
912.4698	13694
914.8474	13718
917.2244	13830
919.5987	13749
921.9744	14035
924.3475	13950
926.72	13835
929.0918	13851
931.4669	13924
933.8375	14095
936.2074	13973
938.5767	14038
940.9454	14003
943.3154	14096
945.6829	14512
948.0497	14555
950.4178	14856
952.7833	14930
955.1483	15146
957.5145	15459
959.8782	15474
962.2412	15424
964.6036	15161
966.9655	15044
969.3266	14671
971.6871	14410
974.0471	14209
976.4064	14191
978.765	13955
981.125	14028
983.4824	14058
985.8373	13951
988.1935	13939
990.549	14013
992.9039	13932
995.2602	13877
997.6119	13814
999.965	14074
1002.317	14000
1004.667	14022
1007.02	13922
1009.371	14119
1011.719	14002
1014.068	14073
1016.415	14075
1018.765	14032
1021.111	14045
1023.458	13933
1025.804	14174
1028.147	14111
1030.49	14194
1032.837	14115
1035.179	14200
1037.522	14041
1039.862	14075
1042.204	14318
1044.546	14188
1046.884	14178
1049.224	14303
1051.562	14205
1053.899	14412
1056.237	14270
1058.575	14060
1060.91	14329
1063.244	14407
1065.58	14322
1067.913	14431
1070.248	14326
1072.579	14306
1074.911	14615
1077.242	14463
1079.572	14338
1081.905	14342
1084.234	14227
1086.562	14279
1088.89	14283
1091.217	14279
1093.544	14334
1095.871	14305
1098.197	14336
1100.521	14400
1102.845	14410
1105.169	14281
1107.491	14435
1109.814	14198
1112.135	14408
1114.456	14621
1116.776	14367
1119.096	14494
1121.415	14424
1123.734	14325
1126.052	14624
1128.369	14484
1130.686	14597
1133.002	14550
1135.318	14547
1137.632	14557
1139.945	14497
1142.258	14304
1144.573	14546
1146.884	14425
1149.196	14508
1151.505	14675
1153.816	14557
1156.124	14564
1158.435	14552
1160.742	14514
1163.051	14555
1165.356	14376
1167.663	14547
1169.97	14431
1172.276	14551
1174.579	14400
1176.881	14398
1179.186	14587
1181.487	14343
1183.79	14556
1186.092	14441
1188.392	14374
1190.691	14532
1192.991	14448
1195.291	14538
1197.588	14657
1199.885	14648
1202.181	14497
1204.479	14673
1206.775	14722
1209.07	14537
1211.363	14381
1213.656	14520
1215.949	14553
1218.241	14655
1220.534	14634
1222.825	14595
1225.115	14709
1227.405	14770
1229.693	14774
1231.984	14900
1234.271	14628
1236.558	14915
1238.845	14857
1241.131	15023
1243.416	14793
1245.703	14900
1247.987	15109
1250.269	14823
1252.552	14816
1254.834	14865
1257.118	14921
1259.399	14955
1261.678	14961
1263.958	14807
1266.237	14937
1268.516	14974
1270.794	14972
1273.072	14906
1275.347	14958
1277.624	14956
1279.899	14894
1282.175	14926
1284.449	14850
1286.722	15069
1288.995	14767
1291.266	14690
1293.54	14858
1295.81	14911
1298.081	14735
1300.35	14791
1302.62	14825
1304.889	14852
1307.156	14674
1309.425	14868
1311.69	14911
1313.957	14833
1316.222	14845
1318.488	14841
1320.751	14783
1323.016	14872
1325.278	14897
1327.54	14888
1329.803	14928
1332.065	14867
1334.325	14966
1336.584	14895
1338.843	14984
1341.101	14950
1343.36	14853
1345.617	14854
1347.876	15035
1350.131	14846
1352.387	14894
1354.643	15052
1356.897	14837
1359.151	15012
1361.403	14907
1363.656	14766
1365.909	14986
1368.16	14997
1370.409	14763
1372.659	14999
1374.909	15019
1377.157	15022
1379.407	14911
1381.655	15015
1383.9	14923
1386.147	15021
1388.393	15051
1390.64	15065
1392.885	15187
1395.127	14966
1397.37	15048
1399.614	15066
1401.854	15165
1404.098	15055
1406.339	15058
1408.578	15076
1410.818	15181
1413.056	15122
1415.297	15117
1417.533	15265
1419.771	15192
1422.006	15335
1424.243	15369
1426.479	15265
1428.715	15226
1430.948	15248
1433.182	15387
1435.414	15223
1437.647	15352
1439.88	15265
1442.11	15279
1444.342	15428
1446.571	15438
1448.799	15351
1451.029	15376
1453.258	15444
1455.485	15378
1457.711	15355
1459.937	15345
1462.164	15480
1464.39	15536
1466.614	15287
1468.838	15343
1471.06	15423
1473.283	15177
1475.506	15332
1477.727	15478
1479.949	15240
1482.169	15260
1484.389	15221
1486.609	15244
1488.828	15183
1491.045	15127
1493.261	15047
1495.477	15112
1497.693	15153
1499.91	15256
1502.125	15010
1504.339	15079
1506.553	15146
1508.766	15069
1510.979	15250
1513.191	15091
1515.402	15013
1517.613	15087
1519.823	15121
1522.033	14961
1524.242	14994
1526.451	14945
1528.657	15146
1530.865	15288
1533.072	14996
1535.278	15126
1537.484	15043
1539.687	15139
1541.892	15236
1544.096	15115
1546.299	15077
1548.502	15260
1550.703	15231
1552.905	15316
1555.104	15302
1557.303	15317
1559.505	15251
1561.703	15325
1563.902	15310
1566.099	15419
1568.295	15371
1570.494	15351
1572.689	15365
1574.883	15265
1577.079	15396
1579.272	15349
1581.467	15461
1583.659	15417
1585.853	15503
1588.044	15447
1590.234	15661
1592.424	15458
1594.615	15388
1596.806	15566
1598.994	15757
1601.182	15606
1603.369	15828
1605.557	15571
1607.744	15602
1609.929	15749
1612.114	15598
1614.298	15754
1616.482	15492
1618.667	15795
1620.85	15741
1623.032	15554
1625.214	15473
1627.395	15636
1629.575	15573
1631.755	15803
1633.935	15673
1636.114	15604
1638.292	15522
1640.471	15635
1642.647	15546
1644.823	15571
1647	15720
1649.175	15670
1651.348	15536
1653.525	15539
1655.698	15741
1657.87	15824
1660.043	15679
1662.213	15456
1664.387	15606
1666.558	15760
1668.727	15710
1670.896	15768
1673.064	15639
1675.233	15769
1677.401	15659
1679.569	15696
1681.735	15780
1683.902	15551
1686.066	15706
1688.233	15708
1690.397	15701
1692.559	15603
1694.723	15608
1696.885	15561
1699.048	15555
1701.21	15753
1703.37	15548
1705.53	15666
1707.689	15706
1709.849	15535
1712.009	15295
1714.166	15618
1716.323	15577
1718.479	15543
1720.634	15600
1722.793	15824
1724.948	15519
1727.102	15741
1729.255	15646
1731.408	15540
1733.562	15658
1735.714	15647
1737.865	15602
1740.016	15806
1742.166	15538
1744.316	15679
1746.467	15463
1748.616	15616
1750.764	15651
1752.911	15706
1755.056	15587
1757.205	15544
1759.35	15633
1761.496	15737
1763.641	15793
1765.785	15751
1767.927	15787
1770.072	15861
1772.214	15656
1774.355	15721
1776.496	15806
1778.637	15900
1780.778	15804
1782.918	16048
1785.057	15611
1787.194	15914
1789.333	15833
1791.472	15873
1793.608	15864
1795.745	15733
1797.879	15773
1800.015	15797
1802.148	15711
1804.284	15605
1806.417	15679
1808.548	15852
1810.682	15671
1812.812	15904
1814.946	15661
1817.075	15832
1819.205	15744
1821.335	15702
1823.463	15799
1825.59	16015
1827.721	15721
1829.847	15736
1831.973	15610
1834.098	15709
1836.223	15631
1838.351	15676
1840.475	15515
1842.598	15506
1844.721	15709
1846.843	15560
1848.966	15646
1851.087	15624
1853.21	15442
1855.33	15621
1857.449	15685
1859.568	15436
1861.688	15477
1863.806	15480
1865.924	15683
1868.039	15898
1870.155	15466
1872.273	15687
1874.388	15542
1876.503	15608
1878.617	15652
1880.73	15776
1882.844	15464
1884.956	15644
1887.068	15751
1889.18	15639
1891.291	15819
1893.4	15720
1895.511	15775
1897.621	15502
1899.73	15750
1901.837	15811
1903.944	15875
1906.053	15731
1908.159	15814
1910.265	15766
1912.369	15856
1914.474	15942
1916.577	15614
1918.683	15948
1920.785	15658
1922.888	15949
1924.989	15895
1927.091	16032
1929.193	15757
1931.294	15775
1933.393	15914
1935.493	15901
1937.59	15864
1939.689	15875
1941.788	16120
1943.884	15814
1945.98	15967
1948.077	15838
1950.171	15940
1952.267	15960
1954.361	15868
1956.455	15960
1958.548	15888
1960.64	15916
1962.733	15743
1964.824	15905
1966.915	15907
1969.005	15716
1971.096	15641
1973.185	16057
1975.275	15732
1977.363	15582
1979.45	15856
1981.537	15751
1983.623	15810
1985.711	15711
1987.796	15599
1989.881	15626
1991.965	15769
1994.047	15813
1996.132	15814
1998.215	15760
2000.297	15772
2002.378	15520
2004.46	15518
2006.54	15774
2008.62	15741
2010.7	15705
2012.779	15617
2014.858	15705
2016.934	15738
2019.013	15533
2021.09	15691
2023.165	15632
2025.241	15652
2027.317	15802
2029.39	15702
2031.466	15761
2033.538	15513
2035.612	15789
2037.683	15652
2039.755	15656
2041.827	15571
2043.898	15595
2045.968	15705
2048.038	15623
2050.106	15635
2052.177	15679
2054.244	15779
2056.313	15643
2058.379	15713
2060.444	15684
2062.511	15669
2064.577	15681
2066.641	15730
2068.705	15580
2070.77	15746
2072.832	15681
2074.896	15759
2076.958	15728
2079.02	15653
2081.081	15714
2083.141	15572
2085.2	15652
2087.261	15575
2089.319	15712
2091.377	15640
2093.435	15924
2095.492	15688
2097.552	15703
2099.607	15679
2101.663	15898
2103.718	15753
2105.771	15801
2107.826	15570
2109.879	15592
2111.932	15704
2113.985	15748
2116.037	15548
2118.088	15816
2120.141	15793
2122.191	15796
2124.239	15788
2126.288	15743
2128.337	15907
2130.387	15586
2132.434	15722
2134.481	15654
2136.528	15688
2138.574	15650
2140.618	15677
2142.665	15779
2144.71	15676
2146.753	15515
2148.797	15580
2150.838	15615
2152.883	15627
2154.923	15382
2156.965	15544
2159.007	15523
2161.046	15553
2163.086	15435
2165.126	15399
2167.163	15438
2169.202	15549
2171.239	15533
2173.277	15590
2175.314	15537
2177.349	15519
2179.385	15575
2181.42	15345
2183.453	15383
2185.49	15278
2187.522	15392
2189.555	15449
2191.586	15405
2193.619	15453
2195.651	15347
2197.682	15245
2199.711	15177
2201.74	15195
2203.769	15466
2205.799	15193
2207.828	15318
2209.855	15137
2211.882	15179
2213.908	15223
2215.934	15326
2217.961	15311
2219.986	15220
2222.01	15284
2224.034	15172
2226.057	15311
2228.08	15185
2230.104	15116
2232.124	15393
2234.145	15092
2236.166	15176
2238.186	14851
2240.207	15402
2242.227	15170
2244.244	15149
2246.262	15243
2248.28	15225
2250.299	15114
2252.314	15286
2254.33	15224
2256.346	15210
2258.36	15213
2260.375	15373
2262.391	15075
2264.403	15135
2266.416	15269
2268.427	15239
2270.44	15140
2272.453	15198
2274.463	15166
2276.474	15101
2278.483	15141
2280.493	15280
2282.501	15130
2284.51	15073
2286.518	15220
2288.524	15185
2290.532	15123
2292.537	15141
2294.544	15115
2296.55	15174
2298.554	15278
2300.557	15377
2302.562	15226
2304.566	15309
2306.568	15002
2308.569	15000
2310.572	15159
2312.573	15233
2314.573	14978
2316.574	15156
2318.573	15107
2320.571	15083
2322.571	14873
2324.569	15066
2326.567	15198
2328.564	15109
2330.56	15071
2332.556	15161
2334.551	14898
2336.546	15014
2338.542	14917
2340.535	14819
2342.529	14984
2344.521	15015
2346.512	14847
2348.505	15111
2350.497	14872
2352.487	15024
2354.478	14720
2356.468	14941
2358.457	15011
2360.446	14808
2362.434	14794
2364.422	14804
2366.408	14877
2368.395	14707
2370.383	14915
2372.369	14640
2374.353	14717
2376.338	14724
2378.321	14788
2380.307	14716
2382.29	14734
2384.272	14739
2386.254	14805
2388.235	14533
2390.218	14748
2392.198	14641
2394.179	14652
2396.157	14591
2398.137	14802
2400.115	14593
2402.095	14698
2404.072	14561
2406.048	14552
2408.026	14671
2410.001	14607
2411.977	14610
2413.953	14502
2415.927	14535
2417.9	14622
2419.875	14599
2421.847	14794
2423.821	14435
2425.792	14532
2427.763	14684
2429.736	14565
2431.706	14648
2433.677	14684
2435.646	14702
2437.615	14738
2439.583	14562
2441.551	14666
2443.519	14671
2445.486	14420
2447.452	14579
2449.418	14534
2451.383	14668
2453.348	14518
2455.314	14676
2457.278	14380
2459.241	14437
2461.205	14569
2463.167	14498
2465.131	14581
2467.091	14511
2469.052	14539
2471.012	14431
2472.972	14437
2474.932	14455
2476.891	14677
2478.85	14498
2480.808	14495
2482.766	14294
2484.722	14353
2486.68	14487
2488.636	14347
2490.591	14251
2492.546	14537
2494.5	14300
2496.456	14424
2498.41	14358
2500.362	14434
2502.315	14424
2504.266	14427
2506.218	14298
2508.169	14314
2510.121	14361
2512.07	14552
2514.019	14301
2515.968	14370
2517.918	14306
2519.866	14385
2521.813	14267
2523.76	14126
2525.707	14156
2527.653	14341
2529.599	14364
2531.543	14338
2533.489	14277
2535.433	14319
2537.376	14207
2539.32	14370
2541.264	14166
2543.205	14315
2545.147	14322
2547.087	14242
2549.029	14220
2550.969	14325
2552.908	14221
2554.847	14238
2556.786	14058
2558.724	14273
2560.663	14121
2562.6	14227
2564.537	14379
2566.473	14316
2568.408	14360
2570.345	14231
2572.28	14517
2574.214	14444
2576.148	14361
2578.081	14400
2580.014	14288
2581.947	14111
2583.879	14296
2585.81	14175
2587.741	14405
2589.67	14115
2591.602	14242
2593.532	14227
2595.461	14120
2597.388	14420
2599.316	14277
2601.244	14131
2603.172	14533
2605.098	14248
2607.023	14163
2608.949	14381
2610.873	14288
2612.8	14313
2614.723	14256
2616.647	14130
2618.569	14233
2620.493	14223
2622.416	14304
2624.338	14102
2626.258	14276
2628.179	14086
2630.099	14251
2632.019	14338
2633.939	14297
2635.857	14344
2637.775	14417
2639.694	14291
2641.61	14235
2643.528	14075
2645.444	14334
2647.361	14351
2649.276	14193
2651.19	14205
2653.105	14347
2655.019	14357
2656.934	14338
2658.846	14238
2660.758	14213
2662.67	14334
2664.583	14270
2666.493	14196
2668.404	14257
2670.313	14287
2672.223	14198
2674.134	14034
2676.042	14219
2677.95	14203
2679.858	14192
2681.765	14160
2683.673	14200
2685.579	13998
2687.483	14264
2689.389	14238
2691.294	14027
2693.198	14118
2695.104	14115
2697.006	14119
2698.909	14132
2700.811	14078
2702.713	14143
2704.615	14066
2706.516	13904
2708.417	14106
2710.316	13935
2712.216	13770
2714.115	13973
2716.014	14043
2717.913	13925
2719.81	13822
2721.707	13942
2723.603	14121
2725.501	13902
2727.396	13749
2729.292	13852
2731.186	13933
2733.081	13991
2734.976	13860
2736.87	13976
2738.762	13994
2740.653	13802
2742.546	13889
2744.437	13827
2746.329	13816
2748.22	13911
2750.11	13916
2751.999	13858
2753.889	13747
2755.778	13894
2757.666	13821
2759.553	13890
2761.44	13771
2763.328	13888
2765.215	13708
2767.101	14016
2768.986	13869
2770.87	13932
2772.754	13897
2774.638	13847
2776.523	13614
2778.405	13663
2780.288	13707
2782.17	13826
2784.051	13636
2785.934	13756
2787.814	13919
2789.694	13963
2791.574	13647
2793.453	13720
2795.332	13729
2797.212	13720
2799.088	13671
2800.966	13792
2802.843	13650
2804.719	13579
2806.597	13678
2808.471	13592
2810.346	13572
2812.221	13589
2814.094	13624
2815.969	13632
2817.843	13682
2819.714	13855
2821.587	13594
2823.459	13685
2825.329	13718
2827.202	13774
2829.072	13681
2830.942	13734
2832.811	13510
2834.68	13462
2836.549	13667
2838.418	13450
2840.284	13607
2842.152	13514
2844.018	13539
2845.885	13689
2847.751	13448
2849.616	13699
2851.482	13566
2853.345	13555
2855.208	13678
2857.074	13849
2858.937	13598
2860.799	13573
2862.66	13725
2864.522	13771
2866.385	13430
2868.245	13817
2870.104	13852
2871.964	13750
2873.824	13810
2875.683	13849
2877.542	13919
2879.4	13794
2881.257	14028
2883.114	14060
2884.97	14039
2886.827	13785
2888.683	13951
2890.537	13900
2892.392	13867
2894.246	13883
2896.1	14069
2897.954	13646
2899.807	13717
2901.66	13954
2903.51	13977
2905.362	13760
2907.214	14001
2909.065	13767
2910.915	13893
2912.765	13836
2914.613	13977
2916.463	13896
2918.311	13957
2920.158	13932
2922.006	13941
2923.853	14190
2925.698	14159
2927.546	14148
2929.392	14333
2931.236	14304
2933.081	14247
2934.924	14405
2936.77	14254
2938.613	14286
2940.455	14490
2942.298	14412
2944.139	14210
2945.982	14452
2947.823	14215
2949.662	14108
2951.503	14393
2953.342	14250
2955.182	14088
2957.021	14171
2958.858	14246
2960.697	14041
2962.534	14090
2964.37	14193
2966.207	13732
2968.044	13870
2969.879	13863
2971.714	13698
2973.548	13855
2975.383	13810
2977.218	13736
2979.051	13645
2980.883	13740
2982.715	13718
2984.547	13677
2986.379	13472
2988.21	13646
2990.04	13523
2991.87	13665
2993.7	13469
2995.53	13422
2997.359	13522
2999.187	13473
3001.015	13445
3002.842	13235
3004.669	13514
3006.497	13327
3008.323	13310
3010.148	13257
3011.974	13097
3013.797	13293
3015.623	13033
3017.447	13057
3019.27	13121
3021.094	13089
3022.915	13120
3024.737	12938
3026.56	12968
3028.38	12983
3030.201	12818
3032.022	12816
3033.84	12937
3035.662	12764
3037.481	12862
3039.298	12816
3041.117	12655
3042.933	12858
3044.752	12796
3046.568	12745
3048.385	12785
3050.2	12832
3052.016	12905
3053.83	12792
3055.646	12872
3057.46	12874
3059.272	12710
3061.086	12777
3062.898	12695
3064.711	12645
3066.524	12680
3068.335	12754
3070.145	12681
3071.956	12733
3073.766	12619
3075.576	12679
3077.385	12633
3079.193	12510
3081.002	12583
3082.81	12535
3084.618	12551
3086.425	12596
3088.231	12498
3090.036	12458
3091.842	12657
3093.648	12587
3095.452	12394
3097.257	12552
3099.06	12540
3100.863	12432
3102.666	12464
3104.47	12440
3106.272	12321
3108.073	12363
3109.875	12347
3111.676	12431
3113.477	12324
3115.277	12336
3117.077	12297
3118.874	12293
3120.673	12259
3122.473	12084
3124.271	12202
3126.066	12372
3127.863	12292
3129.66	12370
3131.456	12179
3133.252	12151
3135.047	12217
3136.842	12173
3138.635	12191
3140.429	12095
3142.223	12087
3144.016	12304
3145.808	11933
3147.6	12206
3149.392	12144
3151.183	12070
3152.975	12032
3154.765	11933
3156.553	12024
3158.344	11936
3160.132	11989
3161.922	12003
3163.71	11937
3165.497	11990
3167.285	11979
3169.071	12073
3170.858	11947
3172.645	11885
3174.429	12010
3176.214	11920
3177.998	12096
3179.783	11930
3181.568	11942
3183.351	11884
3185.133	11740
3186.915	11782
3188.698	11810
3190.481	11905
3192.261	11862
3194.042	11917
3195.822	11857
3197.601	11843
3199.381	11821
3201.161	11821
3202.939	11739
3204.717	11798
3206.495	11843
3208.272	11665
3210.05	11884
3211.826	11808
3213.602	11839
3215.376	11606
3217.151	11680
3218.927	11655
3220.702	11687
3222.476	11726
3224.249	11608
3226.021	11676
3227.793	11590
3229.567	11642
3231.339	11773
3233.109	11585
3234.88	11611
3236.651	11620
3238.421	11620
3240.191	11701
3241.96	11830
3243.728	11657
3245.497	11654
3247.263	11626
3249.033	11688
3250.799	11606
3252.566	11606
3254.331	11597
3256.097	11536
3257.863	11735
3259.628	11568
3261.392	11646
3263.156	11713
3264.919	11474
3266.683	11550
3268.447	11465
3270.208	11635
3271.969	11508
3273.731	11628
3275.492	11527
3277.253	11554
3279.013	11461
3280.773	11501
3282.532	11525
3284.291	11533
3286.05	11604
3287.808	11550
3289.566	11702
3291.323	11636
3293.079	11524
3294.835	11587
3296.593	11518
3298.348	11394
3300.102	11548
3301.857	11554
3303.611	11526
3305.366	11602
3307.119	11518
3308.872	11486
3310.624	11365
3312.376	11518
3314.129	11440
3315.881	11620
3317.631	11458
3319.38	11379
3321.13	11394
3322.88	11459
3324.631	11565
3326.379	11478
3328.126	11380
3329.875	11393
3331.622	11428
3333.371	11379
3335.116	11172
3336.863	11352
3338.609	11419
3340.353	11269
3342.1	11355
3343.845	11371
3345.588	11238
3347.332	11256
3349.074	11513
3350.817	11311
3352.56	11382
3354.303	11137
3356.043	11369
3357.785	11444
3359.525	11333
3361.268	11270
3363.007	11202
3364.745	11214
3366.485	11331
3368.223	11321
3369.962	11271
3371.701	11262
3373.438	11280
3375.174	11213
3376.911	11130
3378.647	11240
3380.384	11240
3382.118	11078
3383.854	11185
3385.588	11146
3387.322	11110
3389.057	11151
3390.79	11046
3392.522	11017
3394.255	11111
3395.987	11014
3397.719	11048
3399.451	11033
3401.181	11063
3402.911	10941
3404.641	11140
3406.371	11042
3408.101	11158
3409.83	10985
3411.558	11067
3413.285	10971
3415.011	10964
3416.739	10932
3418.467	11000
3420.193	11073
3421.919	10924
3423.644	11059
3425.368	11029
3427.094	10936
3428.818	10968
3430.542	10930
3432.264	11014
3433.987	10941
3435.712	10819
3437.434	10832
3439.155	10778
3440.876	10907
3442.596	10893
3444.317	10790
3446.039	10750
3447.757	10767
3449.477	10703
3451.195	10769
3452.914	10730
3454.632	10722
3456.35	10679
3458.067	10765
3459.784	10730
3461.5	10791
3463.216	10800
3464.932	10824
3466.647	10691
3468.362	10691
3470.076	10589
3471.789	10611
3473.505	10609
3475.217	10636
3476.929	10712
3478.641	10683
3480.354	10463
3482.066	10535
3483.777	10680
3485.487	10566
3487.197	10550
3488.908	10360
3490.617	10509
3492.327	10367
3494.035	10553
3495.743	10463
3497.451	10479
3499.158	10414
3500.866	10614
3502.572	10392
3504.278	10314
3505.984	10482
3507.689	10446
3509.396	10457
3511.1	10314
3512.804	10422
3514.508	10371
3516.211	10429
3517.913	10393
3519.616	10347
3521.319	10405
3523.021	10286
3524.722	10299
3526.422	10329
3528.124	10292
3529.824	10332
3531.524	10269
3533.222	10303
3534.921	10136
3536.62	10141
3538.318	10263
3540.016	10272
3541.714	10195
3543.41	10330
3545.107	10286
3546.803	10335
3548.5	10146
3550.194	10215
3551.889	10278
3553.583	10156
3555.279	10186
3556.972	10222
3558.666	10200
3560.358	10149
3562.051	10225
3563.742	10082
3565.435	10192
3567.126	10154
3568.817	10056
3570.507	10222
3572.197	10096
3573.888	10069
3575.577	10121
3577.265	10118
3578.954	10113
3580.642	10077
3582.329	10077
3584.017	10027
3585.704	10116
3587.391	10094
3589.077	10079
3590.762	9993
3592.449	9984
3594.133	9976
3595.817	9926
3597.501	9959
3599.185	10022
3600.869	9793
3602.552	9924
3604.234	9908
3605.916	9888
3607.598	9952
3609.279	9764
3610.961	9890
3612.642	9852
3614.321	9927
3616	9755
3617.68	9733
3619.36	9900
3621.039	9741
3622.716	9878
3624.394	9740
3626.071	9823
3627.748	9733
3629.425	9823
3631.102	9637
3632.778	9826
3634.452	9626
3636.127	9725
3637.803	9644
3639.477	9535
3641.151	9647
3642.823	9604
3644.497	9680
3646.171	9547
3647.842	9718
3649.515	9591
3651.185	9660
3652.857	9557
3654.527	9741
3656.198	9605
3657.868	9689
3659.537	9501
3661.207	9575
3662.875	9556
3664.544	9660
3666.212	9421
3667.879	9423
3669.546	9487
3671.212	9553
3672.88	9435
3674.546	9322
3676.211	9509
3677.875	9419
3679.541	9495
3681.205	9563
3682.87	9493
3684.533	9467
3686.196	9453
3687.859	9377
3689.521	9451
3691.184	9460
3692.845	9448
3694.507	9443
3696.167	9567
3697.827	9407
3699.487	9361
3701.148	9381
3702.808	9353
3704.466	9455
3706.125	9414
3707.783	9385
3709.442	9412
3711.099	9462
3712.757	9377
3714.412	9420
3716.068	9345
3717.725	9320
3719.381	9402
3721.036	9280
3722.689	9346
3724.344	9417
3725.998	9243
3727.652	9286
3729.305	9284
3730.958	9340
3732.61	9348
3734.262	9329
3735.915	9128
3737.565	9355
3739.217	9260
3740.866	9191
3742.516	9233
3744.165	9165
3745.816	9117
3747.464	9202
3749.113	9212
3750.761	9129
3752.409	9104
3754.057	9145
3755.703	9193
3757.35	9158
3758.996	9075
3760.641	9064
3762.289	9101
3763.933	9102
3765.577	9106
3767.222	9030
3768.865	9030
3770.508	9073
3772.152	9002
3773.796	9045
3775.438	9056
3777.079	9027
3778.721	9016
3780.363	9101
3782.003	9065
3783.643	9001
3785.283	8949
3786.923	8926
3788.563	9035
3790.203	9080
3791.841	9000
3793.479	8952
3795.115	9066
3796.753	8988
3798.391	8994
3800.027	8926
3801.664	8962
3803.299	8813
3804.935	8899
3806.571	8836
3808.206	8833
3809.839	8903
3811.473	8877
3813.107	8964
3814.74	8832
3816.375	8813
3818.006	8768
3819.638	8757
3821.27	8797
3822.9	8702
3824.532	8737
3826.163	8787
3827.792	8837
3829.423	8659
3831.051	8674
3832.682	8779
3834.311	8680
3835.938	8763
3837.566	8698
3839.193	8678
3840.821	8657
3842.448	8735
3844.075	8529
3845.7	8598
3847.325	8649
3848.951	8487
3850.576	8613
3852.201	8628
3853.825	8552
3855.448	8672
3857.072	8617
3858.694	8697
3860.318	8651
3861.939	8654
3863.562	8521
3865.183	8510
3866.804	8509
3868.426	8529
3870.045	8607
3871.666	8583
3873.285	8583
3874.904	8485
3876.524	8588
3878.142	8554
3879.76	8360
3881.378	8532
3882.995	8483
3884.612	8566
3886.229	8579
3887.845	8369
3889.461	8502
3891.076	8446
3892.691	8567
3894.307	8369
3895.922	8376
3897.536	8496
3899.149	8458
3900.761	8506
3902.374	8424
3903.988	8390
3905.6	8383
3907.212	8387
3908.822	8467
3910.433	8415
3912.045	8385
3913.655	8408
3915.265	8406
3916.875	8304
3918.483	8329
3920.093	8419
3921.702	8404
3923.309	8399
3924.917	8290
3926.523	8509
3928.13	8366
3929.739	8314
3931.344	8256
3932.95	8334
3934.555	8231
3936.159	8361
3937.766	8345
3939.369	8297
3940.974	8301
3942.577	8468
3944.181	8216
3945.783	8336
3947.386	8313
3948.989	8227
3950.59	8288
3952.191	8263
3953.791	8298
3955.394	8173
3956.994	8097
3958.593	8182
3960.192	8164
3961.791	8330
3963.392	8173
3964.99	8148
3966.588	8070
3968.185	8148
3969.782	8039
3971.379	8025
3972.976	8027
3974.572	8178
3976.168	8093
3977.763	8114
3979.358	8026
3980.954	8181
3982.548	8127
3984.142	7999
3985.736	8047
3987.329	7979
3988.922	8091
3990.516	7970
3992.108	8067
3993.698	7878
3995.29	7936
3996.881	7955
3998.473	8034
4000.064	7797
4001.653	7911
4003.242	8001
4004.832	7872
4006.422	7837
4008.01	7959
4009.598	7789
4011.186	7819
4012.773	7801
4014.36	7876
4015.947	7920
4017.534	7793
4019.119	7677
4020.705	7832
4022.291	7757
4023.876	7772
4025.461	7858
4027.044	7760
4028.627	7832
4030.211	7708
4031.795	7742
4033.378	7664
4034.96	7799
4036.542	7614
4038.124	7827
4039.704	7718
4041.286	7713
4042.867	7640
4044.447	7660
4046.026	7715
4047.606	7630
4049.187	7691
4050.765	7589
4052.343	7627
4053.92	7708
4055.498	7551
4057.076	7656
4058.654	7600
4060.23	7519
4061.806	7514
4063.381	7639
4064.957	7616
4066.533	7430
4068.107	7661
4069.682	7559
4071.256	7485
4072.829	7465
4074.404	7532
4075.977	7490
4077.549	7548
4079.121	7549
4080.693	7414
4082.265	7480
4083.836	7488
4085.407	7451
4086.977	7439
4088.547	7551
4090.117	7489
4091.687	7391
4093.256	7526
4094.825	7441
4096.392	7567
4097.96	7380
4099.528	7350
4101.097	7376
4102.663	7376
4104.229	7381
4105.795	7479
4107.361	7262
4108.928	7424
4110.493	7467
4112.058	7428
4113.621	7291
4115.186	7335
4116.75	7424
4118.313	7174
4119.876	7260
4121.438	7320
4123	7386
4124.562	7186
4126.125	7294
4127.686	7244
4129.246	7244
4130.807	7257
4132.367	7146
4133.927	7232
4135.486	7262
4137.046	7049
4138.604	7308
4140.162	7239
4141.72	7153
4143.279	7218
4144.836	7107
4146.393	7127
4147.949	7183
4149.505	7158
4151.062	7157
4152.617	7135
4154.172	7104
4155.727	7066
4157.281	7082
4158.836	7051
4160.39	7026
4161.943	7088
4163.496	7035
4165.048	7088
4166.601	6892
4168.154	7059
4169.706	6991
4171.257	7050
4172.808	6976
4174.358	7086
4175.909	6961
4177.458	6906
4179.008	6872
4180.558	6878
4182.106	7113
4183.655	6924
4185.204	7003
4186.751	6808
4188.298	6980
4189.845	6827
4191.392	6889
4192.939	6914
4194.485	6940
4196.031	6941
4197.576	6912
4199.121	6924
4200.666	6834
4202.211	6887
4203.754	6866
4205.298	6871
4206.84	6789
4208.384	6756
4209.927	6818
4211.47	6775
4213.011	6905
4214.552	6761
4216.094	6768
4217.635	6695
4219.175	6827
4220.716	6707
4222.255	6821
4223.793	6664
4225.335	6794
4226.873	6721
4228.411	6819
4229.948	6735
4231.486	6808
4233.024	6676
4234.562	6671
4236.098	6795
4237.634	6637
4239.169	6705
4240.705	6818
4242.241	6747
4243.776	6679
4245.31	6724
4246.844	6635
4248.378	6646
4249.911	6611
4251.445	6705
4252.978	6609
4254.51	6635
4256.042	6597
4257.574	6697
4259.107	6704
4260.638	6621
4262.169	6615
4263.699	6649
4265.228	6622
4266.759	6591
4268.289	6501
4269.818	6492
4271.345	6710
4272.874	6570
4274.402	6654
4275.931	6524
4277.458	6594
4278.985	6666
4280.512	6482
4282.037	6461
4283.564	6626
4285.089	6550
4286.615	6432
4288.139	6424
4289.664	6481
4291.187	6519
4292.712	6480
4294.235	6501
4295.759	6471
4297.281	6640
4298.804	6501
4300.327	6426
4301.849	6343
4303.37	6434
4304.891	6496
4306.412	6441
4307.933	6435
4309.453	6433
4310.973	6351
4312.492	6483
