398.1873	3440
400.7097	3492
403.2336	3463
405.7547	3424
408.2751	3526
410.7948	3427
413.3138	3498
415.83	3420
418.3497	3498
420.8666	3519
423.3829	3576
425.8985	3568
428.4133	3648
430.9275	3627
433.441	3639
435.9538	3563
438.4639	3616
440.9753	3664
443.4881	3558
445.9982	3605
448.5055	3566
451.0142	3663
453.5201	3569
456.0274	3694
458.5361	3619
461.04	3663
463.5453	3635
466.0478	3601
468.5517	3641
471.0549	3659
473.5574	3723
476.0572	3645
478.5584	3634
481.0568	3649
483.5545	3623
486.0557	3785
488.5521	3785
491.0478	3686
493.5449	3764
496.0392	3802
498.5349	3749
501.0299	3733
503.5222	3744
506.0139	3747
508.5048	3773
510.9991	3761
513.4887	3846
515.9777	3801
518.4659	3822
520.9534	3867
523.4403	3775
525.9306	3860
528.4161	3888
530.9009	3881
533.3851	3818
535.8687	3874
538.3535	3859
540.8356	3886
543.3171	3844
545.7979	3835
548.278	3860
550.7595	3819
553.2383	3845
555.7144	3800
558.1918	3791
560.6685	3827
563.1446	3843
565.6221	3878
568.0968	3904
570.5688	3911
573.0422	3862
575.515	3971
577.989	3933
580.4584	3908
582.9291	3974
585.3991	4005
587.8685	3944
590.3352	3974
592.8052	3970
595.2706	3893
597.7372	3935
600.2033	3979
602.6666	3919
605.1334	3911
607.5953	3855
610.0587	3890
612.5193	3884
614.9814	3939
617.4427	3898
619.9034	3957
622.3615	3950
624.8208	4006
627.2775	3876
629.7335	3987
632.1929	3874
634.6476	3851
637.1016	3918
639.5569	3955
642.0096	3985
644.4637	4027
646.9151	3939
649.3678	3929
651.8179	4020
654.2672	3996
656.7159	4043
659.166	4030
661.6154	4029
664.0622	4037
666.5082	4081
668.9537	4068
671.4005	4051
673.8445	4057
676.288	4019
678.7308	4045
681.1729	4063
683.6163	4078
686.0572	4062
688.4973	4092
690.9368	4039
693.3757	4112
695.8138	4148
698.2534	4092
700.6902	4150
703.1245	4079
705.56	4080
707.9949	4102
710.4311	4117
712.8647	4202
715.2957	4172
717.7279	4161
720.1595	4140
722.5905	4174
725.0208	4056
727.4505	4194
729.8795	4291
732.3058	4297
734.7336	4241
737.1626	4229
739.587	4294
742.0128	4242
744.4359	4247
746.8604	4278
749.2841	4326
751.7073	4289
754.1278	4277
756.5496	4362
758.9688	4304
761.3893	4322
763.8093	4320
766.2285	4306
768.6451	4385
771.0611	4375
773.4784	4372
775.895	4323
778.3091	4329
780.7244	4335
783.1371	4429
785.5493	4346
787.9626	4344
790.3754	4365
792.7856	4394
795.1951	4333
797.6039	4336
800.0121	4421
802.4236	4368
804.8306	4376
807.2369	4384
809.6425	4454
812.0475	4407
814.4538	4476
816.8575	4396
819.2606	4368
821.663	4444
824.0648	4485
826.4659	4475
828.8683	4394
831.2682	4499
833.6674	4442
836.066	4396
838.4639	4373
840.8632	4489
843.2579	4471
845.6539	4499
848.0493	4422
850.444	4518
852.84	4506
855.2315	4434
857.6243	4594
860.0165	4448
862.4081	4489
864.797	4437
867.1892	4455
869.5789	4441
871.9659	4457
874.3542	4424
876.74	4417
879.129	4493
881.5155	4476
883.8994	4437
886.2845	4463
888.6671	4467
891.051	4465
893.4343	4455
895.8169	4518
898.197	4449
900.5783	4470
902.9571	4503
905.3372	4439
907.7167	4531
910.0936	4502
912.4698	4538
914.8474	4573
917.2244	4649
919.5987	4568
921.9744	4557
924.3475	4645
926.72	4673
929.0918	4549
931.4669	4640
933.8375	4548
936.2074	4589
938.5767	4675
940.9454	4657
943.3154	4703
945.6829	4644
948.0497	4728
950.4178	4829
952.7833	4779
955.1483	4956
957.5145	5039
959.8782	5036
962.2412	5118
964.6036	4979
966.9655	4825
969.3266	4840
971.6871	4731
974.0471	4653
976.4064	4628
978.765	4615
981.125	4627
983.4824	4658
985.8373	4586
988.1935	4580
990.549	4762
992.9039	4622
995.2602	4548
997.6119	4627
999.965	4695
1002.317	4588
1004.667	4668
1007.02	4660
1009.371	4715
1011.719	4651
1014.068	4588
1016.415	4627
1018.765	4689
1021.111	4622
1023.458	4544
1025.804	4574
1028.147	4660
1030.49	4661
1032.837	4635
1035.179	4705
1037.522	4648
1039.862	4700
1042.204	4726
1044.546	4624
1046.884	4659
1049.224	4719
1051.562	4628
1053.899	4749
1056.237	4764
1058.575	4684
1060.91	4751
1063.244	4739
1065.58	4810
1067.913	4819
1070.248	4763
1072.579	4702
1074.911	4737
1077.242	4797
1079.572	4619
1081.905	4702
1084.234	4797
1086.562	4739
1088.89	4733
1091.217	4782
1093.544	4742
1095.871	4712
1098.197	4713
1100.521	4717
1102.845	4745
1105.169	4770
1107.491	4778
1109.814	4724
1112.135	4852
1114.456	4777
1116.776	4853
1119.096	4826
1121.415	4844
1123.734	4821
1126.052	4815
1128.369	4794
1130.686	4858
1133.002	4883
1135.318	4704
1137.632	4666
1139.945	4799
1142.258	4808
1144.573	4811
1146.884	4685
1149.196	4896
1151.505	4690
1153.816	4749
1156.124	4876
1158.435	4794
1160.742	4814
1163.051	4849
1165.356	4871
1167.663	4781
1169.97	4864
1172.276	4807
1174.579	4818
1176.881	4852
1179.186	4862
1181.487	4853
1183.79	4867
1186.092	4860
1188.392	4779
1190.691	4890
1192.991	4869
1195.291	4870
1197.588	4820
1199.885	4718
1202.181	4859
1204.479	4823
1206.775	4850
1209.07	4837
1211.363	4833
1213.656	4750
1215.949	4855
1218.241	4882
1220.534	4872
1222.825	4930
1225.115	4969
1227.405	4950
1229.693	5005
1231.984	5007
1234.271	4837
1236.558	4866
1238.845	4900
1241.131	5004
1243.416	4897
1245.703	4950
1247.987	4913
1250.269	4949
1252.552	4978
1254.834	5008
1257.118	4987
1259.399	4984
1261.678	5036
1263.958	4917
1266.237	4953
1268.516	5034
1270.794	4947
1273.072	5041
1275.347	4991
1277.624	4998
1279.899	4927
1282.175	4969
1284.449	4957
1286.722	5026
1288.995	4971
1291.266	4937
1293.54	4900
1295.81	5058
1298.081	4827
1300.35	4889
1302.62	4953
1304.889	4982
1307.156	4835
1309.425	5020
1311.69	4925
1313.957	4924
1316.222	4872
1318.488	5009
1320.751	4932
1323.016	4924
1325.278	4916
1327.54	4916
1329.803	5025
1332.065	5047
1334.325	4897
1336.584	5095
1338.843	4965
1341.101	4847
1343.36	4972
1345.617	4945
1347.876	4994
1350.131	4965
1352.387	4958
1354.643	5046
1356.897	4979
1359.151	4989
1361.403	4992
1363.656	4982
1365.909	5043
1368.16	5013
1370.409	5005
1372.659	4984
1374.909	5018
1377.157	4944
1379.407	4926
1381.655	4977
1383.9	5026
1386.147	5005
1388.393	5035
1390.64	5029
1392.885	5049
1395.127	5098
1397.37	5010
1399.614	5066
1401.854	5088
1404.098	5082
1406.339	5131
1408.578	5085
1410.818	5128
1413.056	5098
1415.297	5205
1417.533	5060
1419.771	5151
1422.006	5129
1424.243	5030
1426.479	5077
1428.715	5128
1430.948	5008
1433.182	5201
1435.414	5178
1437.647	5142
1439.88	5139
1442.11	5176
1444.342	5228
1446.571	5147
1448.799	5185
1451.029	5143
1453.258	5157
1455.485	5253
1457.711	5119
1459.937	5214
1462.164	5201
1464.39	5106
1466.614	5119
1468.838	5179
1471.06	5086
1473.283	5102
1475.506	5119
1477.727	5117
1479.949	5062
1482.169	5063
1484.389	5179
1486.609	5069
1488.828	5048
1491.045	5097
1493.261	5034
1495.477	5070
1497.693	5047
1499.91	5067
1502.125	5109
1504.339	5114
1506.553	5168
1508.766	5023
1510.979	5037
1513.191	5040
1515.402	5000
1517.613	5131
1519.823	4981
1522.033	5095
1524.242	5088
1526.451	5079
1528.657	5062
1530.865	5002
1533.072	5072
1535.278	5052
1537.484	5029
1539.687	5082
1541.892	5037
1544.096	4988
1546.299	5119
1548.502	5012
1550.703	5139
1552.905	5083
1555.104	5073
1557.303	5166
1559.505	5192
1561.703	5105
1563.902	5186
1566.099	5175
1568.295	5215
1570.494	5154
1572.689	5255
1574.883	5237
1577.079	5148
1579.272	5171
1581.467	5227
1583.659	5216
1585.853	5207
1588.044	5219
1590.234	5196
1592.424	5178
1594.615	5270
1596.806	5152
1598.994	5242
1601.182	5193
1603.369	5267
1605.557	5114
1607.744	5301
1609.929	5213
1612.114	5159
1614.298	5210
1616.482	5180
1618.667	5200
1620.85	5251
1623.032	5223
1625.214	5259
1627.395	5265
1629.575	5324
1631.755	5249
1633.935	5250
1636.114	5267
1638.292	5210
1640.471	5265
1642.647	5255
1644.823	5285
1647	5237
1649.175	5333
1651.348	5279
1653.525	5238
1655.698	5196
1657.87	5273
1660.043	5307
1662.213	5282
1664.387	5222
1666.558	5330
1668.727	5246
1670.896	5290
1673.064	5347
1675.233	5205
1677.401	5212
1679.569	5241
1681.735	5243
1683.902	5264
1686.066	5266
1688.233	5238
1690.397	5257
1692.559	5219
1694.723	5358
1696.885	5267
1699.048	5300
1701.21	5290
1703.37	5278
1705.53	5215
1707.689	5199
1709.849	5286
1712.009	5278
1714.166	5280
1716.323	5223
1718.479	5258
1720.634	5247
1722.793	5255
1724.948	5282
1727.102	5148
1729.255	5162
1731.408	5262
1733.562	5196
1735.714	5293
1737.865	5306
1740.016	5304
1742.166	5202
1744.316	5380
1746.467	5233
1748.616	5276
1750.764	5297
1752.911	5214
1755.056	5330
1757.205	5347
1759.35	5282
1761.496	5348
1763.641	5282
1765.785	5340
1767.927	5264
1770.072	5261
1772.214	5323
1774.355	5336
1776.496	5271
1778.637	5374
1780.778	5203
1782.918	5323
1785.057	5306
1787.194	5243
1789.333	5374
1791.472	5391
1793.608	5248
1795.745	5370
1797.879	5301
1800.015	5279
1802.148	5305
1804.284	5244
1806.417	5388
1808.548	5309
1810.682	5290
1812.812	5205
1814.946	5329
1817.075	5380
1819.205	5253
1821.335	5270
1823.463	5341
1825.59	5290
1827.721	5346
1829.847	5247
1831.973	5273
1834.098	5348
1836.223	5315
1838.351	5370
1840.475	5236
1842.598	5302
1844.721	5375
1846.843	5317
1848.966	5287
1851.087	5263
1853.21	5335
1855.33	5331
1857.449	5286
1859.568	5300
1861.688	5261
1863.806	5254
1865.924	5284
1868.039	5270
1870.155	5317
1872.273	5345
1874.388	5339
1876.503	5241
1878.617	5275
1880.73	5236
1882.844	5423
1884.956	5258
1887.068	5380
1889.18	5276
1891.291	5246
1893.4	5360
1895.511	5316
1897.621	5383
1899.73	5327
1901.837	5292
1903.944	5289
1906.053	5329
1908.159	5467
1910.265	5382
1912.369	5417
1914.474	5420
1916.577	5341
1918.683	5400
1920.785	5265
1922.888	5470
1924.989	5434
1927.091	5396
1929.193	5407
1931.294	5372
1933.393	5369
1935.493	5458
1937.59	5355
1939.689	5393
1941.788	5474
1943.884	5314
1945.98	5407
1948.077	5482
1950.171	5448
1952.267	5439
1954.361	5445
1956.455	5421
1958.548	5442
1960.64	5460
1962.733	5379
1964.824	5362
1966.915	5430
1969.005	5365
1971.096	5508
1973.185	5391
1975.275	5349
1977.363	5358
1979.45	5476
1981.537	5300
1983.623	5314
1985.711	5413
1987.796	5393
1989.881	5422
1991.965	5391
1994.047	5403
1996.132	5363
1998.215	5301
2000.297	5486
2002.378	5339
2004.46	5342
2006.54	5459
2008.62	5481
2010.7	5302
2012.779	5307
2014.858	5431
2016.934	5376
2019.013	5279
2021.09	5373
2023.165	5319
2025.241	5247
2027.317	5418
2029.39	5396
2031.466	5455
2033.538	5476
2035.612	5351
2037.683	5329
2039.755	5341
2041.827	5339
2043.898	5354
2045.968	5380
2048.038	5373
2050.106	5368
2052.177	5399
2054.244	5331
2056.313	5302
2058.379	5350
2060.444	5346
2062.511	5419
2064.577	5346
2066.641	5335
2068.705	5349
2070.77	5457
2072.832	5430
2074.896	5380
2076.958	5402
2079.02	5497
2081.081	5394
2083.141	5351
2085.2	5358
2087.261	5459
2089.319	5390
2091.377	5410
2093.435	5477
2095.492	5457
2097.552	5430
2099.607	5423
2101.663	5411
2103.718	5463
2105.771	5433
2107.826	5337
2109.879	5329
2111.932	5423
2113.985	5460
2116.037	5434
2118.088	5341
2120.141	5373
2122.191	5419
2124.239	5396
2126.288	5423
2128.337	5438
2130.387	5396
2132.434	5430
2134.481	5402
2136.528	5369
2138.574	5409
2140.618	5355
2142.665	5338
2144.71	5321
2146.753	5406
2148.797	5342
2150.838	5343
2152.883	5408
2154.923	5352
2156.965	5327
2159.007	5296
2161.046	5498
2163.086	5377
2165.126	5393
2167.163	5439
2169.202	5341
2171.239	5359
2173.277	5361
2175.314	5346
2177.349	5519
2179.385	5396
2181.42	5295
2183.453	5346
2185.49	5270
2187.522	5336
2189.555	5246
2191.586	5346
2193.619	5340
2195.651	5353
2197.682	5335
2199.711	5312
2201.74	5333
2203.769	5392
2205.799	5304
2207.828	5408
2209.855	5306
2211.882	5275
2213.908	5286
2215.934	5257
2217.961	5387
2219.986	5373
2222.01	5341
2224.034	5219
2226.057	5243
2228.08	5246
2230.104	5327
2232.124	5388
2234.145	5325
2236.166	5379
2238.186	5167
2240.207	5305
2242.227	5271
2244.244	5243
2246.262	5346
2248.28	5276
2250.299	5232
2252.314	5298
2254.33	5333
2256.346	5300
2258.36	5424
2260.375	5278
2262.391	5254
2264.403	5418
2266.416	5289
2268.427	5316
2270.44	5416
2272.453	5469
2274.463	5339
2276.474	5391
2278.483	5282
2280.493	5362
2282.501	5293
2284.51	5375
2286.518	5198
2288.524	5311
2290.532	5344
2292.537	5263
2294.544	5212
2296.55	5301
2298.554	5242
2300.557	5272
2302.562	5299
2304.566	5378
2306.568	5286
2308.569	5304
2310.572	5280
2312.573	5284
2314.573	5297
2316.574	5186
2318.573	5247
2320.571	5263
2322.571	5180
2324.569	5184
2326.567	5233
2328.564	5279
2330.56	5288
2332.556	5277
2334.551	5207
2336.546	5301
2338.542	5251
2340.535	5280
2342.529	5156
2344.521	5308
2346.512	5338
2348.505	5145
2350.497	5227
2352.487	5299
2354.478	5188
2356.468	5261
2358.457	5225
2360.446	5301
2362.434	5264
2364.422	5114
2366.408	5249
2368.395	5259
2370.383	5197
2372.369	5159
2374.353	5312
2376.338	5170
2378.321	5242
2380.307	5235
2382.29	5196
2384.272	5274
2386.254	5132
2388.235	5227
2390.218	5245
2392.198	5127
2394.179	5152
2396.157	5153
2398.137	5194
2400.115	5148
2402.095	5207
2404.072	5134
2406.048	5249
2408.026	5165
2410.001	5139
2411.977	5213
2413.953	5222
2415.927	5224
2417.9	5213
2419.875	5217
2421.847	5153
2423.821	5202
2425.792	5156
2427.763	5198
2429.736	5172
2431.706	5149
2433.677	5125
2435.646	5197
2437.615	5203
2439.583	5070
2441.551	5203
2443.519	5168
2445.486	5139
2447.452	5140
2449.418	5196
2451.383	5103
2453.348	5109
2455.314	5160
2457.278	5090
2459.241	5205
2461.205	5101
2463.167	5150
2465.131	5045
2467.091	5180
2469.052	4974
2471.012	5084
2472.972	5203
2474.932	5080
2476.891	5117
2478.85	5085
2480.808	5081
2482.766	5139
2484.722	5106
2486.68	5066
2488.636	5006
2490.591	5115
2492.546	5191
2494.5	5130
2496.456	5123
2498.41	5023
2500.362	5083
2502.315	5120
2504.266	5149
2506.218	5136
2508.169	5137
2510.121	5049
2512.07	5154
2514.019	5094
2515.968	5110
2517.918	5057
2519.866	5088
2521.813	5138
2523.76	5084
2525.707	5013
2527.653	5069
2529.599	5119
2531.543	5061
2533.489	5123
2535.433	5063
2537.376	4995
2539.32	5095
2541.264	5069
2543.205	5161
2545.147	5042
2547.087	5160
2549.029	5104
2550.969	5192
2552.908	5113
2554.847	4955
2556.786	5087
2558.724	5090
2560.663	5064
2562.6	5072
2564.537	5106
2566.473	5103
2568.408	5064
2570.345	5100
2572.28	5196
2574.214	5226
2576.148	4980
2578.081	5072
2580.014	5167
2581.947	5045
2583.879	5193
2585.81	5180
2587.741	5156
2589.67	5210
2591.602	5053
2593.532	5115
2595.461	4999
2597.388	5189
2599.316	5093
2601.244	4992
2603.172	5054
2605.098	5229
2607.023	5015
2608.949	5120
2610.873	5166
2612.8	5013
2614.723	5167
2616.647	5165
2618.569	5157
2620.493	5049
2622.416	5181
2624.338	5090
2626.258	5144
2628.179	5130
2630.099	5060
2632.019	5170
2633.939	5007
2635.857	5162
2637.775	5172
2639.694	5071
2641.61	5032
2643.528	5169
2645.444	5102
2647.361	5185
2649.276	5139
2651.19	5183
2653.105	4957
2655.019	5102
2656.934	5166
2658.846	5054
2660.758	5138
2662.67	5071
2664.583	5047
2666.493	5114
2668.404	5103
2670.313	5134
2672.223	5084
2674.134	4989
2676.042	5028
2677.95	5022
2679.858	5046
2681.765	5110
2683.673	5138
2685.579	5061
2687.483	5121
2689.389	5093
2691.294	5058
2693.198	5073
2695.104	5176
2697.006	5032
2698.909	5135
2700.811	5048
2702.713	4949
2704.615	5116
2706.516	5066
2708.417	5010
2710.316	5071
2712.216	5072
2714.115	5053
2716.014	5096
2717.913	5028
2719.81	4941
2721.707	5034
2723.603	5078
2725.501	5110
2727.396	4988
2729.292	4926
2731.186	5025
2733.081	4956
2734.976	4948
2736.87	5047
2738.762	5005
2740.653	4960
2742.546	4932
2744.437	4991
2746.329	4950
2748.22	4967
2750.11	5030
2751.999	5106
2753.889	4971
2755.778	4990
2757.666	5018
2759.553	4903
2761.44	4970
2763.328	5069
2765.215	5096
2767.101	5003
2768.986	5086
2770.87	4958
2772.754	4922
2774.638	5024
2776.523	4957
2778.405	5014
2780.288	4994
2782.17	5043
2784.051	5048
2785.934	4984
2787.814	4980
2789.694	5026
2791.574	4990
2793.453	5016
2795.332	4954
2797.212	4922
2799.088	4952
2800.966	4977
2802.843	4936
2804.719	4999
2806.597	4898
2808.471	5068
2810.346	4911
2812.221	4928
2814.094	5001
2815.969	4892
2817.843	4917
2819.714	4955
2821.587	4937
2823.459	4994
2825.329	4882
2827.202	5044
2829.072	4897
2830.942	4986
2832.811	4928
2834.68	4976
2836.549	4965
2838.418	4948
2840.284	5022
2842.152	4995
2844.018	4976
2845.885	5105
2847.751	5020
2849.616	4965
2851.482	5019
2853.345	5062
2855.208	4921
2857.074	5080
2858.937	5042
2860.799	5071
2862.66	5121
2864.522	4924
2866.385	5038
2868.245	4947
2870.104	5017
2871.964	4981
2873.824	5095
2875.683	5135
2877.542	5052
2879.4	5166
2881.257	5166
2883.114	5208
2884.97	5222
2886.827	5220
2888.683	5258
2890.537	5163
2892.392	5163
2894.246	5101
2896.1	5134
2897.954	5237
2899.807	5210
2901.66	5059
2903.51	5168
2905.362	5122
2907.214	5043
2909.065	5181
2910.915	5154
2912.765	5120
2914.613	5177
2916.463	5299
2918.311	5218
2920.158	5242
2922.006	5186
2923.853	5260
2925.698	5306
2927.546	5316
2929.392	5277
2931.236	5354
2933.081	5373
2934.924	5323
2936.77	5381
2938.613	5460
2940.455	5394
2942.298	5544
2944.139	5543
2945.982	5498
2947.823	5442
2949.662	5467
2951.503	5459
2953.342	5424
2955.182	5410
2957.021	5291
2958.858	5316
2960.697	5324
2962.534	5382
2964.37	5391
2966.207	5290
2968.044	5206
2969.879	5222
2971.714	5088
2973.548	5121
2975.383	5161
2977.218	5055
2979.051	5197
2980.883	5194
2982.715	5134
2984.547	5097
2986.379	5083
2988.21	5151
2990.04	5039
2991.87	5038
2993.7	4987
2995.53	4979
2997.359	4913
2999.187	5028
3001.015	4847
3002.842	4973
3004.669	4909
3006.497	4871
3008.323	4879
3010.148	4819
3011.974	4798
3013.797	4812
3015.623	4706
3017.447	4885
3019.27	4843
3021.094	4823
3022.915	4828
3024.737	4910
3026.56	4785
3028.38	4849
3030.201	4799
3032.022	4774
3033.84	4774
3035.662	4756
3037.481	4742
3039.298	4694
3041.117	4748
3042.933	4795
3044.752	4648
3046.568	4723
3048.385	4849
3050.2	4767
3052.016	4740
3053.83	4661
3055.646	4810
3057.46	4812
3059.272	4785
3061.086	4753
3062.898	4695
3064.711	4704
3066.524	4737
3068.335	4725
3070.145	4756
3071.956	4674
3073.766	4624
3075.576	4654
3077.385	4662
3079.193	4645
3081.002	4650
3082.81	4595
3084.618	4665
3086.425	4697
3088.231	4637
3090.036	4617
3091.842	4625
3093.648	4633
3095.452	4632
3097.257	4685
3099.06	4539
3100.863	4640
3102.666	4512
3104.47	4595
3106.272	4586
3108.073	4572
3109.875	4450
3111.676	4640
3113.477	4531
3115.277	4575
3117.077	4581
3118.874	4594
3120.673	4595
3122.473	4506
3124.271	4544
3126.066	4508
3127.863	4558
3129.66	4619
3131.456	4433
3133.252	4632
3135.047	4510
3136.842	4525
3138.635	4553
3140.429	4539
3142.223	4637
3144.016	4562
3145.808	4555
3147.6	4576
3149.392	4516
3151.183	4592
3152.975	4567
3154.765	4518
3156.553	4469
3158.344	4454
3160.132	4554
3161.922	4507
3163.71	4433
3165.497	4478
3167.285	4492
3169.071	4443
3170.858	4449
3172.645	4557
3174.429	4374
3176.214	4408
3177.998	4462
3179.783	4533
3181.568	4506
3183.351	4392
3185.133	4423
3186.915	4466
3188.698	4426
3190.481	4344
3192.261	4430
3194.042	4461
3195.822	4423
3197.601	4419
3199.381	4405
3201.161	4417
3202.939	4506
3204.717	4369
3206.495	4422
3208.272	4403
3210.05	4487
3211.826	4468
3213.602	4414
3215.376	4395
3217.151	4449
3218.927	4368
3220.702	4346
3222.476	4387
3224.249	4372
3226.021	4389
3227.793	4401
3229.567	4384
3231.339	4312
3233.109	4452
3234.88	4416
3236.651	4506
3238.421	4364
3240.191	4388
3241.96	4345
3243.728	4494
3245.497	4370
3247.263	4431
3249.033	4410
3250.799	4302
3252.566	4362
3254.331	4384
3256.097	4340
3257.863	4371
3259.628	4371
3261.392	4387
3263.156	4300
3264.919	4356
3266.683	4447
3268.447	4332
3270.208	4339
3271.969	4391
3273.731	4389
3275.492	4337
3277.253	4316
3279.013	4376
3280.773	4362
3282.532	4399
3284.291	4374
3286.05	4441
3287.808	4395
3289.566	4394
3291.323	4318
3293.079	4365
3294.835	4379
3296.593	4315
3298.348	4300
3300.102	4355
3301.857	4349
3303.611	4304
3305.366	4399
3307.119	4287
3308.872	4409
3310.624	4416
3312.376	4402
3314.129	4383
3315.881	4391
3317.631	4385
3319.38	4324
3321.13	4312
3322.88	4297
3324.631	4322
3326.379	4309
3328.126	4399
3329.875	4325
3331.622	4451
3333.371	4357
3335.116	4324
3336.863	4292
3338.609	4294
3340.353	4346
3342.1	4316
3343.845	4290
3345.588	4230
3347.332	4179
3349.074	4291
3350.817	4312
3352.56	4262
3354.303	4301
3356.043	4257
3357.785	4366
3359.525	4239
3361.268	4295
3363.007	4274
3364.745	4289
3366.485	4336
3368.223	4283
3369.962	4402
3371.701	4147
3373.438	4187
3375.174	4285
3376.911	4234
3378.647	4213
3380.384	4250
3382.118	4270
3383.854	4185
3385.588	4237
3387.322	4267
3389.057	4263
3390.79	4118
3392.522	4301
3394.255	4244
3395.987	4199
3397.719	4201
3399.451	4228
3401.181	4247
3402.911	4170
3404.641	4205
3406.371	4228
3408.101	4296
3409.83	4214
3411.558	4187
3413.285	4257
3415.011	4304
3416.739	4208
3418.467	4197
3420.193	4288
3421.919	4198
3423.644	4287
3425.368	4161
3427.094	4241
3428.818	4230
3430.542	4197
3432.264	4164
3433.987	4196
3435.712	4220
3437.434	4135
3439.155	4148
3440.876	4113
3442.596	4153
3444.317	4161
3446.039	4244
3447.757	4105
3449.477	4086
3451.195	4189
3452.914	4198
3454.632	4078
3456.35	4078
3458.067	3996
3459.784	4142
3461.5	4171
3463.216	4021
3464.932	4100
3466.647	4056
3468.362	4096
3470.076	4037
3471.789	4106
3473.505	4060
3475.217	4020
3476.929	4034
3478.641	4017
3480.354	4055
3482.066	4089
3483.777	4069
3485.487	4026
3487.197	4035
3488.908	4037
3490.617	4083
3492.327	4023
3494.035	4054
3495.743	4004
3497.451	4054
3499.158	4082
3500.866	4073
3502.572	3957
3504.278	4090
3505.984	4070
3507.689	3995
3509.396	4113
3511.1	3983
3512.804	3910
3514.508	4081
3516.211	3984
3517.913	4044
3519.616	4028
3521.319	3995
3523.021	3988
3524.722	3974
3526.422	3976
3528.124	3954
3529.824	3981
3531.524	4003
3533.222	3905
3534.921	3917
3536.62	3926
3538.318	3900
3540.016	3962
3541.714	3966
3543.41	3945
3545.107	3974
3546.803	3960
3548.5	3917
3550.194	3917
3551.889	3949
3553.583	3892
3555.279	3989
3556.972	3937
3558.666	3911
3560.358	3987
3562.051	3996
3563.742	3958
3565.435	3981
3567.126	3891
3568.817	3893
3570.507	3973
3572.197	3855
3573.888	3876
3575.577	3940
3577.265	3833
3578.954	3930
3580.642	3869
3582.329	3880
3584.017	3866
3585.704	3805
3587.391	3809
3589.077	3882
3590.762	3836
3592.449	3848
3594.133	3839
3595.817	3868
3597.501	3845
3599.185	3796
3600.869	3801
3602.552	3834
3604.234	3807
3605.916	3790
3607.598	3899
3609.279	3859
3610.961	3864
3612.642	3838
3614.321	3712
3616	3852
3617.68	3734
3619.36	3859
3621.039	3820
3622.716	3766
3624.394	3798
3626.071	3760
3627.748	3765
3629.425	3801
3631.102	3784
3632.778	3760
3634.452	3730
3636.127	3800
3637.803	3739
3639.477	3787
3641.151	3784
3642.823	3730
3644.497	3695
3646.171	3794
3647.842	3781
3649.515	3725
3651.185	3727
3652.857	3718
3654.527	3740
3656.198	3765
3657.868	3716
3659.537	3681
3661.207	3657
3662.875	3675
3664.544	3713
3666.212	3642
3667.879	3712
3669.546	3732
3671.212	3697
3672.88	3668
3674.546	3658
3676.211	3659
3677.875	3628
3679.541	3671
3681.205	3682
3682.87	3714
3684.533	3645
3686.196	3638
3687.859	3705
3689.521	3682
3691.184	3653
3692.845	3729
3694.507	3641
3696.167	3699
3697.827	3660
3699.487	3626
3701.148	3723
3702.808	3707
3704.466	3642
3706.125	3637
3707.783	3655
3709.442	3643
3711.099	3646
3712.757	3650
3714.412	3635
3716.068	3669
3717.725	3630
3719.381	3612
3721.036	3625
3722.689	3630
3724.344	3645
3725.998	3696
3727.652	3613
3729.305	3643
3730.958	3650
3732.61	3647
3734.262	3597
3735.915	3623
3737.565	3630
3739.217	3538
3740.866	3587
3742.516	3648
3744.165	3596
3745.816	3594
3747.464	3554
3749.113	3604
3750.761	3635
3752.409	3559
3754.057	3665
3755.703	3500
3757.35	3549
3758.996	3612
3760.641	3578
3762.289	3659
3763.933	3580
3765.577	3497
3767.222	3644
3768.865	3619
3770.508	3530
3772.152	3550
3773.796	3614
3775.438	3517
3777.079	3501
3778.721	3615
3780.363	3580
3782.003	3478
3783.643	3541
3785.283	3547
3786.923	3588
3788.563	3558
3790.203	3508
3791.841	3509
3793.479	3485
3795.115	3475
3796.753	3511
3798.391	3463
3800.027	3534
3801.664	3465
3803.299	3466
3804.935	3518
3806.571	3450
3808.206	3436
3809.839	3417
3811.473	3488
3813.107	3468
3814.74	3498
3816.375	3401
3818.006	3498
3819.638	3512
3821.27	3476
3822.9	3401
3824.532	3525
3826.163	3442
3827.792	3491
3829.423	3370
3831.051	3491
3832.682	3481
3834.311	3414
3835.938	3454
3837.566	3456
3839.193	3434
3840.821	3407
3842.448	3369
3844.075	3480
3845.7	3519
3847.325	3411
3848.951	3457
3850.576	3363
3852.201	3397
3853.825	3443
3855.448	3355
3857.072	3361
3858.694	3358
3860.318	3406
3861.939	3388
3863.562	3379
3865.183	3397
3866.804	3281
3868.426	3411
3870.045	3410
3871.666	3393
3873.285	3439
3874.904	3329
3876.524	3361
3878.142	3374
3879.76	3379
3881.378	3338
3882.995	3396
3884.612	3387
3886.229	3358
3887.845	3351
3889.461	3352
3891.076	3362
3892.691	3331
3894.307	3348
3895.922	3376
3897.536	3382
3899.149	3334
3900.761	3308
3902.374	3355
3903.988	3268
3905.6	3244
3907.212	3343
3908.822	3410
3910.433	3316
3912.045	3365
3913.655	3314
3915.265	3393
3916.875	3329
3918.483	3322
3920.093	3407
3921.702	3322
3923.309	3308
3924.917	3444
3926.523	3346
3928.13	3336
3929.739	3331
3931.344	3315
3932.95	3281
3934.555	3217
3936.159	3363
3937.766	3318
3939.369	3333
3940.974	3355
3942.577	3305
3944.181	3253
3945.783	3379
3947.386	3293
3948.989	3301
3950.59	3253
3952.191	3286
3953.791	3269
3955.394	3354
3956.994	3337
3958.593	3330
3960.192	3312
3961.791	3306
3963.392	3205
3964.99	3241
3966.588	3233
3968.185	3319
3969.782	3254
3971.379	3195
3972.976	3265
3974.572	3151
3976.168	3195
3977.763	3245
3979.358	3235
3980.954	3223
3982.548	3243
3984.142	3156
3985.736	3193
3987.329	3304
3988.922	3209
3990.516	3206
3992.108	3283
3993.698	3207
3995.29	3200
3996.881	3139
3998.473	3177
4000.064	3193
4001.653	3214
4003.242	3151
4004.832	3148
4006.422	3229
4008.01	3107
4009.598	3146
4011.186	3254
4012.773	3143
4014.36	3128
4015.947	3131
4017.534	3119
4019.119	3123
4020.705	3121
4022.291	3161
4023.876	3179
4025.461	3123
4027.044	3089
4028.627	3121
4030.211	3141
4031.795	3148
4033.378	3066
4034.96	3090
4036.542	3081
4038.124	3148
4039.704	3161
4041.286	3123
4042.867	3152
4044.447	3081
4046.026	3094
4047.606	3098
4049.187	3024
4050.765	3181
4052.343	3041
4053.92	3107
4055.498	3081
4057.076	3068
4058.654	3046
4060.23	3094
4061.806	2996
4063.381	3047
4064.957	3146
4066.533	3072
4068.107	3049
4069.682	3094
4071.256	3114
4072.829	3093
4074.404	3040
4075.977	2990
4077.549	3055
4079.121	3065
4080.693	3069
4082.265	3039
4083.836	2978
4085.407	3002
4086.977	2999
4088.547	2987
4090.117	3037
4091.687	3006
4093.256	2997
4094.825	3061
4096.392	2954
4097.96	3056
4099.528	3045
4101.097	2992
4102.663	2986
4104.229	3065
4105.795	2989
4107.361	2948
4108.928	2993
4110.493	2980
4112.058	2955
4113.621	3020
4115.186	3025
4116.75	2980
4118.313	2989
4119.876	2962
4121.438	3003
4123	3001
4124.562	2978
4126.125	2980
4127.686	2986
4129.246	2996
4130.807	2989
4132.367	2945
4133.927	2978
4135.486	2947
4137.046	2926
4138.604	2992
4140.162	2918
4141.72	2915
4143.279	2932
4144.836	2932
4146.393	2949
4147.949	2944
4149.505	2930
4151.062	3008
4152.617	2881
4154.172	2886
4155.727	2902
4157.281	2961
4158.836	2914
4160.39	2903
4161.943	2851
4163.496	2870
4165.048	2845
4166.601	2856
4168.154	2909
4169.706	2842
4171.257	2894
4172.808	2890
4174.358	2861
4175.909	2819
4177.458	2876
4179.008	2812
4180.558	2908
4182.106	2979
4183.655	2814
4185.204	2930
4186.751	2823
4188.298	2814
4189.845	2771
4191.392	2809
4192.939	2915
4194.485	2881
4196.031	2835
4197.576	2853
4199.121	2863
4200.666	2751
4202.211	2814
4203.754	2780
4205.298	2826
4206.84	2757
4208.384	2810
4209.927	2835
4211.47	2860
4213.011	2799
4214.552	2814
4216.094	2845
4217.635	2865
4219.175	2787
4220.716	2804
4222.255	2824
4223.793	2819
4225.335	2739
4226.873	2886
4228.411	2839
4229.948	2807
4231.486	2828
4233.024	2823
4234.562	2784
4236.098	2848
4237.634	2804
4239.169	2831
4240.705	2839
4242.241	2715
4243.776	2716
4245.31	2752
4246.844	2728
4248.378	2841
4249.911	2750
4251.445	2764
4252.978	2771
4254.51	2723
4256.042	2753
4257.574	2704
4259.107	2747
4260.638	2777
4262.169	2725
4263.699	2766
4265.228	2741
4266.759	2839
4268.289	2760
4269.818	2761
4271.345	2739
4272.874	2740
4274.402	2730
4275.931	2808
4277.458	2711
4278.985	2787
4280.512	2703
4282.037	2724
4283.564	2750
4285.089	2777
4286.615	2737
4288.139	2681
4289.664	2755
4291.187	2733
4292.712	2722
4294.235	2615
4295.759	2728
4297.281	2718
4298.804	2686
4300.327	2722
4301.849	2669
4303.37	2679
4304.891	2704
4306.412	2681
4307.933	2638
4309.453	2667
4310.973	2682
4312.492	2738
