398.1873	4922
400.7097	5020
403.2336	4923
405.7547	4910
408.2751	5041
410.7948	5060
413.3138	4999
415.83	5052
418.3497	5028
420.8666	5062
423.3829	5188
425.8985	5117
428.4133	5223
430.9275	5222
433.441	5288
435.9538	5273
438.4639	5225
440.9753	5311
443.4881	5331
445.9982	5205
448.5055	5338
451.0142	5337
453.5201	5347
456.0274	5274
458.5361	5211
461.04	5296
463.5453	5309
466.0478	5322
468.5517	5295
471.0549	5259
473.5574	5299
476.0572	5299
478.5584	5313
481.0568	5429
483.5545	5372
486.0557	5347
488.5521	5393
491.0478	5274
493.5449	5384
496.0392	5372
498.5349	5407
501.0299	5514
503.5222	5490
506.0139	5451
508.5048	5547
510.9991	5548
513.4887	5479
515.9777	5478
518.4659	5424
520.9534	5577
523.4403	5554
525.9306	5533
528.4161	5543
530.9009	5418
533.3851	5421
535.8687	5461
538.3535	5600
540.8356	5486
543.3171	5493
545.7979	5560
548.278	5557
550.7595	5452
553.2383	5481
555.7144	5549
558.1918	5532
560.6685	5572
563.1446	5539
565.6221	5614
568.0968	5564
570.5688	5617
573.0422	5635
575.515	5689
577.989	5652
580.4584	5815
582.9291	5695
585.3991	5647
587.8685	5774
590.3352	5694
592.8052	5779
595.2706	5697
597.7372	5636
600.2033	5651
602.6666	5717
605.1334	5676
607.5953	5739
610.0587	5700
612.5193	5731
614.9814	5648
617.4427	5644
619.9034	5538
622.3615	5607
624.8208	5657
627.2775	5651
629.7335	5713
632.1929	5741
634.6476	5624
637.1016	5651
639.5569	5702
642.0096	5721
644.4637	5703
646.9151	5708
649.3678	5666
651.8179	5809
654.2672	5907
656.7159	5686
659.166	5699
661.6154	5853
664.0622	5836
666.5082	5894
668.9537	5716
671.4005	5868
673.8445	5895
676.288	5860
678.7308	5820
681.1729	5888
683.6163	5804
686.0572	5884
688.4973	5804
690.9368	5866
693.3757	5827
695.8138	5875
698.2534	6031
700.6902	5876
703.1245	5888
705.56	5849
707.9949	5876
710.4311	5937
712.8647	5830
715.2957	6035
717.7279	6014
720.1595	5948
722.5905	6087
725.0208	6046
727.4505	6043
729.8795	5970
732.3058	6167
734.7336	6042
737.1626	6160
739.587	6179
742.0128	6187
744.4359	6196
746.8604	6215
749.2841	6229
751.7073	6204
754.1278	6226
756.5496	6297
758.9688	6317
761.3893	6350
763.8093	6210
766.2285	6182
768.6451	6344
771.0611	6289
773.4784	6434
775.895	6339
778.3091	6235
780.7244	6338
783.1371	6352
785.5493	6376
787.9626	6345
790.3754	6336
792.7856	6326
795.1951	6278
797.6039	6335
800.0121	6316
802.4236	6373
804.8306	6503
807.2369	6334
809.6425	6366
812.0475	6433
814.4538	6323
816.8575	6498
819.2606	6434
821.663	6400
824.0648	6397
826.4659	6416
828.8683	6460
831.2682	6395
833.6674	6463
836.066	6479
838.4639	6403
840.8632	6391
843.2579	6448
845.6539	6468
848.0493	6454
850.444	6476
852.84	6602
855.2315	6532
857.6243	6496
860.0165	6403
862.4081	6493
864.797	6383
867.1892	6406
869.5789	6458
871.9659	6466
874.3542	6510
876.74	6524
879.129	6489
881.5155	6388
883.8994	6430
886.2845	6616
888.6671	6494
891.051	6592
893.4343	6592
895.8169	6477
898.197	6371
900.5783	6573
902.9571	6509
905.3372	6510
907.7167	6608
910.0936	6458
912.4698	6516
914.8474	6670
917.2244	6708
919.5987	6705
921.9744	6757
924.3475	6629
926.72	6672
929.0918	6651
931.4669	6723
933.8375	6891
936.2074	6807
938.5767	6854
940.9454	6750
943.3154	6941
945.6829	7135
948.0497	7234
950.4178	7329
952.7833	7596
955.1483	7731
957.5145	7997
959.8782	8091
962.2412	8137
964.6036	7929
966.9655	7689
969.3266	7332
971.6871	7310
974.0471	7028
976.4064	6897
978.765	6886
981.125	6814
983.4824	6816
985.8373	6857
988.1935	6843
990.549	6676
992.9039	6654
995.2602	6783
997.6119	6678
999.965	6650
1002.317	6827
1004.667	6732
1007.02	6815
1009.371	6673
1011.719	6797
1014.068	6784
1016.415	6737
1018.765	6796
1021.111	6749
1023.458	6693
1025.804	6811
1028.147	6848
1030.49	6671
1032.837	6816
1035.179	6872
1037.522	6877
1039.862	6923
1042.204	6774
1044.546	6841
1046.884	6841
1049.224	7015
1051.562	6807
1053.899	6868
1056.237	6836
1058.575	6895
1060.91	6854
1063.244	6863
1065.58	7051
1067.913	6994
1070.248	7135
1072.579	6958
1074.911	7044
1077.242	7035
1079.572	6789
1081.905	7024
1084.234	6933
1086.562	6971
1088.89	6860
1091.217	6814
1093.544	6989
1095.871	6863
1098.197	6837
1100.521	6925
1102.845	6994
1105.169	7008
1107.491	6875
1109.814	6928
1112.135	6886
1114.456	6957
1116.776	6817
1119.096	6985
1121.415	6895
1123.734	6882
1126.052	6971
1128.369	6997
1130.686	6843
1133.002	6909
1135.318	6912
1137.632	7054
1139.945	7035
1142.258	6886
1144.573	6916
1146.884	7112
1149.196	6906
1151.505	6862
1153.816	6948
1156.124	6972
1158.435	7039
1160.742	7018
1163.051	6894
1165.356	6940
1167.663	6943
1169.97	6959
1172.276	6985
1174.579	6863
1176.881	6975
1179.186	6974
1181.487	6790
1183.79	6902
1186.092	7015
1188.392	6894
1190.691	6951
1192.991	6944
1195.291	6991
1197.588	7036
1199.885	6921
1202.181	6997
1204.479	7032
1206.775	7044
1209.07	6866
1211.363	6918
1213.656	6987
1215.949	7018
1218.241	6963
1220.534	6987
1222.825	7011
1225.115	7044
1227.405	7004
1229.693	7107
1231.984	6989
1234.271	7177
1236.558	7159
1238.845	7194
1241.131	7267
1243.416	7165
1245.703	7263
1247.987	7210
1250.269	7178
1252.552	7189
1254.834	7252
1257.118	7271
1259.399	7174
1261.678	7150
1263.958	7213
1266.237	7384
1268.516	7237
1270.794	7144
1273.072	7140
1275.347	7131
1277.624	6975
1279.899	7127
1282.175	7239
1284.449	7269
1286.722	7257
1288.995	7062
1291.266	7170
1293.54	7201
1295.81	7111
1298.081	7122
1300.35	7092
1302.62	7248
1304.889	7098
1307.156	7061
1309.425	7215
1311.69	7148
1313.957	7165
1316.222	7153
1318.488	7143
1320.751	7188
1323.016	7140
1325.278	7151
1327.54	7260
1329.803	7266
1332.065	7083
1334.325	7157
1336.584	7228
1338.843	7166
1341.101	7252
1343.36	7143
1345.617	7069
1347.876	7169
1350.131	7164
1352.387	7124
1354.643	7226
1356.897	7138
1359.151	7209
1361.403	7053
1363.656	7089
1365.909	7167
1368.16	7227
1370.409	7245
1372.659	7156
1374.909	7217
1377.157	7266
1379.407	7150
1381.655	7146
1383.9	7122
1386.147	7260
1388.393	7266
1390.64	7127
1392.885	7264
1395.127	7175
1397.37	7237
1399.614	7345
1401.854	7251
1404.098	7212
1406.339	7309
1408.578	7206
1410.818	7259
1413.056	7356
1415.297	7297
1417.533	7361
1419.771	7363
1422.006	7471
1424.243	7371
1426.479	7321
1428.715	7333
1430.948	7410
1433.182	7361
1435.414	7418
1437.647	7482
1439.88	7450
1442.11	7382
1444.342	7393
1446.571	7376
1448.799	7522
1451.029	7548
1453.258	7592
1455.485	7433
1457.711	7408
1459.937	7351
1462.164	7516
1464.39	7474
1466.614	7332
1468.838	7331
1471.06	7363
1473.283	7299
1475.506	7388
1477.727	7363
1479.949	7246
1482.169	7278
1484.389	7313
1486.609	7365
1488.828	7157
1491.045	7339
1493.261	7291
1495.477	7276
1497.693	7326
1499.91	7196
1502.125	7327
1504.339	7203
1506.553	7239
1508.766	7244
1510.979	7178
1513.191	7250
1515.402	7291
1517.613	7164
1519.823	7206
1522.033	7395
1524.242	7232
1526.451	7163
1528.657	7294
1530.865	7236
1533.072	7236
1535.278	7135
1537.484	7318
1539.687	7294
1541.892	7216
1544.096	7156
1546.299	7252
1548.502	7298
1550.703	7415
1552.905	7276
1555.104	7273
1557.303	7327
1559.505	7394
1561.703	7363
1563.902	7360
1566.099	7411
1568.295	7490
1570.494	7291
1572.689	7391
1574.883	7450
1577.079	7477
1579.272	7400
1581.467	7402
1583.659	7460
1585.853	7378
1588.044	7390
1590.234	7561
1592.424	7489
1594.615	7416
1596.806	7474
1598.994	7404
1601.182	7584
1603.369	7541
1605.557	7650
1607.744	7520
1609.929	7541
1612.114	7622
1614.298	7533
1616.482	7479
1618.667	7411
1620.85	7576
1623.032	7486
1625.214	7580
1627.395	7511
1629.575	7488
1631.755	7680
1633.935	7516
1636.114	7496
1638.292	7513
1640.471	7593
1642.647	7712
1644.823	7563
1647	7494
1649.175	7588
1651.348	7548
1653.525	7624
1655.698	7531
1657.87	7635
1660.043	7633
1662.213	7673
1664.387	7624
1666.558	7620
1668.727	7646
1670.896	7857
1673.064	7684
1675.233	7550
1677.401	7680
1679.569	7682
1681.735	7593
1683.902	7578
1686.066	7703
1688.233	7568
1690.397	7576
1692.559	7570
1694.723	7579
1696.885	7619
1699.048	7569
1701.21	7535
1703.37	7471
1705.53	7381
1707.689	7592
1709.849	7567
1712.009	7440
1714.166	7510
1716.323	7490
1718.479	7567
1720.634	7479
1722.793	7553
1724.948	7517
1727.102	7561
1729.255	7480
1731.408	7531
1733.562	7503
1735.714	7458
1737.865	7462
1740.016	7506
1742.166	7458
1744.316	7447
1746.467	7506
1748.616	7503
1750.764	7592
1752.911	7598
1755.056	7451
1757.205	7494
1759.35	7539
1761.496	7641
1763.641	7533
1765.785	7616
1767.927	7618
1770.072	7633
1772.214	7615
1774.355	7606
1776.496	7640
1778.637	7595
1780.778	7595
1782.918	7609
1785.057	7588
1787.194	7592
1789.333	7591
1791.472	7583
1793.608	7609
1795.745	7632
1797.879	7655
1800.015	7532
1802.148	7512
1804.284	7552
1806.417	7656
1808.548	7579
1810.682	7505
1812.812	7605
1814.946	7637
1817.075	7571
1819.205	7596
1821.335	7562
1823.463	7662
1825.59	7563
1827.721	7609
1829.847	7579
1831.973	7497
1834.098	7536
1836.223	7581
1838.351	7699
1840.475	7608
1842.598	7610
1844.721	7538
1846.843	7548
1848.966	7569
1851.087	7612
1853.21	7589
1855.33	7511
1857.449	7624
1859.568	7441
1861.688	7637
1863.806	7456
1865.924	7645
1868.039	7484
1870.155	7480
1872.273	7389
1874.388	7433
1876.503	7565
1878.617	7564
1880.73	7560
1882.844	7483
1884.956	7570
1887.068	7596
1889.18	7633
1891.291	7683
1893.4	7635
1895.511	7574
1897.621	7626
1899.73	7617
1901.837	7635
1903.944	7743
1906.053	7705
1908.159	7695
1910.265	7559
1912.369	7628
1914.474	7649
1916.577	7725
1918.683	7748
1920.785	7703
1922.888	7773
1924.989	7605
1927.091	7518
1929.193	7703
1931.294	7754
1933.393	7627
1935.493	7546
1937.59	7728
1939.689	7689
1941.788	7695
1943.884	7722
1945.98	7707
1948.077	7777
1950.171	7862
1952.267	7795
1954.361	7706
1956.455	7522
1958.548	7743
1960.64	7900
1962.733	7635
1964.824	7642
1966.915	7616
1969.005	7742
1971.096	7598
1973.185	7687
1975.275	7635
1977.363	7554
1979.45	7758
1981.537	7755
1983.623	7640
1985.711	7665
1987.796	7593
1989.881	7656
1991.965	7736
1994.047	7622
1996.132	7729
1998.215	7614
2000.297	7599
2002.378	7627
2004.46	7578
2006.54	7604
2008.62	7596
2010.7	7623
2012.779	7522
2014.858	7692
2016.934	7482
2019.013	7623
2021.09	7576
2023.165	7565
2025.241	7644
2027.317	7607
2029.39	7616
2031.466	7660
2033.538	7607
2035.612	7693
2037.683	7574
2039.755	7607
2041.827	7638
2043.898	7723
2045.968	7521
2048.038	7594
2050.106	7686
2052.177	7644
2054.244	7604
2056.313	7687
2058.379	7624
2060.444	7588
2062.511	7651
2064.577	7777
2066.641	7596
2068.705	7642
2070.77	7631
2072.832	7702
2074.896	7714
2076.958	7579
2079.02	7639
2081.081	7549
2083.141	7705
2085.2	7588
2087.261	7556
2089.319	7596
2091.377	7649
2093.435	7800
2095.492	7517
2097.552	7606
2099.607	7662
2101.663	7678
2103.718	7679
2105.771	7510
2107.826	7691
2109.879	7638
2111.932	7768
2113.985	7619
2116.037	7772
2118.088	7753
2120.141	7740
2122.191	7748
2124.239	7640
2126.288	7622
2128.337	7655
2130.387	7655
2132.434	7681
2134.481	7652
2136.528	7667
2138.574	7699
2140.618	7681
2142.665	7606
2144.71	7593
2146.753	7504
2148.797	7731
2150.838	7586
2152.883	7678
2154.923	7593
2156.965	7502
2159.007	7516
2161.046	7622
2163.086	7656
2165.126	7619
2167.163	7405
2169.202	7628
2171.239	7460
2173.277	7609
2175.314	7581
2177.349	7565
2179.385	7659
2181.42	7446
2183.453	7515
2185.49	7471
2187.522	7549
2189.555	7552
2191.586	7511
2193.619	7489
2195.651	7621
2197.682	7421
2199.711	7418
2201.74	7521
2203.769	7463
2205.799	7590
2207.828	7417
2209.855	7467
2211.882	7510
2213.908	7542
2215.934	7566
2217.961	7489
2219.986	7551
2222.01	7427
2224.034	7512
2226.057	7485
2228.08	7473
2230.104	7549
2232.124	7400
2234.145	7450
2236.166	7311
2238.186	7443
2240.207	7669
2242.227	7591
2244.244	7474
2246.262	7489
2248.28	7482
2250.299	7464
2252.314	7422
2254.33	7491
2256.346	7486
2258.36	7498
2260.375	7476
2262.391	7375
2264.403	7344
2266.416	7442
2268.427	7565
2270.44	7510
2272.453	7420
2274.463	7561
2276.474	7536
2278.483	7454
2280.493	7591
2282.501	7482
2284.51	7549
2286.518	7578
2288.524	7499
2290.532	7589
2292.537	7587
2294.544	7562
2296.55	7578
2298.554	7454
2300.557	7337
2302.562	7502
2304.566	7548
2306.568	7410
2308.569	7430
2310.572	7428
2312.573	7474
2314.573	7561
2316.574	7516
2318.573	7439
2320.571	7390
2322.571	7481
2324.569	7511
2326.567	7327
2328.564	7385
2330.56	7523
2332.556	7345
2334.551	7276
2336.546	7378
2338.542	7463
2340.535	7432
2342.529	7372
2344.521	7442
2346.512	7416
2348.505	7378
2350.497	7415
2352.487	7295
2354.478	7365
2356.468	7238
2358.457	7336
2360.446	7394
2362.434	7442
2364.422	7396
2366.408	7409
2368.395	7349
2370.383	7254
2372.369	7292
2374.353	7301
2376.338	7431
2378.321	7335
2380.307	7307
2382.29	7277
2384.272	7345
2386.254	7380
2388.235	7303
2390.218	7371
2392.198	7173
2394.179	7320
2396.157	7271
2398.137	7307
2400.115	7230
2402.095	7248
2404.072	7244
2406.048	7279
2408.026	7194
2410.001	7302
2411.977	7187
2413.953	7306
2415.927	7151
2417.9	7339
2419.875	7194
2421.847	7350
2423.821	7170
2425.792	7162
2427.763	7297
2429.736	7252
2431.706	7227
2433.677	7240
2435.646	7199
2437.615	7119
2439.583	7250
2441.551	7208
2443.519	7372
2445.486	7174
2447.452	7284
2449.418	7382
2451.383	7219
2453.348	7253
2455.314	7187
2457.278	7309
2459.241	7141
2461.205	7150
2463.167	7184
2465.131	7150
2467.091	7240
2469.052	7294
2471.012	7192
2472.972	7244
2474.932	7254
2476.891	7289
2478.85	7185
2480.808	7284
2482.766	7069
2484.722	7150
2486.68	7092
2488.636	7191
2490.591	7098
2492.546	7270
2494.5	7220
2496.456	7205
2498.41	7204
2500.362	7097
2502.315	7155
2504.266	7031
2506.218	7226
2508.169	7213
2510.121	7165
2512.07	7205
2514.019	7210
2515.968	7214
2517.918	7210
2519.866	7189
2521.813	7216
2523.76	7161
2525.707	7108
2527.653	7165
2529.599	7092
2531.543	7067
2533.489	7113
2535.433	7053
2537.376	7007
2539.32	7185
2541.264	7229
2543.205	7054
2545.147	7105
2547.087	7057
2549.029	7154
2550.969	7151
2552.908	7021
2554.847	7056
2556.786	7133
2558.724	7098
2560.663	7069
2562.6	7161
2564.537	7112
2566.473	7103
2568.408	7221
2570.345	7093
2572.28	7195
2574.214	7122
2576.148	7245
2578.081	7043
2580.014	7216
2581.947	7173
2583.879	7173
2585.81	7102
2587.741	7170
2589.67	7151
2591.602	7149
2593.532	7036
2595.461	7010
2597.388	7047
2599.316	7127
2601.244	7190
2603.172	7119
2605.098	7100
2607.023	7113
2608.949	7211
2610.873	7098
2612.8	7138
2614.723	7143
2616.647	7053
2618.569	7208
2620.493	7075
2622.416	7094
2624.338	7102
2626.258	7222
2628.179	7091
2630.099	7141
2632.019	7186
2633.939	7076
2635.857	7234
2637.775	7210
2639.694	7072
2641.61	7076
2643.528	7086
2645.444	7198
2647.361	7106
2649.276	7168
2651.19	7190
2653.105	7234
2655.019	7129
2656.934	7131
2658.846	7190
2660.758	7243
2662.67	7178
2664.583	7234
2666.493	7094
2668.404	7114
2670.313	7097
2672.223	7106
2674.134	7136
2676.042	7106
2677.95	6972
2679.858	7003
2681.765	7095
2683.673	7042
2685.579	7026
2687.483	7149
2689.389	7061
2691.294	7083
2693.198	7086
2695.104	7033
2697.006	7101
2698.909	7067
2700.811	7047
2702.713	7041
2704.615	7125
2706.516	7010
2708.417	7129
2710.316	7014
2712.216	6980
2714.115	7041
2716.014	7078
2717.913	7036
2719.81	7053
2721.707	7083
2723.603	7045
2725.501	7141
2727.396	7006
2729.292	6968
2731.186	7075
2733.081	7062
2734.976	6949
2736.87	6974
2738.762	7032
2740.653	7066
2742.546	7060
2744.437	6954
2746.329	7074
2748.22	7069
2750.11	6922
2751.999	6974
2753.889	7030
2755.778	7025
2757.666	6962
2759.553	6958
2761.44	6897
2763.328	7066
2765.215	7024
2767.101	6920
2768.986	6912
2770.87	6976
2772.754	6915
2774.638	7040
2776.523	6993
2778.405	6966
2780.288	7046
2782.17	6864
2784.051	6948
2785.934	6893
2787.814	6879
2789.694	6965
2791.574	6841
2793.453	7000
2795.332	6930
2797.212	6922
2799.088	6984
2800.966	7026
2802.843	6918
2804.719	6980
2806.597	6913
2808.471	6882
2810.346	6815
2812.221	6994
2814.094	7007
2815.969	6826
2817.843	6888
2819.714	6958
2821.587	6847
2823.459	6875
2825.329	6837
2827.202	6985
2829.072	6865
2830.942	6849
2832.811	6979
2834.68	6916
2836.549	6891
2838.418	6851
2840.284	6983
2842.152	6845
2844.018	6883
2845.885	6940
2847.751	6887
2849.616	6899
2851.482	6935
2853.345	6980
2855.208	6940
2857.074	6935
2858.937	7074
2860.799	6942
2862.66	6884
2864.522	7010
2866.385	6971
2868.245	7088
2870.104	7094
2871.964	7019
2873.824	7312
2875.683	7197
2877.542	7137
2879.4	7348
2881.257	7344
2883.114	7231
2884.97	7242
2886.827	7202
2888.683	7227
2890.537	7359
2892.392	7332
2894.246	7285
2896.1	7259
2897.954	7349
2899.807	7122
2901.66	7281
2903.51	7153
2905.362	7205
2907.214	7335
2909.065	7363
2910.915	7366
2912.765	7338
2914.613	7269
2916.463	7359
2918.311	7422
2920.158	7364
2922.006	7560
2923.853	7550
2925.698	7582
2927.546	7466
2929.392	7755
2931.236	7692
2933.081	7740
2934.924	7794
2936.77	7781
2938.613	7872
2940.455	7785
2942.298	7915
2944.139	7923
2945.982	7988
2947.823	7848
2949.662	7629
2951.503	7757
2953.342	7775
2955.182	7499
2957.021	7582
2958.858	7671
2960.697	7448
2962.534	7461
2964.37	7492
2966.207	7345
2968.044	7458
2969.879	7309
2971.714	7373
2973.548	7363
2975.383	7294
2977.218	7307
2979.051	7281
2980.883	7434
2982.715	7230
2984.547	7212
2986.379	7291
2988.21	7257
2990.04	7255
2991.87	7149
2993.7	7072
2995.53	6997
2997.359	7148
2999.187	7021
3001.015	6969
3002.842	7004
3004.669	6935
3006.497	6820
3008.323	6893
3010.148	6717
3011.974	6845
3013.797	6885
3015.623	6753
3017.447	6899
3019.27	6736
3021.094	6684
3022.915	6662
3024.737	6618
3026.56	6622
3028.38	6696
3030.201	6656
3032.022	6641
3033.84	6553
3035.662	6510
3037.481	6603
3039.298	6639
3041.117	6626
3042.933	6552
3044.752	6541
3046.568	6652
3048.385	6644
3050.2	6604
3052.016	6597
3053.83	6617
3055.646	6560
3057.46	6508
3059.272	6531
3061.086	6569
3062.898	6581
3064.711	6500
3066.524	6547
3068.335	6558
3070.145	6568
3071.956	6494
3073.766	6496
3075.576	6409
3077.385	6495
3079.193	6437
3081.002	6536
3082.81	6477
3084.618	6495
3086.425	6424
3088.231	6400
3090.036	6410
3091.842	6377
3093.648	6351
3095.452	6446
3097.257	6304
3099.06	6286
3100.863	6269
3102.666	6427
3104.47	6326
3106.272	6341
3108.073	6434
3109.875	6408
3111.676	6420
3113.477	6312
3115.277	6351
3117.077	6327
3118.874	6330
3120.673	6275
3122.473	6255
3124.271	6256
3126.066	6339
3127.863	6250
3129.66	6285
3131.456	6231
3133.252	6319
3135.047	6250
3136.842	6319
3138.635	6254
3140.429	6341
3142.223	6124
3144.016	6223
3145.808	6205
3147.6	6168
3149.392	6221
3151.183	6230
3152.975	6248
3154.765	6288
3156.553	6076
3158.344	6182
3160.132	6254
3161.922	6329
3163.71	6214
3165.497	6250
3167.285	6167
3169.071	6285
3170.858	6139
3172.645	6120
3174.429	6197
3176.214	6123
3177.998	6179
3179.783	6087
3181.568	6256
3183.351	6091
3185.133	6118
3186.915	6101
3188.698	6217
3190.481	6092
3192.261	6207
3194.042	6099
3195.822	6096
3197.601	6167
3199.381	6097
3201.161	6174
3202.939	6174
3204.717	6082
3206.495	6050
3208.272	6146
3210.05	6154
3211.826	6140
3213.602	6029
3215.376	6057
3217.151	6113
3218.927	6087
3220.702	6041
3222.476	6146
3224.249	6008
3226.021	5946
3227.793	6039
3229.567	6099
3231.339	6078
3233.109	6107
3234.88	6056
3236.651	6156
3238.421	6166
3240.191	6154
3241.96	6126
3243.728	6218
3245.497	6079
3247.263	6165
3249.033	6124
3250.799	6030
3252.566	6029
3254.331	6021
3256.097	6053
3257.863	6160
3259.628	6094
3261.392	6050
3263.156	6039
3264.919	6070
3266.683	6032
3268.447	6057
3270.208	5996
3271.969	5979
3273.731	6089
3275.492	6132
3277.253	6026
3279.013	6112
3280.773	6147
3282.532	6187
3284.291	6038
3286.05	6137
3287.808	6128
3289.566	6040
3291.323	6004
3293.079	5977
3294.835	6008
3296.593	6190
3298.348	6025
3300.102	5993
3301.857	6058
3303.611	6055
3305.366	6130
3307.119	5993
3308.872	6031
3310.624	6080
3312.376	6042
3314.129	6019
3315.881	6056
3317.631	6035
3319.38	5992
3321.13	6016
3322.88	6044
3324.631	5896
3326.379	6027
3328.126	6090
3329.875	6009
3331.622	6084
3333.371	6031
3335.116	6089
3336.863	6097
3338.609	5946
3340.353	5999
3342.1	5940
3343.845	6028
3345.588	5964
3347.332	5862
3349.074	5934
3350.817	6028
3352.56	5981
3354.303	5976
3356.043	6037
3357.785	5922
3359.525	5988
3361.268	5992
3363.007	5919
3364.745	5921
3366.485	5939
3368.223	5977
3369.962	5951
3371.701	6008
3373.438	5832
3375.174	5944
3376.911	5938
3378.647	5978
3380.384	5987
3382.118	5907
3383.854	5834
3385.588	5773
3387.322	5932
3389.057	5881
3390.79	5912
3392.522	5864
3394.255	5879
3395.987	5794
3397.719	5696
3399.451	5906
3401.181	5909
3402.911	5821
3404.641	5907
3406.371	5853
3408.101	5749
3409.83	5926
3411.558	5751
3413.285	5898
3415.011	5827
3416.739	5793
3418.467	5836
3420.193	5803
3421.919	5814
3423.644	5676
3425.368	5827
3427.094	5859
3428.818	5748
3430.542	5806
3432.264	5750
3433.987	5842
3435.712	5726
3437.434	5699
3439.155	5764
3440.876	5760
3442.596	5708
3444.317	5808
3446.039	5810
3447.757	5717
3449.477	5762
3451.195	5746
3452.914	5767
3454.632	5733
3456.35	5586
3458.067	5701
3459.784	5644
3461.5	5689
3463.216	5631
3464.932	5726
3466.647	5597
3468.362	5704
3470.076	5688
3471.789	5569
3473.505	5611
3475.217	5524
3476.929	5654
3478.641	5550
3480.354	5642
3482.066	5591
3483.777	5675
3485.487	5432
3487.197	5624
3488.908	5550
3490.617	5507
3492.327	5523
3494.035	5577
3495.743	5555
3497.451	5397
3499.158	5578
3500.866	5555
3502.572	5541
3504.278	5605
3505.984	5486
3507.689	5494
3509.396	5579
3511.1	5418
3512.804	5508
3514.508	5508
3516.211	5525
3517.913	5485
3519.616	5549
3521.319	5421
3523.021	5466
3524.722	5369
3526.422	5513
3528.124	5535
3529.824	5444
3531.524	5459
3533.222	5393
3534.921	5449
3536.62	5384
3538.318	5444
3540.016	5406
3541.714	5468
3543.41	5406
3545.107	5453
3546.803	5437
3548.5	5404
3550.194	5346
3551.889	5356
3553.583	5466
3555.279	5306
3556.972	5548
3558.666	5376
3560.358	5423
3562.051	5464
3563.742	5333
3565.435	5434
3567.126	5368
3568.817	5345
3570.507	5269
3572.197	5412
3573.888	5315
3575.577	5442
3577.265	5373
3578.954	5415
3580.642	5393
3582.329	5282
3584.017	5329
3585.704	5343
3587.391	5301
3589.077	5232
3590.762	5283
3592.449	5293
3594.133	5221
3595.817	5191
3597.501	5245
3599.185	5149
3600.869	5209
3602.552	5191
3604.234	5207
3605.916	5335
3607.598	5123
3609.279	5216
3610.961	5248
3612.642	5189
3614.321	5212
3616	5176
3617.68	5105
3619.36	5212
3621.039	5064
3622.716	5125
3624.394	5100
3626.071	5047
3627.748	5052
3629.425	5126
3631.102	5062
3632.778	5173
3634.452	5167
3636.127	5180
3637.803	5067
3639.477	5037
3641.151	5104
3642.823	5033
3644.497	5066
3646.171	5147
3647.842	5016
3649.515	5076
3651.185	5104
3652.857	5072
3654.527	5045
3656.198	5007
3657.868	5081
3659.537	5062
3661.207	4886
3662.875	4956
3664.544	5039
3666.212	5062
3667.879	5083
3669.546	4957
3671.212	5028
3672.88	4963
3674.546	4969
3676.211	4954
3677.875	4992
3679.541	4995
3681.205	5014
3682.87	5034
3684.533	4915
3686.196	4958
3687.859	4994
3689.521	5071
3691.184	5008
3692.845	4946
3694.507	4923
3696.167	5045
3697.827	4892
3699.487	4987
3701.148	4991
3702.808	5005
3704.466	4820
3706.125	4891
3707.783	4971
3709.442	4981
3711.099	5039
3712.757	5081
3714.412	4957
3716.068	4876
3717.725	4889
3719.381	4976
3721.036	4950
3722.689	4805
3724.344	4946
3725.998	4887
3727.652	4947
3729.305	4911
3730.958	4840
3732.61	4819
3734.262	4882
3735.915	4851
3737.565	4860
3739.217	4919
3740.866	4905
3742.516	4909
3744.165	4878
3745.816	4944
3747.464	4903
3749.113	4913
3750.761	4867
3752.409	4822
3754.057	4950
3755.703	4760
3757.35	4891
3758.996	4849
3760.641	4837
3762.289	4844
3763.933	4725
3765.577	4791
3767.222	4804
3768.865	4824
3770.508	4769
3772.152	4795
3773.796	4671
3775.438	4753
3777.079	4751
3778.721	4696
3780.363	4687
3782.003	4773
3783.643	4817
3785.283	4676
3786.923	4729
3788.563	4779
3790.203	4769
3791.841	4770
3793.479	4710
3795.115	4676
3796.753	4672
3798.391	4659
3800.027	4776
3801.664	4800
3803.299	4681
3804.935	4673
3806.571	4564
3808.206	4680
3809.839	4673
3811.473	4667
3813.107	4730
3814.74	4641
3816.375	4685
3818.006	4713
3819.638	4628
3821.27	4648
3822.9	4747
3824.532	4544
3826.163	4753
3827.792	4695
3829.423	4645
3831.051	4654
3832.682	4550
3834.311	4656
3835.938	4623
3837.566	4609
3839.193	4604
3840.821	4514
3842.448	4536
3844.075	4605
3845.7	4521
3847.325	4565
3848.951	4588
3850.576	4568
3852.201	4595
3853.825	4596
3855.448	4644
3857.072	4578
3858.694	4641
3860.318	4550
3861.939	4537
3863.562	4512
3865.183	4501
3866.804	4557
3868.426	4628
3870.045	4526
3871.666	4516
3873.285	4615
3874.904	4449
3876.524	4497
3878.142	4511
3879.76	4540
3881.378	4545
3882.995	4447
3884.612	4555
3886.229	4481
3887.845	4463
3889.461	4533
3891.076	4519
3892.691	4450
3894.307	4472
3895.922	4558
3897.536	4576
3899.149	4433
3900.761	4470
3902.374	4444
3903.988	4522
3905.6	4445
3907.212	4458
3908.822	4481
3910.433	4569
3912.045	4390
3913.655	4482
3915.265	4503
3916.875	4475
3918.483	4434
3920.093	4445
3921.702	4456
3923.309	4419
3924.917	4358
3926.523	4465
3928.13	4341
3929.739	4445
3931.344	4452
3932.95	4403
3934.555	4446
3936.159	4407
3937.766	4385
3939.369	4309
3940.974	4324
3942.577	4360
3944.181	4367
3945.783	4433
3947.386	4412
3948.989	4331
3950.59	4425
3952.191	4328
3953.791	4293
3955.394	4364
3956.994	4345
3958.593	4293
3960.192	4336
3961.791	4402
3963.392	4452
3964.99	4330
3966.588	4360
3968.185	4389
3969.782	4343
3971.379	4306
3972.976	4327
3974.572	4280
3976.168	4350
3977.763	4276
3979.358	4307
3980.954	4283
3982.548	4303
3984.142	4252
3985.736	4277
3987.329	4297
3988.922	4226
3990.516	4292
3992.108	4296
3993.698	4196
3995.29	4281
3996.881	4262
3998.473	4265
4000.064	4271
4001.653	4240
4003.242	4230
4004.832	4182
4006.422	4234
4008.01	4198
4009.598	4193
4011.186	4155
4012.773	4157
4014.36	4141
4015.947	4243
4017.534	4232
4019.119	4205
4020.705	4117
4022.291	4164
4023.876	4230
4025.461	4143
4027.044	4149
4028.627	4211
4030.211	4235
4031.795	4026
4033.378	4141
4034.96	4114
4036.542	4048
4038.124	4140
4039.704	4081
4041.286	4070
4042.867	4119
4044.447	4153
4046.026	4044
4047.606	4074
4049.187	4127
4050.765	4131
4052.343	4051
4053.92	4122
4055.498	4075
4057.076	4045
4058.654	4106
4060.23	4091
4061.806	4029
4063.381	4092
4064.957	4042
4066.533	4084
4068.107	4070
4069.682	4108
4071.256	4067
4072.829	4024
4074.404	4014
4075.977	3974
4077.549	4060
4079.121	4000
4080.693	4101
4082.265	4044
4083.836	4091
4085.407	3967
4086.977	3995
4088.547	4091
4090.117	3996
4091.687	4054
4093.256	4026
4094.825	3992
4096.392	3993
4097.96	4038
4099.528	4043
4101.097	3952
4102.663	4010
4104.229	4023
4105.795	3956
4107.361	4003
4108.928	4015
4110.493	3971
4112.058	3924
4113.621	3984
4115.186	3939
4116.75	4015
4118.313	3973
4119.876	3975
4121.438	4028
4123	4006
4124.562	3931
4126.125	3889
4127.686	3898
4129.246	3906
4130.807	3962
4132.367	3855
4133.927	3889
4135.486	3879
4137.046	3866
4138.604	3918
4140.162	3888
4141.72	3908
4143.279	3808
4144.836	3819
4146.393	3896
4147.949	3854
4149.505	3848
4151.062	3764
4152.617	3914
4154.172	3809
4155.727	3856
4157.281	3849
4158.836	3868
4160.39	3765
4161.943	3789
4163.496	3857
4165.048	3812
4166.601	3726
4168.154	3821
4169.706	3841
4171.257	3763
4172.808	3799
4174.358	3845
4175.909	3885
4177.458	3815
4179.008	3811
4180.558	3809
4182.106	3778
4183.655	3786
4185.204	3731
4186.751	3708
4188.298	3746
4189.845	3763
4191.392	3799
4192.939	3757
4194.485	3705
4196.031	3749
4197.576	3719
4199.121	3739
4200.666	3690
4202.211	3663
4203.754	3738
4205.298	3655
4206.84	3708
4208.384	3642
4209.927	3669
4211.47	3607
4213.011	3727
4214.552	3671
4216.094	3675
4217.635	3734
4219.175	3675
4220.716	3635
4222.255	3691
4223.793	3694
4225.335	3666
4226.873	3647
4228.411	3695
4229.948	3677
4231.486	3621
4233.024	3656
4234.562	3661
4236.098	3699
4237.634	3622
4239.169	3707
4240.705	3660
4242.241	3719
4243.776	3660
4245.31	3633
4246.844	3624
4248.378	3654
4249.911	3596
4251.445	3684
4252.978	3649
4254.51	3611
4256.042	3614
4257.574	3666
4259.107	3592
4260.638	3635
4262.169	3624
4263.699	3645
4265.228	3603
4266.759	3623
4268.289	3614
4269.818	3635
4271.345	3651
4272.874	3622
4274.402	3624
4275.931	3653
4277.458	3578
4278.985	3474
4280.512	3614
4282.037	3576
4283.564	3549
4285.089	3578
4286.615	3519
4288.139	3572
4289.664	3505
4291.187	3502
4292.712	3540
4294.235	3520
4295.759	3461
4297.281	3531
4298.804	3567
4300.327	3579
4301.849	3486
4303.37	3546
4304.891	3504
4306.412	3572
4307.933	3439
4309.453	3513
4310.973	3463
4312.492	3486
