398.1873	2688
400.7097	2683
403.2336	2759
405.7547	2701
408.2751	2717
410.7948	2745
413.3138	2793
415.83	2794
418.3497	2819
420.8666	2792
423.3829	2800
425.8985	2839
428.4133	2919
430.9275	2866
433.441	2817
435.9538	2840
438.4639	2862
440.9753	2828
443.4881	2875
445.9982	2843
448.5055	2875
451.0142	2839
453.5201	2890
456.0274	2840
458.5361	2846
461.04	2915
463.5453	2827
466.0478	2902
468.5517	2927
471.0549	2902
473.5574	2856
476.0572	2909
478.5584	2871
481.0568	2922
483.5545	2908
486.0557	2891
488.5521	2925
491.0478	2903
493.5449	2909
496.0392	2997
498.5349	2912
501.0299	2932
503.5222	3011
506.0139	2933
508.5048	3005
510.9991	2929
513.4887	2994
515.9777	3021
518.4659	2951
520.9534	3001
523.4403	2982
525.9306	2919
528.4161	2990
530.9009	3005
533.3851	2984
535.8687	2991
538.3535	3020
540.8356	2951
543.3171	3003
545.7979	3007
548.278	2998
550.7595	3113
553.2383	3019
555.7144	3018
558.1918	2940
560.6685	3055
563.1446	3066
565.6221	3049
568.0968	3050
570.5688	3038
573.0422	3038
575.515	3101
577.989	3099
580.4584	3131
582.9291	3041
585.3991	3003
587.8685	3093
590.3352	3087
592.8052	3133
595.2706	3217
597.7372	3073
600.2033	3065
602.6666	3071
605.1334	3026
607.5953	3057
610.0587	3032
612.5193	3138
614.9814	3116
617.4427	3134
619.9034	3041
622.3615	3066
624.8208	3057
627.2775	3073
629.7335	3035
632.1929	3004
634.6476	3087
637.1016	3056
639.5569	3072
642.0096	3119
644.4637	3077
646.9151	3094
649.3678	3135
651.8179	3066
654.2672	3088
656.7159	3160
659.166	3108
661.6154	3146
664.0622	3105
666.5082	3184
668.9537	3089
671.4005	3198
673.8445	3130
676.288	3128
678.7308	3200
681.1729	3165
683.6163	3241
686.0572	3161
688.4973	3165
690.9368	3225
693.3757	3214
695.8138	3170
698.2534	3183
700.6902	3132
703.1245	3260
705.56	3170
707.9949	3203
710.4311	3220
712.8647	3215
715.2957	3275
717.7279	3283
720.1595	3214
722.5905	3206
725.0208	3256
727.4505	3235
729.8795	3320
732.3058	3220
734.7336	3274
737.1626	3274
739.587	3243
742.0128	3356
744.4359	3309
746.8604	3379
749.2841	3343
751.7073	3339
754.1278	3368
756.5496	3372
758.9688	3363
761.3893	3366
763.8093	3360
766.2285	3411
768.6451	3435
771.0611	3353
773.4784	3315
775.895	3368
778.3091	3408
780.7244	3410
783.1371	3357
785.5493	3474
787.9626	3350
790.3754	3367
792.7856	3288
795.1951	3350
797.6039	3389
800.0121	3374
802.4236	3404
804.8306	3391
807.2369	3377
809.6425	3426
812.0475	3409
814.4538	3469
816.8575	3403
819.2606	3427
821.663	3434
824.0648	3392
826.4659	3458
828.8683	3456
831.2682	3477
833.6674	3463
836.066	3435
838.4639	3441
840.8632	3460
843.2579	3491
845.6539	3481
848.0493	3530
850.444	3470
852.84	3485
855.2315	3519
857.6243	3415
860.0165	3467
862.4081	3481
864.797	3459
867.1892	3519
869.5789	3541
871.9659	3439
874.3542	3483
876.74	3493
879.129	3432
881.5155	3486
883.8994	3572
886.2845	3425
888.6671	3472
891.051	3471
893.4343	3513
895.8169	3507
898.197	3457
900.5783	3446
902.9571	3528
905.3372	3432
907.7167	3627
910.0936	3488
912.4698	3478
914.8474	3472
917.2244	3524
919.5987	3571
921.9744	3597
924.3475	3531
926.72	3494
929.0918	3684
931.4669	3665
933.8375	3608
936.2074	3655
938.5767	3766
940.9454	3661
943.3154	3745
945.6829	3721
948.0497	3789
950.4178	3769
952.7833	3932
955.1483	4102
957.5145	4074
959.8782	4183
962.2412	4216
964.6036	4081
966.9655	4058
969.3266	3884
971.6871	3864
974.0471	3721
976.4064	3723
978.765	3593
981.125	3704
983.4824	3685
985.8373	3598
988.1935	3623
990.549	3550
992.9039	3572
995.2602	3613
997.6119	3626
999.965	3695
1002.317	3662
1004.667	3543
1007.02	3564
1009.371	3637
1011.719	3584
1014.068	3738
1016.415	3618
1018.765	3610
1021.111	3563
1023.458	3748
1025.804	3561
1028.147	3736
1030.49	3662
1032.837	3645
1035.179	3646
1037.522	3710
1039.862	3689
1042.204	3655
1044.546	3700
1046.884	3653
1049.224	3697
1051.562	3685
1053.899	3664
1056.237	3661
1058.575	3742
1060.91	3650
1063.244	3660
1065.58	3774
1067.913	3758
1070.248	3768
1072.579	3704
1074.911	3765
1077.242	3793
1079.572	3775
1081.905	3763
1084.234	3745
1086.562	3675
1088.89	3675
1091.217	3630
1093.544	3676
1095.871	3751
1098.197	3717
1100.521	3646
1102.845	3768
1105.169	3652
1107.491	3724
1109.814	3697
1112.135	3660
1114.456	3718
1116.776	3724
1119.096	3749
1121.415	3755
1123.734	3756
1126.052	3804
1128.369	3708
1130.686	3731
1133.002	3756
1135.318	3805
1137.632	3665
1139.945	3760
1142.258	3771
1144.573	3740
1146.884	3754
1149.196	3794
1151.505	3773
1153.816	3674
1156.124	3786
1158.435	3772
1160.742	3726
1163.051	3742
1165.356	3725
1167.663	3799
1169.97	3751
1172.276	3784
1174.579	3778
1176.881	3694
1179.186	3768
1181.487	3797
1183.79	3781
1186.092	3773
1188.392	3691
1190.691	3779
1192.991	3818
1195.291	3741
1197.588	3767
1199.885	3815
1202.181	3711
1204.479	3741
1206.775	3834
1209.07	3796
1211.363	3741
1213.656	3725
1215.949	3818
1218.241	3832
1220.534	3756
1222.825	3887
1225.115	3841
1227.405	3844
1229.693	3923
1231.984	3787
1234.271	3709
1236.558	3824
1238.845	3871
1241.131	3874
1243.416	3928
1245.703	3960
1247.987	3941
1250.269	3925
1252.552	3879
1254.834	3851
1257.118	3873
1259.399	3877
1261.678	3847
1263.958	3866
1266.237	3913
1268.516	3932
1270.794	3852
1273.072	3890
1275.347	3864
1277.624	3848
1279.899	3957
1282.175	3913
1284.449	3853
1286.722	3882
1288.995	3787
1291.266	3851
1293.54	3855
1295.81	3932
1298.081	3879
1300.35	3905
1302.62	3858
1304.889	3811
1307.156	3844
1309.425	3848
1311.69	3890
1313.957	3854
1316.222	3843
1318.488	3908
1320.751	3846
1323.016	3816
1325.278	3883
1327.54	3918
1329.803	3848
1332.065	3889
1334.325	3821
1336.584	3870
1338.843	3868
1341.101	3863
1343.36	3884
1345.617	3782
1347.876	3851
1350.131	3876
1352.387	3892
1354.643	3907
1356.897	3878
1359.151	3885
1361.403	3919
1363.656	3806
1365.909	3911
1368.16	3817
1370.409	3937
1372.659	3921
1374.909	3938
1377.157	3903
1379.407	3907
1381.655	3965
1383.9	3958
1386.147	3867
1388.393	4043
1390.64	3880
1392.885	4041
1395.127	3962
1397.37	4000
1399.614	3933
1401.854	4020
1404.098	3926
1406.339	4000
1408.578	4000
1410.818	3928
1413.056	3997
1415.297	3962
1417.533	3913
1419.771	3975
1422.006	3978
1424.243	4098
1426.479	3933
1428.715	4048
1430.948	3951
1433.182	4020
1435.414	4084
1437.647	4076
1439.88	3998
1442.11	3957
1444.342	3999
1446.571	3992
1448.799	4111
1451.029	4025
1453.258	4037
1455.485	4086
1457.711	4081
1459.937	4085
1462.164	4006
1464.39	4105
1466.614	4064
1468.838	4035
1471.06	4024
1473.283	4074
1475.506	3974
1477.727	3922
1479.949	3979
1482.169	3980
1484.389	4053
1486.609	3969
1488.828	3921
1491.045	4076
1493.261	3926
1495.477	3941
1497.693	3944
1499.91	3902
1502.125	4016
1504.339	3923
1506.553	3935
1508.766	3861
1510.979	4035
1513.191	3935
1515.402	3982
1517.613	3972
1519.823	4037
1522.033	4023
1524.242	4001
1526.451	4042
1528.657	3986
1530.865	3927
1533.072	3930
1535.278	3973
1537.484	3925
1539.687	3973
1541.892	3981
1544.096	3984
1546.299	3937
1548.502	3917
1550.703	4030
1552.905	3985
1555.104	4004
1557.303	4057
1559.505	4030
1561.703	3895
1563.902	4016
1566.099	4072
1568.295	3997
1570.494	3970
1572.689	4107
1574.883	4164
1577.079	4008
1579.272	4028
1581.467	4086
1583.659	4092
1585.853	4033
1588.044	4170
1590.234	4038
1592.424	4039
1594.615	4118
1596.806	4027
1598.994	4078
1601.182	4121
1603.369	4104
1605.557	4070
1607.744	4130
1609.929	4144
1612.114	4150
1614.298	4086
1616.482	4215
1618.667	4183
1620.85	4161
1623.032	4224
1625.214	4171
1627.395	4089
1629.575	4188
1631.755	4223
1633.935	4165
1636.114	4100
1638.292	4088
1640.471	4172
1642.647	4028
1644.823	4263
1647	4141
1649.175	4152
1651.348	4130
1653.525	4149
1655.698	4134
1657.87	4148
1660.043	4139
1662.213	4156
1664.387	4171
1666.558	4202
1668.727	4221
1670.896	4168
1673.064	4120
1675.233	4164
1677.401	4254
1679.569	4179
1681.735	4118
1683.902	4188
1686.066	4116
1688.233	4151
1690.397	4136
1692.559	4215
1694.723	4180
1696.885	4272
1699.048	4072
1701.21	4250
1703.37	4135
1705.53	4081
1707.689	4211
1709.849	4163
1712.009	4096
1714.166	4179
1716.323	4146
1718.479	4085
1720.634	4217
1722.793	4217
1724.948	4176
1727.102	4107
1729.255	4057
1731.408	4208
1733.562	4170
1735.714	4146
1737.865	4135
1740.016	4168
1742.166	4149
1744.316	4147
1746.467	4168
1748.616	4037
1750.764	4124
1752.911	4175
1755.056	4153
1757.205	4205
1759.35	4247
1761.496	4125
1763.641	4187
1765.785	4174
1767.927	4210
1770.072	4256
1772.214	4121
1774.355	4200
1776.496	4167
1778.637	4220
1780.778	4223
1782.918	4231
1785.057	4214
1787.194	4161
1789.333	4244
1791.472	4261
1793.608	4113
1795.745	4282
1797.879	4209
1800.015	4271
1802.148	4300
1804.284	4208
1806.417	4125
1808.548	4216
1810.682	4228
1812.812	4263
1814.946	4227
1817.075	4298
1819.205	4173
1821.335	4266
1823.463	4222
1825.59	4163
1827.721	4243
1829.847	4283
1831.973	4154
1834.098	4193
1836.223	4137
1838.351	4133
1840.475	4126
1842.598	4144
1844.721	4271
1846.843	4214
1848.966	4165
1851.087	4283
1853.21	4088
1855.33	4222
1857.449	4176
1859.568	4148
1861.688	4182
1863.806	4260
1865.924	4171
1868.039	4131
1870.155	4242
1872.273	4210
1874.388	4184
1876.503	4262
1878.617	4249
1880.73	4218
1882.844	4190
1884.956	4232
1887.068	4188
1889.18	4307
1891.291	4348
1893.4	4203
1895.511	4316
1897.621	4301
1899.73	4275
1901.837	4296
1903.944	4386
1906.053	4310
1908.159	4206
1910.265	4317
1912.369	4260
1914.474	4348
1916.577	4196
1918.683	4315
1920.785	4253
1922.888	4250
1924.989	4335
1927.091	4305
1929.193	4273
1931.294	4252
1933.393	4239
1935.493	4220
1937.59	4248
1939.689	4276
1941.788	4239
1943.884	4306
1945.98	4291
1948.077	4235
1950.171	4338
1952.267	4296
1954.361	4200
1956.455	4295
1958.548	4357
1960.64	4239
1962.733	4326
1964.824	4343
1966.915	4251
1969.005	4242
1971.096	4404
1973.185	4225
1975.275	4333
1977.363	4291
1979.45	4354
1981.537	4289
1983.623	4290
1985.711	4273
1987.796	4339
1989.881	4338
1991.965	4272
1994.047	4266
1996.132	4274
1998.215	4250
2000.297	4261
2002.378	4323
2004.46	4278
2006.54	4240
2008.62	4252
2010.7	4283
2012.779	4254
2014.858	4275
2016.934	4195
2019.013	4234
2021.09	4251
2023.165	4308
2025.241	4228
2027.317	4212
2029.39	4294
2031.466	4276
2033.538	4200
2035.612	4310
2037.683	4276
2039.755	4263
2041.827	4345
2043.898	4268
2045.968	4217
2048.038	4272
2050.106	4163
2052.177	4244
2054.244	4278
2056.313	4301
2058.379	4267
2060.444	4321
2062.511	4365
2064.577	4255
2066.641	4217
2068.705	4303
2070.77	4288
2072.832	4326
2074.896	4228
2076.958	4356
2079.02	4301
2081.081	4277
2083.141	4281
2085.2	4363
2087.261	4381
2089.319	4246
2091.377	4329
2093.435	4384
2095.492	4355
2097.552	4361
2099.607	4393
2101.663	4289
2103.718	4325
2105.771	4286
2107.826	4312
2109.879	4316
2111.932	4364
2113.985	4297
2116.037	4332
2118.088	4259
2120.141	4289
2122.191	4288
2124.239	4390
2126.288	4243
2128.337	4369
2130.387	4321
2132.434	4369
2134.481	4305
2136.528	4314
2138.574	4333
2140.618	4399
2142.665	4289
2144.71	4410
2146.753	4237
2148.797	4360
2150.838	4285
2152.883	4225
2154.923	4314
2156.965	4307
2159.007	4253
2161.046	4302
2163.086	4269
2165.126	4262
2167.163	4310
2169.202	4332
2171.239	4298
2173.277	4431
2175.314	4319
2177.349	4312
2179.385	4295
2181.42	4242
2183.453	4287
2185.49	4143
2187.522	4207
2189.555	4257
2191.586	4253
2193.619	4168
2195.651	4282
2197.682	4320
2199.711	4224
2201.74	4214
2203.769	4288
2205.799	4188
2207.828	4182
2209.855	4246
2211.882	4129
2213.908	4308
2215.934	4201
2217.961	4220
2219.986	4312
2222.01	4264
2224.034	4188
2226.057	4317
2228.08	4294
2230.104	4192
2232.124	4315
2234.145	4242
2236.166	4226
2238.186	4266
2240.207	4299
2242.227	4207
2244.244	4293
2246.262	4254
2248.28	4266
2250.299	4235
2252.314	4196
2254.33	4331
2256.346	4379
2258.36	4323
2260.375	4277
2262.391	4214
2264.403	4243
2266.416	4283
2268.427	4188
2270.44	4325
2272.453	4238
2274.463	4226
2276.474	4195
2278.483	4130
2280.493	4274
2282.501	4208
2284.51	4145
2286.518	4222
2288.524	4262
2290.532	4321
2292.537	4231
2294.544	4182
2296.55	4317
2298.554	4199
2300.557	4302
2302.562	4335
2304.566	4188
2306.568	4227
2308.569	4307
2310.572	4240
2312.573	4248
2314.573	4240
2316.574	4232
2318.573	4199
2320.571	4194
2322.571	4213
2324.569	4264
2326.567	4170
2328.564	4224
2330.56	4181
2332.556	4246
2334.551	4236
2336.546	4135
2338.542	4140
2340.535	4268
2342.529	4145
2344.521	4230
2346.512	4244
2348.505	4203
2350.497	4207
2352.487	4150
2354.478	4151
2356.468	4247
2358.457	4204
2360.446	4226
2362.434	4196
2364.422	4208
2366.408	4233
2368.395	4192
2370.383	4237
2372.369	4211
2374.353	4188
2376.338	4172
2378.321	4183
2380.307	4215
2382.29	4105
2384.272	4189
2386.254	4094
2388.235	4195
2390.218	4159
2392.198	4160
2394.179	4125
2396.157	4167
2398.137	4123
2400.115	4088
2402.095	4185
2404.072	4164
2406.048	4203
2408.026	4117
2410.001	4205
2411.977	4167
2413.953	4184
2415.927	4183
2417.9	4292
2419.875	4192
2421.847	4204
2423.821	4188
2425.792	4179
2427.763	4258
2429.736	4139
2431.706	4174
2433.677	4146
2435.646	4098
2437.615	4168
2439.583	4123
2441.551	4192
2443.519	4237
2445.486	4173
2447.452	4158
2449.418	4175
2451.383	4174
2453.348	4236
2455.314	4105
2457.278	4127
2459.241	4111
2461.205	4170
2463.167	4207
2465.131	4154
2467.091	4163
2469.052	4105
2471.012	4137
2472.972	4177
2474.932	4241
2476.891	4216
2478.85	4196
2480.808	4224
2482.766	4095
2484.722	4139
2486.68	4170
2488.636	4231
2490.591	4117
2492.546	4197
2494.5	4112
2496.456	4165
2498.41	4149
2500.362	4096
2502.315	4178
2504.266	4153
2506.218	4175
2508.169	4134
2510.121	4145
2512.07	4135
2514.019	4042
2515.968	4182
2517.918	4128
2519.866	4182
2521.813	4200
2523.76	4067
2525.707	4177
2527.653	4077
2529.599	4127
2531.543	4202
2533.489	4091
2535.433	4104
2537.376	4088
2539.32	4239
2541.264	4139
2543.205	4154
2545.147	4149
2547.087	4093
2549.029	4169
2550.969	4070
2552.908	4140
2554.847	4125
2556.786	4143
2558.724	4146
2560.663	4088
2562.6	4171
2564.537	4133
2566.473	4050
2568.408	4134
2570.345	4128
2572.28	4185
2574.214	4092
2576.148	4097
2578.081	4077
2580.014	4137
2581.947	4081
2583.879	4149
2585.81	4138
2587.741	4210
2589.67	4070
2591.602	4091
2593.532	4090
2595.461	4188
2597.388	4125
2599.316	4072
2601.244	4138
2603.172	4272
2605.098	4100
2607.023	4188
2608.949	4157
2610.873	4180
2612.8	4165
2614.723	4112
2616.647	4202
2618.569	4160
2620.493	4260
2622.416	4152
2624.338	4139
2626.258	4091
2628.179	4168
2630.099	4168
2632.019	4112
2633.939	4185
2635.857	4173
2637.775	4160
2639.694	4155
2641.61	4235
2643.528	4222
2645.444	4184
2647.361	4185
2649.276	4156
2651.19	4188
2653.105	4166
2655.019	4080
2656.934	4163
2658.846	4180
2660.758	4104
2662.67	4096
2664.583	4164
2666.493	4082
2668.404	4167
2670.313	4085
2672.223	4273
2674.134	4165
2676.042	4182
2677.95	4152
2679.858	4112
2681.765	4127
2683.673	4132
2685.579	4146
2687.483	4110
2689.389	4116
2691.294	4092
2693.198	4107
2695.104	4057
2697.006	4130
2698.909	4123
2700.811	4108
2702.713	4177
2704.615	4178
2706.516	4093
2708.417	4138
2710.316	4199
2712.216	4021
2714.115	4118
2716.014	4066
2717.913	4100
2719.81	4103
2721.707	4044
2723.603	4202
2725.501	4098
2727.396	4154
2729.292	4165
2731.186	4125
2733.081	4081
2734.976	4036
2736.87	4223
2738.762	4098
2740.653	4037
2742.546	4069
2744.437	4084
2746.329	4141
2748.22	4048
2750.11	4007
2751.999	4135
2753.889	4167
2755.778	4097
2757.666	4167
2759.553	4130
2761.44	4121
2763.328	4049
2765.215	4183
2767.101	4057
2768.986	4181
2770.87	4154
2772.754	4099
2774.638	4172
2776.523	4034
2778.405	4178
2780.288	4091
2782.17	4155
2784.051	4047
2785.934	4097
2787.814	4026
2789.694	4117
2791.574	4057
2793.453	4150
2795.332	4098
2797.212	4214
2799.088	4056
2800.966	4034
2802.843	4076
2804.719	4078
2806.597	4087
2808.471	4082
2810.346	4037
2812.221	4072
2814.094	4082
2815.969	3976
2817.843	3961
2819.714	3986
2821.587	4124
2823.459	4104
2825.329	4104
2827.202	4084
2829.072	4166
2830.942	4115
2832.811	4009
2834.68	4110
2836.549	4019
2838.418	3997
2840.284	3974
2842.152	4114
2844.018	4034
2845.885	4118
2847.751	4041
2849.616	4075
2851.482	4005
2853.345	4057
2855.208	4095
2857.074	4055
2858.937	4082
2860.799	4105
2862.66	4174
2864.522	4152
2866.385	4139
2868.245	4094
2870.104	4263
2871.964	4128
2873.824	4142
2875.683	4155
2877.542	4141
2879.4	4235
2881.257	4241
2883.114	4276
2884.97	4310
2886.827	4225
2888.683	4344
2890.537	4240
2892.392	4247
2894.246	4248
2896.1	4160
2897.954	4246
2899.807	4220
2901.66	4308
2903.51	4153
2905.362	4322
2907.214	4266
2909.065	4118
2910.915	4223
2912.765	4251
2914.613	4162
2916.463	4377
2918.311	4243
2920.158	4312
2922.006	4359
2923.853	4278
2925.698	4355
2927.546	4392
2929.392	4386
2931.236	4457
2933.081	4434
2934.924	4431
2936.77	4445
2938.613	4398
2940.455	4469
2942.298	4562
2944.139	4497
2945.982	4362
2947.823	4473
2949.662	4424
2951.503	4469
2953.342	4489
2955.182	4433
2957.021	4441
2958.858	4391
2960.697	4317
2962.534	4341
2964.37	4416
2966.207	4373
2968.044	4219
2969.879	4262
2971.714	4384
2973.548	4312
2975.383	4251
2977.218	4186
2979.051	4170
2980.883	4145
2982.715	4230
2984.547	4180
2986.379	4248
2988.21	4196
2990.04	4124
2991.87	4235
2993.7	4073
2995.53	4118
2997.359	4135
2999.187	4087
3001.015	4044
3002.842	3983
3004.669	4089
3006.497	3968
3008.323	4073
3010.148	4096
3011.974	3996
3013.797	4086
3015.623	3964
3017.447	3953
3019.27	4027
3021.094	3944
3022.915	3956
3024.737	4038
3026.56	4008
3028.38	4018
3030.201	3965
3032.022	4027
3033.84	3890
3035.662	3956
3037.481	3924
3039.298	3928
3041.117	3926
3042.933	3947
3044.752	3951
3046.568	3991
3048.385	3947
3050.2	3887
3052.016	3924
3053.83	3906
3055.646	3943
3057.46	3864
3059.272	3967
3061.086	3854
3062.898	3933
3064.711	3818
3066.524	3885
3068.335	3859
3070.145	3867
3071.956	3911
3073.766	3794
3075.576	3935
3077.385	3857
3079.193	3897
3081.002	3951
3082.81	3806
3084.618	3854
3086.425	3940
3088.231	3898
3090.036	3822
3091.842	3915
3093.648	3853
3095.452	3776
3097.257	3812
3099.06	3778
3100.863	3873
3102.666	3782
3104.47	3830
3106.272	3827
3108.073	3870
3109.875	3751
3111.676	3835
3113.477	3821
3115.277	3863
3117.077	3763
3118.874	3765
3120.673	3794
3122.473	3728
3124.271	3802
3126.066	3779
3127.863	3795
3129.66	3779
3131.456	3743
3133.252	3811
3135.047	3726
3136.842	3814
3138.635	3820
3140.429	3773
3142.223	3788
3144.016	3785
3145.808	3738
3147.6	3731
3149.392	3786
3151.183	3750
3152.975	3783
3154.765	3744
3156.553	3690
3158.344	3753
3160.132	3699
3161.922	3776
3163.71	3728
3165.497	3764
3167.285	3729
3169.071	3661
3170.858	3731
3172.645	3770
3174.429	3757
3176.214	3659
3177.998	3694
3179.783	3679
3181.568	3680
3183.351	3724
3185.133	3782
3186.915	3687
3188.698	3701
3190.481	3731
3192.261	3677
3194.042	3728
3195.822	3667
3197.601	3759
3199.381	3705
3201.161	3784
3202.939	3689
3204.717	3711
3206.495	3717
3208.272	3682
3210.05	3681
3211.826	3658
3213.602	3626
3215.376	3743
3217.151	3677
3218.927	3664
3220.702	3686
3222.476	3716
3224.249	3699
3226.021	3665
3227.793	3683
3229.567	3661
3231.339	3679
3233.109	3619
3234.88	3615
3236.651	3653
3238.421	3637
3240.191	3708
3241.96	3629
3243.728	3631
3245.497	3676
3247.263	3703
3249.033	3672
3250.799	3625
3252.566	3643
3254.331	3673
3256.097	3689
3257.863	3669
3259.628	3615
3261.392	3629
3263.156	3686
3264.919	3694
3266.683	3654
3268.447	3614
3270.208	3644
3271.969	3623
3273.731	3682
3275.492	3669
3277.253	3647
3279.013	3642
3280.773	3653
3282.532	3622
3284.291	3612
3286.05	3672
3287.808	3642
3289.566	3700
3291.323	3705
3293.079	3644
3294.835	3709
3296.593	3682
3298.348	3666
3300.102	3673
3301.857	3640
3303.611	3643
3305.366	3648
3307.119	3688
3308.872	3642
3310.624	3656
3312.376	3632
3314.129	3608
3315.881	3646
3317.631	3617
3319.38	3699
3321.13	3656
3322.88	3662
3324.631	3679
3326.379	3657
3328.126	3600
3329.875	3663
3331.622	3546
3333.371	3658
3335.116	3605
3336.863	3625
3338.609	3729
3340.353	3694
3342.1	3596
3343.845	3688
3345.588	3638
3347.332	3642
3349.074	3688
3350.817	3563
3352.56	3626
3354.303	3559
3356.043	3655
3357.785	3578
3359.525	3659
3361.268	3625
3363.007	3635
3364.745	3573
3366.485	3602
3368.223	3657
3369.962	3599
3371.701	3567
3373.438	3600
3375.174	3574
3376.911	3605
3378.647	3594
3380.384	3571
3382.118	3582
3383.854	3551
3385.588	3610
3387.322	3565
3389.057	3521
3390.79	3666
3392.522	3586
3394.255	3526
3395.987	3646
3397.719	3579
3399.451	3530
3401.181	3570
3402.911	3558
3404.641	3580
3406.371	3553
3408.101	3525
3409.83	3609
3411.558	3519
3413.285	3595
3415.011	3467
3416.739	3625
3418.467	3627
3420.193	3565
3421.919	3499
3423.644	3532
3425.368	3555
3427.094	3501
3428.818	3580
3430.542	3474
3432.264	3487
3433.987	3513
3435.712	3555
3437.434	3498
3439.155	3498
3440.876	3471
3442.596	3449
3444.317	3486
3446.039	3473
3447.757	3493
3449.477	3531
3451.195	3534
3452.914	3519
3454.632	3453
3456.35	3466
3458.067	3488
3459.784	3516
3461.5	3472
3463.216	3419
3464.932	3423
3466.647	3430
3468.362	3552
3470.076	3493
3471.789	3466
3473.505	3390
3475.217	3457
3476.929	3460
3478.641	3427
3480.354	3382
3482.066	3386
3483.777	3526
3485.487	3442
3487.197	3430
3488.908	3458
3490.617	3429
3492.327	3432
3494.035	3418
3495.743	3356
3497.451	3424
3499.158	3428
3500.866	3362
3502.572	3381
3504.278	3446
3505.984	3371
3507.689	3399
3509.396	3488
3511.1	3374
3512.804	3427
3514.508	3364
3516.211	3436
3517.913	3326
3519.616	3387
3521.319	3389
3523.021	3293
3524.722	3309
3526.422	3399
3528.124	3404
3529.824	3380
3531.524	3349
3533.222	3384
3534.921	3354
3536.62	3382
3538.318	3371
3540.016	3316
3541.714	3333
3543.41	3346
3545.107	3363
3546.803	3349
3548.5	3354
3550.194	3325
3551.889	3330
3553.583	3303
3555.279	3360
3556.972	3369
3558.666	3261
3560.358	3341
3562.051	3365
3563.742	3325
3565.435	3338
3567.126	3457
3568.817	3324
3570.507	3348
3572.197	3400
3573.888	3245
3575.577	3306
3577.265	3317
3578.954	3291
3580.642	3316
3582.329	3295
3584.017	3288
3585.704	3412
3587.391	3243
3589.077	3272
3590.762	3290
3592.449	3271
3594.133	3294
3595.817	3286
3597.501	3287
3599.185	3179
3600.869	3202
3602.552	3251
3604.234	3241
3605.916	3291
3607.598	3219
3609.279	3260
3610.961	3274
3612.642	3285
3614.321	3319
3616	3280
3617.68	3173
3619.36	3224
3621.039	3261
3622.716	3233
3624.394	3171
3626.071	3191
3627.748	3273
3629.425	3280
3631.102	3187
3632.778	3288
3634.452	3202
3636.127	3234
3637.803	3129
3639.477	3191
3641.151	3235
3642.823	3227
3644.497	3204
3646.171	3176
3647.842	3143
3649.515	3214
3651.185	3146
3652.857	3184
3654.527	3178
3656.198	3189
3657.868	3112
3659.537	3090
3661.207	3124
3662.875	3200
3664.544	3167
3666.212	3143
3667.879	3173
3669.546	3169
3671.212	3125
3672.88	3137
3674.546	3103
3676.211	3127
3677.875	3163
3679.541	3225
3681.205	3218
3682.87	3175
3684.533	3127
3686.196	3147
3687.859	3101
3689.521	3099
3691.184	3115
3692.845	3140
3694.507	3134
3696.167	3136
3697.827	3137
3699.487	3053
3701.148	3069
3702.808	3138
3704.466	3044
3706.125	3104
3707.783	3118
3709.442	3117
3711.099	3075
3712.757	3141
3714.412	3101
3716.068	3134
3717.725	3157
3719.381	3104
3721.036	3152
3722.689	3129
3724.344	3083
3725.998	3128
3727.652	3104
3729.305	3081
3730.958	3062
3732.61	3149
3734.262	3138
3735.915	3079
3737.565	3142
3739.217	3069
3740.866	3127
3742.516	3130
3744.165	3157
3745.816	3053
3747.464	3082
3749.113	3119
3750.761	3020
3752.409	3090
3754.057	3117
3755.703	3046
3757.35	3113
3758.996	3100
3760.641	3060
3762.289	3050
3763.933	3057
3765.577	3114
3767.222	3068
3768.865	3043
3770.508	3080
3772.152	3016
3773.796	3013
3775.438	3020
3777.079	2999
3778.721	3048
3780.363	3054
3782.003	3015
3783.643	3047
3785.283	2974
3786.923	2931
3788.563	3029
3790.203	3029
3791.841	3020
3793.479	3002
3795.115	3050
3796.753	3026
3798.391	3039
3800.027	2947
3801.664	3010
3803.299	3026
3804.935	3057
3806.571	2957
3808.206	3071
3809.839	3016
3811.473	3052
3813.107	2984
3814.74	2939
3816.375	2969
3818.006	2927
3819.638	2903
3821.27	2984
3822.9	2953
3824.532	2924
3826.163	2991
3827.792	3028
3829.423	2942
3831.051	2963
3832.682	2886
3834.311	3013
3835.938	2970
3837.566	2946
3839.193	2926
3840.821	3004
3842.448	2923
3844.075	2939
3845.7	2879
3847.325	2921
3848.951	2905
3850.576	2963
3852.201	2917
3853.825	2959
3855.448	2905
3857.072	2970
3858.694	2916
3860.318	2873
3861.939	2931
3863.562	2831
3865.183	2904
3866.804	2926
3868.426	2906
3870.045	2975
3871.666	2896
3873.285	2914
3874.904	2933
3876.524	2943
3878.142	2851
3879.76	2971
3881.378	2909
3882.995	2863
3884.612	2916
3886.229	2847
3887.845	2883
3889.461	2913
3891.076	2895
3892.691	2927
3894.307	2870
3895.922	2894
3897.536	2840
3899.149	2882
3900.761	2917
3902.374	2848
3903.988	2920
3905.6	2896
3907.212	2858
3908.822	2869
3910.433	2877
3912.045	2898
3913.655	2892
3915.265	2831
3916.875	2872
3918.483	2904
3920.093	2892
3921.702	2771
3923.309	2884
3924.917	2926
3926.523	2858
3928.13	2889
3929.739	2903
3931.344	2853
3932.95	2888
3934.555	2847
3936.159	2866
3937.766	2916
3939.369	2837
3940.974	2871
3942.577	2757
3944.181	2881
3945.783	2839
3947.386	2834
3948.989	2865
3950.59	2832
3952.191	2837
3953.791	2791
3955.394	2824
3956.994	2824
3958.593	2835
3960.192	2896
3961.791	2850
3963.392	2818
3964.99	2836
3966.588	2821
3968.185	2856
3969.782	2828
3971.379	2794
3972.976	2841
3974.572	2824
3976.168	2826
3977.763	2827
3979.358	2763
3980.954	2785
3982.548	2744
3984.142	2782
3985.736	2788
3987.329	2768
3988.922	2746
3990.516	2697
3992.108	2757
3993.698	2790
3995.29	2733
3996.881	2731
3998.473	2820
4000.064	2686
4001.653	2731
4003.242	2743
4004.832	2771
4006.422	2676
4008.01	2776
4009.598	2781
4011.186	2753
4012.773	2765
4014.36	2760
4015.947	2683
4017.534	2691
4019.119	2663
4020.705	2734
4022.291	2703
4023.876	2749
4025.461	2726
4027.044	2747
4028.627	2730
4030.211	2690
4031.795	2678
4033.378	2637
4034.96	2718
4036.542	2698
4038.124	2720
4039.704	2709
4041.286	2686
4042.867	2706
4044.447	2685
4046.026	2679
4047.606	2690
4049.187	2586
4050.765	2690
4052.343	2702
4053.92	2668
4055.498	2679
4057.076	2674
4058.654	2644
4060.23	2702
4061.806	2668
4063.381	2664
4064.957	2607
4066.533	2683
4068.107	2637
4069.682	2650
4071.256	2626
4072.829	2617
4074.404	2625
4075.977	2628
4077.549	2684
4079.121	2641
4080.693	2613
4082.265	2711
4083.836	2656
4085.407	2618
4086.977	2680
4088.547	2601
4090.117	2581
4091.687	2578
4093.256	2606
4094.825	2567
4096.392	2612
4097.96	2668
4099.528	2644
4101.097	2576
4102.663	2611
4104.229	2675
4105.795	2618
4107.361	2533
4108.928	2650
4110.493	2618
4112.058	2660
4113.621	2602
4115.186	2547
4116.75	2605
4118.313	2627
4119.876	2559
4121.438	2604
4123	2585
4124.562	2591
4126.125	2579
4127.686	2584
4129.246	2570
4130.807	2593
4132.367	2597
4133.927	2561
4135.486	2541
4137.046	2544
4138.604	2525
4140.162	2576
4141.72	2493
4143.279	2580
4144.836	2583
4146.393	2554
4147.949	2529
4149.505	2500
4151.062	2503
4152.617	2571
4154.172	2518
4155.727	2547
4157.281	2627
4158.836	2529
4160.39	2486
4161.943	2521
4163.496	2518
4165.048	2571
4166.601	2560
4168.154	2476
4169.706	2481
4171.257	2522
4172.808	2489
4174.358	2468
4175.909	2436
4177.458	2455
4179.008	2503
4180.558	2463
4182.106	2465
4183.655	2488
4185.204	2453
4186.751	2490
4188.298	2502
4189.845	2470
4191.392	2478
4192.939	2483
4194.485	2467
4196.031	2497
4197.576	2469
4199.121	2401
4200.666	2485
4202.211	2461
4203.754	2419
4205.298	2412
4206.84	2442
4208.384	2461
4209.927	2412
4211.47	2381
4213.011	2473
4214.552	2450
4216.094	2383
4217.635	2406
4219.175	2501
4220.716	2427
4222.255	2478
4223.793	2406
4225.335	2427
4226.873	2430
4228.411	2467
4229.948	2461
4231.486	2415
4233.024	2492
4234.562	2363
4236.098	2416
4237.634	2419
4239.169	2394
4240.705	2432
4242.241	2435
4243.776	2391
4245.31	2387
4246.844	2408
4248.378	2455
4249.911	2410
4251.445	2392
4252.978	2429
4254.51	2424
4256.042	2494
4257.574	2478
4259.107	2422
4260.638	2417
4262.169	2357
4263.699	2385
4265.228	2442
4266.759	2403
4268.289	2395
4269.818	2442
4271.345	2413
4272.874	2377
4274.402	2415
4275.931	2427
4277.458	2369
4278.985	2357
4280.512	2387
4282.037	2361
4283.564	2387
4285.089	2365
4286.615	2383
4288.139	2365
4289.664	2410
4291.187	2366
4292.712	2427
4294.235	2365
4295.759	2334
4297.281	2393
4298.804	2311
4300.327	2336
4301.849	2348
4303.37	2317
4304.891	2360
4306.412	2334
4307.933	2353
4309.453	2420
4310.973	2389
4312.492	2337
