398.1873	3762
400.7097	3771
403.2336	3758
405.7547	3772
408.2751	3781
410.7948	3776
413.3138	3756
415.83	3953
418.3497	3853
420.8666	3984
423.3829	3849
425.8985	3965
428.4133	3968
430.9275	4016
433.441	3941
435.9538	3931
438.4639	4047
440.9753	4028
443.4881	3956
445.9982	4013
448.5055	3990
451.0142	3915
453.5201	3909
456.0274	4063
458.5361	3974
461.04	4069
463.5453	3899
466.0478	4069
468.5517	4000
471.0549	3976
473.5574	3970
476.0572	4039
478.5584	3987
481.0568	4037
483.5545	4111
486.0557	4081
488.5521	4079
491.0478	3992
493.5449	4050
496.0392	4140
498.5349	4113
501.0299	4070
503.5222	4192
506.0139	4114
508.5048	4197
510.9991	4109
513.4887	4164
515.9777	4204
518.4659	4139
520.9534	4047
523.4403	4060
525.9306	4186
528.4161	4142
530.9009	4264
533.3851	3998
535.8687	4170
538.3535	4102
540.8356	4160
543.3171	4017
545.7979	4110
548.278	4128
550.7595	4127
553.2383	4162
555.7144	4101
558.1918	4195
560.6685	4210
563.1446	4134
565.6221	4184
568.0968	4184
570.5688	4125
573.0422	4346
575.515	4315
577.989	4233
580.4584	4253
582.9291	4282
585.3991	4300
587.8685	4323
590.3352	4385
592.8052	4197
595.2706	4419
597.7372	4264
600.2033	4329
602.6666	4208
605.1334	4324
607.5953	4296
610.0587	4261
612.5193	4223
614.9814	4357
617.4427	4297
619.9034	4327
622.3615	4272
624.8208	4218
627.2775	4218
629.7335	4353
632.1929	4165
634.6476	4228
637.1016	4240
639.5569	4332
642.0096	4272
644.4637	4243
646.9151	4301
649.3678	4380
651.8179	4356
654.2672	4329
656.7159	4377
659.166	4387
661.6154	4412
664.0622	4463
666.5082	4397
668.9537	4374
671.4005	4437
673.8445	4324
676.288	4400
678.7308	4444
681.1729	4336
683.6163	4426
686.0572	4417
688.4973	4430
690.9368	4432
693.3757	4400
695.8138	4547
698.2534	4448
700.6902	4407
703.1245	4417
705.56	4416
707.9949	4461
710.4311	4536
712.8647	4494
715.2957	4480
717.7279	4521
720.1595	4557
722.5905	4466
725.0208	4562
727.4505	4551
729.8795	4558
732.3058	4615
734.7336	4525
737.1626	4556
739.587	4621
742.0128	4672
744.4359	4685
746.8604	4560
749.2841	4687
751.7073	4698
754.1278	4669
756.5496	4674
758.9688	4742
761.3893	4661
763.8093	4802
766.2285	4753
768.6451	4753
771.0611	4770
773.4784	4717
775.895	4706
778.3091	4702
780.7244	4730
783.1371	4704
785.5493	4753
787.9626	4748
790.3754	4705
792.7856	4655
795.1951	4894
797.6039	4729
800.0121	4794
802.4236	4691
804.8306	4783
807.2369	4737
809.6425	4711
812.0475	4717
814.4538	4798
816.8575	4805
819.2606	4896
821.663	4715
824.0648	4828
826.4659	4809
828.8683	4729
831.2682	4839
833.6674	4771
836.066	4775
838.4639	4797
840.8632	4803
843.2579	4807
845.6539	4924
848.0493	4805
850.444	4780
852.84	4866
855.2315	4968
857.6243	4862
860.0165	4912
862.4081	4772
864.797	4828
867.1892	4808
869.5789	4805
871.9659	4817
874.3542	4835
876.74	4805
879.129	4866
881.5155	4857
883.8994	4821
886.2845	4853
888.6671	4821
891.051	4856
893.4343	4862
895.8169	4850
898.197	4871
900.5783	4876
902.9571	4840
905.3372	4898
907.7167	4885
910.0936	4909
912.4698	4988
914.8474	4959
917.2244	4996
919.5987	4999
921.9744	5101
924.3475	5048
926.72	5086
929.0918	5084
931.4669	5036
933.8375	5058
936.2074	5041
938.5767	5076
940.9454	5091
943.3154	5212
945.6829	5248
948.0497	5351
950.4178	5390
952.7833	5547
955.1483	5645
957.5145	5843
959.8782	5934
962.2412	5886
964.6036	5752
966.9655	5686
969.3266	5365
971.6871	5475
974.0471	5156
976.4064	5166
978.765	4997
981.125	5096
983.4824	4926
985.8373	5109
988.1935	4965
990.549	5006
992.9039	5035
995.2602	5068
997.6119	5105
999.965	5068
1002.317	5013
1004.667	5055
1007.02	5105
1009.371	5124
1011.719	5004
1014.068	5052
1016.415	5171
1018.765	5058
1021.111	5029
1023.458	5127
1025.804	5029
1028.147	5038
1030.49	5043
1032.837	5222
1035.179	5328
1037.522	5127
1039.862	5157
1042.204	5038
1044.546	5160
1046.884	5083
1049.224	5122
1051.562	5215
1053.899	5124
1056.237	5176
1058.575	5235
1060.91	5213
1063.244	5182
1065.58	5135
1067.913	5299
1070.248	5272
1072.579	5261
1074.911	5213
1077.242	5266
1079.572	5238
1081.905	5157
1084.234	5121
1086.562	5155
1088.89	5142
1091.217	5228
1093.544	5254
1095.871	5140
1098.197	5139
1100.521	5274
1102.845	5275
1105.169	5163
1107.491	5155
1109.814	5125
1112.135	5228
1114.456	5213
1116.776	5316
1119.096	5295
1121.415	5286
1123.734	5180
1126.052	5270
1128.369	5222
1130.686	5203
1133.002	5239
1135.318	5199
1137.632	5334
1139.945	5192
1142.258	5280
1144.573	5295
1146.884	5245
1149.196	5248
1151.505	5338
1153.816	5253
1156.124	5258
1158.435	5342
1160.742	5308
1163.051	5243
1165.356	5318
1167.663	5157
1169.97	5178
1172.276	5263
1174.579	5142
1176.881	5216
1179.186	5224
1181.487	5299
1183.79	5226
1186.092	5230
1188.392	5250
1190.691	5240
1192.991	5265
1195.291	5076
1197.588	5276
1199.885	5221
1202.181	5230
1204.479	5252
1206.775	5152
1209.07	5195
1211.363	5264
1213.656	5216
1215.949	5221
1218.241	5311
1220.534	5201
1222.825	5271
1225.115	5442
1227.405	5331
1229.693	5310
1231.984	5343
1234.271	5248
1236.558	5408
1238.845	5412
1241.131	5414
1243.416	5434
1245.703	5407
1247.987	5387
1250.269	5493
1252.552	5407
1254.834	5464
1257.118	5386
1259.399	5405
1261.678	5395
1263.958	5330
1266.237	5372
1268.516	5353
1270.794	5494
1273.072	5452
1275.347	5367
1277.624	5456
1279.899	5496
1282.175	5437
1284.449	5434
1286.722	5379
1288.995	5369
1291.266	5335
1293.54	5480
1295.81	5391
1298.081	5311
1300.35	5393
1302.62	5298
1304.889	5455
1307.156	5403
1309.425	5408
1311.69	5288
1313.957	5331
1316.222	5409
1318.488	5383
1320.751	5320
1323.016	5451
1325.278	5307
1327.54	5340
1329.803	5477
1332.065	5446
1334.325	5410
1336.584	5397
1338.843	5485
1341.101	5474
1343.36	5378
1345.617	5469
1347.876	5399
1350.131	5469
1352.387	5361
1354.643	5499
1356.897	5527
1359.151	5357
1361.403	5414
1363.656	5381
1365.909	5527
1368.16	5379
1370.409	5349
1372.659	5469
1374.909	5432
1377.157	5426
1379.407	5491
1381.655	5421
1383.9	5511
1386.147	5426
1388.393	5497
1390.64	5481
1392.885	5452
1395.127	5436
1397.37	5507
1399.614	5588
1401.854	5429
1404.098	5437
1406.339	5510
1408.578	5494
1410.818	5578
1413.056	5554
1415.297	5471
1417.533	5558
1419.771	5552
1422.006	5572
1424.243	5549
1426.479	5573
1428.715	5544
1430.948	5516
1433.182	5697
1435.414	5750
1437.647	5579
1439.88	5616
1442.11	5619
1444.342	5707
1446.571	5567
1448.799	5633
1451.029	5596
1453.258	5622
1455.485	5668
1457.711	5685
1459.937	5582
1462.164	5621
1464.39	5652
1466.614	5517
1468.838	5564
1471.06	5542
1473.283	5658
1475.506	5578
1477.727	5669
1479.949	5607
1482.169	5440
1484.389	5532
1486.609	5499
1488.828	5483
1491.045	5449
1493.261	5566
1495.477	5501
1497.693	5606
1499.91	5445
1502.125	5358
1504.339	5479
1506.553	5381
1508.766	5483
1510.979	5440
1513.191	5465
1515.402	5422
1517.613	5429
1519.823	5440
1522.033	5592
1524.242	5463
1526.451	5476
1528.657	5523
1530.865	5521
1533.072	5514
1535.278	5522
1537.484	5590
1539.687	5434
1541.892	5493
1544.096	5498
1546.299	5533
1548.502	5571
1550.703	5600
1552.905	5549
1555.104	5606
1557.303	5537
1559.505	5557
1561.703	5486
1563.902	5628
1566.099	5530
1568.295	5691
1570.494	5714
1572.689	5614
1574.883	5685
1577.079	5698
1579.272	5725
1581.467	5663
1583.659	5600
1585.853	5749
1588.044	5740
1590.234	5655
1592.424	5768
1594.615	5583
1596.806	5704
1598.994	5700
1601.182	5597
1603.369	5758
1605.557	5736
1607.744	5711
1609.929	5731
1612.114	5791
1614.298	5752
1616.482	5747
1618.667	5682
1620.85	5631
1623.032	5810
1625.214	5640
1627.395	5700
1629.575	5780
1631.755	5796
1633.935	5839
1636.114	5914
1638.292	5733
1640.471	5659
1642.647	5719
1644.823	5709
1647	5806
1649.175	5813
1651.348	5706
1653.525	5692
1655.698	5818
1657.87	5795
1660.043	5797
1662.213	5736
1664.387	5860
1666.558	5834
1668.727	5767
1670.896	5800
1673.064	5763
1675.233	5778
1677.401	5813
1679.569	5781
1681.735	5747
1683.902	5777
1686.066	5685
1688.233	5772
1690.397	5719
1692.559	5815
1694.723	5854
1696.885	5755
1699.048	5732
1701.21	5734
1703.37	5780
1705.53	5866
1707.689	5707
1709.849	5758
1712.009	5772
1714.166	5780
1716.323	5764
1718.479	5702
1720.634	5807
1722.793	5691
1724.948	5600
1727.102	5811
1729.255	5787
1731.408	5723
1733.562	5751
1735.714	5723
1737.865	5797
1740.016	5674
1742.166	5759
1744.316	5734
1746.467	5747
1748.616	5820
1750.764	5817
1752.911	5754
1755.056	5801
1757.205	5708
1759.35	5918
1761.496	5804
1763.641	5827
1765.785	5823
1767.927	5850
1770.072	5860
1772.214	5793
1774.355	5829
1776.496	5878
1778.637	5940
1780.778	5857
1782.918	5737
1785.057	5866
1787.194	5858
1789.333	5885
1791.472	5773
1793.608	5793
1795.745	5894
1797.879	5860
1800.015	5806
1802.148	5875
1804.284	5842
1806.417	5821
1808.548	5856
1810.682	5835
1812.812	5888
1814.946	5806
1817.075	5890
1819.205	5790
1821.335	5776
1823.463	5835
1825.59	5882
1827.721	5780
1829.847	5878
1831.973	5757
1834.098	5786
1836.223	5820
1838.351	5892
1840.475	5826
1842.598	5778
1844.721	5686
1846.843	5754
1848.966	5748
1851.087	5867
1853.21	5785
1855.33	5777
1857.449	5767
1859.568	5853
1861.688	5871
1863.806	5828
1865.924	5749
1868.039	5794
1870.155	5783
1872.273	5818
1874.388	5823
1876.503	5820
1878.617	5788
1880.73	5947
1882.844	5853
1884.956	5758
1887.068	5733
1889.18	5828
1891.291	5816
1893.4	5842
1895.511	5896
1897.621	5838
1899.73	5899
1901.837	5779
1903.944	5790
1906.053	5959
1908.159	5897
1910.265	5883
1912.369	5895
1914.474	5844
1916.577	5898
1918.683	5951
1920.785	5933
1922.888	5964
1924.989	5995
1927.091	5918
1929.193	5898
1931.294	5912
1933.393	5832
1935.493	5932
1937.59	5843
1939.689	6086
1941.788	6055
1943.884	6073
1945.98	6008
1948.077	5902
1950.171	5974
1952.267	5921
1954.361	5887
1956.455	5883
1958.548	5987
1960.64	5992
1962.733	5981
1964.824	5970
1966.915	5932
1969.005	5926
1971.096	6032
1973.185	6037
1975.275	5907
1977.363	5925
1979.45	5900
1981.537	5906
1983.623	5977
1985.711	5968
1987.796	5986
1989.881	5947
1991.965	5926
1994.047	5925
1996.132	5964
1998.215	5870
2000.297	5892
2002.378	5885
2004.46	5966
2006.54	5801
2008.62	5933
2010.7	5938
2012.779	5958
2014.858	5894
2016.934	5836
2019.013	5814
2021.09	5870
2023.165	5942
2025.241	5859
2027.317	5970
2029.39	5854
2031.466	5864
2033.538	5852
2035.612	5875
2037.683	5903
2039.755	5959
2041.827	5855
2043.898	5943
2045.968	5885
2048.038	5945
2050.106	5790
2052.177	5840
2054.244	5856
2056.313	5919
2058.379	5858
2060.444	6062
2062.511	5903
2064.577	5840
2066.641	5922
2068.705	5914
2070.77	5922
2072.832	5988
2074.896	5873
2076.958	5861
2079.02	5847
2081.081	5937
2083.141	5922
2085.2	5878
2087.261	5902
2089.319	5944
2091.377	5933
2093.435	6018
2095.492	6071
2097.552	6026
2099.607	5866
2101.663	5941
2103.718	5913
2105.771	5860
2107.826	6001
2109.879	5863
2111.932	5920
2113.985	5942
2116.037	6029
2118.088	5959
2120.141	5977
2122.191	6011
2124.239	5948
2126.288	6010
2128.337	5918
2130.387	5909
2132.434	5993
2134.481	5978
2136.528	6015
2138.574	5943
2140.618	5965
2142.665	5903
2144.71	5932
2146.753	5970
2148.797	5904
2150.838	5944
2152.883	5968
2154.923	5982
2156.965	5855
2159.007	5972
2161.046	5907
2163.086	5857
2165.126	5891
2167.163	5942
2169.202	5895
2171.239	5869
2173.277	5963
2175.314	5961
2177.349	5868
2179.385	6002
2181.42	5938
2183.453	5772
2185.49	5861
2187.522	5996
2189.555	5917
2191.586	5939
2193.619	5776
2195.651	5933
2197.682	6045
2199.711	5870
2201.74	5893
2203.769	5893
2205.799	5875
2207.828	5900
2209.855	5897
2211.882	5755
2213.908	5732
2215.934	5848
2217.961	5808
2219.986	5817
2222.01	5878
2224.034	5824
2226.057	5902
2228.08	5751
2230.104	5849
2232.124	5940
2234.145	5847
2236.166	5840
2238.186	5928
2240.207	5843
2242.227	5832
2244.244	5832
2246.262	5884
2248.28	5855
2250.299	5819
2252.314	5827
2254.33	5916
2256.346	5853
2258.36	5866
2260.375	5953
2262.391	5840
2264.403	5879
2266.416	5815
2268.427	5808
2270.44	5905
2272.453	5833
2274.463	5903
2276.474	5837
2278.483	5899
2280.493	5861
2282.501	5792
2284.51	5794
2286.518	5909
2288.524	5848
2290.532	5837
2292.537	5859
2294.544	5885
2296.55	5902
2298.554	5842
2300.557	5874
2302.562	5861
2304.566	5754
2306.568	5857
2308.569	5762
2310.572	5810
2312.573	5862
2314.573	5914
2316.574	5905
2318.573	5892
2320.571	5859
2322.571	5865
2324.569	5886
2326.567	5880
2328.564	5797
2330.56	5835
2332.556	5816
2334.551	5689
2336.546	5803
2338.542	5830
2340.535	5803
2342.529	5802
2344.521	5732
2346.512	5782
2348.505	5790
2350.497	5711
2352.487	5804
2354.478	5844
2356.468	5683
2358.457	5936
2360.446	5706
2362.434	5844
2364.422	5828
2366.408	5799
2368.395	5826
2370.383	5802
2372.369	5765
2374.353	5791
2376.338	5809
2378.321	5801
2380.307	5783
2382.29	5810
2384.272	5728
2386.254	5756
2388.235	5734
2390.218	5819
2392.198	5757
2394.179	5615
2396.157	5662
2398.137	5791
2400.115	5687
2402.095	5641
2404.072	5761
2406.048	5624
2408.026	5564
2410.001	5688
2411.977	5736
2413.953	5786
2415.927	5773
2417.9	5793
2419.875	5632
2421.847	5689
2423.821	5792
2425.792	5703
2427.763	5817
2429.736	5838
2431.706	5730
2433.677	5732
2435.646	5684
2437.615	5752
2439.583	5733
2441.551	5788
2443.519	5784
2445.486	5844
2447.452	5720
2449.418	5763
2451.383	5684
2453.348	5743
2455.314	5610
2457.278	5736
2459.241	5673
2461.205	5757
2463.167	5723
2465.131	5702
2467.091	5703
2469.052	5717
2471.012	5706
2472.972	5685
2474.932	5701
2476.891	5777
2478.85	5684
2480.808	5643
2482.766	5699
2484.722	5579
2486.68	5764
2488.636	5686
2490.591	5738
2492.546	5607
2494.5	5709
2496.456	5634
2498.41	5814
2500.362	5718
2502.315	5603
2504.266	5682
2506.218	5683
2508.169	5664
2510.121	5739
2512.07	5629
2514.019	5632
2515.968	5660
2517.918	5731
2519.866	5669
2521.813	5643
2523.76	5687
2525.707	5629
2527.653	5573
2529.599	5637
2531.543	5619
2533.489	5600
2535.433	5624
2537.376	5587
2539.32	5673
2541.264	5636
2543.205	5542
2545.147	5641
2547.087	5535
2549.029	5742
2550.969	5747
2552.908	5654
2554.847	5621
2556.786	5581
2558.724	5678
2560.663	5677
2562.6	5643
2564.537	5682
2566.473	5684
2568.408	5646
2570.345	5698
2572.28	5655
2574.214	5723
2576.148	5613
2578.081	5643
2580.014	5580
2581.947	5678
2583.879	5727
2585.81	5622
2587.741	5770
2589.67	5699
2591.602	5768
2593.532	5632
2595.461	5529
2597.388	5705
2599.316	5713
2601.244	5673
2603.172	5639
2605.098	5742
2607.023	5627
2608.949	5624
2610.873	5667
2612.8	5812
2614.723	5787
2616.647	5756
2618.569	5720
2620.493	5700
2622.416	5576
2624.338	5635
2626.258	5594
2628.179	5790
2630.099	5710
2632.019	5796
2633.939	5678
2635.857	5773
2637.775	5770
2639.694	5690
2641.61	5658
2643.528	5680
2645.444	5713
2647.361	5669
2649.276	5667
2651.19	5684
2653.105	5625
2655.019	5765
2656.934	5692
2658.846	5726
2660.758	5687
2662.67	5671
2664.583	5758
2666.493	5699
2668.404	5740
2670.313	5662
2672.223	5667
2674.134	5726
2676.042	5790
2677.95	5652
2679.858	5597
2681.765	5711
2683.673	5600
2685.579	5647
2687.483	5693
2689.389	5702
2691.294	5611
2693.198	5671
2695.104	5657
2697.006	5666
2698.909	5602
2700.811	5556
2702.713	5662
2704.615	5600
2706.516	5704
2708.417	5618
2710.316	5659
2712.216	5534
2714.115	5655
2716.014	5506
2717.913	5606
2719.81	5561
2721.707	5584
2723.603	5683
2725.501	5615
2727.396	5657
2729.292	5606
2731.186	5653
2733.081	5624
2734.976	5580
2736.87	5641
2738.762	5576
2740.653	5469
2742.546	5464
2744.437	5547
2746.329	5654
2748.22	5536
2750.11	5649
2751.999	5563
2753.889	5598
2755.778	5531
2757.666	5585
2759.553	5608
2761.44	5541
2763.328	5580
2765.215	5669
2767.101	5688
2768.986	5531
2770.87	5650
2772.754	5606
2774.638	5648
2776.523	5548
2778.405	5579
2780.288	5623
2782.17	5587
2784.051	5574
2785.934	5527
2787.814	5531
2789.694	5618
2791.574	5487
2793.453	5617
2795.332	5663
2797.212	5488
2799.088	5518
2800.966	5535
2802.843	5437
2804.719	5604
2806.597	5599
2808.471	5519
2810.346	5548
2812.221	5548
2814.094	5671
2815.969	5596
2817.843	5411
2819.714	5612
2821.587	5600
2823.459	5587
2825.329	5632
2827.202	5617
2829.072	5524
2830.942	5465
2832.811	5535
2834.68	5564
2836.549	5545
2838.418	5421
2840.284	5558
2842.152	5560
2844.018	5569
2845.885	5523
2847.751	5523
2849.616	5574
2851.482	5532
2853.345	5487
2855.208	5551
2857.074	5544
2858.937	5514
2860.799	5506
2862.66	5617
2864.522	5646
2866.385	5561
2868.245	5688
2870.104	5659
2871.964	5718
2873.824	5731
2875.683	5577
2877.542	5719
2879.4	5736
2881.257	5788
2883.114	5766
2884.97	5927
2886.827	5815
2888.683	5778
2890.537	5783
2892.392	5795
2894.246	5738
2896.1	5829
2897.954	5743
2899.807	5786
2901.66	5824
2903.51	5804
2905.362	5745
2907.214	5758
2909.065	5803
2910.915	5745
2912.765	5811
2914.613	5886
2916.463	5862
2918.311	5772
2920.158	5803
2922.006	5866
2923.853	6011
2925.698	5934
2927.546	6030
2929.392	6025
2931.236	6038
2933.081	6089
2934.924	6204
2936.77	6076
2938.613	6091
2940.455	6297
2942.298	6150
2944.139	6158
2945.982	6308
2947.823	6215
2949.662	6194
2951.503	6153
2953.342	6158
2955.182	5970
2957.021	6057
2958.858	6107
2960.697	5885
2962.534	6075
2964.37	6033
2966.207	5929
2968.044	5766
2969.879	5847
2971.714	5873
2973.548	5811
2975.383	5801
2977.218	5753
2979.051	5870
2980.883	5782
2982.715	5755
2984.547	5727
2986.379	5642
2988.21	5803
2990.04	5660
2991.87	5747
2993.7	5716
2995.53	5719
2997.359	5695
2999.187	5523
3001.015	5637
3002.842	5628
3004.669	5547
3006.497	5546
3008.323	5506
3010.148	5472
3011.974	5501
3013.797	5510
3015.623	5499
3017.447	5437
3019.27	5446
3021.094	5451
3022.915	5417
3024.737	5288
3026.56	5303
3028.38	5384
3030.201	5354
3032.022	5389
3033.84	5316
3035.662	5365
3037.481	5332
3039.298	5372
3041.117	5345
3042.933	5312
3044.752	5369
3046.568	5400
3048.385	5354
3050.2	5368
3052.016	5310
3053.83	5260
3055.646	5275
3057.46	5285
3059.272	5315
3061.086	5222
3062.898	5266
3064.711	5317
3066.524	5378
3068.335	5213
3070.145	5320
3071.956	5234
3073.766	5229
3075.576	5293
3077.385	5244
3079.193	5245
3081.002	5309
3082.81	5212
3084.618	5272
3086.425	5231
3088.231	5272
3090.036	5297
3091.842	5156
3093.648	5213
3095.452	5146
3097.257	5208
3099.06	5206
3100.863	5180
3102.666	5133
3104.47	5190
3106.272	5163
3108.073	5203
3109.875	5063
3111.676	5144
3113.477	5229
3115.277	5198
3117.077	5151
3118.874	5112
3120.673	5189
3122.473	5029
3124.271	5071
3126.066	5217
3127.863	5129
3129.66	5164
3131.456	5110
3133.252	5090
3135.047	5076
3136.842	5081
3138.635	5070
3140.429	5119
3142.223	5136
3144.016	5004
3145.808	5108
3147.6	5054
3149.392	5063
3151.183	5111
3152.975	5041
3154.765	5061
3156.553	5141
3158.344	5054
3160.132	5081
3161.922	4980
3163.71	5177
3165.497	4992
3167.285	5094
3169.071	5018
3170.858	4966
3172.645	5025
3174.429	5084
3176.214	5025
3177.998	4996
3179.783	4935
3181.568	5065
3183.351	5046
3185.133	5001
3186.915	4928
3188.698	5068
3190.481	5022
3192.261	5026
3194.042	4926
3195.822	5005
3197.601	5088
3199.381	4949
3201.161	5006
3202.939	4927
3204.717	4944
3206.495	5043
3208.272	4942
3210.05	5038
3211.826	4989
3213.602	4957
3215.376	5029
3217.151	4941
3218.927	5014
3220.702	5037
3222.476	5019
3224.249	4969
3226.021	4934
3227.793	4957
3229.567	4903
3231.339	5009
3233.109	4935
3234.88	4947
3236.651	4962
3238.421	4923
3240.191	4954
3241.96	4847
3243.728	4848
3245.497	4861
3247.263	4961
3249.033	4914
3250.799	4928
3252.566	4980
3254.331	4935
3256.097	4946
3257.863	5008
3259.628	4930
3261.392	4960
3263.156	4946
3264.919	4935
3266.683	4993
3268.447	4891
3270.208	4977
3271.969	4978
3273.731	4856
3275.492	4992
3277.253	4955
3279.013	4898
3280.773	4931
3282.532	4922
3284.291	4966
3286.05	4795
3287.808	4924
3289.566	4970
3291.323	4880
3293.079	4935
3294.835	5001
3296.593	4932
3298.348	4957
3300.102	4950
3301.857	4931
3303.611	4919
3305.366	5003
3307.119	4826
3308.872	4853
3310.624	4973
3312.376	4957
3314.129	4970
3315.881	4952
3317.631	4892
3319.38	4827
3321.13	4804
3322.88	4909
3324.631	4923
3326.379	4929
3328.126	4978
3329.875	4875
3331.622	4931
3333.371	4934
3335.116	4915
3336.863	4838
3338.609	4860
3340.353	4904
3342.1	4918
3343.845	4944
3345.588	4801
3347.332	4866
3349.074	4842
3350.817	4902
3352.56	4790
3354.303	4833
3356.043	4774
3357.785	4936
3359.525	4857
3361.268	4862
3363.007	4855
3364.745	4876
3366.485	4887
3368.223	4818
3369.962	4861
3371.701	4880
3373.438	4966
3375.174	4888
3376.911	4919
3378.647	4870
3380.384	4849
3382.118	4806
3383.854	4758
3385.588	4772
3387.322	4775
3389.057	4897
3390.79	4839
3392.522	4828
3394.255	4740
3395.987	4876
3397.719	4886
3399.451	4769
3401.181	4770
3402.911	4886
3404.641	4856
3406.371	4765
3408.101	4724
3409.83	4852
3411.558	4755
3413.285	4730
3415.011	4685
3416.739	4793
3418.467	4729
3420.193	4718
3421.919	4724
3423.644	4715
3425.368	4652
3427.094	4693
3428.818	4763
3430.542	4671
3432.264	4731
3433.987	4727
3435.712	4716
3437.434	4705
3439.155	4753
3440.876	4657
3442.596	4720
3444.317	4645
3446.039	4740
3447.757	4781
3449.477	4727
3451.195	4680
3452.914	4718
3454.632	4701
3456.35	4653
3458.067	4655
3459.784	4611
3461.5	4635
3463.216	4762
3464.932	4582
3466.647	4599
3468.362	4635
3470.076	4609
3471.789	4605
3473.505	4628
3475.217	4615
3476.929	4598
3478.641	4655
3480.354	4532
3482.066	4650
3483.777	4575
3485.487	4561
3487.197	4550
3488.908	4575
3490.617	4564
3492.327	4615
3494.035	4528
3495.743	4581
3497.451	4559
3499.158	4568
3500.866	4535
3502.572	4625
3504.278	4502
3505.984	4588
3507.689	4506
3509.396	4604
3511.1	4541
3512.804	4518
3514.508	4599
3516.211	4509
3517.913	4627
3519.616	4507
3521.319	4568
3523.021	4562
3524.722	4456
3526.422	4514
3528.124	4546
3529.824	4572
3531.524	4580
3533.222	4454
3534.921	4420
3536.62	4524
3538.318	4425
3540.016	4412
3541.714	4452
3543.41	4572
3545.107	4451
3546.803	4462
3548.5	4458
3550.194	4472
3551.889	4534
3553.583	4504
3555.279	4477
3556.972	4430
3558.666	4488
3560.358	4421
3562.051	4432
3563.742	4385
3565.435	4418
3567.126	4442
3568.817	4429
3570.507	4454
3572.197	4396
3573.888	4333
3575.577	4404
3577.265	4467
3578.954	4475
3580.642	4345
3582.329	4400
3584.017	4472
3585.704	4342
3587.391	4419
3589.077	4472
3590.762	4400
3592.449	4419
3594.133	4441
3595.817	4297
3597.501	4371
3599.185	4382
3600.869	4332
3602.552	4326
3604.234	4282
3605.916	4378
3607.598	4305
3609.279	4264
3610.961	4338
3612.642	4340
3614.321	4428
3616	4339
3617.68	4318
3619.36	4251
3621.039	4119
3622.716	4300
3624.394	4293
3626.071	4201
3627.748	4288
3629.425	4369
3631.102	4271
3632.778	4258
3634.452	4310
3636.127	4333
3637.803	4198
3639.477	4247
3641.151	4233
3642.823	4178
3644.497	4276
3646.171	4208
3647.842	4248
3649.515	4149
3651.185	4146
3652.857	4272
3654.527	4140
3656.198	4200
3657.868	4133
3659.537	4280
3661.207	4154
3662.875	4201
3664.544	4252
3666.212	4182
3667.879	4169
3669.546	4201
3671.212	4221
3672.88	4140
3674.546	4187
3676.211	4181
3677.875	4134
3679.541	4218
3681.205	4183
3682.87	4130
3684.533	4129
3686.196	4172
3687.859	4204
3689.521	4134
3691.184	4173
3692.845	4101
3694.507	4104
3696.167	4147
3697.827	4138
3699.487	4163
3701.148	4116
3702.808	4104
3704.466	4119
3706.125	4081
3707.783	4149
3709.442	4215
3711.099	4118
3712.757	4134
3714.412	4080
3716.068	4153
3717.725	4067
3719.381	4109
3721.036	4097
3722.689	4143
3724.344	4068
3725.998	4044
3727.652	4074
3729.305	4108
3730.958	4123
3732.61	4051
3734.262	4102
3735.915	4080
3737.565	4065
3739.217	4073
3740.866	4077
3742.516	4106
3744.165	4090
3745.816	4109
3747.464	4114
3749.113	4099
3750.761	4089
3752.409	4101
3754.057	4054
3755.703	4020
3757.35	3942
3758.996	4001
3760.641	4029
3762.289	4010
3763.933	3979
3765.577	4069
3767.222	3980
3768.865	4016
3770.508	4020
3772.152	4116
3773.796	4066
3775.438	4008
3777.079	4040
3778.721	4007
3780.363	3939
3782.003	3968
3783.643	4038
3785.283	3926
3786.923	3968
3788.563	3917
3790.203	3928
3791.841	3995
3793.479	3900
3795.115	3967
3796.753	4061
3798.391	3921
3800.027	3922
3801.664	3920
3803.299	3978
3804.935	3969
3806.571	3996
3808.206	3894
3809.839	3915
3811.473	3963
3813.107	3921
3814.74	4006
3816.375	3812
3818.006	3870
3819.638	3879
3821.27	3976
3822.9	3910
3824.532	3807
3826.163	3906
3827.792	3913
3829.423	3839
3831.051	3859
3832.682	3861
3834.311	3859
3835.938	3884
3837.566	3815
3839.193	3804
3840.821	3848
3842.448	3944
3844.075	3817
3845.7	3871
3847.325	3783
3848.951	3868
3850.576	3832
3852.201	3832
3853.825	3900
3855.448	3852
3857.072	3874
3858.694	3847
3860.318	3852
3861.939	3782
3863.562	3873
3865.183	3818
3866.804	3838
3868.426	3808
3870.045	3729
3871.666	3838
3873.285	3812
3874.904	3764
3876.524	3769
3878.142	3795
3879.76	3753
3881.378	3806
3882.995	3793
3884.612	3819
3886.229	3814
3887.845	3771
3889.461	3743
3891.076	3756
3892.691	3714
3894.307	3783
3895.922	3872
3897.536	3747
3899.149	3706
3900.761	3830
3902.374	3741
3903.988	3779
3905.6	3769
3907.212	3801
3908.822	3660
3910.433	3817
3912.045	3718
3913.655	3844
3915.265	3724
3916.875	3801
3918.483	3746
3920.093	3722
3921.702	3706
3923.309	3743
3924.917	3681
3926.523	3721
3928.13	3822
3929.739	3716
3931.344	3824
3932.95	3741
3934.555	3771
3936.159	3669
3937.766	3750
3939.369	3732
3940.974	3730
3942.577	3719
3944.181	3764
3945.783	3711
3947.386	3713
3948.989	3685
3950.59	3709
3952.191	3741
3953.791	3652
3955.394	3708
3956.994	3696
3958.593	3733
3960.192	3650
3961.791	3695
3963.392	3737
3964.99	3733
3966.588	3637
3968.185	3692
3969.782	3654
3971.379	3765
3972.976	3709
3974.572	3666
3976.168	3660
3977.763	3674
3979.358	3648
3980.954	3656
3982.548	3646
3984.142	3637
3985.736	3593
3987.329	3688
3988.922	3626
3990.516	3657
3992.108	3598
3993.698	3588
3995.29	3615
3996.881	3588
3998.473	3662
4000.064	3678
4001.653	3588
4003.242	3595
4004.832	3592
4006.422	3612
4008.01	3540
4009.598	3577
4011.186	3514
4012.773	3575
4014.36	3491
4015.947	3601
4017.534	3629
4019.119	3576
4020.705	3523
4022.291	3559
4023.876	3578
4025.461	3566
4027.044	3555
4028.627	3484
4030.211	3543
4031.795	3485
4033.378	3472
4034.96	3528
4036.542	3533
4038.124	3573
4039.704	3484
4041.286	3558
4042.867	3502
4044.447	3491
4046.026	3497
4047.606	3469
4049.187	3446
4050.765	3497
4052.343	3433
4053.92	3494
4055.498	3460
4057.076	3416
4058.654	3490
4060.23	3422
4061.806	3462
4063.381	3474
4064.957	3444
4066.533	3419
4068.107	3454
4069.682	3497
4071.256	3472
4072.829	3414
4074.404	3422
4075.977	3446
4077.549	3451
4079.121	3447
4080.693	3462
4082.265	3401
4083.836	3450
4085.407	3410
4086.977	3380
4088.547	3357
4090.117	3415
4091.687	3353
4093.256	3370
4094.825	3340
4096.392	3468
4097.96	3393
4099.528	3376
4101.097	3392
4102.663	3336
4104.229	3342
4105.795	3434
4107.361	3355
4108.928	3377
4110.493	3407
4112.058	3406
4113.621	3373
4115.186	3315
4116.75	3440
4118.313	3336
4119.876	3332
4121.438	3339
4123	3356
4124.562	3336
4126.125	3354
4127.686	3382
4129.246	3310
4130.807	3369
4132.367	3378
4133.927	3373
4135.486	3312
4137.046	3244
4138.604	3339
4140.162	3286
4141.72	3260
4143.279	3239
4144.836	3256
4146.393	3270
4147.949	3294
4149.505	3310
4151.062	3262
4152.617	3251
4154.172	3299
4155.727	3270
4157.281	3236
4158.836	3228
4160.39	3283
4161.943	3200
4163.496	3252
4165.048	3256
4166.601	3252
4168.154	3228
4169.706	3245
4171.257	3216
4172.808	3274
4174.358	3205
4175.909	3213
4177.458	3221
4179.008	3223
4180.558	3205
4182.106	3243
4183.655	3143
4185.204	3233
4186.751	3178
4188.298	3182
4189.845	3212
4191.392	3228
4192.939	3271
4194.485	3199
4196.031	3109
4197.576	3204
4199.121	3134
4200.666	3171
4202.211	3205
4203.754	3166
4205.298	3152
4206.84	3193
4208.384	3189
4209.927	3196
4211.47	3131
4213.011	3165
4214.552	3203
4216.094	3143
4217.635	3222
4219.175	3204
4220.716	3129
4222.255	3162
4223.793	3114
4225.335	3147
4226.873	3162
4228.411	3125
4229.948	3117
4231.486	3128
4233.024	3170
4234.562	3264
4236.098	3186
4237.634	3101
4239.169	3032
4240.705	3067
4242.241	3185
4243.776	3035
4245.31	3135
4246.844	3130
4248.378	3118
4249.911	3114
4251.445	3104
4252.978	3199
4254.51	3100
4256.042	3146
4257.574	3110
4259.107	3137
4260.638	3090
4262.169	3125
4263.699	3119
4265.228	3016
4266.759	3099
4268.289	3035
4269.818	3123
4271.345	3094
4272.874	3058
4274.402	3059
4275.931	3018
4277.458	3017
4278.985	3108
4280.512	3030
4282.037	3012
4283.564	3106
4285.089	2975
4286.615	3006
4288.139	3046
4289.664	3154
4291.187	3068
4292.712	2982
4294.235	2993
4295.759	3011
4297.281	3104
4298.804	3064
4300.327	2960
4301.849	3010
4303.37	3059
4304.891	2950
4306.412	2971
4307.933	3032
4309.453	3095
4310.973	3017
4312.492	3027
