398.1873	6329
400.7097	6353
403.2336	6386
405.7547	6400
408.2751	6445
410.7948	6398
413.3138	6527
415.83	6390
418.3497	6576
420.8666	6578
423.3829	6621
425.8985	6725
428.4133	6700
430.9275	6671
433.441	6700
435.9538	6708
438.4639	6707
440.9753	6742
443.4881	6699
445.9982	6853
448.5055	6760
451.0142	6753
453.5201	6769
456.0274	6807
458.5361	6822
461.04	6825
463.5453	6884
466.0478	6788
468.5517	6795
471.0549	6817
473.5574	6841
476.0572	6854
478.5584	7018
481.0568	6987
483.5545	6916
486.0557	6970
488.5521	7010
491.0478	7036
493.5449	6951
496.0392	6945
498.5349	7053
501.0299	7153
503.5222	6974
506.0139	7012
508.5048	7046
510.9991	6979
513.4887	7226
515.9777	7034
518.4659	7060
520.9534	7116
523.4403	7241
525.9306	7087
528.4161	7173
530.9009	7161
533.3851	7238
535.8687	7120
538.3535	7315
540.8356	7218
543.3171	7136
545.7979	7204
548.278	7155
550.7595	7194
553.2383	7253
555.7144	7192
558.1918	7187
560.6685	7196
563.1446	7265
565.6221	7364
568.0968	7331
570.5688	7367
573.0422	7357
575.515	7284
577.989	7322
580.4584	7334
582.9291	7332
585.3991	7335
587.8685	7311
590.3352	7387
592.8052	7406
595.2706	7420
597.7372	7494
600.2033	7392
602.6666	7376
605.1334	7293
607.5953	7426
610.0587	7431
612.5193	7226
614.9814	7474
617.4427	7392
619.9034	7371
622.3615	7360
624.8208	7372
627.2775	7362
629.7335	7440
632.1929	7330
634.6476	7486
637.1016	7486
639.5569	7395
642.0096	7494
644.4637	7408
646.9151	7554
649.3678	7490
651.8179	7568
654.2672	7526
656.7159	7430
659.166	7706
661.6154	7673
664.0622	7589
666.5082	7572
668.9537	7614
671.4005	7555
673.8445	7710
676.288	7674
678.7308	7589
681.1729	7617
683.6163	7644
686.0572	7622
688.4973	7675
690.9368	7641
693.3757	7641
695.8138	7834
698.2534	7776
700.6902	7746
703.1245	7676
705.56	7756
707.9949	7771
710.4311	7847
712.8647	7880
715.2957	7852
717.7279	7913
720.1595	7831
722.5905	7778
725.0208	7929
727.4505	7839
729.8795	7851
732.3058	8028
734.7336	7862
737.1626	7979
739.587	7997
742.0128	7917
744.4359	8071
746.8604	8105
749.2841	8106
751.7073	8070
754.1278	8087
756.5496	8210
758.9688	8235
761.3893	8257
763.8093	8210
766.2285	8162
768.6451	8194
771.0611	8153
773.4784	8232
775.895	8215
778.3091	8289
780.7244	8162
783.1371	8132
785.5493	8287
787.9626	8255
790.3754	8241
792.7856	8132
795.1951	8185
797.6039	8257
800.0121	8382
802.4236	8255
804.8306	8358
807.2369	8291
809.6425	8208
812.0475	8267
814.4538	8396
816.8575	8479
819.2606	8278
821.663	8251
824.0648	8290
826.4659	8314
828.8683	8318
831.2682	8349
833.6674	8370
836.066	8489
838.4639	8387
840.8632	8475
843.2579	8415
845.6539	8300
848.0493	8288
850.444	8465
852.84	8423
855.2315	8344
857.6243	8580
860.0165	8316
862.4081	8492
864.797	8395
867.1892	8394
869.5789	8378
871.9659	8535
874.3542	8509
876.74	8330
879.129	8322
881.5155	8476
883.8994	8404
886.2845	8482
888.6671	8393
891.051	8400
893.4343	8478
895.8169	8468
898.197	8382
900.5783	8508
902.9571	8375
905.3372	8442
907.7167	8639
910.0936	8455
912.4698	8590
914.8474	8651
917.2244	8580
919.5987	8672
921.9744	8807
924.3475	8850
926.72	8721
929.0918	8741
931.4669	8701
933.8375	8856
936.2074	8788
938.5767	8831
940.9454	8702
943.3154	8913
945.6829	9123
948.0497	8971
950.4178	9195
952.7833	9447
955.1483	9309
957.5145	9644
959.8782	9826
962.2412	9737
964.6036	9580
966.9655	9185
969.3266	9218
971.6871	9068
974.0471	8972
976.4064	8698
978.765	8764
981.125	8793
983.4824	8736
985.8373	8785
988.1935	8696
990.549	8731
992.9039	8638
995.2602	8816
997.6119	8580
999.965	8776
1002.317	8711
1004.667	8711
1007.02	8756
1009.371	8599
1011.719	8616
1014.068	8800
1016.415	8879
1018.765	8788
1021.111	8755
1023.458	8757
1025.804	8809
1028.147	8831
1030.49	8793
1032.837	8865
1035.179	8795
1037.522	8892
1039.862	8957
1042.204	8810
1044.546	8945
1046.884	8882
1049.224	8866
1051.562	8665
1053.899	8898
1056.237	8971
1058.575	8918
1060.91	8765
1063.244	8894
1065.58	9021
1067.913	8906
1070.248	9002
1072.579	8870
1074.911	9013
1077.242	8930
1079.572	8937
1081.905	9009
1084.234	8914
1086.562	8884
1088.89	8857
1091.217	9016
1093.544	8919
1095.871	8796
1098.197	8902
1100.521	8970
1102.845	8886
1105.169	8988
1107.491	8948
1109.814	8886
1112.135	8992
1114.456	9050
1116.776	8983
1119.096	8963
1121.415	8916
1123.734	8898
1126.052	9051
1128.369	8987
1130.686	9115
1133.002	9068
1135.318	8954
1137.632	9022
1139.945	9017
1142.258	8987
1144.573	9091
1146.884	9066
1149.196	9001
1151.505	9042
1153.816	9027
1156.124	9116
1158.435	9093
1160.742	9126
1163.051	9036
1165.356	9073
1167.663	9116
1169.97	8910
1172.276	9016
1174.579	9051
1176.881	8926
1179.186	9018
1181.487	9008
1183.79	8997
1186.092	9056
1188.392	8956
1190.691	9212
1192.991	9105
1195.291	9000
1197.588	8998
1199.885	9045
1202.181	9024
1204.479	9085
1206.775	9067
1209.07	9085
1211.363	9130
1213.656	8971
1215.949	9037
1218.241	9044
1220.534	9174
1222.825	9029
1225.115	9188
1227.405	9131
1229.693	9119
1231.984	9194
1234.271	9177
1236.558	9100
1238.845	9211
1241.131	9312
1243.416	9274
1245.703	9325
1247.987	9418
1250.269	9327
1252.552	9123
1254.834	9208
1257.118	9299
1259.399	9298
1261.678	9309
1263.958	9370
1266.237	9280
1268.516	9399
1270.794	9200
1273.072	9418
1275.347	9299
1277.624	9200
1279.899	9205
1282.175	9242
1284.449	9260
1286.722	9308
1288.995	9220
1291.266	9141
1293.54	9265
1295.81	9290
1298.081	9265
1300.35	9200
1302.62	9244
1304.889	9166
1307.156	9084
1309.425	9094
1311.69	9094
1313.957	9277
1316.222	9186
1318.488	9190
1320.751	9204
1323.016	9169
1325.278	9113
1327.54	9282
1329.803	9365
1332.065	9301
1334.325	9264
1336.584	9205
1338.843	9289
1341.101	9283
1343.36	9296
1345.617	9297
1347.876	9250
1350.131	9239
1352.387	9201
1354.643	9234
1356.897	9170
1359.151	9224
1361.403	9190
1363.656	9241
1365.909	9356
1368.16	9376
1370.409	9212
1372.659	9329
1374.909	9354
1377.157	9365
1379.407	9237
1381.655	9232
1383.9	9294
1386.147	9342
1388.393	9309
1390.64	9443
1392.885	9450
1395.127	9479
1397.37	9541
1399.614	9395
1401.854	9431
1404.098	9597
1406.339	9489
1408.578	9393
1410.818	9532
1413.056	9613
1415.297	9551
1417.533	9571
1419.771	9357
1422.006	9502
1424.243	9395
1426.479	9486
1428.715	9472
1430.948	9594
1433.182	9467
1435.414	9494
1437.647	9578
1439.88	9728
1442.11	9514
1444.342	9687
1446.571	9613
1448.799	9777
1451.029	9644
1453.258	9688
1455.485	9648
1457.711	9584
1459.937	9649
1462.164	9649
1464.39	9702
1466.614	9535
1468.838	9559
1471.06	9550
1473.283	9500
1475.506	9598
1477.727	9313
1479.949	9307
1482.169	9471
1484.389	9332
1486.609	9527
1488.828	9418
1491.045	9335
1493.261	9398
1495.477	9266
1497.693	9425
1499.91	9161
1502.125	9303
1504.339	9319
1506.553	9363
1508.766	9427
1510.979	9444
1513.191	9228
1515.402	9449
1517.613	9320
1519.823	9391
1522.033	9405
1524.242	9308
1526.451	9223
1528.657	9403
1530.865	9174
1533.072	9264
1535.278	9348
1537.484	9428
1539.687	9293
1541.892	9467
1544.096	9495
1546.299	9329
1548.502	9514
1550.703	9251
1552.905	9301
1555.104	9388
1557.303	9691
1559.505	9399
1561.703	9514
1563.902	9446
1566.099	9617
1568.295	9607
1570.494	9483
1572.689	9541
1574.883	9547
1577.079	9631
1579.272	9665
1581.467	9608
1583.659	9472
1585.853	9629
1588.044	9716
1590.234	9697
1592.424	9605
1594.615	9561
1596.806	9648
1598.994	9589
1601.182	9546
1603.369	9621
1605.557	9623
1607.744	9842
1609.929	9613
1612.114	9658
1614.298	9669
1616.482	9588
1618.667	9588
1620.85	9764
1623.032	9618
1625.214	9635
1627.395	9752
1629.575	9640
1631.755	9760
1633.935	9638
1636.114	9849
1638.292	9629
1640.471	9696
1642.647	9721
1644.823	9800
1647	9718
1649.175	9788
1651.348	9724
1653.525	9640
1655.698	9760
1657.87	9897
1660.043	9731
1662.213	9703
1664.387	9763
1666.558	9698
1668.727	9706
1670.896	9888
1673.064	9831
1675.233	9635
1677.401	9702
1679.569	9690
1681.735	9699
1683.902	9750
1686.066	9816
1688.233	9666
1690.397	9817
1692.559	9793
1694.723	9850
1696.885	9791
1699.048	9589
1701.21	9757
1703.37	9767
1705.53	9637
1707.689	9762
1709.849	9507
1712.009	9669
1714.166	9816
1716.323	9712
1718.479	9607
1720.634	9520
1722.793	9693
1724.948	9669
1727.102	9744
1729.255	9581
1731.408	9663
1733.562	9647
1735.714	9604
1737.865	9487
1740.016	9644
1742.166	9740
1744.316	9774
1746.467	9586
1748.616	9745
1750.764	9669
1752.911	9500
1755.056	9711
1757.205	9584
1759.35	9636
1761.496	9812
1763.641	9768
1765.785	9733
1767.927	9627
1770.072	9785
1772.214	9697
1774.355	9769
1776.496	9815
1778.637	9900
1780.778	9649
1782.918	9802
1785.057	9884
1787.194	9896
1789.333	9840
1791.472	9864
1793.608	9701
1795.745	9851
1797.879	9792
1800.015	9730
1802.148	9765
1804.284	9650
1806.417	9748
1808.548	9934
1810.682	9767
1812.812	9905
1814.946	9711
1817.075	9764
1819.205	9768
1821.335	9691
1823.463	9750
1825.59	9678
1827.721	9815
1829.847	9750
1831.973	9703
1834.098	9658
1836.223	9805
1838.351	9778
1840.475	9722
1842.598	9708
1844.721	9691
1846.843	9615
1848.966	9811
1851.087	9735
1853.21	9825
1855.33	9574
1857.449	9832
1859.568	9769
1861.688	9781
1863.806	9673
1865.924	9638
1868.039	9792
1870.155	9684
1872.273	9686
1874.388	9722
1876.503	9672
1878.617	9641
1880.73	9713
1882.844	9653
1884.956	9677
1887.068	9651
1889.18	9778
1891.291	9796
1893.4	9748
1895.511	9891
1897.621	9636
1899.73	9859
1901.837	9569
1903.944	9880
1906.053	9726
1908.159	9769
1910.265	9845
1912.369	9751
1914.474	9949
1916.577	9692
1918.683	9884
1920.785	9828
1922.888	9774
1924.989	9849
1927.091	9884
1929.193	9861
1931.294	9889
1933.393	9733
1935.493	9840
1937.59	9877
1939.689	9898
1941.788	9809
1943.884	9880
1945.98	9871
1948.077	9991
1950.171	9918
1952.267	9796
1954.361	9897
1956.455	9863
1958.548	9780
1960.64	9852
1962.733	9856
1964.824	9786
1966.915	9837
1969.005	9809
1971.096	9746
1973.185	9916
1975.275	9792
1977.363	9844
1979.45	9769
1981.537	9990
1983.623	9757
1985.711	9736
1987.796	9671
1989.881	9700
1991.965	9866
1994.047	9815
1996.132	9698
1998.215	9798
2000.297	9814
2002.378	9799
2004.46	9800
2006.54	9729
2008.62	9754
2010.7	9727
2012.779	9743
2014.858	9639
2016.934	9792
2019.013	9682
2021.09	9700
2023.165	9639
2025.241	9801
2027.317	9687
2029.39	9706
2031.466	9573
2033.538	9718
2035.612	9758
2037.683	9795
2039.755	9764
2041.827	9761
2043.898	9856
2045.968	9809
2048.038	9777
2050.106	9792
2052.177	9850
2054.244	9667
2056.313	9775
2058.379	9910
2060.444	9678
2062.511	9614
2064.577	9850
2066.641	9664
2068.705	9824
2070.77	9858
2072.832	9751
2074.896	9826
2076.958	9917
2079.02	9851
2081.081	9766
2083.141	9852
2085.2	9754
2087.261	9786
2089.319	9652
2091.377	9826
2093.435	9765
2095.492	9709
2097.552	9771
2099.607	9830
2101.663	9796
2103.718	9790
2105.771	9862
2107.826	9671
2109.879	9699
2111.932	9685
2113.985	9801
2116.037	9747
2118.088	9786
2120.141	9739
2122.191	9847
2124.239	9761
2126.288	9714
2128.337	9884
2130.387	9736
2132.434	9704
2134.481	9809
2136.528	9649
2138.574	9705
2140.618	9702
2142.665	9642
2144.71	9783
2146.753	9641
2148.797	9575
2150.838	9744
2152.883	9687
2154.923	9679
2156.965	9690
2159.007	9556
2161.046	9635
2163.086	9674
2165.126	9617
2167.163	9662
2169.202	9657
2171.239	9718
2173.277	9715
2175.314	9631
2177.349	9536
2179.385	9678
2181.42	9612
2183.453	9699
2185.49	9417
2187.522	9452
2189.555	9713
2191.586	9622
2193.619	9669
2195.651	9565
2197.682	9460
2199.711	9591
2201.74	9491
2203.769	9557
2205.799	9565
2207.828	9553
2209.855	9487
2211.882	9573
2213.908	9589
2215.934	9535
2217.961	9481
2219.986	9473
2222.01	9523
2224.034	9604
2226.057	9445
2228.08	9543
2230.104	9555
2232.124	9535
2234.145	9483
2236.166	9470
2238.186	9592
2240.207	9419
2242.227	9593
2244.244	9482
2246.262	9408
2248.28	9459
2250.299	9454
2252.314	9478
2254.33	9423
2256.346	9379
2258.36	9310
2260.375	9577
2262.391	9551
2264.403	9296
2266.416	9434
2268.427	9500
2270.44	9464
2272.453	9570
2274.463	9520
2276.474	9448
2278.483	9531
2280.493	9422
2282.501	9393
2284.51	9391
2286.518	9510
2288.524	9348
2290.532	9413
2292.537	9337
2294.544	9461
2296.55	9547
2298.554	9556
2300.557	9360
2302.562	9383
2304.566	9414
2306.568	9499
2308.569	9378
2310.572	9594
2312.573	9559
2314.573	9637
2316.574	9396
2318.573	9410
2320.571	9494
2322.571	9451
2324.569	9457
2326.567	9419
2328.564	9370
2330.56	9411
2332.556	9411
2334.551	9298
2336.546	9306
2338.542	9365
2340.535	9403
2342.529	9258
2344.521	9347
2346.512	9274
2348.505	9325
2350.497	9314
2352.487	9308
2354.478	9287
2356.468	9261
2358.457	9284
2360.446	9251
2362.434	9214
2364.422	9077
2366.408	9335
2368.395	9125
2370.383	9222
2372.369	9235
2374.353	9382
2376.338	9220
2378.321	9235
2380.307	9202
2382.29	9200
2384.272	9316
2386.254	9147
2388.235	9143
2390.218	9134
2392.198	9124
2394.179	9211
2396.157	9320
2398.137	9129
2400.115	9137
2402.095	9192
2404.072	9179
2406.048	9130
2408.026	9011
2410.001	9113
2411.977	9109
2413.953	9126
2415.927	8979
2417.9	9215
2419.875	9024
2421.847	9134
2423.821	9150
2425.792	9216
2427.763	9244
2429.736	9141
2431.706	9125
2433.677	9181
2435.646	9226
2437.615	9115
2439.583	9130
2441.551	9160
2443.519	9207
2445.486	9087
2447.452	9196
2449.418	9100
2451.383	9158
2453.348	9104
2455.314	9028
2457.278	9166
2459.241	9062
2461.205	9000
2463.167	9001
2465.131	9070
2467.091	9204
2469.052	9136
2471.012	9063
2472.972	9184
2474.932	8992
2476.891	9079
2478.85	9081
2480.808	9083
2482.766	9059
2484.722	9010
2486.68	9148
2488.636	9115
2490.591	8923
2492.546	9023
2494.5	9017
2496.456	9068
2498.41	8997
2500.362	9098
2502.315	8889
2504.266	9019
2506.218	9053
2508.169	9022
2510.121	8955
2512.07	8983
2514.019	8960
2515.968	8937
2517.918	8985
2519.866	9052
2521.813	8883
2523.76	8938
2525.707	9109
2527.653	8823
2529.599	8827
2531.543	8984
2533.489	9109
2535.433	9050
2537.376	8969
2539.32	8990
2541.264	8953
2543.205	8797
2545.147	8978
2547.087	8950
2549.029	8839
2550.969	8828
2552.908	8909
2554.847	8919
2556.786	9011
2558.724	8920
2560.663	9048
2562.6	8970
2564.537	9052
2566.473	8933
2568.408	8883
2570.345	8887
2572.28	8892
2574.214	8893
2576.148	8999
2578.081	8918
2580.014	8979
2581.947	8932
2583.879	8919
2585.81	8900
2587.741	8935
2589.67	8755
2591.602	8892
2593.532	8908
2595.461	8886
2597.388	8822
2599.316	8980
2601.244	8931
2603.172	8966
2605.098	8995
2607.023	8927
2608.949	8847
2610.873	9066
2612.8	8990
2614.723	8895
2616.647	8895
2618.569	8955
2620.493	9002
2622.416	8989
2624.338	8938
2626.258	8922
2628.179	9058
2630.099	9000
2632.019	9025
2633.939	8888
2635.857	8877
2637.775	9046
2639.694	9076
2641.61	8965
2643.528	9005
2645.444	8943
2647.361	8842
2649.276	9002
2651.19	9016
2653.105	8961
2655.019	8905
2656.934	9023
2658.846	8935
2660.758	9053
2662.67	8817
2664.583	8914
2666.493	8902
2668.404	8779
2670.313	9011
2672.223	9030
2674.134	8928
2676.042	9004
2677.95	9073
2679.858	8666
2681.765	8818
2683.673	8946
2685.579	8830
2687.483	8818
2689.389	8841
2691.294	8725
2693.198	8864
2695.104	8792
2697.006	8830
2698.909	8714
2700.811	8837
2702.713	8824
2704.615	8901
2706.516	8776
2708.417	8835
2710.316	8790
2712.216	8705
2714.115	8718
2716.014	8878
2717.913	8745
2719.81	8777
2721.707	8783
2723.603	8788
2725.501	8795
2727.396	8649
2729.292	8687
2731.186	8659
2733.081	8810
2734.976	8740
2736.87	8658
2738.762	8781
2740.653	8710
2742.546	8744
2744.437	8613
2746.329	8700
2748.22	8726
2750.11	8757
2751.999	8487
2753.889	8770
2755.778	8736
2757.666	8687
2759.553	8736
2761.44	8724
2763.328	8669
2765.215	8790
2767.101	8541
2768.986	8634
2770.87	8616
2772.754	8658
2774.638	8730
2776.523	8619
2778.405	8794
2780.288	8671
2782.17	8637
2784.051	8548
2785.934	8613
2787.814	8658
2789.694	8600
2791.574	8539
2793.453	8592
2795.332	8671
2797.212	8694
2799.088	8577
2800.966	8569
2802.843	8599
2804.719	8505
2806.597	8533
2808.471	8542
2810.346	8661
2812.221	8432
2814.094	8586
2815.969	8541
2817.843	8631
2819.714	8619
2821.587	8660
2823.459	8509
2825.329	8603
2827.202	8629
2829.072	8514
2830.942	8522
2832.811	8689
2834.68	8583
2836.549	8491
2838.418	8517
2840.284	8539
2842.152	8473
2844.018	8634
2845.885	8511
2847.751	8723
2849.616	8557
2851.482	8645
2853.345	8640
2855.208	8654
2857.074	8612
2858.937	8622
2860.799	8747
2862.66	8688
2864.522	8684
2866.385	8496
2868.245	8782
2870.104	8849
2871.964	8808
2873.824	8832
2875.683	8911
2877.542	8828
2879.4	8820
2881.257	8892
2883.114	8878
2884.97	8937
2886.827	8768
2888.683	9034
2890.537	8986
2892.392	8913
2894.246	9089
2896.1	8918
2897.954	8868
2899.807	9066
2901.66	8891
2903.51	8900
2905.362	8879
2907.214	8927
2909.065	8780
2910.915	8831
2912.765	8998
2914.613	8931
2916.463	9173
2918.311	9033
2920.158	9049
2922.006	9133
2923.853	9131
2925.698	9159
2927.546	9120
2929.392	9303
2931.236	9230
2933.081	9137
2934.924	9184
2936.77	9190
2938.613	9252
2940.455	9388
2942.298	9161
2944.139	9379
2945.982	9595
2947.823	9339
2949.662	9412
2951.503	9495
2953.342	9198
2955.182	9226
2957.021	9319
2958.858	9219
2960.697	9178
2962.534	9223
2964.37	9172
2966.207	9012
2968.044	8895
2969.879	9020
2971.714	8893
2973.548	8891
2975.383	8786
2977.218	8782
2979.051	8643
2980.883	8893
2982.715	8734
2984.547	8747
2986.379	8702
2988.21	8497
2990.04	8590
2991.87	8693
2993.7	8576
2995.53	8480
2997.359	8580
2999.187	8391
3001.015	8377
3002.842	8333
3004.669	8420
3006.497	8290
3008.323	8324
3010.148	8410
3011.974	8239
3013.797	8261
3015.623	8327
3017.447	8186
3019.27	8184
3021.094	8100
3022.915	8195
3024.737	8295
3026.56	8146
3028.38	8171
3030.201	8072
3032.022	8028
3033.84	8201
3035.662	8091
3037.481	8142
3039.298	8064
3041.117	7995
3042.933	8081
3044.752	8126
3046.568	8156
3048.385	8029
3050.2	8100
3052.016	8101
3053.83	7948
3055.646	8042
3057.46	8091
3059.272	8034
3061.086	7919
3062.898	7959
3064.711	8085
3066.524	7986
3068.335	7989
3070.145	8165
3071.956	8009
3073.766	8016
3075.576	8107
3077.385	8116
3079.193	7833
3081.002	7988
3082.81	7815
3084.618	7825
3086.425	7873
3088.231	7998
3090.036	7760
3091.842	7983
3093.648	7795
3095.452	7902
3097.257	7910
3099.06	7927
3100.863	7831
3102.666	7819
3104.47	7801
3106.272	7784
3108.073	7805
3109.875	7642
3111.676	7757
3113.477	7774
3115.277	7827
3117.077	7859
3118.874	7715
3120.673	7715
3122.473	7705
3124.271	7760
3126.066	7693
3127.863	7647
3129.66	7688
3131.456	7681
3133.252	7641
3135.047	7653
3136.842	7536
3138.635	7639
3140.429	7534
3142.223	7631
3144.016	7569
3145.808	7625
3147.6	7585
3149.392	7592
3151.183	7449
3152.975	7486
3154.765	7542
3156.553	7546
3158.344	7672
3160.132	7554
3161.922	7567
3163.71	7537
3165.497	7560
3167.285	7597
3169.071	7717
3170.858	7450
3172.645	7406
3174.429	7541
3176.214	7599
3177.998	7516
3179.783	7490
3181.568	7589
3183.351	7493
3185.133	7470
3186.915	7575
3188.698	7488
3190.481	7447
3192.261	7442
3194.042	7440
3195.822	7473
3197.601	7563
3199.381	7394
3201.161	7602
3202.939	7441
3204.717	7503
3206.495	7523
3208.272	7402
3210.05	7364
3211.826	7398
3213.602	7406
3215.376	7229
3217.151	7533
3218.927	7383
3220.702	7455
3222.476	7476
3224.249	7436
3226.021	7385
3227.793	7256
3229.567	7440
3231.339	7393
3233.109	7369
3234.88	7404
3236.651	7347
3238.421	7366
3240.191	7343
3241.96	7386
3243.728	7369
3245.497	7353
3247.263	7315
3249.033	7417
3250.799	7191
3252.566	7391
3254.331	7367
3256.097	7265
3257.863	7326
3259.628	7389
3261.392	7470
3263.156	7317
3264.919	7325
3266.683	7311
3268.447	7257
3270.208	7361
3271.969	7320
3273.731	7360
3275.492	7323
3277.253	7336
3279.013	7453
3280.773	7240
3282.532	7295
3284.291	7342
3286.05	7329
3287.808	7350
3289.566	7300
3291.323	7214
3293.079	7359
3294.835	7286
3296.593	7342
3298.348	7205
3300.102	7341
3301.857	7267
3303.611	7397
3305.366	7309
3307.119	7234
3308.872	7319
3310.624	7263
3312.376	7202
3314.129	7321
3315.881	7289
3317.631	7262
3319.38	7317
3321.13	7262
3322.88	7262
3324.631	7250
3326.379	7166
3328.126	7180
3329.875	7317
3331.622	7248
3333.371	7245
3335.116	7115
3336.863	7133
3338.609	7272
3340.353	7170
3342.1	7182
3343.845	7278
3345.588	7060
3347.332	7279
3349.074	7174
3350.817	7176
3352.56	7243
3354.303	7295
3356.043	7124
3357.785	7189
3359.525	7104
3361.268	7106
3363.007	7120
3364.745	7238
3366.485	7105
3368.223	7272
3369.962	6927
3371.701	7141
3373.438	7056
3375.174	7018
3376.911	7075
3378.647	7011
3380.384	7074
3382.118	7129
3383.854	7043
3385.588	6933
3387.322	7167
3389.057	7001
3390.79	7180
3392.522	6981
3394.255	7032
3395.987	6996
3397.719	7067
3399.451	7006
3401.181	6906
3402.911	7037
3404.641	7071
3406.371	6882
3408.101	6882
3409.83	6973
3411.558	6948
3413.285	7052
3415.011	6938
3416.739	6963
3418.467	6939
3420.193	6868
3421.919	6868
3423.644	6960
3425.368	6989
3427.094	6919
3428.818	6791
3430.542	6918
3432.264	6975
3433.987	6984
3435.712	6928
3437.434	6849
3439.155	6866
3440.876	6880
3442.596	6822
3444.317	6889
3446.039	6898
3447.757	6876
3449.477	6831
3451.195	6794
3452.914	6740
3454.632	6793
3456.35	6772
3458.067	6769
3459.784	6716
3461.5	6761
3463.216	6751
3464.932	6876
3466.647	6642
3468.362	6706
3470.076	6791
3471.789	6759
3473.505	6756
3475.217	6680
3476.929	6787
3478.641	6697
3480.354	6663
3482.066	6693
3483.777	6784
3485.487	6668
3487.197	6633
3488.908	6641
3490.617	6739
3492.327	6594
3494.035	6638
3495.743	6589
3497.451	6613
3499.158	6643
3500.866	6542
3502.572	6537
3504.278	6649
3505.984	6637
3507.689	6506
3509.396	6647
3511.1	6526
3512.804	6491
3514.508	6506
3516.211	6529
3517.913	6579
3519.616	6568
3521.319	6553
3523.021	6509
3524.722	6631
3526.422	6536
3528.124	6521
3529.824	6439
3531.524	6498
3533.222	6447
3534.921	6395
3536.62	6485
3538.318	6593
3540.016	6412
3541.714	6431
3543.41	6410
3545.107	6523
3546.803	6510
3548.5	6354
3550.194	6438
3551.889	6388
3553.583	6319
3555.279	6371
3556.972	6530
3558.666	6489
3560.358	6603
3562.051	6515
3563.742	6409
3565.435	6396
3567.126	6608
3568.817	6427
3570.507	6380
3572.197	6287
3573.888	6465
3575.577	6362
3577.265	6411
3578.954	6390
3580.642	6435
3582.329	6315
3584.017	6399
3585.704	6350
3587.391	6357
3589.077	6363
3590.762	6295
3592.449	6380
3594.133	6353
3595.817	6296
3597.501	6304
3599.185	6183
3600.869	6215
3602.552	6257
3604.234	6299
3605.916	6316
3607.598	6386
3609.279	6114
3610.961	6142
3612.642	6319
3614.321	6133
3616	6193
3617.68	6054
3619.36	6068
3621.039	6148
3622.716	6126
3624.394	6141
3626.071	6198
3627.748	6122
3629.425	6179
3631.102	6170
3632.778	6079
3634.452	6073
3636.127	6003
3637.803	6117
3639.477	6231
3641.151	5952
3642.823	6000
3644.497	6271
3646.171	5972
3647.842	6047
3649.515	6120
3651.185	6051
3652.857	6094
3654.527	6055
3656.198	6000
3657.868	6068
3659.537	5994
3661.207	5947
3662.875	6063
3664.544	6068
3666.212	6003
3667.879	6006
3669.546	5997
3671.212	5968
3672.88	5914
3674.546	5902
3676.211	6009
3677.875	5997
3679.541	5953
3681.205	5900
3682.87	6018
3684.533	5974
3686.196	5934
3687.859	5909
3689.521	5920
3691.184	5832
3692.845	6042
3694.507	5939
3696.167	5959
3697.827	5992
3699.487	5921
3701.148	5983
3702.808	5925
3704.466	6003
3706.125	5951
3707.783	5970
3709.442	5878
3711.099	5944
3712.757	5890
3714.412	5879
3716.068	5858
3717.725	5886
3719.381	5803
3721.036	5840
3722.689	5842
3724.344	5918
3725.998	5786
3727.652	5781
3729.305	5736
3730.958	5852
3732.61	5787
3734.262	5849
3735.915	5786
3737.565	5802
3739.217	5737
3740.866	5802
3742.516	5734
3744.165	5770
3745.816	5766
3747.464	5831
3749.113	5851
3750.761	5711
3752.409	5757
3754.057	5760
3755.703	5749
3757.35	5683
3758.996	5676
3760.641	5738
3762.289	5890
3763.933	5691
3765.577	5695
3767.222	5779
3768.865	5799
3770.508	5732
3772.152	5789
3773.796	5599
3775.438	5733
3777.079	5597
3778.721	5602
3780.363	5717
3782.003	5578
3783.643	5696
3785.283	5743
3786.923	5694
3788.563	5577
3790.203	5678
3791.841	5686
3793.479	5617
3795.115	5644
3796.753	5531
3798.391	5590
3800.027	5528
3801.664	5557
3803.299	5690
3804.935	5627
3806.571	5636
3808.206	5540
3809.839	5537
3811.473	5609
3813.107	5472
3814.74	5574
3816.375	5547
3818.006	5562
3819.638	5454
3821.27	5462
3822.9	5522
3824.532	5505
3826.163	5439
3827.792	5486
3829.423	5559
3831.051	5518
3832.682	5555
3834.311	5407
3835.938	5374
3837.566	5500
3839.193	5444
3840.821	5545
3842.448	5460
3844.075	5526
3845.7	5398
3847.325	5515
3848.951	5309
3850.576	5406
3852.201	5334
3853.825	5440
3855.448	5553
3857.072	5346
3858.694	5389
3860.318	5383
3861.939	5399
3863.562	5430
3865.183	5364
3866.804	5291
3868.426	5450
3870.045	5373
3871.666	5387
3873.285	5245
3874.904	5265
3876.524	5352
3878.142	5379
3879.76	5391
3881.378	5422
3882.995	5343
3884.612	5368
3886.229	5321
3887.845	5273
3889.461	5340
3891.076	5405
3892.691	5403
3894.307	5369
3895.922	5385
3897.536	5328
3899.149	5250
3900.761	5331
3902.374	5290
3903.988	5307
3905.6	5289
3907.212	5292
3908.822	5237
3910.433	5213
3912.045	5249
3913.655	5436
3915.265	5400
3916.875	5239
3918.483	5229
3920.093	5240
3921.702	5222
3923.309	5192
3924.917	5277
3926.523	5227
3928.13	5201
3929.739	5336
3931.344	5234
3932.95	5232
3934.555	5157
3936.159	5208
3937.766	5212
3939.369	5194
3940.974	5280
3942.577	5114
3944.181	5220
3945.783	5164
3947.386	5115
3948.989	5208
3950.59	5185
3952.191	5158
3953.791	5103
3955.394	5213
3956.994	5134
3958.593	5169
3960.192	5122
3961.791	5157
3963.392	5198
3964.99	5120
3966.588	5090
3968.185	5048
3969.782	5146
3971.379	5145
3972.976	5176
3974.572	5049
3976.168	5118
3977.763	5114
3979.358	5019
3980.954	5016
3982.548	5074
3984.142	4925
3985.736	5143
3987.329	5042
3988.922	5083
3990.516	5035
3992.108	5018
3993.698	5056
3995.29	5159
3996.881	4951
3998.473	5005
4000.064	5055
4001.653	4995
4003.242	4963
4004.832	4979
4006.422	5027
4008.01	5049
4009.598	4951
4011.186	4882
4012.773	4873
4014.36	4945
4015.947	4831
4017.534	4903
4019.119	4948
4020.705	4907
4022.291	4894
4023.876	4923
4025.461	4863
4027.044	4845
4028.627	4881
4030.211	4910
4031.795	4905
4033.378	4888
4034.96	4825
4036.542	4761
4038.124	4886
4039.704	4910
4041.286	4761
4042.867	4715
4044.447	4757
4046.026	4830
4047.606	4906
4049.187	4815
4050.765	4771
4052.343	4794
4053.92	4719
4055.498	4796
4057.076	4792
4058.654	4792
4060.23	4820
4061.806	4745
4063.381	4769
4064.957	4738
4066.533	4722
4068.107	4747
4069.682	4746
4071.256	4763
4072.829	4713
4074.404	4809
4075.977	4691
4077.549	4864
4079.121	4756
4080.693	4766
4082.265	4665
4083.836	4718
4085.407	4777
4086.977	4731
4088.547	4784
4090.117	4675
4091.687	4699
4093.256	4736
4094.825	4598
4096.392	4706
4097.96	4791
4099.528	4736
4101.097	4632
4102.663	4604
4104.229	4604
4105.795	4629
4107.361	4656
4108.928	4750
4110.493	4683
4112.058	4638
4113.621	4694
4115.186	4511
4116.75	4593
4118.313	4510
4119.876	4713
4121.438	4572
4123	4636
4124.562	4526
4126.125	4578
4127.686	4603
4129.246	4513
4130.807	4576
4132.367	4565
4133.927	4596
4135.486	4539
4137.046	4541
4138.604	4580
4140.162	4577
4141.72	4426
4143.279	4499
4144.836	4517
4146.393	4466
4147.949	4413
4149.505	4496
4151.062	4398
4152.617	4404
4154.172	4444
4155.727	4488
4157.281	4477
4158.836	4473
4160.39	4505
4161.943	4446
4163.496	4537
4165.048	4339
4166.601	4400
4168.154	4433
4169.706	4428
4171.257	4468
4172.808	4441
4174.358	4346
4175.909	4400
4177.458	4441
4179.008	4372
4180.558	4344
4182.106	4455
4183.655	4410
4185.204	4421
4186.751	4339
4188.298	4339
4189.845	4437
4191.392	4342
4192.939	4377
4194.485	4431
4196.031	4389
4197.576	4301
4199.121	4382
4200.666	4300
4202.211	4368
4203.754	4230
4205.298	4362
4206.84	4373
4208.384	4387
4209.927	4302
4211.47	4306
4213.011	4284
4214.552	4214
4216.094	4241
4217.635	4343
4219.175	4243
4220.716	4286
4222.255	4258
4223.793	4312
4225.335	4244
4226.873	4305
4228.411	4308
4229.948	4262
4231.486	4259
4233.024	4321
4234.562	4291
4236.098	4209
4237.634	4252
4239.169	4290
4240.705	4217
4242.241	4272
4243.776	4234
4245.31	4246
4246.844	4203
4248.378	4146
4249.911	4264
4251.445	4154
4252.978	4188
4254.51	4153
4256.042	4229
4257.574	4204
4259.107	4253
4260.638	4203
4262.169	4162
4263.699	4152
4265.228	4191
4266.759	4185
4268.289	4129
4269.818	4166
4271.345	4220
4272.874	4102
4274.402	4141
4275.931	4164
4277.458	4134
4278.985	4140
4280.512	4102
4282.037	4148
4283.564	4122
4285.089	4186
4286.615	4155
4288.139	4086
4289.664	4110
4291.187	4107
4292.712	4070
4294.235	4130
4295.759	4093
4297.281	4031
4298.804	4003
4300.327	4076
4301.849	4068
4303.37	4146
4304.891	4060
4306.412	4053
4307.933	4058
4309.453	4067
4310.973	3991
4312.492	4073
