398.1873	3386
400.7097	3362
403.2336	3409
405.7547	3439
408.2751	3368
410.7948	3370
413.3138	3401
415.83	3488
418.3497	3391
420.8666	3394
423.3829	3559
425.8985	3499
428.4133	3531
430.9275	3496
433.441	3537
435.9538	3601
438.4639	3495
440.9753	3515
443.4881	3592
445.9982	3480
448.5055	3505
451.0142	3536
453.5201	3591
456.0274	3566
458.5361	3571
461.04	3575
463.5453	3606
466.0478	3633
468.5517	3555
471.0549	3614
473.5574	3588
476.0572	3526
478.5584	3670
481.0568	3650
483.5545	3615
486.0557	3623
488.5521	3674
491.0478	3632
493.5449	3669
496.0392	3710
498.5349	3698
501.0299	3717
503.5222	3734
506.0139	3712
508.5048	3708
510.9991	3693
513.4887	3650
515.9777	3681
518.4659	3745
520.9534	3639
523.4403	3772
525.9306	3761
528.4161	3683
530.9009	3737
533.3851	3762
535.8687	3693
538.3535	3688
540.8356	3713
543.3171	3742
545.7979	3754
548.278	3652
550.7595	3775
553.2383	3797
555.7144	3720
558.1918	3722
560.6685	3741
563.1446	3685
565.6221	3824
568.0968	3804
570.5688	3852
573.0422	3773
575.515	3877
577.989	3892
580.4584	3861
582.9291	3897
585.3991	3802
587.8685	3847
590.3352	3831
592.8052	3833
595.2706	3808
597.7372	3892
600.2033	3863
602.6666	3863
605.1334	3858
607.5953	3807
610.0587	3748
612.5193	3834
614.9814	3849
617.4427	3829
619.9034	3935
622.3615	3834
624.8208	3819
627.2775	3888
629.7335	3809
632.1929	3801
634.6476	3855
637.1016	3785
639.5569	3811
642.0096	3775
644.4637	3865
646.9151	3816
649.3678	3839
651.8179	3868
654.2672	3849
656.7159	3912
659.166	3911
661.6154	3896
664.0622	3906
666.5082	3898
668.9537	3869
671.4005	3908
673.8445	3986
676.288	3897
678.7308	4015
681.1729	3954
683.6163	3970
686.0572	3945
688.4973	4007
690.9368	4069
693.3757	3923
695.8138	3936
698.2534	4091
700.6902	3990
703.1245	3984
705.56	3991
707.9949	4015
710.4311	4051
712.8647	4063
715.2957	4140
717.7279	4050
720.1595	3973
722.5905	4055
725.0208	4072
727.4505	4025
729.8795	4102
732.3058	4118
734.7336	4149
737.1626	4046
739.587	4154
742.0128	4247
744.4359	4149
746.8604	4149
749.2841	4148
751.7073	4178
754.1278	4137
756.5496	4220
758.9688	4105
761.3893	4180
763.8093	4157
766.2285	4217
768.6451	4189
771.0611	4154
773.4784	4338
775.895	4212
778.3091	4186
780.7244	4284
783.1371	4262
785.5493	4213
787.9626	4235
790.3754	4194
792.7856	4221
795.1951	4300
797.6039	4175
800.0121	4247
802.4236	4280
804.8306	4288
807.2369	4343
809.6425	4212
812.0475	4327
814.4538	4274
816.8575	4228
819.2606	4302
821.663	4321
824.0648	4347
826.4659	4329
828.8683	4309
831.2682	4258
833.6674	4282
836.066	4369
838.4639	4295
840.8632	4297
843.2579	4315
845.6539	4317
848.0493	4330
850.444	4418
852.84	4328
855.2315	4288
857.6243	4395
860.0165	4419
862.4081	4283
864.797	4358
867.1892	4373
869.5789	4302
871.9659	4318
874.3542	4324
876.74	4421
879.129	4415
881.5155	4346
883.8994	4373
886.2845	4231
888.6671	4333
891.051	4377
893.4343	4323
895.8169	4339
898.197	4338
900.5783	4397
902.9571	4341
905.3372	4450
907.7167	4500
910.0936	4404
912.4698	4510
914.8474	4427
917.2244	4515
919.5987	4455
921.9744	4554
924.3475	4458
926.72	4512
929.0918	4542
931.4669	4500
933.8375	4469
936.2074	4557
938.5767	4622
940.9454	4669
943.3154	4720
945.6829	4738
948.0497	4757
950.4178	4909
952.7833	4973
955.1483	5117
957.5145	5260
959.8782	5371
962.2412	5281
964.6036	5258
966.9655	5205
969.3266	4966
971.6871	4949
974.0471	4800
976.4064	4662
978.765	4627
981.125	4489
983.4824	4525
985.8373	4540
988.1935	4517
990.549	4505
992.9039	4539
995.2602	4548
997.6119	4507
999.965	4605
1002.317	4513
1004.667	4474
1007.02	4556
1009.371	4606
1011.719	4603
1014.068	4527
1016.415	4538
1018.765	4527
1021.111	4553
1023.458	4534
1025.804	4572
1028.147	4669
1030.49	4568
1032.837	4700
1035.179	4688
1037.522	4548
1039.862	4552
1042.204	4587
1044.546	4601
1046.884	4632
1049.224	4664
1051.562	4595
1053.899	4639
1056.237	4631
1058.575	4650
1060.91	4625
1063.244	4648
1065.58	4576
1067.913	4659
1070.248	4762
1072.579	4736
1074.911	4701
1077.242	4653
1079.572	4632
1081.905	4632
1084.234	4646
1086.562	4592
1088.89	4712
1091.217	4578
1093.544	4584
1095.871	4625
1098.197	4585
1100.521	4668
1102.845	4649
1105.169	4716
1107.491	4637
1109.814	4627
1112.135	4737
1114.456	4679
1116.776	4654
1119.096	4696
1121.415	4598
1123.734	4630
1126.052	4568
1128.369	4665
1130.686	4643
1133.002	4570
1135.318	4683
1137.632	4652
1139.945	4678
1142.258	4721
1144.573	4722
1146.884	4626
1149.196	4671
1151.505	4614
1153.816	4672
1156.124	4697
1158.435	4678
1160.742	4742
1163.051	4649
1165.356	4645
1167.663	4682
1169.97	4628
1172.276	4754
1174.579	4677
1176.881	4575
1179.186	4674
1181.487	4782
1183.79	4776
1186.092	4738
1188.392	4668
1190.691	4705
1192.991	4662
1195.291	4691
1197.588	4618
1199.885	4670
1202.181	4651
1204.479	4758
1206.775	4775
1209.07	4705
1211.363	4698
1213.656	4776
1215.949	4816
1218.241	4711
1220.534	4781
1222.825	4702
1225.115	4729
1227.405	4834
1229.693	4697
1231.984	4726
1234.271	4677
1236.558	4799
1238.845	4870
1241.131	4929
1243.416	4875
1245.703	4758
1247.987	4830
1250.269	4701
1252.552	4795
1254.834	4869
1257.118	4824
1259.399	4867
1261.678	4753
1263.958	4827
1266.237	4893
1268.516	4819
1270.794	4795
1273.072	4788
1275.347	4880
1277.624	4780
1279.899	4899
1282.175	4790
1284.449	4798
1286.722	4821
1288.995	4872
1291.266	4907
1293.54	4824
1295.81	4860
1298.081	4811
1300.35	4810
1302.62	4849
1304.889	4776
1307.156	4840
1309.425	4751
1311.69	4816
1313.957	4786
1316.222	4664
1318.488	4853
1320.751	4737
1323.016	4895
1325.278	4741
1327.54	4865
1329.803	4773
1332.065	4772
1334.325	4758
1336.584	4895
1338.843	4894
1341.101	4794
1343.36	4832
1345.617	4822
1347.876	4877
1350.131	4843
1352.387	4760
1354.643	4781
1356.897	4844
1359.151	4832
1361.403	4838
1363.656	4732
1365.909	4837
1368.16	4842
1370.409	4877
1372.659	4793
1374.909	4950
1377.157	4929
1379.407	4845
1381.655	4871
1383.9	4893
1386.147	4865
1388.393	4981
1390.64	4935
1392.885	4975
1395.127	4827
1397.37	4923
1399.614	4925
1401.854	4908
1404.098	4952
1406.339	4901
1408.578	4968
1410.818	4891
1413.056	4901
1415.297	4863
1417.533	5040
1419.771	5000
1422.006	4923
1424.243	5082
1426.479	4977
1428.715	4950
1430.948	4909
1433.182	4941
1435.414	5008
1437.647	4986
1439.88	5121
1442.11	5070
1444.342	5004
1446.571	5050
1448.799	4988
1451.029	5159
1453.258	5112
1455.485	5062
1457.711	5101
1459.937	5121
1462.164	5056
1464.39	5012
1466.614	5059
1468.838	4907
1471.06	5002
1473.283	5023
1475.506	5044
1477.727	4956
1479.949	4961
1482.169	4886
1484.389	4896
1486.609	4914
1488.828	4968
1491.045	4913
1493.261	4849
1495.477	4855
1497.693	4936
1499.91	4944
1502.125	4847
1504.339	4883
1506.553	4921
1508.766	4942
1510.979	4769
1513.191	4794
1515.402	4919
1517.613	4950
1519.823	4961
1522.033	4835
1524.242	4956
1526.451	4922
1528.657	4892
1530.865	4927
1533.072	4908
1535.278	4851
1537.484	4959
1539.687	4891
1541.892	4926
1544.096	4993
1546.299	4948
1548.502	4927
1550.703	4853
1552.905	4999
1555.104	4924
1557.303	4934
1559.505	5025
1561.703	5066
1563.902	5014
1566.099	5004
1568.295	4961
1570.494	4932
1572.689	4985
1574.883	4925
1577.079	5018
1579.272	5012
1581.467	4991
1583.659	5004
1585.853	5101
1588.044	5104
1590.234	5029
1592.424	5058
1594.615	5103
1596.806	5095
1598.994	5091
1601.182	5017
1603.369	5059
1605.557	5091
1607.744	5131
1609.929	5101
1612.114	5063
1614.298	5096
1616.482	5138
1618.667	5059
1620.85	5171
1623.032	5087
1625.214	5024
1627.395	5223
1629.575	5076
1631.755	5085
1633.935	5015
1636.114	5167
1638.292	5089
1640.471	5237
1642.647	5132
1644.823	5210
1647	5159
1649.175	5161
1651.348	4997
1653.525	5080
1655.698	5186
1657.87	5226
1660.043	5134
1662.213	5148
1664.387	5101
1666.558	5222
1668.727	5173
1670.896	5148
1673.064	5192
1675.233	5141
1677.401	5099
1679.569	5208
1681.735	5180
1683.902	5196
1686.066	5168
1688.233	5155
1690.397	5222
1692.559	5164
1694.723	5227
1696.885	5142
1699.048	5200
1701.21	5111
1703.37	5061
1705.53	5062
1707.689	5079
1709.849	5121
1712.009	5103
1714.166	5101
1716.323	5089
1718.479	5193
1720.634	5102
1722.793	5141
1724.948	5034
1727.102	5098
1729.255	5123
1731.408	5170
1733.562	5102
1735.714	5160
1737.865	5101
1740.016	5175
1742.166	5161
1744.316	5066
1746.467	5069
1748.616	5176
1750.764	5111
1752.911	5103
1755.056	5261
1757.205	5128
1759.35	5122
1761.496	5181
1763.641	5128
1765.785	5059
1767.927	5154
1770.072	5176
1772.214	5142
1774.355	5272
1776.496	5185
1778.637	5260
1780.778	5200
1782.918	5168
1785.057	5148
1787.194	5309
1789.333	5242
1791.472	5203
1793.608	5105
1795.745	5216
1797.879	5245
1800.015	5180
1802.148	5212
1804.284	5201
1806.417	5197
1808.548	5230
1810.682	5172
1812.812	5159
1814.946	5138
1817.075	5125
1819.205	5267
1821.335	5206
1823.463	5094
1825.59	5218
1827.721	5078
1829.847	5206
1831.973	5111
1834.098	5198
1836.223	5162
1838.351	5131
1840.475	5126
1842.598	5158
1844.721	5109
1846.843	5131
1848.966	5232
1851.087	5234
1853.21	5219
1855.33	5168
1857.449	5074
1859.568	5175
1861.688	5091
1863.806	5233
1865.924	5145
1868.039	5110
1870.155	5113
1872.273	5089
1874.388	5172
1876.503	5115
1878.617	5068
1880.73	5158
1882.844	5167
1884.956	5132
1887.068	5133
1889.18	5174
1891.291	5201
1893.4	5156
1895.511	5147
1897.621	5191
1899.73	5325
1901.837	5182
1903.944	5281
1906.053	5098
1908.159	5349
1910.265	5245
1912.369	5294
1914.474	5332
1916.577	5278
1918.683	5249
1920.785	5235
1922.888	5233
1924.989	5329
1927.091	5398
1929.193	5215
1931.294	5193
1933.393	5349
1935.493	5299
1937.59	5259
1939.689	5270
1941.788	5166
1943.884	5216
1945.98	5346
1948.077	5300
1950.171	5312
1952.267	5245
1954.361	5287
1956.455	5330
1958.548	5185
1960.64	5366
1962.733	5284
1964.824	5287
1966.915	5250
1969.005	5258
1971.096	5180
1973.185	5185
1975.275	5137
1977.363	5303
1979.45	5325
1981.537	5308
1983.623	5235
1985.711	5343
1987.796	5302
1989.881	5224
1991.965	5208
1994.047	5295
1996.132	5203
1998.215	5165
2000.297	5260
2002.378	5134
2004.46	5175
2006.54	5203
2008.62	5215
2010.7	5241
2012.779	5195
2014.858	5273
2016.934	5268
2019.013	5199
2021.09	5274
2023.165	5255
2025.241	5123
2027.317	5153
2029.39	5290
2031.466	5320
2033.538	5267
2035.612	5243
2037.683	5208
2039.755	5245
2041.827	5252
2043.898	5308
2045.968	5283
2048.038	5255
2050.106	5254
2052.177	5266
2054.244	5343
2056.313	5238
2058.379	5324
2060.444	5205
2062.511	5176
2064.577	5240
2066.641	5226
2068.705	5291
2070.77	5281
2072.832	5219
2074.896	5291
2076.958	5322
2079.02	5244
2081.081	5233
2083.141	5175
2085.2	5232
2087.261	5232
2089.319	5294
2091.377	5386
2093.435	5254
2095.492	5247
2097.552	5147
2099.607	5247
2101.663	5368
2103.718	5260
2105.771	5251
2107.826	5366
2109.879	5283
2111.932	5263
2113.985	5252
2116.037	5336
2118.088	5303
2120.141	5249
2122.191	5356
2124.239	5255
2126.288	5269
2128.337	5292
2130.387	5181
2132.434	5315
2134.481	5252
2136.528	5259
2138.574	5274
2140.618	5298
2142.665	5374
2144.71	5281
2146.753	5374
2148.797	5256
2150.838	5368
2152.883	5200
2154.923	5247
2156.965	5310
2159.007	5169
2161.046	5193
2163.086	5292
2165.126	5199
2167.163	5295
2169.202	5337
2171.239	5269
2173.277	5294
2175.314	5191
2177.349	5325
2179.385	5237
2181.42	5226
2183.453	5179
2185.49	5216
2187.522	5209
2189.555	5312
2191.586	5185
2193.619	5175
2195.651	5168
2197.682	5197
2199.711	5221
2201.74	5163
2203.769	5294
2205.799	5285
2207.828	5159
2209.855	5270
2211.882	5119
2213.908	5218
2215.934	5202
2217.961	5142
2219.986	5204
2222.01	5188
2224.034	5183
2226.057	5129
2228.08	5138
2230.104	5127
2232.124	5258
2234.145	5194
2236.166	5244
2238.186	5304
2240.207	5139
2242.227	5147
2244.244	5174
2246.262	5152
2248.28	5253
2250.299	5161
2252.314	5144
2254.33	5215
2256.346	5101
2258.36	5136
2260.375	5321
2262.391	5190
2264.403	5227
2266.416	5225
2268.427	5140
2270.44	5135
2272.453	5192
2274.463	5139
2276.474	5191
2278.483	5196
2280.493	5143
2282.501	5176
2284.51	5283
2286.518	5191
2288.524	5271
2290.532	5227
2292.537	5086
2294.544	5106
2296.55	5169
2298.554	5202
2300.557	5302
2302.562	5190
2304.566	5199
2306.568	5202
2308.569	5123
2310.572	5223
2312.573	5243
2314.573	5182
2316.574	5164
2318.573	5209
2320.571	5144
2322.571	5194
2324.569	5250
2326.567	5144
2328.564	5225
2330.56	5023
2332.556	5209
2334.551	5108
2336.546	5118
2338.542	5102
2340.535	5139
2342.529	5194
2344.521	5181
2346.512	5087
2348.505	5104
2350.497	5163
2352.487	5051
2354.478	5074
2356.468	5133
2358.457	5060
2360.446	5092
2362.434	5140
2364.422	5118
2366.408	5167
2368.395	5105
2370.383	5107
2372.369	5052
2374.353	5152
2376.338	5105
2378.321	5085
2380.307	5094
2382.29	5173
2384.272	5123
2386.254	5096
2388.235	5029
2390.218	5077
2392.198	5076
2394.179	5094
2396.157	5035
2398.137	5161
2400.115	4952
2402.095	4983
2404.072	5082
2406.048	5078
2408.026	5056
2410.001	5163
2411.977	5183
2413.953	5083
2415.927	5031
2417.9	5061
2419.875	5127
2421.847	5114
2423.821	4995
2425.792	5030
2427.763	5147
2429.736	5134
2431.706	5014
2433.677	5120
2435.646	4998
2437.615	5063
2439.583	5030
2441.551	5057
2443.519	5069
2445.486	4986
2447.452	5104
2449.418	5002
2451.383	5045
2453.348	5094
2455.314	5083
2457.278	4964
2459.241	5090
2461.205	5058
2463.167	4990
2465.131	5147
2467.091	5029
2469.052	5093
2471.012	5078
2472.972	5163
2474.932	4990
2476.891	5029
2478.85	5112
2480.808	4973
2482.766	5033
2484.722	5110
2486.68	5058
2488.636	4930
2490.591	4964
2492.546	5001
2494.5	4989
2496.456	5017
2498.41	5068
2500.362	4927
2502.315	4887
2504.266	5197
2506.218	4928
2508.169	5012
2510.121	4956
2512.07	4999
2514.019	5012
2515.968	5043
2517.918	4986
2519.866	5020
2521.813	5013
2523.76	5011
2525.707	5053
2527.653	5041
2529.599	5041
2531.543	4929
2533.489	5132
2535.433	4976
2537.376	4828
2539.32	5041
2541.264	5070
2543.205	4909
2545.147	5054
2547.087	5024
2549.029	5090
2550.969	5092
2552.908	4971
2554.847	5086
2556.786	5031
2558.724	5060
2560.663	5097
2562.6	4997
2564.537	5058
2566.473	5084
2568.408	5069
2570.345	4909
2572.28	4999
2574.214	4946
2576.148	5031
2578.081	4996
2580.014	5043
2581.947	5024
2583.879	5034
2585.81	5057
2587.741	5161
2589.67	4940
2591.602	5028
2593.532	5040
2595.461	5005
2597.388	4950
2599.316	5061
2601.244	5042
2603.172	4960
2605.098	5016
2607.023	4992
2608.949	5122
2610.873	5061
2612.8	5037
2614.723	5067
2616.647	5088
2618.569	5063
2620.493	5030
2622.416	5044
2624.338	5042
2626.258	5013
2628.179	5105
2630.099	5089
2632.019	5063
2633.939	4980
2635.857	5076
2637.775	5108
2639.694	5018
2641.61	5104
2643.528	5047
2645.444	5062
2647.361	4996
2649.276	4997
2651.19	5126
2653.105	5131
2655.019	5074
2656.934	5072
2658.846	5041
2660.758	5048
2662.67	5008
2664.583	5038
2666.493	5153
2668.404	5048
2670.313	5017
2672.223	5055
2674.134	4944
2676.042	5026
2677.95	5070
2679.858	5025
2681.765	4998
2683.673	4981
2685.579	5026
2687.483	5056
2689.389	5055
2691.294	4873
2693.198	5025
2695.104	5035
2697.006	5025
2698.909	4980
2700.811	4950
2702.713	5027
2704.615	4998
2706.516	5008
2708.417	5032
2710.316	5057
2712.216	5004
2714.115	5027
2716.014	4979
2717.913	5025
2719.81	4842
2721.707	4919
2723.603	5057
2725.501	4993
2727.396	4971
2729.292	4969
2731.186	5044
2733.081	4924
2734.976	4945
2736.87	4930
2738.762	5003
2740.653	4940
2742.546	4912
2744.437	4899
2746.329	4896
2748.22	4951
2750.11	4992
2751.999	4940
2753.889	4886
2755.778	4976
2757.666	4936
2759.553	4976
2761.44	4865
2763.328	4993
2765.215	4944
2767.101	4827
2768.986	4947
2770.87	4868
2772.754	5012
2774.638	4940
2776.523	4991
2778.405	4874
2780.288	4997
2782.17	4938
2784.051	4864
2785.934	4943
2787.814	4945
2789.694	4930
2791.574	4865
2793.453	4986
2795.332	4958
2797.212	4972
2799.088	4980
2800.966	4975
2802.843	4919
2804.719	4886
2806.597	4923
2808.471	4929
2810.346	4957
2812.221	4848
2814.094	4958
2815.969	4945
2817.843	4892
2819.714	4888
2821.587	4851
2823.459	4946
2825.329	4911
2827.202	4943
2829.072	4872
2830.942	4891
2832.811	4919
2834.68	4933
2836.549	4887
2838.418	4827
2840.284	4847
2842.152	4903
2844.018	4880
2845.885	4848
2847.751	4949
2849.616	4880
2851.482	4910
2853.345	4894
2855.208	4900
2857.074	4907
2858.937	4975
2860.799	4920
2862.66	4903
2864.522	4972
2866.385	4938
2868.245	4999
2870.104	5137
2871.964	5169
2873.824	4944
2875.683	5035
2877.542	5191
2879.4	5107
2881.257	5123
2883.114	5207
2884.97	5217
2886.827	5190
2888.683	5209
2890.537	5231
2892.392	5269
2894.246	5166
2896.1	5277
2897.954	5191
2899.807	5196
2901.66	5198
2903.51	5167
2905.362	5235
2907.214	5198
2909.065	5178
2910.915	5261
2912.765	5342
2914.613	5149
2916.463	5297
2918.311	5284
2920.158	5277
2922.006	5355
2923.853	5352
2925.698	5296
2927.546	5393
2929.392	5442
2931.236	5413
2933.081	5476
2934.924	5471
2936.77	5531
2938.613	5617
2940.455	5641
2942.298	5506
2944.139	5536
2945.982	5576
2947.823	5672
2949.662	5570
2951.503	5630
2953.342	5553
2955.182	5510
2957.021	5483
2958.858	5474
2960.697	5382
2962.534	5408
2964.37	5497
2966.207	5346
2968.044	5370
2969.879	5322
2971.714	5197
2973.548	5221
2975.383	5243
2977.218	5253
2979.051	5077
2980.883	5193
2982.715	5213
2984.547	5142
2986.379	5172
2988.21	5025
2990.04	5147
2991.87	5155
2993.7	5106
2995.53	5073
2997.359	5112
2999.187	4924
3001.015	4937
3002.842	4897
3004.669	4983
3006.497	4975
3008.323	4869
3010.148	4878
3011.974	4797
3013.797	4756
3015.623	4853
3017.447	4768
3019.27	4871
3021.094	4765
3022.915	4691
3024.737	4837
3026.56	4715
3028.38	4834
3030.201	4665
3032.022	4791
3033.84	4789
3035.662	4752
3037.481	4694
3039.298	4718
3041.117	4787
3042.933	4729
3044.752	4689
3046.568	4736
3048.385	4719
3050.2	4701
3052.016	4633
3053.83	4644
3055.646	4694
3057.46	4746
3059.272	4700
3061.086	4762
3062.898	4682
3064.711	4627
3066.524	4755
3068.335	4664
3070.145	4675
3071.956	4737
3073.766	4670
3075.576	4683
3077.385	4711
3079.193	4590
3081.002	4556
3082.81	4549
3084.618	4645
3086.425	4613
3088.231	4705
3090.036	4642
3091.842	4569
3093.648	4591
3095.452	4599
3097.257	4619
3099.06	4620
3100.863	4524
3102.666	4677
3104.47	4611
3106.272	4584
3108.073	4558
3109.875	4511
3111.676	4568
3113.477	4590
3115.277	4546
3117.077	4568
3118.874	4516
3120.673	4611
3122.473	4547
3124.271	4553
3126.066	4465
3127.863	4491
3129.66	4549
3131.456	4496
3133.252	4484
3135.047	4583
3136.842	4544
3138.635	4481
3140.429	4520
3142.223	4520
3144.016	4509
3145.808	4523
3147.6	4507
3149.392	4461
3151.183	4420
3152.975	4454
3154.765	4406
3156.553	4478
3158.344	4440
3160.132	4375
3161.922	4463
3163.71	4527
3165.497	4475
3167.285	4524
3169.071	4507
3170.858	4497
3172.645	4373
3174.429	4571
3176.214	4559
3177.998	4504
3179.783	4508
3181.568	4500
3183.351	4488
3185.133	4426
3186.915	4490
3188.698	4475
3190.481	4436
3192.261	4416
3194.042	4414
3195.822	4380
3197.601	4392
3199.381	4463
3201.161	4424
3202.939	4436
3204.717	4451
3206.495	4437
3208.272	4428
3210.05	4435
3211.826	4501
3213.602	4404
3215.376	4493
3217.151	4410
3218.927	4432
3220.702	4415
3222.476	4334
3224.249	4418
3226.021	4346
3227.793	4379
3229.567	4344
3231.339	4406
3233.109	4248
3234.88	4386
3236.651	4298
3238.421	4343
3240.191	4320
3241.96	4438
3243.728	4340
3245.497	4426
3247.263	4301
3249.033	4434
3250.799	4431
3252.566	4537
3254.331	4323
3256.097	4333
3257.863	4404
3259.628	4372
3261.392	4423
3263.156	4309
3264.919	4354
3266.683	4343
3268.447	4346
3270.208	4392
3271.969	4327
3273.731	4377
3275.492	4428
3277.253	4375
3279.013	4405
3280.773	4342
3282.532	4411
3284.291	4418
3286.05	4337
3287.808	4364
3289.566	4479
3291.323	4460
3293.079	4359
3294.835	4333
3296.593	4412
3298.348	4366
3300.102	4377
3301.857	4340
3303.611	4420
3305.366	4401
3307.119	4304
3308.872	4424
3310.624	4286
3312.376	4305
3314.129	4378
3315.881	4357
3317.631	4435
3319.38	4372
3321.13	4344
3322.88	4323
3324.631	4436
3326.379	4351
3328.126	4490
3329.875	4397
3331.622	4295
3333.371	4360
3335.116	4393
3336.863	4358
3338.609	4316
3340.353	4337
3342.1	4431
3343.845	4334
3345.588	4339
3347.332	4253
3349.074	4288
3350.817	4275
3352.56	4328
3354.303	4281
3356.043	4340
3357.785	4295
3359.525	4372
3361.268	4322
3363.007	4359
3364.745	4222
3366.485	4306
3368.223	4302
3369.962	4299
3371.701	4319
3373.438	4326
3375.174	4223
3376.911	4207
3378.647	4305
3380.384	4213
3382.118	4251
3383.854	4241
3385.588	4248
3387.322	4276
3389.057	4306
3390.79	4353
3392.522	4239
3394.255	4259
3395.987	4229
3397.719	4285
3399.451	4216
3401.181	4246
3402.911	4244
3404.641	4258
3406.371	4262
3408.101	4288
3409.83	4189
3411.558	4202
3413.285	4204
3415.011	4323
3416.739	4256
3418.467	4210
3420.193	4280
3421.919	4220
3423.644	4273
3425.368	4208
3427.094	4128
3428.818	4175
3430.542	4083
3432.264	4085
3433.987	4192
3435.712	4253
3437.434	4140
3439.155	4200
3440.876	4194
3442.596	4216
3444.317	4222
3446.039	4105
3447.757	4175
3449.477	4118
3451.195	4118
3452.914	4179
3454.632	4058
3456.35	4156
3458.067	4150
3459.784	4135
3461.5	4082
3463.216	4121
3464.932	4158
3466.647	4145
3468.362	4098
3470.076	4180
3471.789	4049
3473.505	4080
3475.217	4061
3476.929	4067
3478.641	4182
3480.354	4170
3482.066	4045
3483.777	4039
3485.487	3975
3487.197	4086
3488.908	4110
3490.617	4100
3492.327	4083
3494.035	4082
3495.743	4030
3497.451	4171
3499.158	4003
3500.866	4045
3502.572	4055
3504.278	4052
3505.984	4037
3507.689	3877
3509.396	4033
3511.1	4005
3512.804	3932
3514.508	4040
3516.211	4031
3517.913	3947
3519.616	4042
3521.319	4011
3523.021	3998
3524.722	3991
3526.422	3941
3528.124	4002
3529.824	3952
3531.524	4006
3533.222	3974
3534.921	3954
3536.62	3971
3538.318	3964
3540.016	3900
3541.714	3943
3543.41	4004
3545.107	3967
3546.803	3915
3548.5	3901
3550.194	3866
3551.889	3986
3553.583	3940
3555.279	3957
3556.972	3955
3558.666	3985
3560.358	3893
3562.051	4048
3563.742	3944
3565.435	3951
3567.126	3948
3568.817	3970
3570.507	3937
3572.197	3854
3573.888	3845
3575.577	3879
3577.265	3927
3578.954	3934
3580.642	3924
3582.329	3946
3584.017	3906
3585.704	3907
3587.391	3865
3589.077	3803
3590.762	3836
3592.449	3886
3594.133	3890
3595.817	3863
3597.501	3833
3599.185	3885
3600.869	3789
3602.552	3817
3604.234	3781
3605.916	3895
3607.598	3778
3609.279	3795
3610.961	3805
3612.642	3801
3614.321	3839
3616	3830
3617.68	3814
3619.36	3839
3621.039	3806
3622.716	3739
3624.394	3828
3626.071	3738
3627.748	3749
3629.425	3794
3631.102	3732
3632.778	3743
3634.452	3670
3636.127	3689
3637.803	3764
3639.477	3729
3641.151	3682
3642.823	3788
3644.497	3738
3646.171	3735
3647.842	3711
3649.515	3744
3651.185	3721
3652.857	3679
3654.527	3729
3656.198	3639
3657.868	3759
3659.537	3666
3661.207	3731
3662.875	3674
3664.544	3619
3666.212	3735
3667.879	3700
3669.546	3715
3671.212	3686
3672.88	3713
3674.546	3718
3676.211	3653
3677.875	3689
3679.541	3665
3681.205	3677
3682.87	3715
3684.533	3642
3686.196	3678
3687.859	3679
3689.521	3685
3691.184	3758
3692.845	3641
3694.507	3667
3696.167	3579
3697.827	3572
3699.487	3583
3701.148	3592
3702.808	3684
3704.466	3701
3706.125	3785
3707.783	3663
3709.442	3632
3711.099	3613
3712.757	3674
3714.412	3642
3716.068	3604
3717.725	3724
3719.381	3605
3721.036	3511
3722.689	3690
3724.344	3565
3725.998	3565
3727.652	3613
3729.305	3664
3730.958	3574
3732.61	3641
3734.262	3544
3735.915	3593
3737.565	3576
3739.217	3633
3740.866	3609
3742.516	3595
3744.165	3585
3745.816	3570
3747.464	3526
3749.113	3643
3750.761	3545
3752.409	3514
3754.057	3540
3755.703	3570
3757.35	3621
3758.996	3599
3760.641	3502
3762.289	3593
3763.933	3510
3765.577	3497
3767.222	3493
3768.865	3481
3770.508	3528
3772.152	3506
3773.796	3566
3775.438	3578
3777.079	3564
3778.721	3555
3780.363	3471
3782.003	3552
3783.643	3527
3785.283	3551
3786.923	3524
3788.563	3477
3790.203	3489
3791.841	3477
3793.479	3496
3795.115	3473
3796.753	3532
3798.391	3493
3800.027	3489
3801.664	3484
3803.299	3490
3804.935	3465
3806.571	3545
3808.206	3459
3809.839	3486
3811.473	3559
3813.107	3478
3814.74	3468
3816.375	3433
3818.006	3487
3819.638	3469
3821.27	3446
3822.9	3404
3824.532	3455
3826.163	3447
3827.792	3480
3829.423	3414
3831.051	3450
3832.682	3414
3834.311	3485
3835.938	3364
3837.566	3449
3839.193	3417
3840.821	3419
3842.448	3431
3844.075	3363
3845.7	3388
3847.325	3407
3848.951	3388
3850.576	3366
3852.201	3378
3853.825	3286
3855.448	3358
3857.072	3474
3858.694	3320
3860.318	3308
3861.939	3351
3863.562	3408
3865.183	3358
3866.804	3410
3868.426	3340
3870.045	3363
3871.666	3371
3873.285	3394
3874.904	3370
3876.524	3388
3878.142	3334
3879.76	3371
3881.378	3350
3882.995	3305
3884.612	3351
3886.229	3352
3887.845	3343
3889.461	3332
3891.076	3363
3892.691	3302
3894.307	3331
3895.922	3224
3897.536	3293
3899.149	3340
3900.761	3352
3902.374	3357
3903.988	3376
3905.6	3249
3907.212	3259
3908.822	3296
3910.433	3328
3912.045	3328
3913.655	3329
3915.265	3318
3916.875	3264
3918.483	3391
3920.093	3271
3921.702	3285
3923.309	3281
3924.917	3394
3926.523	3303
3928.13	3300
3929.739	3229
3931.344	3245
3932.95	3324
3934.555	3277
3936.159	3234
3937.766	3264
3939.369	3362
3940.974	3355
3942.577	3279
3944.181	3360
3945.783	3259
3947.386	3318
3948.989	3278
3950.59	3251
3952.191	3213
3953.791	3310
3955.394	3245
3956.994	3267
3958.593	3225
3960.192	3148
3961.791	3268
3963.392	3274
3964.99	3236
3966.588	3212
3968.185	3269
3969.782	3210
3971.379	3251
3972.976	3209
3974.572	3178
3976.168	3251
3977.763	3301
3979.358	3177
3980.954	3159
3982.548	3192
3984.142	3234
3985.736	3186
3987.329	3147
3988.922	3244
3990.516	3213
3992.108	3175
3993.698	3243
3995.29	3195
3996.881	3168
3998.473	3150
4000.064	3142
4001.653	3228
4003.242	3162
4004.832	3143
4006.422	3085
4008.01	3089
4009.598	3182
4011.186	3122
4012.773	3137
4014.36	3195
4015.947	3103
4017.534	3147
4019.119	3143
4020.705	3229
4022.291	3112
4023.876	3137
4025.461	3086
4027.044	3003
4028.627	3191
4030.211	3091
4031.795	3099
4033.378	3117
4034.96	3107
4036.542	3089
4038.124	3140
4039.704	3054
4041.286	3060
4042.867	3107
4044.447	3093
4046.026	3069
4047.606	3145
4049.187	3036
4050.765	3119
4052.343	2964
4053.92	3030
4055.498	3113
4057.076	3026
4058.654	3069
4060.23	3079
4061.806	3064
4063.381	3033
4064.957	3085
4066.533	2965
4068.107	3044
4069.682	3046
4071.256	3033
4072.829	3041
4074.404	3056
4075.977	3037
4077.549	3018
4079.121	3076
4080.693	3033
4082.265	2990
4083.836	3016
4085.407	3090
4086.977	3020
4088.547	3081
4090.117	2946
4091.687	2989
4093.256	2963
4094.825	2991
4096.392	2992
4097.96	3092
4099.528	3035
4101.097	3060
4102.663	2918
4104.229	2982
4105.795	3069
4107.361	2983
4108.928	2988
4110.493	3032
4112.058	2917
4113.621	2973
4115.186	2939
4116.75	2959
4118.313	2940
4119.876	2976
4121.438	3002
4123	2997
4124.562	2925
4126.125	2984
4127.686	2939
4129.246	2922
4130.807	3037
4132.367	2934
4133.927	2881
4135.486	2950
4137.046	2975
4138.604	2902
4140.162	2915
4141.72	2887
4143.279	2891
4144.836	2901
4146.393	2932
4147.949	2900
4149.505	2895
4151.062	2884
4152.617	2920
4154.172	2886
4155.727	2836
4157.281	2915
4158.836	2924
4160.39	2816
4161.943	2866
4163.496	2878
4165.048	2923
4166.601	2847
4168.154	2912
4169.706	2873
4171.257	2908
4172.808	2808
4174.358	2830
4175.909	2948
4177.458	2838
4179.008	2850
4180.558	2846
4182.106	2868
4183.655	2849
4185.204	2783
4186.751	2845
4188.298	2904
4189.845	2821
4191.392	2767
4192.939	2787
4194.485	2815
4196.031	2867
4197.576	2830
4199.121	2832
4200.666	2784
4202.211	2780
4203.754	2819
4205.298	2841
4206.84	2851
4208.384	2799
4209.927	2826
4211.47	2779
4213.011	2850
4214.552	2791
4216.094	2773
4217.635	2798
4219.175	2792
4220.716	2828
4222.255	2848
4223.793	2791
4225.335	2708
4226.873	2731
4228.411	2801
4229.948	2733
4231.486	2753
4233.024	2696
4234.562	2775
4236.098	2789
4237.634	2851
4239.169	2814
4240.705	2703
4242.241	2747
4243.776	2751
4245.31	2737
4246.844	2753
4248.378	2736
4249.911	2784
4251.445	2761
4252.978	2702
4254.51	2778
4256.042	2794
4257.574	2790
4259.107	2759
4260.638	2708
4262.169	2681
4263.699	2759
4265.228	2669
4266.759	2814
4268.289	2656
4269.818	2755
4271.345	2709
4272.874	2764
4274.402	2714
4275.931	2693
4277.458	2652
4278.985	2699
4280.512	2734
4282.037	2752
4283.564	2653
4285.089	2678
4286.615	2680
4288.139	2774
4289.664	2695
4291.187	2711
4292.712	2765
4294.235	2648
4295.759	2649
4297.281	2658
4298.804	2631
4300.327	2653
4301.849	2690
4303.37	2673
4304.891	2644
4306.412	2670
4307.933	2644
4309.453	2634
4310.973	2673
4312.492	2619
