398.1873	6111
400.7097	6043
403.2336	6146
405.7547	6067
408.2751	6022
410.7948	6111
413.3138	6265
415.83	6313
418.3497	6244
420.8666	6361
423.3829	6352
425.8985	6358
428.4133	6413
430.9275	6411
433.441	6352
435.9538	6489
438.4639	6484
440.9753	6545
443.4881	6543
445.9982	6465
448.5055	6466
451.0142	6460
453.5201	6510
456.0274	6488
458.5361	6498
461.04	6508
463.5453	6519
466.0478	6468
468.5517	6635
471.0549	6372
473.5574	6610
476.0572	6477
478.5584	6537
481.0568	6610
483.5545	6533
486.0557	6694
488.5521	6617
491.0478	6606
493.5449	6606
496.0392	6706
498.5349	6613
501.0299	6762
503.5222	6731
506.0139	6733
508.5048	6663
510.9991	6706
513.4887	6716
515.9777	6871
518.4659	6760
520.9534	6763
523.4403	6776
525.9306	6748
528.4161	6808
530.9009	6877
533.3851	6869
535.8687	6770
538.3535	6791
540.8356	6797
543.3171	6788
545.7979	6879
548.278	6835
550.7595	6769
553.2383	6823
555.7144	6855
558.1918	6766
560.6685	6985
563.1446	6940
565.6221	6935
568.0968	6894
570.5688	6925
573.0422	6979
575.515	7086
577.989	7143
580.4584	6972
582.9291	7038
585.3991	7141
587.8685	7161
590.3352	7150
592.8052	7153
595.2706	7110
597.7372	6965
600.2033	7082
602.6666	7099
605.1334	7042
607.5953	7067
610.0587	7109
612.5193	7075
614.9814	7022
617.4427	7051
619.9034	6896
622.3615	6939
624.8208	6982
627.2775	7059
629.7335	7004
632.1929	7034
634.6476	7034
637.1016	7034
639.5569	7091
642.0096	6997
644.4637	7087
646.9151	7187
649.3678	7168
651.8179	6954
654.2672	7204
656.7159	7108
659.166	7097
661.6154	7194
664.0622	7094
666.5082	7094
668.9537	7225
671.4005	7225
673.8445	7237
676.288	7206
678.7308	7234
681.1729	7196
683.6163	7187
686.0572	7152
688.4973	7259
690.9368	7299
693.3757	7371
695.8138	7376
698.2534	7306
700.6902	7285
703.1245	7469
705.56	7320
707.9949	7399
710.4311	7372
712.8647	7331
715.2957	7267
717.7279	7463
720.1595	7377
722.5905	7417
725.0208	7439
727.4505	7507
729.8795	7510
732.3058	7517
734.7336	7581
737.1626	7553
739.587	7655
742.0128	7661
744.4359	7553
746.8604	7541
749.2841	7780
751.7073	7729
754.1278	7746
756.5496	7725
758.9688	7815
761.3893	7909
763.8093	7768
766.2285	7649
768.6451	7915
771.0611	7761
773.4784	7763
775.895	7805
778.3091	7863
780.7244	7848
783.1371	7949
785.5493	7844
787.9626	7737
790.3754	7822
792.7856	7706
795.1951	7698
797.6039	7737
800.0121	7821
802.4236	7971
804.8306	7888
807.2369	7755
809.6425	7846
812.0475	7950
814.4538	7778
816.8575	7955
819.2606	7955
821.663	7882
824.0648	7962
826.4659	7792
828.8683	7885
831.2682	7928
833.6674	7906
836.066	7919
838.4639	7893
840.8632	8039
843.2579	8005
845.6539	7957
848.0493	8062
850.444	8050
852.84	8145
855.2315	8125
857.6243	7989
860.0165	8165
862.4081	8042
864.797	7930
867.1892	7897
869.5789	8063
871.9659	7991
874.3542	8096
876.74	8132
879.129	8006
881.5155	8168
883.8994	7965
886.2845	8024
888.6671	7916
891.051	7964
893.4343	8124
895.8169	8008
898.197	8099
900.5783	8063
902.9571	7907
905.3372	8097
907.7167	8143
910.0936	7993
912.4698	8204
914.8474	8178
917.2244	8170
919.5987	8269
921.9744	8290
924.3475	8347
926.72	8312
929.0918	8265
931.4669	8354
933.8375	8428
936.2074	8474
938.5767	8428
940.9454	8606
943.3154	8717
945.6829	8686
948.0497	8981
950.4178	9082
952.7833	9386
955.1483	9506
957.5145	10005
959.8782	10062
962.2412	10015
964.6036	9898
966.9655	9460
969.3266	9101
971.6871	8941
974.0471	8653
976.4064	8563
978.765	8425
981.125	8302
983.4824	8264
985.8373	8311
988.1935	8303
990.549	8350
992.9039	8269
995.2602	8135
997.6119	8172
999.965	8228
1002.317	8516
1004.667	8433
1007.02	8375
1009.371	8391
1011.719	8239
1014.068	8376
1016.415	8433
1018.765	8398
1021.111	8427
1023.458	8504
1025.804	8349
1028.147	8309
1030.49	8315
1032.837	8434
1035.179	8391
1037.522	8489
1039.862	8471
1042.204	8471
1044.546	8429
1046.884	8443
1049.224	8488
1051.562	8486
1053.899	8501
1056.237	8571
1058.575	8374
1060.91	8565
1063.244	8412
1065.58	8515
1067.913	8540
1070.248	8659
1072.579	8756
1074.911	8709
1077.242	8596
1079.572	8610
1081.905	8499
1084.234	8705
1086.562	8467
1088.89	8446
1091.217	8411
1093.544	8578
1095.871	8463
1098.197	8575
1100.521	8539
1102.845	8530
1105.169	8509
1107.491	8422
1109.814	8519
1112.135	8456
1114.456	8333
1116.776	8520
1119.096	8541
1121.415	8417
1123.734	8606
1126.052	8675
1128.369	8713
1130.686	8444
1133.002	8515
1135.318	8627
1137.632	8607
1139.945	8645
1142.258	8603
1144.573	8551
1146.884	8634
1149.196	8710
1151.505	8532
1153.816	8602
1156.124	8625
1158.435	8507
1160.742	8626
1163.051	8581
1165.356	8633
1167.663	8618
1169.97	8650
1172.276	8451
1174.579	8519
1176.881	8580
1179.186	8532
1181.487	8552
1183.79	8582
1186.092	8686
1188.392	8581
1190.691	8527
1192.991	8514
1195.291	8503
1197.588	8516
1199.885	8603
1202.181	8533
1204.479	8597
1206.775	8603
1209.07	8547
1211.363	8613
1213.656	8655
1215.949	8681
1218.241	8715
1220.534	8543
1222.825	8567
1225.115	8711
1227.405	8657
1229.693	8739
1231.984	8824
1234.271	8802
1236.558	8732
1238.845	8882
1241.131	8826
1243.416	9048
1245.703	8916
1247.987	8886
1250.269	8888
1252.552	8672
1254.834	8816
1257.118	8900
1259.399	8719
1261.678	8827
1263.958	8823
1266.237	8861
1268.516	8945
1270.794	8836
1273.072	8866
1275.347	8901
1277.624	8718
1279.899	8880
1282.175	8804
1284.449	8825
1286.722	8879
1288.995	8697
1291.266	8814
1293.54	8755
1295.81	8806
1298.081	8948
1300.35	8733
1302.62	8740
1304.889	8784
1307.156	8720
1309.425	8797
1311.69	8710
1313.957	8776
1316.222	8689
1318.488	8822
1320.751	8752
1323.016	8834
1325.278	8738
1327.54	8697
1329.803	8806
1332.065	8711
1334.325	8776
1336.584	8854
1338.843	8645
1341.101	8711
1343.36	8766
1345.617	8876
1347.876	8773
1350.131	8908
1352.387	8785
1354.643	8713
1356.897	8737
1359.151	8725
1361.403	8739
1363.656	8736
1365.909	8929
1368.16	8894
1370.409	8748
1372.659	8899
1374.909	8878
1377.157	8863
1379.407	8803
1381.655	8839
1383.9	8832
1386.147	8803
1388.393	8710
1390.64	9016
1392.885	8837
1395.127	8994
1397.37	8816
1399.614	9001
1401.854	8911
1404.098	8951
1406.339	8942
1408.578	8900
1410.818	9038
1413.056	9082
1415.297	8884
1417.533	8938
1419.771	8902
1422.006	9098
1424.243	8898
1426.479	8901
1428.715	8947
1430.948	9087
1433.182	9013
1435.414	9016
1437.647	9054
1439.88	9239
1442.11	9174
1444.342	9235
1446.571	9133
1448.799	9096
1451.029	9113
1453.258	9283
1455.485	9326
1457.711	9142
1459.937	9298
1462.164	9149
1464.39	9073
1466.614	9148
1468.838	9047
1471.06	9174
1473.283	9086
1475.506	9143
1477.727	9066
1479.949	8912
1482.169	9149
1484.389	8806
1486.609	8953
1488.828	8855
1491.045	8874
1493.261	8906
1495.477	8825
1497.693	8919
1499.91	8978
1502.125	8935
1504.339	8958
1506.553	9006
1508.766	8877
1510.979	8857
1513.191	8809
1515.402	8903
1517.613	8812
1519.823	8907
1522.033	8837
1524.242	8783
1526.451	8817
1528.657	8949
1530.865	8932
1533.072	8902
1535.278	8968
1537.484	8811
1539.687	8884
1541.892	8804
1544.096	8929
1546.299	9101
1548.502	9058
1550.703	8971
1552.905	9100
1555.104	8955
1557.303	8968
1559.505	8931
1561.703	8980
1563.902	9035
1566.099	9013
1568.295	9139
1570.494	9055
1572.689	8977
1574.883	9124
1577.079	9114
1579.272	9119
1581.467	9189
1583.659	9216
1585.853	9217
1588.044	9127
1590.234	9132
1592.424	9181
1594.615	9247
1596.806	9337
1598.994	9268
1601.182	9194
1603.369	9074
1605.557	9116
1607.744	9217
1609.929	9299
1612.114	9271
1614.298	9190
1616.482	9229
1618.667	9130
1620.85	9277
1623.032	9249
1625.214	9247
1627.395	9384
1629.575	9183
1631.755	9286
1633.935	9405
1636.114	9203
1638.292	9330
1640.471	9199
1642.647	9265
1644.823	9126
1647	9218
1649.175	9303
1651.348	9337
1653.525	9434
1655.698	9263
1657.87	9412
1660.043	9346
1662.213	9382
1664.387	9484
1666.558	9212
1668.727	9440
1670.896	9184
1673.064	9434
1675.233	9300
1677.401	9359
1679.569	9378
1681.735	9253
1683.902	9467
1686.066	9334
1688.233	9481
1690.397	9358
1692.559	9221
1694.723	9216
1696.885	9407
1699.048	9214
1701.21	9215
1703.37	9204
1705.53	9273
1707.689	9226
1709.849	9248
1712.009	9322
1714.166	9225
1716.323	9163
1718.479	9272
1720.634	9217
1722.793	9155
1724.948	9279
1727.102	9294
1729.255	9231
1731.408	9243
1733.562	9272
1735.714	9118
1737.865	9268
1740.016	9198
1742.166	9216
1744.316	9268
1746.467	9181
1748.616	9194
1750.764	9294
1752.911	9118
1755.056	9341
1757.205	9221
1759.35	9354
1761.496	9226
1763.641	9262
1765.785	9275
1767.927	9435
1770.072	9177
1772.214	9375
1774.355	9307
1776.496	9367
1778.637	9439
1780.778	9451
1782.918	9278
1785.057	9196
1787.194	9412
1789.333	9459
1791.472	9305
1793.608	9341
1795.745	9322
1797.879	9392
1800.015	9353
1802.148	9239
1804.284	9369
1806.417	9339
1808.548	9443
1810.682	9423
1812.812	9340
1814.946	9240
1817.075	9224
1819.205	9319
1821.335	9344
1823.463	9351
1825.59	9357
1827.721	9277
1829.847	9315
1831.973	9295
1834.098	9233
1836.223	9371
1838.351	9329
1840.475	9301
1842.598	9358
1844.721	9376
1846.843	9341
1848.966	9386
1851.087	9265
1853.21	9249
1855.33	9350
1857.449	9376
1859.568	9180
1861.688	9256
1863.806	9274
1865.924	9280
1868.039	9357
1870.155	9420
1872.273	9341
1874.388	9263
1876.503	9281
1878.617	9347
1880.73	9211
1882.844	9378
1884.956	9374
1887.068	9303
1889.18	9231
1891.291	9268
1893.4	9368
1895.511	9326
1897.621	9378
1899.73	9448
1901.837	9210
1903.944	9363
1906.053	9444
1908.159	9460
1910.265	9376
1912.369	9523
1914.474	9519
1916.577	9489
1918.683	9496
1920.785	9380
1922.888	9523
1924.989	9414
1927.091	9390
1929.193	9464
1931.294	9391
1933.393	9487
1935.493	9403
1937.59	9571
1939.689	9452
1941.788	9313
1943.884	9460
1945.98	9523
1948.077	9494
1950.171	9483
1952.267	9502
1954.361	9419
1956.455	9433
1958.548	9510
1960.64	9448
1962.733	9372
1964.824	9418
1966.915	9356
1969.005	9472
1971.096	9456
1973.185	9424
1975.275	9333
1977.363	9366
1979.45	9256
1981.537	9398
1983.623	9517
1985.711	9545
1987.796	9351
1989.881	9312
1991.965	9524
1994.047	9269
1996.132	9309
1998.215	9368
2000.297	9340
2002.378	9457
2004.46	9385
2006.54	9266
2008.62	9234
2010.7	9312
2012.779	9395
2014.858	9386
2016.934	9382
2019.013	9430
2021.09	9411
2023.165	9361
2025.241	9307
2027.317	9414
2029.39	9473
2031.466	9483
2033.538	9390
2035.612	9443
2037.683	9331
2039.755	9323
2041.827	9318
2043.898	9351
2045.968	9401
2048.038	9370
2050.106	9456
2052.177	9315
2054.244	9389
2056.313	9352
2058.379	9293
2060.444	9466
2062.511	9408
2064.577	9384
2066.641	9387
2068.705	9396
2070.77	9447
2072.832	9346
2074.896	9383
2076.958	9309
2079.02	9207
2081.081	9323
2083.141	9405
2085.2	9377
2087.261	9343
2089.319	9357
2091.377	9541
2093.435	9322
2095.492	9365
2097.552	9381
2099.607	9333
2101.663	9247
2103.718	9411
2105.771	9435
2107.826	9484
2109.879	9447
2111.932	9394
2113.985	9403
2116.037	9529
2118.088	9374
2120.141	9408
2122.191	9355
2124.239	9310
2126.288	9407
2128.337	9449
2130.387	9309
2132.434	9401
2134.481	9372
2136.528	9357
2138.574	9288
2140.618	9443
2142.665	9316
2144.71	9427
2146.753	9302
2148.797	9283
2150.838	9357
2152.883	9224
2154.923	9366
2156.965	9294
2159.007	9457
2161.046	9332
2163.086	9212
2165.126	9323
2167.163	9257
2169.202	9317
2171.239	9307
2173.277	9230
2175.314	9340
2177.349	9218
2179.385	9326
2181.42	9319
2183.453	9238
2185.49	9262
2187.522	9175
2189.555	9237
2191.586	9243
2193.619	9241
2195.651	9237
2197.682	9146
2199.711	9241
2201.74	9111
2203.769	9265
2205.799	9161
2207.828	9252
2209.855	9113
2211.882	9301
2213.908	9216
2215.934	9209
2217.961	9187
2219.986	9228
2222.01	9213
2224.034	9171
2226.057	9160
2228.08	9185
2230.104	9155
2232.124	9202
2234.145	9201
2236.166	9155
2238.186	9191
2240.207	9137
2242.227	9245
2244.244	9157
2246.262	9018
2248.28	9125
2250.299	9047
2252.314	9103
2254.33	9129
2256.346	9152
2258.36	9085
2260.375	9256
2262.391	9098
2264.403	9007
2266.416	9041
2268.427	9149
2270.44	9294
2272.453	9140
2274.463	9125
2276.474	9035
2278.483	9080
2280.493	9105
2282.501	9215
2284.51	9247
2286.518	9270
2288.524	9123
2290.532	9261
2292.537	9153
2294.544	9110
2296.55	9208
2298.554	9329
2300.557	9199
2302.562	9182
2304.566	9141
2306.568	9180
2308.569	9026
2310.572	9229
2312.573	9041
2314.573	9061
2316.574	9142
2318.573	9102
2320.571	9055
2322.571	9115
2324.569	9053
2326.567	9104
2328.564	9152
2330.56	8974
2332.556	9059
2334.551	8982
2336.546	8963
2338.542	9043
2340.535	9056
2342.529	9066
2344.521	9099
2346.512	9038
2348.505	8978
2350.497	9050
2352.487	8963
2354.478	8997
2356.468	9096
2358.457	8910
2360.446	9123
2362.434	8934
2364.422	9076
2366.408	8893
2368.395	8956
2370.383	9015
2372.369	9094
2374.353	9027
2376.338	8826
2378.321	9045
2380.307	9023
2382.29	9038
2384.272	8866
2386.254	8958
2388.235	8872
2390.218	9029
2392.198	8901
2394.179	8866
2396.157	8847
2398.137	8914
2400.115	8990
2402.095	9031
2404.072	8891
2406.048	8888
2408.026	8822
2410.001	8849
2411.977	8777
2413.953	8855
2415.927	8783
2417.9	8966
2419.875	8903
2421.847	8799
2423.821	8901
2425.792	8839
2427.763	8917
2429.736	8956
2431.706	9031
2433.677	8952
2435.646	8908
2437.615	8961
2439.583	8843
2441.551	8959
2443.519	9001
2445.486	8988
2447.452	8883
2449.418	8736
2451.383	8883
2453.348	8884
2455.314	8927
2457.278	8943
2459.241	8856
2461.205	8816
2463.167	8891
2465.131	8949
2467.091	8864
2469.052	8899
2471.012	8766
2472.972	8817
2474.932	8779
2476.891	8737
2478.85	8887
2480.808	8749
2482.766	8701
2484.722	8803
2486.68	8738
2488.636	8767
2490.591	8807
2492.546	8759
2494.5	8738
2496.456	8817
2498.41	8711
2500.362	8791
2502.315	8760
2504.266	8945
2506.218	8686
2508.169	8677
2510.121	8796
2512.07	8783
2514.019	8692
2515.968	8795
2517.918	8609
2519.866	8833
2521.813	8742
2523.76	8832
2525.707	8735
2527.653	8803
2529.599	8773
2531.543	8807
2533.489	8811
2535.433	8695
2537.376	8670
2539.32	8805
2541.264	8742
2543.205	8790
2545.147	8801
2547.087	8682
2549.029	8785
2550.969	8742
2552.908	8766
2554.847	8740
2556.786	8921
2558.724	8825
2560.663	8699
2562.6	8827
2564.537	8677
2566.473	8744
2568.408	8481
2570.345	8595
2572.28	8831
2574.214	8691
2576.148	8686
2578.081	8632
2580.014	8701
2581.947	8805
2583.879	8869
2585.81	8698
2587.741	8800
2589.67	8693
2591.602	8751
2593.532	8830
2595.461	8667
2597.388	8847
2599.316	8785
2601.244	8686
2603.172	8735
2605.098	8657
2607.023	8787
2608.949	8658
2610.873	8683
2612.8	8859
2614.723	8722
2616.647	8718
2618.569	8685
2620.493	8774
2622.416	8796
2624.338	8737
2626.258	8761
2628.179	8758
2630.099	8734
2632.019	8868
2633.939	8650
2635.857	8717
2637.775	8904
2639.694	8937
2641.61	8774
2643.528	8667
2645.444	8869
2647.361	8682
2649.276	8940
2651.19	8708
2653.105	8808
2655.019	8755
2656.934	8763
2658.846	8633
2660.758	8826
2662.67	8740
2664.583	8753
2666.493	8764
2668.404	8807
2670.313	8726
2672.223	8774
2674.134	8783
2676.042	8557
2677.95	8818
2679.858	8786
2681.765	8758
2683.673	8651
2685.579	8688
2687.483	8675
2689.389	8686
2691.294	8660
2693.198	8520
2695.104	8527
2697.006	8643
2698.909	8667
2700.811	8573
2702.713	8627
2704.615	8696
2706.516	8654
2708.417	8674
2710.316	8451
2712.216	8530
2714.115	8627
2716.014	8562
2717.913	8577
2719.81	8587
2721.707	8526
2723.603	8710
2725.501	8552
2727.396	8447
2729.292	8549
2731.186	8732
2733.081	8619
2734.976	8574
2736.87	8600
2738.762	8623
2740.653	8626
2742.546	8516
2744.437	8628
2746.329	8642
2748.22	8534
2750.11	8500
2751.999	8472
2753.889	8556
2755.778	8530
2757.666	8567
2759.553	8598
2761.44	8515
2763.328	8511
2765.215	8553
2767.101	8502
2768.986	8318
2770.87	8497
2772.754	8524
2774.638	8502
2776.523	8415
2778.405	8423
2780.288	8528
2782.17	8432
2784.051	8348
2785.934	8382
2787.814	8433
2789.694	8633
2791.574	8456
2793.453	8521
2795.332	8517
2797.212	8374
2799.088	8429
2800.966	8382
2802.843	8459
2804.719	8442
2806.597	8342
2808.471	8452
2810.346	8606
2812.221	8343
2814.094	8520
2815.969	8442
2817.843	8287
2819.714	8515
2821.587	8510
2823.459	8521
2825.329	8417
2827.202	8538
2829.072	8535
2830.942	8525
2832.811	8390
2834.68	8431
2836.549	8461
2838.418	8340
2840.284	8467
2842.152	8493
2844.018	8449
2845.885	8548
2847.751	8375
2849.616	8521
2851.482	8390
2853.345	8532
2855.208	8510
2857.074	8546
2858.937	8540
2860.799	8465
2862.66	8469
2864.522	8571
2866.385	8579
2868.245	8664
2870.104	8733
2871.964	8626
2873.824	8661
2875.683	8783
2877.542	8830
2879.4	8900
2881.257	8788
2883.114	8897
2884.97	9044
2886.827	8899
2888.683	8871
2890.537	8934
2892.392	8841
2894.246	8763
2896.1	8700
2897.954	8920
2899.807	8837
2901.66	8691
2903.51	8856
2905.362	8816
2907.214	8759
2909.065	8777
2910.915	8845
2912.765	8805
2914.613	8926
2916.463	8890
2918.311	9110
2920.158	9018
2922.006	9193
2923.853	9215
2925.698	9276
2927.546	9285
2929.392	9443
2931.236	9450
2933.081	9367
2934.924	9345
2936.77	9375
2938.613	9477
2940.455	9581
2942.298	9544
2944.139	9583
2945.982	9504
2947.823	9407
2949.662	9506
2951.503	9425
2953.342	9304
2955.182	9304
2957.021	9302
2958.858	9196
2960.697	9188
2962.534	9225
2964.37	9034
2966.207	9111
2968.044	8932
2969.879	8927
2971.714	9033
2973.548	8827
2975.383	8791
2977.218	8954
2979.051	9000
2980.883	8793
2982.715	8894
2984.547	8825
2986.379	8827
2988.21	8770
2990.04	8705
2991.87	8757
2993.7	8595
2995.53	8783
2997.359	8665
2999.187	8596
3001.015	8482
3002.842	8601
3004.669	8406
3006.497	8359
3008.323	8362
3010.148	8321
3011.974	8263
3013.797	8315
3015.623	8225
3017.447	8173
3019.27	8223
3021.094	8199
3022.915	7997
3024.737	8203
3026.56	8129
3028.38	8234
3030.201	8041
3032.022	8148
3033.84	8155
3035.662	8051
3037.481	8264
3039.298	7997
3041.117	7992
3042.933	8165
3044.752	8107
3046.568	7940
3048.385	7908
3050.2	8062
3052.016	8037
3053.83	8093
3055.646	8147
3057.46	7967
3059.272	8015
3061.086	8003
3062.898	7948
3064.711	7870
3066.524	8111
3068.335	7877
3070.145	7943
3071.956	7998
3073.766	7985
3075.576	7988
3077.385	7898
3079.193	7980
3081.002	7933
3082.81	7919
3084.618	7898
3086.425	7866
3088.231	7825
3090.036	7788
3091.842	7901
3093.648	7774
3095.452	7837
3097.257	7933
3099.06	7840
3100.863	7744
3102.666	7666
3104.47	7884
3106.272	7736
3108.073	7727
3109.875	7840
3111.676	7825
3113.477	7710
3115.277	7712
3117.077	7622
3118.874	7673
3120.673	7735
3122.473	7662
3124.271	7690
3126.066	7623
3127.863	7728
3129.66	7851
3131.456	7707
3133.252	7536
3135.047	7672
3136.842	7664
3138.635	7680
3140.429	7610
3142.223	7597
3144.016	7634
3145.808	7584
3147.6	7615
3149.392	7628
3151.183	7720
3152.975	7569
3154.765	7534
3156.553	7549
3158.344	7690
3160.132	7613
3161.922	7540
3163.71	7582
3165.497	7614
3167.285	7568
3169.071	7528
3170.858	7521
3172.645	7614
3174.429	7553
3176.214	7545
3177.998	7455
3179.783	7532
3181.568	7369
3183.351	7579
3185.133	7524
3186.915	7533
3188.698	7492
3190.481	7589
3192.261	7353
3194.042	7515
3195.822	7512
3197.601	7419
3199.381	7530
3201.161	7484
3202.939	7534
3204.717	7422
3206.495	7384
3208.272	7541
3210.05	7425
3211.826	7480
3213.602	7582
3215.376	7526
3217.151	7513
3218.927	7410
3220.702	7594
3222.476	7376
3224.249	7427
3226.021	7306
3227.793	7451
3229.567	7445
3231.339	7494
3233.109	7398
3234.88	7549
3236.651	7406
3238.421	7394
3240.191	7524
3241.96	7457
3243.728	7365
3245.497	7415
3247.263	7584
3249.033	7408
3250.799	7341
3252.566	7370
3254.331	7483
3256.097	7441
3257.863	7365
3259.628	7448
3261.392	7437
3263.156	7275
3264.919	7388
3266.683	7482
3268.447	7420
3270.208	7453
3271.969	7322
3273.731	7370
3275.492	7364
3277.253	7497
3279.013	7517
3280.773	7336
3282.532	7473
3284.291	7442
3286.05	7430
3287.808	7280
3289.566	7458
3291.323	7404
3293.079	7360
3294.835	7322
3296.593	7374
3298.348	7336
3300.102	7468
3301.857	7299
3303.611	7456
3305.366	7306
3307.119	7265
3308.872	7421
3310.624	7407
3312.376	7376
3314.129	7313
3315.881	7271
3317.631	7371
3319.38	7453
3321.13	7561
3322.88	7413
3324.631	7365
3326.379	7366
3328.126	7356
3329.875	7525
3331.622	7378
3333.371	7395
3335.116	7295
3336.863	7326
3338.609	7321
3340.353	7270
3342.1	7233
3343.845	7310
3345.588	7326
3347.332	7266
3349.074	7207
3350.817	7390
3352.56	7282
3354.303	7339
3356.043	7216
3357.785	7326
3359.525	7227
3361.268	7109
3363.007	7198
3364.745	7198
3366.485	7330
3368.223	7200
3369.962	7114
3371.701	7301
3373.438	7129
3375.174	7199
3376.911	7140
3378.647	7299
3380.384	7142
3382.118	7269
3383.854	7227
3385.588	7193
3387.322	7232
3389.057	7115
3390.79	7235
3392.522	7128
3394.255	7060
3395.987	7210
3397.719	7104
3399.451	6988
3401.181	7240
3402.911	7109
3404.641	7150
3406.371	7145
3408.101	7168
3409.83	7002
3411.558	7136
3413.285	7133
3415.011	7100
3416.739	7020
3418.467	7024
3420.193	7067
3421.919	7106
3423.644	7092
3425.368	7084
3427.094	7024
3428.818	7120
3430.542	7034
3432.264	7026
3433.987	7103
3435.712	7106
3437.434	7017
3439.155	7032
3440.876	7012
3442.596	6923
3444.317	7085
3446.039	7060
3447.757	6924
3449.477	6881
3451.195	7032
3452.914	7023
3454.632	6957
3456.35	6858
3458.067	7034
3459.784	7026
3461.5	6952
3463.216	6903
3464.932	6993
3466.647	6883
3468.362	6821
3470.076	6869
3471.789	6857
3473.505	6841
3475.217	6929
3476.929	6861
3478.641	6958
3480.354	6817
3482.066	6872
3483.777	6776
3485.487	6756
3487.197	6826
3488.908	6763
3490.617	6891
3492.327	6788
3494.035	6781
3495.743	6787
3497.451	6694
3499.158	6787
3500.866	6863
3502.572	6699
3504.278	6710
3505.984	6835
3507.689	6659
3509.396	6842
3511.1	6782
3512.804	6630
3514.508	6756
3516.211	6784
3517.913	6753
3519.616	6613
3521.319	6804
3523.021	6748
3524.722	6637
3526.422	6581
3528.124	6678
3529.824	6640
3531.524	6634
3533.222	6659
3534.921	6617
3536.62	6587
3538.318	6642
3540.016	6522
3541.714	6576
3543.41	6611
3545.107	6513
3546.803	6531
3548.5	6598
3550.194	6625
3551.889	6583
3553.583	6560
3555.279	6503
3556.972	6535
3558.666	6515
3560.358	6600
3562.051	6600
3563.742	6580
3565.435	6617
3567.126	6527
3568.817	6510
3570.507	6514
3572.197	6486
3573.888	6488
3575.577	6593
3577.265	6548
3578.954	6632
3580.642	6558
3582.329	6503
3584.017	6413
3585.704	6418
3587.391	6445
3589.077	6406
3590.762	6511
3592.449	6574
3594.133	6406
3595.817	6377
3597.501	6392
3599.185	6300
3600.869	6284
3602.552	6380
3604.234	6339
3605.916	6326
3607.598	6302
3609.279	6298
3610.961	6335
3612.642	6303
3614.321	6227
3616	6278
3617.68	6306
3619.36	6287
3621.039	6285
3622.716	6209
3624.394	6165
3626.071	6227
3627.748	6171
3629.425	6323
3631.102	6270
3632.778	6174
3634.452	6200
3636.127	6289
3637.803	6227
3639.477	6234
3641.151	6105
3642.823	6078
3644.497	6157
3646.171	6142
3647.842	6091
3649.515	6143
3651.185	6246
3652.857	6218
3654.527	6232
3656.198	6168
3657.868	6087
3659.537	6231
3661.207	6104
3662.875	6013
3664.544	6142
3666.212	6011
3667.879	6020
3669.546	6044
3671.212	6122
3672.88	6021
3674.546	6095
3676.211	5943
3677.875	6053
3679.541	6004
3681.205	6101
3682.87	6049
3684.533	6102
3686.196	6109
3687.859	5957
3689.521	6134
3691.184	6060
3692.845	6129
3694.507	5957
3696.167	6172
3697.827	5931
3699.487	5968
3701.148	6029
3702.808	5975
3704.466	6162
3706.125	6002
3707.783	5933
3709.442	5946
3711.099	5948
3712.757	5953
3714.412	5986
3716.068	6011
3717.725	5881
3719.381	5971
3721.036	6019
3722.689	5928
3724.344	5904
3725.998	5948
3727.652	5941
3729.305	5984
3730.958	5895
3732.61	5946
3734.262	5914
3735.915	5996
3737.565	5995
3739.217	5740
3740.866	5902
3742.516	6000
3744.165	5979
3745.816	5815
3747.464	5810
3749.113	5811
3750.761	5944
3752.409	5884
3754.057	5917
3755.703	5866
3757.35	5959
3758.996	5779
3760.641	5817
3762.289	5886
3763.933	5845
3765.577	5826
3767.222	5967
3768.865	5761
3770.508	5783
3772.152	5829
3773.796	5878
3775.438	5856
3777.079	5790
3778.721	5779
3780.363	5775
3782.003	5702
3783.643	5803
3785.283	5713
3786.923	5841
3788.563	5746
3790.203	5701
3791.841	5812
3793.479	5753
3795.115	5850
3796.753	5698
3798.391	5718
3800.027	5612
3801.664	5697
3803.299	5739
3804.935	5718
3806.571	5728
3808.206	5755
3809.839	5750
3811.473	5717
3813.107	5734
3814.74	5596
3816.375	5645
3818.006	5675
3819.638	5621
3821.27	5780
3822.9	5597
3824.532	5596
3826.163	5672
3827.792	5677
3829.423	5626
3831.051	5610
3832.682	5590
3834.311	5524
3835.938	5680
3837.566	5592
3839.193	5507
3840.821	5641
3842.448	5572
3844.075	5497
3845.7	5503
3847.325	5536
3848.951	5575
3850.576	5475
3852.201	5571
3853.825	5547
3855.448	5613
3857.072	5562
3858.694	5574
3860.318	5512
3861.939	5497
3863.562	5494
3865.183	5487
3866.804	5496
3868.426	5543
3870.045	5555
3871.666	5543
3873.285	5601
3874.904	5580
3876.524	5440
3878.142	5446
3879.76	5521
3881.378	5474
3882.995	5579
3884.612	5429
3886.229	5490
3887.845	5490
3889.461	5568
3891.076	5488
3892.691	5532
3894.307	5472
3895.922	5435
3897.536	5479
3899.149	5463
3900.761	5267
3902.374	5395
3903.988	5484
3905.6	5428
3907.212	5389
3908.822	5517
3910.433	5464
3912.045	5416
3913.655	5327
3915.265	5301
3916.875	5412
3918.483	5453
3920.093	5364
3921.702	5392
3923.309	5402
3924.917	5327
3926.523	5452
3928.13	5386
3929.739	5377
3931.344	5360
3932.95	5415
3934.555	5352
3936.159	5368
3937.766	5385
3939.369	5319
3940.974	5400
3942.577	5321
3944.181	5290
3945.783	5356
3947.386	5283
3948.989	5407
3950.59	5313
3952.191	5334
3953.791	5224
3955.394	5507
3956.994	5290
3958.593	5375
3960.192	5289
3961.791	5273
3963.392	5463
3964.99	5283
3966.588	5252
3968.185	5292
3969.782	5278
3971.379	5333
3972.976	5288
3974.572	5249
3976.168	5178
3977.763	5311
3979.358	5289
3980.954	5197
3982.548	5297
3984.142	5232
3985.736	5161
3987.329	5140
3988.922	5249
3990.516	5111
3992.108	5305
3993.698	5137
3995.29	5140
3996.881	5226
3998.473	5152
4000.064	5052
4001.653	5170
4003.242	5070
4004.832	5116
4006.422	5191
4008.01	5058
4009.598	5193
4011.186	5112
4012.773	5115
4014.36	5142
4015.947	5028
4017.534	4971
4019.119	5022
4020.705	5027
4022.291	5035
4023.876	4989
4025.461	5068
4027.044	4983
4028.627	5081
4030.211	4992
4031.795	4969
4033.378	5022
4034.96	5033
4036.542	5027
4038.124	5027
4039.704	4958
4041.286	5019
4042.867	4938
4044.447	4928
4046.026	5002
4047.606	5035
4049.187	4964
4050.765	4874
4052.343	4970
4053.92	4992
4055.498	4898
4057.076	4923
4058.654	4890
4060.23	4909
4061.806	4931
4063.381	4998
4064.957	4853
4066.533	4866
4068.107	4939
4069.682	4867
4071.256	4810
4072.829	4916
4074.404	4977
4075.977	4934
4077.549	4994
4079.121	4903
4080.693	4823
4082.265	4900
4083.836	4971
4085.407	4931
4086.977	4839
4088.547	4853
4090.117	4836
4091.687	4858
4093.256	4835
4094.825	4835
4096.392	4885
4097.96	4878
4099.528	4954
4101.097	4787
4102.663	4784
4104.229	4779
4105.795	4907
4107.361	4808
4108.928	4664
4110.493	4816
4112.058	4819
4113.621	4845
4115.186	4796
4116.75	4788
4118.313	4734
4119.876	4788
4121.438	4753
4123	4786
4124.562	4723
4126.125	4686
4127.686	4715
4129.246	4814
4130.807	4738
4132.367	4598
4133.927	4726
4135.486	4634
4137.046	4773
4138.604	4618
4140.162	4716
4141.72	4614
4143.279	4758
4144.836	4755
4146.393	4767
4147.949	4655
4149.505	4565
4151.062	4666
4152.617	4608
4154.172	4674
4155.727	4552
4157.281	4711
4158.836	4627
4160.39	4700
4161.943	4607
4163.496	4618
4165.048	4514
4166.601	4687
4168.154	4548
4169.706	4586
4171.257	4519
4172.808	4568
4174.358	4601
4175.909	4501
4177.458	4498
4179.008	4538
4180.558	4548
4182.106	4555
4183.655	4551
4185.204	4544
4186.751	4635
4188.298	4527
4189.845	4477
4191.392	4474
4192.939	4532
4194.485	4631
4196.031	4487
4197.576	4484
4199.121	4569
4200.666	4482
4202.211	4471
4203.754	4501
4205.298	4479
4206.84	4467
4208.384	4428
4209.927	4454
4211.47	4475
4213.011	4499
4214.552	4448
4216.094	4472
4217.635	4472
4219.175	4354
4220.716	4444
4222.255	4453
4223.793	4372
4225.335	4449
4226.873	4440
4228.411	4379
4229.948	4469
4231.486	4412
4233.024	4437
4234.562	4391
4236.098	4449
4237.634	4316
4239.169	4487
4240.705	4388
4242.241	4432
4243.776	4435
4245.31	4495
4246.844	4310
4248.378	4485
4249.911	4489
4251.445	4407
4252.978	4331
4254.51	4335
4256.042	4336
4257.574	4465
4259.107	4393
4260.638	4340
4262.169	4352
4263.699	4391
4265.228	4368
4266.759	4244
4268.289	4250
4269.818	4369
4271.345	4369
4272.874	4335
4274.402	4340
4275.931	4397
4277.458	4242
4278.985	4311
4280.512	4324
4282.037	4341
4283.564	4266
4285.089	4236
4286.615	4246
4288.139	4268
4289.664	4379
4291.187	4302
4292.712	4309
4294.235	4300
4295.759	4191
4297.281	4212
4298.804	4252
4300.327	4165
4301.849	4267
4303.37	4239
4304.891	4167
4306.412	4282
4307.933	4256
4309.453	4285
4310.973	4231
4312.492	4216
