398.1873	3386
400.7097	3396
403.2336	3414
405.7547	3385
408.2751	3428
410.7948	3461
413.3138	3471
415.83	3353
418.3497	3474
420.8666	3590
423.3829	3543
425.8985	3567
428.4133	3598
430.9275	3586
433.441	3690
435.9538	3618
438.4639	3617
440.9753	3689
443.4881	3653
445.9982	3607
448.5055	3582
451.0142	3623
453.5201	3559
456.0274	3612
458.5361	3517
461.04	3671
463.5453	3611
466.0478	3666
468.5517	3571
471.0549	3657
473.5574	3621
476.0572	3723
478.5584	3592
481.0568	3619
483.5545	3676
486.0557	3745
488.5521	3633
491.0478	3647
493.5449	3633
496.0392	3678
498.5349	3684
501.0299	3656
503.5222	3751
506.0139	3696
508.5048	3761
510.9991	3628
513.4887	3650
515.9777	3743
518.4659	3700
520.9534	3716
523.4403	3815
525.9306	3716
528.4161	3750
530.9009	3761
533.3851	3687
535.8687	3785
538.3535	3728
540.8356	3748
543.3171	3639
545.7979	3704
548.278	3741
550.7595	3657
553.2383	3768
555.7144	3854
558.1918	3741
560.6685	3764
563.1446	3801
565.6221	3829
568.0968	3792
570.5688	3862
573.0422	3764
575.515	3838
577.989	3857
580.4584	3791
582.9291	3906
585.3991	3808
587.8685	3937
590.3352	3881
592.8052	3870
595.2706	3908
597.7372	3845
600.2033	3850
602.6666	3846
605.1334	3879
607.5953	3875
610.0587	3904
612.5193	3829
614.9814	3876
617.4427	3917
619.9034	3874
622.3615	3905
624.8208	3861
627.2775	3745
629.7335	3785
632.1929	3884
634.6476	3928
637.1016	3815
639.5569	3901
642.0096	3925
644.4637	3935
646.9151	3851
649.3678	3881
651.8179	3903
654.2672	3851
656.7159	3921
659.166	3915
661.6154	3857
664.0622	3923
666.5082	3845
668.9537	4009
671.4005	3964
673.8445	3974
676.288	3983
678.7308	3941
681.1729	3892
683.6163	4007
686.0572	3922
688.4973	3917
690.9368	3965
693.3757	3963
695.8138	3886
698.2534	3928
700.6902	3948
703.1245	4001
705.56	3967
707.9949	3993
710.4311	3959
712.8647	4056
715.2957	4038
717.7279	4118
720.1595	3953
722.5905	4021
725.0208	4061
727.4505	4011
729.8795	4033
732.3058	4119
734.7336	4131
737.1626	4103
739.587	4094
742.0128	4092
744.4359	4171
746.8604	4185
749.2841	4070
751.7073	4132
754.1278	4225
756.5496	4202
758.9688	4222
761.3893	4119
763.8093	4261
766.2285	4186
768.6451	4252
771.0611	4254
773.4784	4163
775.895	4254
778.3091	4193
780.7244	4188
783.1371	4217
785.5493	4169
787.9626	4256
790.3754	4178
792.7856	4321
795.1951	4318
797.6039	4302
800.0121	4144
802.4236	4225
804.8306	4258
807.2369	4210
809.6425	4230
812.0475	4394
814.4538	4366
816.8575	4290
819.2606	4296
821.663	4322
824.0648	4312
826.4659	4416
828.8683	4251
831.2682	4264
833.6674	4308
836.066	4225
838.4639	4313
840.8632	4316
843.2579	4352
845.6539	4376
848.0493	4364
850.444	4420
852.84	4425
855.2315	4309
857.6243	4455
860.0165	4406
862.4081	4348
864.797	4260
867.1892	4423
869.5789	4379
871.9659	4321
874.3542	4340
876.74	4306
879.129	4418
881.5155	4355
883.8994	4380
886.2845	4386
888.6671	4369
891.051	4373
893.4343	4333
895.8169	4315
898.197	4336
900.5783	4288
902.9571	4452
905.3372	4402
907.7167	4458
910.0936	4428
912.4698	4404
914.8474	4492
917.2244	4555
919.5987	4530
921.9744	4570
924.3475	4654
926.72	4641
929.0918	4560
931.4669	4617
933.8375	4557
936.2074	4651
938.5767	4633
940.9454	4741
943.3154	4877
945.6829	4865
948.0497	4928
950.4178	4920
952.7833	5220
955.1483	5288
957.5145	5542
959.8782	5547
962.2412	5539
964.6036	5436
966.9655	5279
969.3266	5147
971.6871	4971
974.0471	4784
976.4064	4662
978.765	4637
981.125	4662
983.4824	4561
985.8373	4577
988.1935	4433
990.549	4459
992.9039	4483
995.2602	4537
997.6119	4518
999.965	4540
1002.317	4501
1004.667	4520
1007.02	4696
1009.371	4634
1011.719	4580
1014.068	4486
1016.415	4546
1018.765	4652
1021.111	4623
1023.458	4566
1025.804	4643
1028.147	4699
1030.49	4698
1032.837	4649
1035.179	4607
1037.522	4590
1039.862	4572
1042.204	4631
1044.546	4643
1046.884	4783
1049.224	4672
1051.562	4634
1053.899	4648
1056.237	4577
1058.575	4759
1060.91	4637
1063.244	4774
1065.58	4639
1067.913	4785
1070.248	4767
1072.579	4755
1074.911	4819
1077.242	4631
1079.572	4669
1081.905	4713
1084.234	4752
1086.562	4582
1088.89	4640
1091.217	4741
1093.544	4688
1095.871	4637
1098.197	4728
1100.521	4717
1102.845	4718
1105.169	4609
1107.491	4691
1109.814	4701
1112.135	4637
1114.456	4717
1116.776	4628
1119.096	4778
1121.415	4799
1123.734	4682
1126.052	4734
1128.369	4640
1130.686	4697
1133.002	4712
1135.318	4683
1137.632	4735
1139.945	4706
1142.258	4709
1144.573	4641
1146.884	4766
1149.196	4671
1151.505	4754
1153.816	4739
1156.124	4638
1158.435	4704
1160.742	4726
1163.051	4642
1165.356	4661
1167.663	4718
1169.97	4628
1172.276	4644
1174.579	4753
1176.881	4607
1179.186	4675
1181.487	4760
1183.79	4737
1186.092	4660
1188.392	4671
1190.691	4646
1192.991	4688
1195.291	4676
1197.588	4660
1199.885	4705
1202.181	4656
1204.479	4732
1206.775	4704
1209.07	4743
1211.363	4687
1213.656	4754
1215.949	4646
1218.241	4795
1220.534	4833
1222.825	4754
1225.115	4829
1227.405	4732
1229.693	4725
1231.984	4762
1234.271	4801
1236.558	4817
1238.845	4877
1241.131	4938
1243.416	4896
1245.703	4896
1247.987	4803
1250.269	4873
1252.552	4806
1254.834	4874
1257.118	4835
1259.399	4921
1261.678	4928
1263.958	4945
1266.237	4849
1268.516	4879
1270.794	4918
1273.072	4971
1275.347	4779
1277.624	4924
1279.899	4760
1282.175	4904
1284.449	4846
1286.722	4834
1288.995	4777
1291.266	4904
1293.54	4844
1295.81	4906
1298.081	4748
1300.35	4925
1302.62	4783
1304.889	4887
1307.156	4781
1309.425	4816
1311.69	4864
1313.957	4818
1316.222	4860
1318.488	4808
1320.751	4766
1323.016	4830
1325.278	4885
1327.54	4824
1329.803	4775
1332.065	4886
1334.325	4839
1336.584	4897
1338.843	4896
1341.101	4850
1343.36	4851
1345.617	4828
1347.876	4798
1350.131	4837
1352.387	4806
1354.643	4871
1356.897	4788
1359.151	4721
1361.403	4811
1363.656	4788
1365.909	4798
1368.16	4862
1370.409	4885
1372.659	4825
1374.909	4914
1377.157	4806
1379.407	4830
1381.655	4899
1383.9	4941
1386.147	4916
1388.393	4932
1390.64	4900
1392.885	4907
1395.127	4909
1397.37	4997
1399.614	5007
1401.854	4892
1404.098	4942
1406.339	5006
1408.578	5035
1410.818	5043
1413.056	5045
1415.297	4973
1417.533	4994
1419.771	5007
1422.006	4987
1424.243	5049
1426.479	5001
1428.715	4976
1430.948	5012
1433.182	5003
1435.414	5142
1437.647	4979
1439.88	5029
1442.11	4988
1444.342	4972
1446.571	5080
1448.799	5093
1451.029	5178
1453.258	5119
1455.485	5159
1457.711	5159
1459.937	5125
1462.164	5100
1464.39	5106
1466.614	4950
1468.838	5046
1471.06	5014
1473.283	5031
1475.506	4975
1477.727	4944
1479.949	4974
1482.169	5066
1484.389	5003
1486.609	5013
1488.828	4900
1491.045	4972
1493.261	4904
1495.477	4866
1497.693	4914
1499.91	4914
1502.125	4879
1504.339	4941
1506.553	4829
1508.766	4908
1510.979	4830
1513.191	4891
1515.402	4953
1517.613	4879
1519.823	4856
1522.033	4906
1524.242	4811
1526.451	4994
1528.657	4841
1530.865	4963
1533.072	4855
1535.278	4910
1537.484	4863
1539.687	4849
1541.892	4898
1544.096	4944
1546.299	4935
1548.502	4988
1550.703	4962
1552.905	4982
1555.104	4824
1557.303	5032
1559.505	4984
1561.703	5016
1563.902	4913
1566.099	4908
1568.295	4957
1570.494	5037
1572.689	5004
1574.883	4986
1577.079	4942
1579.272	5016
1581.467	5003
1583.659	5119
1585.853	5015
1588.044	5067
1590.234	5037
1592.424	4992
1594.615	5120
1596.806	5048
1598.994	5010
1601.182	5116
1603.369	5132
1605.557	5042
1607.744	5042
1609.929	5137
1612.114	5072
1614.298	5118
1616.482	5111
1618.667	5113
1620.85	5242
1623.032	5137
1625.214	5262
1627.395	5163
1629.575	5156
1631.755	5100
1633.935	5091
1636.114	5177
1638.292	5076
1640.471	5111
1642.647	5284
1644.823	5148
1647	5193
1649.175	5131
1651.348	5153
1653.525	5252
1655.698	5083
1657.87	5254
1660.043	5064
1662.213	5159
1664.387	5227
1666.558	5158
1668.727	5178
1670.896	5176
1673.064	5136
1675.233	5257
1677.401	5196
1679.569	5280
1681.735	5140
1683.902	5164
1686.066	5105
1688.233	5165
1690.397	5177
1692.559	5188
1694.723	5247
1696.885	5115
1699.048	5213
1701.21	5118
1703.37	5180
1705.53	5144
1707.689	5231
1709.849	5125
1712.009	5102
1714.166	5035
1716.323	5089
1718.479	5081
1720.634	5081
1722.793	5152
1724.948	5141
1727.102	5088
1729.255	5150
1731.408	5009
1733.562	5204
1735.714	5103
1737.865	5192
1740.016	5156
1742.166	5102
1744.316	5021
1746.467	5215
1748.616	5106
1750.764	5162
1752.911	5206
1755.056	5033
1757.205	5171
1759.35	5138
1761.496	5122
1763.641	5205
1765.785	5135
1767.927	5119
1770.072	5177
1772.214	5151
1774.355	5164
1776.496	5173
1778.637	5273
1780.778	5221
1782.918	5162
1785.057	5157
1787.194	5236
1789.333	5186
1791.472	5161
1793.608	5269
1795.745	5154
1797.879	5283
1800.015	5177
1802.148	5095
1804.284	5213
1806.417	5182
1808.548	5184
1810.682	5246
1812.812	5277
1814.946	5151
1817.075	5183
1819.205	5261
1821.335	5128
1823.463	5166
1825.59	5254
1827.721	5066
1829.847	5210
1831.973	5145
1834.098	5213
1836.223	5129
1838.351	5300
1840.475	5187
1842.598	5137
1844.721	5156
1846.843	5093
1848.966	5112
1851.087	5232
1853.21	5142
1855.33	5170
1857.449	5198
1859.568	5113
1861.688	5194
1863.806	5108
1865.924	5090
1868.039	5212
1870.155	5154
1872.273	5204
1874.388	5247
1876.503	5151
1878.617	5184
1880.73	5179
1882.844	5082
1884.956	5235
1887.068	5188
1889.18	5124
1891.291	5203
1893.4	5213
1895.511	5204
1897.621	5178
1899.73	5230
1901.837	5333
1903.944	5240
1906.053	5151
1908.159	5267
1910.265	5249
1912.369	5205
1914.474	5138
1916.577	5109
1918.683	5274
1920.785	5188
1922.888	5321
1924.989	5269
1927.091	5231
1929.193	5305
1931.294	5254
1933.393	5153
1935.493	5246
1937.59	5356
1939.689	5304
1941.788	5259
1943.884	5365
1945.98	5373
1948.077	5279
1950.171	5257
1952.267	5378
1954.361	5348
1956.455	5314
1958.548	5333
1960.64	5303
1962.733	5218
1964.824	5313
1966.915	5224
1969.005	5364
1971.096	5217
1973.185	5252
1975.275	5289
1977.363	5192
1979.45	5233
1981.537	5169
1983.623	5213
1985.711	5258
1987.796	5260
1989.881	5242
1991.965	5230
1994.047	5248
1996.132	5250
1998.215	5236
2000.297	5325
2002.378	5300
2004.46	5246
2006.54	5388
2008.62	5301
2010.7	5295
2012.779	5210
2014.858	5266
2016.934	5247
2019.013	5167
2021.09	5238
2023.165	5229
2025.241	5264
2027.317	5170
2029.39	5303
2031.466	5189
2033.538	5313
2035.612	5254
2037.683	5303
2039.755	5308
2041.827	5175
2043.898	5184
2045.968	5176
2048.038	5336
2050.106	5288
2052.177	5249
2054.244	5266
2056.313	5241
2058.379	5250
2060.444	5238
2062.511	5248
2064.577	5389
2066.641	5326
2068.705	5353
2070.77	5310
2072.832	5317
2074.896	5276
2076.958	5305
2079.02	5265
2081.081	5372
2083.141	5335
2085.2	5271
2087.261	5178
2089.319	5343
2091.377	5238
2093.435	5341
2095.492	5276
2097.552	5272
2099.607	5222
2101.663	5250
2103.718	5303
2105.771	5259
2107.826	5267
2109.879	5314
2111.932	5282
2113.985	5323
2116.037	5253
2118.088	5275
2120.141	5244
2122.191	5274
2124.239	5369
2126.288	5324
2128.337	5343
2130.387	5317
2132.434	5341
2134.481	5280
2136.528	5263
2138.574	5345
2140.618	5385
2142.665	5315
2144.71	5238
2146.753	5271
2148.797	5305
2150.838	5332
2152.883	5325
2154.923	5297
2156.965	5181
2159.007	5221
2161.046	5333
2163.086	5286
2165.126	5249
2167.163	5242
2169.202	5294
2171.239	5325
2173.277	5290
2175.314	5181
2177.349	5158
2179.385	5250
2181.42	5227
2183.453	5246
2185.49	5285
2187.522	5261
2189.555	5317
2191.586	5247
2193.619	5294
2195.651	5290
2197.682	5262
2199.711	5198
2201.74	5226
2203.769	5192
2205.799	5250
2207.828	5269
2209.855	5179
2211.882	5241
2213.908	5216
2215.934	5093
2217.961	5142
2219.986	5244
2222.01	5226
2224.034	5337
2226.057	5204
2228.08	5199
2230.104	5203
2232.124	5185
2234.145	5178
2236.166	5225
2238.186	5208
2240.207	5047
2242.227	5312
2244.244	5144
2246.262	5271
2248.28	5174
2250.299	5101
2252.314	5165
2254.33	5261
2256.346	5233
2258.36	5158
2260.375	5163
2262.391	5243
2264.403	5276
2266.416	5117
2268.427	5238
2270.44	5189
2272.453	5181
2274.463	5309
2276.474	5228
2278.483	5278
2280.493	5293
2282.501	5263
2284.51	5178
2286.518	5205
2288.524	5213
2290.532	5282
2292.537	5256
2294.544	5175
2296.55	5227
2298.554	5213
2300.557	5213
2302.562	5159
2304.566	5282
2306.568	5216
2308.569	5181
2310.572	5116
2312.573	5158
2314.573	5190
2316.574	5190
2318.573	5220
2320.571	5264
2322.571	5164
2324.569	5189
2326.567	5298
2328.564	5259
2330.56	5142
2332.556	5175
2334.551	5228
2336.546	5160
2338.542	5204
2340.535	5105
2342.529	5231
2344.521	5325
2346.512	5118
2348.505	5175
2350.497	5133
2352.487	5164
2354.478	5167
2356.468	5126
2358.457	5094
2360.446	5280
2362.434	5149
2364.422	5138
2366.408	5099
2368.395	5222
2370.383	5048
2372.369	5174
2374.353	5097
2376.338	5122
2378.321	5088
2380.307	5142
2382.29	5191
2384.272	5156
2386.254	5144
2388.235	5127
2390.218	5201
2392.198	5139
2394.179	5066
2396.157	5117
2398.137	5194
2400.115	5142
2402.095	5106
2404.072	5159
2406.048	5083
2408.026	5123
2410.001	5075
2411.977	5145
2413.953	5072
2415.927	5071
2417.9	5079
2419.875	5145
2421.847	5079
2423.821	5110
2425.792	5073
2427.763	5037
2429.736	5124
2431.706	5247
2433.677	4996
2435.646	5107
2437.615	5145
2439.583	5179
2441.551	5104
2443.519	5166
2445.486	5134
2447.452	5092
2449.418	5082
2451.383	5145
2453.348	5167
2455.314	5163
2457.278	5108
2459.241	5001
2461.205	5076
2463.167	5085
2465.131	5136
2467.091	5028
2469.052	4980
2471.012	5066
2472.972	5113
2474.932	5094
2476.891	5027
2478.85	5040
2480.808	5033
2482.766	5067
2484.722	5084
2486.68	5030
2488.636	4996
2490.591	4968
2492.546	5043
2494.5	5091
2496.456	5118
2498.41	5032
2500.362	5037
2502.315	5006
2504.266	5001
2506.218	5175
2508.169	5087
2510.121	5026
2512.07	5109
2514.019	5048
2515.968	5053
2517.918	5117
2519.866	5134
2521.813	4982
2523.76	5066
2525.707	5008
2527.653	4936
2529.599	5110
2531.543	5028
2533.489	5012
2535.433	4961
2537.376	5015
2539.32	5122
2541.264	4938
2543.205	5070
2545.147	5069
2547.087	4995
2549.029	4834
2550.969	4992
2552.908	4996
2554.847	4930
2556.786	5104
2558.724	5050
2560.663	5048
2562.6	4992
2564.537	5032
2566.473	5047
2568.408	5107
2570.345	5025
2572.28	5144
2574.214	5002
2576.148	5022
2578.081	4931
2580.014	5082
2581.947	5006
2583.879	5032
2585.81	5087
2587.741	5003
2589.67	5037
2591.602	5018
2593.532	5051
2595.461	4971
2597.388	5104
2599.316	5035
2601.244	5013
2603.172	5096
2605.098	5086
2607.023	4973
2608.949	5130
2610.873	5031
2612.8	5058
2614.723	5055
2616.647	5068
2618.569	5173
2620.493	5128
2622.416	5081
2624.338	5057
2626.258	5050
2628.179	5077
2630.099	5057
2632.019	5167
2633.939	5099
2635.857	5031
2637.775	4991
2639.694	5099
2641.61	5060
2643.528	5115
2645.444	5067
2647.361	4968
2649.276	5036
2651.19	5138
2653.105	5018
2655.019	5030
2656.934	5049
2658.846	5087
2660.758	5136
2662.67	5088
2664.583	5071
2666.493	5118
2668.404	4997
2670.313	5016
2672.223	5007
2674.134	5028
2676.042	5058
2677.95	5070
2679.858	5121
2681.765	5085
2683.673	5031
2685.579	5064
2687.483	5127
2689.389	4988
2691.294	5098
2693.198	5031
2695.104	5035
2697.006	5028
2698.909	4963
2700.811	4968
2702.713	5100
2704.615	5079
2706.516	5057
2708.417	5062
2710.316	4967
2712.216	4958
2714.115	4962
2716.014	5061
2717.913	5072
2719.81	5004
2721.707	4918
2723.603	5051
2725.501	4947
2727.396	5096
2729.292	5070
2731.186	4939
2733.081	4970
2734.976	4999
2736.87	4984
2738.762	4988
2740.653	4995
2742.546	4974
2744.437	5056
2746.329	5011
2748.22	5131
2750.11	5020
2751.999	4909
2753.889	4959
2755.778	4980
2757.666	4845
2759.553	5035
2761.44	5065
2763.328	5051
2765.215	5016
2767.101	5005
2768.986	5001
2770.87	5091
2772.754	4956
2774.638	5033
2776.523	4999
2778.405	5037
2780.288	5017
2782.17	4982
2784.051	4917
2785.934	4948
2787.814	5009
2789.694	5041
2791.574	4924
2793.453	4992
2795.332	4968
2797.212	5003
2799.088	4871
2800.966	5021
2802.843	4861
2804.719	4948
2806.597	5005
2808.471	4882
2810.346	4971
2812.221	4949
2814.094	4890
2815.969	5019
2817.843	4959
2819.714	5017
2821.587	4957
2823.459	4955
2825.329	4921
2827.202	4827
2829.072	4968
2830.942	4928
2832.811	4884
2834.68	4994
2836.549	5099
2838.418	4898
2840.284	4931
2842.152	4874
2844.018	4922
2845.885	4969
2847.751	5018
2849.616	4945
2851.482	5082
2853.345	4966
2855.208	4974
2857.074	5057
2858.937	5058
2860.799	5050
2862.66	5086
2864.522	4995
2866.385	5085
2868.245	5017
2870.104	5180
2871.964	5185
2873.824	5182
2875.683	5242
2877.542	5196
2879.4	5273
2881.257	5323
2883.114	5280
2884.97	5379
2886.827	5208
2888.683	5333
2890.537	5326
2892.392	5327
2894.246	5265
2896.1	5240
2897.954	5225
2899.807	5232
2901.66	5307
2903.51	5252
2905.362	5339
2907.214	5307
2909.065	5270
2910.915	5244
2912.765	5367
2914.613	5316
2916.463	5340
2918.311	5452
2920.158	5546
2922.006	5439
2923.853	5484
2925.698	5551
2927.546	5620
2929.392	5683
2931.236	5725
2933.081	5618
2934.924	5746
2936.77	5745
2938.613	5758
2940.455	5705
2942.298	5829
2944.139	5782
2945.982	5822
2947.823	5848
2949.662	5765
2951.503	5822
2953.342	5703
2955.182	5596
2957.021	5615
2958.858	5620
2960.697	5645
2962.534	5606
2964.37	5560
2966.207	5466
2968.044	5438
2969.879	5392
2971.714	5457
2973.548	5354
2975.383	5390
2977.218	5334
2979.051	5373
2980.883	5357
2982.715	5266
2984.547	5319
2986.379	5219
2988.21	5195
2990.04	5304
2991.87	5135
2993.7	5207
2995.53	5130
2997.359	5135
2999.187	5098
3001.015	5099
3002.842	5066
3004.669	4912
3006.497	5041
3008.323	5060
3010.148	4962
3011.974	4823
3013.797	4905
3015.623	4807
3017.447	4961
3019.27	4899
3021.094	4905
3022.915	4785
3024.737	4845
3026.56	4801
3028.38	4783
3030.201	4897
3032.022	4845
3033.84	4715
3035.662	4732
3037.481	4817
3039.298	4754
3041.117	4845
3042.933	4718
3044.752	4718
3046.568	4803
3048.385	4718
3050.2	4730
3052.016	4816
3053.83	4690
3055.646	4742
3057.46	4689
3059.272	4714
3061.086	4725
3062.898	4702
3064.711	4675
3066.524	4787
3068.335	4751
3070.145	4707
3071.956	4770
3073.766	4788
3075.576	4767
3077.385	4618
3079.193	4636
3081.002	4741
3082.81	4667
3084.618	4723
3086.425	4646
3088.231	4703
3090.036	4591
3091.842	4719
3093.648	4584
3095.452	4585
3097.257	4646
3099.06	4591
3100.863	4613
3102.666	4551
3104.47	4653
3106.272	4636
3108.073	4549
3109.875	4654
3111.676	4571
3113.477	4571
3115.277	4539
3117.077	4579
3118.874	4616
3120.673	4673
3122.473	4540
3124.271	4594
3126.066	4574
3127.863	4541
3129.66	4672
3131.456	4603
3133.252	4511
3135.047	4555
3136.842	4515
3138.635	4513
3140.429	4624
3142.223	4557
3144.016	4642
3145.808	4464
3147.6	4562
3149.392	4594
3151.183	4509
3152.975	4562
3154.765	4543
3156.553	4518
3158.344	4560
3160.132	4597
3161.922	4559
3163.71	4446
3165.497	4552
3167.285	4536
3169.071	4504
3170.858	4546
3172.645	4503
3174.429	4508
3176.214	4534
3177.998	4499
3179.783	4526
3181.568	4520
3183.351	4530
3185.133	4414
3186.915	4449
3188.698	4438
3190.481	4513
3192.261	4459
3194.042	4503
3195.822	4492
3197.601	4484
3199.381	4443
3201.161	4491
3202.939	4457
3204.717	4480
3206.495	4487
3208.272	4501
3210.05	4495
3211.826	4557
3213.602	4376
3215.376	4495
3217.151	4502
3218.927	4479
3220.702	4482
3222.476	4523
3224.249	4500
3226.021	4467
3227.793	4402
3229.567	4507
3231.339	4464
3233.109	4448
3234.88	4410
3236.651	4392
3238.421	4471
3240.191	4444
3241.96	4543
3243.728	4471
3245.497	4360
3247.263	4528
3249.033	4414
3250.799	4555
3252.566	4516
3254.331	4513
3256.097	4375
3257.863	4390
3259.628	4469
3261.392	4426
3263.156	4484
3264.919	4493
3266.683	4460
3268.447	4460
3270.208	4448
3271.969	4431
3273.731	4468
3275.492	4477
3277.253	4474
3279.013	4409
3280.773	4430
3282.532	4442
3284.291	4434
3286.05	4453
3287.808	4421
3289.566	4565
3291.323	4411
3293.079	4443
3294.835	4518
3296.593	4488
3298.348	4444
3300.102	4433
3301.857	4446
3303.611	4457
3305.366	4445
3307.119	4564
3308.872	4475
3310.624	4491
3312.376	4452
3314.129	4377
3315.881	4439
3317.631	4385
3319.38	4394
3321.13	4442
3322.88	4509
3324.631	4449
3326.379	4453
3328.126	4478
3329.875	4454
3331.622	4487
3333.371	4360
3335.116	4422
3336.863	4420
3338.609	4429
3340.353	4420
3342.1	4448
3343.845	4475
3345.588	4381
3347.332	4420
3349.074	4384
3350.817	4408
3352.56	4402
3354.303	4283
3356.043	4441
3357.785	4418
3359.525	4428
3361.268	4418
3363.007	4493
3364.745	4424
3366.485	4251
3368.223	4457
3369.962	4405
3371.701	4338
3373.438	4349
3375.174	4324
3376.911	4380
3378.647	4424
3380.384	4355
3382.118	4322
3383.854	4322
3385.588	4348
3387.322	4381
3389.057	4326
3390.79	4265
3392.522	4275
3394.255	4335
3395.987	4248
3397.719	4286
3399.451	4323
3401.181	4394
3402.911	4361
3404.641	4218
3406.371	4290
3408.101	4374
3409.83	4328
3411.558	4320
3413.285	4241
3415.011	4315
3416.739	4282
3418.467	4274
3420.193	4241
3421.919	4324
3423.644	4313
3425.368	4329
3427.094	4255
3428.818	4251
3430.542	4294
3432.264	4222
3433.987	4180
3435.712	4176
3437.434	4315
3439.155	4213
3440.876	4353
3442.596	4227
3444.317	4247
3446.039	4297
3447.757	4147
3449.477	4242
3451.195	4150
3452.914	4214
3454.632	4170
3456.35	4206
3458.067	4193
3459.784	4143
3461.5	4201
3463.216	4083
3464.932	4253
3466.647	4208
3468.362	4219
3470.076	4169
3471.789	4196
3473.505	4213
3475.217	4055
3476.929	4111
3478.641	4067
3480.354	4166
3482.066	4185
3483.777	4217
3485.487	4116
3487.197	4063
3488.908	4024
3490.617	4148
3492.327	4120
3494.035	4076
3495.743	4011
3497.451	4001
3499.158	4089
3500.866	4103
3502.572	4102
3504.278	4042
3505.984	4176
3507.689	3970
3509.396	4114
3511.1	4042
3512.804	4084
3514.508	4015
3516.211	4050
3517.913	4060
3519.616	4083
3521.319	3935
3523.021	4076
3524.722	4072
3526.422	3997
3528.124	4108
3529.824	3952
3531.524	3977
3533.222	4043
3534.921	3941
3536.62	4002
3538.318	3964
3540.016	4023
3541.714	3992
3543.41	4025
3545.107	3991
3546.803	4003
3548.5	3964
3550.194	4004
3551.889	4008
3553.583	3963
3555.279	3990
3556.972	3940
3558.666	3903
3560.358	4025
3562.051	3993
3563.742	3989
3565.435	4007
3567.126	3852
3568.817	4046
3570.507	3974
3572.197	4005
3573.888	3980
3575.577	3951
3577.265	3917
3578.954	4020
3580.642	3903
3582.329	3918
3584.017	3906
3585.704	3882
3587.391	3864
3589.077	3907
3590.762	3858
3592.449	3902
3594.133	3921
3595.817	3949
3597.501	3835
3599.185	3843
3600.869	3846
3602.552	3803
3604.234	3820
3605.916	3855
3607.598	3913
3609.279	3805
3610.961	3871
3612.642	3833
3614.321	3743
3616	3791
3617.68	3810
3619.36	3815
3621.039	3796
3622.716	3838
3624.394	3817
3626.071	3832
3627.748	3772
3629.425	3799
3631.102	3788
3632.778	3808
3634.452	3775
3636.127	3821
3637.803	3728
3639.477	3743
3641.151	3732
3642.823	3799
3644.497	3721
3646.171	3734
3647.842	3696
3649.515	3720
3651.185	3780
3652.857	3731
3654.527	3779
3656.198	3832
3657.868	3728
3659.537	3715
3661.207	3660
3662.875	3790
3664.544	3659
3666.212	3655
3667.879	3665
3669.546	3737
3671.212	3705
3672.88	3686
3674.546	3700
3676.211	3797
3677.875	3705
3679.541	3599
3681.205	3690
3682.87	3704
3684.533	3691
3686.196	3690
3687.859	3617
3689.521	3704
3691.184	3621
3692.845	3672
3694.507	3609
3696.167	3640
3697.827	3641
3699.487	3653
3701.148	3666
3702.808	3687
3704.466	3590
3706.125	3670
3707.783	3614
3709.442	3716
3711.099	3637
3712.757	3660
3714.412	3648
3716.068	3605
3717.725	3763
3719.381	3648
3721.036	3659
3722.689	3658
3724.344	3683
3725.998	3599
3727.652	3572
3729.305	3578
3730.958	3630
3732.61	3614
3734.262	3648
3735.915	3594
3737.565	3591
3739.217	3661
3740.866	3554
3742.516	3711
3744.165	3524
3745.816	3534
3747.464	3658
3749.113	3600
3750.761	3599
3752.409	3565
3754.057	3547
3755.703	3607
3757.35	3603
3758.996	3550
3760.641	3625
3762.289	3593
3763.933	3629
3765.577	3523
3767.222	3597
3768.865	3480
3770.508	3532
3772.152	3582
3773.796	3581
3775.438	3700
3777.079	3535
3778.721	3539
3780.363	3492
3782.003	3548
3783.643	3533
3785.283	3523
3786.923	3577
3788.563	3557
3790.203	3478
3791.841	3472
3793.479	3467
3795.115	3516
3796.753	3544
3798.391	3551
3800.027	3515
3801.664	3482
3803.299	3466
3804.935	3545
3806.571	3494
3808.206	3423
3809.839	3488
3811.473	3518
3813.107	3443
3814.74	3540
3816.375	3553
3818.006	3454
3819.638	3476
3821.27	3480
3822.9	3431
3824.532	3429
3826.163	3510
3827.792	3407
3829.423	3407
3831.051	3422
3832.682	3437
3834.311	3405
3835.938	3379
3837.566	3440
3839.193	3447
3840.821	3479
3842.448	3390
3844.075	3449
3845.7	3427
3847.325	3411
3848.951	3438
3850.576	3428
3852.201	3400
3853.825	3378
3855.448	3526
3857.072	3458
3858.694	3390
3860.318	3436
3861.939	3398
3863.562	3390
3865.183	3380
3866.804	3298
3868.426	3396
3870.045	3341
3871.666	3388
3873.285	3425
3874.904	3346
3876.524	3406
3878.142	3328
3879.76	3398
3881.378	3370
3882.995	3423
3884.612	3356
3886.229	3378
3887.845	3348
3889.461	3365
3891.076	3389
3892.691	3374
3894.307	3333
3895.922	3300
3897.536	3347
3899.149	3390
3900.761	3330
3902.374	3308
3903.988	3336
3905.6	3379
3907.212	3366
3908.822	3325
3910.433	3396
3912.045	3405
3913.655	3333
3915.265	3328
3916.875	3308
3918.483	3354
3920.093	3221
3921.702	3335
3923.309	3347
3924.917	3351
3926.523	3264
3928.13	3405
3929.739	3383
3931.344	3298
3932.95	3289
3934.555	3283
3936.159	3366
3937.766	3270
3939.369	3336
3940.974	3313
3942.577	3267
3944.181	3361
3945.783	3248
3947.386	3291
3948.989	3334
3950.59	3310
3952.191	3283
3953.791	3311
3955.394	3237
3956.994	3290
3958.593	3366
3960.192	3324
3961.791	3311
3963.392	3340
3964.99	3214
3966.588	3301
3968.185	3299
3969.782	3230
3971.379	3245
3972.976	3210
3974.572	3224
3976.168	3231
3977.763	3184
3979.358	3322
3980.954	3286
3982.548	3235
3984.142	3212
3985.736	3245
3987.329	3208
3988.922	3274
3990.516	3150
3992.108	3209
3993.698	3192
3995.29	3156
3996.881	3219
3998.473	3190
4000.064	3186
4001.653	3214
4003.242	3200
4004.832	3222
4006.422	3229
4008.01	3209
4009.598	3244
4011.186	3132
4012.773	3128
4014.36	3096
4015.947	3103
4017.534	3167
4019.119	3087
4020.705	3123
4022.291	3050
4023.876	3076
4025.461	3169
4027.044	3139
4028.627	3120
4030.211	3082
4031.795	3137
4033.378	3073
4034.96	3056
4036.542	3052
4038.124	3100
4039.704	3093
4041.286	3063
4042.867	3088
4044.447	3071
4046.026	3171
4047.606	3061
4049.187	3064
4050.765	3061
4052.343	3085
4053.92	3086
4055.498	3044
4057.076	3069
4058.654	3126
4060.23	3029
4061.806	3117
4063.381	3053
4064.957	3074
4066.533	3086
4068.107	3067
4069.682	2961
4071.256	3066
4072.829	3064
4074.404	3070
4075.977	3023
4077.549	3065
4079.121	3057
4080.693	3065
4082.265	3032
4083.836	3055
4085.407	3091
4086.977	3068
4088.547	3104
4090.117	2981
4091.687	2975
4093.256	3053
4094.825	3037
4096.392	2960
4097.96	3036
4099.528	3017
4101.097	3016
4102.663	2938
4104.229	3016
4105.795	3101
4107.361	2914
4108.928	2990
4110.493	2935
4112.058	3056
4113.621	2957
4115.186	3035
4116.75	2936
4118.313	2935
4119.876	2995
4121.438	2983
4123	3009
4124.562	2978
4126.125	3008
4127.686	2979
4129.246	2958
4130.807	2947
4132.367	2932
4133.927	2986
4135.486	2927
4137.046	2950
4138.604	2906
4140.162	2946
4141.72	2916
4143.279	2824
4144.836	2922
4146.393	2901
4147.949	2900
4149.505	2906
4151.062	2942
4152.617	2918
4154.172	2877
4155.727	2968
4157.281	2863
4158.836	2838
4160.39	2885
4161.943	2930
4163.496	2886
4165.048	2848
4166.601	2906
4168.154	2832
4169.706	2827
4171.257	2840
4172.808	2838
4174.358	2872
4175.909	2847
4177.458	2878
4179.008	2867
4180.558	2894
4182.106	2800
4183.655	2834
4185.204	2973
4186.751	2820
4188.298	2876
4189.845	2774
4191.392	2835
4192.939	2782
4194.485	2849
4196.031	2823
4197.576	2828
4199.121	2804
4200.666	2792
4202.211	2759
4203.754	2813
4205.298	2769
4206.84	2772
4208.384	2840
4209.927	2837
4211.47	2763
4213.011	2855
4214.552	2773
4216.094	2765
4217.635	2796
4219.175	2768
4220.716	2794
4222.255	2755
4223.793	2729
4225.335	2731
4226.873	2813
4228.411	2744
4229.948	2751
4231.486	2760
4233.024	2722
4234.562	2736
4236.098	2866
4237.634	2823
4239.169	2722
4240.705	2773
4242.241	2813
4243.776	2753
4245.31	2719
4246.844	2758
4248.378	2733
4249.911	2736
4251.445	2786
4252.978	2783
4254.51	2699
4256.042	2779
4257.574	2780
4259.107	2815
4260.638	2765
4262.169	2649
4263.699	2798
4265.228	2764
4266.759	2767
4268.289	2675
4269.818	2789
4271.345	2734
4272.874	2778
4274.402	2703
4275.931	2709
4277.458	2664
4278.985	2687
4280.512	2715
4282.037	2705
4283.564	2689
4285.089	2679
4286.615	2655
4288.139	2666
4289.664	2670
4291.187	2714
4292.712	2692
4294.235	2707
4295.759	2684
4297.281	2682
4298.804	2700
4300.327	2653
4301.849	2702
4303.37	2700
4304.891	2691
4306.412	2654
4307.933	2763
4309.453	2602
4310.973	2701
4312.492	2621
