398.1873	9648
400.7097	9643
403.2336	9832
405.7547	9737
408.2751	9757
410.7948	9838
413.3138	9817
415.83	9889
418.3497	10098
420.8666	10023
423.3829	10160
425.8985	10244
428.4133	10183
430.9275	10338
433.441	10362
435.9538	10399
438.4639	10218
440.9753	10252
443.4881	10484
445.9982	10511
448.5055	10431
451.0142	10524
453.5201	10578
456.0274	10423
458.5361	10494
461.04	10382
463.5453	10513
466.0478	10541
468.5517	10536
471.0549	10529
473.5574	10630
476.0572	10659
478.5584	10598
481.0568	10644
483.5545	10549
486.0557	10727
488.5521	10623
491.0478	10852
493.5449	10864
496.0392	10879
498.5349	10873
501.0299	10851
503.5222	10750
506.0139	10946
508.5048	10953
510.9991	10971
513.4887	11074
515.9777	10836
518.4659	10977
520.9534	11108
523.4403	10988
525.9306	11035
528.4161	10935
530.9009	11020
533.3851	10899
535.8687	11040
538.3535	11102
540.8356	10839
543.3171	10923
545.7979	11107
548.278	11189
550.7595	11127
553.2383	11180
555.7144	11147
558.1918	11168
560.6685	11123
563.1446	11209
565.6221	11218
568.0968	11151
570.5688	11323
573.0422	11413
575.515	11335
577.989	11345
580.4584	11534
582.9291	11370
585.3991	11414
587.8685	11474
590.3352	11477
592.8052	11399
595.2706	11594
597.7372	11513
600.2033	11348
602.6666	11499
605.1334	11412
607.5953	11371
610.0587	11376
612.5193	11322
614.9814	11538
617.4427	11442
619.9034	11407
622.3615	11503
624.8208	11401
627.2775	11345
629.7335	11510
632.1929	11378
634.6476	11402
637.1016	11540
639.5569	11520
642.0096	11318
644.4637	11518
646.9151	11627
649.3678	11692
651.8179	11547
654.2672	11635
656.7159	11649
659.166	11651
661.6154	11686
664.0622	11815
666.5082	11794
668.9537	11816
671.4005	11748
673.8445	11789
676.288	11790
678.7308	11842
681.1729	11814
683.6163	11789
686.0572	11846
688.4973	11774
690.9368	11868
693.3757	11925
695.8138	11830
698.2534	11955
700.6902	11817
703.1245	11849
705.56	12085
707.9949	12017
710.4311	12150
712.8647	12015
715.2957	11922
717.7279	12173
720.1595	12237
722.5905	12055
725.0208	12134
727.4505	12228
729.8795	12183
732.3058	12406
734.7336	12310
737.1626	12369
739.587	12521
742.0128	12411
744.4359	12501
746.8604	12596
749.2841	12436
751.7073	12509
754.1278	12722
756.5496	12642
758.9688	12795
761.3893	12834
763.8093	12750
766.2285	12650
768.6451	12706
771.0611	12645
773.4784	12782
775.895	12841
778.3091	12840
780.7244	12661
783.1371	12602
785.5493	12826
787.9626	12892
790.3754	12751
792.7856	12742
795.1951	12812
797.6039	12782
800.0121	12835
802.4236	12858
804.8306	12971
807.2369	12754
809.6425	12827
812.0475	12838
814.4538	12910
816.8575	12917
819.2606	12964
821.663	12864
824.0648	13011
826.4659	12760
828.8683	12888
831.2682	12825
833.6674	12920
836.066	12940
838.4639	12942
840.8632	12964
843.2579	13109
845.6539	13118
848.0493	13071
850.444	13254
852.84	13187
855.2315	13144
857.6243	13193
860.0165	13058
862.4081	13040
864.797	12973
867.1892	13130
869.5789	13191
871.9659	13050
874.3542	13018
876.74	13001
879.129	13010
881.5155	13041
883.8994	12972
886.2845	13139
888.6671	13091
891.051	13027
893.4343	13174
895.8169	13202
898.197	13073
900.5783	13138
902.9571	13198
905.3372	13329
907.7167	13293
910.0936	13208
912.4698	13203
914.8474	13360
917.2244	13450
919.5987	13133
921.9744	13384
924.3475	13421
926.72	13497
929.0918	13561
931.4669	13586
933.8375	13476
936.2074	13526
938.5767	13772
940.9454	13525
943.3154	13974
945.6829	13908
948.0497	14126
950.4178	14400
952.7833	14670
955.1483	15013
957.5145	15355
959.8782	15538
962.2412	15619
964.6036	15281
966.9655	14901
969.3266	14669
971.6871	14130
974.0471	13786
976.4064	13839
978.765	13713
981.125	13596
983.4824	13448
985.8373	13544
988.1935	13499
990.549	13512
992.9039	13306
995.2602	13514
997.6119	13415
999.965	13522
1002.317	13555
1004.667	13455
1007.02	13570
1009.371	13625
1011.719	13658
1014.068	13464
1016.415	13534
1018.765	13448
1021.111	13671
1023.458	13535
1025.804	13793
1028.147	13577
1030.49	13609
1032.837	13792
1035.179	13769
1037.522	13731
1039.862	13601
1042.204	13661
1044.546	13740
1046.884	13642
1049.224	13753
1051.562	13712
1053.899	13782
1056.237	13731
1058.575	13897
1060.91	13866
1063.244	13928
1065.58	14030
1067.913	13868
1070.248	13982
1072.579	13889
1074.911	14078
1077.242	13804
1079.572	13813
1081.905	13806
1084.234	13853
1086.562	13901
1088.89	13865
1091.217	13632
1093.544	13925
1095.871	13743
1098.197	13909
1100.521	13863
1102.845	13783
1105.169	13802
1107.491	13864
1109.814	13842
1112.135	13731
1114.456	13965
1116.776	13765
1119.096	13931
1121.415	13762
1123.734	13811
1126.052	13892
1128.369	13792
1130.686	13909
1133.002	14048
1135.318	13889
1137.632	13811
1139.945	13913
1142.258	13957
1144.573	13982
1146.884	13936
1149.196	14045
1151.505	14031
1153.816	14083
1156.124	14070
1158.435	13992
1160.742	14026
1163.051	14038
1165.356	14028
1167.663	14047
1169.97	13879
1172.276	13931
1174.579	13901
1176.881	13919
1179.186	13948
1181.487	13959
1183.79	13953
1186.092	13805
1188.392	13868
1190.691	14064
1192.991	13903
1195.291	13834
1197.588	13995
1199.885	13889
1202.181	14001
1204.479	13999
1206.775	13863
1209.07	13885
1211.363	13929
1213.656	13830
1215.949	14071
1218.241	14136
1220.534	13976
1222.825	13985
1225.115	14048
1227.405	13950
1229.693	14136
1231.984	14174
1234.271	14037
1236.558	14284
1238.845	14403
1241.131	14183
1243.416	14225
1245.703	14516
1247.987	14199
1250.269	14238
1252.552	14287
1254.834	14176
1257.118	14310
1259.399	14362
1261.678	14505
1263.958	14312
1266.237	14232
1268.516	14418
1270.794	14234
1273.072	14248
1275.347	14390
1277.624	14336
1279.899	14277
1282.175	14181
1284.449	14100
1286.722	14157
1288.995	14187
1291.266	14340
1293.54	14145
1295.81	14172
1298.081	14128
1300.35	14106
1302.62	14272
1304.889	14096
1307.156	14144
1309.425	14123
1311.69	14295
1313.957	14175
1316.222	14082
1318.488	14223
1320.751	14115
1323.016	14047
1325.278	14298
1327.54	14233
1329.803	14099
1332.065	14288
1334.325	14324
1336.584	14205
1338.843	14240
1341.101	14080
1343.36	14168
1345.617	14140
1347.876	14181
1350.131	14321
1352.387	14103
1354.643	14365
1356.897	14142
1359.151	14126
1361.403	14258
1363.656	14306
1365.909	14255
1368.16	14215
1370.409	14201
1372.659	14279
1374.909	14214
1377.157	14402
1379.407	14276
1381.655	14400
1383.9	14386
1386.147	14331
1388.393	14370
1390.64	14303
1392.885	14577
1395.127	14237
1397.37	14419
1399.614	14377
1401.854	14540
1404.098	14305
1406.339	14363
1408.578	14358
1410.818	14442
1413.056	14469
1415.297	14465
1417.533	14475
1419.771	14242
1422.006	14533
1424.243	14342
1426.479	14518
1428.715	14462
1430.948	14512
1433.182	14560
1435.414	14682
1437.647	14618
1439.88	14736
1442.11	14638
1444.342	14465
1446.571	14665
1448.799	14525
1451.029	14741
1453.258	14852
1455.485	14661
1457.711	14782
1459.937	14596
1462.164	14771
1464.39	14685
1466.614	14636
1468.838	14635
1471.06	14558
1473.283	14605
1475.506	14555
1477.727	14481
1479.949	14444
1482.169	14316
1484.389	14424
1486.609	14376
1488.828	14280
1491.045	14278
1493.261	14217
1495.477	14243
1497.693	14330
1499.91	14504
1502.125	14358
1504.339	14413
1506.553	14537
1508.766	14110
1510.979	14232
1513.191	14238
1515.402	14318
1517.613	14223
1519.823	14092
1522.033	14337
1524.242	14266
1526.451	14145
1528.657	14196
1530.865	14154
1533.072	14361
1535.278	14210
1537.484	14304
1539.687	14198
1541.892	14492
1544.096	14562
1546.299	14287
1548.502	14443
1550.703	14289
1552.905	14382
1555.104	14507
1557.303	14605
1559.505	14499
1561.703	14542
1563.902	14469
1566.099	14632
1568.295	14675
1570.494	14672
1572.689	14562
1574.883	14651
1577.079	14658
1579.272	14831
1581.467	14830
1583.659	14534
1585.853	14731
1588.044	14837
1590.234	14724
1592.424	14699
1594.615	14772
1596.806	14972
1598.994	14623
1601.182	14799
1603.369	14776
1605.557	14823
1607.744	14657
1609.929	14748
1612.114	14641
1614.298	14846
1616.482	14890
1618.667	14773
1620.85	14990
1623.032	14789
1625.214	14716
1627.395	14946
1629.575	14671
1631.755	14817
1633.935	14793
1636.114	15097
1638.292	14883
1640.471	15029
1642.647	14920
1644.823	14828
1647	14728
1649.175	14972
1651.348	14909
1653.525	14785
1655.698	14894
1657.87	15135
1660.043	14969
1662.213	14895
1664.387	15010
1666.558	14910
1668.727	14928
1670.896	14925
1673.064	14879
1675.233	14950
1677.401	15056
1679.569	14886
1681.735	14987
1683.902	14793
1686.066	14912
1688.233	14978
1690.397	14817
1692.559	14656
1694.723	14812
1696.885	14826
1699.048	14785
1701.21	14786
1703.37	14631
1705.53	14918
1707.689	14732
1709.849	14760
1712.009	14767
1714.166	14746
1716.323	14721
1718.479	14705
1720.634	14696
1722.793	14643
1724.948	14721
1727.102	14685
1729.255	14722
1731.408	14832
1733.562	14797
1735.714	14742
1737.865	14744
1740.016	14608
1742.166	14645
1744.316	14798
1746.467	14732
1748.616	14859
1750.764	14787
1752.911	14878
1755.056	14771
1757.205	14695
1759.35	14821
1761.496	14840
1763.641	14775
1765.785	14776
1767.927	14809
1770.072	14779
1772.214	14779
1774.355	14888
1776.496	14877
1778.637	14913
1780.778	14967
1782.918	14853
1785.057	14976
1787.194	14933
1789.333	14850
1791.472	14904
1793.608	15127
1795.745	14836
1797.879	14883
1800.015	14911
1802.148	14929
1804.284	14934
1806.417	14927
1808.548	15010
1810.682	14854
1812.812	14978
1814.946	14770
1817.075	14916
1819.205	14840
1821.335	14826
1823.463	14876
1825.59	14852
1827.721	14738
1829.847	14665
1831.973	14922
1834.098	14668
1836.223	14847
1838.351	14855
1840.475	14808
1842.598	14674
1844.721	14805
1846.843	14958
1848.966	14890
1851.087	14701
1853.21	14745
1855.33	14673
1857.449	14727
1859.568	14693
1861.688	14738
1863.806	14698
1865.924	14649
1868.039	14416
1870.155	14882
1872.273	14715
1874.388	14865
1876.503	14589
1878.617	14724
1880.73	14692
1882.844	14702
1884.956	14628
1887.068	14738
1889.18	14632
1891.291	14573
1893.4	14631
1895.511	14800
1897.621	14695
1899.73	14961
1901.837	14677
1903.944	14888
1906.053	14796
1908.159	14847
1910.265	14866
1912.369	14886
1914.474	14872
1916.577	14785
1918.683	14892
1920.785	14967
1922.888	14859
1924.989	14811
1927.091	15035
1929.193	14972
1931.294	14871
1933.393	14726
1935.493	14816
1937.59	14953
1939.689	14935
1941.788	14944
1943.884	14775
1945.98	14979
1948.077	14920
1950.171	14857
1952.267	15063
1954.361	14913
1956.455	14908
1958.548	14976
1960.64	15029
1962.733	14918
1964.824	14940
1966.915	14959
1969.005	14862
1971.096	14933
1973.185	14853
1975.275	14857
1977.363	14752
1979.45	14700
1981.537	14845
1983.623	14724
1985.711	14764
1987.796	14659
1989.881	14722
1991.965	14836
1994.047	14801
1996.132	14706
1998.215	14719
2000.297	14764
2002.378	14797
2004.46	14758
2006.54	14748
2008.62	14667
2010.7	14851
2012.779	14739
2014.858	14782
2016.934	14701
2019.013	14650
2021.09	14793
2023.165	14665
2025.241	14803
2027.317	14753
2029.39	14679
2031.466	14884
2033.538	14686
2035.612	14669
2037.683	14613
2039.755	14724
2041.827	14687
2043.898	14779
2045.968	14729
2048.038	14653
2050.106	14654
2052.177	14580
2054.244	14699
2056.313	14711
2058.379	14725
2060.444	14674
2062.511	14659
2064.577	14631
2066.641	14927
2068.705	14632
2070.77	14841
2072.832	14830
2074.896	14708
2076.958	14653
2079.02	14618
2081.081	14693
2083.141	14775
2085.2	14934
2087.261	14849
2089.319	14674
2091.377	14496
2093.435	14733
2095.492	14686
2097.552	14632
2099.607	14726
2101.663	14692
2103.718	14753
2105.771	14640
2107.826	14721
2109.879	14639
2111.932	14628
2113.985	14510
2116.037	14703
2118.088	14768
2120.141	14663
2122.191	14753
2124.239	14751
2126.288	14675
2128.337	14727
2130.387	14591
2132.434	14550
2134.481	14530
2136.528	14730
2138.574	14470
2140.618	14531
2142.665	14620
2144.71	14542
2146.753	14690
2148.797	14426
2150.838	14611
2152.883	14491
2154.923	14719
2156.965	14478
2159.007	14498
2161.046	14560
2163.086	14439
2165.126	14553
2167.163	14472
2169.202	14339
2171.239	14526
2173.277	14423
2175.314	14389
2177.349	14352
2179.385	14405
2181.42	14435
2183.453	14292
2185.49	14323
2187.522	14278
2189.555	14481
2191.586	14434
2193.619	14357
2195.651	14496
2197.682	14516
2199.711	14348
2201.74	14096
2203.769	14548
2205.799	14197
2207.828	14247
2209.855	14169
2211.882	14001
2213.908	14349
2215.934	14213
2217.961	14243
2219.986	14252
2222.01	14168
2224.034	14085
2226.057	14149
2228.08	14234
2230.104	14121
2232.124	14237
2234.145	14193
2236.166	14080
2238.186	14145
2240.207	14249
2242.227	14237
2244.244	14100
2246.262	14523
2248.28	14206
2250.299	14214
2252.314	14120
2254.33	14149
2256.346	14323
2258.36	14187
2260.375	14200
2262.391	14291
2264.403	14124
2266.416	14237
2268.427	14314
2270.44	14218
2272.453	14178
2274.463	14123
2276.474	14171
2278.483	14175
2280.493	14082
2282.501	14149
2284.51	14099
2286.518	14190
2288.524	14177
2290.532	14197
2292.537	14145
2294.544	14027
2296.55	14201
2298.554	14208
2300.557	14209
2302.562	14022
2304.566	14195
2306.568	14060
2308.569	14097
2310.572	14075
2312.573	14038
2314.573	14108
2316.574	14161
2318.573	14086
2320.571	14059
2322.571	13988
2324.569	14203
2326.567	14089
2328.564	14036
2330.56	13799
2332.556	14004
2334.551	13959
2336.546	13759
2338.542	13835
2340.535	13862
2342.529	13874
2344.521	13900
2346.512	13939
2348.505	13919
2350.497	13869
2352.487	13837
2354.478	13651
2356.468	13817
2358.457	13998
2360.446	13907
2362.434	13920
2364.422	13855
2366.408	13790
2368.395	13823
2370.383	13630
2372.369	13847
2374.353	13703
2376.338	13755
2378.321	13609
2380.307	13803
2382.29	13787
2384.272	13902
2386.254	13799
2388.235	13753
2390.218	13629
2392.198	13733
2394.179	13759
2396.157	13686
2398.137	13817
2400.115	13576
2402.095	13563
2404.072	13696
2406.048	13608
2408.026	13638
2410.001	13533
2411.977	13562
2413.953	13508
2415.927	13581
2417.9	13705
2419.875	13596
2421.847	13526
2423.821	13619
2425.792	13615
2427.763	13716
2429.736	13600
2431.706	13675
2433.677	13660
2435.646	13620
2437.615	13579
2439.583	13544
2441.551	13624
2443.519	13679
2445.486	13473
2447.452	13584
2449.418	13654
2451.383	13413
2453.348	13406
2455.314	13721
2457.278	13334
2459.241	13417
2461.205	13460
2463.167	13438
2465.131	13401
2467.091	13502
2469.052	13277
2471.012	13531
2472.972	13421
2474.932	13453
2476.891	13284
2478.85	13562
2480.808	13141
2482.766	13461
2484.722	13248
2486.68	13310
2488.636	13455
2490.591	13256
2492.546	13380
2494.5	13494
2496.456	13291
2498.41	13412
2500.362	13348
2502.315	13218
2504.266	13469
2506.218	13404
2508.169	13336
2510.121	13289
2512.07	13302
2514.019	13245
2515.968	13254
2517.918	13357
2519.866	13322
2521.813	13073
2523.76	13305
2525.707	13338
2527.653	13367
2529.599	13148
2531.543	13486
2533.489	13319
2535.433	13167
2537.376	13064
2539.32	13233
2541.264	13376
2543.205	13221
2545.147	13241
2547.087	13112
2549.029	13275
2550.969	13074
2552.908	13296
2554.847	13031
2556.786	13215
2558.724	13242
2560.663	13186
2562.6	13241
2564.537	13312
2566.473	13192
2568.408	13122
2570.345	13294
2572.28	13134
2574.214	13018
2576.148	13144
2578.081	13201
2580.014	13150
2581.947	13245
2583.879	13148
2585.81	13192
2587.741	13264
2589.67	13150
2591.602	13177
2593.532	13208
2595.461	13223
2597.388	13267
2599.316	13244
2601.244	13117
2603.172	13166
2605.098	13370
2607.023	13187
2608.949	13265
2610.873	13179
2612.8	13358
2614.723	13350
2616.647	13335
2618.569	13355
2620.493	13284
2622.416	13239
2624.338	13212
2626.258	13075
2628.179	13207
2630.099	13157
2632.019	13189
2633.939	13272
2635.857	13222
2637.775	13182
2639.694	13267
2641.61	13257
2643.528	13185
2645.444	12991
2647.361	13121
2649.276	13317
2651.19	13298
2653.105	13272
2655.019	13267
2656.934	13171
2658.846	13041
2660.758	13051
2662.67	13136
2664.583	13176
2666.493	13183
2668.404	13187
2670.313	13194
2672.223	13097
2674.134	13057
2676.042	13074
2677.95	13082
2679.858	13237
2681.765	13004
2683.673	12966
2685.579	13153
2687.483	13060
2689.389	12886
2691.294	12882
2693.198	13087
2695.104	13076
2697.006	13183
2698.909	12840
2700.811	12957
2702.713	12948
2704.615	12862
2706.516	12969
2708.417	12971
2710.316	13042
2712.216	12803
2714.115	12900
2716.014	12888
2717.913	12863
2719.81	12842
2721.707	12942
2723.603	12968
2725.501	12744
2727.396	12788
2729.292	12909
2731.186	12788
2733.081	12870
2734.976	12842
2736.87	12781
2738.762	12949
2740.653	12904
2742.546	12887
2744.437	12709
2746.329	12914
2748.22	12726
2750.11	12722
2751.999	12773
2753.889	12843
2755.778	12815
2757.666	12672
2759.553	12723
2761.44	12711
2763.328	12671
2765.215	12817
2767.101	12690
2768.986	12595
2770.87	12834
2772.754	12645
2774.638	12685
2776.523	12651
2778.405	12832
2780.288	12786
2782.17	12670
2784.051	12657
2785.934	12636
2787.814	12677
2789.694	12648
2791.574	12694
2793.453	12641
2795.332	12561
2797.212	12682
2799.088	12527
2800.966	12717
2802.843	12629
2804.719	12651
2806.597	12645
2808.471	12545
2810.346	12607
2812.221	12655
2814.094	12472
2815.969	12460
2817.843	12565
2819.714	12664
2821.587	12388
2823.459	12668
2825.329	12499
2827.202	12583
2829.072	12465
2830.942	12532
2832.811	12464
2834.68	12532
2836.549	12576
2838.418	12401
2840.284	12569
2842.152	12536
2844.018	12488
2845.885	12408
2847.751	12415
2849.616	12523
2851.482	12519
2853.345	12468
2855.208	12592
2857.074	12417
2858.937	12493
2860.799	12455
2862.66	12637
2864.522	12508
2866.385	12499
2868.245	12535
2870.104	12808
2871.964	12800
2873.824	12632
2875.683	12799
2877.542	12908
2879.4	12771
2881.257	12930
2883.114	12790
2884.97	12807
2886.827	12853
2888.683	12789
2890.537	12772
2892.392	12859
2894.246	12746
2896.1	12869
2897.954	12911
2899.807	12764
2901.66	12814
2903.51	12682
2905.362	12863
2907.214	12851
2909.065	12698
2910.915	12925
2912.765	13025
2914.613	12923
2916.463	13043
2918.311	12997
2920.158	13216
2922.006	13206
2923.853	13164
2925.698	13465
2927.546	13224
2929.392	13483
2931.236	13555
2933.081	13616
2934.924	13629
2936.77	13506
2938.613	13737
2940.455	13682
2942.298	13733
2944.139	13617
2945.982	13708
2947.823	13474
2949.662	13550
2951.503	13505
2953.342	13352
2955.182	13377
2957.021	13296
2958.858	13330
2960.697	13077
2962.534	13018
2964.37	12954
2966.207	13009
2968.044	13070
2969.879	12996
2971.714	12858
2973.548	12752
2975.383	12767
2977.218	12784
2979.051	12871
2980.883	12668
2982.715	12933
2984.547	12784
2986.379	12763
2988.21	12731
2990.04	12685
2991.87	12561
2993.7	12572
2995.53	12544
2997.359	12617
2999.187	12438
3001.015	12303
3002.842	12276
3004.669	12331
3006.497	12067
3008.323	12330
3010.148	12054
3011.974	11993
3013.797	12052
3015.623	12017
3017.447	11867
3019.27	12115
3021.094	11863
3022.915	11737
3024.737	11866
3026.56	11855
3028.38	11823
3030.201	11885
3032.022	11920
3033.84	11974
3035.662	11802
3037.481	11675
3039.298	11645
3041.117	11788
3042.933	11774
3044.752	11663
3046.568	11664
3048.385	11910
3050.2	11574
3052.016	11617
3053.83	11639
3055.646	11516
3057.46	11562
3059.272	11607
3061.086	11554
3062.898	11551
3064.711	11600
3066.524	11757
3068.335	11504
3070.145	11464
3071.956	11614
3073.766	11468
3075.576	11477
3077.385	11443
3079.193	11618
3081.002	11513
3082.81	11356
3084.618	11590
3086.425	11258
3088.231	11339
3090.036	11302
3091.842	11545
3093.648	11335
3095.452	11306
3097.257	11391
3099.06	11295
3100.863	11282
3102.666	11122
3104.47	11290
3106.272	11348
3108.073	11126
3109.875	11278
3111.676	11400
3113.477	11235
3115.277	11254
3117.077	11145
3118.874	11196
3120.673	11074
3122.473	10989
3124.271	11016
3126.066	11413
3127.863	11129
3129.66	11112
3131.456	11075
3133.252	11069
3135.047	11002
3136.842	10916
3138.635	10951
3140.429	11198
3142.223	11155
3144.016	11063
3145.808	11021
3147.6	10880
3149.392	10880
3151.183	11009
3152.975	10970
3154.765	10870
3156.553	10978
3158.344	11064
3160.132	10988
3161.922	11023
3163.71	10934
3165.497	10954
3167.285	10939
3169.071	10902
3170.858	10867
3172.645	10855
3174.429	10809
3176.214	10758
3177.998	10761
3179.783	10880
3181.568	10739
3183.351	10766
3185.133	10866
3186.915	10785
3188.698	10668
3190.481	10928
3192.261	10672
3194.042	10774
3195.822	10670
3197.601	10871
3199.381	10724
3201.161	10657
3202.939	10702
3204.717	10759
3206.495	10766
3208.272	10761
3210.05	10777
3211.826	10816
3213.602	10698
3215.376	10662
3217.151	10814
3218.927	10565
3220.702	10740
3222.476	10694
3224.249	10643
3226.021	10554
3227.793	10546
3229.567	10579
3231.339	10642
3233.109	10646
3234.88	10658
3236.651	10682
3238.421	10589
3240.191	10616
3241.96	10671
3243.728	10634
3245.497	10629
3247.263	10634
3249.033	10690
3250.799	10569
3252.566	10627
3254.331	10697
3256.097	10615
3257.863	10520
3259.628	10571
3261.392	10667
3263.156	10706
3264.919	10438
3266.683	10660
3268.447	10637
3270.208	10608
3271.969	10437
3273.731	10433
3275.492	10525
3277.253	10633
3279.013	10465
3280.773	10537
3282.532	10480
3284.291	10591
3286.05	10537
3287.808	10542
3289.566	10543
3291.323	10521
3293.079	10578
3294.835	10449
3296.593	10551
3298.348	10545
3300.102	10552
3301.857	10421
3303.611	10540
3305.366	10545
3307.119	10411
3308.872	10506
3310.624	10555
3312.376	10527
3314.129	10512
3315.881	10654
3317.631	10447
3319.38	10465
3321.13	10482
3322.88	10464
3324.631	10400
3326.379	10417
3328.126	10406
3329.875	10365
3331.622	10484
3333.371	10518
3335.116	10359
3336.863	10398
3338.609	10439
3340.353	10436
3342.1	10373
3343.845	10540
3345.588	10322
3347.332	10359
3349.074	10384
3350.817	10331
3352.56	10405
3354.303	10378
3356.043	10539
3357.785	10290
3359.525	10136
3361.268	10167
3363.007	10272
3364.745	10225
3366.485	10302
3368.223	10192
3369.962	10226
3371.701	10207
3373.438	10251
3375.174	10226
3376.911	10086
3378.647	10280
3380.384	10238
3382.118	10124
3383.854	10188
3385.588	10038
3387.322	10189
3389.057	10109
3390.79	10089
3392.522	10094
3394.255	10170
3395.987	10153
3397.719	10256
3399.451	10059
3401.181	10189
3402.911	10049
3404.641	10039
3406.371	10071
3408.101	10035
3409.83	10083
3411.558	10088
3413.285	10049
3415.011	10080
3416.739	10004
3418.467	10018
3420.193	10077
3421.919	9929
3423.644	10082
3425.368	10037
3427.094	9982
3428.818	9887
3430.542	9853
3432.264	9935
3433.987	9932
3435.712	9806
3437.434	9969
3439.155	9948
3440.876	9929
3442.596	9771
3444.317	9809
3446.039	9904
3447.757	9801
3449.477	9707
3451.195	9701
3452.914	9918
3454.632	9900
3456.35	9596
3458.067	9657
3459.784	9775
3461.5	9895
3463.216	9675
3464.932	9669
3466.647	9783
3468.362	9598
3470.076	9705
3471.789	9636
3473.505	9710
3475.217	9566
3476.929	9601
3478.641	9686
3480.354	9471
3482.066	9684
3483.777	9633
3485.487	9379
3487.197	9613
3488.908	9721
3490.617	9584
3492.327	9518
3494.035	9532
3495.743	9706
3497.451	9573
3499.158	9418
3500.866	9558
3502.572	9462
3504.278	9532
3505.984	9585
3507.689	9314
3509.396	9392
3511.1	9477
3512.804	9441
3514.508	9476
3516.211	9300
3517.913	9287
3519.616	9423
3521.319	9384
3523.021	9121
3524.722	9259
3526.422	9275
3528.124	9262
3529.824	9287
3531.524	9447
3533.222	9229
3534.921	9289
3536.62	9372
3538.318	9259
3540.016	9201
3541.714	9120
3543.41	9172
3545.107	9290
3546.803	9256
3548.5	9101
3550.194	9270
3551.889	9325
3553.583	9270
3555.279	9141
3556.972	9366
3558.666	9044
3560.358	9104
3562.051	9297
3563.742	9054
3565.435	9172
3567.126	9308
3568.817	9123
3570.507	9269
3572.197	9043
3573.888	9131
3575.577	9100
3577.265	9024
3578.954	9110
3580.642	9029
3582.329	9041
3584.017	8974
3585.704	8984
3587.391	9016
3589.077	9096
3590.762	8965
3592.449	9043
3594.133	8848
3595.817	8931
3597.501	8978
3599.185	8862
3600.869	8809
3602.552	8754
3604.234	9005
3605.916	8869
3607.598	8749
3609.279	8718
3610.961	8949
3612.642	8790
3614.321	8799
3616	8692
3617.68	8893
3619.36	8871
3621.039	8752
3622.716	8642
3624.394	8748
3626.071	8772
3627.748	8659
3629.425	8859
3631.102	8763
3632.778	8766
3634.452	8611
3636.127	8605
3637.803	8727
3639.477	8765
3641.151	8534
3642.823	8713
3644.497	8500
3646.171	8654
3647.842	8743
3649.515	8429
3651.185	8545
3652.857	8461
3654.527	8479
3656.198	8642
3657.868	8586
3659.537	8738
3661.207	8665
3662.875	8575
3664.544	8597
3666.212	8487
3667.879	8574
3669.546	8458
3671.212	8577
3672.88	8579
3674.546	8492
3676.211	8587
3677.875	8463
3679.541	8434
3681.205	8449
3682.87	8392
3684.533	8397
3686.196	8474
3687.859	8383
3689.521	8440
3691.184	8369
3692.845	8554
3694.507	8340
3696.167	8508
3697.827	8375
3699.487	8382
3701.148	8379
3702.808	8364
3704.466	8433
3706.125	8349
3707.783	8341
3709.442	8304
3711.099	8378
3712.757	8270
3714.412	8395
3716.068	8282
3717.725	8310
3719.381	8382
3721.036	8205
3722.689	8174
3724.344	8204
3725.998	8259
3727.652	8308
3729.305	8236
3730.958	8179
3732.61	8229
3734.262	8071
3735.915	8254
3737.565	8290
3739.217	8172
3740.866	8125
3742.516	8198
3744.165	8190
3745.816	8195
3747.464	8176
3749.113	8149
3750.761	8033
3752.409	8171
3754.057	8207
3755.703	8183
3757.35	8201
3758.996	8059
3760.641	8162
3762.289	8136
3763.933	8072
3765.577	8129
3767.222	8053
3768.865	8146
3770.508	7951
3772.152	8080
3773.796	8015
3775.438	8113
3777.079	8218
3778.721	8111
3780.363	7950
3782.003	7965
3783.643	8023
3785.283	8053
3786.923	7960
3788.563	8011
3790.203	7982
3791.841	7848
3793.479	8004
3795.115	7919
3796.753	7992
3798.391	8005
3800.027	7939
3801.664	7825
3803.299	7777
3804.935	7862
3806.571	7933
3808.206	7885
3809.839	7907
3811.473	7801
3813.107	7868
3814.74	7962
3816.375	7765
3818.006	7846
3819.638	7725
3821.27	7772
3822.9	7805
3824.532	7880
3826.163	7753
3827.792	7822
3829.423	7899
3831.051	7694
3832.682	7710
3834.311	7667
3835.938	7691
3837.566	7705
3839.193	7681
3840.821	7813
3842.448	7649
3844.075	7676
3845.7	7636
3847.325	7645
3848.951	7669
3850.576	7554
3852.201	7736
3853.825	7726
3855.448	7685
3857.072	7599
3858.694	7577
3860.318	7651
3861.939	7575
3863.562	7639
3865.183	7564
3866.804	7562
3868.426	7519
3870.045	7644
3871.666	7448
3873.285	7482
3874.904	7567
3876.524	7417
3878.142	7501
3879.76	7594
3881.378	7559
3882.995	7571
3884.612	7520
3886.229	7464
3887.845	7560
3889.461	7577
3891.076	7558
3892.691	7605
3894.307	7449
3895.922	7445
3897.536	7537
3899.149	7378
3900.761	7461
3902.374	7476
3903.988	7463
3905.6	7451
3907.212	7587
3908.822	7375
3910.433	7405
3912.045	7452
3913.655	7424
3915.265	7418
3916.875	7384
3918.483	7494
3920.093	7446
3921.702	7428
3923.309	7408
3924.917	7473
3926.523	7401
3928.13	7428
3929.739	7388
3931.344	7415
3932.95	7222
3934.555	7328
3936.159	7357
3937.766	7315
3939.369	7406
3940.974	7274
3942.577	7326
3944.181	7417
3945.783	7335
3947.386	7345
3948.989	7248
3950.59	7263
3952.191	7317
3953.791	7307
3955.394	7331
3956.994	7235
3958.593	7289
3960.192	7134
3961.791	7247
3963.392	7217
3964.99	7239
3966.588	7195
3968.185	7238
3969.782	7059
3971.379	7220
3972.976	7239
3974.572	7107
3976.168	7165
3977.763	7157
3979.358	7225
3980.954	7204
3982.548	7125
3984.142	7031
3985.736	7098
3987.329	7124
3988.922	7192
3990.516	7130
3992.108	7137
3993.698	7140
3995.29	7152
3996.881	6998
3998.473	6961
4000.064	7044
4001.653	6959
4003.242	7024
4004.832	7083
4006.422	6881
4008.01	7011
4009.598	6920
4011.186	6960
4012.773	6872
4014.36	6845
4015.947	6890
4017.534	7010
4019.119	6955
4020.705	6900
4022.291	6866
4023.876	6828
4025.461	6884
4027.044	6864
4028.627	6783
4030.211	6896
4031.795	6903
4033.378	6749
4034.96	6763
4036.542	6767
4038.124	6805
4039.704	6816
4041.286	6684
4042.867	6774
4044.447	6771
4046.026	6830
4047.606	6824
4049.187	6698
4050.765	6698
4052.343	6748
4053.92	6787
4055.498	6694
4057.076	6696
4058.654	6824
4060.23	6675
4061.806	6657
4063.381	6687
4064.957	6735
4066.533	6603
4068.107	6817
4069.682	6674
4071.256	6640
4072.829	6721
4074.404	6623
4075.977	6530
4077.549	6807
4079.121	6619
4080.693	6631
4082.265	6590
4083.836	6633
4085.407	6616
4086.977	6592
4088.547	6694
4090.117	6567
4091.687	6585
4093.256	6529
4094.825	6590
4096.392	6635
4097.96	6622
4099.528	6524
4101.097	6587
4102.663	6534
4104.229	6488
4105.795	6537
4107.361	6498
4108.928	6502
4110.493	6483
4112.058	6466
4113.621	6506
4115.186	6507
4116.75	6461
4118.313	6463
4119.876	6594
4121.438	6456
4123	6462
4124.562	6438
4126.125	6397
4127.686	6360
4129.246	6442
4130.807	6325
4132.367	6217
4133.927	6412
4135.486	6412
4137.046	6305
4138.604	6360
4140.162	6293
4141.72	6354
4143.279	6386
4144.836	6299
4146.393	6495
4147.949	6330
4149.505	6215
4151.062	6354
4152.617	6199
4154.172	6168
4155.727	6286
4157.281	6203
4158.836	6209
4160.39	6120
4161.943	6166
4163.496	6193
4165.048	6256
4166.601	6047
4168.154	6225
4169.706	6191
4171.257	6140
4172.808	6130
4174.358	6054
4175.909	6278
4177.458	6062
4179.008	6131
4180.558	6135
4182.106	6084
4183.655	6139
4185.204	6132
4186.751	6072
4188.298	6225
4189.845	6073
4191.392	6086
4192.939	6059
4194.485	6011
4196.031	6103
4197.576	6003
4199.121	6099
4200.666	5960
4202.211	5958
4203.754	6021
4205.298	6002
4206.84	5970
4208.384	6008
4209.927	5978
4211.47	5994
4213.011	5996
4214.552	5921
4216.094	5897
4217.635	5926
4219.175	5979
4220.716	5824
4222.255	5988
4223.793	5880
4225.335	5855
4226.873	5899
4228.411	6018
4229.948	5903
4231.486	5907
4233.024	5919
4234.562	5882
4236.098	5895
4237.634	5939
4239.169	6006
4240.705	5923
4242.241	5950
4243.776	5815
4245.31	5927
4246.844	5828
4248.378	5844
4249.911	5912
4251.445	5899
4252.978	5919
4254.51	5690
4256.042	5793
4257.574	5818
4259.107	5801
4260.638	5779
4262.169	5846
4263.699	5894
4265.228	5856
4266.759	5707
4268.289	5693
4269.818	5770
4271.345	5831
4272.874	5724
4274.402	5690
4275.931	5794
4277.458	5782
4278.985	5845
4280.512	5716
4282.037	5756
4283.564	5730
4285.089	5600
4286.615	5681
4288.139	5649
4289.664	5650
4291.187	5759
4292.712	5706
4294.235	5688
4295.759	5669
4297.281	5673
4298.804	5703
4300.327	5693
4301.849	5661
4303.37	5658
4304.891	5569
4306.412	5642
4307.933	5639
4309.453	5580
4310.973	5540
4312.492	5599
