398.1873	3107
400.7097	3147
403.2336	3092
405.7547	3146
408.2751	3240
410.7948	3143
413.3138	3245
415.83	3145
418.3497	3188
420.8666	3154
423.3829	3210
425.8985	3293
428.4133	3250
430.9275	3307
433.441	3319
435.9538	3211
438.4639	3315
440.9753	3300
443.4881	3282
445.9982	3330
448.5055	3278
451.0142	3299
453.5201	3388
456.0274	3324
458.5361	3427
461.04	3303
463.5453	3257
466.0478	3339
468.5517	3321
471.0549	3374
473.5574	3409
476.0572	3361
478.5584	3386
481.0568	3459
483.5545	3372
486.0557	3361
488.5521	3411
491.0478	3385
493.5449	3430
496.0392	3397
498.5349	3436
501.0299	3441
503.5222	3489
506.0139	3460
508.5048	3449
510.9991	3449
513.4887	3382
515.9777	3399
518.4659	3486
520.9534	3409
523.4403	3451
525.9306	3502
528.4161	3447
530.9009	3492
533.3851	3518
535.8687	3535
538.3535	3422
540.8356	3499
543.3171	3469
545.7979	3513
548.278	3524
550.7595	3470
553.2383	3515
555.7144	3469
558.1918	3588
560.6685	3475
563.1446	3453
565.6221	3517
568.0968	3541
570.5688	3494
573.0422	3475
575.515	3487
577.989	3533
580.4584	3490
582.9291	3522
585.3991	3643
587.8685	3608
590.3352	3628
592.8052	3563
595.2706	3579
597.7372	3542
600.2033	3490
602.6666	3581
605.1334	3602
607.5953	3549
610.0587	3554
612.5193	3595
614.9814	3629
617.4427	3622
619.9034	3574
622.3615	3468
624.8208	3514
627.2775	3648
629.7335	3568
632.1929	3581
634.6476	3562
637.1016	3587
639.5569	3584
642.0096	3574
644.4637	3602
646.9151	3619
649.3678	3593
651.8179	3613
654.2672	3670
656.7159	3666
659.166	3653
661.6154	3719
664.0622	3685
666.5082	3656
668.9537	3702
671.4005	3636
673.8445	3740
676.288	3666
678.7308	3677
681.1729	3655
683.6163	3727
686.0572	3736
688.4973	3673
690.9368	3705
693.3757	3673
695.8138	3659
698.2534	3667
700.6902	3717
703.1245	3730
705.56	3761
707.9949	3733
710.4311	3728
712.8647	3766
715.2957	3725
717.7279	3877
720.1595	3708
722.5905	3793
725.0208	3777
727.4505	3871
729.8795	3776
732.3058	3794
734.7336	3840
737.1626	3840
739.587	3969
742.0128	3904
744.4359	3866
746.8604	3855
749.2841	3934
751.7073	3850
754.1278	3925
756.5496	3863
758.9688	3920
761.3893	3934
763.8093	3892
766.2285	3897
768.6451	3973
771.0611	3983
773.4784	3908
775.895	4006
778.3091	3996
780.7244	4004
783.1371	3941
785.5493	3984
787.9626	3872
790.3754	3967
792.7856	4018
795.1951	3952
797.6039	4010
800.0121	4044
802.4236	4067
804.8306	4008
807.2369	3919
809.6425	3992
812.0475	3941
814.4538	4072
816.8575	3998
819.2606	4026
821.663	4016
824.0648	4001
826.4659	4020
828.8683	4064
831.2682	4029
833.6674	3966
836.066	4053
838.4639	3984
840.8632	4093
843.2579	4018
845.6539	4053
848.0493	4013
850.444	4094
852.84	4047
855.2315	4038
857.6243	4054
860.0165	4106
862.4081	4008
864.797	3984
867.1892	4079
869.5789	4099
871.9659	4073
874.3542	4122
876.74	4059
879.129	4003
881.5155	4040
883.8994	4107
886.2845	4073
888.6671	4085
891.051	4084
893.4343	4094
895.8169	4043
898.197	4076
900.5783	4026
902.9571	4087
905.3372	4058
907.7167	4120
910.0936	4125
912.4698	4057
914.8474	4213
917.2244	4215
919.5987	4163
921.9744	4115
924.3475	4171
926.72	4196
929.0918	4130
931.4669	4136
933.8375	4189
936.2074	4096
938.5767	4340
940.9454	4213
943.3154	4311
945.6829	4282
948.0497	4324
950.4178	4361
952.7833	4425
955.1483	4444
957.5145	4637
959.8782	4587
962.2412	4566
964.6036	4520
966.9655	4477
969.3266	4381
971.6871	4308
974.0471	4191
976.4064	4159
978.765	4189
981.125	4177
983.4824	4243
985.8373	4213
988.1935	4224
990.549	4231
992.9039	4178
995.2602	4209
997.6119	4191
999.965	4152
1002.317	4164
1004.667	4192
1007.02	4160
1009.371	4219
1011.719	4249
1014.068	4207
1016.415	4244
1018.765	4234
1021.111	4359
1023.458	4163
1025.804	4193
1028.147	4258
1030.49	4185
1032.837	4289
1035.179	4294
1037.522	4363
1039.862	4284
1042.204	4290
1044.546	4241
1046.884	4357
1049.224	4245
1051.562	4392
1053.899	4260
1056.237	4257
1058.575	4203
1060.91	4274
1063.244	4301
1065.58	4325
1067.913	4268
1070.248	4384
1072.579	4323
1074.911	4244
1077.242	4349
1079.572	4218
1081.905	4257
1084.234	4352
1086.562	4227
1088.89	4333
1091.217	4267
1093.544	4414
1095.871	4205
1098.197	4427
1100.521	4339
1102.845	4307
1105.169	4324
1107.491	4357
1109.814	4255
1112.135	4325
1114.456	4430
1116.776	4394
1119.096	4354
1121.415	4290
1123.734	4378
1126.052	4384
1128.369	4375
1130.686	4334
1133.002	4284
1135.318	4381
1137.632	4349
1139.945	4432
1142.258	4350
1144.573	4339
1146.884	4339
1149.196	4358
1151.505	4401
1153.816	4342
1156.124	4395
1158.435	4362
1160.742	4347
1163.051	4429
1165.356	4430
1167.663	4375
1169.97	4295
1172.276	4419
1174.579	4356
1176.881	4332
1179.186	4349
1181.487	4473
1183.79	4274
1186.092	4357
1188.392	4307
1190.691	4373
1192.991	4365
1195.291	4343
1197.588	4413
1199.885	4482
1202.181	4382
1204.479	4315
1206.775	4425
1209.07	4414
1211.363	4497
1213.656	4346
1215.949	4488
1218.241	4415
1220.534	4502
1222.825	4340
1225.115	4462
1227.405	4477
1229.693	4420
1231.984	4420
1234.271	4521
1236.558	4469
1238.845	4437
1241.131	4489
1243.416	4374
1245.703	4483
1247.987	4477
1250.269	4493
1252.552	4607
1254.834	4501
1257.118	4482
1259.399	4479
1261.678	4457
1263.958	4504
1266.237	4493
1268.516	4436
1270.794	4509
1273.072	4530
1275.347	4445
1277.624	4590
1279.899	4507
1282.175	4477
1284.449	4563
1286.722	4543
1288.995	4453
1291.266	4438
1293.54	4515
1295.81	4465
1298.081	4461
1300.35	4428
1302.62	4428
1304.889	4492
1307.156	4477
1309.425	4476
1311.69	4503
1313.957	4485
1316.222	4497
1318.488	4427
1320.751	4407
1323.016	4510
1325.278	4468
1327.54	4520
1329.803	4553
1332.065	4542
1334.325	4568
1336.584	4500
1338.843	4542
1341.101	4543
1343.36	4522
1345.617	4463
1347.876	4524
1350.131	4535
1352.387	4488
1354.643	4469
1356.897	4428
1359.151	4556
1361.403	4571
1363.656	4531
1365.909	4587
1368.16	4585
1370.409	4517
1372.659	4531
1374.909	4511
1377.157	4510
1379.407	4460
1381.655	4537
1383.9	4483
1386.147	4608
1388.393	4561
1390.64	4608
1392.885	4542
1395.127	4540
1397.37	4601
1399.614	4516
1401.854	4595
1404.098	4591
1406.339	4508
1408.578	4668
1410.818	4535
1413.056	4694
1415.297	4654
1417.533	4591
1419.771	4727
1422.006	4634
1424.243	4587
1426.479	4678
1428.715	4607
1430.948	4620
1433.182	4699
1435.414	4565
1437.647	4677
1439.88	4650
1442.11	4571
1444.342	4663
1446.571	4599
1448.799	4732
1451.029	4662
1453.258	4687
1455.485	4620
1457.711	4636
1459.937	4628
1462.164	4780
1464.39	4704
1466.614	4674
1468.838	4716
1471.06	4602
1473.283	4554
1475.506	4562
1477.727	4630
1479.949	4588
1482.169	4560
1484.389	4639
1486.609	4504
1488.828	4582
1491.045	4633
1493.261	4594
1495.477	4597
1497.693	4582
1499.91	4603
1502.125	4553
1504.339	4551
1506.553	4505
1508.766	4560
1510.979	4563
1513.191	4575
1515.402	4621
1517.613	4631
1519.823	4512
1522.033	4522
1524.242	4514
1526.451	4624
1528.657	4569
1530.865	4542
1533.072	4618
1535.278	4583
1537.484	4625
1539.687	4618
1541.892	4602
1544.096	4593
1546.299	4579
1548.502	4648
1550.703	4530
1552.905	4588
1555.104	4599
1557.303	4712
1559.505	4648
1561.703	4680
1563.902	4603
1566.099	4592
1568.295	4642
1570.494	4613
1572.689	4713
1574.883	4562
1577.079	4750
1579.272	4629
1581.467	4786
1583.659	4737
1585.853	4721
1588.044	4734
1590.234	4730
1592.424	4728
1594.615	4722
1596.806	4721
1598.994	4699
1601.182	4749
1603.369	4722
1605.557	4848
1607.744	4727
1609.929	4727
1612.114	4772
1614.298	4703
1616.482	4730
1618.667	4664
1620.85	4738
1623.032	4670
1625.214	4632
1627.395	4634
1629.575	4746
1631.755	4732
1633.935	4771
1636.114	4764
1638.292	4673
1640.471	4756
1642.647	4756
1644.823	4789
1647	4782
1649.175	4859
1651.348	4863
1653.525	4736
1655.698	4737
1657.87	4697
1660.043	4762
1662.213	4861
1664.387	4916
1666.558	4765
1668.727	4871
1670.896	4785
1673.064	4794
1675.233	4776
1677.401	4795
1679.569	4659
1681.735	4761
1683.902	4796
1686.066	4716
1688.233	4765
1690.397	4705
1692.559	4750
1694.723	4742
1696.885	4799
1699.048	4770
1701.21	4833
1703.37	4751
1705.53	4797
1707.689	4711
1709.849	4690
1712.009	4772
1714.166	4787
1716.323	4785
1718.479	4681
1720.634	4749
1722.793	4812
1724.948	4823
1727.102	4819
1729.255	4780
1731.408	4714
1733.562	4765
1735.714	4763
1737.865	4769
1740.016	4858
1742.166	4803
1744.316	4816
1746.467	4837
1748.616	4831
1750.764	4720
1752.911	4799
1755.056	4750
1757.205	4856
1759.35	4777
1761.496	4857
1763.641	4749
1765.785	4763
1767.927	4778
1770.072	4845
1772.214	4823
1774.355	4835
1776.496	4837
1778.637	4814
1780.778	4750
1782.918	4816
1785.057	4788
1787.194	4894
1789.333	4876
1791.472	4814
1793.608	4853
1795.745	4866
1797.879	4906
1800.015	4791
1802.148	4886
1804.284	4858
1806.417	4781
1808.548	4850
1810.682	4712
1812.812	4828
1814.946	4822
1817.075	4854
1819.205	4841
1821.335	4824
1823.463	4869
1825.59	4885
1827.721	4845
1829.847	4765
1831.973	4840
1834.098	4810
1836.223	4870
1838.351	4802
1840.475	4827
1842.598	4731
1844.721	4782
1846.843	4706
1848.966	4748
1851.087	4875
1853.21	4798
1855.33	4822
1857.449	4814
1859.568	4882
1861.688	4764
1863.806	4842
1865.924	4768
1868.039	4832
1870.155	4946
1872.273	4750
1874.388	4822
1876.503	4718
1878.617	4798
1880.73	4828
1882.844	4813
1884.956	4909
1887.068	4861
1889.18	4695
1891.291	4810
1893.4	4844
1895.511	4814
1897.621	4812
1899.73	4836
1901.837	4741
1903.944	4915
1906.053	4842
1908.159	4786
1910.265	4798
1912.369	4814
1914.474	4839
1916.577	4793
1918.683	4891
1920.785	4901
1922.888	4853
1924.989	4968
1927.091	4822
1929.193	4883
1931.294	4877
1933.393	4852
1935.493	4906
1937.59	4945
1939.689	4957
1941.788	4911
1943.884	4881
1945.98	4949
1948.077	4863
1950.171	4835
1952.267	4849
1954.361	4925
1956.455	4887
1958.548	4944
1960.64	4945
1962.733	4847
1964.824	4847
1966.915	4902
1969.005	4921
1971.096	4919
1973.185	4915
1975.275	4855
1977.363	4884
1979.45	4816
1981.537	4898
1983.623	4812
1985.711	4909
1987.796	4887
1989.881	4841
1991.965	4952
1994.047	4815
1996.132	4868
1998.215	4828
2000.297	4867
2002.378	4841
2004.46	4915
2006.54	4854
2008.62	4808
2010.7	4932
2012.779	4870
2014.858	4879
2016.934	4863
2019.013	4932
2021.09	4921
2023.165	4823
2025.241	4766
2027.317	4842
2029.39	4849
2031.466	4823
2033.538	4890
2035.612	4820
2037.683	4905
2039.755	4819
2041.827	4886
2043.898	4797
2045.968	4768
2048.038	4854
2050.106	4843
2052.177	4904
2054.244	4969
2056.313	4901
2058.379	4888
2060.444	4914
2062.511	4855
2064.577	4845
2066.641	4885
2068.705	4849
2070.77	4918
2072.832	4910
2074.896	4962
2076.958	4952
2079.02	4945
2081.081	4909
2083.141	4945
2085.2	4863
2087.261	4890
2089.319	4792
2091.377	4934
2093.435	4948
2095.492	4899
2097.552	4886
2099.607	4851
2101.663	4986
2103.718	4946
2105.771	4873
2107.826	5000
2109.879	4867
2111.932	4840
2113.985	4839
2116.037	4889
2118.088	4850
2120.141	4789
2122.191	5007
2124.239	4884
2126.288	4796
2128.337	4925
2130.387	4786
2132.434	4861
2134.481	4821
2136.528	4919
2138.574	4895
2140.618	4942
2142.665	4836
2144.71	4813
2146.753	4871
2148.797	4800
2150.838	4903
2152.883	4945
2154.923	4765
2156.965	4991
2159.007	4859
2161.046	4813
2163.086	4906
2165.126	4947
2167.163	4940
2169.202	4884
2171.239	4786
2173.277	4929
2175.314	4822
2177.349	4865
2179.385	4852
2181.42	4844
2183.453	4852
2185.49	4777
2187.522	4860
2189.555	4778
2191.586	4865
2193.619	4767
2195.651	4771
2197.682	4768
2199.711	4785
2201.74	4770
2203.769	4964
2205.799	4728
2207.828	4818
2209.855	4756
2211.882	4737
2213.908	4901
2215.934	4778
2217.961	4798
2219.986	4885
2222.01	4790
2224.034	4755
2226.057	4767
2228.08	4855
2230.104	4742
2232.124	4786
2234.145	4818
2236.166	4836
2238.186	4768
2240.207	4804
2242.227	4737
2244.244	4786
2246.262	4755
2248.28	4794
2250.299	4787
2252.314	4762
2254.33	4781
2256.346	4755
2258.36	4738
2260.375	4756
2262.391	4732
2264.403	4635
2266.416	4795
2268.427	4842
2270.44	4795
2272.453	4820
2274.463	4766
2276.474	4655
2278.483	4816
2280.493	4769
2282.501	4843
2284.51	4695
2286.518	4706
2288.524	4678
2290.532	4869
2292.537	4699
2294.544	4823
2296.55	4829
2298.554	4729
2300.557	4879
2302.562	4834
2304.566	4745
2306.568	4797
2308.569	4747
2310.572	4873
2312.573	4804
2314.573	4808
2316.574	4771
2318.573	4777
2320.571	4755
2322.571	4775
2324.569	4822
2326.567	4728
2328.564	4807
2330.56	4707
2332.556	4849
2334.551	4674
2336.546	4765
2338.542	4747
2340.535	4713
2342.529	4764
2344.521	4611
2346.512	4711
2348.505	4711
2350.497	4722
2352.487	4766
2354.478	4734
2356.468	4626
2358.457	4756
2360.446	4683
2362.434	4641
2364.422	4641
2366.408	4709
2368.395	4770
2370.383	4650
2372.369	4694
2374.353	4759
2376.338	4758
2378.321	4689
2380.307	4761
2382.29	4669
2384.272	4569
2386.254	4790
2388.235	4690
2390.218	4778
2392.198	4602
2394.179	4617
2396.157	4615
2398.137	4708
2400.115	4662
2402.095	4711
2404.072	4721
2406.048	4677
2408.026	4644
2410.001	4642
2411.977	4643
2413.953	4732
2415.927	4754
2417.9	4620
2419.875	4722
2421.847	4729
2423.821	4700
2425.792	4576
2427.763	4586
2429.736	4726
2431.706	4641
2433.677	4688
2435.646	4661
2437.615	4676
2439.583	4642
2441.551	4639
2443.519	4723
2445.486	4628
2447.452	4677
2449.418	4738
2451.383	4611
2453.348	4703
2455.314	4652
2457.278	4592
2459.241	4663
2461.205	4661
2463.167	4765
2465.131	4602
2467.091	4575
2469.052	4554
2471.012	4493
2472.972	4742
2474.932	4663
2476.891	4560
2478.85	4626
2480.808	4687
2482.766	4637
2484.722	4579
2486.68	4624
2488.636	4683
2490.591	4577
2492.546	4768
2494.5	4526
2496.456	4461
2498.41	4614
2500.362	4727
2502.315	4549
2504.266	4626
2506.218	4576
2508.169	4599
2510.121	4663
2512.07	4661
2514.019	4570
2515.968	4582
2517.918	4637
2519.866	4578
2521.813	4629
2523.76	4611
2525.707	4581
2527.653	4647
2529.599	4613
2531.543	4623
2533.489	4541
2535.433	4591
2537.376	4549
2539.32	4698
2541.264	4507
2543.205	4558
2545.147	4613
2547.087	4593
2549.029	4535
2550.969	4571
2552.908	4555
2554.847	4583
2556.786	4630
2558.724	4602
2560.663	4607
2562.6	4557
2564.537	4546
2566.473	4623
2568.408	4661
2570.345	4580
2572.28	4572
2574.214	4592
2576.148	4585
2578.081	4529
2580.014	4553
2581.947	4571
2583.879	4604
2585.81	4556
2587.741	4635
2589.67	4635
2591.602	4612
2593.532	4659
2595.461	4511
2597.388	4546
2599.316	4577
2601.244	4597
2603.172	4588
2605.098	4611
2607.023	4643
2608.949	4584
2610.873	4608
2612.8	4675
2614.723	4653
2616.647	4648
2618.569	4656
2620.493	4516
2622.416	4555
2624.338	4564
2626.258	4607
2628.179	4605
2630.099	4606
2632.019	4603
2633.939	4596
2635.857	4604
2637.775	4715
2639.694	4611
2641.61	4512
2643.528	4690
2645.444	4628
2647.361	4588
2649.276	4639
2651.19	4612
2653.105	4610
2655.019	4659
2656.934	4638
2658.846	4612
2660.758	4603
2662.67	4675
2664.583	4636
2666.493	4514
2668.404	4589
2670.313	4595
2672.223	4600
2674.134	4518
2676.042	4690
2677.95	4634
2679.858	4563
2681.765	4518
2683.673	4568
2685.579	4510
2687.483	4603
2689.389	4624
2691.294	4508
2693.198	4450
2695.104	4506
2697.006	4596
2698.909	4585
2700.811	4652
2702.713	4493
2704.615	4586
2706.516	4461
2708.417	4608
2710.316	4539
2712.216	4552
2714.115	4488
2716.014	4515
2717.913	4536
2719.81	4581
2721.707	4526
2723.603	4549
2725.501	4547
2727.396	4509
2729.292	4552
2731.186	4513
2733.081	4478
2734.976	4569
2736.87	4507
2738.762	4445
2740.653	4506
2742.546	4576
2744.437	4565
2746.329	4439
2748.22	4597
2750.11	4413
2751.999	4474
2753.889	4503
2755.778	4579
2757.666	4506
2759.553	4521
2761.44	4554
2763.328	4437
2765.215	4537
2767.101	4456
2768.986	4596
2770.87	4436
2772.754	4503
2774.638	4440
2776.523	4409
2778.405	4544
2780.288	4433
2782.17	4520
2784.051	4475
2785.934	4565
2787.814	4465
2789.694	4408
2791.574	4396
2793.453	4511
2795.332	4580
2797.212	4525
2799.088	4448
2800.966	4429
2802.843	4404
2804.719	4519
2806.597	4458
2808.471	4366
2810.346	4574
2812.221	4457
2814.094	4425
2815.969	4404
2817.843	4535
2819.714	4493
2821.587	4471
2823.459	4469
2825.329	4428
2827.202	4480
2829.072	4396
2830.942	4498
2832.811	4390
2834.68	4419
2836.549	4488
2838.418	4325
2840.284	4478
2842.152	4493
2844.018	4427
2845.885	4486
2847.751	4364
2849.616	4401
2851.482	4495
2853.345	4516
2855.208	4496
2857.074	4438
2858.937	4384
2860.799	4491
2862.66	4453
2864.522	4434
2866.385	4361
2868.245	4540
2870.104	4547
2871.964	4517
2873.824	4602
2875.683	4523
2877.542	4532
2879.4	4604
2881.257	4632
2883.114	4515
2884.97	4623
2886.827	4578
2888.683	4614
2890.537	4608
2892.392	4633
2894.246	4483
2896.1	4623
2897.954	4602
2899.807	4525
2901.66	4604
2903.51	4608
2905.362	4592
2907.214	4681
2909.065	4529
2910.915	4547
2912.765	4664
2914.613	4513
2916.463	4650
2918.311	4596
2920.158	4546
2922.006	4640
2923.853	4672
2925.698	4705
2927.546	4690
2929.392	4728
2931.236	4733
2933.081	4674
2934.924	4662
2936.77	4791
2938.613	4747
2940.455	4737
2942.298	4792
2944.139	4757
2945.982	4805
2947.823	4687
2949.662	4720
2951.503	4796
2953.342	4735
2955.182	4722
2957.021	4697
2958.858	4811
2960.697	4746
2962.534	4790
2964.37	4702
2966.207	4673
2968.044	4597
2969.879	4582
2971.714	4585
2973.548	4509
2975.383	4593
2977.218	4575
2979.051	4582
2980.883	4528
2982.715	4379
2984.547	4552
2986.379	4470
2988.21	4499
2990.04	4473
2991.87	4461
2993.7	4397
2995.53	4434
2997.359	4454
2999.187	4421
3001.015	4495
3002.842	4439
3004.669	4345
3006.497	4333
3008.323	4396
3010.148	4316
3011.974	4253
3013.797	4417
3015.623	4416
3017.447	4300
3019.27	4271
3021.094	4348
3022.915	4231
3024.737	4231
3026.56	4233
3028.38	4232
3030.201	4235
3032.022	4243
3033.84	4213
3035.662	4248
3037.481	4306
3039.298	4131
3041.117	4193
3042.933	4378
3044.752	4221
3046.568	4173
3048.385	4168
3050.2	4283
3052.016	4256
3053.83	4122
3055.646	4305
3057.46	4289
3059.272	4199
3061.086	4179
3062.898	4204
3064.711	4152
3066.524	4201
3068.335	4252
3070.145	4189
3071.956	4160
3073.766	4125
3075.576	4133
3077.385	4261
3079.193	4158
3081.002	4217
3082.81	4087
3084.618	4157
3086.425	4199
3088.231	4136
3090.036	4091
3091.842	4085
3093.648	4049
3095.452	4146
3097.257	4220
3099.06	4089
3100.863	4136
3102.666	4009
3104.47	4135
3106.272	4055
3108.073	4109
3109.875	4141
3111.676	4131
3113.477	4142
3115.277	4055
3117.077	4002
3118.874	4105
3120.673	4099
3122.473	4093
3124.271	4005
3126.066	4062
3127.863	4014
3129.66	4101
3131.456	4041
3133.252	4043
3135.047	4021
3136.842	4034
3138.635	4007
3140.429	4106
3142.223	4049
3144.016	4060
3145.808	3989
3147.6	4034
3149.392	4017
3151.183	3996
3152.975	3969
3154.765	3932
3156.553	3947
3158.344	3992
3160.132	3963
3161.922	3946
3163.71	3942
3165.497	3987
3167.285	3859
3169.071	4056
3170.858	3938
3172.645	3892
3174.429	4001
3176.214	3942
3177.998	3976
3179.783	3937
3181.568	3968
3183.351	3978
3185.133	3944
3186.915	3917
3188.698	3970
3190.481	3914
3192.261	3952
3194.042	3913
3195.822	3898
3197.601	3907
3199.381	3949
3201.161	4004
3202.939	3937
3204.717	3961
3206.495	3960
3208.272	3891
3210.05	4035
3211.826	3894
3213.602	3860
3215.376	3843
3217.151	3978
3218.927	3985
3220.702	3960
3222.476	3963
3224.249	3991
3226.021	3885
3227.793	3932
3229.567	3898
3231.339	3858
3233.109	3882
3234.88	3913
3236.651	3917
3238.421	3957
3240.191	4005
3241.96	3943
3243.728	3883
3245.497	3870
3247.263	3880
3249.033	3945
3250.799	3924
3252.566	3874
3254.331	3893
3256.097	3943
3257.863	3860
3259.628	3853
3261.392	3913
3263.156	3895
3264.919	3914
3266.683	3897
3268.447	3893
3270.208	3860
3271.969	3896
3273.731	3892
3275.492	3940
3277.253	3883
3279.013	3927
3280.773	4000
3282.532	3876
3284.291	3838
3286.05	3817
3287.808	3926
3289.566	3918
3291.323	3849
3293.079	3903
3294.835	3938
3296.593	3923
3298.348	3826
3300.102	3839
3301.857	3804
3303.611	3914
3305.366	3839
3307.119	3832
3308.872	3917
3310.624	3878
3312.376	3797
3314.129	3848
3315.881	3959
3317.631	3897
3319.38	3799
3321.13	3862
3322.88	3882
3324.631	3876
3326.379	3854
3328.126	3936
3329.875	3809
3331.622	3849
3333.371	3738
3335.116	3780
3336.863	3905
3338.609	3924
3340.353	3803
3342.1	3783
3343.845	3835
3345.588	3831
3347.332	3772
3349.074	3873
3350.817	3787
3352.56	3796
3354.303	3931
3356.043	3884
3357.785	3722
3359.525	3756
3361.268	3789
3363.007	3858
3364.745	3756
3366.485	3756
3368.223	3835
3369.962	3845
3371.701	3782
3373.438	3857
3375.174	3736
3376.911	3797
3378.647	3712
3380.384	3813
3382.118	3782
3383.854	3782
3385.588	3776
3387.322	3760
3389.057	3752
3390.79	3638
3392.522	3726
3394.255	3631
3395.987	3830
3397.719	3768
3399.451	3761
3401.181	3742
3402.911	3691
3404.641	3786
3406.371	3706
3408.101	3788
3409.83	3816
3411.558	3739
3413.285	3686
3415.011	3724
3416.739	3634
3418.467	3708
3420.193	3742
3421.919	3806
3423.644	3825
3425.368	3725
3427.094	3718
3428.818	3662
3430.542	3703
3432.264	3771
3433.987	3710
3435.712	3619
3437.434	3696
3439.155	3739
3440.876	3639
3442.596	3690
3444.317	3593
3446.039	3663
3447.757	3614
3449.477	3650
3451.195	3610
3452.914	3679
3454.632	3685
3456.35	3595
3458.067	3587
3459.784	3688
3461.5	3637
3463.216	3655
3464.932	3664
3466.647	3640
3468.362	3682
3470.076	3622
3471.789	3575
3473.505	3708
3475.217	3597
3476.929	3630
3478.641	3577
3480.354	3577
3482.066	3628
3483.777	3561
3485.487	3563
3487.197	3571
3488.908	3508
3490.617	3595
3492.327	3580
3494.035	3597
3495.743	3576
3497.451	3605
3499.158	3554
3500.866	3479
3502.572	3529
3504.278	3564
3505.984	3589
3507.689	3484
3509.396	3572
3511.1	3567
3512.804	3560
3514.508	3558
3516.211	3538
3517.913	3569
3519.616	3509
3521.319	3542
3523.021	3551
3524.722	3568
3526.422	3509
3528.124	3544
3529.824	3549
3531.524	3537
3533.222	3550
3534.921	3513
3536.62	3519
3538.318	3533
3540.016	3514
3541.714	3481
3543.41	3436
3545.107	3532
3546.803	3465
3548.5	3543
3550.194	3523
3551.889	3550
3553.583	3516
3555.279	3481
3556.972	3524
3558.666	3522
3560.358	3490
3562.051	3437
3563.742	3543
3565.435	3422
3567.126	3432
3568.817	3437
3570.507	3442
3572.197	3456
3573.888	3484
3575.577	3459
3577.265	3431
3578.954	3448
3580.642	3534
3582.329	3370
3584.017	3477
3585.704	3410
3587.391	3369
3589.077	3476
3590.762	3406
3592.449	3433
3594.133	3432
3595.817	3450
3597.501	3444
3599.185	3335
3600.869	3426
3602.552	3370
3604.234	3421
3605.916	3329
3607.598	3341
3609.279	3400
3610.961	3406
3612.642	3438
3614.321	3364
3616	3391
3617.68	3378
3619.36	3370
3621.039	3329
3622.716	3379
3624.394	3409
3626.071	3356
3627.748	3278
3629.425	3301
3631.102	3359
3632.778	3272
3634.452	3337
3636.127	3273
3637.803	3408
3639.477	3287
3641.151	3249
3642.823	3297
3644.497	3322
3646.171	3369
3647.842	3349
3649.515	3265
3651.185	3291
3652.857	3313
3654.527	3287
3656.198	3290
3657.868	3310
3659.537	3300
3661.207	3293
3662.875	3299
3664.544	3332
3666.212	3249
3667.879	3248
3669.546	3277
3671.212	3326
3672.88	3232
3674.546	3266
3676.211	3260
3677.875	3375
3679.541	3249
3681.205	3262
3682.87	3277
3684.533	3231
3686.196	3236
3687.859	3265
3689.521	3294
3691.184	3260
3692.845	3244
3694.507	3179
3696.167	3174
3697.827	3248
3699.487	3294
3701.148	3229
3702.808	3138
3704.466	3220
3706.125	3227
3707.783	3263
3709.442	3217
3711.099	3263
3712.757	3322
3714.412	3251
3716.068	3200
3717.725	3238
3719.381	3253
3721.036	3155
3722.689	3177
3724.344	3244
3725.998	3171
3727.652	3209
3729.305	3181
3730.958	3161
3732.61	3192
3734.262	3192
3735.915	3185
3737.565	3175
3739.217	3161
3740.866	3215
3742.516	3259
3744.165	3227
3745.816	3105
3747.464	3175
3749.113	3123
3750.761	3264
3752.409	3142
3754.057	3146
3755.703	3184
3757.35	3142
3758.996	3153
3760.641	3167
3762.289	3194
3763.933	3185
3765.577	3222
3767.222	3222
3768.865	3093
3770.508	3244
3772.152	3074
3773.796	3159
3775.438	3146
3777.079	3100
3778.721	3154
3780.363	3143
3782.003	3157
3783.643	3110
3785.283	3137
3786.923	3099
3788.563	3127
3790.203	3081
3791.841	3108
3793.479	3132
3795.115	3061
3796.753	3076
3798.391	3061
3800.027	3098
3801.664	3053
3803.299	3067
3804.935	3017
3806.571	3083
3808.206	3083
3809.839	3044
3811.473	3050
3813.107	3069
3814.74	3006
3816.375	3068
3818.006	3080
3819.638	3102
3821.27	3120
3822.9	3079
3824.532	3065
3826.163	3059
3827.792	3047
3829.423	3055
3831.051	3128
3832.682	2999
3834.311	3070
3835.938	3004
3837.566	2987
3839.193	3014
3840.821	3047
3842.448	3083
3844.075	3027
3845.7	2995
3847.325	2988
3848.951	3027
3850.576	3010
3852.201	2938
3853.825	3033
3855.448	2985
3857.072	2997
3858.694	3043
3860.318	3010
3861.939	3030
3863.562	3026
3865.183	2980
3866.804	2957
3868.426	2966
3870.045	2997
3871.666	3030
3873.285	3010
3874.904	2986
3876.524	2983
3878.142	2950
3879.76	3001
3881.378	3002
3882.995	2995
3884.612	2934
3886.229	2997
3887.845	2940
3889.461	2931
3891.076	3005
3892.691	3065
3894.307	2992
3895.922	2946
3897.536	2948
3899.149	2977
3900.761	2917
3902.374	2893
3903.988	2956
3905.6	2946
3907.212	2909
3908.822	2933
3910.433	2932
3912.045	2881
3913.655	2922
3915.265	2900
3916.875	2976
3918.483	2949
3920.093	2922
3921.702	2914
3923.309	2879
3924.917	2890
3926.523	2927
3928.13	2946
3929.739	2925
3931.344	2943
3932.95	2959
3934.555	2823
3936.159	2894
3937.766	2901
3939.369	2882
3940.974	2908
3942.577	2867
3944.181	2848
3945.783	2872
3947.386	2811
3948.989	2982
3950.59	2918
3952.191	2871
3953.791	2812
3955.394	2850
3956.994	2795
3958.593	2858
3960.192	2875
3961.791	2872
3963.392	2888
3964.99	2908
3966.588	2940
3968.185	2853
3969.782	2834
3971.379	2835
3972.976	2842
3974.572	2811
3976.168	2809
3977.763	2888
3979.358	2871
3980.954	2859
3982.548	2791
3984.142	2795
3985.736	2793
3987.329	2847
3988.922	2777
3990.516	2795
3992.108	2855
3993.698	2821
3995.29	2793
3996.881	2811
3998.473	2793
4000.064	2794
4001.653	2703
4003.242	2825
4004.832	2754
4006.422	2757
4008.01	2793
4009.598	2770
4011.186	2787
4012.773	2784
4014.36	2724
4015.947	2732
4017.534	2747
4019.119	2785
4020.705	2804
4022.291	2738
4023.876	2662
4025.461	2702
4027.044	2730
4028.627	2699
4030.211	2743
4031.795	2740
4033.378	2714
4034.96	2741
4036.542	2718
4038.124	2802
4039.704	2759
4041.286	2741
4042.867	2698
4044.447	2710
4046.026	2730
4047.606	2633
4049.187	2692
4050.765	2679
4052.343	2758
4053.92	2667
4055.498	2759
4057.076	2695
4058.654	2652
4060.23	2713
4061.806	2711
4063.381	2659
4064.957	2682
4066.533	2683
4068.107	2711
4069.682	2655
4071.256	2627
4072.829	2666
4074.404	2682
4075.977	2677
4077.549	2626
4079.121	2643
4080.693	2639
4082.265	2637
4083.836	2644
4085.407	2662
4086.977	2633
4088.547	2655
4090.117	2607
4091.687	2644
4093.256	2617
4094.825	2662
4096.392	2679
4097.96	2621
4099.528	2636
4101.097	2566
4102.663	2606
4104.229	2620
4105.795	2666
4107.361	2589
4108.928	2692
4110.493	2610
4112.058	2622
4113.621	2611
4115.186	2615
4116.75	2612
4118.313	2596
4119.876	2598
4121.438	2611
4123	2580
4124.562	2597
4126.125	2632
4127.686	2480
4129.246	2563
4130.807	2567
4132.367	2538
4133.927	2579
4135.486	2575
4137.046	2570
4138.604	2548
4140.162	2581
4141.72	2572
4143.279	2565
4144.836	2599
4146.393	2583
4147.949	2511
4149.505	2552
4151.062	2496
4152.617	2511
4154.172	2561
4155.727	2625
4157.281	2579
4158.836	2542
4160.39	2506
4161.943	2554
4163.496	2515
4165.048	2494
4166.601	2526
4168.154	2596
4169.706	2531
4171.257	2518
4172.808	2487
4174.358	2492
4175.909	2614
4177.458	2519
4179.008	2554
4180.558	2487
4182.106	2504
4183.655	2531
4185.204	2452
4186.751	2472
4188.298	2481
4189.845	2462
4191.392	2475
4192.939	2433
4194.485	2483
4196.031	2523
4197.576	2405
4199.121	2441
4200.666	2509
4202.211	2454
4203.754	2481
4205.298	2410
4206.84	2491
4208.384	2423
4209.927	2442
4211.47	2413
4213.011	2490
4214.552	2430
4216.094	2457
4217.635	2430
4219.175	2447
4220.716	2467
4222.255	2512
4223.793	2490
4225.335	2444
4226.873	2472
4228.411	2396
4229.948	2359
4231.486	2437
4233.024	2407
4234.562	2458
4236.098	2403
4237.634	2420
4239.169	2415
4240.705	2462
4242.241	2414
4243.776	2441
4245.31	2395
4246.844	2430
4248.378	2451
4249.911	2446
4251.445	2442
4252.978	2387
4254.51	2363
4256.042	2435
4257.574	2420
4259.107	2439
4260.638	2355
4262.169	2388
4263.699	2350
4265.228	2352
4266.759	2388
4268.289	2508
4269.818	2456
4271.345	2462
4272.874	2414
4274.402	2411
4275.931	2428
4277.458	2433
4278.985	2345
4280.512	2382
4282.037	2336
4283.564	2360
4285.089	2359
4286.615	2373
4288.139	2406
4289.664	2353
4291.187	2378
4292.712	2341
4294.235	2403
4295.759	2280
4297.281	2350
4298.804	2386
4300.327	2381
4301.849	2327
4303.37	2383
4304.891	2351
4306.412	2379
4307.933	2380
4309.453	2330
4310.973	2335
4312.492	2304
