398.1873	3583
400.7097	3661
403.2336	3625
405.7547	3662
408.2751	3626
410.7948	3647
413.3138	3627
415.83	3714
418.3497	3699
420.8666	3788
423.3829	3793
425.8985	3781
428.4133	3809
430.9275	3838
433.441	3864
435.9538	3807
438.4639	3870
440.9753	3816
443.4881	3896
445.9982	3880
448.5055	3922
451.0142	3871
453.5201	3986
456.0274	3831
458.5361	3885
461.04	3854
463.5453	3846
466.0478	3888
468.5517	3842
471.0549	3954
473.5574	3932
476.0572	3854
478.5584	3879
481.0568	3886
483.5545	3959
486.0557	3878
488.5521	3929
491.0478	3944
493.5449	4092
496.0392	3960
498.5349	3981
501.0299	3982
503.5222	3989
506.0139	4089
508.5048	4046
510.9991	3945
513.4887	4100
515.9777	4003
518.4659	4038
520.9534	3975
523.4403	4019
525.9306	4045
528.4161	4097
530.9009	4058
533.3851	4034
535.8687	4082
538.3535	4003
540.8356	3984
543.3171	4028
545.7979	3999
548.278	4059
550.7595	4050
553.2383	3927
555.7144	4056
558.1918	3958
560.6685	4049
563.1446	4081
565.6221	4067
568.0968	4090
570.5688	4105
573.0422	4172
575.515	4132
577.989	4127
580.4584	4129
582.9291	4187
585.3991	4082
587.8685	4267
590.3352	4191
592.8052	4132
595.2706	4137
597.7372	4144
600.2033	4146
602.6666	4165
605.1334	4137
607.5953	4126
610.0587	4156
612.5193	4043
614.9814	4170
617.4427	4156
619.9034	4118
622.3615	4094
624.8208	4207
627.2775	4077
629.7335	4180
632.1929	4164
634.6476	4225
637.1016	4141
639.5569	4172
642.0096	4186
644.4637	4204
646.9151	4292
649.3678	4184
651.8179	4134
654.2672	4140
656.7159	4194
659.166	4269
661.6154	4194
664.0622	4252
666.5082	4356
668.9537	4304
671.4005	4295
673.8445	4339
676.288	4208
678.7308	4355
681.1729	4208
683.6163	4283
686.0572	4267
688.4973	4363
690.9368	4327
693.3757	4332
695.8138	4154
698.2534	4322
700.6902	4314
703.1245	4349
705.56	4390
707.9949	4369
710.4311	4326
712.8647	4318
715.2957	4321
717.7279	4435
720.1595	4385
722.5905	4383
725.0208	4441
727.4505	4356
729.8795	4391
732.3058	4464
734.7336	4408
737.1626	4531
739.587	4472
742.0128	4428
744.4359	4459
746.8604	4518
749.2841	4505
751.7073	4524
754.1278	4624
756.5496	4585
758.9688	4639
761.3893	4534
763.8093	4612
766.2285	4492
768.6451	4644
771.0611	4641
773.4784	4570
775.895	4644
778.3091	4613
780.7244	4539
783.1371	4652
785.5493	4635
787.9626	4580
790.3754	4619
792.7856	4570
795.1951	4505
797.6039	4650
800.0121	4480
802.4236	4644
804.8306	4640
807.2369	4641
809.6425	4576
812.0475	4592
814.4538	4586
816.8575	4599
819.2606	4646
821.663	4652
824.0648	4661
826.4659	4698
828.8683	4692
831.2682	4706
833.6674	4618
836.066	4609
838.4639	4564
840.8632	4789
843.2579	4696
845.6539	4721
848.0493	4691
850.444	4760
852.84	4733
855.2315	4692
857.6243	4705
860.0165	4719
862.4081	4697
864.797	4849
867.1892	4675
869.5789	4734
871.9659	4685
874.3542	4771
876.74	4782
879.129	4718
881.5155	4712
883.8994	4717
886.2845	4720
888.6671	4612
891.051	4714
893.4343	4740
895.8169	4720
898.197	4699
900.5783	4770
902.9571	4697
905.3372	4776
907.7167	4806
910.0936	4717
912.4698	4771
914.8474	4848
917.2244	4781
919.5987	4923
921.9744	4900
924.3475	4907
926.72	4826
929.0918	4829
931.4669	4799
933.8375	4934
936.2074	4870
938.5767	5018
940.9454	4980
943.3154	4898
945.6829	5062
948.0497	5186
950.4178	5191
952.7833	5329
955.1483	5453
957.5145	5592
959.8782	5623
962.2412	5587
964.6036	5575
966.9655	5357
969.3266	5330
971.6871	5166
974.0471	5049
976.4064	4952
978.765	4982
981.125	4968
983.4824	4903
985.8373	4849
988.1935	4891
990.549	4938
992.9039	4846
995.2602	4869
997.6119	4885
999.965	4903
1002.317	4865
1004.667	4874
1007.02	4917
1009.371	4887
1011.719	4812
1014.068	4911
1016.415	4863
1018.765	4894
1021.111	4933
1023.458	4993
1025.804	4845
1028.147	4942
1030.49	5000
1032.837	4965
1035.179	4987
1037.522	4947
1039.862	4911
1042.204	4944
1044.546	4870
1046.884	5014
1049.224	5038
1051.562	5000
1053.899	5027
1056.237	4992
1058.575	4976
1060.91	5002
1063.244	4968
1065.58	5109
1067.913	5031
1070.248	5027
1072.579	5041
1074.911	4985
1077.242	5104
1079.572	4951
1081.905	5074
1084.234	5049
1086.562	5052
1088.89	5040
1091.217	5013
1093.544	5062
1095.871	4990
1098.197	4991
1100.521	4963
1102.845	4958
1105.169	4940
1107.491	4975
1109.814	5061
1112.135	4997
1114.456	4979
1116.776	5026
1119.096	4977
1121.415	5066
1123.734	5082
1126.052	5128
1128.369	4999
1130.686	5065
1133.002	4981
1135.318	5088
1137.632	4976
1139.945	4968
1142.258	5042
1144.573	5102
1146.884	4997
1149.196	5031
1151.505	5072
1153.816	4972
1156.124	4985
1158.435	5142
1160.742	5080
1163.051	5126
1165.356	5009
1167.663	5001
1169.97	5111
1172.276	5024
1174.579	5048
1176.881	5055
1179.186	5011
1181.487	5052
1183.79	5049
1186.092	5135
1188.392	4959
1190.691	5076
1192.991	5071
1195.291	5037
1197.588	5126
1199.885	5096
1202.181	5082
1204.479	5120
1206.775	5096
1209.07	5092
1211.363	5157
1213.656	5028
1215.949	5139
1218.241	5157
1220.534	5206
1222.825	5068
1225.115	5075
1227.405	5183
1229.693	5159
1231.984	5087
1234.271	5163
1236.558	5159
1238.845	5235
1241.131	5192
1243.416	5204
1245.703	5282
1247.987	5180
1250.269	5337
1252.552	5314
1254.834	5362
1257.118	5251
1259.399	5227
1261.678	5254
1263.958	5266
1266.237	5187
1268.516	5329
1270.794	5246
1273.072	5269
1275.347	5251
1277.624	5229
1279.899	5221
1282.175	5196
1284.449	5298
1286.722	5097
1288.995	5238
1291.266	5206
1293.54	5152
1295.81	5198
1298.081	5226
1300.35	5202
1302.62	5196
1304.889	5207
1307.156	5106
1309.425	5190
1311.69	5237
1313.957	5267
1316.222	5226
1318.488	5236
1320.751	5197
1323.016	5298
1325.278	5203
1327.54	5184
1329.803	5222
1332.065	5160
1334.325	5257
1336.584	5190
1338.843	5243
1341.101	5248
1343.36	5131
1345.617	5258
1347.876	5260
1350.131	5185
1352.387	5184
1354.643	5149
1356.897	5174
1359.151	5105
1361.403	5288
1363.656	5162
1365.909	5080
1368.16	5222
1370.409	5239
1372.659	5186
1374.909	5224
1377.157	5201
1379.407	5240
1381.655	5252
1383.9	5353
1386.147	5266
1388.393	5320
1390.64	5352
1392.885	5310
1395.127	5273
1397.37	5268
1399.614	5388
1401.854	5380
1404.098	5402
1406.339	5313
1408.578	5351
1410.818	5459
1413.056	5297
1415.297	5428
1417.533	5288
1419.771	5373
1422.006	5344
1424.243	5346
1426.479	5417
1428.715	5418
1430.948	5340
1433.182	5429
1435.414	5508
1437.647	5438
1439.88	5462
1442.11	5374
1444.342	5428
1446.571	5535
1448.799	5449
1451.029	5484
1453.258	5470
1455.485	5587
1457.711	5429
1459.937	5484
1462.164	5488
1464.39	5367
1466.614	5424
1468.838	5464
1471.06	5366
1473.283	5413
1475.506	5422
1477.727	5485
1479.949	5497
1482.169	5440
1484.389	5351
1486.609	5386
1488.828	5344
1491.045	5344
1493.261	5190
1495.477	5337
1497.693	5262
1499.91	5357
1502.125	5347
1504.339	5291
1506.553	5182
1508.766	5235
1510.979	5249
1513.191	5342
1515.402	5259
1517.613	5262
1519.823	5239
1522.033	5304
1524.242	5250
1526.451	5286
1528.657	5321
1530.865	5372
1533.072	5320
1535.278	5312
1537.484	5266
1539.687	5329
1541.892	5333
1544.096	5398
1546.299	5353
1548.502	5343
1550.703	5419
1552.905	5382
1555.104	5408
1557.303	5372
1559.505	5375
1561.703	5354
1563.902	5410
1566.099	5450
1568.295	5493
1570.494	5404
1572.689	5452
1574.883	5315
1577.079	5410
1579.272	5485
1581.467	5476
1583.659	5505
1585.853	5424
1588.044	5433
1590.234	5403
1592.424	5588
1594.615	5439
1596.806	5430
1598.994	5605
1601.182	5487
1603.369	5381
1605.557	5469
1607.744	5523
1609.929	5571
1612.114	5474
1614.298	5619
1616.482	5496
1618.667	5673
1620.85	5485
1623.032	5649
1625.214	5494
1627.395	5591
1629.575	5492
1631.755	5642
1633.935	5450
1636.114	5592
1638.292	5524
1640.471	5585
1642.647	5597
1644.823	5504
1647	5533
1649.175	5645
1651.348	5562
1653.525	5540
1655.698	5534
1657.87	5599
1660.043	5612
1662.213	5595
1664.387	5587
1666.558	5580
1668.727	5547
1670.896	5611
1673.064	5585
1675.233	5611
1677.401	5607
1679.569	5630
1681.735	5605
1683.902	5603
1686.066	5733
1688.233	5641
1690.397	5569
1692.559	5589
1694.723	5496
1696.885	5631
1699.048	5497
1701.21	5514
1703.37	5550
1705.53	5501
1707.689	5556
1709.849	5537
1712.009	5530
1714.166	5507
1716.323	5562
1718.479	5517
1720.634	5533
1722.793	5479
1724.948	5523
1727.102	5612
1729.255	5548
1731.408	5480
1733.562	5550
1735.714	5501
1737.865	5538
1740.016	5481
1742.166	5496
1744.316	5495
1746.467	5507
1748.616	5513
1750.764	5497
1752.911	5627
1755.056	5588
1757.205	5617
1759.35	5547
1761.496	5553
1763.641	5573
1765.785	5534
1767.927	5506
1770.072	5660
1772.214	5583
1774.355	5699
1776.496	5688
1778.637	5678
1780.778	5502
1782.918	5744
1785.057	5648
1787.194	5636
1789.333	5618
1791.472	5586
1793.608	5655
1795.745	5670
1797.879	5747
1800.015	5581
1802.148	5605
1804.284	5789
1806.417	5679
1808.548	5736
1810.682	5693
1812.812	5598
1814.946	5637
1817.075	5586
1819.205	5541
1821.335	5606
1823.463	5633
1825.59	5636
1827.721	5582
1829.847	5638
1831.973	5707
1834.098	5633
1836.223	5617
1838.351	5663
1840.475	5643
1842.598	5626
1844.721	5637
1846.843	5603
1848.966	5524
1851.087	5629
1853.21	5646
1855.33	5571
1857.449	5527
1859.568	5573
1861.688	5437
1863.806	5645
1865.924	5562
1868.039	5610
1870.155	5658
1872.273	5632
1874.388	5565
1876.503	5645
1878.617	5577
1880.73	5627
1882.844	5546
1884.956	5675
1887.068	5544
1889.18	5548
1891.291	5598
1893.4	5656
1895.511	5749
1897.621	5661
1899.73	5689
1901.837	5664
1903.944	5711
1906.053	5631
1908.159	5617
1910.265	5755
1912.369	5732
1914.474	5731
1916.577	5613
1918.683	5665
1920.785	5766
1922.888	5779
1924.989	5656
1927.091	5823
1929.193	5691
1931.294	5699
1933.393	5742
1935.493	5707
1937.59	5821
1939.689	5779
1941.788	5840
1943.884	5706
1945.98	5704
1948.077	5715
1950.171	5643
1952.267	5723
1954.361	5705
1956.455	5669
1958.548	5732
1960.64	5801
1962.733	5740
1964.824	5703
1966.915	5659
1969.005	5806
1971.096	5616
1973.185	5638
1975.275	5640
1977.363	5663
1979.45	5757
1981.537	5707
1983.623	5703
1985.711	5615
1987.796	5723
1989.881	5697
1991.965	5789
1994.047	5756
1996.132	5681
1998.215	5742
2000.297	5698
2002.378	5651
2004.46	5726
2006.54	5595
2008.62	5720
2010.7	5625
2012.779	5800
2014.858	5592
2016.934	5693
2019.013	5583
2021.09	5618
2023.165	5697
2025.241	5701
2027.317	5627
2029.39	5696
2031.466	5646
2033.538	5667
2035.612	5833
2037.683	5549
2039.755	5631
2041.827	5784
2043.898	5737
2045.968	5713
2048.038	5677
2050.106	5747
2052.177	5607
2054.244	5701
2056.313	5684
2058.379	5622
2060.444	5802
2062.511	5749
2064.577	5705
2066.641	5716
2068.705	5793
2070.77	5746
2072.832	5679
2074.896	5675
2076.958	5788
2079.02	5789
2081.081	5669
2083.141	5837
2085.2	5630
2087.261	5741
2089.319	5727
2091.377	5627
2093.435	5783
2095.492	5727
2097.552	5652
2099.607	5678
2101.663	5657
2103.718	5779
2105.771	5745
2107.826	5777
2109.879	5609
2111.932	5720
2113.985	5784
2116.037	5776
2118.088	5879
2120.141	5683
2122.191	5782
2124.239	5648
2126.288	5741
2128.337	5762
2130.387	5709
2132.434	5747
2134.481	5721
2136.528	5688
2138.574	5611
2140.618	5872
2142.665	5685
2144.71	5755
2146.753	5702
2148.797	5648
2150.838	5768
2152.883	5728
2154.923	5788
2156.965	5708
2159.007	5685
2161.046	5680
2163.086	5809
2165.126	5701
2167.163	5691
2169.202	5706
2171.239	5603
2173.277	5701
2175.314	5688
2177.349	5674
2179.385	5696
2181.42	5611
2183.453	5672
2185.49	5704
2187.522	5636
2189.555	5596
2191.586	5639
2193.619	5811
2195.651	5677
2197.682	5597
2199.711	5670
2201.74	5580
2203.769	5759
2205.799	5652
2207.828	5650
2209.855	5695
2211.882	5692
2213.908	5707
2215.934	5710
2217.961	5645
2219.986	5605
2222.01	5678
2224.034	5727
2226.057	5568
2228.08	5653
2230.104	5570
2232.124	5633
2234.145	5610
2236.166	5729
2238.186	5615
2240.207	5590
2242.227	5667
2244.244	5693
2246.262	5592
2248.28	5581
2250.299	5582
2252.314	5640
2254.33	5759
2256.346	5712
2258.36	5711
2260.375	5617
2262.391	5781
2264.403	5585
2266.416	5693
2268.427	5557
2270.44	5610
2272.453	5668
2274.463	5617
2276.474	5526
2278.483	5750
2280.493	5586
2282.501	5654
2284.51	5662
2286.518	5685
2288.524	5714
2290.532	5629
2292.537	5614
2294.544	5690
2296.55	5695
2298.554	5681
2300.557	5668
2302.562	5612
2304.566	5649
2306.568	5606
2308.569	5586
2310.572	5692
2312.573	5579
2314.573	5608
2316.574	5578
2318.573	5577
2320.571	5620
2322.571	5582
2324.569	5595
2326.567	5641
2328.564	5672
2330.56	5636
2332.556	5555
2334.551	5629
2336.546	5549
2338.542	5737
2340.535	5556
2342.529	5537
2344.521	5559
2346.512	5631
2348.505	5557
2350.497	5556
2352.487	5590
2354.478	5648
2356.468	5549
2358.457	5474
2360.446	5558
2362.434	5419
2364.422	5552
2366.408	5655
2368.395	5548
2370.383	5584
2372.369	5503
2374.353	5530
2376.338	5590
2378.321	5525
2380.307	5533
2382.29	5610
2384.272	5576
2386.254	5532
2388.235	5622
2390.218	5559
2392.198	5530
2394.179	5473
2396.157	5379
2398.137	5560
2400.115	5459
2402.095	5403
2404.072	5572
2406.048	5422
2408.026	5360
2410.001	5583
2411.977	5509
2413.953	5493
2415.927	5541
2417.9	5504
2419.875	5503
2421.847	5404
2423.821	5491
2425.792	5591
2427.763	5552
2429.736	5481
2431.706	5548
2433.677	5488
2435.646	5427
2437.615	5427
2439.583	5492
2441.551	5534
2443.519	5422
2445.486	5486
2447.452	5642
2449.418	5475
2451.383	5504
2453.348	5493
2455.314	5541
2457.278	5594
2459.241	5604
2461.205	5521
2463.167	5511
2465.131	5399
2467.091	5455
2469.052	5560
2471.012	5538
2472.972	5437
2474.932	5407
2476.891	5570
2478.85	5438
2480.808	5403
2482.766	5481
2484.722	5455
2486.68	5477
2488.636	5517
2490.591	5408
2492.546	5396
2494.5	5407
2496.456	5509
2498.41	5472
2500.362	5480
2502.315	5327
2504.266	5364
2506.218	5485
2508.169	5528
2510.121	5495
2512.07	5383
2514.019	5437
2515.968	5452
2517.918	5417
2519.866	5439
2521.813	5494
2523.76	5444
2525.707	5375
2527.653	5514
2529.599	5394
2531.543	5607
2533.489	5364
2535.433	5343
2537.376	5384
2539.32	5531
2541.264	5469
2543.205	5428
2545.147	5533
2547.087	5398
2549.029	5367
2550.969	5416
2552.908	5482
2554.847	5335
2556.786	5383
2558.724	5429
2560.663	5359
2562.6	5504
2564.537	5440
2566.473	5465
2568.408	5454
2570.345	5495
2572.28	5476
2574.214	5399
2576.148	5352
2578.081	5541
2580.014	5369
2581.947	5480
2583.879	5512
2585.81	5460
2587.741	5466
2589.67	5433
2591.602	5416
2593.532	5478
2595.461	5444
2597.388	5374
2599.316	5399
2601.244	5447
2603.172	5489
2605.098	5557
2607.023	5575
2608.949	5456
2610.873	5414
2612.8	5583
2614.723	5488
2616.647	5587
2618.569	5565
2620.493	5432
2622.416	5424
2624.338	5388
2626.258	5533
2628.179	5408
2630.099	5553
2632.019	5576
2633.939	5528
2635.857	5417
2637.775	5512
2639.694	5482
2641.61	5409
2643.528	5583
2645.444	5393
2647.361	5350
2649.276	5604
2651.19	5553
2653.105	5480
2655.019	5495
2656.934	5479
2658.846	5378
2660.758	5455
2662.67	5472
2664.583	5454
2666.493	5431
2668.404	5486
2670.313	5436
2672.223	5400
2674.134	5629
2676.042	5513
2677.95	5475
2679.858	5465
2681.765	5455
2683.673	5412
2685.579	5485
2687.483	5507
2689.389	5371
2691.294	5512
2693.198	5395
2695.104	5413
2697.006	5408
2698.909	5353
2700.811	5425
2702.713	5333
2704.615	5367
2706.516	5336
2708.417	5412
2710.316	5466
2712.216	5374
2714.115	5395
2716.014	5443
2717.913	5351
2719.81	5343
2721.707	5350
2723.603	5420
2725.501	5325
2727.396	5465
2729.292	5417
2731.186	5493
2733.081	5414
2734.976	5354
2736.87	5420
2738.762	5385
2740.653	5496
2742.546	5448
2744.437	5350
2746.329	5312
2748.22	5345
2750.11	5374
2751.999	5366
2753.889	5374
2755.778	5426
2757.666	5390
2759.553	5351
2761.44	5449
2763.328	5420
2765.215	5391
2767.101	5353
2768.986	5334
2770.87	5312
2772.754	5337
2774.638	5408
2776.523	5355
2778.405	5328
2780.288	5267
2782.17	5456
2784.051	5299
2785.934	5352
2787.814	5342
2789.694	5351
2791.574	5319
2793.453	5431
2795.332	5443
2797.212	5373
2799.088	5405
2800.966	5373
2802.843	5291
2804.719	5307
2806.597	5406
2808.471	5277
2810.346	5296
2812.221	5330
2814.094	5391
2815.969	5378
2817.843	5430
2819.714	5423
2821.587	5411
2823.459	5345
2825.329	5309
2827.202	5336
2829.072	5313
2830.942	5315
2832.811	5335
2834.68	5328
2836.549	5380
2838.418	5322
2840.284	5272
2842.152	5372
2844.018	5421
2845.885	5319
2847.751	5319
2849.616	5322
2851.482	5432
2853.345	5323
2855.208	5355
2857.074	5442
2858.937	5374
2860.799	5479
2862.66	5389
2864.522	5489
2866.385	5450
2868.245	5469
2870.104	5493
2871.964	5390
2873.824	5465
2875.683	5487
2877.542	5570
2879.4	5669
2881.257	5591
2883.114	5654
2884.97	5685
2886.827	5603
2888.683	5633
2890.537	5672
2892.392	5703
2894.246	5550
2896.1	5593
2897.954	5626
2899.807	5574
2901.66	5668
2903.51	5524
2905.362	5546
2907.214	5648
2909.065	5480
2910.915	5656
2912.765	5756
2914.613	5738
2916.463	5716
2918.311	5673
2920.158	5664
2922.006	5797
2923.853	5765
2925.698	5779
2927.546	5822
2929.392	5916
2931.236	5905
2933.081	5958
2934.924	5930
2936.77	5967
2938.613	5945
2940.455	6062
2942.298	5985
2944.139	6181
2945.982	6105
2947.823	6083
2949.662	6078
2951.503	6015
2953.342	5969
2955.182	5916
2957.021	5931
2958.858	5950
2960.697	5942
2962.534	5884
2964.37	5856
2966.207	5881
2968.044	5768
2969.879	5720
2971.714	5712
2973.548	5671
2975.383	5548
2977.218	5542
2979.051	5722
2980.883	5526
2982.715	5602
2984.547	5605
2986.379	5615
2988.21	5493
2990.04	5587
2991.87	5561
2993.7	5539
2995.53	5478
2997.359	5586
2999.187	5386
3001.015	5405
3002.842	5358
3004.669	5434
3006.497	5388
3008.323	5226
3010.148	5241
3011.974	5172
3013.797	5234
3015.623	5254
3017.447	5258
3019.27	5229
3021.094	5141
3022.915	5221
3024.737	5195
3026.56	5118
3028.38	5077
3030.201	5081
3032.022	5140
3033.84	5130
3035.662	5080
3037.481	5240
3039.298	5109
3041.117	5195
3042.933	5099
3044.752	5115
3046.568	5173
3048.385	5126
3050.2	5130
3052.016	5036
3053.83	5069
3055.646	5093
3057.46	5117
3059.272	5105
3061.086	5046
3062.898	5305
3064.711	5120
3066.524	5101
3068.335	5101
3070.145	5103
3071.956	5036
3073.766	5153
3075.576	5106
3077.385	5105
3079.193	5049
3081.002	5100
3082.81	4932
3084.618	4964
3086.425	5023
3088.231	5043
3090.036	4982
3091.842	5047
3093.648	4968
3095.452	5071
3097.257	4929
3099.06	4941
3100.863	4988
3102.666	4960
3104.47	5050
3106.272	4980
3108.073	4979
3109.875	4955
3111.676	4978
3113.477	4881
3115.277	4939
3117.077	4900
3118.874	4931
3120.673	4935
3122.473	4865
3124.271	4885
3126.066	4953
3127.863	4906
3129.66	4868
3131.456	4871
3133.252	4978
3135.047	4978
3136.842	4898
3138.635	4944
3140.429	4905
3142.223	4823
3144.016	5057
3145.808	4864
3147.6	4891
3149.392	4921
3151.183	4856
3152.975	4852
3154.765	4853
3156.553	4916
3158.344	4872
3160.132	4865
3161.922	4822
3163.71	4847
3165.497	4826
3167.285	4818
3169.071	4849
3170.858	4828
3172.645	4855
3174.429	4841
3176.214	4730
3177.998	4796
3179.783	4793
3181.568	4766
3183.351	4786
3185.133	4869
3186.915	4824
3188.698	4805
3190.481	4851
3192.261	4812
3194.042	4855
3195.822	4864
3197.601	4731
3199.381	4827
3201.161	4761
3202.939	4884
3204.717	4776
3206.495	4811
3208.272	4658
3210.05	4800
3211.826	4793
3213.602	4773
3215.376	4746
3217.151	4805
3218.927	4827
3220.702	4694
3222.476	4776
3224.249	4778
3226.021	4740
3227.793	4649
3229.567	4833
3231.339	4796
3233.109	4789
3234.88	4850
3236.651	4745
3238.421	4760
3240.191	4831
3241.96	4839
3243.728	4773
3245.497	4734
3247.263	4730
3249.033	4724
3250.799	4707
3252.566	4718
3254.331	4785
3256.097	4780
3257.863	4764
3259.628	4789
3261.392	4779
3263.156	4713
3264.919	4805
3266.683	4646
3268.447	4808
3270.208	4809
3271.969	4787
3273.731	4680
3275.492	4867
3277.253	4813
3279.013	4830
3280.773	4704
3282.532	4765
3284.291	4790
3286.05	4760
3287.808	4766
3289.566	4795
3291.323	4699
3293.079	4761
3294.835	4800
3296.593	4640
3298.348	4725
3300.102	4721
3301.857	4700
3303.611	4760
3305.366	4863
3307.119	4667
3308.872	4794
3310.624	4808
3312.376	4842
3314.129	4745
3315.881	4706
3317.631	4751
3319.38	4738
3321.13	4723
3322.88	4708
3324.631	4715
3326.379	4738
3328.126	4770
3329.875	4690
3331.622	4845
3333.371	4689
3335.116	4763
3336.863	4810
3338.609	4728
3340.353	4639
3342.1	4776
3343.845	4624
3345.588	4731
3347.332	4725
3349.074	4664
3350.817	4755
3352.56	4768
3354.303	4713
3356.043	4705
3357.785	4578
3359.525	4710
3361.268	4582
3363.007	4787
3364.745	4622
3366.485	4690
3368.223	4693
3369.962	4655
3371.701	4574
3373.438	4604
3375.174	4605
3376.911	4629
3378.647	4692
3380.384	4672
3382.118	4679
3383.854	4565
3385.588	4587
3387.322	4677
3389.057	4694
3390.79	4609
3392.522	4651
3394.255	4677
3395.987	4671
3397.719	4550
3399.451	4626
3401.181	4674
3402.911	4586
3404.641	4624
3406.371	4524
3408.101	4563
3409.83	4549
3411.558	4639
3413.285	4673
3415.011	4670
3416.739	4581
3418.467	4635
3420.193	4589
3421.919	4515
3423.644	4626
3425.368	4681
3427.094	4663
3428.818	4638
3430.542	4626
3432.264	4529
3433.987	4488
3435.712	4617
3437.434	4528
3439.155	4495
3440.876	4492
3442.596	4533
3444.317	4477
3446.039	4506
3447.757	4435
3449.477	4546
3451.195	4541
3452.914	4446
3454.632	4514
3456.35	4458
3458.067	4420
3459.784	4489
3461.5	4501
3463.216	4480
3464.932	4507
3466.647	4356
3468.362	4404
3470.076	4407
3471.789	4464
3473.505	4460
3475.217	4441
3476.929	4382
3478.641	4370
3480.354	4448
3482.066	4447
3483.777	4414
3485.487	4409
3487.197	4448
3488.908	4430
3490.617	4454
3492.327	4364
3494.035	4286
3495.743	4397
3497.451	4338
3499.158	4378
3500.866	4395
3502.572	4340
3504.278	4382
3505.984	4371
3507.689	4385
3509.396	4398
3511.1	4308
3512.804	4353
3514.508	4287
3516.211	4318
3517.913	4469
3519.616	4329
3521.319	4302
3523.021	4334
3524.722	4255
3526.422	4300
3528.124	4327
3529.824	4314
3531.524	4317
3533.222	4269
3534.921	4282
3536.62	4304
3538.318	4280
3540.016	4309
3541.714	4221
3543.41	4246
3545.107	4269
3546.803	4361
3548.5	4274
3550.194	4332
3551.889	4275
3553.583	4291
3555.279	4149
3556.972	4320
3558.666	4293
3560.358	4313
3562.051	4233
3563.742	4231
3565.435	4306
3567.126	4313
3568.817	4189
3570.507	4179
3572.197	4232
3573.888	4286
3575.577	4303
3577.265	4274
3578.954	4230
3580.642	4262
3582.329	4223
3584.017	4282
3585.704	4219
3587.391	4217
3589.077	4214
3590.762	4114
3592.449	4204
3594.133	4166
3595.817	4169
3597.501	4285
3599.185	4126
3600.869	4111
3602.552	4190
3604.234	4139
3605.916	4288
3607.598	4155
3609.279	4236
3610.961	4098
3612.642	4195
3614.321	4130
3616	4000
3617.68	4147
3619.36	4062
3621.039	4086
3622.716	4114
3624.394	4147
3626.071	4021
3627.748	3997
3629.425	4116
3631.102	4019
3632.778	4097
3634.452	3973
3636.127	4060
3637.803	4011
3639.477	4147
3641.151	4008
3642.823	4059
3644.497	4045
3646.171	4036
3647.842	4102
3649.515	4069
3651.185	4056
3652.857	3968
3654.527	4006
3656.198	4019
3657.868	4073
3659.537	4000
3661.207	4097
3662.875	4032
3664.544	4028
3666.212	4013
3667.879	3979
3669.546	3992
3671.212	4041
3672.88	4052
3674.546	3937
3676.211	4015
3677.875	4007
3679.541	3956
3681.205	3952
3682.87	3976
3684.533	4042
3686.196	3921
3687.859	3940
3689.521	3975
3691.184	3881
3692.845	3984
3694.507	3988
3696.167	3974
3697.827	3902
3699.487	3974
3701.148	3947
3702.808	4089
3704.466	3998
3706.125	3932
3707.783	3863
3709.442	3926
3711.099	3900
3712.757	3943
3714.412	3992
3716.068	4012
3717.725	3937
3719.381	3909
3721.036	3891
3722.689	3840
3724.344	3866
3725.998	3965
3727.652	4033
3729.305	3840
3730.958	3969
3732.61	3978
3734.262	3997
3735.915	3920
3737.565	3885
3739.217	3898
3740.866	3920
3742.516	4004
3744.165	3849
3745.816	3896
3747.464	3846
3749.113	3915
3750.761	3889
3752.409	3829
3754.057	3871
3755.703	3797
3757.35	3877
3758.996	3829
3760.641	3911
3762.289	3812
3763.933	3798
3765.577	3856
3767.222	3836
3768.865	3782
3770.508	3779
3772.152	3817
3773.796	3840
3775.438	3804
3777.079	3809
3778.721	3794
3780.363	3803
3782.003	3826
3783.643	3911
3785.283	3731
3786.923	3785
3788.563	3801
3790.203	3792
3791.841	3861
3793.479	3812
3795.115	3834
3796.753	3855
3798.391	3700
3800.027	3744
3801.664	3822
3803.299	3799
3804.935	3839
3806.571	3691
3808.206	3699
3809.839	3711
3811.473	3784
3813.107	3755
3814.74	3777
3816.375	3706
3818.006	3675
3819.638	3710
3821.27	3717
3822.9	3779
3824.532	3792
3826.163	3762
3827.792	3680
3829.423	3702
3831.051	3737
3832.682	3742
3834.311	3680
3835.938	3667
3837.566	3738
3839.193	3759
3840.821	3676
3842.448	3636
3844.075	3763
3845.7	3764
3847.325	3705
3848.951	3711
3850.576	3733
3852.201	3709
3853.825	3666
3855.448	3765
3857.072	3669
3858.694	3671
3860.318	3685
3861.939	3632
3863.562	3724
3865.183	3699
3866.804	3694
3868.426	3664
3870.045	3721
3871.666	3616
3873.285	3608
3874.904	3670
3876.524	3593
3878.142	3588
3879.76	3602
3881.378	3596
3882.995	3645
3884.612	3718
3886.229	3619
3887.845	3620
3889.461	3690
3891.076	3655
3892.691	3564
3894.307	3706
3895.922	3605
3897.536	3666
3899.149	3625
3900.761	3690
3902.374	3572
3903.988	3555
3905.6	3574
3907.212	3597
3908.822	3607
3910.433	3541
3912.045	3575
3913.655	3577
3915.265	3626
3916.875	3597
3918.483	3607
3920.093	3596
3921.702	3592
3923.309	3554
3924.917	3586
3926.523	3644
3928.13	3588
3929.739	3568
3931.344	3530
3932.95	3507
3934.555	3569
3936.159	3568
3937.766	3533
3939.369	3639
3940.974	3559
3942.577	3581
3944.181	3563
3945.783	3533
3947.386	3552
3948.989	3488
3950.59	3592
3952.191	3569
3953.791	3573
3955.394	3506
3956.994	3640
3958.593	3488
3960.192	3561
3961.791	3489
3963.392	3509
3964.99	3590
3966.588	3485
3968.185	3553
3969.782	3526
3971.379	3532
3972.976	3562
3974.572	3542
3976.168	3444
3977.763	3489
3979.358	3456
3980.954	3489
3982.548	3503
3984.142	3405
3985.736	3516
3987.329	3433
3988.922	3478
3990.516	3420
3992.108	3447
3993.698	3475
3995.29	3456
3996.881	3517
3998.473	3330
4000.064	3373
4001.653	3397
4003.242	3451
4004.832	3469
4006.422	3433
4008.01	3469
4009.598	3429
4011.186	3471
4012.773	3433
4014.36	3410
4015.947	3400
4017.534	3363
4019.119	3314
4020.705	3424
4022.291	3318
4023.876	3365
4025.461	3379
4027.044	3427
4028.627	3383
4030.211	3424
4031.795	3312
4033.378	3400
4034.96	3420
4036.542	3345
4038.124	3409
4039.704	3301
4041.286	3315
4042.867	3377
4044.447	3339
4046.026	3334
4047.606	3243
4049.187	3281
4050.765	3290
4052.343	3313
4053.92	3302
4055.498	3304
4057.076	3342
4058.654	3335
4060.23	3280
4061.806	3367
4063.381	3375
4064.957	3315
4066.533	3231
4068.107	3240
4069.682	3291
4071.256	3301
4072.829	3281
4074.404	3316
4075.977	3283
4077.549	3243
4079.121	3262
4080.693	3221
4082.265	3286
4083.836	3259
4085.407	3307
4086.977	3259
4088.547	3302
4090.117	3244
4091.687	3309
4093.256	3281
4094.825	3273
4096.392	3254
4097.96	3212
4099.528	3265
4101.097	3248
4102.663	3269
4104.229	3256
4105.795	3220
4107.361	3217
4108.928	3261
4110.493	3180
4112.058	3314
4113.621	3177
4115.186	3220
4116.75	3175
4118.313	3061
4119.876	3184
4121.438	3220
4123	3200
4124.562	3154
4126.125	3148
4127.686	3237
4129.246	3153
4130.807	3242
4132.367	3199
4133.927	3226
4135.486	3159
4137.046	3190
4138.604	3232
4140.162	3149
4141.72	3175
4143.279	3170
4144.836	3078
4146.393	3167
4147.949	3123
4149.505	3069
4151.062	3106
4152.617	3066
4154.172	3117
4155.727	3077
4157.281	3145
4158.836	3105
4160.39	3111
4161.943	3151
4163.496	3171
4165.048	3147
4166.601	3094
4168.154	3063
4169.706	3135
4171.257	3150
4172.808	3072
4174.358	3149
4175.909	3125
4177.458	3026
4179.008	3032
4180.558	3002
4182.106	3075
4183.655	3129
4185.204	3136
4186.751	3039
4188.298	3071
4189.845	3067
4191.392	3077
4192.939	3012
4194.485	3099
4196.031	3070
4197.576	3083
4199.121	3051
4200.666	3026
4202.211	2991
4203.754	3020
4205.298	3022
4206.84	3063
4208.384	3058
4209.927	3071
4211.47	2994
4213.011	3052
4214.552	3034
4216.094	2969
4217.635	3064
4219.175	3092
4220.716	2975
4222.255	3011
4223.793	3017
4225.335	3045
4226.873	2988
4228.411	3069
4229.948	2977
4231.486	3061
4233.024	2994
4234.562	3043
4236.098	3037
4237.634	2983
4239.169	2976
4240.705	3001
4242.241	2982
4243.776	2975
4245.31	3001
4246.844	2975
4248.378	2969
4249.911	3021
4251.445	3007
4252.978	2929
4254.51	2938
4256.042	2976
4257.574	2972
4259.107	2981
4260.638	2930
4262.169	2937
4263.699	2955
4265.228	2949
4266.759	2901
4268.289	2967
4269.818	2924
4271.345	2938
4272.874	2991
4274.402	2923
4275.931	2943
4277.458	2907
4278.985	3008
4280.512	2913
4282.037	2905
4283.564	2987
4285.089	2906
4286.615	2890
4288.139	2958
4289.664	2906
4291.187	2965
4292.712	2931
4294.235	2791
4295.759	2951
4297.281	2905
4298.804	2936
4300.327	2957
4301.849	2823
4303.37	2900
4304.891	2845
4306.412	2927
4307.933	2853
4309.453	2868
4310.973	2891
4312.492	2868
