398.1873	2724
400.7097	2693
403.2336	2687
405.7547	2705
408.2751	2721
410.7948	2767
413.3138	2719
415.83	2735
418.3497	2795
420.8666	2730
423.3829	2758
425.8985	2829
428.4133	2898
430.9275	2845
433.441	2806
435.9538	2847
438.4639	2898
440.9753	2866
443.4881	2845
445.9982	2936
448.5055	2775
451.0142	2918
453.5201	2885
456.0274	2844
458.5361	2894
461.04	2852
463.5453	2829
466.0478	2851
468.5517	2873
471.0549	2869
473.5574	2867
476.0572	2817
478.5584	2778
481.0568	2854
483.5545	2854
486.0557	2949
488.5521	2948
491.0478	2940
493.5449	2799
496.0392	2926
498.5349	2999
501.0299	3007
503.5222	2909
506.0139	2906
508.5048	2889
510.9991	2922
513.4887	2971
515.9777	2897
518.4659	2969
520.9534	2959
523.4403	2969
525.9306	3001
528.4161	3007
530.9009	2999
533.3851	3021
535.8687	3014
538.3535	2988
540.8356	2923
543.3171	2939
545.7979	2944
548.278	3004
550.7595	2946
553.2383	2984
555.7144	3025
558.1918	3040
560.6685	3002
563.1446	2981
565.6221	3022
568.0968	3128
570.5688	3026
573.0422	3025
575.515	3069
577.989	3023
580.4584	3109
582.9291	3032
585.3991	3147
587.8685	3028
590.3352	3093
592.8052	3110
595.2706	3072
597.7372	3088
600.2033	3057
602.6666	3013
605.1334	3043
607.5953	3030
610.0587	3077
612.5193	3043
614.9814	3034
617.4427	3093
619.9034	3010
622.3615	3099
624.8208	3082
627.2775	3017
629.7335	3045
632.1929	3036
634.6476	3137
637.1016	3071
639.5569	3071
642.0096	3097
644.4637	3023
646.9151	3049
649.3678	3041
651.8179	3060
654.2672	3032
656.7159	3070
659.166	3076
661.6154	3159
664.0622	3079
666.5082	3119
668.9537	3103
671.4005	3137
673.8445	3059
676.288	3168
678.7308	3153
681.1729	3139
683.6163	3110
686.0572	3158
688.4973	3138
690.9368	3229
693.3757	3271
695.8138	3123
698.2534	3156
700.6902	3223
703.1245	3221
705.56	3089
707.9949	3234
710.4311	3151
712.8647	3195
715.2957	3237
717.7279	3201
720.1595	3116
722.5905	3271
725.0208	3205
727.4505	3227
729.8795	3231
732.3058	3280
734.7336	3236
737.1626	3197
739.587	3263
742.0128	3214
744.4359	3266
746.8604	3337
749.2841	3306
751.7073	3270
754.1278	3316
756.5496	3349
758.9688	3420
761.3893	3320
763.8093	3364
766.2285	3406
768.6451	3442
771.0611	3421
773.4784	3409
775.895	3386
778.3091	3291
780.7244	3370
783.1371	3281
785.5493	3400
787.9626	3364
790.3754	3405
792.7856	3388
795.1951	3408
797.6039	3360
800.0121	3332
802.4236	3420
804.8306	3445
807.2369	3387
809.6425	3374
812.0475	3354
814.4538	3330
816.8575	3404
819.2606	3443
821.663	3432
824.0648	3399
826.4659	3463
828.8683	3377
831.2682	3426
833.6674	3378
836.066	3355
838.4639	3394
840.8632	3417
843.2579	3421
845.6539	3400
848.0493	3379
850.444	3417
852.84	3520
855.2315	3549
857.6243	3543
860.0165	3455
862.4081	3414
864.797	3513
867.1892	3392
869.5789	3453
871.9659	3447
874.3542	3443
876.74	3412
879.129	3496
881.5155	3456
883.8994	3539
886.2845	3466
888.6671	3441
891.051	3479
893.4343	3451
895.8169	3425
898.197	3502
900.5783	3464
902.9571	3506
905.3372	3501
907.7167	3488
910.0936	3455
912.4698	3535
914.8474	3535
917.2244	3550
919.5987	3556
921.9744	3600
924.3475	3551
926.72	3598
929.0918	3670
931.4669	3510
933.8375	3598
936.2074	3629
938.5767	3742
940.9454	3636
943.3154	3727
945.6829	3630
948.0497	3825
950.4178	3889
952.7833	4018
955.1483	4000
957.5145	4120
959.8782	4240
962.2412	4153
964.6036	4124
966.9655	4072
969.3266	4037
971.6871	3852
974.0471	3700
976.4064	3703
978.765	3637
981.125	3633
983.4824	3569
985.8373	3586
988.1935	3558
990.549	3475
992.9039	3567
995.2602	3565
997.6119	3532
999.965	3700
1002.317	3627
1004.667	3584
1007.02	3558
1009.371	3590
1011.719	3591
1014.068	3594
1016.415	3588
1018.765	3646
1021.111	3693
1023.458	3596
1025.804	3638
1028.147	3618
1030.49	3643
1032.837	3622
1035.179	3614
1037.522	3604
1039.862	3613
1042.204	3641
1044.546	3709
1046.884	3659
1049.224	3735
1051.562	3621
1053.899	3653
1056.237	3632
1058.575	3666
1060.91	3680
1063.244	3769
1065.58	3765
1067.913	3696
1070.248	3698
1072.579	3748
1074.911	3634
1077.242	3714
1079.572	3627
1081.905	3738
1084.234	3663
1086.562	3739
1088.89	3708
1091.217	3703
1093.544	3676
1095.871	3694
1098.197	3702
1100.521	3703
1102.845	3648
1105.169	3677
1107.491	3642
1109.814	3680
1112.135	3726
1114.456	3651
1116.776	3679
1119.096	3668
1121.415	3730
1123.734	3660
1126.052	3741
1128.369	3764
1130.686	3665
1133.002	3718
1135.318	3706
1137.632	3765
1139.945	3682
1142.258	3679
1144.573	3706
1146.884	3759
1149.196	3722
1151.505	3642
1153.816	3708
1156.124	3719
1158.435	3696
1160.742	3681
1163.051	3744
1165.356	3698
1167.663	3789
1169.97	3695
1172.276	3703
1174.579	3670
1176.881	3671
1179.186	3797
1181.487	3665
1183.79	3792
1186.092	3716
1188.392	3720
1190.691	3766
1192.991	3729
1195.291	3706
1197.588	3746
1199.885	3691
1202.181	3705
1204.479	3763
1206.775	3723
1209.07	3764
1211.363	3757
1213.656	3732
1215.949	3707
1218.241	3742
1220.534	3716
1222.825	3822
1225.115	3718
1227.405	3733
1229.693	3793
1231.984	3726
1234.271	3776
1236.558	3797
1238.845	3831
1241.131	3846
1243.416	3843
1245.703	3881
1247.987	3843
1250.269	3814
1252.552	3872
1254.834	3821
1257.118	3880
1259.399	3835
1261.678	3811
1263.958	3940
1266.237	3820
1268.516	3800
1270.794	3858
1273.072	3892
1275.347	3779
1277.624	3864
1279.899	3820
1282.175	3848
1284.449	3912
1286.722	3789
1288.995	3776
1291.266	3794
1293.54	3829
1295.81	3830
1298.081	3797
1300.35	3807
1302.62	3812
1304.889	3768
1307.156	3822
1309.425	3783
1311.69	3788
1313.957	3867
1316.222	3776
1318.488	3852
1320.751	3784
1323.016	3877
1325.278	3744
1327.54	3859
1329.803	3846
1332.065	3830
1334.325	3827
1336.584	3818
1338.843	3834
1341.101	3917
1343.36	3914
1345.617	3878
1347.876	3847
1350.131	3875
1352.387	3854
1354.643	3872
1356.897	3755
1359.151	3814
1361.403	3794
1363.656	3814
1365.909	3793
1368.16	3831
1370.409	3821
1372.659	3820
1374.909	3886
1377.157	3765
1379.407	3825
1381.655	3941
1383.9	3889
1386.147	3823
1388.393	3875
1390.64	3944
1392.885	3839
1395.127	3932
1397.37	3933
1399.614	3926
1401.854	3946
1404.098	3964
1406.339	3897
1408.578	3840
1410.818	3926
1413.056	3890
1415.297	3937
1417.533	3960
1419.771	3900
1422.006	3921
1424.243	4000
1426.479	3930
1428.715	3957
1430.948	3993
1433.182	3952
1435.414	3930
1437.647	3988
1439.88	3938
1442.11	3977
1444.342	3939
1446.571	4021
1448.799	4055
1451.029	3974
1453.258	4092
1455.485	4108
1457.711	4025
1459.937	4049
1462.164	4017
1464.39	3995
1466.614	3977
1468.838	3951
1471.06	4018
1473.283	4013
1475.506	4006
1477.727	3902
1479.949	3933
1482.169	3990
1484.389	3957
1486.609	3845
1488.828	3957
1491.045	3897
1493.261	3948
1495.477	3976
1497.693	3817
1499.91	3897
1502.125	3842
1504.339	3893
1506.553	3787
1508.766	3931
1510.979	3871
1513.191	3943
1515.402	3876
1517.613	3867
1519.823	3882
1522.033	3860
1524.242	3914
1526.451	3900
1528.657	3921
1530.865	3891
1533.072	3924
1535.278	3890
1537.484	3858
1539.687	3905
1541.892	3905
1544.096	3857
1546.299	3895
1548.502	3926
1550.703	4010
1552.905	3890
1555.104	3972
1557.303	3968
1559.505	3919
1561.703	3968
1563.902	3967
1566.099	3908
1568.295	4051
1570.494	3995
1572.689	3940
1574.883	4024
1577.079	4013
1579.272	3995
1581.467	3974
1583.659	4055
1585.853	4054
1588.044	3965
1590.234	4075
1592.424	3882
1594.615	4019
1596.806	3999
1598.994	4118
1601.182	4077
1603.369	4086
1605.557	4071
1607.744	4088
1609.929	4026
1612.114	4006
1614.298	4003
1616.482	4016
1618.667	4089
1620.85	4028
1623.032	4042
1625.214	4006
1627.395	4121
1629.575	4022
1631.755	4183
1633.935	4042
1636.114	4037
1638.292	4057
1640.471	4097
1642.647	4110
1644.823	4031
1647	4078
1649.175	4155
1651.348	4070
1653.525	4081
1655.698	4105
1657.87	4248
1660.043	4056
1662.213	4166
1664.387	4134
1666.558	4127
1668.727	4139
1670.896	4159
1673.064	4161
1675.233	4060
1677.401	4217
1679.569	4105
1681.735	4144
1683.902	4105
1686.066	4057
1688.233	4077
1690.397	4083
1692.559	4041
1694.723	4151
1696.885	4050
1699.048	4075
1701.21	4079
1703.37	4104
1705.53	4048
1707.689	4077
1709.849	4196
1712.009	4024
1714.166	4027
1716.323	4071
1718.479	4111
1720.634	4126
1722.793	4043
1724.948	4122
1727.102	4148
1729.255	4047
1731.408	4041
1733.562	4056
1735.714	3990
1737.865	4025
1740.016	4108
1742.166	4132
1744.316	4095
1746.467	4063
1748.616	4103
1750.764	4079
1752.911	4045
1755.056	4048
1757.205	4057
1759.35	4085
1761.496	4085
1763.641	4134
1765.785	4063
1767.927	4157
1770.072	4200
1772.214	4161
1774.355	4106
1776.496	4217
1778.637	4179
1780.778	4145
1782.918	4114
1785.057	4112
1787.194	4174
1789.333	4156
1791.472	4172
1793.608	4174
1795.745	4154
1797.879	4090
1800.015	4139
1802.148	4049
1804.284	4163
1806.417	4057
1808.548	4186
1810.682	4131
1812.812	4197
1814.946	4144
1817.075	4127
1819.205	4142
1821.335	4164
1823.463	4140
1825.59	4059
1827.721	4175
1829.847	4078
1831.973	4066
1834.098	4211
1836.223	4131
1838.351	4184
1840.475	4141
1842.598	4072
1844.721	4100
1846.843	4087
1848.966	4064
1851.087	4149
1853.21	4108
1855.33	4108
1857.449	4138
1859.568	4221
1861.688	4155
1863.806	4124
1865.924	4129
1868.039	4157
1870.155	4099
1872.273	4115
1874.388	4169
1876.503	4061
1878.617	4102
1880.73	4190
1882.844	4118
1884.956	4128
1887.068	4176
1889.18	4208
1891.291	4176
1893.4	4182
1895.511	4193
1897.621	4134
1899.73	4180
1901.837	4160
1903.944	4201
1906.053	4107
1908.159	4113
1910.265	4131
1912.369	4114
1914.474	4150
1916.577	4182
1918.683	4084
1920.785	4222
1922.888	4210
1924.989	4149
1927.091	4298
1929.193	4200
1931.294	4230
1933.393	4190
1935.493	4175
1937.59	4207
1939.689	4301
1941.788	4084
1943.884	4168
1945.98	4211
1948.077	4199
1950.171	4144
1952.267	4221
1954.361	4196
1956.455	4242
1958.548	4218
1960.64	4213
1962.733	4246
1964.824	4174
1966.915	4167
1969.005	4205
1971.096	4239
1973.185	4213
1975.275	4212
1977.363	4137
1979.45	4223
1981.537	4223
1983.623	4121
1985.711	4162
1987.796	4193
1989.881	4200
1991.965	4168
1994.047	4198
1996.132	4212
1998.215	4198
2000.297	4265
2002.378	4244
2004.46	4229
2006.54	4134
2008.62	4188
2010.7	4212
2012.779	4227
2014.858	4154
2016.934	4077
2019.013	4175
2021.09	4104
2023.165	4259
2025.241	4179
2027.317	4219
2029.39	4243
2031.466	4159
2033.538	4213
2035.612	4260
2037.683	4084
2039.755	4218
2041.827	4246
2043.898	4136
2045.968	4233
2048.038	4127
2050.106	4193
2052.177	4215
2054.244	4179
2056.313	4194
2058.379	4189
2060.444	4279
2062.511	4156
2064.577	4170
2066.641	4149
2068.705	4152
2070.77	4181
2072.832	4301
2074.896	4154
2076.958	4228
2079.02	4219
2081.081	4309
2083.141	4117
2085.2	4130
2087.261	4232
2089.319	4252
2091.377	4158
2093.435	4171
2095.492	4215
2097.552	4217
2099.607	4284
2101.663	4128
2103.718	4191
2105.771	4266
2107.826	4301
2109.879	4161
2111.932	4213
2113.985	4184
2116.037	4211
2118.088	4290
2120.141	4180
2122.191	4172
2124.239	4228
2126.288	4290
2128.337	4157
2130.387	4228
2132.434	4250
2134.481	4198
2136.528	4222
2138.574	4288
2140.618	4206
2142.665	4160
2144.71	4186
2146.753	4295
2148.797	4253
2150.838	4226
2152.883	4257
2154.923	4184
2156.965	4240
2159.007	4239
2161.046	4183
2163.086	4266
2165.126	4199
2167.163	4252
2169.202	4270
2171.239	4168
2173.277	4253
2175.314	4127
2177.349	4207
2179.385	4245
2181.42	4228
2183.453	4213
2185.49	4245
2187.522	4183
2189.555	4136
2191.586	4217
2193.619	4168
2195.651	4142
2197.682	4212
2199.711	4136
2201.74	4099
2203.769	4161
2205.799	4244
2207.828	4223
2209.855	4091
2211.882	4096
2213.908	4160
2215.934	4170
2217.961	4201
2219.986	4082
2222.01	4165
2224.034	4085
2226.057	4208
2228.08	4172
2230.104	4158
2232.124	4179
2234.145	4120
2236.166	4166
2238.186	4138
2240.207	4108
2242.227	4156
2244.244	4233
2246.262	4105
2248.28	4112
2250.299	4103
2252.314	4217
2254.33	4138
2256.346	4145
2258.36	4211
2260.375	4180
2262.391	4126
2264.403	4052
2266.416	4132
2268.427	4226
2270.44	4216
2272.453	4142
2274.463	4185
2276.474	4139
2278.483	4194
2280.493	4067
2282.501	4129
2284.51	4194
2286.518	4131
2288.524	4178
2290.532	4215
2292.537	4164
2294.544	4065
2296.55	4211
2298.554	4171
2300.557	4175
2302.562	4181
2304.566	4176
2306.568	4176
2308.569	4157
2310.572	4207
2312.573	4157
2314.573	4131
2316.574	4118
2318.573	4131
2320.571	4137
2322.571	4101
2324.569	4140
2326.567	4110
2328.564	4174
2330.56	4093
2332.556	4136
2334.551	4114
2336.546	4107
2338.542	4056
2340.535	4170
2342.529	4091
2344.521	4183
2346.512	4150
2348.505	4131
2350.497	4081
2352.487	4137
2354.478	4081
2356.468	4140
2358.457	4055
2360.446	4111
2362.434	4162
2364.422	4105
2366.408	4092
2368.395	4104
2370.383	4149
2372.369	4108
2374.353	4213
2376.338	4107
2378.321	4143
2380.307	4147
2382.29	4085
2384.272	4029
2386.254	4018
2388.235	4147
2390.218	4000
2392.198	4163
2394.179	3997
2396.157	4089
2398.137	4086
2400.115	4032
2402.095	4136
2404.072	4034
2406.048	4099
2408.026	4076
2410.001	4024
2411.977	4061
2413.953	4118
2415.927	4117
2417.9	4157
2419.875	4070
2421.847	4011
2423.821	4096
2425.792	4155
2427.763	4100
2429.736	4095
2431.706	4097
2433.677	4086
2435.646	4109
2437.615	4053
2439.583	4042
2441.551	4167
2443.519	4096
2445.486	4057
2447.452	4099
2449.418	4045
2451.383	4000
2453.348	4073
2455.314	4064
2457.278	4094
2459.241	4058
2461.205	4065
2463.167	4047
2465.131	4102
2467.091	4072
2469.052	4023
2471.012	4046
2472.972	4097
2474.932	3992
2476.891	4067
2478.85	4107
2480.808	4062
2482.766	4092
2484.722	4104
2486.68	4051
2488.636	4019
2490.591	4088
2492.546	3992
2494.5	4028
2496.456	3990
2498.41	4007
2500.362	4081
2502.315	4105
2504.266	4074
2506.218	4075
2508.169	3960
2510.121	3945
2512.07	4094
2514.019	3985
2515.968	4061
2517.918	4047
2519.866	4047
2521.813	4056
2523.76	4043
2525.707	4076
2527.653	4076
2529.599	4081
2531.543	4038
2533.489	3974
2535.433	4084
2537.376	4007
2539.32	4102
2541.264	4031
2543.205	4055
2545.147	4081
2547.087	4009
2549.029	4003
2550.969	4043
2552.908	4087
2554.847	4060
2556.786	3935
2558.724	4102
2560.663	4037
2562.6	3992
2564.537	4063
2566.473	4109
2568.408	4028
2570.345	3946
2572.28	4047
2574.214	3974
2576.148	4032
2578.081	4053
2580.014	4152
2581.947	3996
2583.879	3946
2585.81	4047
2587.741	4051
2589.67	4005
2591.602	4027
2593.532	4049
2595.461	3977
2597.388	4142
2599.316	3980
2601.244	3986
2603.172	4063
2605.098	4058
2607.023	4018
2608.949	4006
2610.873	3970
2612.8	4008
2614.723	4067
2616.647	3991
2618.569	3966
2620.493	4076
2622.416	4098
2624.338	4079
2626.258	4128
2628.179	4032
2630.099	4042
2632.019	3965
2633.939	4099
2635.857	4021
2637.775	4110
2639.694	4101
2641.61	4062
2643.528	4062
2645.444	4080
2647.361	4094
2649.276	4081
2651.19	3950
2653.105	4070
2655.019	4108
2656.934	4020
2658.846	4044
2660.758	4057
2662.67	4068
2664.583	4039
2666.493	3991
2668.404	4062
2670.313	3941
2672.223	4079
2674.134	4050
2676.042	3995
2677.95	4062
2679.858	4100
2681.765	4063
2683.673	3983
2685.579	4012
2687.483	4077
2689.389	3978
2691.294	4050
2693.198	4034
2695.104	4004
2697.006	3996
2698.909	3961
2700.811	4013
2702.713	4021
2704.615	4068
2706.516	3985
2708.417	4093
2710.316	4004
2712.216	3946
2714.115	4076
2716.014	3990
2717.913	4010
2719.81	4078
2721.707	4034
2723.603	4082
2725.501	3898
2727.396	4024
2729.292	4002
2731.186	4052
2733.081	3950
2734.976	3978
2736.87	4034
2738.762	4008
2740.653	3925
2742.546	4022
2744.437	4048
2746.329	3979
2748.22	4004
2750.11	3998
2751.999	4032
2753.889	4064
2755.778	4000
2757.666	4015
2759.553	3928
2761.44	3939
2763.328	4020
2765.215	3976
2767.101	4006
2768.986	4017
2770.87	3959
2772.754	4017
2774.638	3977
2776.523	3976
2778.405	4027
2780.288	4009
2782.17	4041
2784.051	4098
2785.934	4037
2787.814	4016
2789.694	3956
2791.574	3968
2793.453	3895
2795.332	3925
2797.212	3983
2799.088	3905
2800.966	3939
2802.843	3901
2804.719	3994
2806.597	4010
2808.471	4003
2810.346	3947
2812.221	3941
2814.094	3983
2815.969	3981
2817.843	3953
2819.714	3966
2821.587	3946
2823.459	3970
2825.329	3907
2827.202	3976
2829.072	3939
2830.942	3993
2832.811	3950
2834.68	3981
2836.549	3934
2838.418	3896
2840.284	3971
2842.152	3956
2844.018	3994
2845.885	3871
2847.751	4028
2849.616	3947
2851.482	4050
2853.345	3955
2855.208	3944
2857.074	3893
2858.937	4018
2860.799	4013
2862.66	4002
2864.522	4003
2866.385	4068
2868.245	4059
2870.104	4073
2871.964	4008
2873.824	4118
2875.683	4074
2877.542	4097
2879.4	4111
2881.257	4235
2883.114	4134
2884.97	4237
2886.827	4093
2888.683	4231
2890.537	4163
2892.392	4163
2894.246	4070
2896.1	4139
2897.954	4128
2899.807	4183
2901.66	4144
2903.51	4096
2905.362	4139
2907.214	4198
2909.065	4149
2910.915	4155
2912.765	4180
2914.613	4172
2916.463	4199
2918.311	4274
2920.158	4273
2922.006	4202
2923.853	4231
2925.698	4291
2927.546	4333
2929.392	4355
2931.236	4334
2933.081	4319
2934.924	4450
2936.77	4478
2938.613	4348
2940.455	4443
2942.298	4501
2944.139	4433
2945.982	4415
2947.823	4391
2949.662	4389
2951.503	4457
2953.342	4353
2955.182	4333
2957.021	4406
2958.858	4324
2960.697	4348
2962.534	4257
2964.37	4293
2966.207	4308
2968.044	4226
2969.879	4268
2971.714	4088
2973.548	4143
2975.383	4185
2977.218	4175
2979.051	4227
2980.883	4117
2982.715	4129
2984.547	4064
2986.379	4147
2988.21	4061
2990.04	4059
2991.87	4120
2993.7	4071
2995.53	3930
2997.359	4087
2999.187	3935
3001.015	4015
3002.842	3959
3004.669	3976
3006.497	3967
3008.323	3853
3010.148	3887
3011.974	3814
3013.797	3926
3015.623	3961
3017.447	3855
3019.27	3831
3021.094	3912
3022.915	3852
3024.737	3807
3026.56	3871
3028.38	3863
3030.201	3719
3032.022	3839
3033.84	3831
3035.662	3819
3037.481	3718
3039.298	3835
3041.117	3753
3042.933	3823
3044.752	3907
3046.568	3850
3048.385	3853
3050.2	3808
3052.016	3831
3053.83	3775
3055.646	3806
3057.46	3778
3059.272	3772
3061.086	3767
3062.898	3836
3064.711	3767
3066.524	3784
3068.335	3814
3070.145	3746
3071.956	3720
3073.766	3772
3075.576	3817
3077.385	3755
3079.193	3796
3081.002	3784
3082.81	3664
3084.618	3753
3086.425	3736
3088.231	3709
3090.036	3719
3091.842	3725
3093.648	3753
3095.452	3728
3097.257	3724
3099.06	3716
3100.863	3702
3102.666	3704
3104.47	3698
3106.272	3710
3108.073	3667
3109.875	3666
3111.676	3673
3113.477	3684
3115.277	3612
3117.077	3706
3118.874	3628
3120.673	3690
3122.473	3650
3124.271	3671
3126.066	3737
3127.863	3685
3129.66	3610
3131.456	3653
3133.252	3650
3135.047	3702
3136.842	3632
3138.635	3779
3140.429	3662
3142.223	3616
3144.016	3561
3145.808	3691
3147.6	3679
3149.392	3584
3151.183	3674
3152.975	3674
3154.765	3672
3156.553	3621
3158.344	3574
3160.132	3636
3161.922	3587
3163.71	3532
3165.497	3595
3167.285	3646
3169.071	3605
3170.858	3616
3172.645	3611
3174.429	3555
3176.214	3643
3177.998	3545
3179.783	3558
3181.568	3579
3183.351	3569
3185.133	3612
3186.915	3589
3188.698	3574
3190.481	3607
3192.261	3594
3194.042	3580
3195.822	3528
3197.601	3522
3199.381	3560
3201.161	3596
3202.939	3484
3204.717	3538
3206.495	3566
3208.272	3546
3210.05	3570
3211.826	3620
3213.602	3554
3215.376	3520
3217.151	3599
3218.927	3553
3220.702	3592
3222.476	3622
3224.249	3552
3226.021	3592
3227.793	3574
3229.567	3581
3231.339	3616
3233.109	3525
3234.88	3586
3236.651	3586
3238.421	3604
3240.191	3528
3241.96	3619
3243.728	3608
3245.497	3597
3247.263	3528
3249.033	3582
3250.799	3523
3252.566	3622
3254.331	3617
3256.097	3534
3257.863	3572
3259.628	3581
3261.392	3584
3263.156	3449
3264.919	3526
3266.683	3582
3268.447	3575
3270.208	3586
3271.969	3496
3273.731	3538
3275.492	3567
3277.253	3517
3279.013	3592
3280.773	3469
3282.532	3570
3284.291	3562
3286.05	3543
3287.808	3515
3289.566	3513
3291.323	3572
3293.079	3539
3294.835	3521
3296.593	3591
3298.348	3518
3300.102	3577
3301.857	3546
3303.611	3614
3305.366	3545
3307.119	3564
3308.872	3571
3310.624	3535
3312.376	3536
3314.129	3469
3315.881	3542
3317.631	3518
3319.38	3492
3321.13	3524
3322.88	3566
3324.631	3501
3326.379	3450
3328.126	3547
3329.875	3536
3331.622	3508
3333.371	3563
3335.116	3522
3336.863	3482
3338.609	3466
3340.353	3583
3342.1	3484
3343.845	3510
3345.588	3447
3347.332	3534
3349.074	3487
3350.817	3477
3352.56	3517
3354.303	3551
3356.043	3483
3357.785	3473
3359.525	3409
3361.268	3533
3363.007	3610
3364.745	3515
3366.485	3526
3368.223	3488
3369.962	3458
3371.701	3560
3373.438	3452
3375.174	3543
3376.911	3482
3378.647	3495
3380.384	3421
3382.118	3492
3383.854	3389
3385.588	3440
3387.322	3525
3389.057	3426
3390.79	3512
3392.522	3357
3394.255	3437
3395.987	3455
3397.719	3367
3399.451	3476
3401.181	3412
3402.911	3451
3404.641	3472
3406.371	3433
3408.101	3438
3409.83	3417
3411.558	3433
3413.285	3382
3415.011	3508
3416.739	3432
3418.467	3359
3420.193	3315
3421.919	3428
3423.644	3343
3425.368	3369
3427.094	3418
3428.818	3410
3430.542	3381
3432.264	3453
3433.987	3384
3435.712	3480
3437.434	3351
3439.155	3439
3440.876	3342
3442.596	3355
3444.317	3354
3446.039	3414
3447.757	3357
3449.477	3326
3451.195	3354
3452.914	3406
3454.632	3396
3456.35	3387
3458.067	3404
3459.784	3371
3461.5	3347
3463.216	3379
3464.932	3272
3466.647	3302
3468.362	3339
3470.076	3302
3471.789	3393
3473.505	3259
3475.217	3215
3476.929	3296
3478.641	3365
3480.354	3294
3482.066	3302
3483.777	3315
3485.487	3221
3487.197	3373
3488.908	3333
3490.617	3262
3492.327	3277
3494.035	3254
3495.743	3321
3497.451	3204
3499.158	3321
3500.866	3270
3502.572	3238
3504.278	3274
3505.984	3211
3507.689	3269
3509.396	3251
3511.1	3251
3512.804	3278
3514.508	3316
3516.211	3251
3517.913	3264
3519.616	3239
3521.319	3227
3523.021	3232
3524.722	3291
3526.422	3221
3528.124	3123
3529.824	3226
3531.524	3248
3533.222	3310
3534.921	3166
3536.62	3238
3538.318	3227
3540.016	3259
3541.714	3214
3543.41	3175
3545.107	3224
3546.803	3216
3548.5	3208
3550.194	3219
3551.889	3189
3553.583	3213
3555.279	3108
3556.972	3254
3558.666	3126
3560.358	3146
3562.051	3197
3563.742	3200
3565.435	3159
3567.126	3209
3568.817	3213
3570.507	3150
3572.197	3172
3573.888	3169
3575.577	3225
3577.265	3196
3578.954	3113
3580.642	3166
3582.329	3058
3584.017	3214
3585.704	3146
3587.391	3144
3589.077	3103
3590.762	3092
3592.449	3175
3594.133	3119
3595.817	3194
3597.501	3127
3599.185	3070
3600.869	3125
3602.552	3121
3604.234	3126
3605.916	3124
3607.598	3108
3609.279	3011
3610.961	3151
3612.642	3061
3614.321	3112
3616	3063
3617.68	3072
3619.36	3143
3621.039	3065
3622.716	3064
3624.394	3097
3626.071	3088
3627.748	3085
3629.425	3018
3631.102	3076
3632.778	3018
3634.452	2996
3636.127	3050
3637.803	3077
3639.477	3005
3641.151	3042
3642.823	3034
3644.497	3049
3646.171	3093
3647.842	3016
3649.515	3039
3651.185	3046
3652.857	3029
3654.527	3031
3656.198	3022
3657.868	3053
3659.537	3018
3661.207	3018
3662.875	2991
3664.544	3008
3666.212	3066
3667.879	3002
3669.546	3014
3671.212	2934
3672.88	2951
3674.546	3032
3676.211	3008
3677.875	2920
3679.541	3048
3681.205	2983
3682.87	2976
3684.533	3048
3686.196	3004
3687.859	2962
3689.521	2963
3691.184	2965
3692.845	2981
3694.507	2988
3696.167	2948
3697.827	2987
3699.487	2955
3701.148	2962
3702.808	3011
3704.466	3024
3706.125	2974
3707.783	2981
3709.442	2983
3711.099	2992
3712.757	2967
3714.412	2934
3716.068	2968
3717.725	2974
3719.381	2933
3721.036	2988
3722.689	2979
3724.344	2953
3725.998	2901
3727.652	2902
3729.305	3002
3730.958	2940
3732.61	2839
3734.262	2922
3735.915	2958
3737.565	2896
3739.217	2944
3740.866	2921
3742.516	2869
3744.165	2908
3745.816	2929
3747.464	2969
3749.113	2880
3750.761	2903
3752.409	2913
3754.057	3011
3755.703	2892
3757.35	2914
3758.996	2960
3760.641	2907
3762.289	2824
3763.933	2898
3765.577	2912
3767.222	2918
3768.865	2952
3770.508	2869
3772.152	2866
3773.796	2859
3775.438	3036
3777.079	2906
3778.721	2915
3780.363	2910
3782.003	2766
3783.643	2866
3785.283	2799
3786.923	2936
3788.563	2903
3790.203	2821
3791.841	2904
3793.479	2874
3795.115	2838
3796.753	2902
3798.391	2853
3800.027	2841
3801.664	2828
3803.299	2831
3804.935	2798
3806.571	2852
3808.206	2787
3809.839	2840
3811.473	2815
3813.107	2840
3814.74	2803
3816.375	2858
3818.006	2831
3819.638	2814
3821.27	2849
3822.9	2795
3824.532	2849
3826.163	2836
3827.792	2840
3829.423	2770
3831.051	2746
3832.682	2860
3834.311	2810
3835.938	2732
3837.566	2726
3839.193	2782
3840.821	2760
3842.448	2751
3844.075	2754
3845.7	2850
3847.325	2778
3848.951	2759
3850.576	2749
3852.201	2730
3853.825	2757
3855.448	2762
3857.072	2774
3858.694	2800
3860.318	2767
3861.939	2840
3863.562	2764
3865.183	2756
3866.804	2786
3868.426	2704
3870.045	2750
3871.666	2703
3873.285	2778
3874.904	2735
3876.524	2729
3878.142	2686
3879.76	2709
3881.378	2778
3882.995	2725
3884.612	2788
3886.229	2693
3887.845	2717
3889.461	2676
3891.076	2729
3892.691	2714
3894.307	2745
3895.922	2728
3897.536	2737
3899.149	2681
3900.761	2766
3902.374	2769
3903.988	2763
3905.6	2713
3907.212	2677
3908.822	2662
3910.433	2673
3912.045	2699
3913.655	2737
3915.265	2759
3916.875	2698
3918.483	2687
3920.093	2713
3921.702	2710
3923.309	2705
3924.917	2633
3926.523	2669
3928.13	2687
3929.739	2730
3931.344	2708
3932.95	2727
3934.555	2704
3936.159	2638
3937.766	2708
3939.369	2678
3940.974	2686
3942.577	2715
3944.181	2733
3945.783	2740
3947.386	2704
3948.989	2660
3950.59	2676
3952.191	2738
3953.791	2665
3955.394	2656
3956.994	2681
3958.593	2683
3960.192	2650
3961.791	2595
3963.392	2602
3964.99	2629
3966.588	2611
3968.185	2686
3969.782	2665
3971.379	2626
3972.976	2661
3974.572	2580
3976.168	2621
3977.763	2665
3979.358	2626
3980.954	2710
3982.548	2593
3984.142	2578
3985.736	2675
3987.329	2705
3988.922	2648
3990.516	2596
3992.108	2602
3993.698	2602
3995.29	2585
3996.881	2595
3998.473	2667
4000.064	2598
4001.653	2556
4003.242	2546
4004.832	2588
4006.422	2586
4008.01	2518
4009.598	2613
4011.186	2562
4012.773	2578
4014.36	2599
4015.947	2592
4017.534	2515
4019.119	2546
4020.705	2500
4022.291	2585
4023.876	2568
4025.461	2558
4027.044	2544
4028.627	2621
4030.211	2542
4031.795	2520
4033.378	2534
4034.96	2467
4036.542	2565
4038.124	2493
4039.704	2564
4041.286	2530
4042.867	2542
4044.447	2462
4046.026	2479
4047.606	2514
4049.187	2504
4050.765	2539
4052.343	2541
4053.92	2517
4055.498	2500
4057.076	2484
4058.654	2535
4060.23	2492
4061.806	2492
4063.381	2528
4064.957	2485
4066.533	2504
4068.107	2479
4069.682	2491
4071.256	2472
4072.829	2468
4074.404	2467
4075.977	2444
4077.549	2476
4079.121	2518
4080.693	2521
4082.265	2417
4083.836	2501
4085.407	2437
4086.977	2468
4088.547	2486
4090.117	2474
4091.687	2435
4093.256	2491
4094.825	2433
4096.392	2483
4097.96	2413
4099.528	2429
4101.097	2512
4102.663	2422
4104.229	2406
4105.795	2422
4107.361	2451
4108.928	2455
4110.493	2529
4112.058	2365
4113.621	2462
4115.186	2449
4116.75	2475
4118.313	2416
4119.876	2438
4121.438	2373
4123	2403
4124.562	2405
4126.125	2392
4127.686	2433
4129.246	2434
4130.807	2459
4132.367	2371
4133.927	2409
4135.486	2393
4137.046	2414
4138.604	2447
4140.162	2359
4141.72	2361
4143.279	2322
4144.836	2423
4146.393	2395
4147.949	2356
4149.505	2346
4151.062	2324
4152.617	2440
4154.172	2382
4155.727	2424
4157.281	2365
4158.836	2387
4160.39	2369
4161.943	2390
4163.496	2350
4165.048	2335
4166.601	2334
4168.154	2315
4169.706	2330
4171.257	2268
4172.808	2326
4174.358	2442
4175.909	2389
4177.458	2387
4179.008	2318
4180.558	2297
4182.106	2324
4183.655	2307
4185.204	2310
4186.751	2317
4188.298	2334
4189.845	2308
4191.392	2259
4192.939	2277
4194.485	2300
4196.031	2329
4197.576	2323
4199.121	2332
4200.666	2293
4202.211	2275
4203.754	2261
4205.298	2267
4206.84	2289
4208.384	2346
4209.927	2340
4211.47	2274
4213.011	2287
4214.552	2291
4216.094	2298
4217.635	2258
4219.175	2300
4220.716	2260
4222.255	2304
4223.793	2245
4225.335	2288
4226.873	2274
4228.411	2239
4229.948	2295
4231.486	2239
4233.024	2259
4234.562	2315
4236.098	2262
4237.634	2229
4239.169	2295
4240.705	2259
4242.241	2227
4243.776	2247
4245.31	2265
4246.844	2241
4248.378	2259
4249.911	2286
4251.445	2287
4252.978	2268
4254.51	2205
4256.042	2264
4257.574	2235
4259.107	2207
4260.638	2271
4262.169	2234
4263.699	2225
4265.228	2272
4266.759	2258
4268.289	2252
4269.818	2240
4271.345	2268
4272.874	2189
4274.402	2186
4275.931	2240
4277.458	2256
4278.985	2217
4280.512	2239
4282.037	2189
4283.564	2211
4285.089	2204
4286.615	2206
4288.139	2202
4289.664	2223
4291.187	2208
4292.712	2217
4294.235	2198
4295.759	2165
4297.281	2196
4298.804	2199
4300.327	2199
4301.849	2203
4303.37	2190
4304.891	2222
4306.412	2141
4307.933	2132
4309.453	2225
4310.973	2181
4312.492	2191
