398.1873	5306
400.7097	5327
403.2336	5340
405.7547	5285
408.2751	5313
410.7948	5305
413.3138	5409
415.83	5365
418.3497	5498
420.8666	5455
423.3829	5540
425.8985	5697
428.4133	5723
430.9275	5711
433.441	5719
435.9538	5727
438.4639	5731
440.9753	5675
443.4881	5737
445.9982	5693
448.5055	5690
451.0142	5748
453.5201	5660
456.0274	5631
458.5361	5808
461.04	5618
463.5453	5686
466.0478	5667
468.5517	5730
471.0549	5693
473.5574	5827
476.0572	5685
478.5584	5788
481.0568	5693
483.5545	5882
486.0557	5762
488.5521	5809
491.0478	5752
493.5449	5759
496.0392	5857
498.5349	5787
501.0299	5799
503.5222	5884
506.0139	5870
508.5048	5910
510.9991	5885
513.4887	5916
515.9777	5973
518.4659	5922
520.9534	5954
523.4403	6009
525.9306	5994
528.4161	5880
530.9009	5937
533.3851	5971
535.8687	6047
538.3535	5940
540.8356	6031
543.3171	5967
545.7979	5985
548.278	6027
550.7595	5933
553.2383	5932
555.7144	6105
558.1918	6010
560.6685	6039
563.1446	5988
565.6221	5973
568.0968	6018
570.5688	6123
573.0422	6052
575.515	6097
577.989	6179
580.4584	6261
582.9291	6173
585.3991	6257
587.8685	6194
590.3352	6233
592.8052	6235
595.2706	6265
597.7372	6149
600.2033	6203
602.6666	6170
605.1334	6171
607.5953	6200
610.0587	6123
612.5193	6173
614.9814	6196
617.4427	6157
619.9034	6231
622.3615	6102
624.8208	6124
627.2775	6031
629.7335	6160
632.1929	6069
634.6476	6094
637.1016	6182
639.5569	6122
642.0096	6138
644.4637	6170
646.9151	6115
649.3678	6176
651.8179	6177
654.2672	6216
656.7159	6164
659.166	6307
661.6154	6220
664.0622	6294
666.5082	6152
668.9537	6311
671.4005	6221
673.8445	6343
676.288	6279
678.7308	6260
681.1729	6349
683.6163	6445
686.0572	6350
688.4973	6348
690.9368	6289
693.3757	6396
695.8138	6337
698.2534	6368
700.6902	6352
703.1245	6397
705.56	6361
707.9949	6507
710.4311	6426
712.8647	6440
715.2957	6410
717.7279	6500
720.1595	6411
722.5905	6503
725.0208	6472
727.4505	6580
729.8795	6505
732.3058	6598
734.7336	6539
737.1626	6541
739.587	6596
742.0128	6584
744.4359	6669
746.8604	6710
749.2841	6607
751.7073	6696
754.1278	6737
756.5496	6714
758.9688	6749
761.3893	6825
763.8093	6793
766.2285	6667
768.6451	6793
771.0611	6832
773.4784	6816
775.895	6785
778.3091	6881
780.7244	6817
783.1371	6792
785.5493	6869
787.9626	6605
790.3754	6871
792.7856	6737
795.1951	6751
797.6039	6783
800.0121	6810
802.4236	6730
804.8306	6823
807.2369	6817
809.6425	6799
812.0475	6887
814.4538	6844
816.8575	6851
819.2606	6940
821.663	6925
824.0648	6960
826.4659	6854
828.8683	6886
831.2682	6904
833.6674	7018
836.066	6900
838.4639	6955
840.8632	6856
843.2579	6894
845.6539	6927
848.0493	7020
850.444	7042
852.84	7030
855.2315	7045
857.6243	7109
860.0165	6901
862.4081	7071
864.797	7037
867.1892	7028
869.5789	7022
871.9659	7042
874.3542	6993
876.74	7113
879.129	7074
881.5155	6971
883.8994	7086
886.2845	7033
888.6671	6998
891.051	7051
893.4343	6985
895.8169	6983
898.197	6889
900.5783	7023
902.9571	7051
905.3372	7004
907.7167	7188
910.0936	7073
912.4698	7076
914.8474	7196
917.2244	7173
919.5987	7163
921.9744	7201
924.3475	7207
926.72	7290
929.0918	7356
931.4669	7382
933.8375	7391
936.2074	7393
938.5767	7469
940.9454	7557
943.3154	7609
945.6829	7792
948.0497	7783
950.4178	7999
952.7833	8255
955.1483	8552
957.5145	8847
959.8782	8959
962.2412	8801
964.6036	8685
966.9655	8358
969.3266	8057
971.6871	7821
974.0471	7687
976.4064	7398
978.765	7468
981.125	7316
983.4824	7184
985.8373	7305
988.1935	7141
990.549	7342
992.9039	7247
995.2602	7193
997.6119	7269
999.965	7220
1002.317	7291
1004.667	7261
1007.02	7272
1009.371	7222
1011.719	7323
1014.068	7254
1016.415	7307
1018.765	7306
1021.111	7392
1023.458	7399
1025.804	7347
1028.147	7477
1030.49	7317
1032.837	7420
1035.179	7332
1037.522	7473
1039.862	7386
1042.204	7380
1044.546	7472
1046.884	7501
1049.224	7438
1051.562	7408
1053.899	7468
1056.237	7409
1058.575	7522
1060.91	7500
1063.244	7528
1065.58	7417
1067.913	7523
1070.248	7542
1072.579	7613
1074.911	7617
1077.242	7493
1079.572	7525
1081.905	7486
1084.234	7498
1086.562	7548
1088.89	7487
1091.217	7337
1093.544	7556
1095.871	7431
1098.197	7456
1100.521	7552
1102.845	7443
1105.169	7390
1107.491	7547
1109.814	7458
1112.135	7471
1114.456	7473
1116.776	7438
1119.096	7342
1121.415	7462
1123.734	7445
1126.052	7485
1128.369	7535
1130.686	7653
1133.002	7474
1135.318	7433
1137.632	7524
1139.945	7557
1142.258	7451
1144.573	7522
1146.884	7493
1149.196	7495
1151.505	7537
1153.816	7406
1156.124	7585
1158.435	7553
1160.742	7464
1163.051	7477
1165.356	7429
1167.663	7394
1169.97	7485
1172.276	7480
1174.579	7625
1176.881	7622
1179.186	7497
1181.487	7600
1183.79	7394
1186.092	7500
1188.392	7422
1190.691	7511
1192.991	7535
1195.291	7457
1197.588	7508
1199.885	7526
1202.181	7548
1204.479	7696
1206.775	7586
1209.07	7570
1211.363	7562
1213.656	7526
1215.949	7559
1218.241	7568
1220.534	7516
1222.825	7529
1225.115	7595
1227.405	7671
1229.693	7700
1231.984	7700
1234.271	7673
1236.558	7659
1238.845	7720
1241.131	7571
1243.416	7772
1245.703	7709
1247.987	7848
1250.269	7827
1252.552	7769
1254.834	7829
1257.118	7756
1259.399	7768
1261.678	7666
1263.958	7695
1266.237	7728
1268.516	7751
1270.794	7700
1273.072	7621
1275.347	7779
1277.624	7776
1279.899	7747
1282.175	7733
1284.449	7657
1286.722	7685
1288.995	7672
1291.266	7742
1293.54	7628
1295.81	7663
1298.081	7616
1300.35	7690
1302.62	7656
1304.889	7538
1307.156	7608
1309.425	7708
1311.69	7655
1313.957	7701
1316.222	7687
1318.488	7607
1320.751	7616
1323.016	7683
1325.278	7521
1327.54	7694
1329.803	7723
1332.065	7749
1334.325	7606
1336.584	7688
1338.843	7662
1341.101	7681
1343.36	7746
1345.617	7687
1347.876	7598
1350.131	7731
1352.387	7623
1354.643	7754
1356.897	7665
1359.151	7808
1361.403	7697
1363.656	7631
1365.909	7773
1368.16	7731
1370.409	7765
1372.659	7775
1374.909	7780
1377.157	7594
1379.407	7664
1381.655	7896
1383.9	7804
1386.147	7817
1388.393	7688
1390.64	7751
1392.885	7878
1395.127	7891
1397.37	7765
1399.614	7759
1401.854	7895
1404.098	7864
1406.339	7817
1408.578	7820
1410.818	7927
1413.056	7896
1415.297	7903
1417.533	7876
1419.771	7855
1422.006	7855
1424.243	7896
1426.479	7959
1428.715	7959
1430.948	7956
1433.182	8079
1435.414	7868
1437.647	7968
1439.88	7981
1442.11	8130
1444.342	8002
1446.571	8067
1448.799	7848
1451.029	8047
1453.258	8055
1455.485	8163
1457.711	8060
1459.937	8089
1462.164	8173
1464.39	8088
1466.614	7981
1468.838	7878
1471.06	7975
1473.283	7915
1475.506	7959
1477.727	7896
1479.949	7835
1482.169	7750
1484.389	7864
1486.609	7799
1488.828	7696
1491.045	7758
1493.261	7697
1495.477	7786
1497.693	7817
1499.91	7802
1502.125	7755
1504.339	7816
1506.553	7794
1508.766	7813
1510.979	7816
1513.191	7753
1515.402	7676
1517.613	7827
1519.823	7778
1522.033	7706
1524.242	7830
1526.451	7729
1528.657	7775
1530.865	7809
1533.072	7789
1535.278	7809
1537.484	7838
1539.687	7790
1541.892	7845
1544.096	7875
1546.299	7812
1548.502	7874
1550.703	7967
1552.905	7901
1555.104	7752
1557.303	7990
1559.505	7798
1561.703	7917
1563.902	7884
1566.099	7961
1568.295	7980
1570.494	7939
1572.689	7975
1574.883	8059
1577.079	8005
1579.272	7968
1581.467	7993
1583.659	7912
1585.853	8034
1588.044	7991
1590.234	8074
1592.424	8070
1594.615	8012
1596.806	7863
1598.994	8099
1601.182	7955
1603.369	8179
1605.557	7952
1607.744	7937
1609.929	8136
1612.114	8043
1614.298	8154
1616.482	8110
1618.667	7996
1620.85	8137
1623.032	8022
1625.214	8010
1627.395	8025
1629.575	8175
1631.755	8215
1633.935	8119
1636.114	8201
1638.292	8056
1640.471	8102
1642.647	8104
1644.823	8259
1647	8111
1649.175	8174
1651.348	8188
1653.525	8124
1655.698	8213
1657.87	8204
1660.043	8122
1662.213	8331
1664.387	8352
1666.558	8128
1668.727	8230
1670.896	8260
1673.064	8214
1675.233	8308
1677.401	8217
1679.569	8203
1681.735	8188
1683.902	8079
1686.066	8213
1688.233	8229
1690.397	8200
1692.559	8283
1694.723	8152
1696.885	7932
1699.048	8089
1701.21	8149
1703.37	8106
1705.53	8002
1707.689	8076
1709.849	7954
1712.009	8036
1714.166	8158
1716.323	8033
1718.479	7976
1720.634	8062
1722.793	8052
1724.948	8032
1727.102	8057
1729.255	8040
1731.408	8088
1733.562	8061
1735.714	8054
1737.865	8101
1740.016	8037
1742.166	8127
1744.316	8020
1746.467	8190
1748.616	8104
1750.764	8053
1752.911	8067
1755.056	8059
1757.205	7990
1759.35	8055
1761.496	8058
1763.641	8061
1765.785	8083
1767.927	8175
1770.072	8106
1772.214	8155
1774.355	8129
1776.496	8149
1778.637	8166
1780.778	8221
1782.918	8043
1785.057	8139
1787.194	8116
1789.333	8196
1791.472	8191
1793.608	8182
1795.745	8145
1797.879	8021
1800.015	8242
1802.148	8158
1804.284	8110
1806.417	8252
1808.548	8244
1810.682	8116
1812.812	8242
1814.946	8107
1817.075	8130
1819.205	8233
1821.335	8161
1823.463	8121
1825.59	8147
1827.721	8160
1829.847	8042
1831.973	8151
1834.098	8061
1836.223	8092
1838.351	8069
1840.475	8083
1842.598	8168
1844.721	8072
1846.843	8135
1848.966	8175
1851.087	8016
1853.21	8027
1855.33	8090
1857.449	8113
1859.568	8164
1861.688	8207
1863.806	7999
1865.924	8269
1868.039	8099
1870.155	8062
1872.273	8143
1874.388	8101
1876.503	8223
1878.617	8065
1880.73	8162
1882.844	8080
1884.956	7978
1887.068	8082
1889.18	8021
1891.291	8076
1893.4	8110
1895.511	8167
1897.621	8099
1899.73	8228
1901.837	8171
1903.944	8275
1906.053	8137
1908.159	8234
1910.265	8205
1912.369	8167
1914.474	8407
1916.577	8228
1918.683	8202
1920.785	8200
1922.888	8418
1924.989	8146
1927.091	8254
1929.193	8223
1931.294	8275
1933.393	8208
1935.493	8297
1937.59	8171
1939.689	8230
1941.788	8319
1943.884	8251
1945.98	8248
1948.077	8300
1950.171	8133
1952.267	8283
1954.361	8231
1956.455	8146
1958.548	8196
1960.64	8423
1962.733	8190
1964.824	8296
1966.915	8233
1969.005	8325
1971.096	8099
1973.185	8321
1975.275	8130
1977.363	8215
1979.45	8174
1981.537	8162
1983.623	8178
1985.711	8166
1987.796	8177
1989.881	8120
1991.965	8287
1994.047	8166
1996.132	8189
1998.215	8279
2000.297	8199
2002.378	8197
2004.46	8184
2006.54	8147
2008.62	8135
2010.7	8216
2012.779	8114
2014.858	8177
2016.934	8232
2019.013	8167
2021.09	8288
2023.165	8199
2025.241	8169
2027.317	8052
2029.39	8137
2031.466	8172
2033.538	8235
2035.612	8039
2037.683	8205
2039.755	8176
2041.827	8137
2043.898	7983
2045.968	8140
2048.038	8216
2050.106	8221
2052.177	8265
2054.244	8190
2056.313	8285
2058.379	8168
2060.444	8259
2062.511	8174
2064.577	8239
2066.641	8275
2068.705	8214
2070.77	8182
2072.832	8138
2074.896	8125
2076.958	8174
2079.02	8079
2081.081	8128
2083.141	8159
2085.2	8136
2087.261	8183
2089.319	8238
2091.377	8275
2093.435	8179
2095.492	8212
2097.552	8241
2099.607	8360
2101.663	8178
2103.718	8188
2105.771	8198
2107.826	8280
2109.879	8103
2111.932	8203
2113.985	8283
2116.037	8244
2118.088	8091
2120.141	8207
2122.191	8271
2124.239	8258
2126.288	8244
2128.337	8185
2130.387	8174
2132.434	8249
2134.481	8172
2136.528	8114
2138.574	8215
2140.618	8163
2142.665	8090
2144.71	8174
2146.753	8229
2148.797	8167
2150.838	8174
2152.883	8088
2154.923	8072
2156.965	8175
2159.007	8285
2161.046	8045
2163.086	8197
2165.126	8215
2167.163	8025
2169.202	8070
2171.239	8107
2173.277	8088
2175.314	8142
2177.349	8085
2179.385	8199
2181.42	8186
2183.453	8019
2185.49	8041
2187.522	7943
2189.555	8126
2191.586	8068
2193.619	8069
2195.651	8131
2197.682	8257
2199.711	8086
2201.74	8008
2203.769	8046
2205.799	8021
2207.828	7955
2209.855	8053
2211.882	8029
2213.908	8107
2215.934	8015
2217.961	8010
2219.986	8050
2222.01	8041
2224.034	8073
2226.057	7959
2228.08	7971
2230.104	7951
2232.124	8001
2234.145	7986
2236.166	7977
2238.186	7965
2240.207	8105
2242.227	7914
2244.244	8077
2246.262	8057
2248.28	7940
2250.299	7978
2252.314	8029
2254.33	7962
2256.346	8026
2258.36	8060
2260.375	8076
2262.391	8085
2264.403	7962
2266.416	8080
2268.427	7908
2270.44	8001
2272.453	8019
2274.463	8072
2276.474	8114
2278.483	7849
2280.493	7998
2282.501	8023
2284.51	7962
2286.518	7983
2288.524	8025
2290.532	7870
2292.537	8058
2294.544	7946
2296.55	7981
2298.554	8015
2300.557	8056
2302.562	8077
2304.566	7966
2306.568	7954
2308.569	7977
2310.572	7960
2312.573	7966
2314.573	8000
2316.574	7891
2318.573	7907
2320.571	7934
2322.571	8046
2324.569	7906
2326.567	7928
2328.564	7863
2330.56	7775
2332.556	7951
2334.551	7947
2336.546	7920
2338.542	7903
2340.535	7819
2342.529	7953
2344.521	7880
2346.512	7830
2348.505	7819
2350.497	7842
2352.487	7804
2354.478	7987
2356.468	7866
2358.457	7948
2360.446	7911
2362.434	7770
2364.422	7908
2366.408	7756
2368.395	7899
2370.383	7913
2372.369	7841
2374.353	7941
2376.338	7760
2378.321	7867
2380.307	7745
2382.29	7831
2384.272	7899
2386.254	7744
2388.235	7841
2390.218	7550
2392.198	7674
2394.179	7797
2396.157	7788
2398.137	7744
2400.115	7719
2402.095	7756
2404.072	7721
2406.048	7807
2408.026	7734
2410.001	7791
2411.977	7811
2413.953	7739
2415.927	7621
2417.9	7756
2419.875	7737
2421.847	7833
2423.821	7789
2425.792	7816
2427.763	7737
2429.736	7748
2431.706	7823
2433.677	7763
2435.646	7820
2437.615	7674
2439.583	7620
2441.551	7746
2443.519	7806
2445.486	7810
2447.452	7724
2449.418	7648
2451.383	7752
2453.348	7726
2455.314	7740
2457.278	7739
2459.241	7798
2461.205	7769
2463.167	7660
2465.131	7743
2467.091	7572
2469.052	7693
2471.012	7629
2472.972	7611
2474.932	7695
2476.891	7639
2478.85	7634
2480.808	7686
2482.766	7711
2484.722	7688
2486.68	7661
2488.636	7640
2490.591	7641
2492.546	7678
2494.5	7638
2496.456	7696
2498.41	7680
2500.362	7527
2502.315	7657
2504.266	7727
2506.218	7718
2508.169	7549
2510.121	7625
2512.07	7597
2514.019	7680
2515.968	7526
2517.918	7543
2519.866	7691
2521.813	7682
2523.76	7690
2525.707	7603
2527.653	7538
2529.599	7583
2531.543	7687
2533.489	7533
2535.433	7468
2537.376	7626
2539.32	7655
2541.264	7564
2543.205	7525
2545.147	7647
2547.087	7581
2549.029	7567
2550.969	7622
2552.908	7495
2554.847	7595
2556.786	7480
2558.724	7655
2560.663	7542
2562.6	7578
2564.537	7714
2566.473	7606
2568.408	7663
2570.345	7580
2572.28	7611
2574.214	7568
2576.148	7706
2578.081	7507
2580.014	7582
2581.947	7654
2583.879	7580
2585.81	7480
2587.741	7556
2589.67	7713
2591.602	7659
2593.532	7759
2595.461	7638
2597.388	7745
2599.316	7711
2601.244	7475
2603.172	7610
2605.098	7663
2607.023	7403
2608.949	7688
2610.873	7525
2612.8	7658
2614.723	7609
2616.647	7642
2618.569	7683
2620.493	7688
2622.416	7617
2624.338	7660
2626.258	7588
2628.179	7691
2630.099	7716
2632.019	7619
2633.939	7656
2635.857	7552
2637.775	7703
2639.694	7572
2641.61	7574
2643.528	7562
2645.444	7547
2647.361	7703
2649.276	7619
2651.19	7657
2653.105	7664
2655.019	7489
2656.934	7717
2658.846	7588
2660.758	7634
2662.67	7507
2664.583	7694
2666.493	7660
2668.404	7598
2670.313	7489
2672.223	7568
2674.134	7604
2676.042	7447
2677.95	7560
2679.858	7517
2681.765	7510
2683.673	7547
2685.579	7560
2687.483	7544
2689.389	7559
2691.294	7398
2693.198	7589
2695.104	7555
2697.006	7607
2698.909	7600
2700.811	7577
2702.713	7563
2704.615	7527
2706.516	7456
2708.417	7530
2710.316	7416
2712.216	7547
2714.115	7554
2716.014	7497
2717.913	7499
2719.81	7571
2721.707	7574
2723.603	7560
2725.501	7432
2727.396	7480
2729.292	7487
2731.186	7423
2733.081	7654
2734.976	7552
2736.87	7430
2738.762	7454
2740.653	7517
2742.546	7549
2744.437	7450
2746.329	7362
2748.22	7551
2750.11	7442
2751.999	7498
2753.889	7464
2755.778	7431
2757.666	7513
2759.553	7331
2761.44	7479
2763.328	7509
2765.215	7447
2767.101	7447
2768.986	7353
2770.87	7506
2772.754	7385
2774.638	7413
2776.523	7348
2778.405	7443
2780.288	7533
2782.17	7309
2784.051	7379
2785.934	7472
2787.814	7584
2789.694	7344
2791.574	7379
2793.453	7410
2795.332	7453
2797.212	7388
2799.088	7562
2800.966	7474
2802.843	7522
2804.719	7321
2806.597	7449
2808.471	7348
2810.346	7401
2812.221	7389
2814.094	7388
2815.969	7310
2817.843	7441
2819.714	7466
2821.587	7393
2823.459	7189
2825.329	7359
2827.202	7380
2829.072	7363
2830.942	7359
2832.811	7400
2834.68	7348
2836.549	7359
2838.418	7359
2840.284	7377
2842.152	7404
2844.018	7328
2845.885	7382
2847.751	7477
2849.616	7409
2851.482	7429
2853.345	7366
2855.208	7547
2857.074	7409
2858.937	7398
2860.799	7446
2862.66	7545
2864.522	7444
2866.385	7492
2868.245	7635
2870.104	7644
2871.964	7605
2873.824	7612
2875.683	7657
2877.542	7729
2879.4	7855
2881.257	7867
2883.114	7950
2884.97	7832
2886.827	7771
2888.683	7853
2890.537	7823
2892.392	7772
2894.246	7745
2896.1	7781
2897.954	7835
2899.807	7753
2901.66	7746
2903.51	7759
2905.362	7782
2907.214	7903
2909.065	7890
2910.915	7786
2912.765	7938
2914.613	7924
2916.463	8028
2918.311	7913
2920.158	7827
2922.006	8087
2923.853	8105
2925.698	8184
2927.546	8237
2929.392	8218
2931.236	8278
2933.081	8252
2934.924	8422
2936.77	8420
2938.613	8446
2940.455	8474
2942.298	8467
2944.139	8627
2945.982	8593
2947.823	8411
2949.662	8508
2951.503	8420
2953.342	8443
2955.182	8306
2957.021	8284
2958.858	8347
2960.697	8164
2962.534	8206
2964.37	8169
2966.207	7930
2968.044	8092
2969.879	7892
2971.714	7844
2973.548	7892
2975.383	7936
2977.218	7824
2979.051	7764
2980.883	7786
2982.715	7742
2984.547	7895
2986.379	7750
2988.21	7768
2990.04	7706
2991.87	7594
2993.7	7531
2995.53	7558
2997.359	7684
2999.187	7629
3001.015	7567
3002.842	7441
3004.669	7345
3006.497	7349
3008.323	7239
3010.148	7324
3011.974	7248
3013.797	7299
3015.623	7204
3017.447	7152
3019.27	7153
3021.094	7167
3022.915	7127
3024.737	7076
3026.56	7142
3028.38	7165
3030.201	7129
3032.022	6995
3033.84	7147
3035.662	7035
3037.481	7088
3039.298	6990
3041.117	7110
3042.933	7012
3044.752	6906
3046.568	6886
3048.385	7007
3050.2	7060
3052.016	7071
3053.83	7016
3055.646	7052
3057.46	7046
3059.272	6961
3061.086	6966
3062.898	7056
3064.711	6959
3066.524	6933
3068.335	6992
3070.145	7108
3071.956	6849
3073.766	6967
3075.576	7022
3077.385	7011
3079.193	6910
3081.002	6960
3082.81	6886
3084.618	6870
3086.425	6952
3088.231	6855
3090.036	6796
3091.842	6895
3093.648	6887
3095.452	6846
3097.257	6971
3099.06	6884
3100.863	6850
3102.666	6692
3104.47	6770
3106.272	6758
3108.073	6789
3109.875	6824
3111.676	6813
3113.477	6741
3115.277	6794
3117.077	6705
3118.874	6752
3120.673	6680
3122.473	6782
3124.271	6864
3126.066	6664
3127.863	6814
3129.66	6749
3131.456	6603
3133.252	6650
3135.047	6753
3136.842	6733
3138.635	6574
3140.429	6740
3142.223	6623
3144.016	6646
3145.808	6723
3147.6	6466
3149.392	6708
3151.183	6663
3152.975	6625
3154.765	6580
3156.553	6606
3158.344	6647
3160.132	6650
3161.922	6727
3163.71	6507
3165.497	6614
3167.285	6690
3169.071	6618
3170.858	6710
3172.645	6691
3174.429	6652
3176.214	6540
3177.998	6555
3179.783	6686
3181.568	6609
3183.351	6595
3185.133	6518
3186.915	6520
3188.698	6624
3190.481	6607
3192.261	6463
3194.042	6547
3195.822	6540
3197.601	6375
3199.381	6605
3201.161	6494
3202.939	6537
3204.717	6510
3206.495	6598
3208.272	6607
3210.05	6523
3211.826	6634
3213.602	6437
3215.376	6503
3217.151	6548
3218.927	6618
3220.702	6451
3222.476	6436
3224.249	6564
3226.021	6488
3227.793	6451
3229.567	6497
3231.339	6513
3233.109	6563
3234.88	6555
3236.651	6454
3238.421	6523
3240.191	6585
3241.96	6630
3243.728	6492
3245.497	6525
3247.263	6538
3249.033	6539
3250.799	6489
3252.566	6430
3254.331	6484
3256.097	6459
3257.863	6535
3259.628	6533
3261.392	6498
3263.156	6452
3264.919	6486
3266.683	6551
3268.447	6485
3270.208	6612
3271.969	6404
3273.731	6523
3275.492	6407
3277.253	6425
3279.013	6424
3280.773	6504
3282.532	6573
3284.291	6590
3286.05	6477
3287.808	6382
3289.566	6556
3291.323	6446
3293.079	6441
3294.835	6475
3296.593	6528
3298.348	6527
3300.102	6507
3301.857	6409
3303.611	6431
3305.366	6375
3307.119	6357
3308.872	6584
3310.624	6440
3312.376	6431
3314.129	6460
3315.881	6483
3317.631	6420
3319.38	6502
3321.13	6544
3322.88	6520
3324.631	6514
3326.379	6467
3328.126	6441
3329.875	6397
3331.622	6431
3333.371	6421
3335.116	6411
3336.863	6505
3338.609	6386
3340.353	6389
3342.1	6461
3343.845	6385
3345.588	6356
3347.332	6397
3349.074	6421
3350.817	6380
3352.56	6388
3354.303	6359
3356.043	6430
3357.785	6224
3359.525	6362
3361.268	6427
3363.007	6339
3364.745	6338
3366.485	6194
3368.223	6332
3369.962	6255
3371.701	6372
3373.438	6263
3375.174	6391
3376.911	6132
3378.647	6282
3380.384	6389
3382.118	6267
3383.854	6330
3385.588	6218
3387.322	6308
3389.057	6251
3390.79	6118
3392.522	6261
3394.255	6389
3395.987	6312
3397.719	6216
3399.451	6262
3401.181	6267
3402.911	6280
3404.641	6215
3406.371	6138
3408.101	6313
3409.83	6341
3411.558	6186
3413.285	6259
3415.011	6197
3416.739	6196
3418.467	6165
3420.193	6099
3421.919	6151
3423.644	6159
3425.368	6173
3427.094	6316
3428.818	6170
3430.542	6153
3432.264	6102
3433.987	6227
3435.712	6122
3437.434	6158
3439.155	6085
3440.876	6243
3442.596	6160
3444.317	6061
3446.039	6026
3447.757	5948
3449.477	6134
3451.195	6109
3452.914	6086
3454.632	6111
3456.35	6131
3458.067	6046
3459.784	6056
3461.5	6026
3463.216	6050
3464.932	5949
3466.647	6012
3468.362	6051
3470.076	5869
3471.789	5879
3473.505	5962
3475.217	5982
3476.929	5956
3478.641	5954
3480.354	5923
3482.066	6029
3483.777	6006
3485.487	5952
3487.197	5908
3488.908	5912
3490.617	5966
3492.327	5854
3494.035	5897
3495.743	5881
3497.451	5817
3499.158	5852
3500.866	5865
3502.572	5873
3504.278	5703
3505.984	5741
3507.689	5747
3509.396	5938
3511.1	5763
3512.804	5910
3514.508	5836
3516.211	5737
3517.913	5794
3519.616	5761
3521.319	5860
3523.021	5943
3524.722	5723
3526.422	5762
3528.124	5722
3529.824	5873
3531.524	5867
3533.222	5741
3534.921	5684
3536.62	5840
3538.318	5796
3540.016	5854
3541.714	5741
3543.41	5673
3545.107	5718
3546.803	5699
3548.5	5732
3550.194	5760
3551.889	5661
3553.583	5740
3555.279	5749
3556.972	5660
3558.666	5758
3560.358	5674
3562.051	5690
3563.742	5624
3565.435	5665
3567.126	5649
3568.817	5712
3570.507	5550
3572.197	5624
3573.888	5685
3575.577	5642
3577.265	5674
3578.954	5636
3580.642	5566
3582.329	5695
3584.017	5681
3585.704	5622
3587.391	5609
3589.077	5478
3590.762	5504
3592.449	5636
3594.133	5529
3595.817	5485
3597.501	5621
3599.185	5527
3600.869	5602
3602.552	5614
3604.234	5565
3605.916	5538
3607.598	5519
3609.279	5482
3610.961	5521
3612.642	5491
3614.321	5493
3616	5584
3617.68	5322
3619.36	5472
3621.039	5393
3622.716	5415
3624.394	5411
3626.071	5450
3627.748	5397
3629.425	5531
3631.102	5496
3632.778	5336
3634.452	5530
3636.127	5318
3637.803	5341
3639.477	5330
3641.151	5332
3642.823	5365
3644.497	5474
3646.171	5246
3647.842	5425
3649.515	5363
3651.185	5351
3652.857	5347
3654.527	5277
3656.198	5417
3657.868	5364
3659.537	5322
3661.207	5367
3662.875	5283
3664.544	5328
3666.212	5321
3667.879	5222
3669.546	5294
3671.212	5261
3672.88	5301
3674.546	5157
3676.211	5225
3677.875	5259
3679.541	5343
3681.205	5296
3682.87	5153
3684.533	5304
3686.196	5260
3687.859	5212
3689.521	5230
3691.184	5300
3692.845	5258
3694.507	5264
3696.167	5242
3697.827	5282
3699.487	5331
3701.148	5247
3702.808	5177
3704.466	5277
3706.125	5285
3707.783	5240
3709.442	5260
3711.099	5237
3712.757	5261
3714.412	5205
3716.068	5179
3717.725	5218
3719.381	5220
3721.036	5128
3722.689	5208
3724.344	5224
3725.998	5254
3727.652	5209
3729.305	5216
3730.958	5172
3732.61	5083
3734.262	5180
3735.915	5205
3737.565	5112
3739.217	5198
3740.866	5047
3742.516	5140
3744.165	5044
3745.816	5182
3747.464	5126
3749.113	5011
3750.761	5054
3752.409	5119
3754.057	5056
3755.703	5201
3757.35	5134
3758.996	5109
3760.641	5023
3762.289	5073
3763.933	5008
3765.577	5055
3767.222	5018
3768.865	5011
3770.508	5001
3772.152	5175
3773.796	5005
3775.438	5058
3777.079	5059
3778.721	5044
3780.363	5021
3782.003	5020
3783.643	5085
3785.283	5108
3786.923	5023
3788.563	4970
3790.203	4987
3791.841	4947
3793.479	5028
3795.115	5058
3796.753	5052
3798.391	4938
3800.027	4956
3801.664	4969
3803.299	4937
3804.935	5024
3806.571	4915
3808.206	4970
3809.839	4889
3811.473	4946
3813.107	4864
3814.74	4846
3816.375	4927
3818.006	4944
3819.638	4880
3821.27	4935
3822.9	4960
3824.532	4948
3826.163	4824
3827.792	4890
3829.423	4959
3831.051	4837
3832.682	4913
3834.311	4874
3835.938	4862
3837.566	4854
3839.193	4809
3840.821	4823
3842.448	4834
3844.075	4740
3845.7	4832
3847.325	4841
3848.951	4764
3850.576	4818
3852.201	4852
3853.825	4861
3855.448	4827
3857.072	4881
3858.694	4878
3860.318	4763
3861.939	4787
3863.562	4731
3865.183	4767
3866.804	4778
3868.426	4716
3870.045	4776
3871.666	4799
3873.285	4894
3874.904	4799
3876.524	4704
3878.142	4735
3879.76	4693
3881.378	4681
3882.995	4737
3884.612	4763
3886.229	4811
3887.845	4718
3889.461	4737
3891.076	4826
3892.691	4731
3894.307	4678
3895.922	4807
3897.536	4741
3899.149	4774
3900.761	4769
3902.374	4716
3903.988	4742
3905.6	4759
3907.212	4837
3908.822	4687
3910.433	4755
3912.045	4666
3913.655	4684
3915.265	4653
3916.875	4695
3918.483	4680
3920.093	4681
3921.702	4611
3923.309	4661
3924.917	4619
3926.523	4642
3928.13	4760
3929.739	4678
3931.344	4702
3932.95	4678
3934.555	4622
3936.159	4622
3937.766	4559
3939.369	4682
3940.974	4645
3942.577	4575
3944.181	4721
3945.783	4591
3947.386	4564
3948.989	4561
3950.59	4614
3952.191	4624
3953.791	4632
3955.394	4673
3956.994	4567
3958.593	4535
3960.192	4516
3961.791	4647
3963.392	4585
3964.99	4539
3966.588	4631
3968.185	4658
3969.782	4573
3971.379	4477
3972.976	4523
3974.572	4504
3976.168	4505
3977.763	4512
3979.358	4441
3980.954	4536
3982.548	4585
3984.142	4505
3985.736	4509
3987.329	4530
3988.922	4546
3990.516	4427
3992.108	4471
3993.698	4504
3995.29	4507
3996.881	4434
3998.473	4511
4000.064	4442
4001.653	4430
4003.242	4503
4004.832	4405
4006.422	4438
4008.01	4392
4009.598	4394
4011.186	4382
4012.773	4380
4014.36	4397
4015.947	4303
4017.534	4351
4019.119	4391
4020.705	4339
4022.291	4375
4023.876	4324
4025.461	4389
4027.044	4387
4028.627	4335
4030.211	4330
4031.795	4360
4033.378	4362
4034.96	4418
4036.542	4362
4038.124	4342
4039.704	4237
4041.286	4382
4042.867	4414
4044.447	4302
4046.026	4277
4047.606	4376
4049.187	4380
4050.765	4338
4052.343	4351
4053.92	4318
4055.498	4277
4057.076	4291
4058.654	4261
4060.23	4206
4061.806	4257
4063.381	4201
4064.957	4360
4066.533	4358
4068.107	4298
4069.682	4254
4071.256	4381
4072.829	4293
4074.404	4284
4075.977	4240
4077.549	4251
4079.121	4210
4080.693	4298
4082.265	4202
4083.836	4256
4085.407	4279
4086.977	4259
4088.547	4282
4090.117	4160
4091.687	4269
4093.256	4218
4094.825	4167
4096.392	4221
4097.96	4163
4099.528	4192
4101.097	4144
4102.663	4205
4104.229	4241
4105.795	4141
4107.361	4142
4108.928	4098
4110.493	4215
4112.058	4188
4113.621	4111
4115.186	4166
4116.75	4182
4118.313	4077
4119.876	4105
4121.438	4054
4123	4045
4124.562	4167
4126.125	4115
4127.686	4145
4129.246	4142
4130.807	4100
4132.367	4091
4133.927	4075
4135.486	4107
4137.046	4084
4138.604	4106
4140.162	4007
4141.72	4017
4143.279	4045
4144.836	4035
4146.393	4023
4147.949	4016
4149.505	3964
4151.062	4022
4152.617	4075
4154.172	3993
4155.727	3988
4157.281	4024
4158.836	4085
4160.39	4109
4161.943	4058
4163.496	4026
4165.048	3994
4166.601	3952
4168.154	4016
4169.706	3992
4171.257	3952
4172.808	3920
4174.358	3985
4175.909	3967
4177.458	4013
4179.008	3845
4180.558	3935
4182.106	3951
4183.655	3902
4185.204	3973
4186.751	3923
4188.298	3928
4189.845	3862
4191.392	3927
4192.939	3915
4194.485	3944
4196.031	3928
4197.576	3952
4199.121	3917
4200.666	3868
4202.211	3906
4203.754	3950
4205.298	3783
4206.84	3836
4208.384	3888
4209.927	3922
4211.47	3868
4213.011	3873
4214.552	3930
4216.094	3860
4217.635	3855
4219.175	3875
4220.716	3866
4222.255	3844
4223.793	3872
4225.335	3821
4226.873	3776
4228.411	3902
4229.948	3875
4231.486	3780
4233.024	3821
4234.562	3877
4236.098	3763
4237.634	3829
4239.169	3820
4240.705	3816
4242.241	3790
4243.776	3882
4245.31	3832
4246.844	3868
4248.378	3693
4249.911	3809
4251.445	3837
4252.978	3819
4254.51	3705
4256.042	3791
4257.574	3709
4259.107	3773
4260.638	3859
4262.169	3830
4263.699	3717
4265.228	3716
4266.759	3769
4268.289	3646
4269.818	3704
4271.345	3728
4272.874	3781
4274.402	3706
4275.931	3690
4277.458	3786
4278.985	3750
4280.512	3721
4282.037	3685
4283.564	3764
4285.089	3789
4286.615	3648
4288.139	3734
4289.664	3712
4291.187	3802
4292.712	3657
4294.235	3609
4295.759	3739
4297.281	3758
4298.804	3643
4300.327	3673
4301.849	3639
4303.37	3728
4304.891	3660
4306.412	3630
4307.933	3670
4309.453	3672
4310.973	3681
4312.492	3630
