398.1873	2943
400.7097	2964
403.2336	2977
405.7547	2994
408.2751	2950
410.7948	3061
413.3138	3029
415.83	3038
418.3497	2990
420.8666	3105
423.3829	3050
425.8985	3090
428.4133	3169
430.9275	3152
433.441	3164
435.9538	3210
438.4639	3148
440.9753	3168
443.4881	3269
445.9982	3176
448.5055	3188
451.0142	3163
453.5201	3264
456.0274	3216
458.5361	3188
461.04	3143
463.5453	3158
466.0478	3112
468.5517	3191
471.0549	3195
473.5574	3209
476.0572	3154
478.5584	3224
481.0568	3178
483.5545	3237
486.0557	3143
488.5521	3188
491.0478	3283
493.5449	3253
496.0392	3341
498.5349	3258
501.0299	3280
503.5222	3281
506.0139	3257
508.5048	3257
510.9991	3294
513.4887	3283
515.9777	3294
518.4659	3282
520.9534	3224
523.4403	3237
525.9306	3311
528.4161	3254
530.9009	3312
533.3851	3337
535.8687	3331
538.3535	3267
540.8356	3330
543.3171	3343
545.7979	3284
548.278	3271
550.7595	3281
553.2383	3349
555.7144	3317
558.1918	3344
560.6685	3342
563.1446	3292
565.6221	3372
568.0968	3336
570.5688	3340
573.0422	3374
575.515	3370
577.989	3424
580.4584	3422
582.9291	3376
585.3991	3495
587.8685	3484
590.3352	3431
592.8052	3406
595.2706	3401
597.7372	3391
600.2033	3459
602.6666	3346
605.1334	3443
607.5953	3408
610.0587	3461
612.5193	3450
614.9814	3463
617.4427	3387
619.9034	3344
622.3615	3382
624.8208	3371
627.2775	3403
629.7335	3378
632.1929	3390
634.6476	3381
637.1016	3476
639.5569	3462
642.0096	3452
644.4637	3474
646.9151	3458
649.3678	3521
651.8179	3496
654.2672	3387
656.7159	3478
659.166	3578
661.6154	3506
664.0622	3524
666.5082	3510
668.9537	3497
671.4005	3489
673.8445	3484
676.288	3505
678.7308	3572
681.1729	3510
683.6163	3579
686.0572	3548
688.4973	3543
690.9368	3537
693.3757	3508
695.8138	3602
698.2534	3525
700.6902	3523
703.1245	3485
705.56	3566
707.9949	3614
710.4311	3480
712.8647	3530
715.2957	3543
717.7279	3586
720.1595	3639
722.5905	3632
725.0208	3683
727.4505	3629
729.8795	3595
732.3058	3629
734.7336	3623
737.1626	3689
739.587	3656
742.0128	3650
744.4359	3697
746.8604	3743
749.2841	3714
751.7073	3705
754.1278	3783
756.5496	3756
758.9688	3617
761.3893	3678
763.8093	3615
766.2285	3736
768.6451	3747
771.0611	3717
773.4784	3795
775.895	3835
778.3091	3787
780.7244	3757
783.1371	3755
785.5493	3742
787.9626	3720
790.3754	3776
792.7856	3713
795.1951	3726
797.6039	3690
800.0121	3788
802.4236	3712
804.8306	3791
807.2369	3811
809.6425	3756
812.0475	3816
814.4538	3756
816.8575	3739
819.2606	3853
821.663	3805
824.0648	3805
826.4659	3859
828.8683	3735
831.2682	3805
833.6674	3812
836.066	3822
838.4639	3896
840.8632	3809
843.2579	3925
845.6539	3788
848.0493	3823
850.444	3863
852.84	3909
855.2315	3869
857.6243	3929
860.0165	3862
862.4081	3928
864.797	3852
867.1892	3830
869.5789	3866
871.9659	3842
874.3542	3834
876.74	3771
879.129	3856
881.5155	3837
883.8994	3874
886.2845	3822
888.6671	3833
891.051	3878
893.4343	3899
895.8169	3845
898.197	3914
900.5783	3818
902.9571	3953
905.3372	3983
907.7167	3860
910.0936	3905
912.4698	3963
914.8474	3931
917.2244	3972
919.5987	3973
921.9744	3960
924.3475	4034
926.72	4068
929.0918	3948
931.4669	4091
933.8375	4068
936.2074	4031
938.5767	4056
940.9454	4126
943.3154	4116
945.6829	4211
948.0497	4182
950.4178	4318
952.7833	4420
955.1483	4524
957.5145	4614
959.8782	4605
962.2412	4555
964.6036	4496
966.9655	4515
969.3266	4273
971.6871	4193
974.0471	4178
976.4064	4063
978.765	4063
981.125	4026
983.4824	3960
985.8373	4053
988.1935	4034
990.549	4028
992.9039	3978
995.2602	4040
997.6119	3965
999.965	3993
1002.317	4107
1004.667	3963
1007.02	3984
1009.371	4030
1011.719	4004
1014.068	4001
1016.415	4013
1018.765	4024
1021.111	4043
1023.458	4066
1025.804	3982
1028.147	4067
1030.49	4055
1032.837	4017
1035.179	4054
1037.522	4135
1039.862	4087
1042.204	4128
1044.546	4060
1046.884	4091
1049.224	4045
1051.562	4080
1053.899	4110
1056.237	4089
1058.575	4142
1060.91	4036
1063.244	4065
1065.58	4020
1067.913	4068
1070.248	4177
1072.579	4209
1074.911	4182
1077.242	4236
1079.572	4134
1081.905	4054
1084.234	4078
1086.562	4085
1088.89	4068
1091.217	4069
1093.544	4186
1095.871	4088
1098.197	4074
1100.521	4092
1102.845	4013
1105.169	4123
1107.491	4138
1109.814	4118
1112.135	4139
1114.456	4118
1116.776	4162
1119.096	4187
1121.415	4137
1123.734	4132
1126.052	4146
1128.369	4099
1130.686	4206
1133.002	4139
1135.318	4157
1137.632	4073
1139.945	4160
1142.258	4125
1144.573	4226
1146.884	4206
1149.196	4193
1151.505	4138
1153.816	4110
1156.124	4210
1158.435	4149
1160.742	4221
1163.051	4131
1165.356	4135
1167.663	4189
1169.97	4139
1172.276	4094
1174.579	4165
1176.881	4167
1179.186	4152
1181.487	4204
1183.79	4072
1186.092	4125
1188.392	4075
1190.691	4186
1192.991	4150
1195.291	4134
1197.588	4188
1199.885	4145
1202.181	4185
1204.479	4193
1206.775	4098
1209.07	4175
1211.363	4195
1213.656	4171
1215.949	4201
1218.241	4142
1220.534	4178
1222.825	4191
1225.115	4237
1227.405	4143
1229.693	4198
1231.984	4222
1234.271	4237
1236.558	4190
1238.845	4278
1241.131	4248
1243.416	4274
1245.703	4230
1247.987	4289
1250.269	4255
1252.552	4271
1254.834	4332
1257.118	4328
1259.399	4239
1261.678	4289
1263.958	4207
1266.237	4268
1268.516	4387
1270.794	4279
1273.072	4274
1275.347	4264
1277.624	4277
1279.899	4241
1282.175	4348
1284.449	4294
1286.722	4308
1288.995	4177
1291.266	4241
1293.54	4243
1295.81	4323
1298.081	4250
1300.35	4184
1302.62	4307
1304.889	4238
1307.156	4228
1309.425	4369
1311.69	4237
1313.957	4330
1316.222	4218
1318.488	4320
1320.751	4203
1323.016	4249
1325.278	4360
1327.54	4250
1329.803	4306
1332.065	4272
1334.325	4206
1336.584	4242
1338.843	4409
1341.101	4340
1343.36	4297
1345.617	4297
1347.876	4290
1350.131	4270
1352.387	4456
1354.643	4274
1356.897	4342
1359.151	4248
1361.403	4253
1363.656	4241
1365.909	4334
1368.16	4311
1370.409	4318
1372.659	4241
1374.909	4346
1377.157	4308
1379.407	4374
1381.655	4332
1383.9	4381
1386.147	4374
1388.393	4335
1390.64	4244
1392.885	4296
1395.127	4274
1397.37	4392
1399.614	4320
1401.854	4300
1404.098	4297
1406.339	4286
1408.578	4274
1410.818	4324
1413.056	4347
1415.297	4365
1417.533	4401
1419.771	4381
1422.006	4336
1424.243	4490
1426.479	4423
1428.715	4394
1430.948	4384
1433.182	4415
1435.414	4326
1437.647	4456
1439.88	4535
1442.11	4439
1444.342	4425
1446.571	4491
1448.799	4424
1451.029	4520
1453.258	4480
1455.485	4513
1457.711	4544
1459.937	4459
1462.164	4488
1464.39	4523
1466.614	4469
1468.838	4511
1471.06	4410
1473.283	4390
1475.506	4349
1477.727	4388
1479.949	4496
1482.169	4394
1484.389	4387
1486.609	4343
1488.828	4464
1491.045	4358
1493.261	4322
1495.477	4310
1497.693	4379
1499.91	4427
1502.125	4301
1504.339	4248
1506.553	4279
1508.766	4278
1510.979	4278
1513.191	4309
1515.402	4343
1517.613	4321
1519.823	4284
1522.033	4292
1524.242	4294
1526.451	4403
1528.657	4369
1530.865	4458
1533.072	4404
1535.278	4342
1537.484	4451
1539.687	4397
1541.892	4414
1544.096	4418
1546.299	4347
1548.502	4368
1550.703	4373
1552.905	4503
1555.104	4414
1557.303	4511
1559.505	4455
1561.703	4361
1563.902	4442
1566.099	4466
1568.295	4479
1570.494	4449
1572.689	4449
1574.883	4529
1577.079	4458
1579.272	4400
1581.467	4527
1583.659	4468
1585.853	4529
1588.044	4487
1590.234	4512
1592.424	4429
1594.615	4550
1596.806	4555
1598.994	4532
1601.182	4462
1603.369	4586
1605.557	4452
1607.744	4554
1609.929	4500
1612.114	4526
1614.298	4584
1616.482	4578
1618.667	4544
1620.85	4537
1623.032	4475
1625.214	4534
1627.395	4472
1629.575	4580
1631.755	4414
1633.935	4574
1636.114	4520
1638.292	4536
1640.471	4535
1642.647	4586
1644.823	4644
1647	4571
1649.175	4573
1651.348	4667
1653.525	4604
1655.698	4679
1657.87	4583
1660.043	4645
1662.213	4612
1664.387	4634
1666.558	4493
1668.727	4625
1670.896	4551
1673.064	4618
1675.233	4642
1677.401	4647
1679.569	4507
1681.735	4524
1683.902	4538
1686.066	4550
1688.233	4540
1690.397	4568
1692.559	4569
1694.723	4615
1696.885	4573
1699.048	4560
1701.21	4601
1703.37	4568
1705.53	4537
1707.689	4578
1709.849	4483
1712.009	4486
1714.166	4534
1716.323	4579
1718.479	4499
1720.634	4481
1722.793	4507
1724.948	4524
1727.102	4546
1729.255	4544
1731.408	4565
1733.562	4545
1735.714	4554
1737.865	4462
1740.016	4597
1742.166	4517
1744.316	4582
1746.467	4538
1748.616	4561
1750.764	4606
1752.911	4595
1755.056	4571
1757.205	4664
1759.35	4547
1761.496	4576
1763.641	4530
1765.785	4611
1767.927	4582
1770.072	4605
1772.214	4664
1774.355	4550
1776.496	4593
1778.637	4624
1780.778	4642
1782.918	4691
1785.057	4592
1787.194	4635
1789.333	4633
1791.472	4564
1793.608	4619
1795.745	4662
1797.879	4546
1800.015	4669
1802.148	4672
1804.284	4624
1806.417	4615
1808.548	4715
1810.682	4597
1812.812	4683
1814.946	4621
1817.075	4600
1819.205	4579
1821.335	4600
1823.463	4651
1825.59	4663
1827.721	4467
1829.847	4639
1831.973	4642
1834.098	4600
1836.223	4608
1838.351	4601
1840.475	4644
1842.598	4604
1844.721	4632
1846.843	4605
1848.966	4614
1851.087	4560
1853.21	4628
1855.33	4487
1857.449	4610
1859.568	4568
1861.688	4564
1863.806	4618
1865.924	4669
1868.039	4509
1870.155	4641
1872.273	4592
1874.388	4667
1876.503	4544
1878.617	4656
1880.73	4520
1882.844	4622
1884.956	4594
1887.068	4617
1889.18	4643
1891.291	4625
1893.4	4684
1895.511	4676
1897.621	4600
1899.73	4609
1901.837	4578
1903.944	4746
1906.053	4690
1908.159	4638
1910.265	4590
1912.369	4723
1914.474	4742
1916.577	4663
1918.683	4783
1920.785	4684
1922.888	4695
1924.989	4674
1927.091	4631
1929.193	4592
1931.294	4673
1933.393	4630
1935.493	4739
1937.59	4618
1939.689	4660
1941.788	4635
1943.884	4692
1945.98	4645
1948.077	4669
1950.171	4680
1952.267	4710
1954.361	4724
1956.455	4714
1958.548	4678
1960.64	4664
1962.733	4610
1964.824	4691
1966.915	4765
1969.005	4695
1971.096	4725
1973.185	4654
1975.275	4731
1977.363	4734
1979.45	4690
1981.537	4715
1983.623	4759
1985.711	4638
1987.796	4699
1989.881	4675
1991.965	4721
1994.047	4640
1996.132	4660
1998.215	4611
2000.297	4716
2002.378	4719
2004.46	4756
2006.54	4688
2008.62	4721
2010.7	4727
2012.779	4606
2014.858	4711
2016.934	4732
2019.013	4703
2021.09	4729
2023.165	4554
2025.241	4628
2027.317	4772
2029.39	4595
2031.466	4638
2033.538	4624
2035.612	4632
2037.683	4638
2039.755	4706
2041.827	4642
2043.898	4715
2045.968	4671
2048.038	4703
2050.106	4736
2052.177	4699
2054.244	4700
2056.313	4724
2058.379	4686
2060.444	4718
2062.511	4631
2064.577	4778
2066.641	4600
2068.705	4716
2070.77	4686
2072.832	4755
2074.896	4665
2076.958	4769
2079.02	4703
2081.081	4736
2083.141	4672
2085.2	4742
2087.261	4654
2089.319	4727
2091.377	4644
2093.435	4726
2095.492	4727
2097.552	4706
2099.607	4695
2101.663	4716
2103.718	4702
2105.771	4702
2107.826	4712
2109.879	4708
2111.932	4658
2113.985	4669
2116.037	4695
2118.088	4686
2120.141	4829
2122.191	4720
2124.239	4714
2126.288	4653
2128.337	4727
2130.387	4663
2132.434	4679
2134.481	4681
2136.528	4713
2138.574	4706
2140.618	4648
2142.665	4721
2144.71	4751
2146.753	4731
2148.797	4726
2150.838	4772
2152.883	4609
2154.923	4740
2156.965	4670
2159.007	4707
2161.046	4635
2163.086	4576
2165.126	4708
2167.163	4727
2169.202	4688
2171.239	4722
2173.277	4612
2175.314	4687
2177.349	4706
2179.385	4645
2181.42	4711
2183.453	4635
2185.49	4678
2187.522	4643
2189.555	4704
2191.586	4637
2193.619	4669
2195.651	4614
2197.682	4609
2199.711	4634
2201.74	4568
2203.769	4602
2205.799	4669
2207.828	4665
2209.855	4648
2211.882	4588
2213.908	4604
2215.934	4665
2217.961	4611
2219.986	4625
2222.01	4663
2224.034	4620
2226.057	4547
2228.08	4646
2230.104	4619
2232.124	4672
2234.145	4575
2236.166	4629
2238.186	4598
2240.207	4670
2242.227	4696
2244.244	4572
2246.262	4598
2248.28	4624
2250.299	4687
2252.314	4691
2254.33	4661
2256.346	4745
2258.36	4660
2260.375	4594
2262.391	4608
2264.403	4639
2266.416	4662
2268.427	4633
2270.44	4642
2272.453	4673
2274.463	4679
2276.474	4634
2278.483	4527
2280.493	4686
2282.501	4712
2284.51	4639
2286.518	4674
2288.524	4664
2290.532	4661
2292.537	4698
2294.544	4677
2296.55	4634
2298.554	4584
2300.557	4687
2302.562	4610
2304.566	4631
2306.568	4675
2308.569	4591
2310.572	4655
2312.573	4599
2314.573	4644
2316.574	4637
2318.573	4642
2320.571	4694
2322.571	4617
2324.569	4571
2326.567	4649
2328.564	4595
2330.56	4596
2332.556	4619
2334.551	4627
2336.546	4587
2338.542	4601
2340.535	4537
2342.529	4614
2344.521	4612
2346.512	4628
2348.505	4632
2350.497	4486
2352.487	4647
2354.478	4617
2356.468	4582
2358.457	4565
2360.446	4498
2362.434	4598
2364.422	4557
2366.408	4618
2368.395	4615
2370.383	4605
2372.369	4511
2374.353	4509
2376.338	4527
2378.321	4533
2380.307	4516
2382.29	4469
2384.272	4510
2386.254	4496
2388.235	4556
2390.218	4644
2392.198	4492
2394.179	4593
2396.157	4514
2398.137	4492
2400.115	4498
2402.095	4562
2404.072	4566
2406.048	4575
2408.026	4510
2410.001	4511
2411.977	4506
2413.953	4543
2415.927	4575
2417.9	4621
2419.875	4480
2421.847	4537
2423.821	4506
2425.792	4535
2427.763	4531
2429.736	4596
2431.706	4537
2433.677	4535
2435.646	4468
2437.615	4512
2439.583	4480
2441.551	4514
2443.519	4593
2445.486	4530
2447.452	4621
2449.418	4572
2451.383	4471
2453.348	4442
2455.314	4562
2457.278	4437
2459.241	4478
2461.205	4525
2463.167	4481
2465.131	4547
2467.091	4455
2469.052	4416
2471.012	4560
2472.972	4537
2474.932	4415
2476.891	4462
2478.85	4485
2480.808	4504
2482.766	4525
2484.722	4521
2486.68	4390
2488.636	4502
2490.591	4439
2492.546	4499
2494.5	4473
2496.456	4399
2498.41	4511
2500.362	4513
2502.315	4447
2504.266	4510
2506.218	4480
2508.169	4430
2510.121	4431
2512.07	4505
2514.019	4566
2515.968	4427
2517.918	4453
2519.866	4427
2521.813	4454
2523.76	4484
2525.707	4432
2527.653	4460
2529.599	4471
2531.543	4438
2533.489	4437
2535.433	4448
2537.376	4452
2539.32	4465
2541.264	4467
2543.205	4473
2545.147	4443
2547.087	4571
2549.029	4547
2550.969	4616
2552.908	4481
2554.847	4489
2556.786	4430
2558.724	4511
2560.663	4462
2562.6	4476
2564.537	4469
2566.473	4478
2568.408	4546
2570.345	4453
2572.28	4481
2574.214	4425
2576.148	4466
2578.081	4335
2580.014	4538
2581.947	4471
2583.879	4493
2585.81	4539
2587.741	4540
2589.67	4469
2591.602	4480
2593.532	4398
2595.461	4480
2597.388	4552
2599.316	4525
2601.244	4460
2603.172	4459
2605.098	4445
2607.023	4541
2608.949	4494
2610.873	4384
2612.8	4619
2614.723	4470
2616.647	4509
2618.569	4537
2620.493	4497
2622.416	4595
2624.338	4434
2626.258	4553
2628.179	4560
2630.099	4458
2632.019	4507
2633.939	4485
2635.857	4457
2637.775	4578
2639.694	4497
2641.61	4563
2643.528	4487
2645.444	4568
2647.361	4522
2649.276	4574
2651.19	4549
2653.105	4587
2655.019	4548
2656.934	4528
2658.846	4505
2660.758	4611
2662.67	4483
2664.583	4657
2666.493	4452
2668.404	4514
2670.313	4432
2672.223	4486
2674.134	4424
2676.042	4533
2677.95	4566
2679.858	4395
2681.765	4496
2683.673	4438
2685.579	4388
2687.483	4468
2689.389	4494
2691.294	4520
2693.198	4496
2695.104	4415
2697.006	4501
2698.909	4472
2700.811	4485
2702.713	4372
2704.615	4449
2706.516	4380
2708.417	4401
2710.316	4465
2712.216	4418
2714.115	4514
2716.014	4413
2717.913	4419
2719.81	4474
2721.707	4268
2723.603	4460
2725.501	4459
2727.396	4375
2729.292	4332
2731.186	4425
2733.081	4496
2734.976	4379
2736.87	4368
2738.762	4386
2740.653	4471
2742.546	4419
2744.437	4349
2746.329	4348
2748.22	4388
2750.11	4410
2751.999	4427
2753.889	4378
2755.778	4399
2757.666	4401
2759.553	4445
2761.44	4367
2763.328	4340
2765.215	4436
2767.101	4376
2768.986	4429
2770.87	4367
2772.754	4406
2774.638	4370
2776.523	4382
2778.405	4413
2780.288	4466
2782.17	4460
2784.051	4309
2785.934	4391
2787.814	4394
2789.694	4377
2791.574	4399
2793.453	4308
2795.332	4393
2797.212	4358
2799.088	4295
2800.966	4424
2802.843	4344
2804.719	4378
2806.597	4316
2808.471	4383
2810.346	4337
2812.221	4347
2814.094	4400
2815.969	4342
2817.843	4440
2819.714	4272
2821.587	4264
2823.459	4420
2825.329	4446
2827.202	4389
2829.072	4371
2830.942	4462
2832.811	4357
2834.68	4398
2836.549	4441
2838.418	4326
2840.284	4376
2842.152	4299
2844.018	4372
2845.885	4372
2847.751	4454
2849.616	4393
2851.482	4394
2853.345	4276
2855.208	4354
2857.074	4395
2858.937	4384
2860.799	4367
2862.66	4449
2864.522	4346
2866.385	4496
2868.245	4361
2870.104	4517
2871.964	4411
2873.824	4508
2875.683	4504
2877.542	4544
2879.4	4579
2881.257	4502
2883.114	4541
2884.97	4603
2886.827	4487
2888.683	4553
2890.537	4540
2892.392	4560
2894.246	4642
2896.1	4551
2897.954	4546
2899.807	4534
2901.66	4516
2903.51	4497
2905.362	4531
2907.214	4518
2909.065	4502
2910.915	4533
2912.765	4592
2914.613	4554
2916.463	4649
2918.311	4614
2920.158	4581
2922.006	4638
2923.853	4674
2925.698	4671
2927.546	4730
2929.392	4736
2931.236	4771
2933.081	4773
2934.924	4784
2936.77	4765
2938.613	4781
2940.455	4894
2942.298	4766
2944.139	4864
2945.982	4910
2947.823	4764
2949.662	4865
2951.503	4744
2953.342	4649
2955.182	4761
2957.021	4766
2958.858	4738
2960.697	4736
2962.534	4742
2964.37	4628
2966.207	4658
2968.044	4529
2969.879	4652
2971.714	4619
2973.548	4612
2975.383	4544
2977.218	4498
2979.051	4507
2980.883	4555
2982.715	4604
2984.547	4526
2986.379	4633
2988.21	4478
2990.04	4468
2991.87	4446
2993.7	4436
2995.53	4476
2997.359	4419
2999.187	4483
3001.015	4443
3002.842	4344
3004.669	4488
3006.497	4398
3008.323	4317
3010.148	4355
3011.974	4312
3013.797	4316
3015.623	4228
3017.447	4249
3019.27	4251
3021.094	4337
3022.915	4324
3024.737	4298
3026.56	4240
3028.38	4170
3030.201	4207
3032.022	4110
3033.84	4177
3035.662	4243
3037.481	4140
3039.298	4167
3041.117	4179
3042.933	4200
3044.752	4205
3046.568	4239
3048.385	4135
3050.2	4216
3052.016	4157
3053.83	4146
3055.646	4248
3057.46	4175
3059.272	4163
3061.086	4229
3062.898	4112
3064.711	4148
3066.524	4173
3068.335	4092
3070.145	4180
3071.956	4121
3073.766	4200
3075.576	4100
3077.385	4095
3079.193	4155
3081.002	4112
3082.81	4083
3084.618	4188
3086.425	4145
3088.231	4162
3090.036	4123
3091.842	4136
3093.648	4158
3095.452	4113
3097.257	4074
3099.06	4019
3100.863	4013
3102.666	4043
3104.47	4076
3106.272	3991
3108.073	4052
3109.875	4075
3111.676	4140
3113.477	4047
3115.277	4043
3117.077	4092
3118.874	4081
3120.673	4061
3122.473	4054
3124.271	4086
3126.066	3962
3127.863	4051
3129.66	4040
3131.456	4050
3133.252	3998
3135.047	4013
3136.842	3963
3138.635	3943
3140.429	4068
3142.223	3978
3144.016	3969
3145.808	4033
3147.6	3950
3149.392	3948
3151.183	3979
3152.975	3992
3154.765	3957
3156.553	3954
3158.344	3974
3160.132	3984
3161.922	4057
3163.71	3931
3165.497	3974
3167.285	4006
3169.071	3997
3170.858	3981
3172.645	3994
3174.429	3961
3176.214	3986
3177.998	3905
3179.783	3913
3181.568	3968
3183.351	3947
3185.133	3977
3186.915	3860
3188.698	3917
3190.481	3960
3192.261	3910
3194.042	4015
3195.822	3923
3197.601	3878
3199.381	3880
3201.161	3997
3202.939	3864
3204.717	3987
3206.495	3977
3208.272	3898
3210.05	3968
3211.826	3851
3213.602	3805
3215.376	3941
3217.151	3922
3218.927	3892
3220.702	3873
3222.476	3955
3224.249	3985
3226.021	3878
3227.793	4009
3229.567	3823
3231.339	3864
3233.109	3966
3234.88	3847
3236.651	3895
3238.421	3890
3240.191	3902
3241.96	3866
3243.728	3960
3245.497	3871
3247.263	3920
3249.033	3844
3250.799	3864
3252.566	3882
3254.331	3894
3256.097	3875
3257.863	3855
3259.628	3912
3261.392	3951
3263.156	3913
3264.919	3915
3266.683	3913
3268.447	3938
3270.208	3945
3271.969	3841
3273.731	3888
3275.492	3869
3277.253	3886
3279.013	3854
3280.773	3904
3282.532	3938
3284.291	3951
3286.05	3847
3287.808	3864
3289.566	3796
3291.323	3869
3293.079	3855
3294.835	3846
3296.593	3945
3298.348	3887
3300.102	3873
3301.857	3881
3303.611	3850
3305.366	3846
3307.119	3927
3308.872	3890
3310.624	3872
3312.376	3935
3314.129	3809
3315.881	3856
3317.631	3852
3319.38	3822
3321.13	3794
3322.88	3925
3324.631	3944
3326.379	3821
3328.126	3850
3329.875	3832
3331.622	3854
3333.371	3814
3335.116	3793
3336.863	3878
3338.609	3846
3340.353	3857
3342.1	3859
3343.845	3826
3345.588	3809
3347.332	3745
3349.074	3752
3350.817	3792
3352.56	3806
3354.303	3929
3356.043	3801
3357.785	3871
3359.525	3728
3361.268	3818
3363.007	3874
3364.745	3827
3366.485	3829
3368.223	3814
3369.962	3710
3371.701	3866
3373.438	3819
3375.174	3790
3376.911	3811
3378.647	3812
3380.384	3772
3382.118	3858
3383.854	3743
3385.588	3744
3387.322	3777
3389.057	3761
3390.79	3805
3392.522	3736
3394.255	3765
3395.987	3853
3397.719	3826
3399.451	3818
3401.181	3770
3402.911	3832
3404.641	3795
3406.371	3677
3408.101	3809
3409.83	3782
3411.558	3809
3413.285	3830
3415.011	3760
3416.739	3743
3418.467	3821
3420.193	3707
3421.919	3787
3423.644	3707
3425.368	3769
3427.094	3759
3428.818	3686
3430.542	3715
3432.264	3729
3433.987	3697
3435.712	3769
3437.434	3729
3439.155	3774
3440.876	3628
3442.596	3655
3444.317	3724
3446.039	3643
3447.757	3649
3449.477	3650
3451.195	3666
3452.914	3702
3454.632	3637
3456.35	3730
3458.067	3640
3459.784	3631
3461.5	3687
3463.216	3564
3464.932	3695
3466.647	3608
3468.362	3740
3470.076	3587
3471.789	3621
3473.505	3637
3475.217	3563
3476.929	3653
3478.641	3626
3480.354	3615
3482.066	3667
3483.777	3671
3485.487	3578
3487.197	3627
3488.908	3574
3490.617	3610
3492.327	3581
3494.035	3681
3495.743	3591
3497.451	3564
3499.158	3602
3500.866	3571
3502.572	3663
3504.278	3583
3505.984	3600
3507.689	3519
3509.396	3597
3511.1	3545
3512.804	3595
3514.508	3606
3516.211	3641
3517.913	3603
3519.616	3512
3521.319	3612
3523.021	3582
3524.722	3598
3526.422	3572
3528.124	3558
3529.824	3528
3531.524	3518
3533.222	3536
3534.921	3525
3536.62	3520
3538.318	3500
3540.016	3563
3541.714	3541
3543.41	3532
3545.107	3530
3546.803	3515
3548.5	3417
3550.194	3515
3551.889	3519
3553.583	3458
3555.279	3549
3556.972	3518
3558.666	3456
3560.358	3522
3562.051	3494
3563.742	3409
3565.435	3569
3567.126	3451
3568.817	3474
3570.507	3521
3572.197	3480
3573.888	3371
3575.577	3532
3577.265	3437
3578.954	3483
3580.642	3483
3582.329	3510
3584.017	3447
3585.704	3490
3587.391	3431
3589.077	3497
3590.762	3398
3592.449	3482
3594.133	3475
3595.817	3464
3597.501	3451
3599.185	3369
3600.869	3411
3602.552	3351
3604.234	3365
3605.916	3359
3607.598	3472
3609.279	3378
3610.961	3407
3612.642	3367
3614.321	3384
3616	3423
3617.68	3409
3619.36	3342
3621.039	3374
3622.716	3363
3624.394	3391
3626.071	3410
3627.748	3342
3629.425	3389
3631.102	3369
3632.778	3278
3634.452	3449
3636.127	3372
3637.803	3276
3639.477	3309
3641.151	3363
3642.823	3269
3644.497	3358
3646.171	3391
3647.842	3266
3649.515	3332
3651.185	3303
3652.857	3291
3654.527	3303
3656.198	3347
3657.868	3367
3659.537	3288
3661.207	3258
3662.875	3305
3664.544	3301
3666.212	3288
3667.879	3237
3669.546	3273
3671.212	3334
3672.88	3277
3674.546	3251
3676.211	3272
3677.875	3330
3679.541	3286
3681.205	3211
3682.87	3321
3684.533	3251
3686.196	3290
3687.859	3198
3689.521	3299
3691.184	3227
3692.845	3282
3694.507	3300
3696.167	3253
3697.827	3199
3699.487	3302
3701.148	3252
3702.808	3288
3704.466	3282
3706.125	3251
3707.783	3252
3709.442	3261
3711.099	3207
3712.757	3233
3714.412	3262
3716.068	3231
3717.725	3249
3719.381	3316
3721.036	3295
3722.689	3160
3724.344	3209
3725.998	3231
3727.652	3205
3729.305	3263
3730.958	3227
3732.61	3126
3734.262	3183
3735.915	3252
3737.565	3237
3739.217	3203
3740.866	3171
3742.516	3222
3744.165	3206
3745.816	3263
3747.464	3168
3749.113	3187
3750.761	3204
3752.409	3170
3754.057	3191
3755.703	3196
3757.35	3214
3758.996	3137
3760.641	3170
3762.289	3150
3763.933	3140
3765.577	3107
3767.222	3179
3768.865	3251
3770.508	3151
3772.152	3131
3773.796	3188
3775.438	3239
3777.079	3229
3778.721	3134
3780.363	3175
3782.003	3116
3783.643	3159
3785.283	3198
3786.923	3173
3788.563	3141
3790.203	3072
3791.841	3205
3793.479	3099
3795.115	3176
3796.753	3132
3798.391	3083
3800.027	3066
3801.664	3097
3803.299	3059
3804.935	3169
3806.571	3061
3808.206	3067
3809.839	3118
3811.473	3134
3813.107	3129
3814.74	3213
3816.375	3098
3818.006	3066
3819.638	3134
3821.27	3122
3822.9	3137
3824.532	3105
3826.163	3086
3827.792	3075
3829.423	3107
3831.051	3063
3832.682	3005
3834.311	3091
3835.938	3086
3837.566	3009
3839.193	3103
3840.821	3085
3842.448	3001
3844.075	3089
3845.7	3060
3847.325	3046
3848.951	3063
3850.576	3051
3852.201	2998
3853.825	3088
3855.448	2991
3857.072	3037
3858.694	3117
3860.318	3060
3861.939	3043
3863.562	2983
3865.183	3058
3866.804	2941
3868.426	3024
3870.045	3027
3871.666	2959
3873.285	3032
3874.904	3002
3876.524	3012
3878.142	3054
3879.76	2963
3881.378	3049
3882.995	3038
3884.612	3012
3886.229	3028
3887.845	2956
3889.461	2982
3891.076	2991
3892.691	2946
3894.307	2968
3895.922	2956
3897.536	2980
3899.149	2982
3900.761	2915
3902.374	2926
3903.988	3000
3905.6	3009
3907.212	3044
3908.822	2958
3910.433	2996
3912.045	3034
3913.655	3026
3915.265	2938
3916.875	2915
3918.483	2964
3920.093	2924
3921.702	2962
3923.309	2974
3924.917	2929
3926.523	2985
3928.13	2903
3929.739	2980
3931.344	2987
3932.95	2939
3934.555	2877
3936.159	2929
3937.766	3000
3939.369	2933
3940.974	3008
3942.577	2933
3944.181	2892
3945.783	2925
3947.386	2956
3948.989	2905
3950.59	2966
3952.191	2993
3953.791	2969
3955.394	2888
3956.994	2952
3958.593	2928
3960.192	2963
3961.791	2901
3963.392	2872
3964.99	2909
3966.588	2841
3968.185	2848
3969.782	2867
3971.379	2839
3972.976	2892
3974.572	2857
3976.168	2881
3977.763	2886
3979.358	2872
3980.954	2858
3982.548	2909
3984.142	2861
3985.736	2877
3987.329	2872
3988.922	2836
3990.516	2732
3992.108	2854
3993.698	2791
3995.29	2804
3996.881	2806
3998.473	2861
4000.064	2855
4001.653	2842
4003.242	2865
4004.832	2822
4006.422	2834
4008.01	2814
4009.598	2815
4011.186	2813
4012.773	2836
4014.36	2834
4015.947	2779
4017.534	2829
4019.119	2819
4020.705	2781
4022.291	2741
4023.876	2780
4025.461	2790
4027.044	2753
4028.627	2739
4030.211	2781
4031.795	2745
4033.378	2740
4034.96	2782
4036.542	2731
4038.124	2760
4039.704	2698
4041.286	2774
4042.867	2685
4044.447	2721
4046.026	2717
4047.606	2768
4049.187	2803
4050.765	2742
4052.343	2732
4053.92	2736
4055.498	2779
4057.076	2759
4058.654	2745
4060.23	2706
4061.806	2722
4063.381	2674
4064.957	2712
4066.533	2722
4068.107	2788
4069.682	2713
4071.256	2680
4072.829	2654
4074.404	2689
4075.977	2702
4077.549	2757
4079.121	2677
4080.693	2745
4082.265	2672
4083.836	2684
4085.407	2664
4086.977	2725
4088.547	2759
4090.117	2723
4091.687	2664
4093.256	2649
4094.825	2693
4096.392	2745
4097.96	2667
4099.528	2719
4101.097	2648
4102.663	2688
4104.229	2698
4105.795	2680
4107.361	2742
4108.928	2645
4110.493	2661
4112.058	2679
4113.621	2658
4115.186	2666
4116.75	2664
4118.313	2590
4119.876	2654
4121.438	2670
4123	2647
4124.562	2664
4126.125	2719
4127.686	2654
4129.246	2639
4130.807	2628
4132.367	2577
4133.927	2690
4135.486	2665
4137.046	2601
4138.604	2589
4140.162	2653
4141.72	2580
4143.279	2567
4144.836	2654
4146.393	2583
4147.949	2537
4149.505	2592
4151.062	2612
4152.617	2559
4154.172	2607
4155.727	2568
4157.281	2650
4158.836	2523
4160.39	2585
4161.943	2543
4163.496	2576
4165.048	2579
4166.601	2517
4168.154	2593
4169.706	2588
4171.257	2550
4172.808	2518
4174.358	2577
4175.909	2619
4177.458	2579
4179.008	2574
4180.558	2543
4182.106	2538
4183.655	2501
4185.204	2561
4186.751	2542
4188.298	2443
4189.845	2545
4191.392	2489
4192.939	2531
4194.485	2446
4196.031	2479
4197.576	2572
4199.121	2570
4200.666	2480
4202.211	2441
4203.754	2532
4205.298	2508
4206.84	2496
4208.384	2529
4209.927	2473
4211.47	2484
4213.011	2438
4214.552	2442
4216.094	2504
4217.635	2558
4219.175	2450
4220.716	2588
4222.255	2542
4223.793	2501
4225.335	2414
4226.873	2528
4228.411	2471
4229.948	2418
4231.486	2478
4233.024	2506
4234.562	2490
4236.098	2460
4237.634	2450
4239.169	2458
4240.705	2503
4242.241	2422
4243.776	2476
4245.31	2362
4246.844	2441
4248.378	2437
4249.911	2474
4251.445	2522
4252.978	2459
4254.51	2399
4256.042	2423
4257.574	2449
4259.107	2470
4260.638	2426
4262.169	2453
4263.699	2421
4265.228	2465
4266.759	2380
4268.289	2478
4269.818	2417
4271.345	2443
4272.874	2418
4274.402	2460
4275.931	2463
4277.458	2451
4278.985	2433
4280.512	2450
4282.037	2412
4283.564	2427
4285.089	2454
4286.615	2426
4288.139	2397
4289.664	2426
4291.187	2394
4292.712	2477
4294.235	2399
4295.759	2346
4297.281	2402
4298.804	2451
4300.327	2436
4301.849	2372
4303.37	2392
4304.891	2329
4306.412	2383
4307.933	2368
4309.453	2405
4310.973	2387
4312.492	2345
