398.1873	3879
400.7097	3804
403.2336	3776
405.7547	3844
408.2751	3829
410.7948	3786
413.3138	3841
415.83	3902
418.3497	3902
420.8666	3954
423.3829	3992
425.8985	4021
428.4133	4069
430.9275	4071
433.441	4172
435.9538	4127
438.4639	4047
440.9753	4126
443.4881	4105
445.9982	4039
448.5055	4084
451.0142	4036
453.5201	4111
456.0274	4127
458.5361	4081
461.04	4012
463.5453	4001
466.0478	4068
468.5517	4119
471.0549	4063
473.5574	4079
476.0572	4102
478.5584	4090
481.0568	4158
483.5545	4154
486.0557	4098
488.5521	4154
491.0478	4169
493.5449	4162
496.0392	4175
498.5349	4224
501.0299	4149
503.5222	4258
506.0139	4115
508.5048	4215
510.9991	4199
513.4887	4140
515.9777	4217
518.4659	4116
520.9534	4271
523.4403	4203
525.9306	4255
528.4161	4171
530.9009	4171
533.3851	4141
535.8687	4123
538.3535	4156
540.8356	4267
543.3171	4227
545.7979	4215
548.278	4211
550.7595	4254
553.2383	4284
555.7144	4350
558.1918	4257
560.6685	4269
563.1446	4220
565.6221	4329
568.0968	4343
570.5688	4270
573.0422	4362
575.515	4357
577.989	4398
580.4584	4351
582.9291	4379
585.3991	4417
587.8685	4360
590.3352	4408
592.8052	4376
595.2706	4435
597.7372	4369
600.2033	4458
602.6666	4329
605.1334	4388
607.5953	4370
610.0587	4370
612.5193	4287
614.9814	4317
617.4427	4324
619.9034	4409
622.3615	4311
624.8208	4326
627.2775	4329
629.7335	4313
632.1929	4297
634.6476	4369
637.1016	4342
639.5569	4335
642.0096	4295
644.4637	4378
646.9151	4372
649.3678	4530
651.8179	4406
654.2672	4408
656.7159	4480
659.166	4463
661.6154	4419
664.0622	4332
666.5082	4502
668.9537	4537
671.4005	4511
673.8445	4499
676.288	4449
678.7308	4469
681.1729	4403
683.6163	4418
686.0572	4337
688.4973	4471
690.9368	4496
693.3757	4460
695.8138	4453
698.2534	4565
700.6902	4460
703.1245	4495
705.56	4579
707.9949	4510
710.4311	4602
712.8647	4584
715.2957	4506
717.7279	4568
720.1595	4606
722.5905	4626
725.0208	4674
727.4505	4606
729.8795	4678
732.3058	4679
734.7336	4676
737.1626	4645
739.587	4653
742.0128	4670
744.4359	4803
746.8604	4744
749.2841	4796
751.7073	4819
754.1278	4752
756.5496	4796
758.9688	4769
761.3893	4791
763.8093	4830
766.2285	4840
768.6451	4839
771.0611	4812
773.4784	4735
775.895	4811
778.3091	4867
780.7244	4845
783.1371	4791
785.5493	4717
787.9626	4852
790.3754	4912
792.7856	4865
795.1951	4862
797.6039	4825
800.0121	4769
802.4236	4825
804.8306	4823
807.2369	4815
809.6425	4857
812.0475	4801
814.4538	4916
816.8575	4917
819.2606	4883
821.663	4846
824.0648	4843
826.4659	4894
828.8683	4865
831.2682	4876
833.6674	4904
836.066	4887
838.4639	4926
840.8632	4854
843.2579	4944
845.6539	5003
848.0493	4959
850.444	4958
852.84	4943
855.2315	4872
857.6243	4980
860.0165	4982
862.4081	4898
864.797	4906
867.1892	5004
869.5789	4971
871.9659	5011
874.3542	4902
876.74	5048
879.129	4867
881.5155	5013
883.8994	4864
886.2845	4962
888.6671	4966
891.051	4817
893.4343	4958
895.8169	4883
898.197	4877
900.5783	4892
902.9571	4967
905.3372	4905
907.7167	5021
910.0936	4967
912.4698	4993
914.8474	5107
917.2244	5077
919.5987	5105
921.9744	5110
924.3475	5086
926.72	5110
929.0918	5166
931.4669	5141
933.8375	5146
936.2074	5171
938.5767	5237
940.9454	5322
943.3154	5341
945.6829	5393
948.0497	5541
950.4178	5730
952.7833	5875
955.1483	6007
957.5145	6172
959.8782	6278
962.2412	6250
964.6036	6084
966.9655	5941
969.3266	5760
971.6871	5592
974.0471	5316
976.4064	5325
978.765	5207
981.125	5072
983.4824	5119
985.8373	5239
988.1935	5117
990.549	5022
992.9039	5177
995.2602	5127
997.6119	5143
999.965	5167
1002.317	5335
1004.667	5160
1007.02	5102
1009.371	5164
1011.719	5127
1014.068	5164
1016.415	5111
1018.765	5085
1021.111	5193
1023.458	5142
1025.804	5196
1028.147	5208
1030.49	5204
1032.837	5065
1035.179	5184
1037.522	5258
1039.862	5242
1042.204	5250
1044.546	5269
1046.884	5196
1049.224	5220
1051.562	5241
1053.899	5234
1056.237	5255
1058.575	5169
1060.91	5338
1063.244	5302
1065.58	5298
1067.913	5295
1070.248	5452
1072.579	5393
1074.911	5353
1077.242	5380
1079.572	5342
1081.905	5309
1084.234	5320
1086.562	5264
1088.89	5331
1091.217	5272
1093.544	5257
1095.871	5254
1098.197	5308
1100.521	5316
1102.845	5307
1105.169	5253
1107.491	5351
1109.814	5253
1112.135	5268
1114.456	5252
1116.776	5251
1119.096	5334
1121.415	5267
1123.734	5233
1126.052	5316
1128.369	5334
1130.686	5216
1133.002	5289
1135.318	5241
1137.632	5373
1139.945	5309
1142.258	5297
1144.573	5262
1146.884	5282
1149.196	5302
1151.505	5384
1153.816	5251
1156.124	5334
1158.435	5335
1160.742	5281
1163.051	5242
1165.356	5335
1167.663	5372
1169.97	5369
1172.276	5290
1174.579	5239
1176.881	5297
1179.186	5273
1181.487	5317
1183.79	5238
1186.092	5352
1188.392	5287
1190.691	5273
1192.991	5348
1195.291	5217
1197.588	5294
1199.885	5286
1202.181	5312
1204.479	5269
1206.775	5355
1209.07	5304
1211.363	5381
1213.656	5293
1215.949	5319
1218.241	5453
1220.534	5260
1222.825	5363
1225.115	5408
1227.405	5426
1229.693	5381
1231.984	5433
1234.271	5439
1236.558	5432
1238.845	5418
1241.131	5468
1243.416	5413
1245.703	5373
1247.987	5579
1250.269	5442
1252.552	5414
1254.834	5448
1257.118	5518
1259.399	5498
1261.678	5465
1263.958	5501
1266.237	5439
1268.516	5486
1270.794	5428
1273.072	5506
1275.347	5456
1277.624	5473
1279.899	5566
1282.175	5433
1284.449	5411
1286.722	5417
1288.995	5464
1291.266	5365
1293.54	5401
1295.81	5429
1298.081	5393
1300.35	5412
1302.62	5419
1304.889	5393
1307.156	5346
1309.425	5459
1311.69	5437
1313.957	5379
1316.222	5294
1318.488	5421
1320.751	5378
1323.016	5439
1325.278	5356
1327.54	5607
1329.803	5447
1332.065	5394
1334.325	5488
1336.584	5391
1338.843	5545
1341.101	5442
1343.36	5441
1345.617	5476
1347.876	5524
1350.131	5370
1352.387	5434
1354.643	5459
1356.897	5427
1359.151	5429
1361.403	5495
1363.656	5482
1365.909	5456
1368.16	5500
1370.409	5456
1372.659	5511
1374.909	5503
1377.157	5455
1379.407	5412
1381.655	5563
1383.9	5548
1386.147	5386
1388.393	5645
1390.64	5561
1392.885	5457
1395.127	5536
1397.37	5478
1399.614	5585
1401.854	5612
1404.098	5614
1406.339	5584
1408.578	5516
1410.818	5478
1413.056	5604
1415.297	5548
1417.533	5592
1419.771	5692
1422.006	5557
1424.243	5585
1426.479	5712
1428.715	5678
1430.948	5662
1433.182	5716
1435.414	5612
1437.647	5727
1439.88	5711
1442.11	5722
1444.342	5668
1446.571	5731
1448.799	5758
1451.029	5796
1453.258	5815
1455.485	5673
1457.711	5598
1459.937	5713
1462.164	5635
1464.39	5730
1466.614	5641
1468.838	5683
1471.06	5626
1473.283	5729
1475.506	5644
1477.727	5619
1479.949	5673
1482.169	5560
1484.389	5586
1486.609	5619
1488.828	5525
1491.045	5521
1493.261	5653
1495.477	5517
1497.693	5528
1499.91	5559
1502.125	5624
1504.339	5470
1506.553	5483
1508.766	5497
1510.979	5543
1513.191	5579
1515.402	5473
1517.613	5576
1519.823	5597
1522.033	5553
1524.242	5585
1526.451	5529
1528.657	5522
1530.865	5565
1533.072	5522
1535.278	5618
1537.484	5616
1539.687	5513
1541.892	5501
1544.096	5596
1546.299	5486
1548.502	5566
1550.703	5432
1552.905	5536
1555.104	5576
1557.303	5633
1559.505	5668
1561.703	5606
1563.902	5619
1566.099	5672
1568.295	5640
1570.494	5758
1572.689	5663
1574.883	5624
1577.079	5814
1579.272	5710
1581.467	5648
1583.659	5616
1585.853	5681
1588.044	5635
1590.234	5618
1592.424	5768
1594.615	5659
1596.806	5746
1598.994	5697
1601.182	5701
1603.369	5722
1605.557	5631
1607.744	5776
1609.929	5712
1612.114	5798
1614.298	5801
1616.482	5765
1618.667	5770
1620.85	5813
1623.032	5794
1625.214	5667
1627.395	5755
1629.575	5759
1631.755	5781
1633.935	5773
1636.114	5768
1638.292	5855
1640.471	5895
1642.647	5761
1644.823	5754
1647	5811
1649.175	5775
1651.348	5742
1653.525	5770
1655.698	5784
1657.87	5870
1660.043	5756
1662.213	5859
1664.387	5809
1666.558	5823
1668.727	5826
1670.896	5903
1673.064	5804
1675.233	5925
1677.401	5940
1679.569	5854
1681.735	5882
1683.902	5892
1686.066	5857
1688.233	5914
1690.397	5830
1692.559	5910
1694.723	5786
1696.885	5791
1699.048	5776
1701.21	5764
1703.37	5660
1705.53	5730
1707.689	5753
1709.849	5804
1712.009	5784
1714.166	5768
1716.323	5790
1718.479	5766
1720.634	5736
1722.793	5697
1724.948	5734
1727.102	5709
1729.255	5804
1731.408	5762
1733.562	5732
1735.714	5735
1737.865	5733
1740.016	5846
1742.166	5804
1744.316	5688
1746.467	5704
1748.616	5754
1750.764	5771
1752.911	5802
1755.056	5772
1757.205	5743
1759.35	5822
1761.496	5740
1763.641	5836
1765.785	5673
1767.927	5875
1770.072	5860
1772.214	5751
1774.355	5903
1776.496	5852
1778.637	5701
1780.778	5850
1782.918	5863
1785.057	5784
1787.194	5834
1789.333	5916
1791.472	5802
1793.608	5871
1795.745	5836
1797.879	5866
1800.015	5862
1802.148	5868
1804.284	5813
1806.417	5841
1808.548	5830
1810.682	5879
1812.812	5856
1814.946	5801
1817.075	5868
1819.205	5783
1821.335	5847
1823.463	5803
1825.59	5750
1827.721	5882
1829.847	5736
1831.973	5797
1834.098	5863
1836.223	5826
1838.351	5781
1840.475	5738
1842.598	5935
1844.721	5727
1846.843	5692
1848.966	5814
1851.087	5750
1853.21	5808
1855.33	5850
1857.449	5759
1859.568	5775
1861.688	5831
1863.806	5776
1865.924	5822
1868.039	5804
1870.155	5871
1872.273	5796
1874.388	5752
1876.503	5892
1878.617	5755
1880.73	5836
1882.844	5842
1884.956	5880
1887.068	5798
1889.18	5929
1891.291	5756
1893.4	5803
1895.511	5803
1897.621	5672
1899.73	5854
1901.837	5825
1903.944	5921
1906.053	5866
1908.159	5813
1910.265	5899
1912.369	5788
1914.474	5949
1916.577	5826
1918.683	5893
1920.785	5911
1922.888	5943
1924.989	5930
1927.091	5970
1929.193	5935
1931.294	5938
1933.393	5949
1935.493	5956
1937.59	6021
1939.689	5887
1941.788	5798
1943.884	5902
1945.98	5834
1948.077	5935
1950.171	5841
1952.267	5874
1954.361	5926
1956.455	5913
1958.548	5955
1960.64	5859
1962.733	5860
1964.824	5883
1966.915	5928
1969.005	5910
1971.096	5845
1973.185	5866
1975.275	5972
1977.363	5849
1979.45	5858
1981.537	5831
1983.623	5966
1985.711	5855
1987.796	5979
1989.881	5818
1991.965	5781
1994.047	5979
1996.132	5945
1998.215	5796
2000.297	5856
2002.378	5870
2004.46	5853
2006.54	5809
2008.62	5841
2010.7	5911
2012.779	5861
2014.858	5751
2016.934	5879
2019.013	5781
2021.09	5772
2023.165	5835
2025.241	5952
2027.317	5845
2029.39	5999
2031.466	5860
2033.538	5876
2035.612	5774
2037.683	5909
2039.755	5817
2041.827	5804
2043.898	5872
2045.968	5831
2048.038	5982
2050.106	5851
2052.177	5896
2054.244	5872
2056.313	5798
2058.379	5780
2060.444	5948
2062.511	5941
2064.577	6025
2066.641	5963
2068.705	6042
2070.77	5968
2072.832	5913
2074.896	5895
2076.958	5893
2079.02	5893
2081.081	5934
2083.141	6051
2085.2	5878
2087.261	6009
2089.319	5815
2091.377	6026
2093.435	5954
2095.492	5981
2097.552	5971
2099.607	5870
2101.663	5953
2103.718	5842
2105.771	5974
2107.826	6003
2109.879	5912
2111.932	6019
2113.985	5955
2116.037	5934
2118.088	5872
2120.141	5904
2122.191	5934
2124.239	5874
2126.288	5918
2128.337	5960
2130.387	5916
2132.434	5801
2134.481	5911
2136.528	5816
2138.574	5984
2140.618	5789
2142.665	5912
2144.71	5929
2146.753	5872
2148.797	5949
2150.838	5899
2152.883	5876
2154.923	5765
2156.965	5911
2159.007	5925
2161.046	5917
2163.086	5847
2165.126	5781
2167.163	5918
2169.202	5883
2171.239	5846
2173.277	5793
2175.314	5787
2177.349	5821
2179.385	5903
2181.42	5817
2183.453	5857
2185.49	5946
2187.522	5940
2189.555	5823
2191.586	5795
2193.619	5901
2195.651	5821
2197.682	5777
2199.711	5808
2201.74	5868
2203.769	5858
2205.799	5849
2207.828	5946
2209.855	5754
2211.882	5806
2213.908	5695
2215.934	5754
2217.961	5865
2219.986	5838
2222.01	5772
2224.034	5833
2226.057	5781
2228.08	5760
2230.104	5791
2232.124	5837
2234.145	5732
2236.166	5805
2238.186	5863
2240.207	5812
2242.227	5826
2244.244	5815
2246.262	5838
2248.28	5784
2250.299	5765
2252.314	5783
2254.33	5794
2256.346	5830
2258.36	5877
2260.375	5793
2262.391	5771
2264.403	5751
2266.416	5783
2268.427	5943
2270.44	5776
2272.453	5811
2274.463	5735
2276.474	5833
2278.483	5871
2280.493	5773
2282.501	5764
2284.51	5791
2286.518	5812
2288.524	5801
2290.532	5736
2292.537	5807
2294.544	5735
2296.55	5839
2298.554	5851
2300.557	5834
2302.562	5712
2304.566	5764
2306.568	5785
2308.569	5852
2310.572	5812
2312.573	5717
2314.573	5866
2316.574	5719
2318.573	5737
2320.571	5748
2322.571	5738
2324.569	5694
2326.567	5892
2328.564	5732
2330.56	5795
2332.556	5731
2334.551	5748
2336.546	5736
2338.542	5711
2340.535	5740
2342.529	5772
2344.521	5786
2346.512	5679
2348.505	5852
2350.497	5787
2352.487	5775
2354.478	5762
2356.468	5676
2358.457	5681
2360.446	5638
2362.434	5743
2364.422	5555
2366.408	5757
2368.395	5716
2370.383	5751
2372.369	5674
2374.353	5779
2376.338	5735
2378.321	5694
2380.307	5787
2382.29	5645
2384.272	5657
2386.254	5748
2388.235	5754
2390.218	5715
2392.198	5736
2394.179	5691
2396.157	5703
2398.137	5703
2400.115	5671
2402.095	5643
2404.072	5593
2406.048	5655
2408.026	5685
2410.001	5673
2411.977	5693
2413.953	5662
2415.927	5701
2417.9	5741
2419.875	5760
2421.847	5687
2423.821	5724
2425.792	5629
2427.763	5714
2429.736	5704
2431.706	5754
2433.677	5657
2435.646	5708
2437.615	5621
2439.583	5592
2441.551	5676
2443.519	5692
2445.486	5664
2447.452	5663
2449.418	5642
2451.383	5631
2453.348	5714
2455.314	5688
2457.278	5692
2459.241	5698
2461.205	5756
2463.167	5566
2465.131	5675
2467.091	5651
2469.052	5673
2471.012	5620
2472.972	5641
2474.932	5652
2476.891	5620
2478.85	5645
2480.808	5545
2482.766	5563
2484.722	5608
2486.68	5634
2488.636	5691
2490.591	5557
2492.546	5588
2494.5	5553
2496.456	5657
2498.41	5580
2500.362	5571
2502.315	5661
2504.266	5636
2506.218	5558
2508.169	5632
2510.121	5591
2512.07	5588
2514.019	5642
2515.968	5632
2517.918	5665
2519.866	5554
2521.813	5596
2523.76	5563
2525.707	5560
2527.653	5635
2529.599	5606
2531.543	5589
2533.489	5555
2535.433	5542
2537.376	5580
2539.32	5582
2541.264	5652
2543.205	5551
2545.147	5649
2547.087	5605
2549.029	5608
2550.969	5589
2552.908	5592
2554.847	5497
2556.786	5589
2558.724	5668
2560.663	5584
2562.6	5625
2564.537	5560
2566.473	5576
2568.408	5582
2570.345	5541
2572.28	5593
2574.214	5566
2576.148	5581
2578.081	5596
2580.014	5558
2581.947	5619
2583.879	5628
2585.81	5698
2587.741	5542
2589.67	5619
2591.602	5630
2593.532	5618
2595.461	5558
2597.388	5674
2599.316	5606
2601.244	5540
2603.172	5540
2605.098	5655
2607.023	5730
2608.949	5691
2610.873	5682
2612.8	5571
2614.723	5579
2616.647	5480
2618.569	5700
2620.493	5550
2622.416	5727
2624.338	5555
2626.258	5630
2628.179	5581
2630.099	5554
2632.019	5623
2633.939	5724
2635.857	5584
2637.775	5681
2639.694	5695
2641.61	5605
2643.528	5601
2645.444	5553
2647.361	5661
2649.276	5609
2651.19	5587
2653.105	5719
2655.019	5553
2656.934	5740
2658.846	5590
2660.758	5647
2662.67	5549
2664.583	5598
2666.493	5718
2668.404	5583
2670.313	5684
2672.223	5607
2674.134	5656
2676.042	5597
2677.95	5640
2679.858	5599
2681.765	5613
2683.673	5688
2685.579	5639
2687.483	5642
2689.389	5697
2691.294	5515
2693.198	5659
2695.104	5584
2697.006	5588
2698.909	5572
2700.811	5556
2702.713	5574
2704.615	5703
2706.516	5541
2708.417	5654
2710.316	5549
2712.216	5530
2714.115	5699
2716.014	5597
2717.913	5604
2719.81	5514
2721.707	5518
2723.603	5670
2725.501	5492
2727.396	5635
2729.292	5583
2731.186	5534
2733.081	5536
2734.976	5576
2736.87	5623
2738.762	5607
2740.653	5549
2742.546	5501
2744.437	5591
2746.329	5579
2748.22	5502
2750.11	5507
2751.999	5607
2753.889	5449
2755.778	5515
2757.666	5547
2759.553	5530
2761.44	5556
2763.328	5533
2765.215	5521
2767.101	5628
2768.986	5498
2770.87	5554
2772.754	5505
2774.638	5466
2776.523	5488
2778.405	5543
2780.288	5546
2782.17	5606
2784.051	5418
2785.934	5570
2787.814	5532
2789.694	5496
2791.574	5557
2793.453	5588
2795.332	5580
2797.212	5507
2799.088	5399
2800.966	5516
2802.843	5531
2804.719	5440
2806.597	5519
2808.471	5439
2810.346	5438
2812.221	5456
2814.094	5489
2815.969	5442
2817.843	5491
2819.714	5618
2821.587	5480
2823.459	5582
2825.329	5386
2827.202	5586
2829.072	5514
2830.942	5535
2832.811	5471
2834.68	5540
2836.549	5554
2838.418	5531
2840.284	5461
2842.152	5394
2844.018	5479
2845.885	5627
2847.751	5518
2849.616	5533
2851.482	5501
2853.345	5488
2855.208	5586
2857.074	5524
2858.937	5593
2860.799	5614
2862.66	5746
2864.522	5626
2866.385	5580
2868.245	5644
2870.104	5786
2871.964	5749
2873.824	5745
2875.683	5720
2877.542	5741
2879.4	5819
2881.257	5825
2883.114	5878
2884.97	5951
2886.827	5799
2888.683	5818
2890.537	5829
2892.392	5916
2894.246	5791
2896.1	5854
2897.954	5904
2899.807	5734
2901.66	5894
2903.51	5776
2905.362	5868
2907.214	5850
2909.065	5727
2910.915	5945
2912.765	5823
2914.613	5841
2916.463	5935
2918.311	6069
2920.158	5977
2922.006	6027
2923.853	6110
2925.698	6098
2927.546	6119
2929.392	6286
2931.236	6236
2933.081	6293
2934.924	6308
2936.77	6347
2938.613	6370
2940.455	6444
2942.298	6338
2944.139	6377
2945.982	6419
2947.823	6275
2949.662	6372
2951.503	6345
2953.342	6267
2955.182	6162
2957.021	6261
2958.858	6217
2960.697	6107
2962.534	6158
2964.37	6157
2966.207	6088
2968.044	5990
2969.879	5946
2971.714	6014
2973.548	5863
2975.383	5910
2977.218	5967
2979.051	5880
2980.883	5844
2982.715	5925
2984.547	6011
2986.379	5944
2988.21	5784
2990.04	5756
2991.87	5825
2993.7	5850
2995.53	5780
2997.359	5730
2999.187	5702
3001.015	5697
3002.842	5659
3004.669	5608
3006.497	5533
3008.323	5529
3010.148	5544
3011.974	5584
3013.797	5510
3015.623	5408
3017.447	5433
3019.27	5520
3021.094	5521
3022.915	5384
3024.737	5383
3026.56	5381
3028.38	5373
3030.201	5341
3032.022	5412
3033.84	5345
3035.662	5450
3037.481	5341
3039.298	5342
3041.117	5234
3042.933	5313
3044.752	5314
3046.568	5346
3048.385	5374
3050.2	5315
3052.016	5364
3053.83	5284
3055.646	5365
3057.46	5359
3059.272	5219
3061.086	5365
3062.898	5295
3064.711	5279
3066.524	5281
3068.335	5311
3070.145	5175
3071.956	5254
3073.766	5373
3075.576	5338
3077.385	5270
3079.193	5164
3081.002	5171
3082.81	5160
3084.618	5279
3086.425	5261
3088.231	5210
3090.036	5194
3091.842	5251
3093.648	5199
3095.452	5238
3097.257	5275
3099.06	5172
3100.863	5223
3102.666	5199
3104.47	5124
3106.272	5229
3108.073	5206
3109.875	5141
3111.676	5247
3113.477	5188
3115.277	5147
3117.077	5156
3118.874	5228
3120.673	5156
3122.473	5122
3124.271	5137
3126.066	5139
3127.863	5177
3129.66	5137
3131.456	5061
3133.252	5028
3135.047	5150
3136.842	5110
3138.635	5104
3140.429	5066
3142.223	5104
3144.016	5016
3145.808	5102
3147.6	5128
3149.392	5172
3151.183	5111
3152.975	5114
3154.765	5084
3156.553	5051
3158.344	5198
3160.132	5025
3161.922	5122
3163.71	5068
3165.497	5053
3167.285	5135
3169.071	5031
3170.858	4994
3172.645	5074
3174.429	5040
3176.214	5173
3177.998	5008
3179.783	5052
3181.568	5046
3183.351	5092
3185.133	5063
3186.915	5037
3188.698	5069
3190.481	5041
3192.261	5103
3194.042	5075
3195.822	5138
3197.601	5083
3199.381	4957
3201.161	4983
3202.939	4980
3204.717	5054
3206.495	4972
3208.272	4994
3210.05	5013
3211.826	4978
3213.602	4989
3215.376	5043
3217.151	5075
3218.927	4927
3220.702	4974
3222.476	4993
3224.249	5044
3226.021	5000
3227.793	5133
3229.567	5031
3231.339	5059
3233.109	5076
3234.88	4980
3236.651	4947
3238.421	5009
3240.191	5126
3241.96	5007
3243.728	5090
3245.497	5071
3247.263	5007
3249.033	4971
3250.799	4920
3252.566	4979
3254.331	4984
3256.097	4985
3257.863	5062
3259.628	4999
3261.392	5077
3263.156	5039
3264.919	5073
3266.683	4992
3268.447	5006
3270.208	5034
3271.969	5011
3273.731	5151
3275.492	5056
3277.253	5070
3279.013	4998
3280.773	5094
3282.532	5000
3284.291	4981
3286.05	5007
3287.808	5039
3289.566	5097
3291.323	4975
3293.079	5074
3294.835	5085
3296.593	5112
3298.348	5016
3300.102	4986
3301.857	5052
3303.611	5051
3305.366	4975
3307.119	5171
3308.872	5066
3310.624	5076
3312.376	5056
3314.129	5081
3315.881	5094
3317.631	5060
3319.38	5013
3321.13	5128
3322.88	4917
3324.631	4965
3326.379	5029
3328.126	5043
3329.875	5041
3331.622	5050
3333.371	5039
3335.116	4996
3336.863	4898
3338.609	4926
3340.353	4948
3342.1	5071
3343.845	5061
3345.588	4906
3347.332	5046
3349.074	4945
3350.817	5001
3352.56	5012
3354.303	5098
3356.043	4957
3357.785	4897
3359.525	4962
3361.268	4992
3363.007	4974
3364.745	4877
3366.485	5093
3368.223	4962
3369.962	4955
3371.701	5004
3373.438	4800
3375.174	4934
3376.911	4998
3378.647	5017
3380.384	4937
3382.118	4924
3383.854	4923
3385.588	4953
3387.322	4961
3389.057	4882
3390.79	4952
3392.522	4918
3394.255	4868
3395.987	4945
3397.719	4937
3399.451	4876
3401.181	4838
3402.911	4911
3404.641	4937
3406.371	4897
3408.101	4919
3409.83	4934
3411.558	4954
3413.285	4942
3415.011	4895
3416.739	4862
3418.467	4899
3420.193	4903
3421.919	4877
3423.644	4911
3425.368	4766
3427.094	4913
3428.818	4976
3430.542	5006
3432.264	4805
3433.987	4768
3435.712	4935
3437.434	4868
3439.155	4778
3440.876	4875
3442.596	4835
3444.317	4850
3446.039	4809
3447.757	4851
3449.477	4793
3451.195	4863
3452.914	4839
3454.632	4826
3456.35	4858
3458.067	4801
3459.784	4802
3461.5	4856
3463.216	4804
3464.932	4767
3466.647	4773
3468.362	4791
3470.076	4829
3471.789	4794
3473.505	4740
3475.217	4739
3476.929	4720
3478.641	4769
3480.354	4759
3482.066	4697
3483.777	4744
3485.487	4677
3487.197	4748
3488.908	4697
3490.617	4734
3492.327	4714
3494.035	4724
3495.743	4703
3497.451	4758
3499.158	4630
3500.866	4666
3502.572	4784
3504.278	4696
3505.984	4704
3507.689	4590
3509.396	4743
3511.1	4619
3512.804	4704
3514.508	4645
3516.211	4792
3517.913	4655
3519.616	4678
3521.319	4663
3523.021	4721
3524.722	4614
3526.422	4632
3528.124	4584
3529.824	4779
3531.524	4572
3533.222	4558
3534.921	4566
3536.62	4664
3538.318	4630
3540.016	4631
3541.714	4616
3543.41	4653
3545.107	4663
3546.803	4648
3548.5	4613
3550.194	4592
3551.889	4583
3553.583	4571
3555.279	4565
3556.972	4659
3558.666	4644
3560.358	4610
3562.051	4665
3563.742	4519
3565.435	4588
3567.126	4557
3568.817	4604
3570.507	4557
3572.197	4561
3573.888	4643
3575.577	4609
3577.265	4580
3578.954	4554
3580.642	4540
3582.329	4611
3584.017	4583
3585.704	4568
3587.391	4541
3589.077	4577
3590.762	4539
3592.449	4523
3594.133	4535
3595.817	4482
3597.501	4588
3599.185	4515
3600.869	4470
3602.552	4446
3604.234	4459
3605.916	4403
3607.598	4498
3609.279	4475
3610.961	4490
3612.642	4435
3614.321	4444
3616	4422
3617.68	4422
3619.36	4508
3621.039	4553
3622.716	4436
3624.394	4431
3626.071	4314
3627.748	4397
3629.425	4403
3631.102	4315
3632.778	4408
3634.452	4416
3636.127	4390
3637.803	4359
3639.477	4469
3641.151	4387
3642.823	4416
3644.497	4356
3646.171	4326
3647.842	4384
3649.515	4341
3651.185	4548
3652.857	4396
3654.527	4426
3656.198	4366
3657.868	4356
3659.537	4341
3661.207	4362
3662.875	4382
3664.544	4377
3666.212	4335
3667.879	4395
3669.546	4324
3671.212	4340
3672.88	4359
3674.546	4334
3676.211	4313
3677.875	4271
3679.541	4224
3681.205	4279
3682.87	4330
3684.533	4364
3686.196	4324
3687.859	4249
3689.521	4334
3691.184	4294
3692.845	4271
3694.507	4277
3696.167	4294
3697.827	4323
3699.487	4294
3701.148	4224
3702.808	4215
3704.466	4207
3706.125	4260
3707.783	4205
3709.442	4271
3711.099	4247
3712.757	4281
3714.412	4251
3716.068	4273
3717.725	4250
3719.381	4259
3721.036	4254
3722.689	4262
3724.344	4361
3725.998	4205
3727.652	4284
3729.305	4300
3730.958	4230
3732.61	4234
3734.262	4131
3735.915	4187
3737.565	4243
3739.217	4247
3740.866	4178
3742.516	4290
3744.165	4227
3745.816	4228
3747.464	4294
3749.113	4283
3750.761	4196
3752.409	4151
3754.057	4217
3755.703	4160
3757.35	4140
3758.996	4227
3760.641	4230
3762.289	4131
3763.933	4127
3765.577	4189
3767.222	4267
3768.865	4219
3770.508	4199
3772.152	4213
3773.796	4211
3775.438	4200
3777.079	4240
3778.721	4088
3780.363	4181
3782.003	4232
3783.643	4175
3785.283	4142
3786.923	4125
3788.563	4151
3790.203	4171
3791.841	4164
3793.479	4125
3795.115	4117
3796.753	4128
3798.391	4192
3800.027	4175
3801.664	4107
3803.299	4054
3804.935	4213
3806.571	4145
3808.206	4080
3809.839	4201
3811.473	4136
3813.107	4166
3814.74	4022
3816.375	4117
3818.006	3991
3819.638	4078
3821.27	4185
3822.9	3999
3824.532	4093
3826.163	4117
3827.792	4032
3829.423	4062
3831.051	4114
3832.682	4090
3834.311	4055
3835.938	3977
3837.566	3962
3839.193	4063
3840.821	4048
3842.448	4105
3844.075	4033
3845.7	3976
3847.325	4041
3848.951	4041
3850.576	4036
3852.201	4012
3853.825	4068
3855.448	4070
3857.072	3979
3858.694	4043
3860.318	4018
3861.939	4074
3863.562	4055
3865.183	4120
3866.804	3971
3868.426	4001
3870.045	4013
3871.666	4033
3873.285	4052
3874.904	4097
3876.524	4028
3878.142	3942
3879.76	4008
3881.378	3970
3882.995	4123
3884.612	3984
3886.229	4022
3887.845	4045
3889.461	4002
3891.076	3940
3892.691	3958
3894.307	4099
3895.922	3937
3897.536	4043
3899.149	3984
3900.761	4023
3902.374	4018
3903.988	3970
3905.6	4049
3907.212	4005
3908.822	3912
3910.433	3968
3912.045	4034
3913.655	3978
3915.265	3978
3916.875	4000
3918.483	4012
3920.093	3996
3921.702	3965
3923.309	3994
3924.917	3968
3926.523	4018
3928.13	4041
3929.739	3972
3931.344	4012
3932.95	3942
3934.555	3940
3936.159	4036
3937.766	3990
3939.369	3970
3940.974	4042
3942.577	3980
3944.181	3947
3945.783	3887
3947.386	3972
3948.989	3952
3950.59	3912
3952.191	3972
3953.791	3843
3955.394	3922
3956.994	3972
3958.593	3959
3960.192	3873
3961.791	3942
3963.392	3909
3964.99	3906
3966.588	3962
3968.185	3916
3969.782	3787
3971.379	3895
3972.976	3948
3974.572	3893
3976.168	3847
3977.763	3827
3979.358	3918
3980.954	3866
3982.548	3857
3984.142	3839
3985.736	3895
3987.329	3958
3988.922	3891
3990.516	3845
3992.108	3864
3993.698	3826
3995.29	3825
3996.881	3850
3998.473	3823
4000.064	3871
4001.653	3775
4003.242	3836
4004.832	3837
4006.422	3830
4008.01	3843
4009.598	3862
4011.186	3765
4012.773	3756
4014.36	3767
4015.947	3793
4017.534	3862
4019.119	3750
4020.705	3823
4022.291	3809
4023.876	3814
4025.461	3708
4027.044	3771
4028.627	3758
4030.211	3793
4031.795	3819
4033.378	3698
4034.96	3756
4036.542	3759
4038.124	3700
4039.704	3778
4041.286	3771
4042.867	3753
4044.447	3719
4046.026	3679
4047.606	3761
4049.187	3762
4050.765	3815
4052.343	3753
4053.92	3765
4055.498	3783
4057.076	3732
4058.654	3732
4060.23	3719
4061.806	3660
4063.381	3775
4064.957	3644
4066.533	3634
4068.107	3726
4069.682	3726
4071.256	3718
4072.829	3710
4074.404	3688
4075.977	3655
4077.549	3741
4079.121	3686
4080.693	3655
4082.265	3625
4083.836	3659
4085.407	3683
4086.977	3648
4088.547	3656
4090.117	3641
4091.687	3633
4093.256	3693
4094.825	3645
4096.392	3662
4097.96	3677
4099.528	3644
4101.097	3664
4102.663	3618
4104.229	3631
4105.795	3748
4107.361	3625
4108.928	3575
4110.493	3606
4112.058	3747
4113.621	3688
4115.186	3634
4116.75	3548
4118.313	3641
4119.876	3643
4121.438	3701
4123	3663
4124.562	3634
4126.125	3561
4127.686	3557
4129.246	3538
4130.807	3572
4132.367	3586
4133.927	3622
4135.486	3630
4137.046	3548
4138.604	3631
4140.162	3478
4141.72	3503
4143.279	3531
4144.836	3547
4146.393	3503
4147.949	3595
4149.505	3591
4151.062	3538
4152.617	3587
4154.172	3539
4155.727	3654
4157.281	3560
4158.836	3495
4160.39	3510
4161.943	3559
4163.496	3515
4165.048	3532
4166.601	3570
4168.154	3497
4169.706	3535
4171.257	3500
4172.808	3467
4174.358	3541
4175.909	3478
4177.458	3436
4179.008	3422
4180.558	3539
4182.106	3463
4183.655	3515
4185.204	3429
4186.751	3498
4188.298	3534
4189.845	3459
4191.392	3481
4192.939	3452
4194.485	3502
4196.031	3460
4197.576	3481
4199.121	3381
4200.666	3432
4202.211	3435
4203.754	3467
4205.298	3408
4206.84	3436
4208.384	3399
4209.927	3505
4211.47	3460
4213.011	3340
4214.552	3400
4216.094	3511
4217.635	3410
4219.175	3439
4220.716	3414
4222.255	3467
4223.793	3404
4225.335	3427
4226.873	3387
4228.411	3376
4229.948	3409
4231.486	3431
4233.024	3346
4234.562	3376
4236.098	3419
4237.634	3424
4239.169	3433
4240.705	3381
4242.241	3392
4243.776	3363
4245.31	3469
4246.844	3346
4248.378	3398
4249.911	3469
4251.445	3455
4252.978	3449
4254.51	3405
4256.042	3436
4257.574	3360
4259.107	3402
4260.638	3442
4262.169	3345
4263.699	3369
4265.228	3415
4266.759	3388
4268.289	3334
4269.818	3410
4271.345	3342
4272.874	3324
4274.402	3423
4275.931	3446
4277.458	3395
4278.985	3359
4280.512	3334
4282.037	3378
4283.564	3265
4285.089	3333
4286.615	3392
4288.139	3347
4289.664	3352
4291.187	3364
4292.712	3379
4294.235	3355
4295.759	3315
4297.281	3308
4298.804	3344
4300.327	3327
4301.849	3184
4303.37	3378
4304.891	3310
4306.412	3321
4307.933	3350
4309.453	3311
4310.973	3335
4312.492	3328
