398.1873	2972
400.7097	3005
403.2336	3035
405.7547	2972
408.2751	2993
410.7948	3026
413.3138	3111
415.83	3054
418.3497	3011
420.8666	3087
423.3829	3181
425.8985	3131
428.4133	3103
430.9275	3150
433.441	3178
435.9538	3158
438.4639	3177
440.9753	3166
443.4881	3153
445.9982	3153
448.5055	3152
451.0142	3234
453.5201	3250
456.0274	3182
458.5361	3151
461.04	3223
463.5453	3208
466.0478	3148
468.5517	3164
471.0549	3208
473.5574	3137
476.0572	3170
478.5584	3117
481.0568	3191
483.5545	3224
486.0557	3256
488.5521	3228
491.0478	3249
493.5449	3258
496.0392	3265
498.5349	3254
501.0299	3205
503.5222	3219
506.0139	3307
508.5048	3262
510.9991	3367
513.4887	3319
515.9777	3339
518.4659	3336
520.9534	3218
523.4403	3266
525.9306	3204
528.4161	3339
530.9009	3331
533.3851	3223
535.8687	3274
538.3535	3211
540.8356	3333
543.3171	3273
545.7979	3260
548.278	3382
550.7595	3294
553.2383	3370
555.7144	3327
558.1918	3353
560.6685	3366
563.1446	3320
565.6221	3340
568.0968	3300
570.5688	3359
573.0422	3306
575.515	3411
577.989	3454
580.4584	3443
582.9291	3361
585.3991	3403
587.8685	3375
590.3352	3409
592.8052	3404
595.2706	3407
597.7372	3429
600.2033	3412
602.6666	3405
605.1334	3384
607.5953	3370
610.0587	3439
612.5193	3402
614.9814	3465
617.4427	3375
619.9034	3403
622.3615	3362
624.8208	3380
627.2775	3366
629.7335	3405
632.1929	3295
634.6476	3331
637.1016	3346
639.5569	3432
642.0096	3415
644.4637	3424
646.9151	3452
649.3678	3400
651.8179	3422
654.2672	3407
656.7159	3450
659.166	3458
661.6154	3389
664.0622	3354
666.5082	3496
668.9537	3475
671.4005	3494
673.8445	3433
676.288	3503
678.7308	3434
681.1729	3521
683.6163	3468
686.0572	3436
688.4973	3542
690.9368	3574
693.3757	3466
695.8138	3544
698.2534	3461
700.6902	3404
703.1245	3554
705.56	3497
707.9949	3518
710.4311	3490
712.8647	3525
715.2957	3496
717.7279	3541
720.1595	3589
722.5905	3574
725.0208	3570
727.4505	3591
729.8795	3524
732.3058	3698
734.7336	3654
737.1626	3732
739.587	3607
742.0128	3752
744.4359	3688
746.8604	3649
749.2841	3680
751.7073	3645
754.1278	3716
756.5496	3691
758.9688	3723
761.3893	3695
763.8093	3748
766.2285	3743
768.6451	3777
771.0611	3777
773.4784	3767
775.895	3752
778.3091	3751
780.7244	3743
783.1371	3762
785.5493	3783
787.9626	3747
790.3754	3761
792.7856	3797
795.1951	3673
797.6039	3728
800.0121	3695
802.4236	3800
804.8306	3762
807.2369	3738
809.6425	3747
812.0475	3752
814.4538	3730
816.8575	3818
819.2606	3776
821.663	3879
824.0648	3698
826.4659	3777
828.8683	3849
831.2682	3772
833.6674	3809
836.066	3786
838.4639	3886
840.8632	3802
843.2579	3929
845.6539	3796
848.0493	3801
850.444	3909
852.84	3848
855.2315	3891
857.6243	3929
860.0165	3823
862.4081	3831
864.797	3884
867.1892	3949
869.5789	3859
871.9659	3829
874.3542	3908
876.74	3861
879.129	3852
881.5155	3911
883.8994	3810
886.2845	3801
888.6671	3856
891.051	3825
893.4343	3891
895.8169	3808
898.197	3825
900.5783	3890
902.9571	3770
905.3372	3844
907.7167	3883
910.0936	3821
912.4698	3886
914.8474	3961
917.2244	3905
919.5987	4061
921.9744	4009
924.3475	3965
926.72	4004
929.0918	4041
931.4669	3997
933.8375	3957
936.2074	4007
938.5767	4086
940.9454	4032
943.3154	4061
945.6829	4177
948.0497	4245
950.4178	4276
952.7833	4503
955.1483	4631
957.5145	4624
959.8782	4787
962.2412	4690
964.6036	4663
966.9655	4520
969.3266	4360
971.6871	4276
974.0471	4234
976.4064	4102
978.765	4043
981.125	4000
983.4824	3996
985.8373	3997
988.1935	3977
990.549	3945
992.9039	4011
995.2602	3928
997.6119	3981
999.965	4007
1002.317	3979
1004.667	4037
1007.02	4055
1009.371	3977
1011.719	3985
1014.068	3960
1016.415	3979
1018.765	3984
1021.111	4000
1023.458	4082
1025.804	3990
1028.147	4002
1030.49	4007
1032.837	4047
1035.179	4027
1037.522	3948
1039.862	4086
1042.204	4089
1044.546	4041
1046.884	4061
1049.224	4120
1051.562	4010
1053.899	4122
1056.237	4134
1058.575	4145
1060.91	4152
1063.244	4188
1065.58	4145
1067.913	4127
1070.248	4149
1072.579	3952
1074.911	4135
1077.242	4172
1079.572	4059
1081.905	4127
1084.234	4079
1086.562	4141
1088.89	4094
1091.217	4133
1093.544	4044
1095.871	4106
1098.197	4097
1100.521	4106
1102.845	4128
1105.169	4056
1107.491	4131
1109.814	4064
1112.135	4133
1114.456	4135
1116.776	4152
1119.096	4134
1121.415	4063
1123.734	4108
1126.052	4197
1128.369	4166
1130.686	4115
1133.002	4135
1135.318	4126
1137.632	4066
1139.945	4120
1142.258	4052
1144.573	4162
1146.884	4090
1149.196	4181
1151.505	4161
1153.816	4154
1156.124	4212
1158.435	4162
1160.742	4073
1163.051	4113
1165.356	4178
1167.663	4126
1169.97	4182
1172.276	4189
1174.579	4152
1176.881	4133
1179.186	4133
1181.487	4168
1183.79	4107
1186.092	4145
1188.392	4154
1190.691	4105
1192.991	4209
1195.291	4106
1197.588	4238
1199.885	4165
1202.181	4171
1204.479	4145
1206.775	4111
1209.07	4105
1211.363	4114
1213.656	4069
1215.949	4117
1218.241	4079
1220.534	4184
1222.825	4124
1225.115	4203
1227.405	4180
1229.693	4191
1231.984	4176
1234.271	4177
1236.558	4260
1238.845	4272
1241.131	4285
1243.416	4347
1245.703	4247
1247.987	4225
1250.269	4228
1252.552	4202
1254.834	4259
1257.118	4188
1259.399	4308
1261.678	4313
1263.958	4311
1266.237	4259
1268.516	4295
1270.794	4319
1273.072	4306
1275.347	4269
1277.624	4207
1279.899	4296
1282.175	4240
1284.449	4260
1286.722	4253
1288.995	4240
1291.266	4342
1293.54	4291
1295.81	4269
1298.081	4224
1300.35	4298
1302.62	4260
1304.889	4294
1307.156	4206
1309.425	4263
1311.69	4241
1313.957	4260
1316.222	4302
1318.488	4236
1320.751	4235
1323.016	4223
1325.278	4164
1327.54	4264
1329.803	4285
1332.065	4264
1334.325	4194
1336.584	4282
1338.843	4256
1341.101	4241
1343.36	4402
1345.617	4265
1347.876	4263
1350.131	4321
1352.387	4256
1354.643	4291
1356.897	4308
1359.151	4296
1361.403	4318
1363.656	4359
1365.909	4259
1368.16	4273
1370.409	4274
1372.659	4322
1374.909	4348
1377.157	4248
1379.407	4303
1381.655	4359
1383.9	4287
1386.147	4294
1388.393	4375
1390.64	4277
1392.885	4389
1395.127	4375
1397.37	4385
1399.614	4382
1401.854	4408
1404.098	4331
1406.339	4308
1408.578	4383
1410.818	4296
1413.056	4340
1415.297	4367
1417.533	4361
1419.771	4366
1422.006	4404
1424.243	4399
1426.479	4369
1428.715	4390
1430.948	4418
1433.182	4419
1435.414	4441
1437.647	4444
1439.88	4365
1442.11	4432
1444.342	4412
1446.571	4491
1448.799	4485
1451.029	4390
1453.258	4394
1455.485	4472
1457.711	4403
1459.937	4392
1462.164	4446
1464.39	4406
1466.614	4438
1468.838	4455
1471.06	4413
1473.283	4407
1475.506	4471
1477.727	4418
1479.949	4463
1482.169	4427
1484.389	4268
1486.609	4326
1488.828	4393
1491.045	4312
1493.261	4241
1495.477	4282
1497.693	4381
1499.91	4364
1502.125	4280
1504.339	4354
1506.553	4349
1508.766	4291
1510.979	4372
1513.191	4224
1515.402	4297
1517.613	4302
1519.823	4324
1522.033	4303
1524.242	4335
1526.451	4314
1528.657	4295
1530.865	4340
1533.072	4356
1535.278	4304
1537.484	4308
1539.687	4359
1541.892	4321
1544.096	4363
1546.299	4400
1548.502	4418
1550.703	4336
1552.905	4457
1555.104	4391
1557.303	4386
1559.505	4460
1561.703	4470
1563.902	4427
1566.099	4389
1568.295	4438
1570.494	4467
1572.689	4533
1574.883	4410
1577.079	4466
1579.272	4472
1581.467	4386
1583.659	4502
1585.853	4478
1588.044	4492
1590.234	4393
1592.424	4480
1594.615	4511
1596.806	4468
1598.994	4544
1601.182	4537
1603.369	4499
1605.557	4490
1607.744	4501
1609.929	4540
1612.114	4644
1614.298	4445
1616.482	4554
1618.667	4499
1620.85	4491
1623.032	4487
1625.214	4552
1627.395	4471
1629.575	4542
1631.755	4548
1633.935	4519
1636.114	4592
1638.292	4465
1640.471	4546
1642.647	4481
1644.823	4554
1647	4544
1649.175	4522
1651.348	4513
1653.525	4589
1655.698	4521
1657.87	4612
1660.043	4572
1662.213	4574
1664.387	4582
1666.558	4593
1668.727	4454
1670.896	4558
1673.064	4648
1675.233	4665
1677.401	4627
1679.569	4474
1681.735	4632
1683.902	4514
1686.066	4554
1688.233	4562
1690.397	4568
1692.559	4539
1694.723	4583
1696.885	4582
1699.048	4505
1701.21	4546
1703.37	4482
1705.53	4582
1707.689	4530
1709.849	4549
1712.009	4509
1714.166	4459
1716.323	4487
1718.479	4588
1720.634	4528
1722.793	4460
1724.948	4504
1727.102	4472
1729.255	4515
1731.408	4573
1733.562	4515
1735.714	4521
1737.865	4516
1740.016	4583
1742.166	4552
1744.316	4572
1746.467	4592
1748.616	4601
1750.764	4581
1752.911	4566
1755.056	4618
1757.205	4484
1759.35	4658
1761.496	4609
1763.641	4638
1765.785	4544
1767.927	4640
1770.072	4593
1772.214	4633
1774.355	4651
1776.496	4562
1778.637	4543
1780.778	4547
1782.918	4629
1785.057	4584
1787.194	4616
1789.333	4549
1791.472	4597
1793.608	4589
1795.745	4650
1797.879	4614
1800.015	4661
1802.148	4651
1804.284	4654
1806.417	4590
1808.548	4648
1810.682	4604
1812.812	4537
1814.946	4661
1817.075	4701
1819.205	4634
1821.335	4620
1823.463	4629
1825.59	4605
1827.721	4627
1829.847	4577
1831.973	4623
1834.098	4620
1836.223	4628
1838.351	4578
1840.475	4504
1842.598	4613
1844.721	4604
1846.843	4478
1848.966	4607
1851.087	4612
1853.21	4551
1855.33	4557
1857.449	4638
1859.568	4505
1861.688	4585
1863.806	4623
1865.924	4566
1868.039	4521
1870.155	4520
1872.273	4547
1874.388	4548
1876.503	4568
1878.617	4612
1880.73	4611
1882.844	4565
1884.956	4660
1887.068	4570
1889.18	4579
1891.291	4686
1893.4	4573
1895.511	4670
1897.621	4596
1899.73	4715
1901.837	4721
1903.944	4592
1906.053	4637
1908.159	4670
1910.265	4638
1912.369	4708
1914.474	4624
1916.577	4624
1918.683	4671
1920.785	4622
1922.888	4638
1924.989	4608
1927.091	4766
1929.193	4575
1931.294	4710
1933.393	4728
1935.493	4700
1937.59	4716
1939.689	4689
1941.788	4668
1943.884	4768
1945.98	4671
1948.077	4715
1950.171	4684
1952.267	4685
1954.361	4707
1956.455	4646
1958.548	4711
1960.64	4706
1962.733	4605
1964.824	4720
1966.915	4712
1969.005	4647
1971.096	4723
1973.185	4733
1975.275	4754
1977.363	4672
1979.45	4694
1981.537	4623
1983.623	4622
1985.711	4664
1987.796	4647
1989.881	4678
1991.965	4660
1994.047	4676
1996.132	4773
1998.215	4599
2000.297	4615
2002.378	4679
2004.46	4655
2006.54	4695
2008.62	4646
2010.7	4692
2012.779	4711
2014.858	4627
2016.934	4666
2019.013	4586
2021.09	4716
2023.165	4617
2025.241	4625
2027.317	4617
2029.39	4592
2031.466	4628
2033.538	4635
2035.612	4666
2037.683	4667
2039.755	4595
2041.827	4715
2043.898	4640
2045.968	4631
2048.038	4757
2050.106	4703
2052.177	4742
2054.244	4711
2056.313	4712
2058.379	4733
2060.444	4699
2062.511	4762
2064.577	4674
2066.641	4741
2068.705	4712
2070.77	4630
2072.832	4678
2074.896	4586
2076.958	4717
2079.02	4666
2081.081	4690
2083.141	4722
2085.2	4722
2087.261	4702
2089.319	4720
2091.377	4705
2093.435	4764
2095.492	4753
2097.552	4730
2099.607	4707
2101.663	4664
2103.718	4631
2105.771	4716
2107.826	4658
2109.879	4626
2111.932	4657
2113.985	4681
2116.037	4743
2118.088	4666
2120.141	4783
2122.191	4750
2124.239	4760
2126.288	4757
2128.337	4624
2130.387	4629
2132.434	4700
2134.481	4631
2136.528	4767
2138.574	4654
2140.618	4697
2142.665	4607
2144.71	4691
2146.753	4755
2148.797	4648
2150.838	4718
2152.883	4726
2154.923	4575
2156.965	4752
2159.007	4677
2161.046	4596
2163.086	4686
2165.126	4660
2167.163	4649
2169.202	4687
2171.239	4618
2173.277	4695
2175.314	4619
2177.349	4667
2179.385	4662
2181.42	4662
2183.453	4606
2185.49	4653
2187.522	4584
2189.555	4661
2191.586	4660
2193.619	4645
2195.651	4666
2197.682	4719
2199.711	4667
2201.74	4720
2203.769	4700
2205.799	4555
2207.828	4582
2209.855	4555
2211.882	4618
2213.908	4586
2215.934	4654
2217.961	4626
2219.986	4728
2222.01	4614
2224.034	4602
2226.057	4615
2228.08	4652
2230.104	4586
2232.124	4615
2234.145	4672
2236.166	4618
2238.186	4726
2240.207	4634
2242.227	4634
2244.244	4614
2246.262	4685
2248.28	4641
2250.299	4554
2252.314	4682
2254.33	4580
2256.346	4687
2258.36	4585
2260.375	4592
2262.391	4573
2264.403	4576
2266.416	4611
2268.427	4673
2270.44	4656
2272.453	4693
2274.463	4661
2276.474	4705
2278.483	4595
2280.493	4613
2282.501	4616
2284.51	4685
2286.518	4630
2288.524	4577
2290.532	4622
2292.537	4716
2294.544	4672
2296.55	4578
2298.554	4639
2300.557	4650
2302.562	4639
2304.566	4653
2306.568	4665
2308.569	4575
2310.572	4592
2312.573	4675
2314.573	4493
2316.574	4622
2318.573	4637
2320.571	4614
2322.571	4650
2324.569	4612
2326.567	4611
2328.564	4650
2330.56	4629
2332.556	4651
2334.551	4566
2336.546	4642
2338.542	4606
2340.535	4538
2342.529	4673
2344.521	4505
2346.512	4633
2348.505	4518
2350.497	4695
2352.487	4582
2354.478	4542
2356.468	4652
2358.457	4630
2360.446	4571
2362.434	4512
2364.422	4618
2366.408	4487
2368.395	4592
2370.383	4611
2372.369	4641
2374.353	4557
2376.338	4634
2378.321	4494
2380.307	4553
2382.29	4506
2384.272	4523
2386.254	4504
2388.235	4494
2390.218	4538
2392.198	4517
2394.179	4467
2396.157	4517
2398.137	4510
2400.115	4613
2402.095	4550
2404.072	4607
2406.048	4538
2408.026	4548
2410.001	4464
2411.977	4511
2413.953	4529
2415.927	4510
2417.9	4592
2419.875	4565
2421.847	4438
2423.821	4542
2425.792	4650
2427.763	4533
2429.736	4515
2431.706	4569
2433.677	4558
2435.646	4593
2437.615	4586
2439.583	4506
2441.551	4616
2443.519	4509
2445.486	4577
2447.452	4506
2449.418	4486
2451.383	4530
2453.348	4553
2455.314	4565
2457.278	4490
2459.241	4519
2461.205	4545
2463.167	4541
2465.131	4593
2467.091	4569
2469.052	4440
2471.012	4567
2472.972	4550
2474.932	4435
2476.891	4485
2478.85	4541
2480.808	4606
2482.766	4553
2484.722	4454
2486.68	4551
2488.636	4512
2490.591	4556
2492.546	4484
2494.5	4511
2496.456	4490
2498.41	4526
2500.362	4547
2502.315	4358
2504.266	4608
2506.218	4394
2508.169	4589
2510.121	4464
2512.07	4404
2514.019	4489
2515.968	4562
2517.918	4509
2519.866	4512
2521.813	4574
2523.76	4467
2525.707	4528
2527.653	4472
2529.599	4396
2531.543	4561
2533.489	4425
2535.433	4537
2537.376	4526
2539.32	4512
2541.264	4410
2543.205	4509
2545.147	4440
2547.087	4406
2549.029	4507
2550.969	4471
2552.908	4515
2554.847	4472
2556.786	4479
2558.724	4448
2560.663	4465
2562.6	4536
2564.537	4493
2566.473	4459
2568.408	4429
2570.345	4509
2572.28	4590
2574.214	4523
2576.148	4593
2578.081	4453
2580.014	4482
2581.947	4564
2583.879	4543
2585.81	4437
2587.741	4467
2589.67	4546
2591.602	4393
2593.532	4583
2595.461	4544
2597.388	4508
2599.316	4522
2601.244	4473
2603.172	4506
2605.098	4532
2607.023	4521
2608.949	4494
2610.873	4505
2612.8	4513
2614.723	4464
2616.647	4485
2618.569	4451
2620.493	4512
2622.416	4523
2624.338	4516
2626.258	4547
2628.179	4576
2630.099	4471
2632.019	4560
2633.939	4458
2635.857	4543
2637.775	4559
2639.694	4525
2641.61	4539
2643.528	4562
2645.444	4555
2647.361	4446
2649.276	4642
2651.19	4523
2653.105	4596
2655.019	4532
2656.934	4452
2658.846	4537
2660.758	4474
2662.67	4442
2664.583	4526
2666.493	4491
2668.404	4491
2670.313	4527
2672.223	4507
2674.134	4459
2676.042	4541
2677.95	4481
2679.858	4574
2681.765	4467
2683.673	4491
2685.579	4505
2687.483	4462
2689.389	4454
2691.294	4418
2693.198	4485
2695.104	4381
2697.006	4526
2698.909	4436
2700.811	4595
2702.713	4500
2704.615	4404
2706.516	4422
2708.417	4440
2710.316	4508
2712.216	4418
2714.115	4485
2716.014	4447
2717.913	4436
2719.81	4460
2721.707	4439
2723.603	4553
2725.501	4487
2727.396	4485
2729.292	4426
2731.186	4489
2733.081	4438
2734.976	4463
2736.87	4448
2738.762	4497
2740.653	4418
2742.546	4498
2744.437	4445
2746.329	4352
2748.22	4521
2750.11	4428
2751.999	4411
2753.889	4429
2755.778	4438
2757.666	4498
2759.553	4396
2761.44	4426
2763.328	4426
2765.215	4331
2767.101	4391
2768.986	4400
2770.87	4462
2772.754	4402
2774.638	4439
2776.523	4477
2778.405	4338
2780.288	4383
2782.17	4422
2784.051	4419
2785.934	4452
2787.814	4399
2789.694	4438
2791.574	4374
2793.453	4363
2795.332	4375
2797.212	4401
2799.088	4490
2800.966	4452
2802.843	4449
2804.719	4362
2806.597	4434
2808.471	4347
2810.346	4312
2812.221	4359
2814.094	4384
2815.969	4435
2817.843	4400
2819.714	4415
2821.587	4423
2823.459	4450
2825.329	4267
2827.202	4442
2829.072	4316
2830.942	4416
2832.811	4404
2834.68	4436
2836.549	4386
2838.418	4401
2840.284	4551
2842.152	4378
2844.018	4477
2845.885	4401
2847.751	4343
2849.616	4397
2851.482	4448
2853.345	4417
2855.208	4339
2857.074	4430
2858.937	4372
2860.799	4489
2862.66	4423
2864.522	4495
2866.385	4490
2868.245	4390
2870.104	4579
2871.964	4528
2873.824	4538
2875.683	4562
2877.542	4637
2879.4	4564
2881.257	4507
2883.114	4673
2884.97	4660
2886.827	4583
2888.683	4667
2890.537	4552
2892.392	4649
2894.246	4637
2896.1	4578
2897.954	4625
2899.807	4456
2901.66	4541
2903.51	4584
2905.362	4549
2907.214	4679
2909.065	4600
2910.915	4574
2912.765	4608
2914.613	4700
2916.463	4600
2918.311	4754
2920.158	4705
2922.006	4722
2923.853	4735
2925.698	4791
2927.546	4849
2929.392	4856
2931.236	4846
2933.081	4964
2934.924	4931
2936.77	4836
2938.613	4908
2940.455	5045
2942.298	4844
2944.139	4898
2945.982	4996
2947.823	4927
2949.662	4878
2951.503	4880
2953.342	4941
2955.182	4920
2957.021	4850
2958.858	4769
2960.697	4808
2962.534	4773
2964.37	4747
2966.207	4669
2968.044	4686
2969.879	4617
2971.714	4625
2973.548	4590
2975.383	4678
2977.218	4663
2979.051	4618
2980.883	4734
2982.715	4679
2984.547	4552
2986.379	4700
2988.21	4526
2990.04	4514
2991.87	4525
2993.7	4495
2995.53	4502
2997.359	4606
2999.187	4492
3001.015	4520
3002.842	4370
3004.669	4415
3006.497	4416
3008.323	4342
3010.148	4377
3011.974	4339
3013.797	4384
3015.623	4309
3017.447	4294
3019.27	4308
3021.094	4394
3022.915	4290
3024.737	4306
3026.56	4223
3028.38	4204
3030.201	4255
3032.022	4284
3033.84	4236
3035.662	4206
3037.481	4268
3039.298	4278
3041.117	4265
3042.933	4309
3044.752	4130
3046.568	4190
3048.385	4189
3050.2	4223
3052.016	4153
3053.83	4160
3055.646	4235
3057.46	4226
3059.272	4199
3061.086	4139
3062.898	4232
3064.711	4245
3066.524	4264
3068.335	4191
3070.145	4181
3071.956	4082
3073.766	4158
3075.576	4223
3077.385	4205
3079.193	4142
3081.002	4113
3082.81	4155
3084.618	4236
3086.425	4105
3088.231	4162
3090.036	4060
3091.842	4076
3093.648	4119
3095.452	4198
3097.257	4165
3099.06	4115
3100.863	4043
3102.666	4136
3104.47	4172
3106.272	4094
3108.073	4042
3109.875	4084
3111.676	4089
3113.477	4138
3115.277	4048
3117.077	4087
3118.874	4025
3120.673	4086
3122.473	4124
3124.271	4164
3126.066	4097
3127.863	4062
3129.66	4043
3131.456	3970
3133.252	4117
3135.047	4075
3136.842	4078
3138.635	4120
3140.429	4042
3142.223	4031
3144.016	3990
3145.808	4008
3147.6	4147
3149.392	3969
3151.183	4044
3152.975	4042
3154.765	4011
3156.553	4101
3158.344	4059
3160.132	3926
3161.922	4003
3163.71	4031
3165.497	3984
3167.285	4045
3169.071	3939
3170.858	4031
3172.645	3996
3174.429	4051
3176.214	4038
3177.998	4042
3179.783	3924
3181.568	4003
3183.351	4049
3185.133	3967
3186.915	3967
3188.698	3997
3190.481	4012
3192.261	3970
3194.042	4060
3195.822	3968
3197.601	4010
3199.381	3962
3201.161	3993
3202.939	3972
3204.717	3909
3206.495	3996
3208.272	4005
3210.05	3975
3211.826	3932
3213.602	3861
3215.376	3947
3217.151	4025
3218.927	4091
3220.702	3928
3222.476	4026
3224.249	3941
3226.021	4006
3227.793	3952
3229.567	3907
3231.339	3912
3233.109	3932
3234.88	3965
3236.651	3969
3238.421	3943
3240.191	3944
3241.96	3929
3243.728	3962
3245.497	3902
3247.263	4052
3249.033	3963
3250.799	3922
3252.566	3931
3254.331	3929
3256.097	3922
3257.863	4019
3259.628	3952
3261.392	3925
3263.156	3902
3264.919	3902
3266.683	3903
3268.447	4007
3270.208	3904
3271.969	3906
3273.731	3874
3275.492	3888
3277.253	3994
3279.013	3984
3280.773	3875
3282.532	3887
3284.291	3871
3286.05	3953
3287.808	3847
3289.566	3936
3291.323	3945
3293.079	3880
3294.835	4008
3296.593	3911
3298.348	3913
3300.102	3960
3301.857	3903
3303.611	3941
3305.366	3960
3307.119	3963
3308.872	3970
3310.624	4061
3312.376	3851
3314.129	3936
3315.881	3879
3317.631	3952
3319.38	3981
3321.13	3892
3322.88	4009
3324.631	3914
3326.379	3954
3328.126	3935
3329.875	3955
3331.622	3927
3333.371	4005
3335.116	3908
3336.863	3935
3338.609	3941
3340.353	3897
3342.1	3892
3343.845	3930
3345.588	3953
3347.332	3921
3349.074	3918
3350.817	3881
3352.56	3929
3354.303	3878
3356.043	3862
3357.785	3926
3359.525	3880
3361.268	3918
3363.007	3833
3364.745	3886
3366.485	3893
3368.223	3950
3369.962	3807
3371.701	3826
3373.438	3887
3375.174	3895
3376.911	3764
3378.647	3867
3380.384	3880
3382.118	3845
3383.854	3779
3385.588	3814
3387.322	3911
3389.057	3836
3390.79	3898
3392.522	3876
3394.255	3818
3395.987	3846
3397.719	3843
3399.451	3901
3401.181	3849
3402.911	3880
3404.641	3927
3406.371	3877
3408.101	3760
3409.83	3818
3411.558	3750
3413.285	3753
3415.011	3868
3416.739	3886
3418.467	3793
3420.193	3847
3421.919	3812
3423.644	3871
3425.368	3763
3427.094	3799
3428.818	3837
3430.542	3834
3432.264	3783
3433.987	3745
3435.712	3721
3437.434	3785
3439.155	3768
3440.876	3803
3442.596	3769
3444.317	3741
3446.039	3834
3447.757	3815
3449.477	3717
3451.195	3779
3452.914	3805
3454.632	3702
3456.35	3744
3458.067	3711
3459.784	3761
3461.5	3746
3463.216	3711
3464.932	3709
3466.647	3706
3468.362	3657
3470.076	3721
3471.789	3653
3473.505	3644
3475.217	3770
3476.929	3704
3478.641	3621
3480.354	3640
3482.066	3657
3483.777	3717
3485.487	3726
3487.197	3713
3488.908	3637
3490.617	3767
3492.327	3609
3494.035	3636
3495.743	3665
3497.451	3686
3499.158	3673
3500.866	3685
3502.572	3662
3504.278	3693
3505.984	3685
3507.689	3653
3509.396	3593
3511.1	3667
3512.804	3582
3514.508	3700
3516.211	3605
3517.913	3567
3519.616	3656
3521.319	3683
3523.021	3574
3524.722	3632
3526.422	3567
3528.124	3634
3529.824	3675
3531.524	3590
3533.222	3576
3534.921	3584
3536.62	3583
3538.318	3595
3540.016	3577
3541.714	3555
3543.41	3621
3545.107	3672
3546.803	3542
3548.5	3563
3550.194	3590
3551.889	3548
3553.583	3535
3555.279	3485
3556.972	3617
3558.666	3523
3560.358	3549
3562.051	3584
3563.742	3531
3565.435	3611
3567.126	3614
3568.817	3641
3570.507	3582
3572.197	3600
3573.888	3544
3575.577	3513
3577.265	3454
3578.954	3547
3580.642	3586
3582.329	3468
3584.017	3445
3585.704	3484
3587.391	3515
3589.077	3565
3590.762	3401
3592.449	3524
3594.133	3500
3595.817	3531
3597.501	3489
3599.185	3428
3600.869	3557
3602.552	3441
3604.234	3472
3605.916	3576
3607.598	3472
3609.279	3468
3610.961	3481
3612.642	3421
3614.321	3422
3616	3454
3617.68	3433
3619.36	3379
3621.039	3459
3622.716	3366
3624.394	3468
3626.071	3447
3627.748	3441
3629.425	3434
3631.102	3412
3632.778	3358
3634.452	3374
3636.127	3346
3637.803	3424
3639.477	3447
3641.151	3380
3642.823	3310
3644.497	3427
3646.171	3418
3647.842	3391
3649.515	3419
3651.185	3392
3652.857	3390
3654.527	3472
3656.198	3373
3657.868	3353
3659.537	3444
3661.207	3373
3662.875	3344
3664.544	3369
3666.212	3393
3667.879	3341
3669.546	3305
3671.212	3360
3672.88	3383
3674.546	3340
3676.211	3421
3677.875	3286
3679.541	3361
3681.205	3277
3682.87	3334
3684.533	3329
3686.196	3321
3687.859	3331
3689.521	3413
3691.184	3238
3692.845	3362
3694.507	3395
3696.167	3338
3697.827	3318
3699.487	3423
3701.148	3259
3702.808	3315
3704.466	3278
3706.125	3329
3707.783	3287
3709.442	3293
3711.099	3295
3712.757	3322
3714.412	3247
3716.068	3346
3717.725	3257
3719.381	3280
3721.036	3285
3722.689	3200
3724.344	3322
3725.998	3316
3727.652	3282
3729.305	3300
3730.958	3308
3732.61	3341
3734.262	3272
3735.915	3251
3737.565	3227
3739.217	3279
3740.866	3354
3742.516	3252
3744.165	3306
3745.816	3215
3747.464	3281
3749.113	3263
3750.761	3272
3752.409	3231
3754.057	3268
3755.703	3334
3757.35	3148
3758.996	3277
3760.641	3206
3762.289	3192
3763.933	3338
3765.577	3391
3767.222	3192
3768.865	3228
3770.508	3246
3772.152	3191
3773.796	3246
3775.438	3238
3777.079	3270
3778.721	3250
3780.363	3195
3782.003	3167
3783.643	3197
3785.283	3180
3786.923	3237
3788.563	3172
3790.203	3179
3791.841	3208
3793.479	3132
3795.115	3186
3796.753	3247
3798.391	3231
3800.027	3166
3801.664	3066
3803.299	3229
3804.935	3179
3806.571	3144
3808.206	3123
3809.839	3083
3811.473	3220
3813.107	3151
3814.74	3235
3816.375	3185
3818.006	3122
3819.638	3078
3821.27	3060
3822.9	3176
3824.532	3103
3826.163	3053
3827.792	3110
3829.423	3084
3831.051	3164
3832.682	3136
3834.311	3130
3835.938	3166
3837.566	3075
3839.193	3137
3840.821	3133
3842.448	3160
3844.075	3099
3845.7	3126
3847.325	3151
3848.951	3062
3850.576	3024
3852.201	3090
3853.825	3093
3855.448	3057
3857.072	3074
3858.694	3065
3860.318	3041
3861.939	3076
3863.562	3105
3865.183	3068
3866.804	3128
3868.426	3124
3870.045	3122
3871.666	3085
3873.285	3016
3874.904	3024
3876.524	3013
3878.142	3057
3879.76	3084
3881.378	3092
3882.995	3036
3884.612	3033
3886.229	2966
3887.845	3117
3889.461	3070
3891.076	3054
3892.691	2991
3894.307	3044
3895.922	3063
3897.536	2947
3899.149	3040
3900.761	3051
3902.374	2984
3903.988	3091
3905.6	3061
3907.212	3037
3908.822	3078
3910.433	2991
3912.045	3013
3913.655	3069
3915.265	3017
3916.875	3059
3918.483	3042
3920.093	3036
3921.702	2989
3923.309	2954
3924.917	3081
3926.523	3002
3928.13	2967
3929.739	3046
3931.344	3054
3932.95	2996
3934.555	3089
3936.159	3019
3937.766	3092
3939.369	2991
3940.974	3019
3942.577	3056
3944.181	3043
3945.783	2991
3947.386	2970
3948.989	3045
3950.59	2940
3952.191	3040
3953.791	2946
3955.394	2982
3956.994	3067
3958.593	2968
3960.192	2955
3961.791	3019
3963.392	2937
3964.99	2945
3966.588	2905
3968.185	2970
3969.782	2975
3971.379	2890
3972.976	3008
3974.572	2842
3976.168	2922
3977.763	2952
3979.358	2939
3980.954	2876
3982.548	2977
3984.142	2942
3985.736	2890
3987.329	2908
3988.922	2868
3990.516	2955
3992.108	2907
3993.698	2919
3995.29	2979
3996.881	2816
3998.473	2896
4000.064	2928
4001.653	2860
4003.242	2884
4004.832	2925
4006.422	2918
4008.01	2909
4009.598	2877
4011.186	2804
4012.773	2894
4014.36	2879
4015.947	2924
4017.534	2936
4019.119	2818
4020.705	2821
4022.291	2811
4023.876	2854
4025.461	2847
4027.044	2833
4028.627	2800
4030.211	2876
4031.795	2823
4033.378	2798
4034.96	2819
4036.542	2807
4038.124	2793
4039.704	2816
4041.286	2821
4042.867	2873
4044.447	2879
4046.026	2794
4047.606	2800
4049.187	2833
4050.765	2790
4052.343	2832
4053.92	2737
4055.498	2802
4057.076	2785
4058.654	2742
4060.23	2834
4061.806	2739
4063.381	2786
4064.957	2764
4066.533	2747
4068.107	2796
4069.682	2753
4071.256	2771
4072.829	2712
4074.404	2811
4075.977	2730
4077.549	2781
4079.121	2767
4080.693	2780
4082.265	2757
4083.836	2770
4085.407	2810
4086.977	2721
4088.547	2801
4090.117	2744
4091.687	2750
4093.256	2679
4094.825	2709
4096.392	2715
4097.96	2728
4099.528	2780
4101.097	2703
4102.663	2734
4104.229	2700
4105.795	2672
4107.361	2677
4108.928	2702
4110.493	2698
4112.058	2709
4113.621	2677
4115.186	2729
4116.75	2756
4118.313	2691
4119.876	2697
4121.438	2687
4123	2705
4124.562	2724
4126.125	2646
4127.686	2706
4129.246	2782
4130.807	2710
4132.367	2686
4133.927	2719
4135.486	2655
4137.046	2677
4138.604	2711
4140.162	2675
4141.72	2679
4143.279	2653
4144.836	2634
4146.393	2655
4147.949	2654
4149.505	2620
4151.062	2652
4152.617	2602
4154.172	2662
4155.727	2644
4157.281	2660
4158.836	2615
4160.39	2623
4161.943	2703
4163.496	2693
4165.048	2572
4166.601	2617
4168.154	2617
4169.706	2567
4171.257	2634
4172.808	2623
4174.358	2578
4175.909	2617
4177.458	2573
4179.008	2519
4180.558	2612
4182.106	2557
4183.655	2579
4185.204	2611
4186.751	2604
4188.298	2624
4189.845	2545
4191.392	2581
4192.939	2569
4194.485	2623
4196.031	2572
4197.576	2554
4199.121	2541
4200.666	2584
4202.211	2497
4203.754	2612
4205.298	2575
4206.84	2597
4208.384	2521
4209.927	2627
4211.47	2585
4213.011	2601
4214.552	2575
4216.094	2575
4217.635	2535
4219.175	2529
4220.716	2568
4222.255	2585
4223.793	2561
4225.335	2518
4226.873	2477
4228.411	2528
4229.948	2493
4231.486	2552
4233.024	2497
4234.562	2488
4236.098	2601
4237.634	2528
4239.169	2548
4240.705	2553
4242.241	2466
4243.776	2504
4245.31	2466
4246.844	2490
4248.378	2516
4249.911	2520
4251.445	2577
4252.978	2447
4254.51	2541
4256.042	2518
4257.574	2465
4259.107	2487
4260.638	2479
4262.169	2467
4263.699	2495
4265.228	2545
4266.759	2503
4268.289	2484
4269.818	2512
4271.345	2461
4272.874	2503
4274.402	2451
4275.931	2478
4277.458	2495
4278.985	2454
4280.512	2456
4282.037	2489
4283.564	2413
4285.089	2474
4286.615	2388
4288.139	2468
4289.664	2491
4291.187	2438
4292.712	2476
4294.235	2380
4295.759	2426
4297.281	2454
4298.804	2516
4300.327	2432
4301.849	2448
4303.37	2435
4304.891	2434
4306.412	2473
4307.933	2378
4309.453	2415
4310.973	2437
4312.492	2406
