398.1873	2790
400.7097	2821
403.2336	2898
405.7547	2917
408.2751	2863
410.7948	2874
413.3138	2953
415.83	2913
418.3497	2966
420.8666	2965
423.3829	2999
425.8985	2995
428.4133	3060
430.9275	3057
433.441	3032
435.9538	2982
438.4639	3028
440.9753	3012
443.4881	3032
445.9982	3035
448.5055	3060
451.0142	2989
453.5201	3011
456.0274	3002
458.5361	2987
461.04	2978
463.5453	3016
466.0478	3022
468.5517	3059
471.0549	3082
473.5574	3060
476.0572	3083
478.5584	3031
481.0568	3063
483.5545	2978
486.0557	3017
488.5521	3084
491.0478	3143
493.5449	3040
496.0392	3120
498.5349	3140
501.0299	3101
503.5222	3104
506.0139	3094
508.5048	3139
510.9991	3154
513.4887	3105
515.9777	3103
518.4659	3124
520.9534	3204
523.4403	3159
525.9306	3130
528.4161	3145
530.9009	3182
533.3851	3187
535.8687	3121
538.3535	3173
540.8356	3115
543.3171	3072
545.7979	3172
548.278	3125
550.7595	3252
553.2383	3126
555.7144	3206
558.1918	3205
560.6685	3153
563.1446	3125
565.6221	3213
568.0968	3200
570.5688	3133
573.0422	3202
575.515	3226
577.989	3285
580.4584	3239
582.9291	3330
585.3991	3271
587.8685	3308
590.3352	3346
592.8052	3381
595.2706	3237
597.7372	3255
600.2033	3267
602.6666	3279
605.1334	3289
607.5953	3221
610.0587	3210
612.5193	3239
614.9814	3245
617.4427	3348
619.9034	3213
622.3615	3232
624.8208	3282
627.2775	3220
629.7335	3237
632.1929	3261
634.6476	3302
637.1016	3210
639.5569	3269
642.0096	3241
644.4637	3294
646.9151	3297
649.3678	3279
651.8179	3300
654.2672	3278
656.7159	3298
659.166	3274
661.6154	3288
664.0622	3318
666.5082	3251
668.9537	3327
671.4005	3346
673.8445	3271
676.288	3344
678.7308	3385
681.1729	3383
683.6163	3275
686.0572	3362
688.4973	3336
690.9368	3386
693.3757	3360
695.8138	3364
698.2534	3412
700.6902	3387
703.1245	3359
705.56	3462
707.9949	3426
710.4311	3441
712.8647	3343
715.2957	3451
717.7279	3434
720.1595	3293
722.5905	3367
725.0208	3402
727.4505	3492
729.8795	3492
732.3058	3513
734.7336	3450
737.1626	3449
739.587	3439
742.0128	3517
744.4359	3459
746.8604	3524
749.2841	3568
751.7073	3585
754.1278	3506
756.5496	3529
758.9688	3522
761.3893	3520
763.8093	3538
766.2285	3519
768.6451	3611
771.0611	3555
773.4784	3616
775.895	3631
778.3091	3665
780.7244	3678
783.1371	3566
785.5493	3584
787.9626	3606
790.3754	3611
792.7856	3614
795.1951	3609
797.6039	3628
800.0121	3553
802.4236	3584
804.8306	3499
807.2369	3543
809.6425	3558
812.0475	3618
814.4538	3537
816.8575	3621
819.2606	3581
821.663	3627
824.0648	3577
826.4659	3581
828.8683	3649
831.2682	3713
833.6674	3583
836.066	3687
838.4639	3652
840.8632	3641
843.2579	3627
845.6539	3620
848.0493	3649
850.444	3733
852.84	3687
855.2315	3717
857.6243	3711
860.0165	3635
862.4081	3671
864.797	3639
867.1892	3643
869.5789	3696
871.9659	3698
874.3542	3650
876.74	3702
879.129	3655
881.5155	3677
883.8994	3739
886.2845	3772
888.6671	3625
891.051	3710
893.4343	3721
895.8169	3656
898.197	3606
900.5783	3647
902.9571	3610
905.3372	3712
907.7167	3728
910.0936	3724
912.4698	3639
914.8474	3805
917.2244	3743
919.5987	3768
921.9744	3803
924.3475	3695
926.72	3757
929.0918	3755
931.4669	3783
933.8375	3850
936.2074	3852
938.5767	3849
940.9454	3937
943.3154	3984
945.6829	3921
948.0497	4069
950.4178	4103
952.7833	4273
955.1483	4307
957.5145	4543
959.8782	4510
962.2412	4452
964.6036	4429
966.9655	4286
969.3266	4207
971.6871	4094
974.0471	3940
976.4064	3937
978.765	3804
981.125	3895
983.4824	3817
985.8373	3836
988.1935	3755
990.549	3771
992.9039	3852
995.2602	3835
997.6119	3870
999.965	3792
1002.317	3832
1004.667	3819
1007.02	3826
1009.371	3784
1011.719	3858
1014.068	3845
1016.415	3826
1018.765	3780
1021.111	3797
1023.458	3828
1025.804	3891
1028.147	3892
1030.49	3836
1032.837	3916
1035.179	3927
1037.522	3841
1039.862	3866
1042.204	3933
1044.546	3937
1046.884	3918
1049.224	3922
1051.562	3840
1053.899	3942
1056.237	3899
1058.575	3974
1060.91	3937
1063.244	3944
1065.58	4039
1067.913	4053
1070.248	3957
1072.579	3992
1074.911	4000
1077.242	3965
1079.572	3881
1081.905	3983
1084.234	3962
1086.562	3980
1088.89	3833
1091.217	3929
1093.544	4008
1095.871	3957
1098.197	3960
1100.521	4006
1102.845	3926
1105.169	3895
1107.491	3902
1109.814	3835
1112.135	3930
1114.456	3918
1116.776	3899
1119.096	3909
1121.415	3957
1123.734	3832
1126.052	3985
1128.369	3936
1130.686	3924
1133.002	3915
1135.318	3920
1137.632	3914
1139.945	4085
1142.258	3929
1144.573	3923
1146.884	3886
1149.196	3936
1151.505	3974
1153.816	3994
1156.124	4006
1158.435	3951
1160.742	4009
1163.051	3896
1165.356	3910
1167.663	4039
1169.97	3918
1172.276	3917
1174.579	3971
1176.881	3957
1179.186	3970
1181.487	4049
1183.79	3952
1186.092	3912
1188.392	3931
1190.691	3981
1192.991	3931
1195.291	3935
1197.588	4003
1199.885	3889
1202.181	3978
1204.479	3945
1206.775	3994
1209.07	3902
1211.363	3921
1213.656	3984
1215.949	3980
1218.241	3894
1220.534	4036
1222.825	3959
1225.115	4174
1227.405	4061
1229.693	4124
1231.984	4075
1234.271	4106
1236.558	4003
1238.845	4000
1241.131	4120
1243.416	4017
1245.703	4084
1247.987	4055
1250.269	4090
1252.552	4027
1254.834	4041
1257.118	4046
1259.399	4076
1261.678	4066
1263.958	4103
1266.237	4104
1268.516	4092
1270.794	4034
1273.072	4033
1275.347	4187
1277.624	4081
1279.899	4135
1282.175	4134
1284.449	4084
1286.722	4102
1288.995	3996
1291.266	4071
1293.54	4005
1295.81	4136
1298.081	4056
1300.35	4103
1302.62	4068
1304.889	4099
1307.156	4073
1309.425	4104
1311.69	4094
1313.957	4019
1316.222	3995
1318.488	4048
1320.751	4042
1323.016	4150
1325.278	4041
1327.54	4075
1329.803	4104
1332.065	4115
1334.325	4033
1336.584	4149
1338.843	4119
1341.101	4020
1343.36	4131
1345.617	3979
1347.876	4086
1350.131	4029
1352.387	4051
1354.643	4026
1356.897	4058
1359.151	4093
1361.403	4138
1363.656	4060
1365.909	4090
1368.16	4153
1370.409	4026
1372.659	4075
1374.909	4148
1377.157	4060
1379.407	4094
1381.655	4111
1383.9	4112
1386.147	4049
1388.393	4085
1390.64	4098
1392.885	4167
1395.127	4088
1397.37	4220
1399.614	4163
1401.854	4153
1404.098	4122
1406.339	4130
1408.578	4134
1410.818	4132
1413.056	4185
1415.297	4180
1417.533	4226
1419.771	4092
1422.006	4252
1424.243	4235
1426.479	4288
1428.715	4218
1430.948	4166
1433.182	4258
1435.414	4299
1437.647	4231
1439.88	4201
1442.11	4283
1444.342	4313
1446.571	4241
1448.799	4245
1451.029	4253
1453.258	4284
1455.485	4225
1457.711	4286
1459.937	4278
1462.164	4210
1464.39	4197
1466.614	4331
1468.838	4291
1471.06	4280
1473.283	4215
1475.506	4275
1477.727	4203
1479.949	4288
1482.169	4189
1484.389	4160
1486.609	4171
1488.828	4168
1491.045	4102
1493.261	4149
1495.477	4166
1497.693	4104
1499.91	4127
1502.125	4129
1504.339	4189
1506.553	4191
1508.766	4156
1510.979	4211
1513.191	4116
1515.402	4188
1517.613	4103
1519.823	4078
1522.033	4072
1524.242	4101
1526.451	4156
1528.657	4112
1530.865	4178
1533.072	4125
1535.278	4197
1537.484	4209
1539.687	4216
1541.892	4165
1544.096	4178
1546.299	4161
1548.502	4216
1550.703	4248
1552.905	4170
1555.104	4173
1557.303	4168
1559.505	4258
1561.703	4148
1563.902	4157
1566.099	4276
1568.295	4235
1570.494	4232
1572.689	4309
1574.883	4281
1577.079	4301
1579.272	4202
1581.467	4227
1583.659	4184
1585.853	4189
1588.044	4302
1590.234	4322
1592.424	4336
1594.615	4305
1596.806	4268
1598.994	4285
1601.182	4246
1603.369	4212
1605.557	4333
1607.744	4297
1609.929	4377
1612.114	4297
1614.298	4278
1616.482	4434
1618.667	4292
1620.85	4366
1623.032	4395
1625.214	4282
1627.395	4329
1629.575	4280
1631.755	4344
1633.935	4344
1636.114	4412
1638.292	4402
1640.471	4322
1642.647	4364
1644.823	4399
1647	4325
1649.175	4427
1651.348	4298
1653.525	4328
1655.698	4430
1657.87	4364
1660.043	4339
1662.213	4387
1664.387	4451
1666.558	4406
1668.727	4395
1670.896	4404
1673.064	4313
1675.233	4459
1677.401	4353
1679.569	4427
1681.735	4425
1683.902	4365
1686.066	4448
1688.233	4421
1690.397	4321
1692.559	4378
1694.723	4368
1696.885	4427
1699.048	4361
1701.21	4394
1703.37	4327
1705.53	4262
1707.689	4365
1709.849	4341
1712.009	4228
1714.166	4378
1716.323	4280
1718.479	4326
1720.634	4330
1722.793	4360
1724.948	4324
1727.102	4351
1729.255	4323
1731.408	4346
1733.562	4335
1735.714	4292
1737.865	4342
1740.016	4458
1742.166	4396
1744.316	4325
1746.467	4299
1748.616	4355
1750.764	4383
1752.911	4385
1755.056	4408
1757.205	4371
1759.35	4370
1761.496	4394
1763.641	4391
1765.785	4382
1767.927	4319
1770.072	4338
1772.214	4349
1774.355	4413
1776.496	4391
1778.637	4389
1780.778	4383
1782.918	4355
1785.057	4392
1787.194	4482
1789.333	4361
1791.472	4384
1793.608	4466
1795.745	4387
1797.879	4440
1800.015	4406
1802.148	4417
1804.284	4475
1806.417	4392
1808.548	4476
1810.682	4383
1812.812	4414
1814.946	4292
1817.075	4411
1819.205	4328
1821.335	4392
1823.463	4456
1825.59	4382
1827.721	4493
1829.847	4324
1831.973	4361
1834.098	4318
1836.223	4331
1838.351	4374
1840.475	4441
1842.598	4343
1844.721	4306
1846.843	4335
1848.966	4456
1851.087	4396
1853.21	4439
1855.33	4418
1857.449	4346
1859.568	4317
1861.688	4409
1863.806	4425
1865.924	4401
1868.039	4407
1870.155	4370
1872.273	4426
1874.388	4394
1876.503	4307
1878.617	4377
1880.73	4393
1882.844	4395
1884.956	4391
1887.068	4362
1889.18	4467
1891.291	4392
1893.4	4444
1895.511	4473
1897.621	4426
1899.73	4368
1901.837	4412
1903.944	4390
1906.053	4345
1908.159	4499
1910.265	4399
1912.369	4464
1914.474	4511
1916.577	4484
1918.683	4504
1920.785	4403
1922.888	4450
1924.989	4431
1927.091	4527
1929.193	4455
1931.294	4514
1933.393	4476
1935.493	4443
1937.59	4474
1939.689	4539
1941.788	4481
1943.884	4520
1945.98	4513
1948.077	4371
1950.171	4481
1952.267	4534
1954.361	4533
1956.455	4547
1958.548	4482
1960.64	4530
1962.733	4477
1964.824	4446
1966.915	4453
1969.005	4481
1971.096	4506
1973.185	4492
1975.275	4481
1977.363	4471
1979.45	4452
1981.537	4489
1983.623	4451
1985.711	4529
1987.796	4543
1989.881	4458
1991.965	4431
1994.047	4442
1996.132	4436
1998.215	4323
2000.297	4368
2002.378	4507
2004.46	4531
2006.54	4509
2008.62	4440
2010.7	4442
2012.779	4400
2014.858	4450
2016.934	4417
2019.013	4420
2021.09	4356
2023.165	4419
2025.241	4506
2027.317	4479
2029.39	4496
2031.466	4479
2033.538	4468
2035.612	4416
2037.683	4565
2039.755	4483
2041.827	4439
2043.898	4475
2045.968	4489
2048.038	4503
2050.106	4441
2052.177	4515
2054.244	4389
2056.313	4454
2058.379	4501
2060.444	4470
2062.511	4552
2064.577	4497
2066.641	4609
2068.705	4495
2070.77	4581
2072.832	4517
2074.896	4465
2076.958	4489
2079.02	4545
2081.081	4557
2083.141	4487
2085.2	4496
2087.261	4578
2089.319	4436
2091.377	4472
2093.435	4444
2095.492	4498
2097.552	4426
2099.607	4457
2101.663	4610
2103.718	4523
2105.771	4541
2107.826	4544
2109.879	4554
2111.932	4555
2113.985	4561
2116.037	4540
2118.088	4511
2120.141	4429
2122.191	4503
2124.239	4489
2126.288	4556
2128.337	4492
2130.387	4530
2132.434	4513
2134.481	4535
2136.528	4511
2138.574	4471
2140.618	4480
2142.665	4467
2144.71	4367
2146.753	4462
2148.797	4432
2150.838	4481
2152.883	4520
2154.923	4479
2156.965	4480
2159.007	4457
2161.046	4480
2163.086	4404
2165.126	4451
2167.163	4395
2169.202	4535
2171.239	4485
2173.277	4424
2175.314	4465
2177.349	4390
2179.385	4446
2181.42	4506
2183.453	4413
2185.49	4404
2187.522	4410
2189.555	4499
2191.586	4523
2193.619	4349
2195.651	4441
2197.682	4368
2199.711	4479
2201.74	4480
2203.769	4352
2205.799	4432
2207.828	4413
2209.855	4477
2211.882	4460
2213.908	4375
2215.934	4446
2217.961	4460
2219.986	4426
2222.01	4465
2224.034	4447
2226.057	4399
2228.08	4378
2230.104	4406
2232.124	4438
2234.145	4443
2236.166	4419
2238.186	4474
2240.207	4450
2242.227	4411
2244.244	4457
2246.262	4422
2248.28	4378
2250.299	4508
2252.314	4477
2254.33	4443
2256.346	4428
2258.36	4423
2260.375	4438
2262.391	4399
2264.403	4386
2266.416	4364
2268.427	4362
2270.44	4452
2272.453	4417
2274.463	4357
2276.474	4361
2278.483	4359
2280.493	4436
2282.501	4329
2284.51	4430
2286.518	4364
2288.524	4446
2290.532	4395
2292.537	4456
2294.544	4298
2296.55	4402
2298.554	4448
2300.557	4447
2302.562	4486
2304.566	4389
2306.568	4456
2308.569	4385
2310.572	4480
2312.573	4501
2314.573	4339
2316.574	4429
2318.573	4385
2320.571	4353
2322.571	4420
2324.569	4496
2326.567	4475
2328.564	4459
2330.56	4335
2332.556	4371
2334.551	4474
2336.546	4351
2338.542	4283
2340.535	4375
2342.529	4352
2344.521	4420
2346.512	4352
2348.505	4321
2350.497	4352
2352.487	4355
2354.478	4377
2356.468	4293
2358.457	4374
2360.446	4377
2362.434	4417
2364.422	4394
2366.408	4340
2368.395	4262
2370.383	4341
2372.369	4312
2374.353	4386
2376.338	4332
2378.321	4326
2380.307	4378
2382.29	4343
2384.272	4329
2386.254	4288
2388.235	4429
2390.218	4302
2392.198	4315
2394.179	4295
2396.157	4410
2398.137	4358
2400.115	4332
2402.095	4362
2404.072	4342
2406.048	4371
2408.026	4298
2410.001	4295
2411.977	4345
2413.953	4304
2415.927	4329
2417.9	4367
2419.875	4289
2421.847	4322
2423.821	4314
2425.792	4455
2427.763	4259
2429.736	4369
2431.706	4344
2433.677	4386
2435.646	4237
2437.615	4348
2439.583	4369
2441.551	4353
2443.519	4309
2445.486	4253
2447.452	4315
2449.418	4383
2451.383	4337
2453.348	4353
2455.314	4337
2457.278	4248
2459.241	4372
2461.205	4289
2463.167	4274
2465.131	4398
2467.091	4330
2469.052	4257
2471.012	4306
2472.972	4371
2474.932	4219
2476.891	4210
2478.85	4283
2480.808	4279
2482.766	4372
2484.722	4287
2486.68	4330
2488.636	4314
2490.591	4376
2492.546	4296
2494.5	4237
2496.456	4343
2498.41	4180
2500.362	4333
2502.315	4228
2504.266	4248
2506.218	4208
2508.169	4201
2510.121	4326
2512.07	4349
2514.019	4262
2515.968	4312
2517.918	4232
2519.866	4246
2521.813	4268
2523.76	4234
2525.707	4268
2527.653	4307
2529.599	4254
2531.543	4252
2533.489	4309
2535.433	4191
2537.376	4296
2539.32	4367
2541.264	4211
2543.205	4190
2545.147	4231
2547.087	4260
2549.029	4273
2550.969	4335
2552.908	4203
2554.847	4256
2556.786	4267
2558.724	4265
2560.663	4231
2562.6	4268
2564.537	4272
2566.473	4250
2568.408	4293
2570.345	4269
2572.28	4312
2574.214	4250
2576.148	4303
2578.081	4201
2580.014	4294
2581.947	4305
2583.879	4298
2585.81	4231
2587.741	4375
2589.67	4297
2591.602	4292
2593.532	4187
2595.461	4290
2597.388	4289
2599.316	4295
2601.244	4272
2603.172	4256
2605.098	4256
2607.023	4339
2608.949	4356
2610.873	4246
2612.8	4330
2614.723	4290
2616.647	4354
2618.569	4313
2620.493	4361
2622.416	4320
2624.338	4246
2626.258	4400
2628.179	4324
2630.099	4274
2632.019	4299
2633.939	4319
2635.857	4217
2637.775	4338
2639.694	4419
2641.61	4234
2643.528	4355
2645.444	4316
2647.361	4320
2649.276	4281
2651.19	4327
2653.105	4350
2655.019	4357
2656.934	4386
2658.846	4330
2660.758	4342
2662.67	4360
2664.583	4329
2666.493	4392
2668.404	4341
2670.313	4292
2672.223	4348
2674.134	4360
2676.042	4258
2677.95	4340
2679.858	4244
2681.765	4251
2683.673	4260
2685.579	4196
2687.483	4253
2689.389	4232
2691.294	4274
2693.198	4203
2695.104	4141
2697.006	4320
2698.909	4228
2700.811	4302
2702.713	4227
2704.615	4315
2706.516	4276
2708.417	4215
2710.316	4241
2712.216	4183
2714.115	4287
2716.014	4250
2717.913	4261
2719.81	4193
2721.707	4219
2723.603	4255
2725.501	4279
2727.396	4302
2729.292	4184
2731.186	4338
2733.081	4220
2734.976	4215
2736.87	4143
2738.762	4269
2740.653	4159
2742.546	4258
2744.437	4155
2746.329	4298
2748.22	4321
2750.11	4176
2751.999	4207
2753.889	4329
2755.778	4248
2757.666	4187
2759.553	4186
2761.44	4238
2763.328	4265
2765.215	4284
2767.101	4222
2768.986	4239
2770.87	4157
2772.754	4215
2774.638	4233
2776.523	4210
2778.405	4316
2780.288	4164
2782.17	4194
2784.051	4222
2785.934	4193
2787.814	4172
2789.694	4240
2791.574	4188
2793.453	4191
2795.332	4207
2797.212	4198
2799.088	4206
2800.966	4175
2802.843	4197
2804.719	4172
2806.597	4294
2808.471	4179
2810.346	4144
2812.221	4165
2814.094	4256
2815.969	4167
2817.843	4182
2819.714	4246
2821.587	4076
2823.459	4163
2825.329	4069
2827.202	4209
2829.072	4167
2830.942	4181
2832.811	4195
2834.68	4223
2836.549	4123
2838.418	4163
2840.284	4218
2842.152	4210
2844.018	4116
2845.885	4130
2847.751	4266
2849.616	4218
2851.482	4301
2853.345	4250
2855.208	4209
2857.074	4246
2858.937	4304
2860.799	4257
2862.66	4314
2864.522	4271
2866.385	4216
2868.245	4200
2870.104	4334
2871.964	4297
2873.824	4259
2875.683	4434
2877.542	4320
2879.4	4358
2881.257	4382
2883.114	4313
2884.97	4383
2886.827	4340
2888.683	4243
2890.537	4404
2892.392	4216
2894.246	4379
2896.1	4367
2897.954	4327
2899.807	4377
2901.66	4388
2903.51	4357
2905.362	4339
2907.214	4359
2909.065	4355
2910.915	4451
2912.765	4395
2914.613	4389
2916.463	4469
2918.311	4514
2920.158	4465
2922.006	4497
2923.853	4511
2925.698	4568
2927.546	4539
2929.392	4543
2931.236	4638
2933.081	4644
2934.924	4594
2936.77	4631
2938.613	4601
2940.455	4729
2942.298	4649
2944.139	4644
2945.982	4681
2947.823	4708
2949.662	4614
2951.503	4708
2953.342	4649
2955.182	4636
2957.021	4483
2958.858	4495
2960.697	4597
2962.534	4494
2964.37	4461
2966.207	4520
2968.044	4441
2969.879	4489
2971.714	4384
2973.548	4407
2975.383	4471
2977.218	4368
2979.051	4458
2980.883	4360
2982.715	4312
2984.547	4360
2986.379	4389
2988.21	4297
2990.04	4339
2991.87	4280
2993.7	4334
2995.53	4182
2997.359	4246
2999.187	4277
3001.015	4264
3002.842	4189
3004.669	4211
3006.497	4189
3008.323	4110
3010.148	4079
3011.974	4195
3013.797	4179
3015.623	4150
3017.447	4083
3019.27	4160
3021.094	4098
3022.915	4085
3024.737	4112
3026.56	4017
3028.38	4040
3030.201	4067
3032.022	4128
3033.84	4106
3035.662	3917
3037.481	4138
3039.298	4074
3041.117	4066
3042.933	4128
3044.752	4022
3046.568	4047
3048.385	4005
3050.2	4009
3052.016	3974
3053.83	4013
3055.646	4065
3057.46	3863
3059.272	3942
3061.086	3985
3062.898	3950
3064.711	4046
3066.524	4012
3068.335	3950
3070.145	4027
3071.956	3954
3073.766	3961
3075.576	4047
3077.385	4034
3079.193	4040
3081.002	3869
3082.81	3989
3084.618	3998
3086.425	3946
3088.231	3914
3090.036	3890
3091.842	3949
3093.648	3958
3095.452	3904
3097.257	3871
3099.06	3980
3100.863	3902
3102.666	3998
3104.47	3919
3106.272	3959
3108.073	3909
3109.875	3836
3111.676	3937
3113.477	3937
3115.277	3873
3117.077	3996
3118.874	3995
3120.673	3904
3122.473	3814
3124.271	3865
3126.066	3860
3127.863	3854
3129.66	3898
3131.456	3832
3133.252	3835
3135.047	3891
3136.842	3865
3138.635	3854
3140.429	3743
3142.223	3836
3144.016	3924
3145.808	3748
3147.6	3807
3149.392	3844
3151.183	3793
3152.975	3849
3154.765	3821
3156.553	3830
3158.344	3820
3160.132	3796
3161.922	3773
3163.71	3760
3165.497	3747
3167.285	3813
3169.071	3788
3170.858	3777
3172.645	3806
3174.429	3816
3176.214	3804
3177.998	3795
3179.783	3828
3181.568	3831
3183.351	3737
3185.133	3729
3186.915	3775
3188.698	3871
3190.481	3797
3192.261	3766
3194.042	3726
3195.822	3850
3197.601	3787
3199.381	3772
3201.161	3693
3202.939	3789
3204.717	3772
3206.495	3735
3208.272	3811
3210.05	3793
3211.826	3747
3213.602	3728
3215.376	3795
3217.151	3785
3218.927	3778
3220.702	3733
3222.476	3713
3224.249	3773
3226.021	3759
3227.793	3761
3229.567	3817
3231.339	3820
3233.109	3740
3234.88	3806
3236.651	3795
3238.421	3796
3240.191	3785
3241.96	3696
3243.728	3722
3245.497	3721
3247.263	3794
3249.033	3734
3250.799	3746
3252.566	3752
3254.331	3777
3256.097	3733
3257.863	3721
3259.628	3843
3261.392	3800
3263.156	3771
3264.919	3819
3266.683	3777
3268.447	3762
3270.208	3738
3271.969	3763
3273.731	3735
3275.492	3752
3277.253	3845
3279.013	3651
3280.773	3779
3282.532	3678
3284.291	3766
3286.05	3732
3287.808	3764
3289.566	3775
3291.323	3725
3293.079	3806
3294.835	3796
3296.593	3751
3298.348	3752
3300.102	3675
3301.857	3676
3303.611	3792
3305.366	3812
3307.119	3775
3308.872	3782
3310.624	3799
3312.376	3819
3314.129	3803
3315.881	3838
3317.631	3742
3319.38	3652
3321.13	3744
3322.88	3673
3324.631	3695
3326.379	3695
3328.126	3778
3329.875	3751
3331.622	3740
3333.371	3730
3335.116	3738
3336.863	3661
3338.609	3756
3340.353	3702
3342.1	3693
3343.845	3713
3345.588	3750
3347.332	3698
3349.074	3644
3350.817	3668
3352.56	3670
3354.303	3668
3356.043	3689
3357.785	3667
3359.525	3699
3361.268	3647
3363.007	3746
3364.745	3669
3366.485	3679
3368.223	3653
3369.962	3656
3371.701	3740
3373.438	3615
3375.174	3745
3376.911	3687
3378.647	3676
3380.384	3591
3382.118	3674
3383.854	3661
3385.588	3700
3387.322	3596
3389.057	3577
3390.79	3767
3392.522	3687
3394.255	3614
3395.987	3676
3397.719	3680
3399.451	3624
3401.181	3629
3402.911	3636
3404.641	3667
3406.371	3580
3408.101	3563
3409.83	3673
3411.558	3707
3413.285	3655
3415.011	3730
3416.739	3579
3418.467	3637
3420.193	3651
3421.919	3642
3423.644	3722
3425.368	3659
3427.094	3580
3428.818	3570
3430.542	3560
3432.264	3609
3433.987	3630
3435.712	3569
3437.434	3620
3439.155	3649
3440.876	3535
3442.596	3613
3444.317	3552
3446.039	3605
3447.757	3629
3449.477	3502
3451.195	3569
3452.914	3645
3454.632	3542
3456.35	3591
3458.067	3508
3459.784	3426
3461.5	3535
3463.216	3574
3464.932	3520
3466.647	3464
3468.362	3526
3470.076	3498
3471.789	3532
3473.505	3580
3475.217	3464
3476.929	3556
3478.641	3467
3480.354	3498
3482.066	3503
3483.777	3528
3485.487	3455
3487.197	3536
3488.908	3483
3490.617	3493
3492.327	3520
3494.035	3557
3495.743	3517
3497.451	3472
3499.158	3371
3500.866	3501
3502.572	3493
3504.278	3496
3505.984	3562
3507.689	3528
3509.396	3468
3511.1	3333
3512.804	3450
3514.508	3469
3516.211	3483
3517.913	3465
3519.616	3370
3521.319	3410
3523.021	3464
3524.722	3361
3526.422	3370
3528.124	3485
3529.824	3366
3531.524	3407
3533.222	3369
3534.921	3457
3536.62	3377
3538.318	3475
3540.016	3407
3541.714	3414
3543.41	3422
3545.107	3437
3546.803	3373
3548.5	3388
3550.194	3400
3551.889	3398
3553.583	3420
3555.279	3381
3556.972	3398
3558.666	3450
3560.358	3417
3562.051	3375
3563.742	3319
3565.435	3355
3567.126	3312
3568.817	3337
3570.507	3378
3572.197	3456
3573.888	3378
3575.577	3366
3577.265	3338
3578.954	3311
3580.642	3376
3582.329	3317
3584.017	3303
3585.704	3307
3587.391	3349
3589.077	3300
3590.762	3380
3592.449	3378
3594.133	3353
3595.817	3253
3597.501	3380
3599.185	3288
3600.869	3296
3602.552	3316
3604.234	3234
3605.916	3325
3607.598	3264
3609.279	3304
3610.961	3274
3612.642	3257
3614.321	3296
3616	3217
3617.68	3217
3619.36	3251
3621.039	3263
3622.716	3307
3624.394	3284
3626.071	3214
3627.748	3291
3629.425	3275
3631.102	3172
3632.778	3244
3634.452	3184
3636.127	3244
3637.803	3285
3639.477	3218
3641.151	3296
3642.823	3244
3644.497	3247
3646.171	3211
3647.842	3172
3649.515	3164
3651.185	3199
3652.857	3206
3654.527	3220
3656.198	3272
3657.868	3235
3659.537	3206
3661.207	3141
3662.875	3273
3664.544	3229
3666.212	3280
3667.879	3159
3669.546	3150
3671.212	3134
3672.88	3139
3674.546	3155
3676.211	3118
3677.875	3208
3679.541	3207
3681.205	3154
3682.87	3129
3684.533	3098
3686.196	3154
3687.859	3193
3689.521	3177
3691.184	3134
3692.845	3190
3694.507	3186
3696.167	3142
3697.827	3171
3699.487	3205
3701.148	3168
3702.808	3191
3704.466	3164
3706.125	3167
3707.783	3125
3709.442	3214
3711.099	3182
3712.757	3142
3714.412	3086
3716.068	3107
3717.725	3125
3719.381	3140
3721.036	3181
3722.689	3060
3724.344	3163
3725.998	3163
3727.652	3115
3729.305	3092
3730.958	3175
3732.61	3095
3734.262	3124
3735.915	3135
3737.565	3157
3739.217	3166
3740.866	3067
3742.516	3125
3744.165	3133
3745.816	3069
3747.464	3129
3749.113	3139
3750.761	3092
3752.409	3119
3754.057	3101
3755.703	3174
3757.35	3129
3758.996	3087
3760.641	3077
3762.289	3046
3763.933	3096
3765.577	3040
3767.222	2999
3768.865	3077
3770.508	3031
3772.152	3125
3773.796	3042
3775.438	2992
3777.079	3069
3778.721	3120
3780.363	3056
3782.003	3098
3783.643	3060
3785.283	3081
3786.923	3068
3788.563	3046
3790.203	3100
3791.841	3039
3793.479	2985
3795.115	3027
3796.753	3073
3798.391	3052
3800.027	3050
3801.664	3034
3803.299	3004
3804.935	2968
3806.571	2992
3808.206	2879
3809.839	2985
3811.473	3100
3813.107	3031
3814.74	2911
3816.375	2955
3818.006	3049
3819.638	3021
3821.27	2998
3822.9	2954
3824.532	2965
3826.163	3048
3827.792	2935
3829.423	2954
3831.051	2978
3832.682	2900
3834.311	2883
3835.938	3003
3837.566	2952
3839.193	2989
3840.821	2948
3842.448	2926
3844.075	2854
3845.7	2947
3847.325	2962
3848.951	2956
3850.576	2904
3852.201	2926
3853.825	2915
3855.448	2892
3857.072	2972
3858.694	2900
3860.318	2962
3861.939	2964
3863.562	2914
3865.183	2879
3866.804	2928
3868.426	2881
3870.045	2962
3871.666	2906
3873.285	2832
3874.904	2951
3876.524	2944
3878.142	2912
3879.76	2899
3881.378	2882
3882.995	2855
3884.612	2925
3886.229	2921
3887.845	2897
3889.461	2869
3891.076	2952
3892.691	2924
3894.307	2913
3895.922	2889
3897.536	2878
3899.149	2863
3900.761	2853
3902.374	2946
3903.988	2868
3905.6	2844
3907.212	2912
3908.822	2858
3910.433	2927
3912.045	2882
3913.655	2889
3915.265	2881
3916.875	2855
3918.483	2836
3920.093	2839
3921.702	2954
3923.309	2851
3924.917	2833
3926.523	2844
3928.13	2817
3929.739	2845
3931.344	2896
3932.95	2823
3934.555	2832
3936.159	2836
3937.766	2935
3939.369	2873
3940.974	2842
3942.577	2803
3944.181	2881
3945.783	2911
3947.386	2888
3948.989	2866
3950.59	2788
3952.191	2855
3953.791	2860
3955.394	2794
3956.994	2837
3958.593	2804
3960.192	2815
3961.791	2829
3963.392	2850
3964.99	2770
3966.588	2785
3968.185	2783
3969.782	2820
3971.379	2793
3972.976	2788
3974.572	2815
3976.168	2776
3977.763	2784
3979.358	2825
3980.954	2729
3982.548	2745
3984.142	2725
3985.736	2835
3987.329	2811
3988.922	2706
3990.516	2801
3992.108	2772
3993.698	2722
3995.29	2782
3996.881	2736
3998.473	2733
4000.064	2787
4001.653	2686
4003.242	2677
4004.832	2744
4006.422	2721
4008.01	2766
4009.598	2758
4011.186	2648
4012.773	2730
4014.36	2708
4015.947	2692
4017.534	2707
4019.119	2765
4020.705	2674
4022.291	2712
4023.876	2703
4025.461	2809
4027.044	2662
4028.627	2701
4030.211	2682
4031.795	2637
4033.378	2644
4034.96	2650
4036.542	2668
4038.124	2698
4039.704	2698
4041.286	2733
4042.867	2630
4044.447	2650
4046.026	2656
4047.606	2747
4049.187	2626
4050.765	2678
4052.343	2668
4053.92	2647
4055.498	2671
4057.076	2715
4058.654	2646
4060.23	2639
4061.806	2661
4063.381	2623
4064.957	2582
4066.533	2651
4068.107	2624
4069.682	2594
4071.256	2679
4072.829	2581
4074.404	2643
4075.977	2675
4077.549	2619
4079.121	2641
4080.693	2668
4082.265	2646
4083.836	2637
4085.407	2612
4086.977	2628
4088.547	2631
4090.117	2592
4091.687	2589
4093.256	2582
4094.825	2634
4096.392	2582
4097.96	2630
4099.528	2603
4101.097	2595
4102.663	2601
4104.229	2561
4105.795	2553
4107.361	2613
4108.928	2599
4110.493	2609
4112.058	2564
4113.621	2574
4115.186	2563
4116.75	2604
4118.313	2595
4119.876	2596
4121.438	2597
4123	2566
4124.562	2577
4126.125	2587
4127.686	2584
4129.246	2536
4130.807	2597
4132.367	2526
4133.927	2536
4135.486	2592
4137.046	2518
4138.604	2544
4140.162	2600
4141.72	2530
4143.279	2527
4144.836	2504
4146.393	2500
4147.949	2551
4149.505	2563
4151.062	2497
4152.617	2537
4154.172	2515
4155.727	2551
4157.281	2473
4158.836	2463
4160.39	2530
4161.943	2496
4163.496	2511
4165.048	2486
4166.601	2481
4168.154	2553
4169.706	2412
4171.257	2563
4172.808	2510
4174.358	2468
4175.909	2462
4177.458	2469
4179.008	2527
4180.558	2513
4182.106	2466
4183.655	2417
4185.204	2444
4186.751	2444
4188.298	2445
4189.845	2422
4191.392	2387
4192.939	2447
4194.485	2445
4196.031	2435
4197.576	2466
4199.121	2450
4200.666	2413
4202.211	2453
4203.754	2364
4205.298	2419
4206.84	2450
4208.384	2407
4209.927	2469
4211.47	2416
4213.011	2415
4214.552	2417
4216.094	2498
4217.635	2420
4219.175	2434
4220.716	2380
4222.255	2424
4223.793	2399
4225.335	2404
4226.873	2369
4228.411	2438
4229.948	2332
4231.486	2437
4233.024	2389
4234.562	2388
4236.098	2417
4237.634	2410
4239.169	2412
4240.705	2398
4242.241	2400
4243.776	2375
4245.31	2367
4246.844	2434
4248.378	2410
4249.911	2372
4251.445	2416
4252.978	2336
4254.51	2380
4256.042	2395
4257.574	2371
4259.107	2358
4260.638	2341
4262.169	2429
4263.699	2369
4265.228	2437
4266.759	2411
4268.289	2361
4269.818	2375
4271.345	2318
4272.874	2382
4274.402	2342
4275.931	2373
4277.458	2372
4278.985	2342
4280.512	2395
4282.037	2328
4283.564	2369
4285.089	2415
4286.615	2381
4288.139	2424
4289.664	2307
4291.187	2365
4292.712	2373
4294.235	2290
4295.759	2352
4297.281	2332
4298.804	2329
4300.327	2262
4301.849	2359
4303.37	2304
4304.891	2314
4306.412	2335
4307.933	2349
4309.453	2261
4310.973	2281
4312.492	2318
