398.1873	2651
400.7097	2614
403.2336	2654
405.7547	2643
408.2751	2636
410.7948	2751
413.3138	2782
415.83	2711
418.3497	2732
420.8666	2747
423.3829	2732
425.8985	2847
428.4133	2851
430.9275	2874
433.441	2815
435.9538	2836
438.4639	2885
440.9753	2752
443.4881	2812
445.9982	2836
448.5055	2849
451.0142	2782
453.5201	2880
456.0274	2867
458.5361	2897
461.04	2759
463.5453	2831
466.0478	2791
468.5517	2840
471.0549	2867
473.5574	2828
476.0572	2870
478.5584	2903
481.0568	2866
483.5545	2870
486.0557	2824
488.5521	2851
491.0478	2910
493.5449	2917
496.0392	2908
498.5349	2880
501.0299	2890
503.5222	2921
506.0139	2913
508.5048	2941
510.9991	2884
513.4887	2902
515.9777	2898
518.4659	2932
520.9534	2856
523.4403	2945
525.9306	3016
528.4161	2910
530.9009	2912
533.3851	2897
535.8687	2918
538.3535	2929
540.8356	2964
543.3171	2897
545.7979	2911
548.278	2804
550.7595	2937
553.2383	3001
555.7144	2928
558.1918	2967
560.6685	2927
563.1446	2918
565.6221	2913
568.0968	3006
570.5688	2956
573.0422	3015
575.515	3028
577.989	2963
580.4584	3017
582.9291	2963
585.3991	3067
587.8685	3056
590.3352	3041
592.8052	3034
595.2706	3054
597.7372	3019
600.2033	3084
602.6666	3010
605.1334	2961
607.5953	2964
610.0587	3118
612.5193	3051
614.9814	3022
617.4427	3011
619.9034	2980
622.3615	2970
624.8208	3021
627.2775	2995
629.7335	3000
632.1929	3056
634.6476	2997
637.1016	3055
639.5569	2983
642.0096	3021
644.4637	2966
646.9151	2966
649.3678	3071
651.8179	3074
654.2672	2960
656.7159	3057
659.166	2982
661.6154	3062
664.0622	3024
666.5082	3032
668.9537	3078
671.4005	3119
673.8445	3083
676.288	3051
678.7308	3074
681.1729	3095
683.6163	3086
686.0572	3127
688.4973	3064
690.9368	3015
693.3757	3092
695.8138	3078
698.2534	3154
700.6902	3110
703.1245	3142
705.56	3124
707.9949	3155
710.4311	3211
712.8647	3174
715.2957	3126
717.7279	3191
720.1595	3160
722.5905	3143
725.0208	3163
727.4505	3242
729.8795	3156
732.3058	3173
734.7336	3178
737.1626	3121
739.587	3139
742.0128	3176
744.4359	3211
746.8604	3222
749.2841	3285
751.7073	3281
754.1278	3214
756.5496	3302
758.9688	3382
761.3893	3388
763.8093	3326
766.2285	3309
768.6451	3285
771.0611	3293
773.4784	3243
775.895	3304
778.3091	3285
780.7244	3338
783.1371	3313
785.5493	3359
787.9626	3335
790.3754	3261
792.7856	3316
795.1951	3391
797.6039	3354
800.0121	3286
802.4236	3317
804.8306	3381
807.2369	3363
809.6425	3408
812.0475	3331
814.4538	3360
816.8575	3221
819.2606	3362
821.663	3334
824.0648	3392
826.4659	3304
828.8683	3276
831.2682	3347
833.6674	3374
836.066	3360
838.4639	3375
840.8632	3379
843.2579	3384
845.6539	3344
848.0493	3499
850.444	3488
852.84	3400
855.2315	3430
857.6243	3409
860.0165	3316
862.4081	3432
864.797	3430
867.1892	3381
869.5789	3438
871.9659	3403
874.3542	3454
876.74	3407
879.129	3398
881.5155	3439
883.8994	3425
886.2845	3374
888.6671	3356
891.051	3393
893.4343	3431
895.8169	3455
898.197	3333
900.5783	3393
902.9571	3414
905.3372	3407
907.7167	3475
910.0936	3483
912.4698	3500
914.8474	3410
917.2244	3464
919.5987	3477
921.9744	3550
924.3475	3520
926.72	3480
929.0918	3520
931.4669	3600
933.8375	3581
936.2074	3495
938.5767	3536
940.9454	3558
943.3154	3605
945.6829	3778
948.0497	3839
950.4178	3910
952.7833	4037
955.1483	4144
957.5145	4363
959.8782	4373
962.2412	4327
964.6036	4239
966.9655	4112
969.3266	3968
971.6871	3857
974.0471	3766
976.4064	3667
978.765	3630
981.125	3519
983.4824	3534
985.8373	3510
988.1935	3469
990.549	3455
992.9039	3500
995.2602	3506
997.6119	3476
999.965	3603
1002.317	3597
1004.667	3513
1007.02	3557
1009.371	3500
1011.719	3548
1014.068	3610
1016.415	3572
1018.765	3579
1021.111	3554
1023.458	3600
1025.804	3591
1028.147	3472
1030.49	3597
1032.837	3549
1035.179	3616
1037.522	3671
1039.862	3578
1042.204	3651
1044.546	3662
1046.884	3607
1049.224	3613
1051.562	3587
1053.899	3565
1056.237	3677
1058.575	3675
1060.91	3693
1063.244	3638
1065.58	3710
1067.913	3747
1070.248	3771
1072.579	3757
1074.911	3804
1077.242	3687
1079.572	3652
1081.905	3613
1084.234	3660
1086.562	3628
1088.89	3609
1091.217	3660
1093.544	3751
1095.871	3602
1098.197	3579
1100.521	3609
1102.845	3741
1105.169	3588
1107.491	3621
1109.814	3594
1112.135	3647
1114.456	3694
1116.776	3647
1119.096	3655
1121.415	3567
1123.734	3596
1126.052	3590
1128.369	3657
1130.686	3640
1133.002	3638
1135.318	3630
1137.632	3603
1139.945	3570
1142.258	3647
1144.573	3622
1146.884	3622
1149.196	3658
1151.505	3708
1153.816	3653
1156.124	3708
1158.435	3703
1160.742	3750
1163.051	3655
1165.356	3695
1167.663	3654
1169.97	3676
1172.276	3709
1174.579	3639
1176.881	3615
1179.186	3666
1181.487	3725
1183.79	3676
1186.092	3687
1188.392	3588
1190.691	3600
1192.991	3723
1195.291	3654
1197.588	3619
1199.885	3659
1202.181	3743
1204.479	3691
1206.775	3650
1209.07	3639
1211.363	3730
1213.656	3693
1215.949	3666
1218.241	3716
1220.534	3708
1222.825	3791
1225.115	3765
1227.405	3734
1229.693	3795
1231.984	3767
1234.271	3735
1236.558	3791
1238.845	3781
1241.131	3790
1243.416	3797
1245.703	3864
1247.987	3787
1250.269	3780
1252.552	3814
1254.834	3898
1257.118	3827
1259.399	3717
1261.678	3823
1263.958	3839
1266.237	3826
1268.516	3745
1270.794	3770
1273.072	3789
1275.347	3777
1277.624	3834
1279.899	3727
1282.175	3815
1284.449	3783
1286.722	3733
1288.995	3840
1291.266	3730
1293.54	3812
1295.81	3761
1298.081	3691
1300.35	3890
1302.62	3730
1304.889	3716
1307.156	3780
1309.425	3770
1311.69	3785
1313.957	3715
1316.222	3793
1318.488	3807
1320.751	3779
1323.016	3727
1325.278	3775
1327.54	3819
1329.803	3813
1332.065	3787
1334.325	3809
1336.584	3770
1338.843	3705
1341.101	3841
1343.36	3815
1345.617	3816
1347.876	3780
1350.131	3771
1352.387	3767
1354.643	3808
1356.897	3835
1359.151	3747
1361.403	3836
1363.656	3762
1365.909	3799
1368.16	3737
1370.409	3822
1372.659	3745
1374.909	3828
1377.157	3856
1379.407	3837
1381.655	3788
1383.9	3860
1386.147	3798
1388.393	3865
1390.64	3863
1392.885	3838
1395.127	3932
1397.37	3823
1399.614	3819
1401.854	3832
1404.098	3879
1406.339	3914
1408.578	3909
1410.818	3881
1413.056	3861
1415.297	3850
1417.533	3826
1419.771	3925
1422.006	3846
1424.243	3787
1426.479	3931
1428.715	3839
1430.948	3880
1433.182	3985
1435.414	3911
1437.647	3944
1439.88	3993
1442.11	3923
1444.342	3978
1446.571	3910
1448.799	3925
1451.029	4087
1453.258	3919
1455.485	3959
1457.711	3893
1459.937	3938
1462.164	3963
1464.39	3985
1466.614	3941
1468.838	3958
1471.06	3911
1473.283	3859
1475.506	3914
1477.727	3902
1479.949	3904
1482.169	3881
1484.389	3898
1486.609	3823
1488.828	3789
1491.045	3845
1493.261	3831
1495.477	3851
1497.693	3847
1499.91	3867
1502.125	3873
1504.339	3851
1506.553	3904
1508.766	3868
1510.979	3855
1513.191	3736
1515.402	3842
1517.613	3766
1519.823	3907
1522.033	3838
1524.242	3855
1526.451	3822
1528.657	3830
1530.865	3892
1533.072	3865
1535.278	3796
1537.484	3810
1539.687	3881
1541.892	3830
1544.096	3768
1546.299	3845
1548.502	3890
1550.703	3808
1552.905	3933
1555.104	3852
1557.303	3873
1559.505	3952
1561.703	3852
1563.902	3890
1566.099	3952
1568.295	3939
1570.494	3936
1572.689	3965
1574.883	3944
1577.079	3946
1579.272	3888
1581.467	3978
1583.659	3922
1585.853	3901
1588.044	4055
1590.234	3981
1592.424	3965
1594.615	3962
1596.806	3875
1598.994	3977
1601.182	3972
1603.369	3997
1605.557	3950
1607.744	3938
1609.929	4046
1612.114	3988
1614.298	4042
1616.482	4007
1618.667	4010
1620.85	4024
1623.032	3975
1625.214	4035
1627.395	3993
1629.575	3983
1631.755	4089
1633.935	4041
1636.114	4018
1638.292	3940
1640.471	4056
1642.647	4083
1644.823	4119
1647	3934
1649.175	4081
1651.348	4059
1653.525	3999
1655.698	4067
1657.87	4146
1660.043	3991
1662.213	4055
1664.387	4144
1666.558	4070
1668.727	4022
1670.896	4016
1673.064	4152
1675.233	4139
1677.401	4142
1679.569	4097
1681.735	4073
1683.902	4105
1686.066	4006
1688.233	4062
1690.397	4067
1692.559	4091
1694.723	4082
1696.885	4066
1699.048	4100
1701.21	4045
1703.37	4080
1705.53	4093
1707.689	4114
1709.849	4059
1712.009	4080
1714.166	4069
1716.323	3972
1718.479	3962
1720.634	3955
1722.793	4105
1724.948	4098
1727.102	4012
1729.255	4042
1731.408	4143
1733.562	4012
1735.714	4024
1737.865	3965
1740.016	3977
1742.166	4032
1744.316	4071
1746.467	4044
1748.616	4040
1750.764	4120
1752.911	4030
1755.056	4003
1757.205	4092
1759.35	4050
1761.496	4023
1763.641	4108
1765.785	4129
1767.927	4142
1770.072	4107
1772.214	4035
1774.355	4158
1776.496	4083
1778.637	4154
1780.778	4115
1782.918	4051
1785.057	4088
1787.194	4038
1789.333	4138
1791.472	4124
1793.608	4096
1795.745	4090
1797.879	4093
1800.015	4081
1802.148	4080
1804.284	4129
1806.417	4052
1808.548	4085
1810.682	4088
1812.812	4117
1814.946	3997
1817.075	4076
1819.205	4131
1821.335	4104
1823.463	4159
1825.59	4159
1827.721	4114
1829.847	4085
1831.973	4057
1834.098	4069
1836.223	4141
1838.351	4085
1840.475	3990
1842.598	4036
1844.721	4126
1846.843	4115
1848.966	4075
1851.087	4164
1853.21	4115
1855.33	4117
1857.449	4092
1859.568	3985
1861.688	4089
1863.806	4114
1865.924	4062
1868.039	4142
1870.155	4045
1872.273	4036
1874.388	4106
1876.503	4056
1878.617	4177
1880.73	4090
1882.844	4126
1884.956	4066
1887.068	4124
1889.18	4050
1891.291	4101
1893.4	4118
1895.511	4102
1897.621	4180
1899.73	4118
1901.837	4115
1903.944	4130
1906.053	4148
1908.159	4142
1910.265	4162
1912.369	4066
1914.474	4142
1916.577	4215
1918.683	4083
1920.785	4205
1922.888	4135
1924.989	4167
1927.091	4185
1929.193	4158
1931.294	4159
1933.393	4257
1935.493	4192
1937.59	4242
1939.689	4192
1941.788	4219
1943.884	4226
1945.98	4145
1948.077	4336
1950.171	4148
1952.267	4205
1954.361	4169
1956.455	4199
1958.548	4138
1960.64	4186
1962.733	4216
1964.824	4252
1966.915	4153
1969.005	4172
1971.096	4293
1973.185	4137
1975.275	4121
1977.363	4180
1979.45	4128
1981.537	4195
1983.623	4186
1985.711	4080
1987.796	4089
1989.881	4113
1991.965	4122
1994.047	4138
1996.132	4244
1998.215	4079
2000.297	4150
2002.378	4068
2004.46	4109
2006.54	4043
2008.62	4139
2010.7	4160
2012.779	4197
2014.858	4164
2016.934	4181
2019.013	4208
2021.09	4205
2023.165	4186
2025.241	4245
2027.317	4148
2029.39	4070
2031.466	4136
2033.538	4143
2035.612	4226
2037.683	4084
2039.755	4097
2041.827	4224
2043.898	4166
2045.968	4115
2048.038	4169
2050.106	4195
2052.177	4170
2054.244	4171
2056.313	4150
2058.379	4155
2060.444	4115
2062.511	4221
2064.577	4281
2066.641	4190
2068.705	4197
2070.77	4273
2072.832	4184
2074.896	4228
2076.958	4225
2079.02	4246
2081.081	4218
2083.141	4227
2085.2	4222
2087.261	4219
2089.319	4248
2091.377	4181
2093.435	4172
2095.492	4258
2097.552	4161
2099.607	4234
2101.663	4240
2103.718	4209
2105.771	4198
2107.826	4206
2109.879	4217
2111.932	4180
2113.985	4253
2116.037	4206
2118.088	4129
2120.141	4295
2122.191	4174
2124.239	4154
2126.288	4177
2128.337	4154
2130.387	4197
2132.434	4142
2134.481	4209
2136.528	4226
2138.574	4254
2140.618	4156
2142.665	4299
2144.71	4164
2146.753	4132
2148.797	4150
2150.838	4222
2152.883	4208
2154.923	4208
2156.965	4221
2159.007	4158
2161.046	4206
2163.086	4140
2165.126	4205
2167.163	4278
2169.202	4158
2171.239	4151
2173.277	4150
2175.314	4053
2177.349	4134
2179.385	4245
2181.42	4139
2183.453	4173
2185.49	4190
2187.522	4186
2189.555	4248
2191.586	4211
2193.619	4172
2195.651	4182
2197.682	4120
2199.711	4048
2201.74	4126
2203.769	4061
2205.799	4081
2207.828	4234
2209.855	4148
2211.882	4098
2213.908	4180
2215.934	4134
2217.961	4106
2219.986	4080
2222.01	4107
2224.034	4110
2226.057	4145
2228.08	4175
2230.104	4112
2232.124	4243
2234.145	4135
2236.166	4118
2238.186	4195
2240.207	4111
2242.227	4144
2244.244	4123
2246.262	4086
2248.28	4208
2250.299	4072
2252.314	4141
2254.33	4151
2256.346	4158
2258.36	4080
2260.375	4178
2262.391	4060
2264.403	4136
2266.416	4173
2268.427	4152
2270.44	4140
2272.453	4127
2274.463	4124
2276.474	4144
2278.483	4176
2280.493	4107
2282.501	4165
2284.51	4151
2286.518	4125
2288.524	4125
2290.532	4138
2292.537	4099
2294.544	4226
2296.55	4219
2298.554	4159
2300.557	4155
2302.562	4257
2304.566	4180
2306.568	4165
2308.569	4160
2310.572	4207
2312.573	4041
2314.573	4134
2316.574	4105
2318.573	4149
2320.571	4110
2322.571	4208
2324.569	4178
2326.567	4105
2328.564	4249
2330.56	4118
2332.556	4191
2334.551	4108
2336.546	4129
2338.542	4044
2340.535	4059
2342.529	4216
2344.521	4127
2346.512	4186
2348.505	4030
2350.497	4109
2352.487	4135
2354.478	4195
2356.468	4084
2358.457	4193
2360.446	4052
2362.434	4013
2364.422	4173
2366.408	4127
2368.395	4086
2370.383	4099
2372.369	4019
2374.353	4100
2376.338	4105
2378.321	4119
2380.307	4113
2382.29	4071
2384.272	4120
2386.254	4026
2388.235	4089
2390.218	4163
2392.198	4053
2394.179	4065
2396.157	4046
2398.137	4000
2400.115	4097
2402.095	4055
2404.072	4060
2406.048	4134
2408.026	4041
2410.001	4149
2411.977	4017
2413.953	4058
2415.927	4078
2417.9	4065
2419.875	4076
2421.847	4118
2423.821	4005
2425.792	4151
2427.763	4111
2429.736	4085
2431.706	4020
2433.677	4018
2435.646	4042
2437.615	4118
2439.583	4055
2441.551	4117
2443.519	4121
2445.486	3967
2447.452	4117
2449.418	4165
2451.383	4060
2453.348	4098
2455.314	4091
2457.278	4143
2459.241	3977
2461.205	4129
2463.167	4057
2465.131	4188
2467.091	4068
2469.052	4031
2471.012	3962
2472.972	4083
2474.932	4042
2476.891	3985
2478.85	4081
2480.808	4047
2482.766	4085
2484.722	4060
2486.68	4001
2488.636	4083
2490.591	4071
2492.546	4093
2494.5	3974
2496.456	4001
2498.41	4101
2500.362	4025
2502.315	3975
2504.266	4077
2506.218	4117
2508.169	3893
2510.121	4045
2512.07	3965
2514.019	4005
2515.968	4049
2517.918	4085
2519.866	4103
2521.813	4032
2523.76	4052
2525.707	4077
2527.653	4050
2529.599	3948
2531.543	4090
2533.489	3996
2535.433	4081
2537.376	3999
2539.32	3971
2541.264	4121
2543.205	4022
2545.147	4110
2547.087	4148
2549.029	3947
2550.969	3981
2552.908	4159
2554.847	3991
2556.786	3938
2558.724	4089
2560.663	3950
2562.6	4014
2564.537	3988
2566.473	4068
2568.408	4077
2570.345	3996
2572.28	4039
2574.214	3978
2576.148	4087
2578.081	4060
2580.014	4066
2581.947	4040
2583.879	4047
2585.81	4016
2587.741	4052
2589.67	4016
2591.602	4022
2593.532	4084
2595.461	4057
2597.388	4056
2599.316	4066
2601.244	3979
2603.172	4092
2605.098	3944
2607.023	3934
2608.949	4064
2610.873	4005
2612.8	4158
2614.723	4057
2616.647	4077
2618.569	4097
2620.493	3956
2622.416	4168
2624.338	4067
2626.258	4077
2628.179	4082
2630.099	4042
2632.019	4109
2633.939	4108
2635.857	4053
2637.775	4104
2639.694	4063
2641.61	4064
2643.528	3974
2645.444	4140
2647.361	4057
2649.276	4117
2651.19	4025
2653.105	4038
2655.019	4093
2656.934	4059
2658.846	4025
2660.758	4144
2662.67	4120
2664.583	4093
2666.493	4115
2668.404	4030
2670.313	3997
2672.223	4060
2674.134	3966
2676.042	4019
2677.95	4102
2679.858	4085
2681.765	4066
2683.673	4079
2685.579	3982
2687.483	3967
2689.389	3987
2691.294	4107
2693.198	4111
2695.104	4009
2697.006	4099
2698.909	3986
2700.811	3894
2702.713	4122
2704.615	4029
2706.516	4046
2708.417	3978
2710.316	4117
2712.216	3987
2714.115	4116
2716.014	4036
2717.913	3980
2719.81	3968
2721.707	3956
2723.603	4100
2725.501	3988
2727.396	4003
2729.292	3954
2731.186	4031
2733.081	4032
2734.976	4029
2736.87	4063
2738.762	3979
2740.653	4058
2742.546	4028
2744.437	4123
2746.329	3930
2748.22	4023
2750.11	4039
2751.999	4021
2753.889	3971
2755.778	3988
2757.666	4020
2759.553	3949
2761.44	4000
2763.328	4060
2765.215	3921
2767.101	4034
2768.986	4059
2770.87	4028
2772.754	3945
2774.638	3941
2776.523	4031
2778.405	4087
2780.288	3954
2782.17	4008
2784.051	3943
2785.934	4082
2787.814	4003
2789.694	3925
2791.574	3964
2793.453	3962
2795.332	4048
2797.212	3995
2799.088	4037
2800.966	4022
2802.843	4046
2804.719	3895
2806.597	3994
2808.471	3961
2810.346	3943
2812.221	3932
2814.094	3994
2815.969	3991
2817.843	3964
2819.714	4011
2821.587	3932
2823.459	3982
2825.329	4007
2827.202	3932
2829.072	3959
2830.942	4004
2832.811	3983
2834.68	4054
2836.549	3903
2838.418	3940
2840.284	3986
2842.152	4076
2844.018	3958
2845.885	3935
2847.751	4042
2849.616	3980
2851.482	4016
2853.345	4001
2855.208	4049
2857.074	4046
2858.937	4025
2860.799	4050
2862.66	4152
2864.522	4064
2866.385	4088
2868.245	4100
2870.104	4144
2871.964	4039
2873.824	4139
2875.683	4270
2877.542	4110
2879.4	4230
2881.257	4105
2883.114	4148
2884.97	4223
2886.827	4162
2888.683	4232
2890.537	4106
2892.392	4253
2894.246	4095
2896.1	4114
2897.954	4246
2899.807	4218
2901.66	4134
2903.51	4127
2905.362	4188
2907.214	4208
2909.065	4174
2910.915	4208
2912.765	4176
2914.613	4251
2916.463	4273
2918.311	4226
2920.158	4339
2922.006	4325
2923.853	4399
2925.698	4396
2927.546	4373
2929.392	4424
2931.236	4430
2933.081	4353
2934.924	4545
2936.77	4504
2938.613	4475
2940.455	4567
2942.298	4516
2944.139	4618
2945.982	4572
2947.823	4554
2949.662	4532
2951.503	4433
2953.342	4466
2955.182	4450
2957.021	4426
2958.858	4432
2960.697	4322
2962.534	4297
2964.37	4420
2966.207	4304
2968.044	4352
2969.879	4323
2971.714	4274
2973.548	4260
2975.383	4308
2977.218	4257
2979.051	4270
2980.883	4219
2982.715	4180
2984.547	4179
2986.379	4124
2988.21	4108
2990.04	4256
2991.87	4160
2993.7	4163
2995.53	4075
2997.359	4071
2999.187	4023
3001.015	4077
3002.842	4083
3004.669	4077
3006.497	3996
3008.323	4030
3010.148	4014
3011.974	4022
3013.797	3968
3015.623	3893
3017.447	3979
3019.27	3912
3021.094	3949
3022.915	3902
3024.737	3851
3026.56	3911
3028.38	3891
3030.201	3885
3032.022	3898
3033.84	3910
3035.662	3758
3037.481	3912
3039.298	3925
3041.117	3880
3042.933	3841
3044.752	3858
3046.568	3864
3048.385	3863
3050.2	3777
3052.016	3825
3053.83	3770
3055.646	3837
3057.46	3807
3059.272	3803
3061.086	3852
3062.898	3887
3064.711	3765
3066.524	3794
3068.335	3857
3070.145	3846
3071.956	3819
3073.766	3881
3075.576	3856
3077.385	3799
3079.193	3850
3081.002	3866
3082.81	3833
3084.618	3769
3086.425	3798
3088.231	3881
3090.036	3755
3091.842	3726
3093.648	3743
3095.452	3756
3097.257	3794
3099.06	3700
3100.863	3805
3102.666	3774
3104.47	3768
3106.272	3775
3108.073	3642
3109.875	3804
3111.676	3715
3113.477	3727
3115.277	3704
3117.077	3676
3118.874	3736
3120.673	3664
3122.473	3821
3124.271	3753
3126.066	3648
3127.863	3632
3129.66	3694
3131.456	3633
3133.252	3704
3135.047	3745
3136.842	3771
3138.635	3694
3140.429	3727
3142.223	3677
3144.016	3662
3145.808	3687
3147.6	3721
3149.392	3711
3151.183	3655
3152.975	3732
3154.765	3664
3156.553	3691
3158.344	3778
3160.132	3599
3161.922	3660
3163.71	3607
3165.497	3680
3167.285	3663
3169.071	3614
3170.858	3745
3172.645	3698
3174.429	3642
3176.214	3781
3177.998	3679
3179.783	3648
3181.568	3695
3183.351	3629
3185.133	3705
3186.915	3634
3188.698	3704
3190.481	3669
3192.261	3683
3194.042	3654
3195.822	3492
3197.601	3701
3199.381	3666
3201.161	3612
3202.939	3630
3204.717	3713
3206.495	3636
3208.272	3558
3210.05	3603
3211.826	3692
3213.602	3586
3215.376	3633
3217.151	3624
3218.927	3628
3220.702	3603
3222.476	3552
3224.249	3673
3226.021	3666
3227.793	3671
3229.567	3601
3231.339	3622
3233.109	3579
3234.88	3665
3236.651	3697
3238.421	3627
3240.191	3603
3241.96	3594
3243.728	3567
3245.497	3638
3247.263	3532
3249.033	3595
3250.799	3651
3252.566	3686
3254.331	3585
3256.097	3573
3257.863	3607
3259.628	3507
3261.392	3711
3263.156	3615
3264.919	3535
3266.683	3587
3268.447	3617
3270.208	3585
3271.969	3599
3273.731	3596
3275.492	3657
3277.253	3582
3279.013	3614
3280.773	3655
3282.532	3650
3284.291	3656
3286.05	3609
3287.808	3561
3289.566	3671
3291.323	3543
3293.079	3556
3294.835	3672
3296.593	3655
3298.348	3499
3300.102	3648
3301.857	3628
3303.611	3626
3305.366	3616
3307.119	3685
3308.872	3653
3310.624	3588
3312.376	3576
3314.129	3635
3315.881	3522
3317.631	3613
3319.38	3670
3321.13	3614
3322.88	3603
3324.631	3672
3326.379	3606
3328.126	3645
3329.875	3609
3331.622	3604
3333.371	3623
3335.116	3649
3336.863	3616
3338.609	3580
3340.353	3674
3342.1	3626
3343.845	3663
3345.588	3616
3347.332	3607
3349.074	3562
3350.817	3604
3352.56	3558
3354.303	3665
3356.043	3494
3357.785	3597
3359.525	3556
3361.268	3500
3363.007	3608
3364.745	3591
3366.485	3552
3368.223	3632
3369.962	3537
3371.701	3626
3373.438	3613
3375.174	3532
3376.911	3508
3378.647	3548
3380.384	3545
3382.118	3542
3383.854	3541
3385.588	3550
3387.322	3595
3389.057	3641
3390.79	3566
3392.522	3470
3394.255	3535
3395.987	3635
3397.719	3588
3399.451	3532
3401.181	3543
3402.911	3442
3404.641	3553
3406.371	3430
3408.101	3571
3409.83	3507
3411.558	3572
3413.285	3558
3415.011	3550
3416.739	3531
3418.467	3607
3420.193	3545
3421.919	3505
3423.644	3438
3425.368	3481
3427.094	3518
3428.818	3514
3430.542	3506
3432.264	3530
3433.987	3467
3435.712	3553
3437.434	3515
3439.155	3443
3440.876	3463
3442.596	3417
3444.317	3479
3446.039	3505
3447.757	3445
3449.477	3519
3451.195	3411
3452.914	3464
3454.632	3442
3456.35	3468
3458.067	3432
3459.784	3436
3461.5	3444
3463.216	3368
3464.932	3463
3466.647	3469
3468.362	3372
3470.076	3384
3471.789	3413
3473.505	3467
3475.217	3483
3476.929	3408
3478.641	3347
3480.354	3322
3482.066	3376
3483.777	3401
3485.487	3407
3487.197	3382
3488.908	3409
3490.617	3394
3492.327	3358
3494.035	3367
3495.743	3372
3497.451	3383
3499.158	3325
3500.866	3364
3502.572	3356
3504.278	3321
3505.984	3293
3507.689	3332
3509.396	3319
3511.1	3349
3512.804	3345
3514.508	3302
3516.211	3366
3517.913	3431
3519.616	3369
3521.319	3293
3523.021	3418
3524.722	3288
3526.422	3334
3528.124	3343
3529.824	3247
3531.524	3426
3533.222	3295
3534.921	3289
3536.62	3325
3538.318	3276
3540.016	3248
3541.714	3299
3543.41	3378
3545.107	3348
3546.803	3293
3548.5	3317
3550.194	3288
3551.889	3249
3553.583	3371
3555.279	3320
3556.972	3204
3558.666	3230
3560.358	3258
3562.051	3310
3563.742	3254
3565.435	3272
3567.126	3279
3568.817	3282
3570.507	3259
3572.197	3262
3573.888	3281
3575.577	3329
3577.265	3273
3578.954	3262
3580.642	3305
3582.329	3255
3584.017	3302
3585.704	3222
3587.391	3215
3589.077	3185
3590.762	3248
3592.449	3234
3594.133	3232
3595.817	3235
3597.501	3236
3599.185	3208
3600.869	3198
3602.552	3135
3604.234	3191
3605.916	3151
3607.598	3160
3609.279	3189
3610.961	3134
3612.642	3149
3614.321	3215
3616	3062
3617.68	3163
3619.36	3247
3621.039	3108
3622.716	3152
3624.394	3138
3626.071	3124
3627.748	3183
3629.425	3183
3631.102	3165
3632.778	3152
3634.452	3065
3636.127	3140
3637.803	3194
3639.477	3187
3641.151	3160
3642.823	3197
3644.497	3099
3646.171	3090
3647.842	3074
3649.515	3085
3651.185	3094
3652.857	3092
3654.527	3137
3656.198	3063
3657.868	3131
3659.537	3099
3661.207	3081
3662.875	3127
3664.544	3125
3666.212	3024
3667.879	3031
3669.546	3070
3671.212	3044
3672.88	3128
3674.546	3026
3676.211	3109
3677.875	3092
3679.541	3096
3681.205	3058
3682.87	3059
3684.533	3048
3686.196	3026
3687.859	3124
3689.521	3084
3691.184	3022
3692.845	3075
3694.507	3065
3696.167	3052
3697.827	3027
3699.487	3062
3701.148	3127
3702.808	3058
3704.466	3076
3706.125	3095
3707.783	3090
3709.442	3041
3711.099	3056
3712.757	3051
3714.412	3067
3716.068	3057
3717.725	3103
3719.381	3021
3721.036	3037
3722.689	2983
3724.344	3056
3725.998	2951
3727.652	3048
3729.305	2987
3730.958	3042
3732.61	3038
3734.262	3027
3735.915	3086
3737.565	2959
3739.217	2954
3740.866	2989
3742.516	2983
3744.165	2997
3745.816	3018
3747.464	2972
3749.113	3060
3750.761	3004
3752.409	3015
3754.057	2994
3755.703	2946
3757.35	2930
3758.996	3014
3760.641	3021
3762.289	3002
3763.933	2999
3765.577	2918
3767.222	2915
3768.865	2938
3770.508	2997
3772.152	2989
3773.796	2988
3775.438	2943
3777.079	2966
3778.721	2926
3780.363	2999
3782.003	2863
3783.643	2938
3785.283	2916
3786.923	2948
3788.563	2908
3790.203	2901
3791.841	3007
3793.479	2886
3795.115	2990
3796.753	2925
3798.391	2962
3800.027	2874
3801.664	2959
3803.299	2905
3804.935	2909
3806.571	2921
3808.206	2907
3809.839	2949
3811.473	2960
3813.107	2992
3814.74	2839
3816.375	2961
3818.006	2916
3819.638	2914
3821.27	2885
3822.9	2912
3824.532	2918
3826.163	2853
3827.792	2856
3829.423	2824
3831.051	2894
3832.682	2892
3834.311	2938
3835.938	2830
3837.566	2912
3839.193	2923
3840.821	2811
3842.448	2962
3844.075	2862
3845.7	2911
3847.325	2885
3848.951	2846
3850.576	2902
3852.201	2921
3853.825	2818
3855.448	2879
3857.072	2887
3858.694	2866
3860.318	2912
3861.939	2839
3863.562	2834
3865.183	2912
3866.804	2791
3868.426	2854
3870.045	2828
3871.666	2780
3873.285	2835
3874.904	2852
3876.524	2811
3878.142	2871
3879.76	2828
3881.378	2778
3882.995	2851
3884.612	2781
3886.229	2854
3887.845	2739
3889.461	2865
3891.076	2863
3892.691	2834
3894.307	2841
3895.922	2842
3897.536	2822
3899.149	2809
3900.761	2862
3902.374	2876
3903.988	2839
3905.6	2828
3907.212	2864
3908.822	2808
3910.433	2798
3912.045	2781
3913.655	2837
3915.265	2878
3916.875	2770
3918.483	2788
3920.093	2771
3921.702	2830
3923.309	2810
3924.917	2789
3926.523	2770
3928.13	2830
3929.739	2780
3931.344	2753
3932.95	2775
3934.555	2817
3936.159	2797
3937.766	2785
3939.369	2758
3940.974	2791
3942.577	2812
3944.181	2742
3945.783	2700
3947.386	2754
3948.989	2773
3950.59	2783
3952.191	2815
3953.791	2740
3955.394	2794
3956.994	2726
3958.593	2835
3960.192	2742
3961.791	2731
3963.392	2763
3964.99	2726
3966.588	2751
3968.185	2649
3969.782	2707
3971.379	2754
3972.976	2758
3974.572	2642
3976.168	2721
3977.763	2677
3979.358	2682
3980.954	2698
3982.548	2695
3984.142	2733
3985.736	2722
3987.329	2740
3988.922	2724
3990.516	2661
3992.108	2780
3993.698	2689
3995.29	2707
3996.881	2684
3998.473	2731
4000.064	2632
4001.653	2730
4003.242	2649
4004.832	2705
4006.422	2653
4008.01	2616
4009.598	2723
4011.186	2582
4012.773	2713
4014.36	2630
4015.947	2728
4017.534	2679
4019.119	2650
4020.705	2592
4022.291	2694
4023.876	2609
4025.461	2592
4027.044	2614
4028.627	2618
4030.211	2653
4031.795	2658
4033.378	2692
4034.96	2598
4036.542	2616
4038.124	2637
4039.704	2688
4041.286	2650
4042.867	2612
4044.447	2629
4046.026	2667
4047.606	2683
4049.187	2560
4050.765	2510
4052.343	2608
4053.92	2705
4055.498	2634
4057.076	2618
4058.654	2582
4060.23	2585
4061.806	2594
4063.381	2586
4064.957	2601
4066.533	2640
4068.107	2596
4069.682	2581
4071.256	2531
4072.829	2562
4074.404	2573
4075.977	2645
4077.549	2568
4079.121	2572
4080.693	2538
4082.265	2611
4083.836	2508
4085.407	2615
4086.977	2583
4088.547	2513
4090.117	2606
4091.687	2493
4093.256	2569
4094.825	2619
4096.392	2539
4097.96	2590
4099.528	2559
4101.097	2573
4102.663	2549
4104.229	2503
4105.795	2550
4107.361	2603
4108.928	2514
4110.493	2542
4112.058	2549
4113.621	2525
4115.186	2557
4116.75	2546
4118.313	2573
4119.876	2531
4121.438	2501
4123	2557
4124.562	2504
4126.125	2483
4127.686	2547
4129.246	2471
4130.807	2487
4132.367	2510
4133.927	2435
4135.486	2448
4137.046	2470
4138.604	2510
4140.162	2468
4141.72	2474
4143.279	2506
4144.836	2546
4146.393	2493
4147.949	2443
4149.505	2424
4151.062	2459
4152.617	2507
4154.172	2411
4155.727	2537
4157.281	2493
4158.836	2446
4160.39	2465
4161.943	2388
4163.496	2455
4165.048	2446
4166.601	2358
4168.154	2399
4169.706	2438
4171.257	2477
4172.808	2447
4174.358	2429
4175.909	2411
4177.458	2462
4179.008	2455
4180.558	2428
4182.106	2443
4183.655	2428
4185.204	2381
4186.751	2453
4188.298	2394
4189.845	2410
4191.392	2358
4192.939	2458
4194.485	2406
4196.031	2417
4197.576	2393
4199.121	2333
4200.666	2376
4202.211	2416
4203.754	2418
4205.298	2394
4206.84	2402
4208.384	2413
4209.927	2391
4211.47	2419
4213.011	2330
4214.552	2366
4216.094	2361
4217.635	2400
4219.175	2403
4220.716	2379
4222.255	2407
4223.793	2373
4225.335	2381
4226.873	2404
4228.411	2452
4229.948	2332
4231.486	2342
4233.024	2351
4234.562	2379
4236.098	2428
4237.634	2360
4239.169	2332
4240.705	2338
4242.241	2345
4243.776	2370
4245.31	2395
4246.844	2316
4248.378	2337
4249.911	2362
4251.445	2296
4252.978	2402
4254.51	2292
4256.042	2337
4257.574	2420
4259.107	2292
4260.638	2332
4262.169	2301
4263.699	2310
4265.228	2372
4266.759	2329
4268.289	2316
4269.818	2378
4271.345	2380
4272.874	2336
4274.402	2373
4275.931	2346
4277.458	2272
4278.985	2239
4280.512	2280
4282.037	2343
4283.564	2385
4285.089	2290
4286.615	2315
4288.139	2363
4289.664	2354
4291.187	2241
4292.712	2282
4294.235	2318
4295.759	2266
4297.281	2247
4298.804	2284
4300.327	2297
4301.849	2280
4303.37	2291
4304.891	2273
4306.412	2301
4307.933	2287
4309.453	2272
4310.973	2339
4312.492	2193
