398.1873	3821
400.7097	3776
403.2336	3854
405.7547	3844
408.2751	3813
410.7948	3892
413.3138	3874
415.83	3870
418.3497	3959
420.8666	3901
423.3829	3995
425.8985	4059
428.4133	4071
430.9275	3987
433.441	4007
435.9538	3969
438.4639	4046
440.9753	4033
443.4881	4005
445.9982	4055
448.5055	4085
451.0142	4041
453.5201	4053
456.0274	4059
458.5361	4016
461.04	4055
463.5453	4107
466.0478	4035
468.5517	4035
471.0549	3969
473.5574	4084
476.0572	4104
478.5584	4081
481.0568	4132
483.5545	4124
486.0557	4200
488.5521	4135
491.0478	4200
493.5449	4202
496.0392	4267
498.5349	4162
501.0299	4147
503.5222	4260
506.0139	4175
508.5048	4187
510.9991	4295
513.4887	4261
515.9777	4179
518.4659	4160
520.9534	4290
523.4403	4235
525.9306	4246
528.4161	4250
530.9009	4228
533.3851	4290
535.8687	4265
538.3535	4181
540.8356	4257
543.3171	4247
545.7979	4258
548.278	4261
550.7595	4214
553.2383	4319
555.7144	4324
558.1918	4221
560.6685	4292
563.1446	4288
565.6221	4296
568.0968	4346
570.5688	4323
573.0422	4414
575.515	4363
577.989	4382
580.4584	4303
582.9291	4343
585.3991	4434
587.8685	4409
590.3352	4348
592.8052	4421
595.2706	4336
597.7372	4300
600.2033	4372
602.6666	4348
605.1334	4353
607.5953	4378
610.0587	4424
612.5193	4487
614.9814	4371
617.4427	4366
619.9034	4295
622.3615	4362
624.8208	4483
627.2775	4357
629.7335	4413
632.1929	4345
634.6476	4414
637.1016	4308
639.5569	4443
642.0096	4443
644.4637	4504
646.9151	4567
649.3678	4443
651.8179	4432
654.2672	4418
656.7159	4478
659.166	4486
661.6154	4503
664.0622	4596
666.5082	4537
668.9537	4507
671.4005	4560
673.8445	4492
676.288	4571
678.7308	4567
681.1729	4571
683.6163	4554
686.0572	4509
688.4973	4600
690.9368	4489
693.3757	4542
695.8138	4503
698.2534	4535
700.6902	4650
703.1245	4674
705.56	4501
707.9949	4613
710.4311	4576
712.8647	4667
715.2957	4591
717.7279	4674
720.1595	4644
722.5905	4644
725.0208	4610
727.4505	4585
729.8795	4599
732.3058	4757
734.7336	4666
737.1626	4703
739.587	4762
742.0128	4711
744.4359	4715
746.8604	4859
749.2841	4739
751.7073	4844
754.1278	4763
756.5496	4753
758.9688	4947
761.3893	4803
763.8093	4806
766.2285	4800
768.6451	4868
771.0611	4824
773.4784	4850
775.895	4901
778.3091	4801
780.7244	4854
783.1371	4920
785.5493	4883
787.9626	4792
790.3754	4808
792.7856	4874
795.1951	4946
797.6039	4895
800.0121	4908
802.4236	4887
804.8306	4838
807.2369	4860
809.6425	4834
812.0475	4938
814.4538	4942
816.8575	4886
819.2606	4878
821.663	4934
824.0648	4904
826.4659	4874
828.8683	4908
831.2682	4935
833.6674	4865
836.066	4931
838.4639	4997
840.8632	5024
843.2579	5003
845.6539	4974
848.0493	4945
850.444	5075
852.84	4937
855.2315	5041
857.6243	5126
860.0165	4943
862.4081	5107
864.797	5004
867.1892	4979
869.5789	5015
871.9659	4991
874.3542	5008
876.74	4961
879.129	5008
881.5155	5034
883.8994	4995
886.2845	5018
888.6671	5008
891.051	4985
893.4343	4958
895.8169	4905
898.197	4985
900.5783	5058
902.9571	5024
905.3372	4990
907.7167	5072
910.0936	5068
912.4698	5090
914.8474	5098
917.2244	5086
919.5987	5168
921.9744	5130
924.3475	5175
926.72	5191
929.0918	5200
931.4669	5170
933.8375	5256
936.2074	5168
938.5767	5224
940.9454	5290
943.3154	5362
945.6829	5335
948.0497	5509
950.4178	5490
952.7833	5522
955.1483	5650
957.5145	5813
959.8782	5825
962.2412	5723
964.6036	5772
966.9655	5688
969.3266	5662
971.6871	5485
974.0471	5322
976.4064	5320
978.765	5284
981.125	5129
983.4824	5266
985.8373	5202
988.1935	5297
990.549	5193
992.9039	5144
995.2602	5253
997.6119	5254
999.965	5248
1002.317	5144
1004.667	5159
1007.02	5261
1009.371	5233
1011.719	5170
1014.068	5151
1016.415	5233
1018.765	5136
1021.111	5261
1023.458	5226
1025.804	5252
1028.147	5192
1030.49	5283
1032.837	5259
1035.179	5297
1037.522	5305
1039.862	5327
1042.204	5329
1044.546	5348
1046.884	5204
1049.224	5378
1051.562	5303
1053.899	5382
1056.237	5316
1058.575	5408
1060.91	5305
1063.244	5429
1065.58	5332
1067.913	5317
1070.248	5322
1072.579	5388
1074.911	5428
1077.242	5383
1079.572	5432
1081.905	5424
1084.234	5413
1086.562	5473
1088.89	5417
1091.217	5414
1093.544	5395
1095.871	5440
1098.197	5403
1100.521	5287
1102.845	5391
1105.169	5366
1107.491	5310
1109.814	5443
1112.135	5252
1114.456	5343
1116.776	5329
1119.096	5443
1121.415	5367
1123.734	5474
1126.052	5357
1128.369	5458
1130.686	5366
1133.002	5361
1135.318	5472
1137.632	5535
1139.945	5477
1142.258	5364
1144.573	5405
1146.884	5500
1149.196	5392
1151.505	5487
1153.816	5403
1156.124	5384
1158.435	5316
1160.742	5471
1163.051	5389
1165.356	5385
1167.663	5451
1169.97	5353
1172.276	5480
1174.579	5409
1176.881	5471
1179.186	5383
1181.487	5499
1183.79	5417
1186.092	5386
1188.392	5464
1190.691	5354
1192.991	5361
1195.291	5480
1197.588	5416
1199.885	5528
1202.181	5455
1204.479	5461
1206.775	5430
1209.07	5419
1211.363	5518
1213.656	5378
1215.949	5501
1218.241	5483
1220.534	5352
1222.825	5490
1225.115	5566
1227.405	5404
1229.693	5532
1231.984	5541
1234.271	5501
1236.558	5604
1238.845	5576
1241.131	5693
1243.416	5611
1245.703	5619
1247.987	5591
1250.269	5633
1252.552	5640
1254.834	5678
1257.118	5592
1259.399	5582
1261.678	5623
1263.958	5664
1266.237	5583
1268.516	5599
1270.794	5533
1273.072	5764
1275.347	5674
1277.624	5656
1279.899	5549
1282.175	5647
1284.449	5591
1286.722	5590
1288.995	5678
1291.266	5668
1293.54	5543
1295.81	5619
1298.081	5675
1300.35	5550
1302.62	5553
1304.889	5554
1307.156	5640
1309.425	5591
1311.69	5518
1313.957	5520
1316.222	5536
1318.488	5533
1320.751	5571
1323.016	5624
1325.278	5581
1327.54	5724
1329.803	5491
1332.065	5634
1334.325	5648
1336.584	5557
1338.843	5630
1341.101	5600
1343.36	5619
1345.617	5761
1347.876	5560
1350.131	5609
1352.387	5601
1354.643	5683
1356.897	5544
1359.151	5672
1361.403	5584
1363.656	5603
1365.909	5707
1368.16	5572
1370.409	5503
1372.659	5677
1374.909	5694
1377.157	5605
1379.407	5653
1381.655	5622
1383.9	5575
1386.147	5722
1388.393	5685
1390.64	5688
1392.885	5696
1395.127	5705
1397.37	5719
1399.614	5740
1401.854	5682
1404.098	5727
1406.339	5752
1408.578	5698
1410.818	5784
1413.056	5727
1415.297	5789
1417.533	5749
1419.771	5764
1422.006	5766
1424.243	5773
1426.479	5846
1428.715	5825
1430.948	5852
1433.182	5798
1435.414	5804
1437.647	5896
1439.88	5894
1442.11	5840
1444.342	5884
1446.571	5874
1448.799	5877
1451.029	5858
1453.258	5919
1455.485	5825
1457.711	5934
1459.937	5831
1462.164	5874
1464.39	5898
1466.614	5869
1468.838	5810
1471.06	5799
1473.283	5851
1475.506	5791
1477.727	5803
1479.949	5799
1482.169	5863
1484.389	5798
1486.609	5703
1488.828	5728
1491.045	5712
1493.261	5735
1495.477	5705
1497.693	5652
1499.91	5822
1502.125	5783
1504.339	5875
1506.553	5655
1508.766	5800
1510.979	5723
1513.191	5728
1515.402	5613
1517.613	5678
1519.823	5711
1522.033	5700
1524.242	5664
1526.451	5777
1528.657	5742
1530.865	5755
1533.072	5746
1535.278	5746
1537.484	5713
1539.687	5741
1541.892	5721
1544.096	5638
1546.299	5858
1548.502	5901
1550.703	5769
1552.905	5763
1555.104	5815
1557.303	5819
1559.505	5763
1561.703	5798
1563.902	5819
1566.099	5999
1568.295	5927
1570.494	5866
1572.689	5834
1574.883	5859
1577.079	5966
1579.272	5798
1581.467	5975
1583.659	5896
1585.853	5927
1588.044	5908
1590.234	5940
1592.424	5921
1594.615	5924
1596.806	5949
1598.994	5871
1601.182	5830
1603.369	5963
1605.557	5953
1607.744	5849
1609.929	5988
1612.114	5943
1614.298	5933
1616.482	5914
1618.667	5904
1620.85	5972
1623.032	6002
1625.214	5965
1627.395	6026
1629.575	5966
1631.755	6008
1633.935	5910
1636.114	6022
1638.292	5992
1640.471	5942
1642.647	5969
1644.823	6007
1647	5941
1649.175	6025
1651.348	5946
1653.525	6045
1655.698	6031
1657.87	6091
1660.043	5971
1662.213	6120
1664.387	5959
1666.558	6051
1668.727	5978
1670.896	5993
1673.064	5983
1675.233	6093
1677.401	6004
1679.569	6047
1681.735	6091
1683.902	5955
1686.066	5976
1688.233	6059
1690.397	5975
1692.559	6096
1694.723	5970
1696.885	5985
1699.048	6016
1701.21	5989
1703.37	5964
1705.53	6006
1707.689	5933
1709.849	5868
1712.009	5954
1714.166	6016
1716.323	5939
1718.479	6027
1720.634	5934
1722.793	5976
1724.948	5896
1727.102	5983
1729.255	5815
1731.408	5907
1733.562	6032
1735.714	6052
1737.865	5963
1740.016	5977
1742.166	5976
1744.316	6100
1746.467	5980
1748.616	5978
1750.764	6040
1752.911	5920
1755.056	5939
1757.205	5993
1759.35	6017
1761.496	6021
1763.641	6078
1765.785	5975
1767.927	6022
1770.072	6058
1772.214	6012
1774.355	6041
1776.496	6118
1778.637	6078
1780.778	6134
1782.918	6013
1785.057	6123
1787.194	6066
1789.333	6090
1791.472	6062
1793.608	6028
1795.745	6023
1797.879	5965
1800.015	6155
1802.148	6090
1804.284	6164
1806.417	6132
1808.548	5942
1810.682	6085
1812.812	6148
1814.946	6111
1817.075	6026
1819.205	6016
1821.335	6058
1823.463	6168
1825.59	6010
1827.721	6098
1829.847	6065
1831.973	6079
1834.098	6179
1836.223	5925
1838.351	6114
1840.475	6001
1842.598	6114
1844.721	6039
1846.843	6030
1848.966	5969
1851.087	6034
1853.21	6043
1855.33	5996
1857.449	6002
1859.568	6032
1861.688	6072
1863.806	6034
1865.924	5991
1868.039	5978
1870.155	5997
1872.273	6053
1874.388	6126
1876.503	6135
1878.617	5873
1880.73	6117
1882.844	6159
1884.956	6085
1887.068	6084
1889.18	5947
1891.291	6059
1893.4	6038
1895.511	6112
1897.621	5972
1899.73	6113
1901.837	5967
1903.944	6087
1906.053	6106
1908.159	6132
1910.265	6065
1912.369	6170
1914.474	6061
1916.577	6202
1918.683	6286
1920.785	6061
1922.888	6083
1924.989	6196
1927.091	6186
1929.193	6219
1931.294	6168
1933.393	6189
1935.493	6115
1937.59	6240
1939.689	6186
1941.788	6212
1943.884	6262
1945.98	6189
1948.077	6257
1950.171	6127
1952.267	6042
1954.361	6116
1956.455	6155
1958.548	6206
1960.64	6161
1962.733	6183
1964.824	6135
1966.915	6133
1969.005	6193
1971.096	6206
1973.185	6233
1975.275	6092
1977.363	6064
1979.45	6187
1981.537	6115
1983.623	6065
1985.711	6119
1987.796	6079
1989.881	6203
1991.965	6205
1994.047	6193
1996.132	6102
1998.215	6110
2000.297	6170
2002.378	6270
2004.46	6134
2006.54	6092
2008.62	6028
2010.7	6208
2012.779	6114
2014.858	6137
2016.934	6081
2019.013	6157
2021.09	6142
2023.165	6097
2025.241	6223
2027.317	6044
2029.39	6259
2031.466	6265
2033.538	6102
2035.612	6239
2037.683	6193
2039.755	6230
2041.827	6218
2043.898	6180
2045.968	6310
2048.038	6223
2050.106	6140
2052.177	6150
2054.244	6191
2056.313	6268
2058.379	6246
2060.444	6214
2062.511	6185
2064.577	6279
2066.641	6252
2068.705	6191
2070.77	6281
2072.832	6275
2074.896	6221
2076.958	6208
2079.02	6138
2081.081	6312
2083.141	6347
2085.2	6170
2087.261	6412
2089.319	6196
2091.377	6249
2093.435	6252
2095.492	6241
2097.552	6252
2099.607	6248
2101.663	6375
2103.718	6313
2105.771	6248
2107.826	6264
2109.879	6218
2111.932	6268
2113.985	6206
2116.037	6288
2118.088	6312
2120.141	6257
2122.191	6352
2124.239	6359
2126.288	6168
2128.337	6329
2130.387	6278
2132.434	6309
2134.481	6107
2136.528	6293
2138.574	6244
2140.618	6334
2142.665	6254
2144.71	6329
2146.753	6230
2148.797	6267
2150.838	6285
2152.883	6342
2154.923	6312
2156.965	6259
2159.007	6238
2161.046	6267
2163.086	6314
2165.126	6294
2167.163	6230
2169.202	6329
2171.239	6242
2173.277	6242
2175.314	6176
2177.349	6253
2179.385	6179
2181.42	6200
2183.453	6235
2185.49	6079
2187.522	6269
2189.555	6230
2191.586	6051
2193.619	6084
2195.651	6187
2197.682	6173
2199.711	6163
2201.74	6145
2203.769	6180
2205.799	6200
2207.828	6102
2209.855	6147
2211.882	6170
2213.908	6108
2215.934	6088
2217.961	6122
2219.986	6068
2222.01	6097
2224.034	6204
2226.057	6149
2228.08	6002
2230.104	6145
2232.124	6142
2234.145	6116
2236.166	6133
2238.186	6198
2240.207	6106
2242.227	6093
2244.244	6154
2246.262	6105
2248.28	6004
2250.299	6116
2252.314	6069
2254.33	6104
2256.346	6073
2258.36	6111
2260.375	6066
2262.391	6010
2264.403	6141
2266.416	6153
2268.427	6111
2270.44	6243
2272.453	6133
2274.463	6090
2276.474	6091
2278.483	6104
2280.493	6099
2282.501	6153
2284.51	6087
2286.518	6058
2288.524	6150
2290.532	6205
2292.537	6219
2294.544	6126
2296.55	6169
2298.554	5928
2300.557	6171
2302.562	6100
2304.566	6153
2306.568	6044
2308.569	6121
2310.572	6200
2312.573	6017
2314.573	6181
2316.574	6167
2318.573	6194
2320.571	6146
2322.571	5999
2324.569	6032
2326.567	6237
2328.564	6074
2330.56	6119
2332.556	6078
2334.551	6115
2336.546	6045
2338.542	6153
2340.535	6054
2342.529	5993
2344.521	6078
2346.512	6022
2348.505	6088
2350.497	6096
2352.487	6057
2354.478	6065
2356.468	6020
2358.457	6079
2360.446	6071
2362.434	6081
2364.422	5990
2366.408	5952
2368.395	6016
2370.383	6172
2372.369	6036
2374.353	6147
2376.338	5955
2378.321	6056
2380.307	5970
2382.29	5955
2384.272	5993
2386.254	6061
2388.235	6011
2390.218	5997
2392.198	5897
2394.179	6073
2396.157	5921
2398.137	5977
2400.115	6018
2402.095	5916
2404.072	6022
2406.048	5962
2408.026	5961
2410.001	6062
2411.977	5961
2413.953	5936
2415.927	5838
2417.9	5981
2419.875	6019
2421.847	5921
2423.821	6061
2425.792	5989
2427.763	5982
2429.736	6022
2431.706	6080
2433.677	6061
2435.646	5987
2437.615	6018
2439.583	5850
2441.551	5978
2443.519	5909
2445.486	5866
2447.452	6065
2449.418	5937
2451.383	5923
2453.348	5976
2455.314	5948
2457.278	5983
2459.241	6024
2461.205	5946
2463.167	5970
2465.131	5981
2467.091	5958
2469.052	5904
2471.012	6039
2472.972	5969
2474.932	6038
2476.891	5941
2478.85	5903
2480.808	5988
2482.766	5874
2484.722	5826
2486.68	5864
2488.636	6006
2490.591	5885
2492.546	5836
2494.5	5965
2496.456	5930
2498.41	5895
2500.362	5892
2502.315	5831
2504.266	5955
2506.218	5982
2508.169	6005
2510.121	5832
2512.07	5975
2514.019	5856
2515.968	5784
2517.918	5877
2519.866	5997
2521.813	5893
2523.76	5836
2525.707	5998
2527.653	5887
2529.599	5804
2531.543	5837
2533.489	5881
2535.433	5889
2537.376	5972
2539.32	5876
2541.264	5957
2543.205	5882
2545.147	5931
2547.087	5851
2549.029	5846
2550.969	5883
2552.908	5802
2554.847	5896
2556.786	5782
2558.724	5895
2560.663	5870
2562.6	5879
2564.537	5723
2566.473	5938
2568.408	5872
2570.345	5902
2572.28	5888
2574.214	5876
2576.148	5865
2578.081	5844
2580.014	5919
2581.947	5808
2583.879	5829
2585.81	5903
2587.741	5890
2589.67	5970
2591.602	5881
2593.532	5948
2595.461	5893
2597.388	5948
2599.316	5898
2601.244	5875
2603.172	5932
2605.098	5870
2607.023	5931
2608.949	5888
2610.873	5866
2612.8	5889
2614.723	5869
2616.647	5865
2618.569	5896
2620.493	5987
2622.416	5871
2624.338	5942
2626.258	5880
2628.179	5988
2630.099	5900
2632.019	5851
2633.939	5902
2635.857	5797
2637.775	6021
2639.694	5846
2641.61	5934
2643.528	5968
2645.444	5915
2647.361	5847
2649.276	5922
2651.19	5925
2653.105	5965
2655.019	5871
2656.934	5977
2658.846	5853
2660.758	6016
2662.67	5797
2664.583	5927
2666.493	5814
2668.404	5948
2670.313	5890
2672.223	5960
2674.134	5937
2676.042	5820
2677.95	5871
2679.858	5764
2681.765	5857
2683.673	5847
2685.579	5890
2687.483	5848
2689.389	5867
2691.294	5920
2693.198	5887
2695.104	5861
2697.006	5883
2698.909	5814
2700.811	5850
2702.713	5917
2704.615	5882
2706.516	5805
2708.417	5840
2710.316	5748
2712.216	5745
2714.115	5870
2716.014	5905
2717.913	5885
2719.81	5865
2721.707	5846
2723.603	5864
2725.501	5739
2727.396	5789
2729.292	5785
2731.186	5748
2733.081	5887
2734.976	5765
2736.87	5739
2738.762	5762
2740.653	5840
2742.546	5718
2744.437	5804
2746.329	5825
2748.22	5851
2750.11	5865
2751.999	5790
2753.889	5700
2755.778	5739
2757.666	5636
2759.553	5709
2761.44	5850
2763.328	5790
2765.215	5835
2767.101	5886
2768.986	5834
2770.87	5797
2772.754	5724
2774.638	5886
2776.523	5839
2778.405	5918
2780.288	5805
2782.17	5810
2784.051	5774
2785.934	5793
2787.814	5792
2789.694	5807
2791.574	5596
2793.453	5748
2795.332	5796
2797.212	5785
2799.088	5756
2800.966	5775
2802.843	5750
2804.719	5702
2806.597	5760
2808.471	5746
2810.346	5879
2812.221	5747
2814.094	5804
2815.969	5761
2817.843	5657
2819.714	5740
2821.587	5790
2823.459	5730
2825.329	5738
2827.202	5793
2829.072	5653
2830.942	5759
2832.811	5747
2834.68	5648
2836.549	5740
2838.418	5743
2840.284	5830
2842.152	5795
2844.018	5711
2845.885	5775
2847.751	5799
2849.616	5787
2851.482	5729
2853.345	5869
2855.208	5818
2857.074	5820
2858.937	5759
2860.799	5759
2862.66	5839
2864.522	5895
2866.385	5841
2868.245	5844
2870.104	5814
2871.964	5981
2873.824	5914
2875.683	5907
2877.542	5886
2879.4	5867
2881.257	5964
2883.114	5995
2884.97	6011
2886.827	6057
2888.683	5991
2890.537	5948
2892.392	6043
2894.246	5961
2896.1	6034
2897.954	5972
2899.807	5988
2901.66	6089
2903.51	6066
2905.362	6026
2907.214	5942
2909.065	5909
2910.915	5983
2912.765	6031
2914.613	6023
2916.463	6081
2918.311	6018
2920.158	6022
2922.006	6092
2923.853	6114
2925.698	6110
2927.546	6126
2929.392	6221
2931.236	6230
2933.081	6154
2934.924	6191
2936.77	6278
2938.613	6223
2940.455	6296
2942.298	6239
2944.139	6238
2945.982	6330
2947.823	6344
2949.662	6192
2951.503	6244
2953.342	6307
2955.182	6390
2957.021	6200
2958.858	6324
2960.697	6182
2962.534	6273
2964.37	6223
2966.207	5989
2968.044	6071
2969.879	6069
2971.714	6063
2973.548	5944
2975.383	6057
2977.218	5974
2979.051	5969
2980.883	5876
2982.715	5941
2984.547	6005
2986.379	5899
2988.21	5784
2990.04	5802
2991.87	5780
2993.7	5857
2995.53	5887
2997.359	5972
2999.187	5696
3001.015	5770
3002.842	5727
3004.669	5745
3006.497	5697
3008.323	5719
3010.148	5652
3011.974	5619
3013.797	5675
3015.623	5673
3017.447	5567
3019.27	5717
3021.094	5687
3022.915	5675
3024.737	5570
3026.56	5558
3028.38	5588
3030.201	5530
3032.022	5612
3033.84	5502
3035.662	5646
3037.481	5435
3039.298	5520
3041.117	5491
3042.933	5587
3044.752	5509
3046.568	5565
3048.385	5459
3050.2	5550
3052.016	5540
3053.83	5488
3055.646	5607
3057.46	5571
3059.272	5485
3061.086	5532
3062.898	5430
3064.711	5560
3066.524	5571
3068.335	5563
3070.145	5503
3071.956	5462
3073.766	5432
3075.576	5448
3077.385	5518
3079.193	5491
3081.002	5456
3082.81	5346
3084.618	5521
3086.425	5527
3088.231	5425
3090.036	5408
3091.842	5507
3093.648	5384
3095.452	5454
3097.257	5403
3099.06	5286
3100.863	5390
3102.666	5396
3104.47	5465
3106.272	5407
3108.073	5349
3109.875	5323
3111.676	5392
3113.477	5304
3115.277	5302
3117.077	5359
3118.874	5432
3120.673	5339
3122.473	5348
3124.271	5341
3126.066	5398
3127.863	5248
3129.66	5342
3131.456	5416
3133.252	5285
3135.047	5379
3136.842	5280
3138.635	5291
3140.429	5346
3142.223	5421
3144.016	5250
3145.808	5286
3147.6	5339
3149.392	5177
3151.183	5187
3152.975	5352
3154.765	5332
3156.553	5181
3158.344	5294
3160.132	5345
3161.922	5274
3163.71	5275
3165.497	5268
3167.285	5247
3169.071	5285
3170.858	5221
3172.645	5294
3174.429	5276
3176.214	5232
3177.998	5228
3179.783	5243
3181.568	5294
3183.351	5280
3185.133	5145
3186.915	5239
3188.698	5257
3190.481	5256
3192.261	5127
3194.042	5295
3195.822	5210
3197.601	5154
3199.381	5127
3201.161	5229
3202.939	5144
3204.717	5270
3206.495	5077
3208.272	5106
3210.05	5201
3211.826	5246
3213.602	5326
3215.376	5089
3217.151	5154
3218.927	5200
3220.702	5136
3222.476	5300
3224.249	5194
3226.021	5117
3227.793	5190
3229.567	5182
3231.339	5126
3233.109	5111
3234.88	5176
3236.651	5139
3238.421	5090
3240.191	5194
3241.96	5103
3243.728	5179
3245.497	5177
3247.263	5246
3249.033	5181
3250.799	5170
3252.566	5205
3254.331	5157
3256.097	5100
3257.863	5213
3259.628	5198
3261.392	5174
3263.156	5194
3264.919	5199
3266.683	5123
3268.447	5103
3270.208	5182
3271.969	5155
3273.731	5115
3275.492	5220
3277.253	5172
3279.013	5113
3280.773	5127
3282.532	5130
3284.291	5261
3286.05	5121
3287.808	5197
3289.566	5201
3291.323	5225
3293.079	5196
3294.835	5211
3296.593	5242
3298.348	5323
3300.102	5164
3301.857	5235
3303.611	5268
3305.366	5249
3307.119	5235
3308.872	5130
3310.624	5137
3312.376	5094
3314.129	5358
3315.881	5261
3317.631	5197
3319.38	5144
3321.13	5162
3322.88	5281
3324.631	5164
3326.379	5186
3328.126	5266
3329.875	5195
3331.622	5143
3333.371	5285
3335.116	5074
3336.863	5140
3338.609	5154
3340.353	5173
3342.1	5205
3343.845	5204
3345.588	5161
3347.332	5196
3349.074	5173
3350.817	5157
3352.56	5184
3354.303	5192
3356.043	5108
3357.785	5157
3359.525	5229
3361.268	5118
3363.007	5291
3364.745	5129
3366.485	5085
3368.223	5206
3369.962	5087
3371.701	5179
3373.438	5147
3375.174	5225
3376.911	5058
3378.647	5101
3380.384	5099
3382.118	5048
3383.854	4924
3385.588	5065
3387.322	5127
3389.057	5150
3390.79	5083
3392.522	5008
3394.255	5070
3395.987	5073
3397.719	5065
3399.451	5047
3401.181	5042
3402.911	5031
3404.641	5070
3406.371	5090
3408.101	5083
3409.83	5031
3411.558	4944
3413.285	5055
3415.011	5081
3416.739	4995
3418.467	4940
3420.193	5007
3421.919	4998
3423.644	4906
3425.368	5007
3427.094	5044
3428.818	5015
3430.542	5005
3432.264	4974
3433.987	4973
3435.712	4965
3437.434	4971
3439.155	5042
3440.876	4970
3442.596	4960
3444.317	4967
3446.039	4946
3447.757	4901
3449.477	5024
3451.195	5031
3452.914	4963
3454.632	4930
3456.35	4982
3458.067	4891
3459.784	4989
3461.5	4829
3463.216	4784
3464.932	4878
3466.647	4943
3468.362	4845
3470.076	4971
3471.789	4882
3473.505	4821
3475.217	4834
3476.929	4803
3478.641	4793
3480.354	4726
3482.066	4862
3483.777	4839
3485.487	4921
3487.197	4796
3488.908	4851
3490.617	4773
3492.327	4794
3494.035	4822
3495.743	4832
3497.451	4870
3499.158	4908
3500.866	4816
3502.572	4849
3504.278	4747
3505.984	4771
3507.689	4700
3509.396	4710
3511.1	4793
3512.804	4840
3514.508	4810
3516.211	4816
3517.913	4784
3519.616	4760
3521.319	4713
3523.021	4772
3524.722	4678
3526.422	4725
3528.124	4756
3529.824	4901
3531.524	4767
3533.222	4688
3534.921	4767
3536.62	4715
3538.318	4627
3540.016	4762
3541.714	4778
3543.41	4765
3545.107	4737
3546.803	4652
3548.5	4660
3550.194	4753
3551.889	4757
3553.583	4630
3555.279	4717
3556.972	4800
3558.666	4667
3560.358	4810
3562.051	4737
3563.742	4680
3565.435	4687
3567.126	4679
3568.817	4682
3570.507	4681
3572.197	4609
3573.888	4728
3575.577	4706
3577.265	4624
3578.954	4602
3580.642	4604
3582.329	4628
3584.017	4648
3585.704	4658
3587.391	4616
3589.077	4617
3590.762	4561
3592.449	4751
3594.133	4551
3595.817	4571
3597.501	4551
3599.185	4544
3600.869	4620
3602.552	4583
3604.234	4596
3605.916	4538
3607.598	4538
3609.279	4558
3610.961	4600
3612.642	4636
3614.321	4526
3616	4545
3617.68	4543
3619.36	4549
3621.039	4574
3622.716	4573
3624.394	4537
3626.071	4509
3627.748	4442
3629.425	4484
3631.102	4489
3632.778	4567
3634.452	4501
3636.127	4438
3637.803	4548
3639.477	4523
3641.151	4504
3642.823	4466
3644.497	4488
3646.171	4394
3647.842	4509
3649.515	4558
3651.185	4414
3652.857	4423
3654.527	4399
3656.198	4459
3657.868	4356
3659.537	4425
3661.207	4489
3662.875	4394
3664.544	4487
3666.212	4532
3667.879	4429
3669.546	4442
3671.212	4423
3672.88	4415
3674.546	4367
3676.211	4383
3677.875	4425
3679.541	4388
3681.205	4386
3682.87	4369
3684.533	4437
3686.196	4481
3687.859	4434
3689.521	4360
3691.184	4349
3692.845	4404
3694.507	4310
3696.167	4403
3697.827	4421
3699.487	4409
3701.148	4402
3702.808	4347
3704.466	4410
3706.125	4455
3707.783	4397
3709.442	4431
3711.099	4406
3712.757	4420
3714.412	4325
3716.068	4265
3717.725	4321
3719.381	4362
3721.036	4340
3722.689	4295
3724.344	4436
3725.998	4403
3727.652	4332
3729.305	4274
3730.958	4344
3732.61	4353
3734.262	4372
3735.915	4303
3737.565	4374
3739.217	4306
3740.866	4286
3742.516	4237
3744.165	4286
3745.816	4344
3747.464	4318
3749.113	4254
3750.761	4260
3752.409	4323
3754.057	4213
3755.703	4246
3757.35	4298
3758.996	4304
3760.641	4324
3762.289	4294
3763.933	4294
3765.577	4277
3767.222	4294
3768.865	4229
3770.508	4254
3772.152	4283
3773.796	4326
3775.438	4270
3777.079	4169
3778.721	4227
3780.363	4229
3782.003	4075
3783.643	4220
3785.283	4236
3786.923	4202
3788.563	4238
3790.203	4183
3791.841	4214
3793.479	4286
3795.115	4204
3796.753	4284
3798.391	4209
3800.027	4164
3801.664	4192
3803.299	4208
3804.935	4215
3806.571	4165
3808.206	4181
3809.839	4182
3811.473	4098
3813.107	4221
3814.74	4179
3816.375	4242
3818.006	4120
3819.638	4056
3821.27	4191
3822.9	4150
3824.532	4207
3826.163	4093
3827.792	4134
3829.423	4090
3831.051	4178
3832.682	4121
3834.311	4185
3835.938	4154
3837.566	4154
3839.193	4107
3840.821	4085
3842.448	4154
3844.075	4146
3845.7	4119
3847.325	4154
3848.951	4119
3850.576	4042
3852.201	4011
3853.825	4141
3855.448	4113
3857.072	4156
3858.694	4084
3860.318	4052
3861.939	4055
3863.562	4076
3865.183	4063
3866.804	4070
3868.426	4029
3870.045	4011
3871.666	4018
3873.285	4067
3874.904	4027
3876.524	4004
3878.142	3961
3879.76	4011
3881.378	3967
3882.995	4021
3884.612	3997
3886.229	4025
3887.845	3988
3889.461	3994
3891.076	3998
3892.691	4039
3894.307	4044
3895.922	3974
3897.536	4065
3899.149	3975
3900.761	4088
3902.374	4001
3903.988	4050
3905.6	4043
3907.212	3960
3908.822	3981
3910.433	4020
3912.045	3995
3913.655	3945
3915.265	4035
3916.875	3951
3918.483	3986
3920.093	3952
3921.702	4033
3923.309	3959
3924.917	4013
3926.523	3874
3928.13	3916
3929.739	3996
3931.344	4105
3932.95	4034
3934.555	3963
3936.159	3936
3937.766	4018
3939.369	3980
3940.974	4020
3942.577	3910
3944.181	4001
3945.783	3994
3947.386	3934
3948.989	3949
3950.59	3950
3952.191	3897
3953.791	3853
3955.394	3870
3956.994	3997
3958.593	4002
3960.192	3905
3961.791	3807
3963.392	3938
3964.99	3827
3966.588	3887
3968.185	3876
3969.782	3862
3971.379	3875
3972.976	3956
3974.572	3873
3976.168	3842
3977.763	3772
3979.358	3897
3980.954	3919
3982.548	3837
3984.142	3831
3985.736	3824
3987.329	3809
3988.922	3962
3990.516	3912
3992.108	3830
3993.698	3757
3995.29	3841
3996.881	3803
3998.473	3827
4000.064	3806
4001.653	3859
4003.242	3837
4004.832	3863
4006.422	3813
4008.01	3880
4009.598	3829
4011.186	3755
4012.773	3730
4014.36	3893
4015.947	3763
4017.534	3854
4019.119	3776
4020.705	3758
4022.291	3799
4023.876	3788
4025.461	3714
4027.044	3820
4028.627	3756
4030.211	3722
4031.795	3677
4033.378	3674
4034.96	3712
4036.542	3723
4038.124	3766
4039.704	3799
4041.286	3679
4042.867	3713
4044.447	3690
4046.026	3759
4047.606	3709
4049.187	3602
4050.765	3743
4052.343	3776
4053.92	3641
4055.498	3690
4057.076	3669
4058.654	3630
4060.23	3799
4061.806	3747
4063.381	3624
4064.957	3720
4066.533	3608
4068.107	3700
4069.682	3635
4071.256	3640
4072.829	3707
4074.404	3715
4075.977	3624
4077.549	3671
4079.121	3732
4080.693	3654
4082.265	3630
4083.836	3661
4085.407	3658
4086.977	3743
4088.547	3636
4090.117	3664
4091.687	3636
4093.256	3640
4094.825	3639
4096.392	3656
4097.96	3609
4099.528	3636
4101.097	3610
4102.663	3633
4104.229	3613
4105.795	3682
4107.361	3622
4108.928	3615
4110.493	3558
4112.058	3627
4113.621	3555
4115.186	3606
4116.75	3608
4118.313	3587
4119.876	3590
4121.438	3588
4123	3565
4124.562	3618
4126.125	3535
4127.686	3573
4129.246	3536
4130.807	3525
4132.367	3527
4133.927	3589
4135.486	3540
4137.046	3564
4138.604	3547
4140.162	3550
4141.72	3491
4143.279	3566
4144.836	3518
4146.393	3553
4147.949	3507
4149.505	3500
4151.062	3591
4152.617	3530
4154.172	3541
4155.727	3506
4157.281	3528
4158.836	3491
4160.39	3593
4161.943	3400
4163.496	3537
4165.048	3423
4166.601	3505
4168.154	3469
4169.706	3576
4171.257	3558
4172.808	3369
4174.358	3622
4175.909	3478
4177.458	3519
4179.008	3456
4180.558	3477
4182.106	3445
4183.655	3403
4185.204	3492
4186.751	3534
4188.298	3424
4189.845	3375
4191.392	3449
4192.939	3390
4194.485	3377
4196.031	3358
4197.576	3405
4199.121	3412
4200.666	3453
4202.211	3376
4203.754	3484
4205.298	3300
4206.84	3423
4208.384	3427
4209.927	3376
4211.47	3447
4213.011	3432
4214.552	3321
4216.094	3392
4217.635	3338
4219.175	3361
4220.716	3375
4222.255	3358
4223.793	3357
4225.335	3377
4226.873	3355
4228.411	3419
4229.948	3313
4231.486	3334
4233.024	3427
4234.562	3349
4236.098	3308
4237.634	3327
4239.169	3420
4240.705	3353
4242.241	3358
4243.776	3333
4245.31	3324
4246.844	3313
4248.378	3340
4249.911	3332
4251.445	3333
4252.978	3315
4254.51	3343
4256.042	3392
4257.574	3230
4259.107	3303
4260.638	3372
4262.169	3233
4263.699	3335
4265.228	3314
4266.759	3367
4268.289	3359
4269.818	3335
4271.345	3339
4272.874	3365
4274.402	3255
4275.931	3317
4277.458	3310
4278.985	3318
4280.512	3354
4282.037	3233
4283.564	3265
4285.089	3296
4286.615	3241
4288.139	3336
4289.664	3272
4291.187	3241
4292.712	3277
4294.235	3300
4295.759	3289
4297.281	3207
4298.804	3240
4300.327	3258
4301.849	3334
4303.37	3269
4304.891	3248
4306.412	3255
4307.933	3253
4309.453	3335
4310.973	3241
4312.492	3235
