398.1873	2968
400.7097	2932
403.2336	3020
405.7547	3065
408.2751	2965
410.7948	3019
413.3138	3037
415.83	3027
418.3497	3034
420.8666	3140
423.3829	3118
425.8985	3145
428.4133	3223
430.9275	3195
433.441	3188
435.9538	3153
438.4639	3128
440.9753	3253
443.4881	3162
445.9982	3142
448.5055	3222
451.0142	3166
453.5201	3122
456.0274	3176
458.5361	3093
461.04	3208
463.5453	3187
466.0478	3129
468.5517	3179
471.0549	3172
473.5574	3231
476.0572	3196
478.5584	3171
481.0568	3161
483.5545	3249
486.0557	3127
488.5521	3209
491.0478	3218
493.5449	3154
496.0392	3214
498.5349	3303
501.0299	3283
503.5222	3291
506.0139	3344
508.5048	3270
510.9991	3301
513.4887	3268
515.9777	3276
518.4659	3250
520.9534	3259
523.4403	3291
525.9306	3307
528.4161	3305
530.9009	3328
533.3851	3324
535.8687	3266
538.3535	3344
540.8356	3251
543.3171	3270
545.7979	3325
548.278	3259
550.7595	3309
553.2383	3337
555.7144	3301
558.1918	3257
560.6685	3432
563.1446	3305
565.6221	3319
568.0968	3316
570.5688	3328
573.0422	3386
575.515	3409
577.989	3374
580.4584	3417
582.9291	3343
585.3991	3388
587.8685	3368
590.3352	3439
592.8052	3417
595.2706	3346
597.7372	3425
600.2033	3436
602.6666	3342
605.1334	3467
607.5953	3412
610.0587	3420
612.5193	3407
614.9814	3446
617.4427	3399
619.9034	3418
622.3615	3414
624.8208	3412
627.2775	3391
629.7335	3328
632.1929	3437
634.6476	3396
637.1016	3370
639.5569	3367
642.0096	3324
644.4637	3352
646.9151	3389
649.3678	3407
651.8179	3447
654.2672	3472
656.7159	3529
659.166	3453
661.6154	3467
664.0622	3434
666.5082	3422
668.9537	3448
671.4005	3497
673.8445	3446
676.288	3463
678.7308	3491
681.1729	3535
683.6163	3592
686.0572	3451
688.4973	3480
690.9368	3431
693.3757	3422
695.8138	3537
698.2534	3566
700.6902	3505
703.1245	3519
705.56	3417
707.9949	3518
710.4311	3567
712.8647	3528
715.2957	3594
717.7279	3580
720.1595	3509
722.5905	3603
725.0208	3608
727.4505	3626
729.8795	3573
732.3058	3576
734.7336	3601
737.1626	3619
739.587	3621
742.0128	3610
744.4359	3709
746.8604	3603
749.2841	3627
751.7073	3643
754.1278	3705
756.5496	3778
758.9688	3715
761.3893	3714
763.8093	3681
766.2285	3744
768.6451	3646
771.0611	3719
773.4784	3717
775.895	3673
778.3091	3734
780.7244	3864
783.1371	3743
785.5493	3823
787.9626	3802
790.3754	3709
792.7856	3721
795.1951	3684
797.6039	3723
800.0121	3703
802.4236	3724
804.8306	3728
807.2369	3779
809.6425	3798
812.0475	3725
814.4538	3778
816.8575	3823
819.2606	3794
821.663	3820
824.0648	3807
826.4659	3792
828.8683	3738
831.2682	3826
833.6674	3652
836.066	3852
838.4639	3835
840.8632	3782
843.2579	3788
845.6539	3824
848.0493	3836
850.444	3876
852.84	3964
855.2315	3799
857.6243	3893
860.0165	3813
862.4081	3824
864.797	3784
867.1892	3821
869.5789	3820
871.9659	3849
874.3542	3788
876.74	3899
879.129	3895
881.5155	3793
883.8994	3832
886.2845	3838
888.6671	3793
891.051	3855
893.4343	3865
895.8169	3878
898.197	3789
900.5783	3810
902.9571	3879
905.3372	3900
907.7167	3800
910.0936	3929
912.4698	3862
914.8474	3893
917.2244	3834
919.5987	3931
921.9744	4005
924.3475	4099
926.72	4029
929.0918	3986
931.4669	4070
933.8375	4027
936.2074	3958
938.5767	4103
940.9454	4155
943.3154	4221
945.6829	4174
948.0497	4286
950.4178	4385
952.7833	4525
955.1483	4629
957.5145	4813
959.8782	4819
962.2412	4788
964.6036	4730
966.9655	4542
969.3266	4448
971.6871	4359
974.0471	4187
976.4064	4138
978.765	4091
981.125	3988
983.4824	4086
985.8373	4024
988.1935	3951
990.549	3909
992.9039	3911
995.2602	3959
997.6119	4016
999.965	4068
1002.317	4016
1004.667	4026
1007.02	4115
1009.371	4006
1011.719	4058
1014.068	3994
1016.415	4064
1018.765	3983
1021.111	4140
1023.458	3973
1025.804	4031
1028.147	4053
1030.49	4070
1032.837	4118
1035.179	4005
1037.522	4158
1039.862	4049
1042.204	4084
1044.546	4017
1046.884	4083
1049.224	4107
1051.562	4029
1053.899	4062
1056.237	4083
1058.575	4104
1060.91	4124
1063.244	4037
1065.58	4155
1067.913	4207
1070.248	4177
1072.579	4173
1074.911	4232
1077.242	4120
1079.572	4224
1081.905	4051
1084.234	4115
1086.562	4046
1088.89	4123
1091.217	4126
1093.544	4051
1095.871	4181
1098.197	4144
1100.521	4132
1102.845	4115
1105.169	4084
1107.491	4160
1109.814	4138
1112.135	4060
1114.456	4047
1116.776	4183
1119.096	4144
1121.415	4078
1123.734	4118
1126.052	4158
1128.369	4083
1130.686	4192
1133.002	4166
1135.318	4051
1137.632	4091
1139.945	4090
1142.258	3978
1144.573	4144
1146.884	4069
1149.196	4092
1151.505	4271
1153.816	4190
1156.124	4088
1158.435	4134
1160.742	4140
1163.051	4046
1165.356	4085
1167.663	4130
1169.97	4204
1172.276	4107
1174.579	4128
1176.881	4104
1179.186	4108
1181.487	4088
1183.79	4075
1186.092	4144
1188.392	4114
1190.691	4121
1192.991	4139
1195.291	4037
1197.588	4191
1199.885	4260
1202.181	4161
1204.479	4190
1206.775	4073
1209.07	4170
1211.363	4192
1213.656	4047
1215.949	4094
1218.241	4125
1220.534	4111
1222.825	4199
1225.115	4181
1227.405	4109
1229.693	4306
1231.984	4249
1234.271	4213
1236.558	4308
1238.845	4228
1241.131	4270
1243.416	4340
1245.703	4248
1247.987	4289
1250.269	4246
1252.552	4271
1254.834	4303
1257.118	4326
1259.399	4236
1261.678	4153
1263.958	4243
1266.237	4312
1268.516	4288
1270.794	4231
1273.072	4320
1275.347	4241
1277.624	4235
1279.899	4360
1282.175	4295
1284.449	4229
1286.722	4254
1288.995	4246
1291.266	4163
1293.54	4310
1295.81	4216
1298.081	4213
1300.35	4178
1302.62	4225
1304.889	4305
1307.156	4206
1309.425	4278
1311.69	4262
1313.957	4268
1316.222	4258
1318.488	4200
1320.751	4188
1323.016	4264
1325.278	4254
1327.54	4196
1329.803	4249
1332.065	4304
1334.325	4169
1336.584	4267
1338.843	4310
1341.101	4224
1343.36	4272
1345.617	4298
1347.876	4301
1350.131	4303
1352.387	4256
1354.643	4314
1356.897	4218
1359.151	4317
1361.403	4304
1363.656	4245
1365.909	4266
1368.16	4232
1370.409	4160
1372.659	4349
1374.909	4343
1377.157	4269
1379.407	4272
1381.655	4243
1383.9	4319
1386.147	4303
1388.393	4384
1390.64	4305
1392.885	4343
1395.127	4395
1397.37	4310
1399.614	4277
1401.854	4509
1404.098	4382
1406.339	4373
1408.578	4344
1410.818	4346
1413.056	4368
1415.297	4335
1417.533	4435
1419.771	4357
1422.006	4357
1424.243	4395
1426.479	4392
1428.715	4402
1430.948	4391
1433.182	4369
1435.414	4454
1437.647	4413
1439.88	4504
1442.11	4527
1444.342	4406
1446.571	4508
1448.799	4355
1451.029	4472
1453.258	4531
1455.485	4457
1457.711	4449
1459.937	4432
1462.164	4500
1464.39	4470
1466.614	4502
1468.838	4413
1471.06	4402
1473.283	4339
1475.506	4433
1477.727	4403
1479.949	4324
1482.169	4406
1484.389	4374
1486.609	4351
1488.828	4408
1491.045	4412
1493.261	4316
1495.477	4290
1497.693	4266
1499.91	4509
1502.125	4264
1504.339	4360
1506.553	4251
1508.766	4363
1510.979	4314
1513.191	4412
1515.402	4269
1517.613	4332
1519.823	4226
1522.033	4274
1524.242	4294
1526.451	4235
1528.657	4334
1530.865	4369
1533.072	4281
1535.278	4383
1537.484	4365
1539.687	4334
1541.892	4411
1544.096	4365
1546.299	4362
1548.502	4364
1550.703	4412
1552.905	4320
1555.104	4361
1557.303	4369
1559.505	4457
1561.703	4422
1563.902	4393
1566.099	4436
1568.295	4431
1570.494	4454
1572.689	4421
1574.883	4458
1577.079	4436
1579.272	4391
1581.467	4497
1583.659	4393
1585.853	4352
1588.044	4507
1590.234	4438
1592.424	4548
1594.615	4416
1596.806	4530
1598.994	4532
1601.182	4522
1603.369	4518
1605.557	4546
1607.744	4456
1609.929	4524
1612.114	4473
1614.298	4554
1616.482	4448
1618.667	4457
1620.85	4425
1623.032	4486
1625.214	4435
1627.395	4545
1629.575	4514
1631.755	4566
1633.935	4506
1636.114	4513
1638.292	4544
1640.471	4463
1642.647	4583
1644.823	4551
1647	4550
1649.175	4541
1651.348	4585
1653.525	4651
1655.698	4523
1657.87	4611
1660.043	4559
1662.213	4619
1664.387	4579
1666.558	4562
1668.727	4642
1670.896	4578
1673.064	4586
1675.233	4558
1677.401	4656
1679.569	4564
1681.735	4614
1683.902	4530
1686.066	4529
1688.233	4636
1690.397	4595
1692.559	4608
1694.723	4616
1696.885	4651
1699.048	4565
1701.21	4660
1703.37	4580
1705.53	4455
1707.689	4521
1709.849	4473
1712.009	4495
1714.166	4549
1716.323	4521
1718.479	4420
1720.634	4525
1722.793	4537
1724.948	4476
1727.102	4593
1729.255	4461
1731.408	4495
1733.562	4598
1735.714	4458
1737.865	4542
1740.016	4526
1742.166	4611
1744.316	4537
1746.467	4465
1748.616	4516
1750.764	4526
1752.911	4515
1755.056	4525
1757.205	4467
1759.35	4546
1761.496	4613
1763.641	4519
1765.785	4571
1767.927	4494
1770.072	4602
1772.214	4545
1774.355	4606
1776.496	4550
1778.637	4638
1780.778	4579
1782.918	4537
1785.057	4599
1787.194	4642
1789.333	4601
1791.472	4621
1793.608	4646
1795.745	4631
1797.879	4576
1800.015	4552
1802.148	4625
1804.284	4513
1806.417	4704
1808.548	4646
1810.682	4589
1812.812	4647
1814.946	4595
1817.075	4633
1819.205	4606
1821.335	4664
1823.463	4609
1825.59	4632
1827.721	4570
1829.847	4570
1831.973	4632
1834.098	4576
1836.223	4548
1838.351	4607
1840.475	4599
1842.598	4579
1844.721	4568
1846.843	4603
1848.966	4634
1851.087	4555
1853.21	4449
1855.33	4619
1857.449	4565
1859.568	4603
1861.688	4491
1863.806	4610
1865.924	4627
1868.039	4623
1870.155	4611
1872.273	4596
1874.388	4583
1876.503	4525
1878.617	4645
1880.73	4627
1882.844	4609
1884.956	4615
1887.068	4695
1889.18	4684
1891.291	4641
1893.4	4635
1895.511	4614
1897.621	4642
1899.73	4643
1901.837	4592
1903.944	4736
1906.053	4650
1908.159	4684
1910.265	4710
1912.369	4668
1914.474	4670
1916.577	4663
1918.683	4653
1920.785	4705
1922.888	4677
1924.989	4683
1927.091	4627
1929.193	4697
1931.294	4652
1933.393	4707
1935.493	4623
1937.59	4728
1939.689	4712
1941.788	4738
1943.884	4717
1945.98	4774
1948.077	4676
1950.171	4678
1952.267	4751
1954.361	4778
1956.455	4776
1958.548	4685
1960.64	4662
1962.733	4691
1964.824	4675
1966.915	4681
1969.005	4738
1971.096	4706
1973.185	4780
1975.275	4619
1977.363	4663
1979.45	4636
1981.537	4686
1983.623	4655
1985.711	4694
1987.796	4685
1989.881	4668
1991.965	4661
1994.047	4605
1996.132	4730
1998.215	4703
2000.297	4671
2002.378	4677
2004.46	4638
2006.54	4692
2008.62	4652
2010.7	4681
2012.779	4614
2014.858	4604
2016.934	4630
2019.013	4777
2021.09	4738
2023.165	4571
2025.241	4745
2027.317	4776
2029.39	4593
2031.466	4589
2033.538	4649
2035.612	4612
2037.683	4694
2039.755	4754
2041.827	4676
2043.898	4656
2045.968	4600
2048.038	4718
2050.106	4688
2052.177	4691
2054.244	4700
2056.313	4626
2058.379	4697
2060.444	4682
2062.511	4688
2064.577	4592
2066.641	4716
2068.705	4671
2070.77	4695
2072.832	4653
2074.896	4758
2076.958	4762
2079.02	4640
2081.081	4766
2083.141	4744
2085.2	4809
2087.261	4732
2089.319	4719
2091.377	4663
2093.435	4751
2095.492	4753
2097.552	4639
2099.607	4800
2101.663	4732
2103.718	4817
2105.771	4735
2107.826	4623
2109.879	4743
2111.932	4741
2113.985	4705
2116.037	4743
2118.088	4673
2120.141	4786
2122.191	4716
2124.239	4634
2126.288	4712
2128.337	4682
2130.387	4772
2132.434	4681
2134.481	4660
2136.528	4785
2138.574	4661
2140.618	4700
2142.665	4692
2144.71	4651
2146.753	4730
2148.797	4662
2150.838	4731
2152.883	4637
2154.923	4708
2156.965	4695
2159.007	4749
2161.046	4697
2163.086	4653
2165.126	4715
2167.163	4634
2169.202	4676
2171.239	4638
2173.277	4628
2175.314	4621
2177.349	4652
2179.385	4697
2181.42	4667
2183.453	4657
2185.49	4678
2187.522	4676
2189.555	4598
2191.586	4602
2193.619	4653
2195.651	4721
2197.682	4607
2199.711	4632
2201.74	4547
2203.769	4605
2205.799	4594
2207.828	4575
2209.855	4629
2211.882	4566
2213.908	4637
2215.934	4683
2217.961	4694
2219.986	4662
2222.01	4656
2224.034	4511
2226.057	4712
2228.08	4656
2230.104	4566
2232.124	4664
2234.145	4563
2236.166	4609
2238.186	4684
2240.207	4630
2242.227	4650
2244.244	4696
2246.262	4639
2248.28	4537
2250.299	4572
2252.314	4623
2254.33	4609
2256.346	4595
2258.36	4688
2260.375	4653
2262.391	4639
2264.403	4630
2266.416	4548
2268.427	4622
2270.44	4627
2272.453	4624
2274.463	4746
2276.474	4562
2278.483	4661
2280.493	4643
2282.501	4666
2284.51	4661
2286.518	4683
2288.524	4642
2290.532	4637
2292.537	4634
2294.544	4663
2296.55	4738
2298.554	4632
2300.557	4605
2302.562	4611
2304.566	4693
2306.568	4643
2308.569	4653
2310.572	4682
2312.573	4655
2314.573	4664
2316.574	4706
2318.573	4599
2320.571	4633
2322.571	4619
2324.569	4641
2326.567	4562
2328.564	4610
2330.56	4604
2332.556	4688
2334.551	4618
2336.546	4586
2338.542	4533
2340.535	4593
2342.529	4577
2344.521	4605
2346.512	4521
2348.505	4528
2350.497	4611
2352.487	4642
2354.478	4595
2356.468	4557
2358.457	4559
2360.446	4534
2362.434	4592
2364.422	4582
2366.408	4580
2368.395	4607
2370.383	4588
2372.369	4506
2374.353	4581
2376.338	4529
2378.321	4620
2380.307	4508
2382.29	4621
2384.272	4558
2386.254	4536
2388.235	4490
2390.218	4544
2392.198	4537
2394.179	4594
2396.157	4444
2398.137	4545
2400.115	4392
2402.095	4575
2404.072	4570
2406.048	4513
2408.026	4555
2410.001	4523
2411.977	4477
2413.953	4588
2415.927	4453
2417.9	4472
2419.875	4556
2421.847	4628
2423.821	4555
2425.792	4544
2427.763	4541
2429.736	4494
2431.706	4480
2433.677	4530
2435.646	4504
2437.615	4579
2439.583	4572
2441.551	4577
2443.519	4576
2445.486	4516
2447.452	4545
2449.418	4512
2451.383	4545
2453.348	4617
2455.314	4530
2457.278	4542
2459.241	4573
2461.205	4605
2463.167	4462
2465.131	4564
2467.091	4531
2469.052	4490
2471.012	4471
2472.972	4586
2474.932	4468
2476.891	4494
2478.85	4477
2480.808	4488
2482.766	4521
2484.722	4437
2486.68	4487
2488.636	4590
2490.591	4458
2492.546	4533
2494.5	4459
2496.456	4552
2498.41	4486
2500.362	4548
2502.315	4472
2504.266	4563
2506.218	4500
2508.169	4561
2510.121	4566
2512.07	4413
2514.019	4453
2515.968	4497
2517.918	4595
2519.866	4418
2521.813	4438
2523.76	4492
2525.707	4488
2527.653	4539
2529.599	4501
2531.543	4566
2533.489	4453
2535.433	4535
2537.376	4526
2539.32	4439
2541.264	4561
2543.205	4548
2545.147	4647
2547.087	4504
2549.029	4530
2550.969	4449
2552.908	4530
2554.847	4428
2556.786	4474
2558.724	4523
2560.663	4483
2562.6	4495
2564.537	4456
2566.473	4571
2568.408	4450
2570.345	4496
2572.28	4534
2574.214	4516
2576.148	4443
2578.081	4540
2580.014	4488
2581.947	4498
2583.879	4459
2585.81	4472
2587.741	4505
2589.67	4444
2591.602	4507
2593.532	4414
2595.461	4487
2597.388	4555
2599.316	4498
2601.244	4473
2603.172	4521
2605.098	4494
2607.023	4489
2608.949	4426
2610.873	4525
2612.8	4440
2614.723	4595
2616.647	4510
2618.569	4530
2620.493	4531
2622.416	4590
2624.338	4498
2626.258	4586
2628.179	4619
2630.099	4601
2632.019	4539
2633.939	4471
2635.857	4553
2637.775	4551
2639.694	4574
2641.61	4533
2643.528	4590
2645.444	4527
2647.361	4521
2649.276	4564
2651.19	4525
2653.105	4532
2655.019	4572
2656.934	4553
2658.846	4437
2660.758	4572
2662.67	4440
2664.583	4469
2666.493	4519
2668.404	4541
2670.313	4490
2672.223	4484
2674.134	4470
2676.042	4621
2677.95	4483
2679.858	4473
2681.765	4542
2683.673	4550
2685.579	4518
2687.483	4526
2689.389	4490
2691.294	4509
2693.198	4546
2695.104	4467
2697.006	4474
2698.909	4445
2700.811	4521
2702.713	4560
2704.615	4428
2706.516	4403
2708.417	4536
2710.316	4547
2712.216	4454
2714.115	4489
2716.014	4530
2717.913	4557
2719.81	4464
2721.707	4497
2723.603	4431
2725.501	4493
2727.396	4506
2729.292	4473
2731.186	4530
2733.081	4477
2734.976	4474
2736.87	4525
2738.762	4503
2740.653	4339
2742.546	4467
2744.437	4424
2746.329	4378
2748.22	4560
2750.11	4517
2751.999	4474
2753.889	4506
2755.778	4481
2757.666	4498
2759.553	4494
2761.44	4450
2763.328	4476
2765.215	4474
2767.101	4457
2768.986	4468
2770.87	4398
2772.754	4504
2774.638	4504
2776.523	4476
2778.405	4487
2780.288	4443
2782.17	4350
2784.051	4417
2785.934	4411
2787.814	4481
2789.694	4460
2791.574	4459
2793.453	4489
2795.332	4507
2797.212	4464
2799.088	4412
2800.966	4485
2802.843	4456
2804.719	4466
2806.597	4439
2808.471	4495
2810.346	4495
2812.221	4429
2814.094	4527
2815.969	4452
2817.843	4399
2819.714	4380
2821.587	4375
2823.459	4442
2825.329	4429
2827.202	4447
2829.072	4393
2830.942	4374
2832.811	4473
2834.68	4400
2836.549	4439
2838.418	4390
2840.284	4463
2842.152	4504
2844.018	4517
2845.885	4415
2847.751	4438
2849.616	4502
2851.482	4461
2853.345	4503
2855.208	4504
2857.074	4511
2858.937	4447
2860.799	4490
2862.66	4427
2864.522	4544
2866.385	4591
2868.245	4531
2870.104	4566
2871.964	4606
2873.824	4661
2875.683	4670
2877.542	4603
2879.4	4738
2881.257	4645
2883.114	4763
2884.97	4687
2886.827	4667
2888.683	4700
2890.537	4668
2892.392	4669
2894.246	4724
2896.1	4718
2897.954	4758
2899.807	4698
2901.66	4636
2903.51	4710
2905.362	4728
2907.214	4765
2909.065	4705
2910.915	4751
2912.765	4794
2914.613	4694
2916.463	4818
2918.311	4762
2920.158	4798
2922.006	4876
2923.853	4858
2925.698	4918
2927.546	5049
2929.392	4923
2931.236	5031
2933.081	5075
2934.924	5080
2936.77	5060
2938.613	5008
2940.455	4977
2942.298	5204
2944.139	5231
2945.982	5081
2947.823	5100
2949.662	5097
2951.503	5159
2953.342	5127
2955.182	5022
2957.021	4937
2958.858	4967
2960.697	4902
2962.534	4940
2964.37	4941
2966.207	4811
2968.044	4735
2969.879	4826
2971.714	4728
2973.548	4770
2975.383	4710
2977.218	4741
2979.051	4837
2980.883	4651
2982.715	4673
2984.547	4733
2986.379	4607
2988.21	4629
2990.04	4688
2991.87	4589
2993.7	4603
2995.53	4565
2997.359	4620
2999.187	4524
3001.015	4549
3002.842	4525
3004.669	4438
3006.497	4454
3008.323	4464
3010.148	4472
3011.974	4441
3013.797	4321
3015.623	4480
3017.447	4388
3019.27	4309
3021.094	4397
3022.915	4281
3024.737	4394
3026.56	4302
3028.38	4321
3030.201	4310
3032.022	4377
3033.84	4278
3035.662	4254
3037.481	4303
3039.298	4263
3041.117	4272
3042.933	4336
3044.752	4236
3046.568	4324
3048.385	4211
3050.2	4335
3052.016	4351
3053.83	4279
3055.646	4226
3057.46	4392
3059.272	4178
3061.086	4248
3062.898	4262
3064.711	4330
3066.524	4346
3068.335	4322
3070.145	4379
3071.956	4216
3073.766	4243
3075.576	4199
3077.385	4203
3079.193	4199
3081.002	4223
3082.81	4217
3084.618	4302
3086.425	4151
3088.231	4126
3090.036	4148
3091.842	4168
3093.648	4122
3095.452	4215
3097.257	4193
3099.06	4155
3100.863	4170
3102.666	4226
3104.47	4124
3106.272	4230
3108.073	4246
3109.875	4087
3111.676	4152
3113.477	4149
3115.277	4154
3117.077	4163
3118.874	4149
3120.673	4184
3122.473	4182
3124.271	4152
3126.066	4241
3127.863	4100
3129.66	4104
3131.456	4133
3133.252	4118
3135.047	4097
3136.842	4108
3138.635	4143
3140.429	4210
3142.223	4092
3144.016	4139
3145.808	4044
3147.6	4105
3149.392	4049
3151.183	4083
3152.975	4035
3154.765	4032
3156.553	4033
3158.344	4095
3160.132	4097
3161.922	4058
3163.71	4029
3165.497	3979
3167.285	4097
3169.071	3986
3170.858	3976
3172.645	4008
3174.429	4051
3176.214	4049
3177.998	4058
3179.783	4067
3181.568	4142
3183.351	4052
3185.133	4073
3186.915	4030
3188.698	3978
3190.481	4030
3192.261	3958
3194.042	4142
3195.822	4022
3197.601	4022
3199.381	4007
3201.161	4045
3202.939	3980
3204.717	4081
3206.495	4040
3208.272	4047
3210.05	4049
3211.826	4054
3213.602	4123
3215.376	3988
3217.151	4007
3218.927	3959
3220.702	4090
3222.476	4049
3224.249	3977
3226.021	4008
3227.793	4048
3229.567	3979
3231.339	3983
3233.109	4039
3234.88	3942
3236.651	4032
3238.421	4007
3240.191	3954
3241.96	4115
3243.728	4046
3245.497	4009
3247.263	4133
3249.033	3991
3250.799	4051
3252.566	4013
3254.331	4032
3256.097	4023
3257.863	4010
3259.628	4023
3261.392	4080
3263.156	4028
3264.919	4050
3266.683	4005
3268.447	3988
3270.208	4014
3271.969	3998
3273.731	4016
3275.492	4066
3277.253	4075
3279.013	4069
3280.773	3991
3282.532	4105
3284.291	4005
3286.05	3960
3287.808	4004
3289.566	4081
3291.323	4079
3293.079	4058
3294.835	4032
3296.593	3953
3298.348	3975
3300.102	4058
3301.857	4029
3303.611	4071
3305.366	4035
3307.119	3990
3308.872	3937
3310.624	4024
3312.376	3971
3314.129	3949
3315.881	4030
3317.631	3927
3319.38	3946
3321.13	3937
3322.88	4020
3324.631	4010
3326.379	4022
3328.126	3977
3329.875	3977
3331.622	3927
3333.371	4046
3335.116	4001
3336.863	4085
3338.609	4071
3340.353	4017
3342.1	4050
3343.845	4008
3345.588	4014
3347.332	3985
3349.074	3966
3350.817	3923
3352.56	3950
3354.303	3984
3356.043	3888
3357.785	3917
3359.525	3959
3361.268	3952
3363.007	4014
3364.745	3976
3366.485	4036
3368.223	4033
3369.962	3912
3371.701	4065
3373.438	3899
3375.174	3934
3376.911	3924
3378.647	3923
3380.384	3903
3382.118	3898
3383.854	3910
3385.588	3876
3387.322	3820
3389.057	3959
3390.79	3916
3392.522	3906
3394.255	3970
3395.987	3957
3397.719	3830
3399.451	3843
3401.181	3932
3402.911	3905
3404.641	3870
3406.371	3894
3408.101	3844
3409.83	3836
3411.558	3959
3413.285	3837
3415.011	3886
3416.739	3870
3418.467	3923
3420.193	3892
3421.919	3956
3423.644	3901
3425.368	3897
3427.094	3842
3428.818	3791
3430.542	3849
3432.264	3793
3433.987	3861
3435.712	3831
3437.434	3858
3439.155	3828
3440.876	3870
3442.596	3755
3444.317	3769
3446.039	3801
3447.757	3790
3449.477	3899
3451.195	3758
3452.914	3753
3454.632	3837
3456.35	3799
3458.067	3896
3459.784	3785
3461.5	3728
3463.216	3708
3464.932	3786
3466.647	3774
3468.362	3780
3470.076	3773
3471.789	3841
3473.505	3802
3475.217	3747
3476.929	3710
3478.641	3777
3480.354	3670
3482.066	3732
3483.777	3762
3485.487	3688
3487.197	3826
3488.908	3738
3490.617	3727
3492.327	3742
3494.035	3656
3495.743	3696
3497.451	3716
3499.158	3713
3500.866	3681
3502.572	3748
3504.278	3701
3505.984	3721
3507.689	3703
3509.396	3639
3511.1	3637
3512.804	3698
3514.508	3678
3516.211	3684
3517.913	3698
3519.616	3688
3521.319	3652
3523.021	3679
3524.722	3738
3526.422	3624
3528.124	3740
3529.824	3596
3531.524	3689
3533.222	3658
3534.921	3674
3536.62	3641
3538.318	3650
3540.016	3719
3541.714	3621
3543.41	3640
3545.107	3667
3546.803	3652
3548.5	3705
3550.194	3622
3551.889	3687
3553.583	3631
3555.279	3643
3556.972	3656
3558.666	3577
3560.358	3578
3562.051	3605
3563.742	3655
3565.435	3618
3567.126	3599
3568.817	3599
3570.507	3639
3572.197	3626
3573.888	3644
3575.577	3544
3577.265	3535
3578.954	3604
3580.642	3623
3582.329	3540
3584.017	3551
3585.704	3537
3587.391	3555
3589.077	3597
3590.762	3541
3592.449	3615
3594.133	3527
3595.817	3559
3597.501	3618
3599.185	3461
3600.869	3539
3602.552	3618
3604.234	3515
3605.916	3527
3607.598	3550
3609.279	3466
3610.961	3504
3612.642	3486
3614.321	3459
3616	3485
3617.68	3464
3619.36	3489
3621.039	3453
3622.716	3442
3624.394	3448
3626.071	3539
3627.748	3543
3629.425	3507
3631.102	3517
3632.778	3384
3634.452	3420
3636.127	3393
3637.803	3483
3639.477	3377
3641.151	3440
3642.823	3427
3644.497	3448
3646.171	3447
3647.842	3485
3649.515	3518
3651.185	3402
3652.857	3465
3654.527	3351
3656.198	3374
3657.868	3398
3659.537	3384
3661.207	3313
3662.875	3353
3664.544	3406
3666.212	3415
3667.879	3406
3669.546	3491
3671.212	3424
3672.88	3318
3674.546	3397
3676.211	3453
3677.875	3387
3679.541	3355
3681.205	3367
3682.87	3394
3684.533	3396
3686.196	3350
3687.859	3411
3689.521	3302
3691.184	3304
3692.845	3330
3694.507	3391
3696.167	3331
3697.827	3306
3699.487	3327
3701.148	3297
3702.808	3314
3704.466	3403
3706.125	3438
3707.783	3343
3709.442	3369
3711.099	3315
3712.757	3344
3714.412	3227
3716.068	3298
3717.725	3435
3719.381	3330
3721.036	3347
3722.689	3311
3724.344	3330
3725.998	3427
3727.652	3319
3729.305	3312
3730.958	3355
3732.61	3324
3734.262	3360
3735.915	3327
3737.565	3267
3739.217	3321
3740.866	3307
3742.516	3358
3744.165	3275
3745.816	3277
3747.464	3255
3749.113	3246
3750.761	3373
3752.409	3339
3754.057	3302
3755.703	3318
3757.35	3243
3758.996	3269
3760.641	3309
3762.289	3256
3763.933	3354
3765.577	3289
3767.222	3245
3768.865	3294
3770.508	3268
3772.152	3242
3773.796	3254
3775.438	3228
3777.079	3318
3778.721	3271
3780.363	3259
3782.003	3257
3783.643	3242
3785.283	3283
3786.923	3268
3788.563	3254
3790.203	3234
3791.841	3269
3793.479	3269
3795.115	3236
3796.753	3223
3798.391	3252
3800.027	3249
3801.664	3245
3803.299	3254
3804.935	3145
3806.571	3223
3808.206	3190
3809.839	3165
3811.473	3203
3813.107	3195
3814.74	3161
3816.375	3192
3818.006	3214
3819.638	3271
3821.27	3144
3822.9	3188
3824.532	3192
3826.163	3219
3827.792	3139
3829.423	3191
3831.051	3199
3832.682	3158
3834.311	3198
3835.938	3252
3837.566	3180
3839.193	3128
3840.821	3109
3842.448	3161
3844.075	3100
3845.7	3206
3847.325	3172
3848.951	3146
3850.576	3061
3852.201	3169
3853.825	3115
3855.448	3136
3857.072	3122
3858.694	3184
3860.318	3126
3861.939	3161
3863.562	3108
3865.183	3110
3866.804	3142
3868.426	3132
3870.045	3021
3871.666	3107
3873.285	3148
3874.904	3074
3876.524	3080
3878.142	3075
3879.76	3085
3881.378	3033
3882.995	3163
3884.612	3061
3886.229	3109
3887.845	3047
3889.461	3070
3891.076	2983
3892.691	3082
3894.307	3205
3895.922	3156
3897.536	3078
3899.149	3101
3900.761	3099
3902.374	3125
3903.988	3044
3905.6	3108
3907.212	3060
3908.822	3045
3910.433	3077
3912.045	2988
3913.655	3087
3915.265	3038
3916.875	3056
3918.483	3018
3920.093	3075
3921.702	3036
3923.309	3101
3924.917	3080
3926.523	3058
3928.13	3113
3929.739	3033
3931.344	3034
3932.95	3104
3934.555	3088
3936.159	3072
3937.766	3103
3939.369	3060
3940.974	3050
3942.577	3009
3944.181	3035
3945.783	3056
3947.386	2986
3948.989	2968
3950.59	3048
3952.191	3065
3953.791	3005
3955.394	3038
3956.994	3010
3958.593	3089
3960.192	2955
3961.791	2968
3963.392	3018
3964.99	2998
3966.588	3025
3968.185	3010
3969.782	2983
3971.379	3004
3972.976	3037
3974.572	2999
3976.168	2983
3977.763	3046
3979.358	2973
3980.954	2969
3982.548	3035
3984.142	2918
3985.736	2972
3987.329	2953
3988.922	2951
3990.516	3015
3992.108	2993
3993.698	2911
3995.29	2939
3996.881	2976
3998.473	2941
4000.064	2890
4001.653	2931
4003.242	2939
4004.832	2908
4006.422	2962
4008.01	2933
4009.598	3010
4011.186	2934
4012.773	2918
4014.36	2983
4015.947	2875
4017.534	2873
4019.119	2884
4020.705	2885
4022.291	2837
4023.876	2857
4025.461	2868
4027.044	2854
4028.627	2875
4030.211	2989
4031.795	2870
4033.378	2938
4034.96	2847
4036.542	2798
4038.124	2868
4039.704	2898
4041.286	2861
4042.867	2868
4044.447	2874
4046.026	2823
4047.606	2835
4049.187	2933
4050.765	2842
4052.343	2874
4053.92	2739
4055.498	2801
4057.076	2899
4058.654	2820
4060.23	2802
4061.806	2891
4063.381	2806
4064.957	2818
4066.533	2865
4068.107	2841
4069.682	2787
4071.256	2816
4072.829	2839
4074.404	2808
4075.977	2792
4077.549	2861
4079.121	2750
4080.693	2851
4082.265	2841
4083.836	2733
4085.407	2831
4086.977	2852
4088.547	2782
4090.117	2720
4091.687	2820
4093.256	2805
4094.825	2821
4096.392	2781
4097.96	2787
4099.528	2797
4101.097	2807
4102.663	2788
4104.229	2796
4105.795	2849
4107.361	2767
4108.928	2785
4110.493	2800
4112.058	2847
4113.621	2748
4115.186	2791
4116.75	2779
4118.313	2795
4119.876	2803
4121.438	2762
4123	2739
4124.562	2771
4126.125	2733
4127.686	2725
4129.246	2699
4130.807	2784
4132.367	2687
4133.927	2793
4135.486	2712
4137.046	2769
4138.604	2633
4140.162	2772
4141.72	2771
4143.279	2770
4144.836	2683
4146.393	2723
4147.949	2695
4149.505	2706
4151.062	2684
4152.617	2722
4154.172	2661
4155.727	2730
4157.281	2694
4158.836	2660
4160.39	2683
4161.943	2744
4163.496	2768
4165.048	2708
4166.601	2722
4168.154	2647
4169.706	2603
4171.257	2658
4172.808	2637
4174.358	2651
4175.909	2653
4177.458	2641
4179.008	2592
4180.558	2669
4182.106	2635
4183.655	2664
4185.204	2644
4186.751	2721
4188.298	2596
4189.845	2639
4191.392	2568
4192.939	2650
4194.485	2608
4196.031	2733
4197.576	2619
4199.121	2623
4200.666	2600
4202.211	2621
4203.754	2655
4205.298	2592
4206.84	2618
4208.384	2617
4209.927	2564
4211.47	2628
4213.011	2642
4214.552	2587
4216.094	2566
4217.635	2558
4219.175	2613
4220.716	2579
4222.255	2672
4223.793	2635
4225.335	2578
4226.873	2571
4228.411	2637
4229.948	2546
4231.486	2561
4233.024	2569
4234.562	2613
4236.098	2624
4237.634	2579
4239.169	2567
4240.705	2535
4242.241	2617
4243.776	2567
4245.31	2600
4246.844	2566
4248.378	2540
4249.911	2565
4251.445	2586
4252.978	2526
4254.51	2507
4256.042	2564
4257.574	2539
4259.107	2524
4260.638	2507
4262.169	2525
4263.699	2589
4265.228	2581
4266.759	2572
4268.289	2548
4269.818	2499
4271.345	2523
4272.874	2579
4274.402	2531
4275.931	2550
4277.458	2467
4278.985	2573
4280.512	2508
4282.037	2516
4283.564	2528
4285.089	2597
4286.615	2473
4288.139	2553
4289.664	2534
4291.187	2488
4292.712	2494
4294.235	2485
4295.759	2505
4297.281	2477
4298.804	2521
4300.327	2489
4301.849	2504
4303.37	2554
4304.891	2552
4306.412	2479
4307.933	2468
4309.453	2483
4310.973	2475
4312.492	2512
