398.1873	3332
400.7097	3306
403.2336	3266
405.7547	3290
408.2751	3401
410.7948	3317
413.3138	3274
415.83	3348
418.3497	3410
420.8666	3410
423.3829	3450
425.8985	3464
428.4133	3472
430.9275	3614
433.441	3495
435.9538	3459
438.4639	3511
440.9753	3557
443.4881	3516
445.9982	3575
448.5055	3488
451.0142	3544
453.5201	3475
456.0274	3635
458.5361	3503
461.04	3532
463.5453	3532
466.0478	3544
468.5517	3571
471.0549	3557
473.5574	3618
476.0572	3647
478.5584	3570
481.0568	3631
483.5545	3632
486.0557	3621
488.5521	3627
491.0478	3583
493.5449	3669
496.0392	3579
498.5349	3663
501.0299	3739
503.5222	3641
506.0139	3660
508.5048	3724
510.9991	3682
513.4887	3777
515.9777	3708
518.4659	3712
520.9534	3684
523.4403	3765
525.9306	3587
528.4161	3720
530.9009	3664
533.3851	3714
535.8687	3662
538.3535	3716
540.8356	3668
543.3171	3715
545.7979	3700
548.278	3691
550.7595	3758
553.2383	3670
555.7144	3764
558.1918	3774
560.6685	3759
563.1446	3716
565.6221	3754
568.0968	3692
570.5688	3812
573.0422	3776
575.515	3807
577.989	3692
580.4584	3822
582.9291	3815
585.3991	3823
587.8685	3809
590.3352	3757
592.8052	3832
595.2706	3836
597.7372	3749
600.2033	3817
602.6666	3737
605.1334	3766
607.5953	3779
610.0587	3868
612.5193	3749
614.9814	3813
617.4427	3712
619.9034	3734
622.3615	3754
624.8208	3813
627.2775	3795
629.7335	3754
632.1929	3752
634.6476	3751
637.1016	3812
639.5569	3849
642.0096	3786
644.4637	3820
646.9151	3876
649.3678	3852
651.8179	3840
654.2672	3888
656.7159	3846
659.166	3849
661.6154	3892
664.0622	3899
666.5082	3904
668.9537	3895
671.4005	3888
673.8445	3860
676.288	3869
678.7308	3932
681.1729	3996
683.6163	3995
686.0572	3922
688.4973	3931
690.9368	4013
693.3757	3975
695.8138	3899
698.2534	3977
700.6902	3965
703.1245	3934
705.56	3991
707.9949	3982
710.4311	4056
712.8647	4032
715.2957	4004
717.7279	4102
720.1595	4098
722.5905	4053
725.0208	4012
727.4505	4049
729.8795	4197
732.3058	4078
734.7336	4193
737.1626	4127
739.587	4114
742.0128	4146
744.4359	4146
746.8604	4144
749.2841	4179
751.7073	4175
754.1278	4257
756.5496	4143
758.9688	4081
761.3893	4153
763.8093	4278
766.2285	4166
768.6451	4217
771.0611	4294
773.4784	4218
775.895	4278
778.3091	4213
780.7244	4233
783.1371	4349
785.5493	4248
787.9626	4341
790.3754	4192
792.7856	4195
795.1951	4315
797.6039	4258
800.0121	4188
802.4236	4248
804.8306	4221
807.2369	4295
809.6425	4323
812.0475	4261
814.4538	4263
816.8575	4270
819.2606	4328
821.663	4253
824.0648	4328
826.4659	4286
828.8683	4295
831.2682	4237
833.6674	4287
836.066	4314
838.4639	4281
840.8632	4343
843.2579	4311
845.6539	4343
848.0493	4333
850.444	4363
852.84	4404
855.2315	4385
857.6243	4352
860.0165	4312
862.4081	4308
864.797	4295
867.1892	4371
869.5789	4329
871.9659	4252
874.3542	4403
876.74	4329
879.129	4370
881.5155	4316
883.8994	4295
886.2845	4329
888.6671	4339
891.051	4351
893.4343	4356
895.8169	4375
898.197	4339
900.5783	4387
902.9571	4361
905.3372	4464
907.7167	4396
910.0936	4327
912.4698	4456
914.8474	4552
917.2244	4540
919.5987	4550
921.9744	4583
924.3475	4599
926.72	4575
929.0918	4641
931.4669	4521
933.8375	4672
936.2074	4545
938.5767	4580
940.9454	4564
943.3154	4570
945.6829	4599
948.0497	4639
950.4178	4666
952.7833	4709
955.1483	4749
957.5145	4883
959.8782	4823
962.2412	4919
964.6036	4857
966.9655	4808
969.3266	4780
971.6871	4642
974.0471	4653
976.4064	4590
978.765	4609
981.125	4515
983.4824	4568
985.8373	4574
988.1935	4539
990.549	4601
992.9039	4527
995.2602	4660
997.6119	4551
999.965	4517
1002.317	4624
1004.667	4632
1007.02	4595
1009.371	4617
1011.719	4556
1014.068	4571
1016.415	4544
1018.765	4580
1021.111	4618
1023.458	4594
1025.804	4616
1028.147	4705
1030.49	4574
1032.837	4685
1035.179	4687
1037.522	4719
1039.862	4683
1042.204	4659
1044.546	4599
1046.884	4634
1049.224	4621
1051.562	4695
1053.899	4717
1056.237	4768
1058.575	4669
1060.91	4754
1063.244	4747
1065.58	4733
1067.913	4764
1070.248	4729
1072.579	4757
1074.911	4698
1077.242	4655
1079.572	4596
1081.905	4635
1084.234	4744
1086.562	4742
1088.89	4603
1091.217	4719
1093.544	4766
1095.871	4614
1098.197	4681
1100.521	4739
1102.845	4743
1105.169	4688
1107.491	4711
1109.814	4731
1112.135	4744
1114.456	4626
1116.776	4729
1119.096	4750
1121.415	4818
1123.734	4810
1126.052	4668
1128.369	4744
1130.686	4802
1133.002	4758
1135.318	4804
1137.632	4745
1139.945	4707
1142.258	4624
1144.573	4745
1146.884	4727
1149.196	4718
1151.505	4781
1153.816	4659
1156.124	4716
1158.435	4692
1160.742	4713
1163.051	4711
1165.356	4666
1167.663	4817
1169.97	4755
1172.276	4740
1174.579	4808
1176.881	4710
1179.186	4733
1181.487	4900
1183.79	4723
1186.092	4775
1188.392	4744
1190.691	4707
1192.991	4695
1195.291	4757
1197.588	4726
1199.885	4831
1202.181	4721
1204.479	4783
1206.775	4756
1209.07	4739
1211.363	4764
1213.656	4694
1215.949	4687
1218.241	4848
1220.534	4746
1222.825	4783
1225.115	4783
1227.405	4803
1229.693	4828
1231.984	4828
1234.271	4883
1236.558	4835
1238.845	4846
1241.131	4837
1243.416	4859
1245.703	4893
1247.987	4820
1250.269	5032
1252.552	4925
1254.834	4872
1257.118	4967
1259.399	4870
1261.678	4774
1263.958	4979
1266.237	4901
1268.516	4811
1270.794	4915
1273.072	4926
1275.347	4916
1277.624	4925
1279.899	4823
1282.175	4954
1284.449	4871
1286.722	4898
1288.995	4903
1291.266	4816
1293.54	4870
1295.81	4857
1298.081	4851
1300.35	4904
1302.62	4936
1304.889	4920
1307.156	4932
1309.425	4899
1311.69	4876
1313.957	4848
1316.222	4920
1318.488	4895
1320.751	4836
1323.016	4961
1325.278	4925
1327.54	4895
1329.803	4819
1332.065	4886
1334.325	4904
1336.584	4898
1338.843	4955
1341.101	4899
1343.36	4847
1345.617	4927
1347.876	4898
1350.131	5011
1352.387	4884
1354.643	4897
1356.897	4761
1359.151	4836
1361.403	4827
1363.656	4888
1365.909	4955
1368.16	4986
1370.409	4893
1372.659	4915
1374.909	5008
1377.157	4923
1379.407	4943
1381.655	4987
1383.9	5003
1386.147	4871
1388.393	4904
1390.64	5009
1392.885	5051
1395.127	5063
1397.37	5029
1399.614	5047
1401.854	4976
1404.098	5014
1406.339	4994
1408.578	5048
1410.818	5037
1413.056	5030
1415.297	4961
1417.533	5022
1419.771	5048
1422.006	5044
1424.243	4986
1426.479	5020
1428.715	5026
1430.948	5062
1433.182	5058
1435.414	5125
1437.647	5086
1439.88	5068
1442.11	5023
1444.342	5045
1446.571	5100
1448.799	5063
1451.029	5104
1453.258	5116
1455.485	5126
1457.711	5091
1459.937	5056
1462.164	5162
1464.39	5016
1466.614	5013
1468.838	5077
1471.06	5100
1473.283	5008
1475.506	5046
1477.727	4943
1479.949	4917
1482.169	5075
1484.389	5049
1486.609	4997
1488.828	4946
1491.045	4985
1493.261	4910
1495.477	5062
1497.693	4952
1499.91	5009
1502.125	4992
1504.339	5023
1506.553	4952
1508.766	4987
1510.979	4973
1513.191	4935
1515.402	4982
1517.613	5017
1519.823	4948
1522.033	5016
1524.242	5034
1526.451	4935
1528.657	4842
1530.865	5024
1533.072	4959
1535.278	4919
1537.484	5019
1539.687	4972
1541.892	5014
1544.096	5054
1546.299	5006
1548.502	5073
1550.703	4964
1552.905	5136
1555.104	4951
1557.303	5051
1559.505	4985
1561.703	5049
1563.902	5095
1566.099	5079
1568.295	5164
1570.494	5071
1572.689	5104
1574.883	5155
1577.079	5073
1579.272	5157
1581.467	5091
1583.659	5265
1585.853	5171
1588.044	5061
1590.234	5129
1592.424	5198
1594.615	5125
1596.806	5116
1598.994	5206
1601.182	5201
1603.369	5241
1605.557	5132
1607.744	5093
1609.929	5252
1612.114	5225
1614.298	5148
1616.482	5242
1618.667	5208
1620.85	5146
1623.032	5070
1625.214	5185
1627.395	5197
1629.575	5177
1631.755	5111
1633.935	5178
1636.114	5218
1638.292	5152
1640.471	5176
1642.647	5212
1644.823	5116
1647	5101
1649.175	5214
1651.348	5146
1653.525	5312
1655.698	5197
1657.87	5221
1660.043	5246
1662.213	5213
1664.387	5211
1666.558	5328
1668.727	5300
1670.896	5162
1673.064	5244
1675.233	5129
1677.401	5109
1679.569	5082
1681.735	5262
1683.902	5284
1686.066	5179
1688.233	5297
1690.397	5318
1692.559	5256
1694.723	5228
1696.885	5237
1699.048	5151
1701.21	5143
1703.37	5247
1705.53	5265
1707.689	5212
1709.849	5199
1712.009	5141
1714.166	5203
1716.323	5182
1718.479	5205
1720.634	5237
1722.793	5260
1724.948	5104
1727.102	5184
1729.255	5223
1731.408	5185
1733.562	5190
1735.714	5134
1737.865	5329
1740.016	5223
1742.166	5194
1744.316	5217
1746.467	5191
1748.616	5150
1750.764	5303
1752.911	5204
1755.056	5253
1757.205	5305
1759.35	5211
1761.496	5227
1763.641	5257
1765.785	5183
1767.927	5341
1770.072	5267
1772.214	5231
1774.355	5259
1776.496	5203
1778.637	5366
1780.778	5288
1782.918	5260
1785.057	5393
1787.194	5248
1789.333	5273
1791.472	5314
1793.608	5324
1795.745	5319
1797.879	5225
1800.015	5312
1802.148	5392
1804.284	5245
1806.417	5410
1808.548	5251
1810.682	5293
1812.812	5333
1814.946	5404
1817.075	5357
1819.205	5341
1821.335	5243
1823.463	5292
1825.59	5300
1827.721	5195
1829.847	5303
1831.973	5337
1834.098	5351
1836.223	5186
1838.351	5328
1840.475	5309
1842.598	5347
1844.721	5298
1846.843	5261
1848.966	5260
1851.087	5222
1853.21	5242
1855.33	5316
1857.449	5303
1859.568	5342
1861.688	5312
1863.806	5301
1865.924	5273
1868.039	5281
1870.155	5271
1872.273	5258
1874.388	5333
1876.503	5287
1878.617	5256
1880.73	5350
1882.844	5388
1884.956	5297
1887.068	5295
1889.18	5391
1891.291	5442
1893.4	5316
1895.511	5395
1897.621	5427
1899.73	5391
1901.837	5313
1903.944	5321
1906.053	5390
1908.159	5467
1910.265	5471
1912.369	5473
1914.474	5395
1916.577	5436
1918.683	5447
1920.785	5377
1922.888	5383
1924.989	5386
1927.091	5415
1929.193	5407
1931.294	5411
1933.393	5558
1935.493	5416
1937.59	5495
1939.689	5494
1941.788	5556
1943.884	5415
1945.98	5468
1948.077	5502
1950.171	5350
1952.267	5456
1954.361	5417
1956.455	5458
1958.548	5418
1960.64	5446
1962.733	5414
1964.824	5512
1966.915	5511
1969.005	5472
1971.096	5524
1973.185	5380
1975.275	5402
1977.363	5444
1979.45	5469
1981.537	5367
1983.623	5412
1985.711	5500
1987.796	5512
1989.881	5507
1991.965	5545
1994.047	5513
1996.132	5597
1998.215	5486
2000.297	5406
2002.378	5449
2004.46	5314
2006.54	5444
2008.62	5421
2010.7	5492
2012.779	5522
2014.858	5520
2016.934	5482
2019.013	5520
2021.09	5435
2023.165	5635
2025.241	5441
2027.317	5511
2029.39	5508
2031.466	5506
2033.538	5513
2035.612	5493
2037.683	5587
2039.755	5581
2041.827	5480
2043.898	5618
2045.968	5646
2048.038	5595
2050.106	5558
2052.177	5553
2054.244	5571
2056.313	5591
2058.379	5601
2060.444	5511
2062.511	5646
2064.577	5656
2066.641	5592
2068.705	5591
2070.77	5610
2072.832	5569
2074.896	5657
2076.958	5599
2079.02	5694
2081.081	5665
2083.141	5691
2085.2	5668
2087.261	5706
2089.319	5722
2091.377	5766
2093.435	5848
2095.492	5750
2097.552	5682
2099.607	5701
2101.663	5667
2103.718	5794
2105.771	5801
2107.826	5870
2109.879	5729
2111.932	5795
2113.985	5842
2116.037	5890
2118.088	5811
2120.141	5873
2122.191	5895
2124.239	5753
2126.288	5838
2128.337	5837
2130.387	5855
2132.434	5810
2134.481	5878
2136.528	5875
2138.574	5808
2140.618	5850
2142.665	5844
2144.71	5751
2146.753	5812
2148.797	5760
2150.838	5824
2152.883	5852
2154.923	5886
2156.965	5870
2159.007	5711
2161.046	5867
2163.086	5891
2165.126	5799
2167.163	5772
2169.202	5713
2171.239	5818
2173.277	5769
2175.314	5659
2177.349	5657
2179.385	5783
2181.42	5682
2183.453	5796
2185.49	5871
2187.522	5732
2189.555	5697
2191.586	5706
2193.619	5670
2195.651	5623
2197.682	5639
2199.711	5654
2201.74	5722
2203.769	5562
2205.799	5600
2207.828	5686
2209.855	5630
2211.882	5485
2213.908	5555
2215.934	5557
2217.961	5617
2219.986	5662
2222.01	5558
2224.034	5532
2226.057	5679
2228.08	5513
2230.104	5556
2232.124	5632
2234.145	5630
2236.166	5497
2238.186	5616
2240.207	5564
2242.227	5564
2244.244	5498
2246.262	5630
2248.28	5588
2250.299	5577
2252.314	5485
2254.33	5661
2256.346	5664
2258.36	5549
2260.375	5599
2262.391	5650
2264.403	5568
2266.416	5617
2268.427	5616
2270.44	5679
2272.453	5606
2274.463	5542
2276.474	5596
2278.483	5616
2280.493	5541
2282.501	5550
2284.51	5628
2286.518	5680
2288.524	5633
2290.532	5600
2292.537	5545
2294.544	5617
2296.55	5586
2298.554	5686
2300.557	5692
2302.562	5522
2304.566	5679
2306.568	5596
2308.569	5655
2310.572	5541
2312.573	5742
2314.573	5644
2316.574	5419
2318.573	5590
2320.571	5598
2322.571	5554
2324.569	5392
2326.567	5659
2328.564	5553
2330.56	5495
2332.556	5578
2334.551	5500
2336.546	5630
2338.542	5557
2340.535	5471
2342.529	5511
2344.521	5456
2346.512	5514
2348.505	5505
2350.497	5506
2352.487	5431
2354.478	5548
2356.468	5651
2358.457	5513
2360.446	5518
2362.434	5491
2364.422	5517
2366.408	5455
2368.395	5521
2370.383	5441
2372.369	5475
2374.353	5430
2376.338	5414
2378.321	5467
2380.307	5410
2382.29	5370
2384.272	5517
2386.254	5446
2388.235	5393
2390.218	5486
2392.198	5483
2394.179	5517
2396.157	5424
2398.137	5399
2400.115	5342
2402.095	5418
2404.072	5415
2406.048	5369
2408.026	5418
2410.001	5408
2411.977	5437
2413.953	5399
2415.927	5395
2417.9	5437
2419.875	5410
2421.847	5523
2423.821	5449
2425.792	5522
2427.763	5453
2429.736	5386
2431.706	5447
2433.677	5452
2435.646	5490
2437.615	5451
2439.583	5453
2441.551	5456
2443.519	5369
2445.486	5385
2447.452	5447
2449.418	5422
2451.383	5447
2453.348	5409
2455.314	5392
2457.278	5421
2459.241	5322
2461.205	5519
2463.167	5424
2465.131	5463
2467.091	5404
2469.052	5440
2471.012	5358
2472.972	5388
2474.932	5366
2476.891	5345
2478.85	5398
2480.808	5411
2482.766	5399
2484.722	5268
2486.68	5295
2488.636	5380
2490.591	5315
2492.546	5292
2494.5	5328
2496.456	5315
2498.41	5338
2500.362	5322
2502.315	5357
2504.266	5367
2506.218	5409
2508.169	5423
2510.121	5415
2512.07	5260
2514.019	5400
2515.968	5326
2517.918	5359
2519.866	5352
2521.813	5232
2523.76	5305
2525.707	5292
2527.653	5405
2529.599	5228
2531.543	5329
2533.489	5270
2535.433	5266
2537.376	5353
2539.32	5462
2541.264	5327
2543.205	5336
2545.147	5324
2547.087	5175
2549.029	5356
2550.969	5286
2552.908	5192
2554.847	5293
2556.786	5242
2558.724	5313
2560.663	5372
2562.6	5171
2564.537	5282
2566.473	5308
2568.408	5280
2570.345	5397
2572.28	5313
2574.214	5382
2576.148	5201
2578.081	5352
2580.014	5262
2581.947	5312
2583.879	5303
2585.81	5348
2587.741	5347
2589.67	5203
2591.602	5297
2593.532	5308
2595.461	5141
2597.388	5419
2599.316	5264
2601.244	5251
2603.172	5306
2605.098	5291
2607.023	5360
2608.949	5328
2610.873	5331
2612.8	5290
2614.723	5349
2616.647	5491
2618.569	5265
2620.493	5271
2622.416	5280
2624.338	5316
2626.258	5233
2628.179	5314
2630.099	5210
2632.019	5341
2633.939	5360
2635.857	5286
2637.775	5308
2639.694	5251
2641.61	5227
2643.528	5318
2645.444	5276
2647.361	5252
2649.276	5261
2651.19	5292
2653.105	5259
2655.019	5388
2656.934	5296
2658.846	5293
2660.758	5358
2662.67	5221
2664.583	5293
2666.493	5315
2668.404	5247
2670.313	5275
2672.223	5305
2674.134	5295
2676.042	5268
2677.95	5208
2679.858	5277
2681.765	5188
2683.673	5207
2685.579	5247
2687.483	5334
2689.389	5189
2691.294	5169
2693.198	5276
2695.104	5221
2697.006	5270
2698.909	5216
2700.811	5202
2702.713	5227
2704.615	5307
2706.516	5171
2708.417	5258
2710.316	5252
2712.216	5124
2714.115	5209
2716.014	5240
2717.913	5305
2719.81	5158
2721.707	5199
2723.603	5182
2725.501	5193
2727.396	5194
2729.292	5154
2731.186	5130
2733.081	5156
2734.976	5284
2736.87	5212
2738.762	5257
2740.653	5213
2742.546	5131
2744.437	5235
2746.329	5221
2748.22	5244
2750.11	5150
2751.999	5139
2753.889	5166
2755.778	5158
2757.666	5124
2759.553	5337
2761.44	5279
2763.328	5207
2765.215	5121
2767.101	5188
2768.986	5186
2770.87	5186
2772.754	5285
2774.638	5256
2776.523	5171
2778.405	5162
2780.288	5125
2782.17	5108
2784.051	5180
2785.934	5243
2787.814	5175
2789.694	5144
2791.574	5155
2793.453	5095
2795.332	5219
2797.212	5203
2799.088	5225
2800.966	5152
2802.843	5149
2804.719	5084
2806.597	5203
2808.471	5133
2810.346	5128
2812.221	5137
2814.094	5182
2815.969	5112
2817.843	5133
2819.714	5239
2821.587	5012
2823.459	5230
2825.329	5140
2827.202	5075
2829.072	5184
2830.942	5192
2832.811	5142
2834.68	5194
2836.549	5127
2838.418	5201
2840.284	5163
2842.152	5189
2844.018	5161
2845.885	5207
2847.751	5263
2849.616	5226
2851.482	5381
2853.345	5321
2855.208	5216
2857.074	5345
2858.937	5323
2860.799	5254
2862.66	5362
2864.522	5255
2866.385	5318
2868.245	5315
2870.104	5350
2871.964	5380
2873.824	5425
2875.683	5481
2877.542	5383
2879.4	5447
2881.257	5524
2883.114	5453
2884.97	5674
2886.827	5564
2888.683	5519
2890.537	5509
2892.392	5593
2894.246	5602
2896.1	5586
2897.954	5694
2899.807	5520
2901.66	5511
2903.51	5466
2905.362	5564
2907.214	5503
2909.065	5488
2910.915	5552
2912.765	5549
2914.613	5485
2916.463	5519
2918.311	5603
2920.158	5676
2922.006	5627
2923.853	5663
2925.698	5618
2927.546	5713
2929.392	5700
2931.236	5633
2933.081	5662
2934.924	5702
2936.77	5661
2938.613	5694
2940.455	5786
2942.298	5717
2944.139	5824
2945.982	5919
2947.823	5881
2949.662	5913
2951.503	5868
2953.342	5760
2955.182	5836
2957.021	5773
2958.858	5825
2960.697	5767
2962.534	5836
2964.37	5874
2966.207	5784
2968.044	5780
2969.879	5734
2971.714	5526
2973.548	5534
2975.383	5538
2977.218	5453
2979.051	5353
2980.883	5308
2982.715	5373
2984.547	5423
2986.379	5449
2988.21	5307
2990.04	5208
2991.87	5233
2993.7	5325
2995.53	5385
2997.359	5276
2999.187	5238
3001.015	5162
3002.842	5117
3004.669	5069
3006.497	5194
3008.323	5167
3010.148	5131
3011.974	5086
3013.797	5078
3015.623	5124
3017.447	5058
3019.27	5059
3021.094	5050
3022.915	5093
3024.737	5014
3026.56	5105
3028.38	5066
3030.201	5188
3032.022	4962
3033.84	5071
3035.662	5022
3037.481	5102
3039.298	4999
3041.117	5006
3042.933	4993
3044.752	5046
3046.568	5011
3048.385	5017
3050.2	4998
3052.016	5009
3053.83	4961
3055.646	5008
3057.46	5077
3059.272	5087
3061.086	4994
3062.898	4828
3064.711	4987
3066.524	5084
3068.335	4932
3070.145	4929
3071.956	5004
3073.766	4984
3075.576	4967
3077.385	4948
3079.193	4895
3081.002	4964
3082.81	4906
3084.618	4937
3086.425	5028
3088.231	5023
3090.036	4893
3091.842	4961
3093.648	4956
3095.452	5025
3097.257	4847
3099.06	4882
3100.863	4943
3102.666	4958
3104.47	4960
3106.272	4928
3108.073	4949
3109.875	4913
3111.676	4965
3113.477	4918
3115.277	4853
3117.077	4986
3118.874	4851
3120.673	4934
3122.473	4902
3124.271	4954
3126.066	4883
3127.863	4861
3129.66	5005
3131.456	4926
3133.252	4891
3135.047	4857
3136.842	4829
3138.635	4901
3140.429	4928
3142.223	4931
3144.016	4805
3145.808	4806
3147.6	4933
3149.392	4888
3151.183	4813
3152.975	4978
3154.765	4924
3156.553	4814
3158.344	4811
3160.132	4878
3161.922	4885
3163.71	4872
3165.497	4903
3167.285	4824
3169.071	4903
3170.858	4892
3172.645	4887
3174.429	4831
3176.214	4917
3177.998	4843
3179.783	4841
3181.568	4838
3183.351	4838
3185.133	4830
3186.915	4788
3188.698	4807
3190.481	4826
3192.261	4822
3194.042	4881
3195.822	4810
3197.601	4891
3199.381	4745
3201.161	4925
3202.939	4861
3204.717	4859
3206.495	4813
3208.272	4804
3210.05	4863
3211.826	4835
3213.602	4858
3215.376	4791
3217.151	4777
3218.927	4880
3220.702	4875
3222.476	4910
3224.249	4956
3226.021	4816
3227.793	4852
3229.567	4876
3231.339	4887
3233.109	4889
3234.88	4768
3236.651	4783
3238.421	4837
3240.191	4874
3241.96	4780
3243.728	4805
3245.497	4767
3247.263	4786
3249.033	4814
3250.799	4849
3252.566	4909
3254.331	4806
3256.097	4874
3257.863	4816
3259.628	4843
3261.392	4877
3263.156	4788
3264.919	4898
3266.683	4820
3268.447	4914
3270.208	4911
3271.969	4764
3273.731	4941
3275.492	4838
3277.253	4867
3279.013	4848
3280.773	4879
3282.532	5095
3284.291	4862
3286.05	4768
3287.808	4922
3289.566	4969
3291.323	4981
3293.079	4880
3294.835	4852
3296.593	4958
3298.348	4841
3300.102	4944
3301.857	4911
3303.611	4952
3305.366	5077
3307.119	4953
3308.872	5013
3310.624	4915
3312.376	4921
3314.129	4978
3315.881	4952
3317.631	4969
3319.38	4998
3321.13	4981
3322.88	4982
3324.631	4952
3326.379	5123
3328.126	5144
3329.875	4887
3331.622	4973
3333.371	5025
3335.116	5021
3336.863	4953
3338.609	5062
3340.353	5028
3342.1	4914
3343.845	4996
3345.588	5009
3347.332	5033
3349.074	5010
3350.817	4960
3352.56	5009
3354.303	5051
3356.043	4961
3357.785	5010
3359.525	4993
3361.268	5020
3363.007	4980
3364.745	4949
3366.485	4927
3368.223	5014
3369.962	4906
3371.701	4892
3373.438	4987
3375.174	5036
3376.911	5017
3378.647	4960
3380.384	4852
3382.118	4955
3383.854	4858
3385.588	4912
3387.322	4834
3389.057	4911
3390.79	4907
3392.522	4816
3394.255	4906
3395.987	4961
3397.719	4784
3399.451	4840
3401.181	4901
3402.911	4866
3404.641	4812
3406.371	4734
3408.101	4891
3409.83	4768
3411.558	4794
3413.285	4757
3415.011	4787
3416.739	4716
3418.467	4812
3420.193	4859
3421.919	4735
3423.644	4773
3425.368	4821
3427.094	4691
3428.818	4689
3430.542	4660
3432.264	4835
3433.987	4835
3435.712	4778
3437.434	4726
3439.155	4678
3440.876	4710
3442.596	4666
3444.317	4644
3446.039	4758
3447.757	4681
3449.477	4696
3451.195	4652
3452.914	4683
3454.632	4673
3456.35	4613
3458.067	4700
3459.784	4631
3461.5	4696
3463.216	4595
3464.932	4612
3466.647	4587
3468.362	4531
3470.076	4617
3471.789	4504
3473.505	4680
3475.217	4542
3476.929	4666
3478.641	4641
3480.354	4611
3482.066	4607
3483.777	4532
3485.487	4535
3487.197	4589
3488.908	4504
3490.617	4598
3492.327	4578
3494.035	4523
3495.743	4612
3497.451	4535
3499.158	4577
3500.866	4560
3502.572	4545
3504.278	4490
3505.984	4589
3507.689	4576
3509.396	4538
3511.1	4580
3512.804	4544
3514.508	4551
3516.211	4648
3517.913	4542
3519.616	4521
3521.319	4619
3523.021	4517
3524.722	4469
3526.422	4491
3528.124	4558
3529.824	4509
3531.524	4542
3533.222	4370
3534.921	4490
3536.62	4495
3538.318	4460
3540.016	4509
3541.714	4439
3543.41	4489
3545.107	4451
3546.803	4470
3548.5	4458
3550.194	4483
3551.889	4474
3553.583	4478
3555.279	4537
3556.972	4461
3558.666	4365
3560.358	4534
3562.051	4522
3563.742	4384
3565.435	4385
3567.126	4452
3568.817	4550
3570.507	4364
3572.197	4426
3573.888	4539
3575.577	4415
3577.265	4379
3578.954	4422
3580.642	4441
3582.329	4334
3584.017	4412
3585.704	4442
3587.391	4326
3589.077	4339
3590.762	4331
3592.449	4368
3594.133	4361
3595.817	4480
3597.501	4448
3599.185	4386
3600.869	4404
3602.552	4292
3604.234	4427
3605.916	4290
3607.598	4331
3609.279	4325
3610.961	4302
3612.642	4453
3614.321	4337
3616	4258
3617.68	4312
3619.36	4229
3621.039	4308
3622.716	4253
3624.394	4274
3626.071	4251
3627.748	4254
3629.425	4256
3631.102	4247
3632.778	4255
3634.452	4256
3636.127	4371
3637.803	4307
3639.477	4336
3641.151	4227
3642.823	4249
3644.497	4261
3646.171	4237
3647.842	4267
3649.515	4263
3651.185	4294
3652.857	4260
3654.527	4201
3656.198	4274
3657.868	4198
3659.537	4282
3661.207	4232
3662.875	4181
3664.544	4233
3666.212	4168
3667.879	4182
3669.546	4160
3671.212	4273
3672.88	4192
3674.546	4249
3676.211	4227
3677.875	4235
3679.541	4233
3681.205	4228
3682.87	4222
3684.533	4093
3686.196	4152
3687.859	4162
3689.521	4188
3691.184	4141
3692.845	4262
3694.507	4062
3696.167	4246
3697.827	4154
3699.487	4201
3701.148	4165
3702.808	4154
3704.466	4126
3706.125	4226
3707.783	4122
3709.442	4176
3711.099	4268
3712.757	4091
3714.412	4165
3716.068	4162
3717.725	4180
3719.381	4169
3721.036	4066
3722.689	4102
3724.344	4179
3725.998	4160
3727.652	4119
3729.305	4071
3730.958	4066
3732.61	4109
3734.262	4108
3735.915	4065
3737.565	4062
3739.217	4056
3740.866	3949
3742.516	4097
3744.165	4005
3745.816	4089
3747.464	4061
3749.113	4049
3750.761	4070
3752.409	4120
3754.057	4170
3755.703	3978
3757.35	4037
3758.996	4115
3760.641	4056
3762.289	4108
3763.933	3949
3765.577	4099
3767.222	3990
3768.865	4087
3770.508	4065
3772.152	4088
3773.796	4079
3775.438	4046
3777.079	4025
3778.721	4033
3780.363	4075
3782.003	3966
3783.643	3939
3785.283	4013
3786.923	3968
3788.563	3982
3790.203	3942
3791.841	3973
3793.479	3948
3795.115	3939
3796.753	3852
3798.391	3971
3800.027	3912
3801.664	3947
3803.299	3929
3804.935	3961
3806.571	3958
3808.206	3927
3809.839	3929
3811.473	3892
3813.107	3932
3814.74	3825
3816.375	3838
3818.006	3918
3819.638	3935
3821.27	3903
3822.9	3890
3824.532	3845
3826.163	3969
3827.792	3953
3829.423	3892
3831.051	3956
3832.682	3895
3834.311	3861
3835.938	3856
3837.566	3870
3839.193	3858
3840.821	3834
3842.448	3805
3844.075	3859
3845.7	3939
3847.325	3859
3848.951	3921
3850.576	3953
3852.201	3791
3853.825	3914
3855.448	3906
3857.072	3760
3858.694	3771
3860.318	3777
3861.939	3843
3863.562	3878
3865.183	3894
3866.804	3865
3868.426	3962
3870.045	3842
3871.666	3793
3873.285	3775
3874.904	3913
3876.524	3802
3878.142	3871
3879.76	3750
3881.378	3846
3882.995	3794
3884.612	3840
3886.229	3763
3887.845	3858
3889.461	3800
3891.076	3817
3892.691	3785
3894.307	3728
3895.922	3797
3897.536	3725
3899.149	3750
3900.761	3843
3902.374	3749
3903.988	3772
3905.6	3747
3907.212	3775
3908.822	3734
3910.433	3753
3912.045	3775
3913.655	3741
3915.265	3743
3916.875	3663
3918.483	3786
3920.093	3710
3921.702	3719
3923.309	3740
3924.917	3751
3926.523	3739
3928.13	3696
3929.739	3806
3931.344	3772
3932.95	3758
3934.555	3743
3936.159	3835
3937.766	3717
3939.369	3659
3940.974	3793
3942.577	3686
3944.181	3753
3945.783	3721
3947.386	3721
3948.989	3790
3950.59	3847
3952.191	3739
3953.791	3654
3955.394	3696
3956.994	3725
3958.593	3720
3960.192	3712
3961.791	3695
3963.392	3681
3964.99	3637
3966.588	3674
3968.185	3725
3969.782	3643
3971.379	3686
3972.976	3705
3974.572	3612
3976.168	3709
3977.763	3640
3979.358	3706
3980.954	3662
3982.548	3674
3984.142	3578
3985.736	3728
3987.329	3695
3988.922	3686
3990.516	3605
3992.108	3626
3993.698	3647
3995.29	3654
3996.881	3610
3998.473	3584
4000.064	3649
4001.653	3576
4003.242	3557
4004.832	3646
4006.422	3557
4008.01	3605
4009.598	3574
4011.186	3598
4012.773	3630
4014.36	3660
4015.947	3500
4017.534	3585
4019.119	3526
4020.705	3569
4022.291	3628
4023.876	3515
4025.461	3553
4027.044	3477
4028.627	3567
4030.211	3508
4031.795	3619
4033.378	3482
4034.96	3553
4036.542	3528
4038.124	3533
4039.704	3564
4041.286	3496
4042.867	3557
4044.447	3512
4046.026	3529
4047.606	3526
4049.187	3499
4050.765	3499
4052.343	3541
4053.92	3501
4055.498	3550
4057.076	3535
4058.654	3500
4060.23	3485
4061.806	3508
4063.381	3512
4064.957	3409
4066.533	3461
4068.107	3575
4069.682	3527
4071.256	3512
4072.829	3557
4074.404	3523
4075.977	3405
4077.549	3513
4079.121	3428
4080.693	3515
4082.265	3511
4083.836	3426
4085.407	3468
4086.977	3439
4088.547	3474
4090.117	3427
4091.687	3460
4093.256	3436
4094.825	3466
4096.392	3425
4097.96	3473
4099.528	3435
4101.097	3493
4102.663	3441
4104.229	3478
4105.795	3438
4107.361	3503
4108.928	3452
4110.493	3412
4112.058	3468
4113.621	3420
4115.186	3464
4116.75	3516
4118.313	3384
4119.876	3405
4121.438	3483
4123	3429
4124.562	3485
4126.125	3396
4127.686	3389
4129.246	3438
4130.807	3321
4132.367	3323
4133.927	3397
4135.486	3358
4137.046	3348
4138.604	3388
4140.162	3392
4141.72	3379
4143.279	3444
4144.836	3356
4146.393	3332
4147.949	3331
4149.505	3282
4151.062	3353
4152.617	3355
4154.172	3311
4155.727	3361
4157.281	3386
4158.836	3218
4160.39	3314
4161.943	3284
4163.496	3402
4165.048	3388
4166.601	3347
4168.154	3340
4169.706	3268
4171.257	3258
4172.808	3339
4174.358	3251
4175.909	3302
4177.458	3339
4179.008	3316
4180.558	3335
4182.106	3290
4183.655	3358
4185.204	3292
4186.751	3260
4188.298	3238
4189.845	3257
4191.392	3276
4192.939	3338
4194.485	3279
4196.031	3296
4197.576	3215
4199.121	3311
4200.666	3267
4202.211	3294
4203.754	3188
4205.298	3234
4206.84	3245
4208.384	3213
4209.927	3270
4211.47	3294
4213.011	3303
4214.552	3330
4216.094	3278
4217.635	3227
4219.175	3304
4220.716	3210
4222.255	3236
4223.793	3218
4225.335	3164
4226.873	3261
4228.411	3216
4229.948	3249
4231.486	3252
4233.024	3238
4234.562	3227
4236.098	3144
4237.634	3204
4239.169	3170
4240.705	3226
4242.241	3189
4243.776	3233
4245.31	3207
4246.844	3219
4248.378	3181
4249.911	3199
4251.445	3263
4252.978	3230
4254.51	3254
4256.042	3245
4257.574	3238
4259.107	3127
4260.638	3166
4262.169	3176
4263.699	3214
4265.228	3183
4266.759	3102
4268.289	3200
4269.818	3215
4271.345	3194
4272.874	3209
4274.402	3170
4275.931	3144
4277.458	3202
4278.985	3128
4280.512	3175
4282.037	3164
4283.564	3134
4285.089	3184
4286.615	3204
4288.139	3160
4289.664	3132
4291.187	3193
4292.712	3165
4294.235	3147
4295.759	3136
4297.281	3094
4298.804	3181
4300.327	3141
4301.849	3109
4303.37	3127
4304.891	3107
4306.412	3178
4307.933	3089
4309.453	3031
4310.973	3098
4312.492	3142
