398.1873	9512
400.7097	9666
403.2336	9636
405.7547	9603
408.2751	9695
410.7948	9685
413.3138	9723
415.83	9952
418.3497	9906
420.8666	9968
423.3829	9889
425.8985	10032
428.4133	10118
430.9275	10268
433.441	10316
435.9538	10221
438.4639	10337
440.9753	10318
443.4881	10250
445.9982	10366
448.5055	10313
451.0142	10363
453.5201	10502
456.0274	10336
458.5361	10445
461.04	10450
463.5453	10408
466.0478	10365
468.5517	10375
471.0549	10511
473.5574	10465
476.0572	10451
478.5584	10593
481.0568	10675
483.5545	10831
486.0557	10706
488.5521	10716
491.0478	10709
493.5449	10712
496.0392	10757
498.5349	10854
501.0299	10769
503.5222	10858
506.0139	10888
508.5048	11035
510.9991	11001
513.4887	10928
515.9777	11104
518.4659	10870
520.9534	10988
523.4403	10988
525.9306	11003
528.4161	11068
530.9009	10910
533.3851	10895
535.8687	10994
538.3535	10913
540.8356	10985
543.3171	11014
545.7979	11039
548.278	10928
550.7595	11160
553.2383	11052
555.7144	11034
558.1918	11102
560.6685	11035
563.1446	11108
565.6221	11079
568.0968	11247
570.5688	11305
573.0422	11258
575.515	11378
577.989	11219
580.4584	11333
582.9291	11176
585.3991	11323
587.8685	11222
590.3352	11423
592.8052	11520
595.2706	11478
597.7372	11365
600.2033	11361
602.6666	11307
605.1334	11466
607.5953	11394
610.0587	11431
612.5193	11225
614.9814	11285
617.4427	11353
619.9034	11436
622.3615	11485
624.8208	11506
627.2775	11368
629.7335	11360
632.1929	11392
634.6476	11352
637.1016	11496
639.5569	11469
642.0096	11418
644.4637	11398
646.9151	11437
649.3678	11497
651.8179	11347
654.2672	11684
656.7159	11654
659.166	11450
661.6154	11666
664.0622	11666
666.5082	11832
668.9537	11623
671.4005	11673
673.8445	11752
676.288	11708
678.7308	11823
681.1729	11802
683.6163	11753
686.0572	12037
688.4973	11859
690.9368	11821
693.3757	11884
695.8138	11963
698.2534	11990
700.6902	11730
703.1245	12020
705.56	11929
707.9949	11953
710.4311	12006
712.8647	11954
715.2957	12007
717.7279	11963
720.1595	12062
722.5905	12153
725.0208	12371
727.4505	12226
729.8795	12117
732.3058	12300
734.7336	12279
737.1626	12320
739.587	12459
742.0128	12420
744.4359	12324
746.8604	12510
749.2841	12551
751.7073	12615
754.1278	12608
756.5496	12639
758.9688	12586
761.3893	12738
763.8093	12529
766.2285	12531
768.6451	12699
771.0611	12623
773.4784	12752
775.895	12903
778.3091	12856
780.7244	12853
783.1371	12839
785.5493	12741
787.9626	12714
790.3754	12849
792.7856	12791
795.1951	12770
797.6039	12680
800.0121	12729
802.4236	12839
804.8306	12733
807.2369	12723
809.6425	12676
812.0475	12906
814.4538	12880
816.8575	12740
819.2606	12825
821.663	12870
824.0648	12889
826.4659	12899
828.8683	12879
831.2682	12970
833.6674	12978
836.066	12986
838.4639	12918
840.8632	12914
843.2579	13043
845.6539	12971
848.0493	12921
850.444	13266
852.84	13176
855.2315	12943
857.6243	13033
860.0165	13004
862.4081	12884
864.797	13059
867.1892	12860
869.5789	13028
871.9659	12951
874.3542	13038
876.74	13081
879.129	13004
881.5155	13017
883.8994	13001
886.2845	13078
888.6671	12857
891.051	12930
893.4343	13021
895.8169	12985
898.197	13066
900.5783	12907
902.9571	12901
905.3372	13165
907.7167	13075
910.0936	13088
912.4698	13108
914.8474	13221
917.2244	13457
919.5987	13411
921.9744	13542
924.3475	13310
926.72	13483
929.0918	13452
931.4669	13349
933.8375	13497
936.2074	13544
938.5767	13626
940.9454	13556
943.3154	13639
945.6829	13720
948.0497	13966
950.4178	14214
952.7833	14458
955.1483	14739
957.5145	14929
959.8782	15165
962.2412	15200
964.6036	14916
966.9655	14677
969.3266	14385
971.6871	14176
974.0471	13770
976.4064	13720
978.765	13533
981.125	13652
983.4824	13386
985.8373	13490
988.1935	13345
990.549	13354
992.9039	13412
995.2602	13455
997.6119	13444
999.965	13564
1002.317	13411
1004.667	13339
1007.02	13371
1009.371	13480
1011.719	13528
1014.068	13583
1016.415	13612
1018.765	13576
1021.111	13612
1023.458	13412
1025.804	13560
1028.147	13532
1030.49	13521
1032.837	13665
1035.179	13551
1037.522	13604
1039.862	13757
1042.204	13687
1044.546	13849
1046.884	13811
1049.224	13632
1051.562	13578
1053.899	13832
1056.237	13646
1058.575	13751
1060.91	13759
1063.244	13958
1065.58	13941
1067.913	13924
1070.248	13885
1072.579	13893
1074.911	13836
1077.242	13780
1079.572	13880
1081.905	13768
1084.234	13712
1086.562	13925
1088.89	13768
1091.217	13772
1093.544	14002
1095.871	13861
1098.197	13855
1100.521	13748
1102.845	13902
1105.169	13879
1107.491	13867
1109.814	13718
1112.135	14032
1114.456	13860
1116.776	13818
1119.096	13822
1121.415	13951
1123.734	13875
1126.052	14010
1128.369	13919
1130.686	13962
1133.002	14029
1135.318	14012
1137.632	14060
1139.945	14063
1142.258	13942
1144.573	13903
1146.884	14007
1149.196	13999
1151.505	14023
1153.816	14100
1156.124	14160
1158.435	13864
1160.742	13962
1163.051	13840
1165.356	13952
1167.663	13893
1169.97	14047
1172.276	14083
1174.579	14067
1176.881	14084
1179.186	13993
1181.487	14041
1183.79	13851
1186.092	13881
1188.392	13930
1190.691	14050
1192.991	13935
1195.291	13868
1197.588	14158
1199.885	13874
1202.181	13895
1204.479	14108
1206.775	14146
1209.07	13952
1211.363	13844
1213.656	13981
1215.949	14179
1218.241	14084
1220.534	14066
1222.825	14057
1225.115	14110
1227.405	14095
1229.693	14315
1231.984	14313
1234.271	14292
1236.558	14110
1238.845	14540
1241.131	14348
1243.416	14278
1245.703	14187
1247.987	14567
1250.269	14448
1252.552	14256
1254.834	14373
1257.118	14318
1259.399	14493
1261.678	14355
1263.958	14261
1266.237	14295
1268.516	14326
1270.794	14324
1273.072	14339
1275.347	14358
1277.624	14347
1279.899	14433
1282.175	14248
1284.449	14235
1286.722	14439
1288.995	14201
1291.266	14310
1293.54	14205
1295.81	14096
1298.081	14303
1300.35	14197
1302.62	14151
1304.889	14319
1307.156	14002
1309.425	14303
1311.69	14270
1313.957	14224
1316.222	14218
1318.488	14229
1320.751	14184
1323.016	14324
1325.278	14231
1327.54	14470
1329.803	14341
1332.065	14353
1334.325	14180
1336.584	14380
1338.843	14317
1341.101	14307
1343.36	14216
1345.617	14431
1347.876	14259
1350.131	14239
1352.387	14393
1354.643	14286
1356.897	14264
1359.151	14348
1361.403	14257
1363.656	14477
1365.909	14208
1368.16	14210
1370.409	14303
1372.659	14175
1374.909	14347
1377.157	14243
1379.407	14485
1381.655	14386
1383.9	14470
1386.147	14431
1388.393	14437
1390.64	14391
1392.885	14469
1395.127	14627
1397.37	14514
1399.614	14496
1401.854	14531
1404.098	14612
1406.339	14526
1408.578	14357
1410.818	14654
1413.056	14580
1415.297	14471
1417.533	14621
1419.771	14535
1422.006	14687
1424.243	14481
1426.479	14661
1428.715	14600
1430.948	14737
1433.182	14607
1435.414	14534
1437.647	14777
1439.88	14766
1442.11	14615
1444.342	14692
1446.571	15014
1448.799	14975
1451.029	14847
1453.258	14993
1455.485	14912
1457.711	14941
1459.937	14758
1462.164	14880
1464.39	14806
1466.614	14857
1468.838	14707
1471.06	14647
1473.283	14545
1475.506	14662
1477.727	14706
1479.949	14615
1482.169	14481
1484.389	14608
1486.609	14490
1488.828	14548
1491.045	14520
1493.261	14335
1495.477	14560
1497.693	14538
1499.91	14593
1502.125	14260
1504.339	14522
1506.553	14466
1508.766	14512
1510.979	14262
1513.191	14636
1515.402	14519
1517.613	14480
1519.823	14319
1522.033	14562
1524.242	14506
1526.451	14345
1528.657	14303
1530.865	14578
1533.072	14613
1535.278	14470
1537.484	14455
1539.687	14634
1541.892	14555
1544.096	14581
1546.299	14474
1548.502	14675
1550.703	14763
1552.905	14577
1555.104	14666
1557.303	14714
1559.505	14785
1561.703	14765
1563.902	14645
1566.099	14552
1568.295	14812
1570.494	14749
1572.689	14732
1574.883	14989
1577.079	14746
1579.272	14805
1581.467	15008
1583.659	14895
1585.853	14705
1588.044	14851
1590.234	14983
1592.424	14829
1594.615	14969
1596.806	14951
1598.994	14870
1601.182	14784
1603.369	14999
1605.557	14860
1607.744	15001
1609.929	15105
1612.114	14988
1614.298	14890
1616.482	15129
1618.667	14984
1620.85	15051
1623.032	14938
1625.214	14931
1627.395	14939
1629.575	15043
1631.755	15019
1633.935	14958
1636.114	15101
1638.292	14879
1640.471	14990
1642.647	15293
1644.823	14945
1647	14975
1649.175	15041
1651.348	14906
1653.525	15217
1655.698	15163
1657.87	15196
1660.043	15083
1662.213	15188
1664.387	15136
1666.558	15106
1668.727	15147
1670.896	15039
1673.064	15243
1675.233	15064
1677.401	14915
1679.569	15200
1681.735	15194
1683.902	15040
1686.066	15046
1688.233	15276
1690.397	15175
1692.559	15018
1694.723	15044
1696.885	15097
1699.048	14998
1701.21	15042
1703.37	14797
1705.53	15113
1707.689	15005
1709.849	14880
1712.009	15115
1714.166	15029
1716.323	14899
1718.479	14929
1720.634	14942
1722.793	14945
1724.948	14949
1727.102	14961
1729.255	14935
1731.408	14981
1733.562	14909
1735.714	14925
1737.865	14988
1740.016	15017
1742.166	14989
1744.316	15034
1746.467	15107
1748.616	15074
1750.764	14997
1752.911	15202
1755.056	15068
1757.205	14940
1759.35	15072
1761.496	14843
1763.641	15125
1765.785	15020
1767.927	15161
1770.072	15046
1772.214	15169
1774.355	15042
1776.496	15128
1778.637	15335
1780.778	14959
1782.918	15253
1785.057	15088
1787.194	15029
1789.333	15337
1791.472	14879
1793.608	15050
1795.745	15107
1797.879	15182
1800.015	15031
1802.148	15096
1804.284	15128
1806.417	15315
1808.548	15159
1810.682	15219
1812.812	15175
1814.946	15248
1817.075	15028
1819.205	15133
1821.335	15050
1823.463	15023
1825.59	15016
1827.721	15197
1829.847	15181
1831.973	15100
1834.098	14879
1836.223	14973
1838.351	15127
1840.475	15105
1842.598	15011
1844.721	14933
1846.843	14968
1848.966	15037
1851.087	14886
1853.21	15167
1855.33	15057
1857.449	14922
1859.568	15093
1861.688	15000
1863.806	14973
1865.924	15056
1868.039	15110
1870.155	14995
1872.273	14986
1874.388	14884
1876.503	14904
1878.617	15018
1880.73	15006
1882.844	14931
1884.956	15157
1887.068	15241
1889.18	14943
1891.291	15081
1893.4	15139
1895.511	15190
1897.621	14982
1899.73	15044
1901.837	14919
1903.944	15296
1906.053	15197
1908.159	15283
1910.265	15251
1912.369	15115
1914.474	15040
1916.577	15254
1918.683	15202
1920.785	15299
1922.888	15286
1924.989	15256
1927.091	15299
1929.193	15235
1931.294	15257
1933.393	15326
1935.493	15078
1937.59	15138
1939.689	15380
1941.788	15292
1943.884	15291
1945.98	15208
1948.077	15218
1950.171	15338
1952.267	15295
1954.361	15202
1956.455	15207
1958.548	15315
1960.64	15057
1962.733	15256
1964.824	15324
1966.915	15126
1969.005	15270
1971.096	15062
1973.185	15240
1975.275	15158
1977.363	15211
1979.45	15229
1981.537	15065
1983.623	15044
1985.711	15150
1987.796	15147
1989.881	15118
1991.965	15382
1994.047	15145
1996.132	15099
1998.215	14881
2000.297	15003
2002.378	15003
2004.46	15023
2006.54	15020
2008.62	15129
2010.7	15184
2012.779	15148
2014.858	14960
2016.934	15025
2019.013	15154
2021.09	15181
2023.165	15031
2025.241	15095
2027.317	14994
2029.39	15339
2031.466	15074
2033.538	15001
2035.612	15174
2037.683	15009
2039.755	15120
2041.827	14938
2043.898	14853
2045.968	15007
2048.038	15118
2050.106	15011
2052.177	15057
2054.244	15185
2056.313	14974
2058.379	15075
2060.444	14966
2062.511	14964
2064.577	15030
2066.641	15174
2068.705	14863
2070.77	15090
2072.832	14989
2074.896	15251
2076.958	15104
2079.02	15040
2081.081	15063
2083.141	15135
2085.2	15138
2087.261	15127
2089.319	15018
2091.377	15123
2093.435	15116
2095.492	15110
2097.552	14843
2099.607	14844
2101.663	15002
2103.718	15139
2105.771	15149
2107.826	15179
2109.879	14947
2111.932	14998
2113.985	15088
2116.037	15076
2118.088	15008
2120.141	15093
2122.191	15106
2124.239	15102
2126.288	15032
2128.337	15178
2130.387	15133
2132.434	15174
2134.481	15205
2136.528	15046
2138.574	14966
2140.618	14946
2142.665	15051
2144.71	14886
2146.753	15038
2148.797	14780
2150.838	14945
2152.883	14971
2154.923	14837
2156.965	14839
2159.007	14889
2161.046	14948
2163.086	14819
2165.126	15007
2167.163	14981
2169.202	14790
2171.239	14569
2173.277	14863
2175.314	14895
2177.349	14747
2179.385	15039
2181.42	14819
2183.453	14789
2185.49	14783
2187.522	14798
2189.555	14816
2191.586	14772
2193.619	14696
2195.651	14766
2197.682	14723
2199.711	14534
2201.74	14643
2203.769	14929
2205.799	14747
2207.828	14856
2209.855	14629
2211.882	14593
2213.908	14598
2215.934	14776
2217.961	14737
2219.986	14608
2222.01	14588
2224.034	14651
2226.057	14746
2228.08	14640
2230.104	14435
2232.124	14698
2234.145	14471
2236.166	14439
2238.186	14732
2240.207	14561
2242.227	14609
2244.244	14801
2246.262	14467
2248.28	14638
2250.299	14558
2252.314	14519
2254.33	14523
2256.346	14727
2258.36	14695
2260.375	14624
2262.391	14472
2264.403	14552
2266.416	14730
2268.427	14617
2270.44	14537
2272.453	14535
2274.463	14678
2276.474	14653
2278.483	14677
2280.493	14647
2282.501	14656
2284.51	14517
2286.518	14710
2288.524	14457
2290.532	14661
2292.537	14552
2294.544	14582
2296.55	14683
2298.554	14620
2300.557	14694
2302.562	14641
2304.566	14545
2306.568	14510
2308.569	14379
2310.572	14633
2312.573	14630
2314.573	14352
2316.574	14448
2318.573	14538
2320.571	14396
2322.571	14389
2324.569	14568
2326.567	14432
2328.564	14433
2330.56	14345
2332.556	14499
2334.551	14403
2336.546	14447
2338.542	14352
2340.535	14201
2342.529	14320
2344.521	14348
2346.512	14263
2348.505	14264
2350.497	14301
2352.487	14333
2354.478	14544
2356.468	14310
2358.457	14154
2360.446	14327
2362.434	14092
2364.422	14348
2366.408	14309
2368.395	14239
2370.383	14273
2372.369	14178
2374.353	14229
2376.338	13966
2378.321	14162
2380.307	14223
2382.29	14359
2384.272	14007
2386.254	14218
2388.235	14198
2390.218	14224
2392.198	13918
2394.179	14083
2396.157	13973
2398.137	14054
2400.115	14067
2402.095	14327
2404.072	13996
2406.048	14112
2408.026	14011
2410.001	13987
2411.977	13834
2413.953	14094
2415.927	14057
2417.9	14141
2419.875	14094
2421.847	14022
2423.821	14058
2425.792	14029
2427.763	14133
2429.736	14222
2431.706	14035
2433.677	13901
2435.646	14002
2437.615	14201
2439.583	14077
2441.551	14050
2443.519	13917
2445.486	13915
2447.452	14108
2449.418	13974
2451.383	14017
2453.348	14080
2455.314	13831
2457.278	13869
2459.241	13985
2461.205	14180
2463.167	13934
2465.131	13953
2467.091	13855
2469.052	13819
2471.012	13878
2472.972	13981
2474.932	13715
2476.891	13801
2478.85	13841
2480.808	13845
2482.766	13823
2484.722	13629
2486.68	13864
2488.636	14002
2490.591	13744
2492.546	13836
2494.5	13770
2496.456	13719
2498.41	13744
2500.362	13814
2502.315	13856
2504.266	13905
2506.218	13728
2508.169	13754
2510.121	13753
2512.07	13766
2514.019	13722
2515.968	13769
2517.918	13832
2519.866	13588
2521.813	13697
2523.76	13628
2525.707	13670
2527.653	13661
2529.599	13618
2531.543	13522
2533.489	13597
2535.433	13645
2537.376	13728
2539.32	13842
2541.264	13629
2543.205	13714
2545.147	13641
2547.087	13640
2549.029	13738
2550.969	13712
2552.908	13885
2554.847	13800
2556.786	13773
2558.724	13417
2560.663	13608
2562.6	13701
2564.537	13465
2566.473	13749
2568.408	13700
2570.345	13720
2572.28	13810
2574.214	13370
2576.148	13564
2578.081	13606
2580.014	13677
2581.947	13771
2583.879	13804
2585.81	13608
2587.741	13772
2589.67	13673
2591.602	13726
2593.532	13675
2595.461	13586
2597.388	13806
2599.316	13754
2601.244	13654
2603.172	13791
2605.098	13669
2607.023	13635
2608.949	13772
2610.873	13730
2612.8	13874
2614.723	13729
2616.647	13885
2618.569	13957
2620.493	13710
2622.416	13841
2624.338	13712
2626.258	13772
2628.179	13687
2630.099	13688
2632.019	13784
2633.939	13740
2635.857	13785
2637.775	13637
2639.694	13704
2641.61	13757
2643.528	13640
2645.444	13814
2647.361	13692
2649.276	13641
2651.19	13820
2653.105	13732
2655.019	13747
2656.934	13703
2658.846	13579
2660.758	13784
2662.67	13698
2664.583	13701
2666.493	13689
2668.404	13599
2670.313	13532
2672.223	13697
2674.134	13589
2676.042	13643
2677.95	13627
2679.858	13629
2681.765	13467
2683.673	13636
2685.579	13424
2687.483	13691
2689.389	13596
2691.294	13511
2693.198	13441
2695.104	13477
2697.006	13474
2698.909	13546
2700.811	13584
2702.713	13544
2704.615	13502
2706.516	13514
2708.417	13490
2710.316	13441
2712.216	13278
2714.115	13452
2716.014	13435
2717.913	13463
2719.81	13413
2721.707	13429
2723.603	13471
2725.501	13459
2727.396	13291
2729.292	13306
2731.186	13298
2733.081	13288
2734.976	13400
2736.87	13297
2738.762	13443
2740.653	13218
2742.546	13460
2744.437	13261
2746.329	13448
2748.22	13236
2750.11	13363
2751.999	13203
2753.889	13170
2755.778	13317
2757.666	13298
2759.553	13219
2761.44	13387
2763.328	13155
2765.215	13375
2767.101	13187
2768.986	13293
2770.87	13247
2772.754	13110
2774.638	13233
2776.523	13128
2778.405	13353
2780.288	13383
2782.17	13295
2784.051	13242
2785.934	13299
2787.814	13135
2789.694	13197
2791.574	13064
2793.453	12997
2795.332	13095
2797.212	12992
2799.088	13126
2800.966	13144
2802.843	13145
2804.719	13263
2806.597	13049
2808.471	13032
2810.346	13460
2812.221	13187
2814.094	13064
2815.969	12966
2817.843	13228
2819.714	13193
2821.587	12969
2823.459	13019
2825.329	12866
2827.202	13054
2829.072	12980
2830.942	13119
2832.811	13084
2834.68	13070
2836.549	13062
2838.418	13046
2840.284	13046
2842.152	13001
2844.018	13102
2845.885	13099
2847.751	12988
2849.616	13074
2851.482	13077
2853.345	13009
2855.208	13056
2857.074	13190
2858.937	13237
2860.799	13191
2862.66	13078
2864.522	13172
2866.385	13104
2868.245	13162
2870.104	13367
2871.964	13120
2873.824	13247
2875.683	13265
2877.542	13281
2879.4	13415
2881.257	13326
2883.114	13551
2884.97	13530
2886.827	13382
2888.683	13494
2890.537	13437
2892.392	13405
2894.246	13387
2896.1	13317
2897.954	13345
2899.807	13381
2901.66	13352
2903.51	13431
2905.362	13467
2907.214	13357
2909.065	13321
2910.915	13454
2912.765	13440
2914.613	13314
2916.463	13553
2918.311	13583
2920.158	13539
2922.006	13627
2923.853	13698
2925.698	13657
2927.546	13866
2929.392	13899
2931.236	13819
2933.081	13794
2934.924	13871
2936.77	13929
2938.613	14079
2940.455	13867
2942.298	13999
2944.139	14080
2945.982	13990
2947.823	14019
2949.662	13839
2951.503	13826
2953.342	13762
2955.182	13817
2957.021	13830
2958.858	13730
2960.697	13617
2962.534	13590
2964.37	13706
2966.207	13520
2968.044	13245
2969.879	13433
2971.714	13370
2973.548	13205
2975.383	13393
2977.218	13369
2979.051	13356
2980.883	13256
2982.715	13236
2984.547	13335
2986.379	13176
2988.21	13196
2990.04	13090
2991.87	13017
2993.7	12949
2995.53	13025
2997.359	12910
2999.187	12753
3001.015	12918
3002.842	13012
3004.669	12875
3006.497	12752
3008.323	12698
3010.148	12491
3011.974	12490
3013.797	12631
3015.623	12534
3017.447	12630
3019.27	12698
3021.094	12592
3022.915	12410
3024.737	12673
3026.56	12323
3028.38	12455
3030.201	12380
3032.022	12505
3033.84	12257
3035.662	12267
3037.481	12434
3039.298	12360
3041.117	12312
3042.933	12293
3044.752	12197
3046.568	12223
3048.385	12282
3050.2	12389
3052.016	12176
3053.83	12180
3055.646	12369
3057.46	12296
3059.272	12288
3061.086	12174
3062.898	12341
3064.711	12201
3066.524	12289
3068.335	12101
3070.145	12026
3071.956	12057
3073.766	12163
3075.576	12230
3077.385	12102
3079.193	12134
3081.002	12124
3082.81	11988
3084.618	12047
3086.425	12005
3088.231	12230
3090.036	11880
3091.842	11936
3093.648	11937
3095.452	12064
3097.257	11970
3099.06	11815
3100.863	11933
3102.666	11802
3104.47	11841
3106.272	11888
3108.073	11884
3109.875	11737
3111.676	11910
3113.477	11675
3115.277	11793
3117.077	11579
3118.874	11799
3120.673	11789
3122.473	11696
3124.271	11802
3126.066	11768
3127.863	11607
3129.66	11812
3131.456	11547
3133.252	11752
3135.047	11664
3136.842	11809
3138.635	11619
3140.429	11711
3142.223	11628
3144.016	11514
3145.808	11566
3147.6	11567
3149.392	11745
3151.183	11626
3152.975	11526
3154.765	11494
3156.553	11632
3158.344	11525
3160.132	11712
3161.922	11492
3163.71	11641
3165.497	11482
3167.285	11499
3169.071	11460
3170.858	11564
3172.645	11446
3174.429	11433
3176.214	11478
3177.998	11370
3179.783	11438
3181.568	11487
3183.351	11420
3185.133	11384
3186.915	11257
3188.698	11297
3190.481	11367
3192.261	11392
3194.042	11484
3195.822	11512
3197.601	11324
3199.381	11187
3201.161	11290
3202.939	11361
3204.717	11263
3206.495	11381
3208.272	11355
3210.05	11171
3211.826	11175
3213.602	11208
3215.376	11169
3217.151	11240
3218.927	11371
3220.702	11243
3222.476	11105
3224.249	11228
3226.021	11251
3227.793	11044
3229.567	11288
3231.339	11063
3233.109	11096
3234.88	11219
3236.651	11222
3238.421	11131
3240.191	11058
3241.96	11267
3243.728	11092
3245.497	11264
3247.263	11276
3249.033	11075
3250.799	11075
3252.566	11286
3254.331	11217
3256.097	11072
3257.863	11285
3259.628	11041
3261.392	11111
3263.156	11162
3264.919	11148
3266.683	11248
3268.447	11205
3270.208	11085
3271.969	11032
3273.731	11200
3275.492	11159
3277.253	11097
3279.013	11004
3280.773	11075
3282.532	10933
3284.291	11001
3286.05	11220
3287.808	11133
3289.566	11004
3291.323	11129
3293.079	11210
3294.835	11093
3296.593	11087
3298.348	11145
3300.102	11069
3301.857	10968
3303.611	11053
3305.366	11084
3307.119	10959
3308.872	11090
3310.624	10978
3312.376	10953
3314.129	10860
3315.881	11037
3317.631	10825
3319.38	11022
3321.13	10874
3322.88	10979
3324.631	10897
3326.379	11064
3328.126	11153
3329.875	10885
3331.622	10989
3333.371	10937
3335.116	10891
3336.863	11043
3338.609	11076
3340.353	11052
3342.1	11039
3343.845	10960
3345.588	10818
3347.332	10891
3349.074	10800
3350.817	10890
3352.56	10918
3354.303	10807
3356.043	10846
3357.785	10798
3359.525	10754
3361.268	10844
3363.007	10949
3364.745	10893
3366.485	10860
3368.223	10840
3369.962	10774
3371.701	10870
3373.438	10675
3375.174	10754
3376.911	10759
3378.647	10773
3380.384	10732
3382.118	10637
3383.854	10605
3385.588	10696
3387.322	10555
3389.057	10595
3390.79	10607
3392.522	10673
3394.255	10628
3395.987	10702
3397.719	10771
3399.451	10485
3401.181	10576
3402.911	10658
3404.641	10623
3406.371	10514
3408.101	10658
3409.83	10603
3411.558	10559
3413.285	10618
3415.011	10571
3416.739	10732
3418.467	10654
3420.193	10631
3421.919	10642
3423.644	10558
3425.368	10481
3427.094	10587
3428.818	10495
3430.542	10421
3432.264	10542
3433.987	10348
3435.712	10495
3437.434	10375
3439.155	10312
3440.876	10530
3442.596	10330
3444.317	10476
3446.039	10409
3447.757	10338
3449.477	10491
3451.195	10223
3452.914	10535
3454.632	10291
3456.35	10385
3458.067	10295
3459.784	10257
3461.5	10394
3463.216	10274
3464.932	10303
3466.647	10295
3468.362	10107
3470.076	10259
3471.789	10195
3473.505	10361
3475.217	10177
3476.929	10048
3478.641	10193
3480.354	10106
3482.066	10111
3483.777	10280
3485.487	10226
3487.197	10180
3488.908	10127
3490.617	10057
3492.327	10144
3494.035	10048
3495.743	10159
3497.451	9889
3499.158	10144
3500.866	10088
3502.572	9933
3504.278	9923
3505.984	10086
3507.689	9939
3509.396	10002
3511.1	10025
3512.804	9985
3514.508	9894
3516.211	9853
3517.913	9961
3519.616	9926
3521.319	9895
3523.021	9862
3524.722	9864
3526.422	9787
3528.124	9883
3529.824	10018
3531.524	9924
3533.222	9894
3534.921	9863
3536.62	9906
3538.318	9718
3540.016	9755
3541.714	9918
3543.41	9749
3545.107	9901
3546.803	9748
3548.5	9806
3550.194	9798
3551.889	9783
3553.583	9721
3555.279	9770
3556.972	9905
3558.666	9768
3560.358	9827
3562.051	9828
3563.742	9832
3565.435	9744
3567.126	9928
3568.817	9603
3570.507	9783
3572.197	9695
3573.888	9686
3575.577	9650
3577.265	9620
3578.954	9613
3580.642	9794
3582.329	9578
3584.017	9636
3585.704	9674
3587.391	9703
3589.077	9636
3590.762	9585
3592.449	9598
3594.133	9524
3595.817	9433
3597.501	9545
3599.185	9493
3600.869	9427
3602.552	9400
3604.234	9455
3605.916	9633
3607.598	9436
3609.279	9502
3610.961	9453
3612.642	9433
3614.321	9375
3616	9373
3617.68	9302
3619.36	9427
3621.039	9246
3622.716	9290
3624.394	9314
3626.071	9355
3627.748	9298
3629.425	9259
3631.102	9276
3632.778	9308
3634.452	9287
3636.127	9292
3637.803	9116
3639.477	9264
3641.151	9305
3642.823	9135
3644.497	9267
3646.171	9127
3647.842	9250
3649.515	9155
3651.185	9184
3652.857	9078
3654.527	9175
3656.198	9233
3657.868	9107
3659.537	9156
3661.207	9098
3662.875	9014
3664.544	9177
3666.212	9020
3667.879	9103
3669.546	9195
3671.212	9127
3672.88	9136
3674.546	9087
3676.211	9024
3677.875	9042
3679.541	9115
3681.205	9064
3682.87	8981
3684.533	9003
3686.196	8947
3687.859	9055
3689.521	9181
3691.184	9001
3692.845	8996
3694.507	8836
3696.167	9056
3697.827	9008
3699.487	8964
3701.148	8963
3702.808	9006
3704.466	8969
3706.125	8982
3707.783	8860
3709.442	8808
3711.099	8859
3712.757	8950
3714.412	8827
3716.068	8879
3717.725	8894
3719.381	8857
3721.036	8818
3722.689	8689
3724.344	8945
3725.998	8849
3727.652	8846
3729.305	8811
3730.958	8768
3732.61	8749
3734.262	8900
3735.915	8626
3737.565	8976
3739.217	8679
3740.866	8916
3742.516	8713
3744.165	8837
3745.816	8805
3747.464	8659
3749.113	8836
3750.761	8621
3752.409	8766
3754.057	8656
3755.703	8718
3757.35	8693
3758.996	8615
3760.641	8611
3762.289	8840
3763.933	8679
3765.577	8621
3767.222	8638
3768.865	8662
3770.508	8507
3772.152	8726
3773.796	8687
3775.438	8621
3777.079	8571
3778.721	8709
3780.363	8584
3782.003	8512
3783.643	8578
3785.283	8525
3786.923	8549
3788.563	8691
3790.203	8452
3791.841	8547
3793.479	8406
3795.115	8516
3796.753	8668
3798.391	8531
3800.027	8410
3801.664	8510
3803.299	8441
3804.935	8462
3806.571	8415
3808.206	8410
3809.839	8499
3811.473	8432
3813.107	8440
3814.74	8360
3816.375	8419
3818.006	8412
3819.638	8424
3821.27	8330
3822.9	8434
3824.532	8378
3826.163	8433
3827.792	8299
3829.423	8287
3831.051	8212
3832.682	8307
3834.311	8190
3835.938	8359
3837.566	8327
3839.193	8144
3840.821	8232
3842.448	8132
3844.075	8250
3845.7	8279
3847.325	8335
3848.951	8229
3850.576	8119
3852.201	8072
3853.825	8180
3855.448	8330
3857.072	8193
3858.694	8271
3860.318	8241
3861.939	8164
3863.562	8221
3865.183	8110
3866.804	8174
3868.426	8117
3870.045	8185
3871.666	8121
3873.285	8192
3874.904	8199
3876.524	8029
3878.142	8110
3879.76	8145
3881.378	8061
3882.995	8122
3884.612	8093
3886.229	8033
3887.845	8050
3889.461	8167
3891.076	8055
3892.691	7971
3894.307	8172
3895.922	7998
3897.536	7984
3899.149	8028
3900.761	7977
3902.374	8088
3903.988	8086
3905.6	8076
3907.212	7998
3908.822	7948
3910.433	7964
3912.045	7902
3913.655	8024
3915.265	7961
3916.875	7879
3918.483	8008
3920.093	8017
3921.702	7968
3923.309	7974
3924.917	8036
3926.523	7929
3928.13	7907
3929.739	7998
3931.344	7970
3932.95	7779
3934.555	7859
3936.159	7936
3937.766	8055
3939.369	7816
3940.974	7891
3942.577	7795
3944.181	7890
3945.783	7861
3947.386	8037
3948.989	7955
3950.59	7779
3952.191	7850
3953.791	7704
3955.394	7879
3956.994	7749
3958.593	7795
3960.192	7716
3961.791	7873
3963.392	7786
3964.99	7825
3966.588	7798
3968.185	7764
3969.782	7737
3971.379	7717
3972.976	7720
3974.572	7755
3976.168	7636
3977.763	7627
3979.358	7712
3980.954	7592
3982.548	7689
3984.142	7540
3985.736	7744
3987.329	7577
3988.922	7549
3990.516	7630
3992.108	7606
3993.698	7558
3995.29	7569
3996.881	7514
3998.473	7655
4000.064	7505
4001.653	7467
4003.242	7610
4004.832	7520
4006.422	7506
4008.01	7510
4009.598	7441
4011.186	7516
4012.773	7399
4014.36	7428
4015.947	7478
4017.534	7431
4019.119	7479
4020.705	7459
4022.291	7431
4023.876	7366
4025.461	7369
4027.044	7311
4028.627	7359
4030.211	7331
4031.795	7343
4033.378	7353
4034.96	7335
4036.542	7381
4038.124	7293
4039.704	7387
4041.286	7312
4042.867	7267
4044.447	7300
4046.026	7270
4047.606	7319
4049.187	7319
4050.765	7249
4052.343	7235
4053.92	7244
4055.498	7191
4057.076	7187
4058.654	7202
4060.23	7251
4061.806	7142
4063.381	7193
4064.957	7219
4066.533	7099
4068.107	7154
4069.682	7241
4071.256	7169
4072.829	7219
4074.404	7255
4075.977	7084
4077.549	7103
4079.121	7096
4080.693	7187
4082.265	7139
4083.836	7037
4085.407	7252
4086.977	7123
4088.547	7000
4090.117	7143
4091.687	7002
4093.256	7076
4094.825	7184
4096.392	7198
4097.96	7190
4099.528	7065
4101.097	7007
4102.663	6979
4104.229	7031
4105.795	6989
4107.361	6856
4108.928	6953
4110.493	7004
4112.058	7046
4113.621	6977
4115.186	6898
4116.75	6910
4118.313	6846
4119.876	7048
4121.438	6860
4123	6955
4124.562	6808
4126.125	6999
4127.686	6949
4129.246	6945
4130.807	6830
4132.367	6843
4133.927	6927
4135.486	6914
4137.046	6845
4138.604	6906
4140.162	6845
4141.72	6785
4143.279	6782
4144.836	6842
4146.393	6783
4147.949	6791
4149.505	6839
4151.062	6770
4152.617	6751
4154.172	6683
4155.727	6761
4157.281	6727
4158.836	6719
4160.39	6794
4161.943	6619
4163.496	6722
4165.048	6628
4166.601	6580
4168.154	6728
4169.706	6692
4171.257	6650
4172.808	6572
4174.358	6610
4175.909	6666
4177.458	6493
4179.008	6615
4180.558	6688
4182.106	6639
4183.655	6417
4185.204	6546
4186.751	6556
4188.298	6658
4189.845	6589
4191.392	6544
4192.939	6582
4194.485	6536
4196.031	6477
4197.576	6554
4199.121	6457
4200.666	6494
4202.211	6406
4203.754	6545
4205.298	6526
4206.84	6491
4208.384	6441
4209.927	6380
4211.47	6342
4213.011	6652
4214.552	6432
4216.094	6464
4217.635	6508
4219.175	6402
4220.716	6386
4222.255	6442
4223.793	6409
4225.335	6429
4226.873	6361
4228.411	6425
4229.948	6373
4231.486	6431
4233.024	6290
4234.562	6468
4236.098	6422
4237.634	6427
4239.169	6453
4240.705	6473
4242.241	6361
4243.776	6474
4245.31	6307
4246.844	6370
4248.378	6299
4249.911	6320
4251.445	6340
4252.978	6366
4254.51	6359
4256.042	6248
4257.574	6301
4259.107	6298
4260.638	6084
4262.169	6318
4263.699	6318
4265.228	6227
4266.759	6225
4268.289	6335
4269.818	6284
4271.345	6217
4272.874	6359
4274.402	6230
4275.931	6251
4277.458	6282
4278.985	6256
4280.512	6240
4282.037	6257
4283.564	6239
4285.089	6212
4286.615	6113
4288.139	6198
4289.664	6176
4291.187	6084
4292.712	6121
4294.235	6234
4295.759	6193
4297.281	6232
4298.804	6114
4300.327	6129
4301.849	6070
4303.37	6201
4304.891	5997
4306.412	6150
4307.933	6060
4309.453	6178
4310.973	6027
4312.492	6054
