398.1873	4462
400.7097	4527
403.2336	4468
405.7547	4410
408.2751	4497
410.7948	4441
413.3138	4461
415.83	4546
418.3497	4547
420.8666	4566
423.3829	4728
425.8985	4572
428.4133	4695
430.9275	4696
433.441	4708
435.9538	4757
438.4639	4737
440.9753	4721
443.4881	4794
445.9982	4754
448.5055	4748
451.0142	4784
453.5201	4749
456.0274	4691
458.5361	4688
461.04	4733
463.5453	4744
466.0478	4702
468.5517	4769
471.0549	4748
473.5574	4780
476.0572	4749
478.5584	4755
481.0568	4712
483.5545	4805
486.0557	4785
488.5521	4813
491.0478	4898
493.5449	4838
496.0392	4853
498.5349	4892
501.0299	4724
503.5222	4829
506.0139	4859
508.5048	4805
510.9991	4919
513.4887	4851
515.9777	4932
518.4659	4927
520.9534	4990
523.4403	4943
525.9306	4966
528.4161	4884
530.9009	4899
533.3851	4862
535.8687	4923
538.3535	4852
540.8356	4868
543.3171	4873
545.7979	4889
548.278	4914
550.7595	4919
553.2383	4843
555.7144	4938
558.1918	5007
560.6685	5011
563.1446	5051
565.6221	5047
568.0968	4980
570.5688	5189
573.0422	5059
575.515	5014
577.989	5158
580.4584	5208
582.9291	5169
585.3991	5053
587.8685	5328
590.3352	5098
592.8052	5136
595.2706	5177
597.7372	5128
600.2033	5057
602.6666	5075
605.1334	5177
607.5953	5101
610.0587	5051
612.5193	5061
614.9814	5008
617.4427	5028
619.9034	5101
622.3615	5073
624.8208	5025
627.2775	5030
629.7335	5163
632.1929	5029
634.6476	5095
637.1016	5060
639.5569	5003
642.0096	5065
644.4637	5162
646.9151	5092
649.3678	5161
651.8179	5141
654.2672	5147
656.7159	5145
659.166	5266
661.6154	5257
664.0622	5176
666.5082	5147
668.9537	5188
671.4005	5198
673.8445	5154
676.288	5207
678.7308	5161
681.1729	5245
683.6163	5169
686.0572	5237
688.4973	5279
690.9368	5237
693.3757	5262
695.8138	5130
698.2534	5181
700.6902	5262
703.1245	5323
705.56	5215
707.9949	5258
710.4311	5352
712.8647	5388
715.2957	5275
717.7279	5251
720.1595	5333
722.5905	5325
725.0208	5433
727.4505	5405
729.8795	5405
732.3058	5472
734.7336	5443
737.1626	5481
739.587	5483
742.0128	5502
744.4359	5472
746.8604	5663
749.2841	5436
751.7073	5552
754.1278	5634
756.5496	5558
758.9688	5572
761.3893	5665
763.8093	5544
766.2285	5587
768.6451	5528
771.0611	5714
773.4784	5618
775.895	5558
778.3091	5648
780.7244	5699
783.1371	5675
785.5493	5611
787.9626	5557
790.3754	5534
792.7856	5680
795.1951	5601
797.6039	5582
800.0121	5620
802.4236	5511
804.8306	5726
807.2369	5682
809.6425	5628
812.0475	5695
814.4538	5670
816.8575	5733
819.2606	5854
821.663	5612
824.0648	5725
826.4659	5694
828.8683	5674
831.2682	5749
833.6674	5787
836.066	5673
838.4639	5709
840.8632	5781
843.2579	5790
845.6539	5710
848.0493	5744
850.444	5899
852.84	5692
855.2315	5688
857.6243	5928
860.0165	5756
862.4081	5851
864.797	5717
867.1892	5820
869.5789	5761
871.9659	5719
874.3542	5866
876.74	5791
879.129	5864
881.5155	5731
883.8994	5632
886.2845	5746
888.6671	5792
891.051	5768
893.4343	5773
895.8169	5794
898.197	5757
900.5783	5817
902.9571	5784
905.3372	5783
907.7167	5864
910.0936	5797
912.4698	5873
914.8474	5961
917.2244	5913
919.5987	5933
921.9744	5960
924.3475	5972
926.72	6001
929.0918	6080
931.4669	6081
933.8375	6071
936.2074	6081
938.5767	6219
940.9454	6150
943.3154	6341
945.6829	6270
948.0497	6459
950.4178	6606
952.7833	6973
955.1483	6974
957.5145	7323
959.8782	7230
962.2412	7323
964.6036	7033
966.9655	6976
969.3266	6725
971.6871	6457
974.0471	6223
976.4064	6155
978.765	6043
981.125	6114
983.4824	6022
985.8373	6067
988.1935	5875
990.549	6015
992.9039	5927
995.2602	6054
997.6119	5922
999.965	6061
1002.317	6110
1004.667	6021
1007.02	6016
1009.371	5923
1011.719	6011
1014.068	6062
1016.415	6035
1018.765	6000
1021.111	6065
1023.458	6023
1025.804	6123
1028.147	6160
1030.49	6034
1032.837	6136
1035.179	6139
1037.522	6124
1039.862	6101
1042.204	6108
1044.546	6257
1046.884	6060
1049.224	6085
1051.562	6051
1053.899	6193
1056.237	6104
1058.575	6108
1060.91	6153
1063.244	6209
1065.58	6113
1067.913	6314
1070.248	6273
1072.579	6257
1074.911	6283
1077.242	6169
1079.572	6249
1081.905	6236
1084.234	6175
1086.562	6198
1088.89	6212
1091.217	6144
1093.544	6214
1095.871	6186
1098.197	6067
1100.521	6231
1102.845	6221
1105.169	6210
1107.491	6181
1109.814	6145
1112.135	6084
1114.456	6245
1116.776	6212
1119.096	6178
1121.415	6114
1123.734	6186
1126.052	6213
1128.369	6145
1130.686	6102
1133.002	6247
1135.318	6283
1137.632	6273
1139.945	6139
1142.258	6151
1144.573	6061
1146.884	6102
1149.196	6179
1151.505	6190
1153.816	6297
1156.124	6149
1158.435	6259
1160.742	6216
1163.051	6280
1165.356	6143
1167.663	6250
1169.97	6203
1172.276	6187
1174.579	6245
1176.881	6112
1179.186	6239
1181.487	6234
1183.79	6261
1186.092	6217
1188.392	6201
1190.691	6066
1192.991	6126
1195.291	6193
1197.588	6209
1199.885	6148
1202.181	6154
1204.479	6169
1206.775	6234
1209.07	6216
1211.363	6246
1213.656	6139
1215.949	6125
1218.241	6323
1220.534	6287
1222.825	6202
1225.115	6268
1227.405	6256
1229.693	6417
1231.984	6304
1234.271	6320
1236.558	6414
1238.845	6465
1241.131	6490
1243.416	6352
1245.703	6510
1247.987	6359
1250.269	6568
1252.552	6451
1254.834	6465
1257.118	6384
1259.399	6354
1261.678	6410
1263.958	6410
1266.237	6512
1268.516	6386
1270.794	6541
1273.072	6503
1275.347	6334
1277.624	6538
1279.899	6392
1282.175	6479
1284.449	6465
1286.722	6326
1288.995	6430
1291.266	6368
1293.54	6366
1295.81	6474
1298.081	6404
1300.35	6377
1302.62	6410
1304.889	6340
1307.156	6307
1309.425	6294
1311.69	6345
1313.957	6404
1316.222	6386
1318.488	6423
1320.751	6306
1323.016	6338
1325.278	6340
1327.54	6444
1329.803	6333
1332.065	6316
1334.325	6340
1336.584	6373
1338.843	6413
1341.101	6376
1343.36	6439
1345.617	6268
1347.876	6335
1350.131	6320
1352.387	6362
1354.643	6515
1356.897	6440
1359.151	6418
1361.403	6336
1363.656	6472
1365.909	6506
1368.16	6460
1370.409	6407
1372.659	6403
1374.909	6380
1377.157	6428
1379.407	6404
1381.655	6491
1383.9	6483
1386.147	6548
1388.393	6502
1390.64	6523
1392.885	6631
1395.127	6451
1397.37	6538
1399.614	6528
1401.854	6544
1404.098	6604
1406.339	6441
1408.578	6605
1410.818	6505
1413.056	6586
1415.297	6476
1417.533	6427
1419.771	6413
1422.006	6472
1424.243	6540
1426.479	6526
1428.715	6647
1430.948	6557
1433.182	6607
1435.414	6642
1437.647	6559
1439.88	6706
1442.11	6810
1444.342	6613
1446.571	6655
1448.799	6641
1451.029	6686
1453.258	6876
1455.485	6721
1457.711	6674
1459.937	6664
1462.164	6672
1464.39	6712
1466.614	6627
1468.838	6635
1471.06	6562
1473.283	6604
1475.506	6577
1477.727	6517
1479.949	6644
1482.169	6496
1484.389	6550
1486.609	6496
1488.828	6581
1491.045	6514
1493.261	6356
1495.477	6369
1497.693	6522
1499.91	6483
1502.125	6497
1504.339	6530
1506.553	6419
1508.766	6413
1510.979	6489
1513.191	6523
1515.402	6493
1517.613	6414
1519.823	6398
1522.033	6444
1524.242	6411
1526.451	6406
1528.657	6434
1530.865	6431
1533.072	6440
1535.278	6484
1537.484	6404
1539.687	6498
1541.892	6470
1544.096	6572
1546.299	6530
1548.502	6608
1550.703	6458
1552.905	6535
1555.104	6532
1557.303	6474
1559.505	6697
1561.703	6681
1563.902	6635
1566.099	6494
1568.295	6644
1570.494	6755
1572.689	6647
1574.883	6564
1577.079	6614
1579.272	6561
1581.467	6642
1583.659	6675
1585.853	6716
1588.044	6640
1590.234	6746
1592.424	6800
1594.615	6646
1596.806	6532
1598.994	6656
1601.182	6724
1603.369	6754
1605.557	6697
1607.744	6699
1609.929	6599
1612.114	6642
1614.298	6692
1616.482	6674
1618.667	6736
1620.85	6744
1623.032	6737
1625.214	6761
1627.395	6817
1629.575	6721
1631.755	6806
1633.935	6893
1636.114	6737
1638.292	6752
1640.471	6786
1642.647	6888
1644.823	6807
1647	6842
1649.175	6804
1651.348	6806
1653.525	6881
1655.698	6750
1657.87	6775
1660.043	6876
1662.213	6855
1664.387	6886
1666.558	6968
1668.727	6922
1670.896	6875
1673.064	6884
1675.233	6796
1677.401	6770
1679.569	6744
1681.735	6894
1683.902	6904
1686.066	6849
1688.233	6815
1690.397	6801
1692.559	6812
1694.723	6720
1696.885	6753
1699.048	6702
1701.21	6763
1703.37	6797
1705.53	6814
1707.689	6826
1709.849	6693
1712.009	6785
1714.166	6757
1716.323	6591
1718.479	6774
1720.634	6672
1722.793	6713
1724.948	6708
1727.102	6693
1729.255	6700
1731.408	6666
1733.562	6792
1735.714	6719
1737.865	6752
1740.016	6790
1742.166	6648
1744.316	6785
1746.467	6664
1748.616	6705
1750.764	6726
1752.911	6753
1755.056	6743
1757.205	6765
1759.35	6844
1761.496	6734
1763.641	6712
1765.785	6780
1767.927	6907
1770.072	6704
1772.214	6897
1774.355	6744
1776.496	6845
1778.637	6747
1780.778	6774
1782.918	6874
1785.057	6727
1787.194	6941
1789.333	6819
1791.472	6835
1793.608	6808
1795.745	6819
1797.879	6841
1800.015	6756
1802.148	6859
1804.284	6680
1806.417	6749
1808.548	6846
1810.682	6829
1812.812	6854
1814.946	6881
1817.075	6809
1819.205	6872
1821.335	6776
1823.463	6967
1825.59	6719
1827.721	6732
1829.847	6842
1831.973	6734
1834.098	6834
1836.223	6783
1838.351	6781
1840.475	6746
1842.598	6808
1844.721	6877
1846.843	6860
1848.966	6773
1851.087	6765
1853.21	6647
1855.33	6868
1857.449	6723
1859.568	6741
1861.688	6736
1863.806	6851
1865.924	6686
1868.039	6772
1870.155	6790
1872.273	6733
1874.388	6692
1876.503	6801
1878.617	6795
1880.73	6798
1882.844	6810
1884.956	6762
1887.068	6841
1889.18	6816
1891.291	6817
1893.4	6874
1895.511	6861
1897.621	6902
1899.73	6893
1901.837	6855
1903.944	6847
1906.053	6874
1908.159	6877
1910.265	6928
1912.369	6771
1914.474	6978
1916.577	6876
1918.683	7006
1920.785	6847
1922.888	6972
1924.989	6839
1927.091	6919
1929.193	6952
1931.294	6880
1933.393	6856
1935.493	6870
1937.59	6865
1939.689	6978
1941.788	7007
1943.884	6868
1945.98	7043
1948.077	6912
1950.171	6951
1952.267	6902
1954.361	6843
1956.455	6960
1958.548	6997
1960.64	6963
1962.733	6801
1964.824	6935
1966.915	6849
1969.005	6806
1971.096	6976
1973.185	6961
1975.275	7062
1977.363	6959
1979.45	6978
1981.537	6810
1983.623	6808
1985.711	6941
1987.796	7018
1989.881	6875
1991.965	6896
1994.047	6969
1996.132	6819
1998.215	6839
2000.297	6797
2002.378	6861
2004.46	6860
2006.54	6879
2008.62	6913
2010.7	6799
2012.779	6811
2014.858	6847
2016.934	6939
2019.013	6891
2021.09	6951
2023.165	6958
2025.241	6763
2027.317	6927
2029.39	6748
2031.466	6791
2033.538	6830
2035.612	6947
2037.683	6814
2039.755	6842
2041.827	6884
2043.898	6844
2045.968	6846
2048.038	6796
2050.106	6750
2052.177	6852
2054.244	6828
2056.313	6902
2058.379	6894
2060.444	6915
2062.511	6914
2064.577	6888
2066.641	6839
2068.705	6833
2070.77	6930
2072.832	6855
2074.896	6949
2076.958	6809
2079.02	6830
2081.081	6965
2083.141	6893
2085.2	6855
2087.261	6831
2089.319	6820
2091.377	6829
2093.435	6882
2095.492	6979
2097.552	6889
2099.607	6792
2101.663	6934
2103.718	6837
2105.771	6886
2107.826	6899
2109.879	6909
2111.932	6892
2113.985	7018
2116.037	6908
2118.088	6836
2120.141	6962
2122.191	6905
2124.239	7003
2126.288	6921
2128.337	6871
2130.387	6968
2132.434	6899
2134.481	6785
2136.528	6905
2138.574	6771
2140.618	6832
2142.665	6964
2144.71	6809
2146.753	6873
2148.797	6732
2150.838	6881
2152.883	6888
2154.923	6872
2156.965	6857
2159.007	6799
2161.046	6842
2163.086	6748
2165.126	6853
2167.163	6731
2169.202	6859
2171.239	6992
2173.277	6851
2175.314	6832
2177.349	6842
2179.385	6855
2181.42	6830
2183.453	6819
2185.49	6781
2187.522	6787
2189.555	6833
2191.586	6802
2193.619	6757
2195.651	6804
2197.682	6733
2199.711	6848
2201.74	6824
2203.769	6865
2205.799	6786
2207.828	6757
2209.855	6867
2211.882	6790
2213.908	6784
2215.934	6657
2217.961	6779
2219.986	6723
2222.01	6655
2224.034	6691
2226.057	6741
2228.08	6736
2230.104	6705
2232.124	6754
2234.145	6822
2236.166	6654
2238.186	6847
2240.207	6701
2242.227	6804
2244.244	6721
2246.262	6773
2248.28	6687
2250.299	6796
2252.314	6783
2254.33	6767
2256.346	6713
2258.36	6748
2260.375	6767
2262.391	6755
2264.403	6716
2266.416	6923
2268.427	6690
2270.44	6709
2272.453	6808
2274.463	6760
2276.474	6806
2278.483	6785
2280.493	6790
2282.501	6772
2284.51	6808
2286.518	6812
2288.524	6705
2290.532	6809
2292.537	6802
2294.544	6866
2296.55	6818
2298.554	6729
2300.557	6820
2302.562	6714
2304.566	6724
2306.568	6749
2308.569	6737
2310.572	6950
2312.573	6729
2314.573	6681
2316.574	6915
2318.573	6670
2320.571	6663
2322.571	6764
2324.569	6805
2326.567	6610
2328.564	6759
2330.56	6895
2332.556	6716
2334.551	6749
2336.546	6621
2338.542	6652
2340.535	6714
2342.529	6708
2344.521	6727
2346.512	6660
2348.505	6670
2350.497	6669
2352.487	6616
2354.478	6749
2356.468	6645
2358.457	6589
2360.446	6708
2362.434	6648
2364.422	6620
2366.408	6671
2368.395	6552
2370.383	6627
2372.369	6684
2374.353	6577
2376.338	6633
2378.321	6627
2380.307	6626
2382.29	6549
2384.272	6580
2386.254	6528
2388.235	6693
2390.218	6588
2392.198	6631
2394.179	6676
2396.157	6557
2398.137	6653
2400.115	6492
2402.095	6527
2404.072	6602
2406.048	6582
2408.026	6587
2410.001	6540
2411.977	6658
2413.953	6613
2415.927	6634
2417.9	6546
2419.875	6587
2421.847	6655
2423.821	6516
2425.792	6531
2427.763	6620
2429.736	6650
2431.706	6576
2433.677	6530
2435.646	6639
2437.615	6507
2439.583	6561
2441.551	6583
2443.519	6623
2445.486	6576
2447.452	6647
2449.418	6569
2451.383	6462
2453.348	6574
2455.314	6627
2457.278	6455
2459.241	6529
2461.205	6548
2463.167	6533
2465.131	6477
2467.091	6653
2469.052	6598
2471.012	6474
2472.972	6564
2474.932	6415
2476.891	6395
2478.85	6495
2480.808	6549
2482.766	6550
2484.722	6492
2486.68	6582
2488.636	6554
2490.591	6448
2492.546	6499
2494.5	6500
2496.456	6347
2498.41	6402
2500.362	6408
2502.315	6427
2504.266	6622
2506.218	6479
2508.169	6500
2510.121	6499
2512.07	6547
2514.019	6314
2515.968	6536
2517.918	6609
2519.866	6376
2521.813	6407
2523.76	6433
2525.707	6513
2527.653	6509
2529.599	6374
2531.543	6563
2533.489	6406
2535.433	6399
2537.376	6494
2539.32	6502
2541.264	6368
2543.205	6416
2545.147	6473
2547.087	6511
2549.029	6530
2550.969	6449
2552.908	6524
2554.847	6469
2556.786	6564
2558.724	6525
2560.663	6407
2562.6	6486
2564.537	6386
2566.473	6561
2568.408	6464
2570.345	6425
2572.28	6518
2574.214	6498
2576.148	6420
2578.081	6461
2580.014	6538
2581.947	6386
2583.879	6495
2585.81	6483
2587.741	6589
2589.67	6456
2591.602	6596
2593.532	6550
2595.461	6387
2597.388	6521
2599.316	6566
2601.244	6464
2603.172	6462
2605.098	6397
2607.023	6515
2608.949	6595
2610.873	6590
2612.8	6471
2614.723	6549
2616.647	6474
2618.569	6494
2620.493	6381
2622.416	6519
2624.338	6495
2626.258	6512
2628.179	6567
2630.099	6519
2632.019	6382
2633.939	6469
2635.857	6570
2637.775	6611
2639.694	6601
2641.61	6490
2643.528	6586
2645.444	6670
2647.361	6393
2649.276	6560
2651.19	6465
2653.105	6451
2655.019	6384
2656.934	6644
2658.846	6552
2660.758	6551
2662.67	6499
2664.583	6573
2666.493	6624
2668.404	6436
2670.313	6416
2672.223	6557
2674.134	6491
2676.042	6525
2677.95	6570
2679.858	6421
2681.765	6486
2683.673	6444
2685.579	6475
2687.483	6508
2689.389	6450
2691.294	6400
2693.198	6395
2695.104	6429
2697.006	6468
2698.909	6436
2700.811	6532
2702.713	6417
2704.615	6428
2706.516	6468
2708.417	6358
2710.316	6420
2712.216	6383
2714.115	6491
2716.014	6366
2717.913	6389
2719.81	6474
2721.707	6409
2723.603	6439
2725.501	6480
2727.396	6364
2729.292	6409
2731.186	6386
2733.081	6342
2734.976	6362
2736.87	6321
2738.762	6328
2740.653	6457
2742.546	6471
2744.437	6352
2746.329	6296
2748.22	6466
2750.11	6442
2751.999	6317
2753.889	6463
2755.778	6318
2757.666	6381
2759.553	6342
2761.44	6438
2763.328	6357
2765.215	6303
2767.101	6430
2768.986	6381
2770.87	6395
2772.754	6425
2774.638	6403
2776.523	6403
2778.405	6316
2780.288	6299
2782.17	6336
2784.051	6269
2785.934	6346
2787.814	6356
2789.694	6348
2791.574	6364
2793.453	6314
2795.332	6304
2797.212	6424
2799.088	6333
2800.966	6478
2802.843	6303
2804.719	6366
2806.597	6322
2808.471	6320
2810.346	6316
2812.221	6257
2814.094	6343
2815.969	6281
2817.843	6329
2819.714	6221
2821.587	6245
2823.459	6333
2825.329	6343
2827.202	6426
2829.072	6302
2830.942	6315
2832.811	6360
2834.68	6344
2836.549	6331
2838.418	6249
2840.284	6413
2842.152	6246
2844.018	6411
2845.885	6362
2847.751	6230
2849.616	6251
2851.482	6301
2853.345	6321
2855.208	6231
2857.074	6477
2858.937	6471
2860.799	6327
2862.66	6576
2864.522	6394
2866.385	6578
2868.245	6487
2870.104	6618
2871.964	6509
2873.824	6706
2875.683	6721
2877.542	6608
2879.4	6549
2881.257	6658
2883.114	6691
2884.97	6712
2886.827	6649
2888.683	6818
2890.537	6786
2892.392	6868
2894.246	6645
2896.1	6681
2897.954	6811
2899.807	6803
2901.66	6676
2903.51	6598
2905.362	6644
2907.214	6628
2909.065	6793
2910.915	6860
2912.765	6821
2914.613	6820
2916.463	6752
2918.311	6986
2920.158	6946
2922.006	6939
2923.853	6995
2925.698	7097
2927.546	6964
2929.392	7066
2931.236	7218
2933.081	7153
2934.924	7252
2936.77	7127
2938.613	7316
2940.455	7282
2942.298	7350
2944.139	7361
2945.982	7352
2947.823	7335
2949.662	7363
2951.503	7227
2953.342	7218
2955.182	7204
2957.021	7239
2958.858	7077
2960.697	7109
2962.534	7008
2964.37	7070
2966.207	6979
2968.044	6865
2969.879	6929
2971.714	6877
2973.548	6746
2975.383	6855
2977.218	6822
2979.051	6783
2980.883	6687
2982.715	6723
2984.547	6708
2986.379	6742
2988.21	6697
2990.04	6587
2991.87	6596
2993.7	6591
2995.53	6662
2997.359	6492
2999.187	6467
3001.015	6387
3002.842	6447
3004.669	6359
3006.497	6361
3008.323	6377
3010.148	6299
3011.974	6308
3013.797	6263
3015.623	6282
3017.447	6171
3019.27	6154
3021.094	6235
3022.915	6179
3024.737	6126
3026.56	6227
3028.38	6079
3030.201	6044
3032.022	6089
3033.84	6147
3035.662	6050
3037.481	6044
3039.298	6048
3041.117	6010
3042.933	6123
3044.752	6073
3046.568	6060
3048.385	6053
3050.2	6046
3052.016	6147
3053.83	6086
3055.646	6077
3057.46	6045
3059.272	6105
3061.086	6033
3062.898	6157
3064.711	6080
3066.524	5980
3068.335	6004
3070.145	5940
3071.956	6003
3073.766	6015
3075.576	5964
3077.385	6043
3079.193	5990
3081.002	5905
3082.81	6030
3084.618	5990
3086.425	6003
3088.231	5957
3090.036	5976
3091.842	5933
3093.648	5894
3095.452	5931
3097.257	5947
3099.06	5902
3100.863	5830
3102.666	5885
3104.47	5927
3106.272	5868
3108.073	5871
3109.875	5838
3111.676	5914
3113.477	5821
3115.277	5877
3117.077	5837
3118.874	5875
3120.673	5887
3122.473	5790
3124.271	5819
3126.066	5866
3127.863	5734
3129.66	5907
3131.456	5721
3133.252	5756
3135.047	5696
3136.842	5798
3138.635	5754
3140.429	5785
3142.223	5706
3144.016	5791
3145.808	5802
3147.6	5800
3149.392	5766
3151.183	5762
3152.975	5711
3154.765	5721
3156.553	5841
3158.344	5832
3160.132	5760
3161.922	5723
3163.71	5714
3165.497	5747
3167.285	5679
3169.071	5682
3170.858	5784
3172.645	5800
3174.429	5723
3176.214	5712
3177.998	5665
3179.783	5696
3181.568	5772
3183.351	5627
3185.133	5700
3186.915	5669
3188.698	5725
3190.481	5679
3192.261	5654
3194.042	5657
3195.822	5627
3197.601	5690
3199.381	5659
3201.161	5819
3202.939	5719
3204.717	5608
3206.495	5675
3208.272	5643
3210.05	5664
3211.826	5637
3213.602	5503
3215.376	5658
3217.151	5631
3218.927	5633
3220.702	5739
3222.476	5676
3224.249	5622
3226.021	5705
3227.793	5656
3229.567	5599
3231.339	5608
3233.109	5659
3234.88	5637
3236.651	5651
3238.421	5637
3240.191	5635
3241.96	5485
3243.728	5672
3245.497	5622
3247.263	5640
3249.033	5673
3250.799	5615
3252.566	5673
3254.331	5603
3256.097	5653
3257.863	5709
3259.628	5583
3261.392	5724
3263.156	5615
3264.919	5672
3266.683	5627
3268.447	5588
3270.208	5586
3271.969	5638
3273.731	5587
3275.492	5633
3277.253	5613
3279.013	5637
3280.773	5586
3282.532	5791
3284.291	5640
3286.05	5645
3287.808	5641
3289.566	5608
3291.323	5562
3293.079	5613
3294.835	5531
3296.593	5656
3298.348	5559
3300.102	5680
3301.857	5603
3303.611	5742
3305.366	5546
3307.119	5577
3308.872	5626
3310.624	5675
3312.376	5636
3314.129	5541
3315.881	5628
3317.631	5624
3319.38	5585
3321.13	5609
3322.88	5603
3324.631	5643
3326.379	5567
3328.126	5610
3329.875	5486
3331.622	5472
3333.371	5597
3335.116	5500
3336.863	5573
3338.609	5556
3340.353	5627
3342.1	5630
3343.845	5555
3345.588	5522
3347.332	5594
3349.074	5546
3350.817	5530
3352.56	5531
3354.303	5587
3356.043	5552
3357.785	5547
3359.525	5583
3361.268	5463
3363.007	5583
3364.745	5508
3366.485	5534
3368.223	5607
3369.962	5501
3371.701	5492
3373.438	5475
3375.174	5437
3376.911	5526
3378.647	5473
3380.384	5471
3382.118	5537
3383.854	5437
3385.588	5365
3387.322	5518
3389.057	5474
3390.79	5538
3392.522	5432
3394.255	5494
3395.987	5392
3397.719	5560
3399.451	5418
3401.181	5411
3402.911	5403
3404.641	5434
3406.371	5318
3408.101	5486
3409.83	5526
3411.558	5383
3413.285	5385
3415.011	5327
3416.739	5336
3418.467	5321
3420.193	5458
3421.919	5409
3423.644	5355
3425.368	5417
3427.094	5434
3428.818	5340
3430.542	5380
3432.264	5434
3433.987	5371
3435.712	5448
3437.434	5364
3439.155	5336
3440.876	5288
3442.596	5283
3444.317	5363
3446.039	5220
3447.757	5238
3449.477	5222
3451.195	5336
3452.914	5389
3454.632	5254
3456.35	5241
3458.067	5307
3459.784	5412
3461.5	5350
3463.216	5317
3464.932	5263
3466.647	5249
3468.362	5217
3470.076	5259
3471.789	5213
3473.505	5223
3475.217	5190
3476.929	5164
3478.641	5207
3480.354	5080
3482.066	5221
3483.777	5117
3485.487	5133
3487.197	5080
3488.908	5209
3490.617	5140
3492.327	5238
3494.035	5217
3495.743	5129
3497.451	5036
3499.158	5131
3500.866	5098
3502.572	5071
3504.278	5151
3505.984	5170
3507.689	5089
3509.396	5172
3511.1	5173
3512.804	5058
3514.508	5163
3516.211	5077
3517.913	5174
3519.616	5092
3521.319	5105
3523.021	5086
3524.722	5049
3526.422	5060
3528.124	5061
3529.824	5134
3531.524	5069
3533.222	5113
3534.921	5062
3536.62	5153
3538.318	5101
3540.016	5016
3541.714	5069
3543.41	5093
3545.107	5027
3546.803	4984
3548.5	4932
3550.194	5104
3551.889	5063
3553.583	4932
3555.279	4970
3556.972	5001
3558.666	4922
3560.358	5078
3562.051	5013
3563.742	4965
3565.435	4963
3567.126	5055
3568.817	4920
3570.507	4927
3572.197	5050
3573.888	4977
3575.577	4886
3577.265	4903
3578.954	4775
3580.642	4960
3582.329	4932
3584.017	4921
3585.704	4976
3587.391	4911
3589.077	4922
3590.762	4877
3592.449	4949
3594.133	4864
3595.817	4900
3597.501	4875
3599.185	4930
3600.869	4908
3602.552	4871
3604.234	4846
3605.916	4892
3607.598	4864
3609.279	4769
3610.961	4763
3612.642	4790
3614.321	4868
3616	4898
3617.68	4792
3619.36	4764
3621.039	4819
3622.716	4781
3624.394	4815
3626.071	4809
3627.748	4783
3629.425	4788
3631.102	4749
3632.778	4792
3634.452	4726
3636.127	4694
3637.803	4778
3639.477	4702
3641.151	4705
3642.823	4674
3644.497	4704
3646.171	4743
3647.842	4750
3649.515	4675
3651.185	4653
3652.857	4700
3654.527	4637
3656.198	4725
3657.868	4686
3659.537	4673
3661.207	4610
3662.875	4700
3664.544	4732
3666.212	4647
3667.879	4684
3669.546	4657
3671.212	4722
3672.88	4670
3674.546	4644
3676.211	4662
3677.875	4702
3679.541	4653
3681.205	4613
3682.87	4617
3684.533	4628
3686.196	4644
3687.859	4665
3689.521	4621
3691.184	4619
3692.845	4619
3694.507	4586
3696.167	4687
3697.827	4594
3699.487	4599
3701.148	4586
3702.808	4540
3704.466	4662
3706.125	4564
3707.783	4571
3709.442	4582
3711.099	4592
3712.757	4659
3714.412	4607
3716.068	4495
3717.725	4643
3719.381	4541
3721.036	4600
3722.689	4521
3724.344	4515
3725.998	4533
3727.652	4569
3729.305	4549
3730.958	4459
3732.61	4546
3734.262	4600
3735.915	4413
3737.565	4558
3739.217	4592
3740.866	4541
3742.516	4473
3744.165	4582
3745.816	4456
3747.464	4468
3749.113	4493
3750.761	4495
3752.409	4391
3754.057	4445
3755.703	4533
3757.35	4501
3758.996	4499
3760.641	4455
3762.289	4406
3763.933	4513
3765.577	4493
3767.222	4535
3768.865	4530
3770.508	4519
3772.152	4516
3773.796	4412
3775.438	4423
3777.079	4368
3778.721	4400
3780.363	4344
3782.003	4333
3783.643	4439
3785.283	4418
3786.923	4412
3788.563	4386
3790.203	4445
3791.841	4457
3793.479	4283
3795.115	4370
3796.753	4441
3798.391	4385
3800.027	4337
3801.664	4430
3803.299	4345
3804.935	4426
3806.571	4293
3808.206	4344
3809.839	4389
3811.473	4315
3813.107	4293
3814.74	4317
3816.375	4365
3818.006	4291
3819.638	4341
3821.27	4394
3822.9	4334
3824.532	4324
3826.163	4310
3827.792	4310
3829.423	4339
3831.051	4306
3832.682	4370
3834.311	4290
3835.938	4201
3837.566	4344
3839.193	4294
3840.821	4250
3842.448	4289
3844.075	4279
3845.7	4247
3847.325	4237
3848.951	4293
3850.576	4215
3852.201	4346
3853.825	4182
3855.448	4192
3857.072	4365
3858.694	4248
3860.318	4253
3861.939	4246
3863.562	4318
3865.183	4220
3866.804	4185
3868.426	4267
3870.045	4176
3871.666	4213
3873.285	4213
3874.904	4246
3876.524	4236
3878.142	4220
3879.76	4207
3881.378	4207
3882.995	4232
3884.612	4227
3886.229	4189
3887.845	4248
3889.461	4225
3891.076	4192
3892.691	4228
3894.307	4252
3895.922	4183
3897.536	4223
3899.149	4219
3900.761	4252
3902.374	4180
3903.988	4085
3905.6	4178
3907.212	4134
3908.822	4181
3910.433	4172
3912.045	4181
3913.655	4177
3915.265	4135
3916.875	4196
3918.483	4153
3920.093	4211
3921.702	4151
3923.309	4132
3924.917	4174
3926.523	4103
3928.13	4113
3929.739	4140
3931.344	4183
3932.95	4182
3934.555	4163
3936.159	4146
3937.766	4065
3939.369	4106
3940.974	4181
3942.577	4083
3944.181	4095
3945.783	4129
3947.386	4138
3948.989	4158
3950.59	4023
3952.191	4088
3953.791	4128
3955.394	4185
3956.994	4085
3958.593	4026
3960.192	4038
3961.791	4101
3963.392	4071
3964.99	4084
3966.588	4113
3968.185	4078
3969.782	4060
3971.379	4047
3972.976	4115
3974.572	4025
3976.168	4118
3977.763	3958
3979.358	3977
3980.954	3982
3982.548	4110
3984.142	4111
3985.736	4040
3987.329	3915
3988.922	3958
3990.516	3980
3992.108	3945
3993.698	3921
3995.29	3872
3996.881	4028
3998.473	3925
4000.064	3926
4001.653	3919
4003.242	3996
4004.832	4043
4006.422	3984
4008.01	3967
4009.598	3928
4011.186	3953
4012.773	3834
4014.36	4021
4015.947	3922
4017.534	3983
4019.119	3921
4020.705	3929
4022.291	3838
4023.876	3924
4025.461	3836
4027.044	3976
4028.627	3828
4030.211	3902
4031.795	3814
4033.378	3843
4034.96	3866
4036.542	3830
4038.124	3838
4039.704	3911
4041.286	3855
4042.867	3862
4044.447	3885
4046.026	3800
4047.606	3795
4049.187	3809
4050.765	3850
4052.343	3832
4053.92	3903
4055.498	3796
4057.076	3839
4058.654	3878
4060.23	3828
4061.806	3866
4063.381	3789
4064.957	3823
4066.533	3797
4068.107	3782
4069.682	3803
4071.256	3847
4072.829	3821
4074.404	3776
4075.977	3758
4077.549	3743
4079.121	3825
4080.693	3784
4082.265	3747
4083.836	3782
4085.407	3744
4086.977	3781
4088.547	3776
4090.117	3756
4091.687	3755
4093.256	3851
4094.825	3690
4096.392	3804
4097.96	3743
4099.528	3723
4101.097	3735
4102.663	3761
4104.229	3755
4105.795	3711
4107.361	3744
4108.928	3666
4110.493	3700
4112.058	3710
4113.621	3673
4115.186	3735
4116.75	3678
4118.313	3690
4119.876	3712
4121.438	3761
4123	3643
4124.562	3654
4126.125	3719
4127.686	3697
4129.246	3611
4130.807	3704
4132.367	3648
4133.927	3682
4135.486	3629
4137.046	3661
4138.604	3592
4140.162	3584
4141.72	3625
4143.279	3659
4144.836	3671
4146.393	3640
4147.949	3657
4149.505	3583
4151.062	3612
4152.617	3664
4154.172	3634
4155.727	3685
4157.281	3564
4158.836	3568
4160.39	3611
4161.943	3589
4163.496	3610
4165.048	3609
4166.601	3582
4168.154	3643
4169.706	3662
4171.257	3627
4172.808	3552
4174.358	3517
4175.909	3570
4177.458	3525
4179.008	3542
4180.558	3545
4182.106	3574
4183.655	3613
4185.204	3551
4186.751	3522
4188.298	3481
4189.845	3509
4191.392	3538
4192.939	3487
4194.485	3474
4196.031	3430
4197.576	3506
4199.121	3384
4200.666	3469
4202.211	3473
4203.754	3507
4205.298	3411
4206.84	3536
4208.384	3420
4209.927	3470
4211.47	3475
4213.011	3517
4214.552	3504
4216.094	3450
4217.635	3453
4219.175	3449
4220.716	3389
4222.255	3377
4223.793	3480
4225.335	3430
4226.873	3454
4228.411	3409
4229.948	3419
4231.486	3445
4233.024	3439
4234.562	3374
4236.098	3400
4237.634	3348
4239.169	3515
4240.705	3419
4242.241	3456
4243.776	3415
4245.31	3456
4246.844	3527
4248.378	3356
4249.911	3429
4251.445	3411
4252.978	3391
4254.51	3361
4256.042	3367
4257.574	3417
4259.107	3437
4260.638	3331
4262.169	3359
4263.699	3440
4265.228	3407
4266.759	3397
4268.289	3332
4269.818	3413
4271.345	3404
4272.874	3342
4274.402	3379
4275.931	3395
4277.458	3426
4278.985	3348
4280.512	3365
4282.037	3373
4283.564	3367
4285.089	3429
4286.615	3334
4288.139	3334
4289.664	3390
4291.187	3375
4292.712	3310
4294.235	3317
4295.759	3300
4297.281	3330
4298.804	3314
4300.327	3242
4301.849	3335
4303.37	3285
4304.891	3237
4306.412	3325
4307.933	3294
4309.453	3300
4310.973	3286
4312.492	3272
