398.1873	3429
400.7097	3396
403.2336	3357
405.7547	3387
408.2751	3357
410.7948	3420
413.3138	3490
415.83	3482
418.3497	3525
420.8666	3589
423.3829	3493
425.8985	3449
428.4133	3554
430.9275	3537
433.441	3594
435.9538	3550
438.4639	3570
440.9753	3528
443.4881	3591
445.9982	3531
448.5055	3611
451.0142	3533
453.5201	3597
456.0274	3503
458.5361	3516
461.04	3562
463.5453	3587
466.0478	3606
468.5517	3611
471.0549	3596
473.5574	3528
476.0572	3605
478.5584	3607
481.0568	3617
483.5545	3643
486.0557	3733
488.5521	3614
491.0478	3603
493.5449	3605
496.0392	3671
498.5349	3618
501.0299	3683
503.5222	3758
506.0139	3719
508.5048	3756
510.9991	3701
513.4887	3711
515.9777	3682
518.4659	3660
520.9534	3673
523.4403	3794
525.9306	3805
528.4161	3784
530.9009	3699
533.3851	3759
535.8687	3720
538.3535	3837
540.8356	3723
543.3171	3738
545.7979	3726
548.278	3723
550.7595	3744
553.2383	3790
555.7144	3688
558.1918	3779
560.6685	3752
563.1446	3781
565.6221	3767
568.0968	3781
570.5688	3802
573.0422	3873
575.515	3887
577.989	3786
580.4584	3839
582.9291	3857
585.3991	3848
587.8685	3911
590.3352	3900
592.8052	3871
595.2706	3908
597.7372	3916
600.2033	3871
602.6666	3910
605.1334	3782
607.5953	3902
610.0587	3806
612.5193	3822
614.9814	3877
617.4427	3877
619.9034	3859
622.3615	3884
624.8208	3913
627.2775	3785
629.7335	3794
632.1929	3841
634.6476	3819
637.1016	3885
639.5569	3835
642.0096	3838
644.4637	3836
646.9151	3867
649.3678	3885
651.8179	3923
654.2672	3898
656.7159	3945
659.166	3823
661.6154	3942
664.0622	3928
666.5082	3969
668.9537	3911
671.4005	4004
673.8445	3937
676.288	4035
678.7308	3933
681.1729	3916
683.6163	3957
686.0572	3949
688.4973	3847
690.9368	3965
693.3757	3998
695.8138	4066
698.2534	4000
700.6902	3948
703.1245	4049
705.56	3948
707.9949	3985
710.4311	4050
712.8647	3952
715.2957	4097
717.7279	3970
720.1595	4037
722.5905	4044
725.0208	4048
727.4505	4123
729.8795	4061
732.3058	4129
734.7336	4050
737.1626	4177
739.587	4151
742.0128	4141
744.4359	4143
746.8604	4079
749.2841	4249
751.7073	4108
754.1278	4217
756.5496	4200
758.9688	4248
761.3893	4211
763.8093	4235
766.2285	4186
768.6451	4146
771.0611	4222
773.4784	4287
775.895	4185
778.3091	4247
780.7244	4277
783.1371	4237
785.5493	4238
787.9626	4246
790.3754	4358
792.7856	4233
795.1951	4316
797.6039	4199
800.0121	4244
802.4236	4293
804.8306	4217
807.2369	4307
809.6425	4258
812.0475	4296
814.4538	4336
816.8575	4269
819.2606	4290
821.663	4297
824.0648	4313
826.4659	4321
828.8683	4298
831.2682	4241
833.6674	4274
836.066	4365
838.4639	4249
840.8632	4290
843.2579	4390
845.6539	4338
848.0493	4337
850.444	4390
852.84	4309
855.2315	4473
857.6243	4395
860.0165	4394
862.4081	4349
864.797	4417
867.1892	4435
869.5789	4353
871.9659	4363
874.3542	4488
876.74	4427
879.129	4369
881.5155	4426
883.8994	4350
886.2845	4348
888.6671	4448
891.051	4337
893.4343	4407
895.8169	4373
898.197	4392
900.5783	4294
902.9571	4348
905.3372	4358
907.7167	4493
910.0936	4441
912.4698	4388
914.8474	4613
917.2244	4459
919.5987	4478
921.9744	4519
924.3475	4649
926.72	4496
929.0918	4509
931.4669	4583
933.8375	4597
936.2074	4471
938.5767	4620
940.9454	4617
943.3154	4683
945.6829	4791
948.0497	4712
950.4178	4879
952.7833	4920
955.1483	5057
957.5145	5166
959.8782	5362
962.2412	5349
964.6036	5162
966.9655	5141
969.3266	5030
971.6871	4830
974.0471	4616
976.4064	4580
978.765	4632
981.125	4540
983.4824	4578
985.8373	4586
988.1935	4449
990.549	4495
992.9039	4495
995.2602	4643
997.6119	4570
999.965	4600
1002.317	4476
1004.667	4491
1007.02	4619
1009.371	4435
1011.719	4569
1014.068	4532
1016.415	4483
1018.765	4610
1021.111	4466
1023.458	4593
1025.804	4550
1028.147	4616
1030.49	4573
1032.837	4562
1035.179	4598
1037.522	4598
1039.862	4535
1042.204	4632
1044.546	4471
1046.884	4582
1049.224	4564
1051.562	4476
1053.899	4591
1056.237	4630
1058.575	4654
1060.91	4653
1063.244	4722
1065.58	4694
1067.913	4798
1070.248	4661
1072.579	4766
1074.911	4638
1077.242	4681
1079.572	4627
1081.905	4640
1084.234	4597
1086.562	4585
1088.89	4633
1091.217	4623
1093.544	4593
1095.871	4604
1098.197	4587
1100.521	4719
1102.845	4694
1105.169	4646
1107.491	4659
1109.814	4683
1112.135	4620
1114.456	4569
1116.776	4725
1119.096	4654
1121.415	4753
1123.734	4669
1126.052	4700
1128.369	4680
1130.686	4680
1133.002	4645
1135.318	4668
1137.632	4610
1139.945	4715
1142.258	4664
1144.573	4644
1146.884	4672
1149.196	4729
1151.505	4794
1153.816	4662
1156.124	4713
1158.435	4659
1160.742	4634
1163.051	4664
1165.356	4659
1167.663	4615
1169.97	4630
1172.276	4768
1174.579	4731
1176.881	4696
1179.186	4580
1181.487	4659
1183.79	4664
1186.092	4643
1188.392	4682
1190.691	4756
1192.991	4683
1195.291	4723
1197.588	4772
1199.885	4657
1202.181	4732
1204.479	4735
1206.775	4713
1209.07	4693
1211.363	4685
1213.656	4657
1215.949	4679
1218.241	4717
1220.534	4660
1222.825	4739
1225.115	4703
1227.405	4798
1229.693	4880
1231.984	4829
1234.271	4801
1236.558	4842
1238.845	4858
1241.131	4871
1243.416	4829
1245.703	4870
1247.987	4834
1250.269	4811
1252.552	4846
1254.834	4753
1257.118	4905
1259.399	4823
1261.678	4888
1263.958	4860
1266.237	4903
1268.516	4847
1270.794	4865
1273.072	4884
1275.347	4898
1277.624	4925
1279.899	4910
1282.175	4850
1284.449	4817
1286.722	4826
1288.995	4748
1291.266	4862
1293.54	4833
1295.81	4846
1298.081	4811
1300.35	4833
1302.62	4760
1304.889	4795
1307.156	4815
1309.425	4772
1311.69	4793
1313.957	4730
1316.222	4834
1318.488	4823
1320.751	4709
1323.016	4813
1325.278	4805
1327.54	4865
1329.803	4745
1332.065	4808
1334.325	4774
1336.584	4876
1338.843	4940
1341.101	4825
1343.36	4964
1345.617	4854
1347.876	4749
1350.131	4706
1352.387	4893
1354.643	4841
1356.897	4839
1359.151	4872
1361.403	4863
1363.656	4825
1365.909	4899
1368.16	4833
1370.409	4872
1372.659	4846
1374.909	4902
1377.157	4880
1379.407	4881
1381.655	4916
1383.9	4792
1386.147	4847
1388.393	4834
1390.64	4879
1392.885	4944
1395.127	5038
1397.37	4959
1399.614	4935
1401.854	5014
1404.098	4922
1406.339	5025
1408.578	4983
1410.818	4965
1413.056	5001
1415.297	4992
1417.533	4975
1419.771	4881
1422.006	4960
1424.243	4966
1426.479	5016
1428.715	4931
1430.948	5070
1433.182	5051
1435.414	5128
1437.647	5067
1439.88	5066
1442.11	4979
1444.342	5105
1446.571	5060
1448.799	5035
1451.029	5076
1453.258	5041
1455.485	5087
1457.711	5064
1459.937	5131
1462.164	5075
1464.39	5048
1466.614	5055
1468.838	5000
1471.06	5004
1473.283	4882
1475.506	4982
1477.727	5047
1479.949	4958
1482.169	5112
1484.389	4903
1486.609	4980
1488.828	4843
1491.045	4839
1493.261	4903
1495.477	4885
1497.693	4918
1499.91	4993
1502.125	4886
1504.339	4829
1506.553	4883
1508.766	4806
1510.979	4918
1513.191	4955
1515.402	4902
1517.613	4864
1519.823	4842
1522.033	4836
1524.242	4905
1526.451	4876
1528.657	4827
1530.865	4873
1533.072	4986
1535.278	4875
1537.484	4955
1539.687	4847
1541.892	4958
1544.096	4928
1546.299	4882
1548.502	4893
1550.703	4961
1552.905	4995
1555.104	4924
1557.303	5003
1559.505	5004
1561.703	5002
1563.902	4931
1566.099	4921
1568.295	5048
1570.494	4930
1572.689	4947
1574.883	5002
1577.079	5108
1579.272	4957
1581.467	5062
1583.659	5146
1585.853	5012
1588.044	5039
1590.234	5107
1592.424	5075
1594.615	5189
1596.806	4998
1598.994	5133
1601.182	5093
1603.369	5119
1605.557	5146
1607.744	5066
1609.929	5159
1612.114	5044
1614.298	5168
1616.482	5116
1618.667	5054
1620.85	5184
1623.032	5085
1625.214	5083
1627.395	5092
1629.575	5087
1631.755	5109
1633.935	5125
1636.114	5119
1638.292	5046
1640.471	5134
1642.647	5116
1644.823	5092
1647	5074
1649.175	5266
1651.348	5187
1653.525	5128
1655.698	5189
1657.87	5291
1660.043	5073
1662.213	5221
1664.387	5060
1666.558	5196
1668.727	5254
1670.896	5235
1673.064	5253
1675.233	5156
1677.401	5185
1679.569	5194
1681.735	5199
1683.902	5274
1686.066	5299
1688.233	5289
1690.397	5117
1692.559	5191
1694.723	5032
1696.885	5123
1699.048	5116
1701.21	5132
1703.37	5134
1705.53	5064
1707.689	5243
1709.849	5153
1712.009	5146
1714.166	5057
1716.323	5148
1718.479	5234
1720.634	5021
1722.793	5106
1724.948	5078
1727.102	5123
1729.255	5131
1731.408	5170
1733.562	5103
1735.714	5099
1737.865	5146
1740.016	5115
1742.166	5109
1744.316	5141
1746.467	5177
1748.616	5249
1750.764	5191
1752.911	5269
1755.056	5203
1757.205	5052
1759.35	5135
1761.496	5211
1763.641	5265
1765.785	5217
1767.927	5182
1770.072	5247
1772.214	5224
1774.355	5197
1776.496	5237
1778.637	5145
1780.778	5265
1782.918	5120
1785.057	5170
1787.194	5208
1789.333	5255
1791.472	5209
1793.608	5265
1795.745	5221
1797.879	5196
1800.015	5259
1802.148	5253
1804.284	5153
1806.417	5104
1808.548	5225
1810.682	5214
1812.812	5297
1814.946	5190
1817.075	5072
1819.205	5211
1821.335	5224
1823.463	5273
1825.59	5172
1827.721	5206
1829.847	5125
1831.973	5399
1834.098	5159
1836.223	5123
1838.351	5148
1840.475	5116
1842.598	5170
1844.721	5115
1846.843	5206
1848.966	5047
1851.087	5196
1853.21	5183
1855.33	5228
1857.449	5043
1859.568	5197
1861.688	5254
1863.806	5185
1865.924	5157
1868.039	5193
1870.155	5123
1872.273	5234
1874.388	5207
1876.503	5111
1878.617	5148
1880.73	5225
1882.844	5248
1884.956	5161
1887.068	5307
1889.18	5336
1891.291	5185
1893.4	5135
1895.511	5215
1897.621	5144
1899.73	5242
1901.837	5238
1903.944	5203
1906.053	5267
1908.159	5301
1910.265	5353
1912.369	5205
1914.474	5231
1916.577	5290
1918.683	5211
1920.785	5349
1922.888	5272
1924.989	5291
1927.091	5321
1929.193	5382
1931.294	5292
1933.393	5402
1935.493	5349
1937.59	5291
1939.689	5303
1941.788	5298
1943.884	5219
1945.98	5244
1948.077	5313
1950.171	5265
1952.267	5364
1954.361	5302
1956.455	5319
1958.548	5368
1960.64	5240
1962.733	5225
1964.824	5350
1966.915	5394
1969.005	5371
1971.096	5312
1973.185	5304
1975.275	5268
1977.363	5263
1979.45	5233
1981.537	5274
1983.623	5316
1985.711	5219
1987.796	5255
1989.881	5234
1991.965	5342
1994.047	5129
1996.132	5253
1998.215	5241
2000.297	5274
2002.378	5271
2004.46	5314
2006.54	5244
2008.62	5377
2010.7	5236
2012.779	5334
2014.858	5261
2016.934	5200
2019.013	5241
2021.09	5396
2023.165	5254
2025.241	5223
2027.317	5340
2029.39	5277
2031.466	5368
2033.538	5292
2035.612	5277
2037.683	5269
2039.755	5175
2041.827	5293
2043.898	5302
2045.968	5219
2048.038	5207
2050.106	5267
2052.177	5240
2054.244	5278
2056.313	5356
2058.379	5293
2060.444	5327
2062.511	5353
2064.577	5363
2066.641	5311
2068.705	5244
2070.77	5312
2072.832	5291
2074.896	5188
2076.958	5183
2079.02	5285
2081.081	5220
2083.141	5300
2085.2	5320
2087.261	5347
2089.319	5364
2091.377	5243
2093.435	5346
2095.492	5305
2097.552	5297
2099.607	5247
2101.663	5323
2103.718	5348
2105.771	5361
2107.826	5307
2109.879	5286
2111.932	5257
2113.985	5255
2116.037	5287
2118.088	5337
2120.141	5308
2122.191	5354
2124.239	5310
2126.288	5354
2128.337	5308
2130.387	5227
2132.434	5313
2134.481	5303
2136.528	5312
2138.574	5430
2140.618	5289
2142.665	5219
2144.71	5335
2146.753	5392
2148.797	5356
2150.838	5426
2152.883	5388
2154.923	5402
2156.965	5261
2159.007	5231
2161.046	5322
2163.086	5300
2165.126	5360
2167.163	5219
2169.202	5224
2171.239	5266
2173.277	5216
2175.314	5215
2177.349	5186
2179.385	5201
2181.42	5343
2183.453	5214
2185.49	5232
2187.522	5194
2189.555	5214
2191.586	5262
2193.619	5314
2195.651	5289
2197.682	5188
2199.711	5188
2201.74	5225
2203.769	5286
2205.799	5186
2207.828	5218
2209.855	5192
2211.882	5250
2213.908	5151
2215.934	5246
2217.961	5187
2219.986	5367
2222.01	5088
2224.034	5274
2226.057	5179
2228.08	5193
2230.104	5100
2232.124	5239
2234.145	5211
2236.166	5265
2238.186	5246
2240.207	5198
2242.227	5266
2244.244	5279
2246.262	5242
2248.28	5228
2250.299	5229
2252.314	5114
2254.33	5204
2256.346	5231
2258.36	5252
2260.375	5271
2262.391	5204
2264.403	5268
2266.416	5167
2268.427	5297
2270.44	5219
2272.453	5253
2274.463	5176
2276.474	5327
2278.483	5280
2280.493	5295
2282.501	5254
2284.51	5225
2286.518	5305
2288.524	5240
2290.532	5330
2292.537	5234
2294.544	5181
2296.55	5184
2298.554	5335
2300.557	5262
2302.562	5166
2304.566	5293
2306.568	5294
2308.569	5204
2310.572	5218
2312.573	5130
2314.573	5189
2316.574	5198
2318.573	5128
2320.571	5294
2322.571	5220
2324.569	5162
2326.567	5250
2328.564	5188
2330.56	5197
2332.556	5331
2334.551	5113
2336.546	5148
2338.542	5160
2340.535	5180
2342.529	5242
2344.521	5196
2346.512	5112
2348.505	5128
2350.497	5243
2352.487	5226
2354.478	5217
2356.468	5256
2358.457	5172
2360.446	5162
2362.434	5200
2364.422	5193
2366.408	5093
2368.395	5109
2370.383	5169
2372.369	5114
2374.353	5163
2376.338	5237
2378.321	5141
2380.307	5177
2382.29	5193
2384.272	5152
2386.254	5136
2388.235	5124
2390.218	5149
2392.198	5080
2394.179	5178
2396.157	5132
2398.137	5220
2400.115	5068
2402.095	5102
2404.072	5146
2406.048	5156
2408.026	5084
2410.001	5097
2411.977	5145
2413.953	5096
2415.927	5101
2417.9	5043
2419.875	5010
2421.847	5141
2423.821	5116
2425.792	5071
2427.763	5208
2429.736	5057
2431.706	5138
2433.677	5123
2435.646	5173
2437.615	5163
2439.583	5137
2441.551	5121
2443.519	5168
2445.486	5142
2447.452	5084
2449.418	5071
2451.383	5134
2453.348	5166
2455.314	5082
2457.278	5087
2459.241	5132
2461.205	5116
2463.167	5075
2465.131	5107
2467.091	5132
2469.052	5062
2471.012	5138
2472.972	5074
2474.932	5065
2476.891	5210
2478.85	5158
2480.808	5014
2482.766	5076
2484.722	5003
2486.68	5010
2488.636	5006
2490.591	5021
2492.546	5108
2494.5	5020
2496.456	4984
2498.41	5039
2500.362	5057
2502.315	5005
2504.266	5039
2506.218	5075
2508.169	5089
2510.121	5106
2512.07	4929
2514.019	4992
2515.968	5124
2517.918	5071
2519.866	5081
2521.813	5058
2523.76	5094
2525.707	5126
2527.653	5054
2529.599	4975
2531.543	5102
2533.489	4992
2535.433	5107
2537.376	4947
2539.32	5038
2541.264	5080
2543.205	4978
2545.147	5125
2547.087	4971
2549.029	5103
2550.969	5038
2552.908	5016
2554.847	5073
2556.786	5102
2558.724	5043
2560.663	5060
2562.6	5027
2564.537	5121
2566.473	5058
2568.408	5108
2570.345	5092
2572.28	5136
2574.214	5093
2576.148	5057
2578.081	5091
2580.014	5023
2581.947	5052
2583.879	5142
2585.81	5061
2587.741	5110
2589.67	5045
2591.602	5027
2593.532	5144
2595.461	5076
2597.388	5121
2599.316	5143
2601.244	5145
2603.172	5084
2605.098	5179
2607.023	5055
2608.949	5080
2610.873	5085
2612.8	5108
2614.723	5108
2616.647	4966
2618.569	5136
2620.493	5089
2622.416	5044
2624.338	5062
2626.258	5077
2628.179	5127
2630.099	5145
2632.019	5116
2633.939	5073
2635.857	4996
2637.775	5093
2639.694	5154
2641.61	5164
2643.528	5070
2645.444	5134
2647.361	5103
2649.276	5144
2651.19	5107
2653.105	5079
2655.019	5123
2656.934	5093
2658.846	5110
2660.758	5081
2662.67	5030
2664.583	4952
2666.493	5111
2668.404	5124
2670.313	5093
2672.223	5036
2674.134	5127
2676.042	5032
2677.95	5041
2679.858	5019
2681.765	5142
2683.673	4990
2685.579	5071
2687.483	5123
2689.389	5039
2691.294	5011
2693.198	5107
2695.104	5088
2697.006	5008
2698.909	5016
2700.811	5074
2702.713	5012
2704.615	5117
2706.516	5103
2708.417	5041
2710.316	5068
2712.216	5050
2714.115	5066
2716.014	5032
2717.913	5097
2719.81	5067
2721.707	5070
2723.603	4983
2725.501	5082
2727.396	5043
2729.292	5109
2731.186	5031
2733.081	4956
2734.976	5020
2736.87	5064
2738.762	5061
2740.653	5090
2742.546	5028
2744.437	4992
2746.329	5006
2748.22	4910
2750.11	4991
2751.999	5096
2753.889	4978
2755.778	5004
2757.666	4949
2759.553	5059
2761.44	4977
2763.328	5041
2765.215	5101
2767.101	4961
2768.986	5000
2770.87	4969
2772.754	5050
2774.638	4961
2776.523	4879
2778.405	5017
2780.288	5008
2782.17	5062
2784.051	4973
2785.934	4925
2787.814	5012
2789.694	5003
2791.574	4995
2793.453	4982
2795.332	5016
2797.212	5056
2799.088	5025
2800.966	5118
2802.843	4925
2804.719	5002
2806.597	4948
2808.471	4930
2810.346	4982
2812.221	4962
2814.094	4981
2815.969	4863
2817.843	4944
2819.714	4918
2821.587	4946
2823.459	4872
2825.329	4873
2827.202	5005
2829.072	4972
2830.942	4937
2832.811	4937
2834.68	5006
2836.549	5049
2838.418	4937
2840.284	4886
2842.152	5084
2844.018	5020
2845.885	4974
2847.751	5011
2849.616	4964
2851.482	5028
2853.345	5014
2855.208	4925
2857.074	5066
2858.937	5024
2860.799	4947
2862.66	5030
2864.522	5038
2866.385	5133
2868.245	5058
2870.104	5072
2871.964	5156
2873.824	5168
2875.683	5163
2877.542	5219
2879.4	5215
2881.257	5242
2883.114	5187
2884.97	5272
2886.827	5263
2888.683	5184
2890.537	5318
2892.392	5292
2894.246	5232
2896.1	5178
2897.954	5223
2899.807	5248
2901.66	5191
2903.51	5162
2905.362	5268
2907.214	5248
2909.065	5199
2910.915	5355
2912.765	5352
2914.613	5347
2916.463	5335
2918.311	5339
2920.158	5465
2922.006	5446
2923.853	5401
2925.698	5447
2927.546	5535
2929.392	5492
2931.236	5503
2933.081	5542
2934.924	5546
2936.77	5575
2938.613	5521
2940.455	5699
2942.298	5694
2944.139	5628
2945.982	5676
2947.823	5601
2949.662	5613
2951.503	5659
2953.342	5539
2955.182	5636
2957.021	5575
2958.858	5553
2960.697	5593
2962.534	5486
2964.37	5508
2966.207	5489
2968.044	5402
2969.879	5461
2971.714	5346
2973.548	5322
2975.383	5261
2977.218	5320
2979.051	5330
2980.883	5222
2982.715	5220
2984.547	5274
2986.379	5231
2988.21	5194
2990.04	5181
2991.87	5099
2993.7	5053
2995.53	5088
2997.359	5155
2999.187	5177
3001.015	5086
3002.842	5059
3004.669	5052
3006.497	5057
3008.323	5005
3010.148	4901
3011.974	4927
3013.797	4871
3015.623	4971
3017.447	4832
3019.27	4861
3021.094	4841
3022.915	4865
3024.737	4800
3026.56	4884
3028.38	4916
3030.201	4862
3032.022	4906
3033.84	4718
3035.662	4831
3037.481	4865
3039.298	4887
3041.117	4767
3042.933	4841
3044.752	4758
3046.568	4779
3048.385	4829
3050.2	4785
3052.016	4790
3053.83	4720
3055.646	4764
3057.46	4720
3059.272	4900
3061.086	4769
3062.898	4742
3064.711	4728
3066.524	4695
3068.335	4779
3070.145	4781
3071.956	4761
3073.766	4659
3075.576	4719
3077.385	4732
3079.193	4672
3081.002	4781
3082.81	4607
3084.618	4763
3086.425	4627
3088.231	4740
3090.036	4710
3091.842	4745
3093.648	4591
3095.452	4682
3097.257	4614
3099.06	4729
3100.863	4748
3102.666	4744
3104.47	4578
3106.272	4641
3108.073	4643
3109.875	4591
3111.676	4631
3113.477	4662
3115.277	4682
3117.077	4626
3118.874	4689
3120.673	4701
3122.473	4554
3124.271	4587
3126.066	4500
3127.863	4580
3129.66	4632
3131.456	4685
3133.252	4574
3135.047	4490
3136.842	4654
3138.635	4546
3140.429	4668
3142.223	4600
3144.016	4535
3145.808	4539
3147.6	4489
3149.392	4669
3151.183	4521
3152.975	4573
3154.765	4581
3156.553	4586
3158.344	4526
3160.132	4515
3161.922	4593
3163.71	4479
3165.497	4577
3167.285	4524
3169.071	4520
3170.858	4507
3172.645	4501
3174.429	4504
3176.214	4526
3177.998	4526
3179.783	4521
3181.568	4577
3183.351	4508
3185.133	4465
3186.915	4480
3188.698	4511
3190.481	4531
3192.261	4490
3194.042	4506
3195.822	4490
3197.601	4513
3199.381	4421
3201.161	4472
3202.939	4524
3204.717	4388
3206.495	4491
3208.272	4543
3210.05	4469
3211.826	4477
3213.602	4472
3215.376	4559
3217.151	4420
3218.927	4509
3220.702	4567
3222.476	4512
3224.249	4421
3226.021	4358
3227.793	4331
3229.567	4540
3231.339	4445
3233.109	4391
3234.88	4394
3236.651	4379
3238.421	4547
3240.191	4430
3241.96	4551
3243.728	4485
3245.497	4541
3247.263	4489
3249.033	4474
3250.799	4349
3252.566	4489
3254.331	4496
3256.097	4525
3257.863	4389
3259.628	4464
3261.392	4576
3263.156	4586
3264.919	4415
3266.683	4451
3268.447	4381
3270.208	4376
3271.969	4522
3273.731	4448
3275.492	4528
3277.253	4485
3279.013	4467
3280.773	4422
3282.532	4453
3284.291	4461
3286.05	4493
3287.808	4496
3289.566	4478
3291.323	4479
3293.079	4437
3294.835	4449
3296.593	4399
3298.348	4540
3300.102	4427
3301.857	4419
3303.611	4558
3305.366	4399
3307.119	4401
3308.872	4438
3310.624	4526
3312.376	4378
3314.129	4504
3315.881	4469
3317.631	4507
3319.38	4466
3321.13	4505
3322.88	4449
3324.631	4494
3326.379	4450
3328.126	4497
3329.875	4530
3331.622	4445
3333.371	4419
3335.116	4423
3336.863	4382
3338.609	4457
3340.353	4416
3342.1	4372
3343.845	4392
3345.588	4409
3347.332	4422
3349.074	4366
3350.817	4386
3352.56	4492
3354.303	4411
3356.043	4365
3357.785	4427
3359.525	4328
3361.268	4352
3363.007	4428
3364.745	4367
3366.485	4425
3368.223	4439
3369.962	4362
3371.701	4365
3373.438	4413
3375.174	4322
3376.911	4359
3378.647	4282
3380.384	4403
3382.118	4424
3383.854	4346
3385.588	4358
3387.322	4258
3389.057	4370
3390.79	4337
3392.522	4383
3394.255	4343
3395.987	4241
3397.719	4317
3399.451	4283
3401.181	4273
3402.911	4308
3404.641	4300
3406.371	4301
3408.101	4319
3409.83	4264
3411.558	4335
3413.285	4377
3415.011	4307
3416.739	4347
3418.467	4311
3420.193	4374
3421.919	4304
3423.644	4223
3425.368	4269
3427.094	4273
3428.818	4200
3430.542	4262
3432.264	4269
3433.987	4216
3435.712	4233
3437.434	4306
3439.155	4215
3440.876	4214
3442.596	4277
3444.317	4228
3446.039	4260
3447.757	4172
3449.477	4272
3451.195	4198
3452.914	4229
3454.632	4215
3456.35	4151
3458.067	4121
3459.784	4202
3461.5	4293
3463.216	4152
3464.932	4176
3466.647	4194
3468.362	4217
3470.076	4188
3471.789	4188
3473.505	4288
3475.217	4129
3476.929	4190
3478.641	4147
3480.354	4123
3482.066	4102
3483.777	4201
3485.487	4180
3487.197	4168
3488.908	4048
3490.617	4161
3492.327	4191
3494.035	4165
3495.743	4040
3497.451	4149
3499.158	4122
3500.866	4093
3502.572	4066
3504.278	4112
3505.984	4189
3507.689	4078
3509.396	4069
3511.1	4155
3512.804	4074
3514.508	4089
3516.211	4090
3517.913	4073
3519.616	4076
3521.319	4050
3523.021	4047
3524.722	4017
3526.422	4045
3528.124	4060
3529.824	4109
3531.524	4037
3533.222	4073
3534.921	4080
3536.62	4014
3538.318	4004
3540.016	4071
3541.714	3987
3543.41	4022
3545.107	4013
3546.803	3936
3548.5	3993
3550.194	4006
3551.889	3966
3553.583	4077
3555.279	3999
3556.972	4027
3558.666	3959
3560.358	4005
3562.051	3988
3563.742	4010
3565.435	3920
3567.126	3980
3568.817	3937
3570.507	3959
3572.197	3882
3573.888	3926
3575.577	3994
3577.265	3908
3578.954	3925
3580.642	4032
3582.329	3952
3584.017	4053
3585.704	3913
3587.391	3984
3589.077	4012
3590.762	3928
3592.449	3954
3594.133	3905
3595.817	4038
3597.501	3980
3599.185	3893
3600.869	3861
3602.552	3857
3604.234	3924
3605.916	3851
3607.598	3874
3609.279	3784
3610.961	3959
3612.642	3843
3614.321	3837
3616	3835
3617.68	3836
3619.36	3862
3621.039	3815
3622.716	3795
3624.394	3785
3626.071	3842
3627.748	3845
3629.425	3788
3631.102	3889
3632.778	3750
3634.452	3793
3636.127	3807
3637.803	3728
3639.477	3803
3641.151	3800
3642.823	3837
3644.497	3786
3646.171	3714
3647.842	3805
3649.515	3802
3651.185	3721
3652.857	3770
3654.527	3768
3656.198	3757
3657.868	3738
3659.537	3837
3661.207	3702
3662.875	3845
3664.544	3650
3666.212	3784
3667.879	3749
3669.546	3742
3671.212	3740
3672.88	3789
3674.546	3768
3676.211	3776
3677.875	3684
3679.541	3765
3681.205	3683
3682.87	3724
3684.533	3755
3686.196	3711
3687.859	3642
3689.521	3812
3691.184	3813
3692.845	3748
3694.507	3742
3696.167	3711
3697.827	3696
3699.487	3734
3701.148	3711
3702.808	3738
3704.466	3685
3706.125	3793
3707.783	3756
3709.442	3720
3711.099	3684
3712.757	3720
3714.412	3734
3716.068	3681
3717.725	3726
3719.381	3695
3721.036	3689
3722.689	3644
3724.344	3723
3725.998	3670
3727.652	3660
3729.305	3679
3730.958	3638
3732.61	3661
3734.262	3671
3735.915	3680
3737.565	3704
3739.217	3700
3740.866	3679
3742.516	3655
3744.165	3674
3745.816	3620
3747.464	3638
3749.113	3606
3750.761	3624
3752.409	3644
3754.057	3668
3755.703	3633
3757.35	3678
3758.996	3545
3760.641	3729
3762.289	3562
3763.933	3637
3765.577	3588
3767.222	3572
3768.865	3540
3770.508	3606
3772.152	3620
3773.796	3673
3775.438	3654
3777.079	3627
3778.721	3577
3780.363	3606
3782.003	3619
3783.643	3615
3785.283	3555
3786.923	3551
3788.563	3625
3790.203	3567
3791.841	3565
3793.479	3527
3795.115	3568
3796.753	3509
3798.391	3647
3800.027	3495
3801.664	3548
3803.299	3605
3804.935	3594
3806.571	3513
3808.206	3553
3809.839	3580
3811.473	3587
3813.107	3563
3814.74	3577
3816.375	3559
3818.006	3484
3819.638	3512
3821.27	3510
3822.9	3500
3824.532	3533
3826.163	3537
3827.792	3547
3829.423	3447
3831.051	3544
3832.682	3529
3834.311	3494
3835.938	3507
3837.566	3451
3839.193	3464
3840.821	3540
3842.448	3474
3844.075	3429
3845.7	3423
3847.325	3476
3848.951	3410
3850.576	3466
3852.201	3430
3853.825	3494
3855.448	3456
3857.072	3420
3858.694	3433
3860.318	3464
3861.939	3474
3863.562	3496
3865.183	3446
3866.804	3436
3868.426	3403
3870.045	3495
3871.666	3431
3873.285	3410
3874.904	3468
3876.524	3376
3878.142	3473
3879.76	3451
3881.378	3363
3882.995	3458
3884.612	3367
3886.229	3383
3887.845	3461
3889.461	3518
3891.076	3379
3892.691	3375
3894.307	3393
3895.922	3442
3897.536	3409
3899.149	3392
3900.761	3382
3902.374	3366
3903.988	3382
3905.6	3382
3907.212	3356
3908.822	3405
3910.433	3356
3912.045	3332
3913.655	3381
3915.265	3331
3916.875	3404
3918.483	3414
3920.093	3493
3921.702	3370
3923.309	3376
3924.917	3352
3926.523	3275
3928.13	3407
3929.739	3312
3931.344	3335
3932.95	3405
3934.555	3395
3936.159	3341
3937.766	3403
3939.369	3331
3940.974	3278
3942.577	3334
3944.181	3327
3945.783	3302
3947.386	3356
3948.989	3332
3950.59	3319
3952.191	3349
3953.791	3280
3955.394	3332
3956.994	3352
3958.593	3249
3960.192	3303
3961.791	3300
3963.392	3293
3964.99	3263
3966.588	3315
3968.185	3293
3969.782	3236
3971.379	3320
3972.976	3275
3974.572	3313
3976.168	3297
3977.763	3262
3979.358	3299
3980.954	3273
3982.548	3292
3984.142	3280
3985.736	3241
3987.329	3255
3988.922	3260
3990.516	3265
3992.108	3179
3993.698	3254
3995.29	3269
3996.881	3275
3998.473	3188
4000.064	3254
4001.653	3250
4003.242	3237
4004.832	3205
4006.422	3175
4008.01	3226
4009.598	3263
4011.186	3230
4012.773	3277
4014.36	3210
4015.947	3179
4017.534	3239
4019.119	3213
4020.705	3221
4022.291	3163
4023.876	3244
4025.461	3149
4027.044	3220
4028.627	3228
4030.211	3179
4031.795	3141
4033.378	3162
4034.96	3153
4036.542	3103
4038.124	3112
4039.704	3125
4041.286	3110
4042.867	3168
4044.447	3095
4046.026	3145
4047.606	3083
4049.187	3131
4050.765	3058
4052.343	3066
4053.92	3158
4055.498	3088
4057.076	3129
4058.654	3163
4060.23	3073
4061.806	3035
4063.381	3087
4064.957	3116
4066.533	3052
4068.107	3189
4069.682	3156
4071.256	3037
4072.829	3091
4074.404	3098
4075.977	3068
4077.549	3083
4079.121	3128
4080.693	3076
4082.265	3101
4083.836	3124
4085.407	3094
4086.977	3043
4088.547	3144
4090.117	3082
4091.687	3101
4093.256	3062
4094.825	3032
4096.392	3086
4097.96	3066
4099.528	3095
4101.097	3098
4102.663	2960
4104.229	3059
4105.795	3062
4107.361	2989
4108.928	3091
4110.493	3050
4112.058	3021
4113.621	3086
4115.186	3108
4116.75	3036
4118.313	3026
4119.876	3052
4121.438	3062
4123	2980
4124.562	2938
4126.125	3080
4127.686	3028
4129.246	3009
4130.807	2988
4132.367	3055
4133.927	3017
4135.486	2972
4137.046	2929
4138.604	2925
4140.162	2968
4141.72	2985
4143.279	2939
4144.836	2931
4146.393	2975
4147.949	2960
4149.505	3022
4151.062	2945
4152.617	2975
4154.172	2966
4155.727	2878
4157.281	2933
4158.836	2933
4160.39	2983
4161.943	2944
4163.496	2932
4165.048	2853
4166.601	2935
4168.154	2943
4169.706	2980
4171.257	2946
4172.808	2898
4174.358	2970
4175.909	2931
4177.458	2947
4179.008	2946
4180.558	2870
4182.106	2893
4183.655	2933
4185.204	2891
4186.751	2890
4188.298	2890
4189.845	2852
4191.392	2898
4192.939	2873
4194.485	2852
4196.031	2864
4197.576	2857
4199.121	2854
4200.666	2837
4202.211	2851
4203.754	2866
4205.298	2820
4206.84	2881
4208.384	2927
4209.927	2848
4211.47	2897
4213.011	2833
4214.552	2896
4216.094	2839
4217.635	2847
4219.175	2791
4220.716	2842
4222.255	2863
4223.793	2821
4225.335	2789
4226.873	2844
4228.411	2855
4229.948	2819
4231.486	2836
4233.024	2806
4234.562	2873
4236.098	2866
4237.634	2887
4239.169	2820
4240.705	2795
4242.241	2759
4243.776	2789
4245.31	2786
4246.844	2834
4248.378	2878
4249.911	2828
4251.445	2751
4252.978	2760
4254.51	2782
4256.042	2785
4257.574	2801
4259.107	2744
4260.638	2734
4262.169	2798
4263.699	2883
4265.228	2726
4266.759	2826
4268.289	2743
4269.818	2760
4271.345	2797
4272.874	2736
4274.402	2760
4275.931	2802
4277.458	2774
4278.985	2810
4280.512	2754
4282.037	2770
4283.564	2765
4285.089	2717
4286.615	2725
4288.139	2718
4289.664	2752
4291.187	2741
4292.712	2821
4294.235	2761
4295.759	2794
4297.281	2732
4298.804	2692
4300.327	2760
4301.849	2747
4303.37	2705
4304.891	2714
4306.412	2692
4307.933	2735
4309.453	2710
4310.973	2716
4312.492	2710
