398.1873	5028
400.7097	5138
403.2336	5112
405.7547	5112
408.2751	5161
410.7948	5105
413.3138	5185
415.83	5211
418.3497	5213
420.8666	5224
423.3829	5252
425.8985	5286
428.4133	5326
430.9275	5334
433.441	5350
435.9538	5283
438.4639	5342
440.9753	5489
443.4881	5429
445.9982	5514
448.5055	5395
451.0142	5442
453.5201	5429
456.0274	5408
458.5361	5456
461.04	5443
463.5453	5546
466.0478	5473
468.5517	5463
471.0549	5383
473.5574	5508
476.0572	5493
478.5584	5477
481.0568	5461
483.5545	5619
486.0557	5552
488.5521	5508
491.0478	5625
493.5449	5736
496.0392	5623
498.5349	5702
501.0299	5671
503.5222	5694
506.0139	5702
508.5048	5696
510.9991	5603
513.4887	5573
515.9777	5700
518.4659	5777
520.9534	5636
523.4403	5703
525.9306	5660
528.4161	5732
530.9009	5718
533.3851	5675
535.8687	5742
538.3535	5733
540.8356	5671
543.3171	5729
545.7979	5713
548.278	5709
550.7595	5787
553.2383	5722
555.7144	5784
558.1918	5771
560.6685	5709
563.1446	5677
565.6221	5756
568.0968	5861
570.5688	5880
573.0422	5756
575.515	5842
577.989	5845
580.4584	5795
582.9291	5846
585.3991	5909
587.8685	5961
590.3352	5855
592.8052	5976
595.2706	5946
597.7372	5903
600.2033	5891
602.6666	5849
605.1334	5867
607.5953	5963
610.0587	5920
612.5193	5984
614.9814	5966
617.4427	5947
619.9034	5843
622.3615	5849
624.8208	5865
627.2775	5998
629.7335	5940
632.1929	5872
634.6476	5859
637.1016	6009
639.5569	5909
642.0096	6056
644.4637	5980
646.9151	5984
649.3678	5935
651.8179	6082
654.2672	6139
656.7159	6004
659.166	5999
661.6154	6021
664.0622	6122
666.5082	6077
668.9537	6036
671.4005	6092
673.8445	6105
676.288	6155
678.7308	6146
681.1729	6203
683.6163	6073
686.0572	6188
688.4973	6095
690.9368	6080
693.3757	6229
695.8138	6193
698.2534	6194
700.6902	6189
703.1245	6106
705.56	6146
707.9949	6261
710.4311	6253
712.8647	6270
715.2957	6186
717.7279	6235
720.1595	6193
722.5905	6308
725.0208	6358
727.4505	6283
729.8795	6250
732.3058	6322
734.7336	6393
737.1626	6357
739.587	6349
742.0128	6518
744.4359	6438
746.8604	6433
749.2841	6355
751.7073	6362
754.1278	6522
756.5496	6457
758.9688	6514
761.3893	6516
763.8093	6527
766.2285	6645
768.6451	6639
771.0611	6685
773.4784	6543
775.895	6575
778.3091	6567
780.7244	6617
783.1371	6517
785.5493	6557
787.9626	6501
790.3754	6601
792.7856	6653
795.1951	6591
797.6039	6676
800.0121	6489
802.4236	6640
804.8306	6618
807.2369	6574
809.6425	6667
812.0475	6602
814.4538	6672
816.8575	6600
819.2606	6706
821.663	6625
824.0648	6695
826.4659	6711
828.8683	6719
831.2682	6511
833.6674	6578
836.066	6708
838.4639	6684
840.8632	6741
843.2579	6798
845.6539	6781
848.0493	6727
850.444	6738
852.84	6662
855.2315	6726
857.6243	6796
860.0165	6696
862.4081	6729
864.797	6767
867.1892	6769
869.5789	6785
871.9659	6720
874.3542	6708
876.74	6675
879.129	6744
881.5155	6713
883.8994	6781
886.2845	6722
888.6671	6672
891.051	6636
893.4343	6684
895.8169	6786
898.197	6806
900.5783	6724
902.9571	6709
905.3372	6770
907.7167	6667
910.0936	6733
912.4698	6807
914.8474	6782
917.2244	6772
919.5987	6931
921.9744	6921
924.3475	6914
926.72	6950
929.0918	7036
931.4669	6935
933.8375	6970
936.2074	6988
938.5767	7081
940.9454	7015
943.3154	7070
945.6829	7095
948.0497	7183
950.4178	7264
952.7833	7442
955.1483	7437
957.5145	7572
959.8782	7696
962.2412	7604
964.6036	7521
966.9655	7476
969.3266	7284
971.6871	7157
974.0471	7193
976.4064	6931
978.765	7050
981.125	6962
983.4824	6893
985.8373	6903
988.1935	6887
990.549	7015
992.9039	6948
995.2602	7003
997.6119	6944
999.965	6946
1002.317	6987
1004.667	6777
1007.02	6969
1009.371	7027
1011.719	7032
1014.068	6934
1016.415	7082
1018.765	7005
1021.111	6910
1023.458	6946
1025.804	7063
1028.147	7031
1030.49	6979
1032.837	7082
1035.179	6964
1037.522	7075
1039.862	7031
1042.204	7137
1044.546	7146
1046.884	7121
1049.224	6978
1051.562	7100
1053.899	7131
1056.237	7093
1058.575	7083
1060.91	7174
1063.244	7068
1065.58	7187
1067.913	7110
1070.248	7161
1072.579	7216
1074.911	7269
1077.242	7198
1079.572	7029
1081.905	7182
1084.234	7218
1086.562	7272
1088.89	7147
1091.217	7076
1093.544	7085
1095.871	7104
1098.197	7087
1100.521	7085
1102.845	7241
1105.169	7212
1107.491	7125
1109.814	7068
1112.135	7220
1114.456	7184
1116.776	7233
1119.096	7183
1121.415	7179
1123.734	7351
1126.052	7272
1128.369	7359
1130.686	7211
1133.002	7198
1135.318	7256
1137.632	7201
1139.945	7219
1142.258	7243
1144.573	7179
1146.884	7149
1149.196	7223
1151.505	7291
1153.816	7225
1156.124	7276
1158.435	7235
1160.742	7215
1163.051	7229
1165.356	7327
1167.663	7291
1169.97	7282
1172.276	7196
1174.579	7197
1176.881	7396
1179.186	7328
1181.487	7268
1183.79	7228
1186.092	7259
1188.392	7178
1190.691	7113
1192.991	7237
1195.291	7227
1197.588	7237
1199.885	7136
1202.181	7384
1204.479	7214
1206.775	7309
1209.07	7326
1211.363	7255
1213.656	7191
1215.949	7257
1218.241	7338
1220.534	7353
1222.825	7416
1225.115	7396
1227.405	7298
1229.693	7317
1231.984	7315
1234.271	7429
1236.558	7446
1238.845	7337
1241.131	7387
1243.416	7539
1245.703	7379
1247.987	7444
1250.269	7394
1252.552	7404
1254.834	7539
1257.118	7360
1259.399	7513
1261.678	7551
1263.958	7566
1266.237	7461
1268.516	7436
1270.794	7479
1273.072	7509
1275.347	7586
1277.624	7377
1279.899	7387
1282.175	7493
1284.449	7397
1286.722	7315
1288.995	7344
1291.266	7332
1293.54	7430
1295.81	7376
1298.081	7416
1300.35	7434
1302.62	7375
1304.889	7437
1307.156	7484
1309.425	7428
1311.69	7412
1313.957	7362
1316.222	7446
1318.488	7497
1320.751	7350
1323.016	7495
1325.278	7458
1327.54	7453
1329.803	7347
1332.065	7545
1334.325	7548
1336.584	7411
1338.843	7440
1341.101	7380
1343.36	7418
1345.617	7494
1347.876	7598
1350.131	7494
1352.387	7473
1354.643	7464
1356.897	7457
1359.151	7465
1361.403	7430
1363.656	7480
1365.909	7532
1368.16	7463
1370.409	7466
1372.659	7354
1374.909	7407
1377.157	7514
1379.407	7471
1381.655	7554
1383.9	7641
1386.147	7456
1388.393	7538
1390.64	7526
1392.885	7561
1395.127	7571
1397.37	7583
1399.614	7578
1401.854	7560
1404.098	7560
1406.339	7646
1408.578	7506
1410.818	7685
1413.056	7593
1415.297	7642
1417.533	7567
1419.771	7641
1422.006	7741
1424.243	7755
1426.479	7546
1428.715	7719
1430.948	7592
1433.182	7608
1435.414	7735
1437.647	7570
1439.88	7859
1442.11	7736
1444.342	7746
1446.571	7768
1448.799	7801
1451.029	7816
1453.258	7671
1455.485	7793
1457.711	7757
1459.937	7690
1462.164	7803
1464.39	7639
1466.614	7633
1468.838	7674
1471.06	7646
1473.283	7737
1475.506	7587
1477.727	7621
1479.949	7618
1482.169	7682
1484.389	7532
1486.609	7619
1488.828	7645
1491.045	7508
1493.261	7533
1495.477	7491
1497.693	7536
1499.91	7583
1502.125	7601
1504.339	7610
1506.553	7786
1508.766	7415
1510.979	7666
1513.191	7554
1515.402	7475
1517.613	7617
1519.823	7452
1522.033	7714
1524.242	7575
1526.451	7485
1528.657	7583
1530.865	7577
1533.072	7628
1535.278	7636
1537.484	7651
1539.687	7591
1541.892	7683
1544.096	7609
1546.299	7560
1548.502	7645
1550.703	7629
1552.905	7652
1555.104	7715
1557.303	7730
1559.505	7630
1561.703	7742
1563.902	7676
1566.099	7692
1568.295	7934
1570.494	7639
1572.689	7734
1574.883	7721
1577.079	7862
1579.272	7783
1581.467	7818
1583.659	7767
1585.853	7807
1588.044	7858
1590.234	7914
1592.424	7916
1594.615	7827
1596.806	7825
1598.994	7776
1601.182	7799
1603.369	7874
1605.557	7721
1607.744	7802
1609.929	7905
1612.114	7977
1614.298	7800
1616.482	7831
1618.667	7767
1620.85	7794
1623.032	7893
1625.214	7833
1627.395	7785
1629.575	7815
1631.755	7997
1633.935	7917
1636.114	7901
1638.292	7859
1640.471	7867
1642.647	7888
1644.823	7886
1647	7909
1649.175	8035
1651.348	7911
1653.525	7916
1655.698	7884
1657.87	7857
1660.043	7872
1662.213	7947
1664.387	7724
1666.558	7977
1668.727	7925
1670.896	7912
1673.064	7956
1675.233	8033
1677.401	7839
1679.569	8008
1681.735	7940
1683.902	7857
1686.066	7767
1688.233	7909
1690.397	7967
1692.559	7823
1694.723	7941
1696.885	7888
1699.048	7804
1701.21	7892
1703.37	7802
1705.53	7894
1707.689	7866
1709.849	7812
1712.009	7970
1714.166	7950
1716.323	7746
1718.479	7928
1720.634	7775
1722.793	7913
1724.948	7895
1727.102	8014
1729.255	7916
1731.408	7699
1733.562	7824
1735.714	7985
1737.865	7883
1740.016	7911
1742.166	7852
1744.316	7992
1746.467	7755
1748.616	7940
1750.764	7805
1752.911	7888
1755.056	7868
1757.205	7821
1759.35	8009
1761.496	7870
1763.641	8056
1765.785	7960
1767.927	7956
1770.072	7987
1772.214	8026
1774.355	7871
1776.496	7966
1778.637	8000
1780.778	7974
1782.918	7974
1785.057	7961
1787.194	7951
1789.333	8095
1791.472	7995
1793.608	8093
1795.745	7896
1797.879	7841
1800.015	7881
1802.148	8007
1804.284	7929
1806.417	7982
1808.548	7962
1810.682	7990
1812.812	8053
1814.946	7915
1817.075	8006
1819.205	7890
1821.335	7894
1823.463	8026
1825.59	8019
1827.721	7858
1829.847	7901
1831.973	7989
1834.098	7968
1836.223	7863
1838.351	7965
1840.475	7891
1842.598	7942
1844.721	8071
1846.843	8019
1848.966	7881
1851.087	7927
1853.21	7710
1855.33	8027
1857.449	7789
1859.568	7999
1861.688	7971
1863.806	7863
1865.924	7977
1868.039	7931
1870.155	8018
1872.273	7942
1874.388	7976
1876.503	7922
1878.617	7866
1880.73	7946
1882.844	7881
1884.956	8110
1887.068	7930
1889.18	7994
1891.291	8025
1893.4	7879
1895.511	7885
1897.621	8050
1899.73	7880
1901.837	7923
1903.944	7964
1906.053	8017
1908.159	8056
1910.265	8164
1912.369	8039
1914.474	7984
1916.577	8069
1918.683	8181
1920.785	8046
1922.888	8040
1924.989	8097
1927.091	8092
1929.193	7964
1931.294	8166
1933.393	8131
1935.493	7997
1937.59	8061
1939.689	8014
1941.788	8105
1943.884	8036
1945.98	8057
1948.077	8182
1950.171	8182
1952.267	8088
1954.361	8153
1956.455	8055
1958.548	8056
1960.64	8046
1962.733	8096
1964.824	8131
1966.915	8049
1969.005	8095
1971.096	7964
1973.185	7953
1975.275	7952
1977.363	8187
1979.45	8158
1981.537	8135
1983.623	8040
1985.711	8063
1987.796	8114
1989.881	7904
1991.965	8135
1994.047	8034
1996.132	7937
1998.215	7940
2000.297	8108
2002.378	8035
2004.46	7983
2006.54	8120
2008.62	7960
2010.7	7947
2012.779	8065
2014.858	7877
2016.934	8007
2019.013	8003
2021.09	8017
2023.165	8087
2025.241	8153
2027.317	8020
2029.39	8016
2031.466	7924
2033.538	8037
2035.612	8025
2037.683	8035
2039.755	7932
2041.827	8063
2043.898	8010
2045.968	8101
2048.038	8114
2050.106	8065
2052.177	8065
2054.244	8022
2056.313	8092
2058.379	8115
2060.444	8109
2062.511	7924
2064.577	7904
2066.641	8062
2068.705	8010
2070.77	7977
2072.832	8005
2074.896	7958
2076.958	8114
2079.02	8108
2081.081	8092
2083.141	8112
2085.2	8166
2087.261	8086
2089.319	8062
2091.377	7963
2093.435	8268
2095.492	7984
2097.552	7952
2099.607	7987
2101.663	8171
2103.718	8008
2105.771	8120
2107.826	7928
2109.879	8047
2111.932	8001
2113.985	7972
2116.037	8020
2118.088	7937
2120.141	8121
2122.191	7990
2124.239	8074
2126.288	7974
2128.337	8006
2130.387	7959
2132.434	8071
2134.481	8003
2136.528	8020
2138.574	8092
2140.618	8096
2142.665	8118
2144.71	8074
2146.753	8132
2148.797	8010
2150.838	8102
2152.883	8129
2154.923	8059
2156.965	8078
2159.007	7905
2161.046	8087
2163.086	7971
2165.126	7973
2167.163	7996
2169.202	8068
2171.239	7994
2173.277	8037
2175.314	7911
2177.349	7878
2179.385	7895
2181.42	7984
2183.453	7999
2185.49	7863
2187.522	7832
2189.555	7840
2191.586	7805
2193.619	7812
2195.651	8047
2197.682	7995
2199.711	7937
2201.74	7923
2203.769	7917
2205.799	7929
2207.828	7765
2209.855	7856
2211.882	7809
2213.908	7869
2215.934	7916
2217.961	7893
2219.986	7792
2222.01	7738
2224.034	7841
2226.057	7857
2228.08	7835
2230.104	7843
2232.124	7943
2234.145	7807
2236.166	7837
2238.186	7790
2240.207	7708
2242.227	7930
2244.244	7830
2246.262	7794
2248.28	7955
2250.299	7861
2252.314	7912
2254.33	8014
2256.346	7883
2258.36	7787
2260.375	7901
2262.391	7871
2264.403	7917
2266.416	7822
2268.427	7789
2270.44	7845
2272.453	7807
2274.463	7944
2276.474	7861
2278.483	7806
2280.493	7951
2282.501	7906
2284.51	7722
2286.518	7921
2288.524	7813
2290.532	7850
2292.537	7912
2294.544	7926
2296.55	7793
2298.554	7876
2300.557	7883
2302.562	7793
2304.566	7783
2306.568	7831
2308.569	7809
2310.572	7887
2312.573	7872
2314.573	7792
2316.574	7816
2318.573	7896
2320.571	7730
2322.571	7746
2324.569	7751
2326.567	7974
2328.564	7752
2330.56	7649
2332.556	7910
2334.551	7804
2336.546	7741
2338.542	7709
2340.535	7772
2342.529	7668
2344.521	7804
2346.512	7728
2348.505	7790
2350.497	7666
2352.487	7675
2354.478	7813
2356.468	7764
2358.457	7808
2360.446	7719
2362.434	7753
2364.422	7642
2366.408	7717
2368.395	7783
2370.383	7657
2372.369	7636
2374.353	7721
2376.338	7604
2378.321	7639
2380.307	7658
2382.29	7624
2384.272	7692
2386.254	7772
2388.235	7772
2390.218	7583
2392.198	7557
2394.179	7727
2396.157	7700
2398.137	7668
2400.115	7588
2402.095	7626
2404.072	7553
2406.048	7621
2408.026	7785
2410.001	7658
2411.977	7458
2413.953	7692
2415.927	7593
2417.9	7684
2419.875	7607
2421.847	7586
2423.821	7568
2425.792	7712
2427.763	7607
2429.736	7656
2431.706	7691
2433.677	7547
2435.646	7680
2437.615	7631
2439.583	7648
2441.551	7619
2443.519	7557
2445.486	7559
2447.452	7698
2449.418	7569
2451.383	7639
2453.348	7715
2455.314	7647
2457.278	7562
2459.241	7721
2461.205	7479
2463.167	7580
2465.131	7614
2467.091	7684
2469.052	7394
2471.012	7570
2472.972	7495
2474.932	7446
2476.891	7495
2478.85	7598
2480.808	7534
2482.766	7600
2484.722	7542
2486.68	7546
2488.636	7549
2490.591	7512
2492.546	7578
2494.5	7481
2496.456	7540
2498.41	7510
2500.362	7473
2502.315	7439
2504.266	7535
2506.218	7494
2508.169	7572
2510.121	7577
2512.07	7414
2514.019	7435
2515.968	7550
2517.918	7452
2519.866	7404
2521.813	7364
2523.76	7449
2525.707	7442
2527.653	7533
2529.599	7471
2531.543	7568
2533.489	7431
2535.433	7553
2537.376	7526
2539.32	7512
2541.264	7488
2543.205	7574
2545.147	7402
2547.087	7438
2549.029	7601
2550.969	7524
2552.908	7456
2554.847	7482
2556.786	7543
2558.724	7481
2560.663	7397
2562.6	7486
2564.537	7374
2566.473	7550
2568.408	7465
2570.345	7506
2572.28	7457
2574.214	7484
2576.148	7502
2578.081	7364
2580.014	7422
2581.947	7357
2583.879	7517
2585.81	7415
2587.741	7479
2589.67	7424
2591.602	7407
2593.532	7487
2595.461	7559
2597.388	7588
2599.316	7453
2601.244	7446
2603.172	7491
2605.098	7479
2607.023	7571
2608.949	7508
2610.873	7465
2612.8	7512
2614.723	7511
2616.647	7468
2618.569	7502
2620.493	7367
2622.416	7553
2624.338	7523
2626.258	7500
2628.179	7434
2630.099	7410
2632.019	7436
2633.939	7422
2635.857	7316
2637.775	7507
2639.694	7454
2641.61	7575
2643.528	7567
2645.444	7449
2647.361	7557
2649.276	7478
2651.19	7552
2653.105	7376
2655.019	7372
2656.934	7502
2658.846	7606
2660.758	7521
2662.67	7392
2664.583	7493
2666.493	7500
2668.404	7431
2670.313	7371
2672.223	7478
2674.134	7541
2676.042	7520
2677.95	7474
2679.858	7409
2681.765	7533
2683.673	7372
2685.579	7404
2687.483	7392
2689.389	7461
2691.294	7341
2693.198	7359
2695.104	7335
2697.006	7511
2698.909	7336
2700.811	7411
2702.713	7377
2704.615	7509
2706.516	7264
2708.417	7387
2710.316	7297
2712.216	7419
2714.115	7330
2716.014	7314
2717.913	7410
2719.81	7384
2721.707	7295
2723.603	7347
2725.501	7390
2727.396	7346
2729.292	7314
2731.186	7341
2733.081	7399
2734.976	7354
2736.87	7369
2738.762	7260
2740.653	7246
2742.546	7308
2744.437	7320
2746.329	7469
2748.22	7258
2750.11	7374
2751.999	7224
2753.889	7270
2755.778	7244
2757.666	7138
2759.553	7342
2761.44	7343
2763.328	7233
2765.215	7323
2767.101	7304
2768.986	7273
2770.87	7344
2772.754	7279
2774.638	7179
2776.523	7213
2778.405	7266
2780.288	7249
2782.17	7241
2784.051	7369
2785.934	7231
2787.814	7295
2789.694	7226
2791.574	7285
2793.453	7294
2795.332	7313
2797.212	7412
2799.088	7209
2800.966	7215
2802.843	7236
2804.719	7295
2806.597	7191
2808.471	7236
2810.346	7152
2812.221	7224
2814.094	7214
2815.969	7289
2817.843	7120
2819.714	7373
2821.587	7282
2823.459	7253
2825.329	7266
2827.202	7190
2829.072	7143
2830.942	7228
2832.811	7172
2834.68	7223
2836.549	7226
2838.418	7090
2840.284	7144
2842.152	7259
2844.018	7209
2845.885	7105
2847.751	7135
2849.616	7196
2851.482	7154
2853.345	7149
2855.208	7286
2857.074	7195
2858.937	7179
2860.799	7321
2862.66	7229
2864.522	7307
2866.385	7225
2868.245	7221
2870.104	7419
2871.964	7221
2873.824	7275
2875.683	7199
2877.542	7330
2879.4	7328
2881.257	7312
2883.114	7436
2884.97	7405
2886.827	7295
2888.683	7393
2890.537	7469
2892.392	7510
2894.246	7377
2896.1	7429
2897.954	7444
2899.807	7346
2901.66	7309
2903.51	7299
2905.362	7354
2907.214	7345
2909.065	7467
2910.915	7384
2912.765	7243
2914.613	7430
2916.463	7365
2918.311	7413
2920.158	7399
2922.006	7558
2923.853	7476
2925.698	7605
2927.546	7552
2929.392	7482
2931.236	7636
2933.081	7609
2934.924	7507
2936.77	7466
2938.613	7629
2940.455	7749
2942.298	7662
2944.139	7545
2945.982	7813
2947.823	7690
2949.662	7679
2951.503	7556
2953.342	7487
2955.182	7538
2957.021	7620
2958.858	7615
2960.697	7605
2962.534	7487
2964.37	7583
2966.207	7457
2968.044	7414
2969.879	7316
2971.714	7332
2973.548	7409
2975.383	7345
2977.218	7308
2979.051	7385
2980.883	7219
2982.715	7306
2984.547	7242
2986.379	7300
2988.21	7180
2990.04	7119
2991.87	7232
2993.7	7166
2995.53	7271
2997.359	7030
2999.187	6977
3001.015	7064
3002.842	7133
3004.669	6989
3006.497	6968
3008.323	6942
3010.148	7022
3011.974	7037
3013.797	6926
3015.623	7063
3017.447	6937
3019.27	6859
3021.094	6943
3022.915	7035
3024.737	6902
3026.56	6889
3028.38	6731
3030.201	6865
3032.022	6811
3033.84	6797
3035.662	6852
3037.481	6829
3039.298	6717
3041.117	6890
3042.933	6871
3044.752	6748
3046.568	6833
3048.385	6857
3050.2	6943
3052.016	6945
3053.83	6832
3055.646	6833
3057.46	6714
3059.272	6793
3061.086	6814
3062.898	6802
3064.711	6759
3066.524	6814
3068.335	6841
3070.145	6855
3071.956	6912
3073.766	6724
3075.576	6733
3077.385	6802
3079.193	6667
3081.002	6595
3082.81	6625
3084.618	6766
3086.425	6731
3088.231	6682
3090.036	6601
3091.842	6715
3093.648	6613
3095.452	6578
3097.257	6684
3099.06	6635
3100.863	6593
3102.666	6681
3104.47	6667
3106.272	6667
3108.073	6685
3109.875	6698
3111.676	6644
3113.477	6564
3115.277	6578
3117.077	6475
3118.874	6506
3120.673	6595
3122.473	6513
3124.271	6582
3126.066	6493
3127.863	6508
3129.66	6574
3131.456	6495
3133.252	6550
3135.047	6505
3136.842	6638
3138.635	6419
3140.429	6538
3142.223	6551
3144.016	6528
3145.808	6518
3147.6	6548
3149.392	6403
3151.183	6500
3152.975	6355
3154.765	6490
3156.553	6529
3158.344	6525
3160.132	6433
3161.922	6419
3163.71	6394
3165.497	6428
3167.285	6457
3169.071	6401
3170.858	6333
3172.645	6457
3174.429	6520
3176.214	6374
3177.998	6428
3179.783	6412
3181.568	6333
3183.351	6318
3185.133	6358
3186.915	6411
3188.698	6400
3190.481	6276
3192.261	6362
3194.042	6324
3195.822	6351
3197.601	6328
3199.381	6307
3201.161	6428
3202.939	6334
3204.717	6356
3206.495	6305
3208.272	6273
3210.05	6318
3211.826	6357
3213.602	6337
3215.376	6321
3217.151	6412
3218.927	6198
3220.702	6273
3222.476	6380
3224.249	6200
3226.021	6204
3227.793	6200
3229.567	6284
3231.339	6280
3233.109	6218
3234.88	6289
3236.651	6270
3238.421	6230
3240.191	6365
3241.96	6306
3243.728	6336
3245.497	6371
3247.263	6208
3249.033	6254
3250.799	6232
3252.566	6297
3254.331	6323
3256.097	6412
3257.863	6243
3259.628	6304
3261.392	6269
3263.156	6275
3264.919	6290
3266.683	6202
3268.447	6218
3270.208	6308
3271.969	6275
3273.731	6238
3275.492	6273
3277.253	6164
3279.013	6322
3280.773	6168
3282.532	6201
3284.291	6240
3286.05	6280
3287.808	6162
3289.566	6267
3291.323	6314
3293.079	6274
3294.835	6200
3296.593	6235
3298.348	6199
3300.102	6191
3301.857	6199
3303.611	6171
3305.366	6158
3307.119	6178
3308.872	6206
3310.624	6211
3312.376	6161
3314.129	6181
3315.881	6189
3317.631	6099
3319.38	6216
3321.13	6160
3322.88	6179
3324.631	6210
3326.379	6193
3328.126	6233
3329.875	6257
3331.622	6084
3333.371	6154
3335.116	6071
3336.863	6180
3338.609	6168
3340.353	6084
3342.1	6044
3343.845	6225
3345.588	6047
3347.332	6142
3349.074	6156
3350.817	6102
3352.56	6032
3354.303	6126
3356.043	6103
3357.785	6064
3359.525	6201
3361.268	6033
3363.007	6105
3364.745	6008
3366.485	6123
3368.223	6126
3369.962	6033
3371.701	6155
3373.438	6068
3375.174	6082
3376.911	6084
3378.647	6056
3380.384	6057
3382.118	6071
3383.854	6046
3385.588	6047
3387.322	6033
3389.057	6024
3390.79	5931
3392.522	6093
3394.255	6041
3395.987	6098
3397.719	6100
3399.451	5959
3401.181	5951
3402.911	5939
3404.641	5958
3406.371	6017
3408.101	6031
3409.83	6024
3411.558	6124
3413.285	6025
3415.011	5934
3416.739	5936
3418.467	5822
3420.193	5968
3421.919	5871
3423.644	5945
3425.368	5892
3427.094	5918
3428.818	5915
3430.542	5925
3432.264	5983
3433.987	5872
3435.712	5895
3437.434	5865
3439.155	5937
3440.876	5839
3442.596	5803
3444.317	5837
3446.039	5922
3447.757	5934
3449.477	5807
3451.195	5894
3452.914	5835
3454.632	5845
3456.35	5759
3458.067	5799
3459.784	5801
3461.5	5771
3463.216	5764
3464.932	5855
3466.647	5814
3468.362	5803
3470.076	5844
3471.789	5827
3473.505	5729
3475.217	5699
3476.929	5759
3478.641	5723
3480.354	5671
3482.066	5796
3483.777	5783
3485.487	5753
3487.197	5736
3488.908	5531
3490.617	5870
3492.327	5644
3494.035	5819
3495.743	5774
3497.451	5692
3499.158	5715
3500.866	5699
3502.572	5734
3504.278	5768
3505.984	5689
3507.689	5651
3509.396	5660
3511.1	5560
3512.804	5717
3514.508	5677
3516.211	5651
3517.913	5670
3519.616	5659
3521.319	5765
3523.021	5543
3524.722	5657
3526.422	5563
3528.124	5654
3529.824	5707
3531.524	5657
3533.222	5616
3534.921	5629
3536.62	5698
3538.318	5668
3540.016	5574
3541.714	5693
3543.41	5619
3545.107	5514
3546.803	5617
3548.5	5533
3550.194	5484
3551.889	5599
3553.583	5688
3555.279	5511
3556.972	5553
3558.666	5508
3560.358	5557
3562.051	5516
3563.742	5638
3565.435	5577
3567.126	5613
3568.817	5576
3570.507	5529
3572.197	5599
3573.888	5485
3575.577	5458
3577.265	5439
3578.954	5603
3580.642	5590
3582.329	5535
3584.017	5513
3585.704	5471
3587.391	5487
3589.077	5531
3590.762	5437
3592.449	5490
3594.133	5433
3595.817	5504
3597.501	5485
3599.185	5399
3600.869	5493
3602.552	5367
3604.234	5364
3605.916	5333
3607.598	5484
3609.279	5383
3610.961	5315
3612.642	5463
3614.321	5373
3616	5411
3617.68	5298
3619.36	5418
3621.039	5355
3622.716	5377
3624.394	5362
3626.071	5373
3627.748	5360
3629.425	5394
3631.102	5315
3632.778	5345
3634.452	5304
3636.127	5319
3637.803	5343
3639.477	5292
3641.151	5264
3642.823	5270
3644.497	5341
3646.171	5345
3647.842	5273
3649.515	5236
3651.185	5230
3652.857	5380
3654.527	5247
3656.198	5359
3657.868	5258
3659.537	5226
3661.207	5140
3662.875	5219
3664.544	5269
3666.212	5258
3667.879	5186
3669.546	5219
3671.212	5188
3672.88	5162
3674.546	5201
3676.211	5163
3677.875	5210
3679.541	5149
3681.205	5135
3682.87	5077
3684.533	5164
3686.196	5232
3687.859	5229
3689.521	5170
3691.184	5150
3692.845	5156
3694.507	5207
3696.167	5219
3697.827	5118
3699.487	5216
3701.148	5084
3702.808	5165
3704.466	5183
3706.125	5215
3707.783	5174
3709.442	5112
3711.099	5158
3712.757	5164
3714.412	5095
3716.068	5105
3717.725	5098
3719.381	5218
3721.036	5088
3722.689	5156
3724.344	5100
3725.998	5150
3727.652	5125
3729.305	5136
3730.958	5102
3732.61	5049
3734.262	5137
3735.915	5084
3737.565	5047
3739.217	5112
3740.866	5137
3742.516	5134
3744.165	4933
3745.816	4960
3747.464	5008
3749.113	4986
3750.761	5036
3752.409	5008
3754.057	4928
3755.703	5082
3757.35	5014
3758.996	5063
3760.641	4998
3762.289	4957
3763.933	4937
3765.577	4930
3767.222	4973
3768.865	5078
3770.508	4959
3772.152	4988
3773.796	4891
3775.438	4866
3777.079	4911
3778.721	4860
3780.363	4857
3782.003	5050
3783.643	4934
3785.283	4978
3786.923	4969
3788.563	4992
3790.203	5043
3791.841	4922
3793.479	4920
3795.115	4873
3796.753	4979
3798.391	4933
3800.027	4926
3801.664	4866
3803.299	4970
3804.935	4872
3806.571	4874
3808.206	4889
3809.839	4829
3811.473	4916
3813.107	4924
3814.74	4884
3816.375	4792
3818.006	4883
3819.638	4779
3821.27	4762
3822.9	4868
3824.532	4726
3826.163	4757
3827.792	4860
3829.423	4868
3831.051	4840
3832.682	4812
3834.311	4819
3835.938	4755
3837.566	4755
3839.193	4807
3840.821	4782
3842.448	4715
3844.075	4800
3845.7	4773
3847.325	4751
3848.951	4802
3850.576	4670
3852.201	4798
3853.825	4697
3855.448	4836
3857.072	4713
3858.694	4718
3860.318	4818
3861.939	4693
3863.562	4796
3865.183	4693
3866.804	4632
3868.426	4699
3870.045	4827
3871.666	4670
3873.285	4737
3874.904	4664
3876.524	4576
3878.142	4657
3879.76	4788
3881.378	4769
3882.995	4716
3884.612	4623
3886.229	4788
3887.845	4712
3889.461	4758
3891.076	4651
3892.691	4612
3894.307	4615
3895.922	4655
3897.536	4793
3899.149	4758
3900.761	4628
3902.374	4661
3903.988	4669
3905.6	4688
3907.212	4561
3908.822	4551
3910.433	4653
3912.045	4614
3913.655	4618
3915.265	4685
3916.875	4689
3918.483	4665
3920.093	4667
3921.702	4637
3923.309	4628
3924.917	4657
3926.523	4557
3928.13	4565
3929.739	4611
3931.344	4565
3932.95	4556
3934.555	4616
3936.159	4448
3937.766	4601
3939.369	4497
3940.974	4567
3942.577	4543
3944.181	4556
3945.783	4534
3947.386	4566
3948.989	4524
3950.59	4538
3952.191	4580
3953.791	4539
3955.394	4532
3956.994	4549
3958.593	4588
3960.192	4452
3961.791	4529
3963.392	4488
3964.99	4538
3966.588	4463
3968.185	4544
3969.782	4420
3971.379	4548
3972.976	4497
3974.572	4452
3976.168	4452
3977.763	4482
3979.358	4449
3980.954	4401
3982.548	4466
3984.142	4350
3985.736	4482
3987.329	4431
3988.922	4492
3990.516	4387
3992.108	4405
3993.698	4439
3995.29	4422
3996.881	4374
3998.473	4358
4000.064	4376
4001.653	4403
4003.242	4446
4004.832	4434
4006.422	4441
4008.01	4378
4009.598	4355
4011.186	4326
4012.773	4302
4014.36	4468
4015.947	4285
4017.534	4347
4019.119	4322
4020.705	4273
4022.291	4241
4023.876	4340
4025.461	4309
4027.044	4307
4028.627	4275
4030.211	4365
4031.795	4224
4033.378	4286
4034.96	4311
4036.542	4194
4038.124	4326
4039.704	4297
4041.286	4169
4042.867	4302
4044.447	4134
4046.026	4199
4047.606	4263
4049.187	4309
4050.765	4168
4052.343	4228
4053.92	4273
4055.498	4200
4057.076	4172
4058.654	4285
4060.23	4253
4061.806	4243
4063.381	4244
4064.957	4255
4066.533	4253
4068.107	4246
4069.682	4173
4071.256	4173
4072.829	4133
4074.404	4182
4075.977	4181
4077.549	4146
4079.121	4136
4080.693	4110
4082.265	4148
4083.836	4123
4085.407	4307
4086.977	4174
4088.547	4124
4090.117	4200
4091.687	4067
4093.256	4184
4094.825	4131
4096.392	4127
4097.96	4256
4099.528	4178
4101.097	4110
4102.663	4073
4104.229	4064
4105.795	4114
4107.361	4136
4108.928	4106
4110.493	4122
4112.058	4080
4113.621	4106
4115.186	4075
4116.75	4040
4118.313	4141
4119.876	4007
4121.438	4056
4123	4067
4124.562	4123
4126.125	3957
4127.686	4056
4129.246	4023
4130.807	4037
4132.367	4044
4133.927	4121
4135.486	3995
4137.046	4035
4138.604	3994
4140.162	3961
4141.72	4019
4143.279	3976
4144.836	3960
4146.393	4002
4147.949	3986
4149.505	3989
4151.062	4067
4152.617	3907
4154.172	3876
4155.727	4048
4157.281	3940
4158.836	3983
4160.39	3968
4161.943	3893
4163.496	3961
4165.048	3950
4166.601	3954
4168.154	3958
4169.706	3974
4171.257	3916
4172.808	3940
4174.358	3887
4175.909	3864
4177.458	3917
4179.008	3814
4180.558	3877
4182.106	3935
4183.655	3897
4185.204	3850
4186.751	3897
4188.298	3918
4189.845	3897
4191.392	3827
4192.939	3811
4194.485	3879
4196.031	3973
4197.576	3878
4199.121	3881
4200.666	3801
4202.211	3816
4203.754	3908
4205.298	3814
4206.84	3720
4208.384	3787
4209.927	3822
4211.47	3807
4213.011	3752
4214.552	3767
4216.094	3828
4217.635	3831
4219.175	3797
4220.716	3808
4222.255	3774
4223.793	3806
4225.335	3740
4226.873	3723
4228.411	3905
4229.948	3799
4231.486	3784
4233.024	3758
4234.562	3818
4236.098	3791
4237.634	3786
4239.169	3758
4240.705	3757
4242.241	3813
4243.776	3715
4245.31	3789
4246.844	3712
4248.378	3722
4249.911	3746
4251.445	3795
4252.978	3747
4254.51	3718
4256.042	3715
4257.574	3687
4259.107	3671
4260.638	3697
4262.169	3736
4263.699	3781
4265.228	3738
4266.759	3681
4268.289	3699
4269.818	3624
4271.345	3742
4272.874	3722
4274.402	3815
4275.931	3640
4277.458	3716
4278.985	3674
4280.512	3771
4282.037	3696
4283.564	3663
4285.089	3621
4286.615	3592
4288.139	3798
4289.664	3655
4291.187	3661
4292.712	3621
4294.235	3598
4295.759	3621
4297.281	3601
4298.804	3527
4300.327	3719
4301.849	3640
4303.37	3616
4304.891	3661
4306.412	3623
4307.933	3591
4309.453	3640
4310.973	3537
4312.492	3607
