398.1873	4596
400.7097	4618
403.2336	4618
405.7547	4599
408.2751	4720
410.7948	4660
413.3138	4664
415.83	4742
418.3497	4904
420.8666	4821
423.3829	4808
425.8985	4979
428.4133	4907
430.9275	4884
433.441	5012
435.9538	4953
438.4639	4890
440.9753	4870
443.4881	5018
445.9982	4952
448.5055	4919
451.0142	4940
453.5201	4933
456.0274	4987
458.5361	4984
461.04	4944
463.5453	4878
466.0478	4910
468.5517	4954
471.0549	4930
473.5574	5112
476.0572	4926
478.5584	4969
481.0568	4882
483.5545	4925
486.0557	5014
488.5521	4991
491.0478	5046
493.5449	5011
496.0392	5007
498.5349	5029
501.0299	5213
503.5222	5123
506.0139	5069
508.5048	5123
510.9991	5064
513.4887	5067
515.9777	5038
518.4659	5066
520.9534	5074
523.4403	5044
525.9306	5203
528.4161	5092
530.9009	5153
533.3851	5099
535.8687	5237
538.3535	5118
540.8356	5111
543.3171	5137
545.7979	5145
548.278	5052
550.7595	5125
553.2383	5148
555.7144	5188
558.1918	5113
560.6685	5210
563.1446	5199
565.6221	5242
568.0968	5201
570.5688	5297
573.0422	5322
575.515	5366
577.989	5280
580.4584	5356
582.9291	5278
585.3991	5451
587.8685	5461
590.3352	5386
592.8052	5392
595.2706	5324
597.7372	5381
600.2033	5301
602.6666	5389
605.1334	5181
607.5953	5353
610.0587	5238
612.5193	5199
614.9814	5317
617.4427	5273
619.9034	5216
622.3615	5237
624.8208	5303
627.2775	5310
629.7335	5166
632.1929	5223
634.6476	5371
637.1016	5334
639.5569	5255
642.0096	5263
644.4637	5280
646.9151	5377
649.3678	5317
651.8179	5296
654.2672	5254
656.7159	5354
659.166	5332
661.6154	5351
664.0622	5398
666.5082	5411
668.9537	5279
671.4005	5392
673.8445	5430
676.288	5396
678.7308	5444
681.1729	5347
683.6163	5376
686.0572	5536
688.4973	5467
690.9368	5469
693.3757	5473
695.8138	5521
698.2534	5417
700.6902	5451
703.1245	5457
705.56	5517
707.9949	5468
710.4311	5561
712.8647	5584
715.2957	5480
717.7279	5459
720.1595	5505
722.5905	5492
725.0208	5607
727.4505	5559
729.8795	5556
732.3058	5647
734.7336	5569
737.1626	5745
739.587	5687
742.0128	5757
744.4359	5809
746.8604	5755
749.2841	5752
751.7073	5751
754.1278	5745
756.5496	5778
758.9688	5821
761.3893	5865
763.8093	5759
766.2285	5778
768.6451	5804
771.0611	5860
773.4784	5753
775.895	5842
778.3091	5785
780.7244	5745
783.1371	5888
785.5493	5895
787.9626	5896
790.3754	5889
792.7856	5843
795.1951	5821
797.6039	5864
800.0121	5765
802.4236	5856
804.8306	5904
807.2369	5837
809.6425	5828
812.0475	5905
814.4538	5900
816.8575	5979
819.2606	5957
821.663	5897
824.0648	6027
826.4659	6049
828.8683	5880
831.2682	5944
833.6674	5919
836.066	5922
838.4639	6009
840.8632	5912
843.2579	6054
845.6539	6082
848.0493	6036
850.444	6025
852.84	6134
855.2315	6012
857.6243	6141
860.0165	5997
862.4081	6050
864.797	6058
867.1892	6063
869.5789	6066
871.9659	6132
874.3542	6134
876.74	6043
879.129	5984
881.5155	6029
883.8994	6088
886.2845	5965
888.6671	5960
891.051	6014
893.4343	6067
895.8169	6027
898.197	6040
900.5783	5912
902.9571	6043
905.3372	6007
907.7167	6033
910.0936	6111
912.4698	6056
914.8474	6218
917.2244	6258
919.5987	6193
921.9744	6251
924.3475	6336
926.72	6297
929.0918	6293
931.4669	6376
933.8375	6275
936.2074	6401
938.5767	6437
940.9454	6425
943.3154	6568
945.6829	6805
948.0497	6854
950.4178	7015
952.7833	7355
955.1483	7597
957.5145	8055
959.8782	8221
962.2412	8222
964.6036	7839
966.9655	7440
969.3266	7094
971.6871	6821
974.0471	6552
976.4064	6522
978.765	6456
981.125	6277
983.4824	6245
985.8373	6316
988.1935	6279
990.549	6300
992.9039	6207
995.2602	6383
997.6119	6281
999.965	6266
1002.317	6283
1004.667	6321
1007.02	6355
1009.371	6252
1011.719	6223
1014.068	6296
1016.415	6312
1018.765	6315
1021.111	6286
1023.458	6318
1025.804	6272
1028.147	6380
1030.49	6366
1032.837	6262
1035.179	6490
1037.522	6456
1039.862	6454
1042.204	6455
1044.546	6408
1046.884	6429
1049.224	6458
1051.562	6521
1053.899	6492
1056.237	6401
1058.575	6435
1060.91	6522
1063.244	6477
1065.58	6556
1067.913	6623
1070.248	6560
1072.579	6458
1074.911	6585
1077.242	6541
1079.572	6534
1081.905	6630
1084.234	6447
1086.562	6391
1088.89	6342
1091.217	6417
1093.544	6537
1095.871	6549
1098.197	6411
1100.521	6428
1102.845	6303
1105.169	6334
1107.491	6358
1109.814	6441
1112.135	6397
1114.456	6353
1116.776	6447
1119.096	6327
1121.415	6427
1123.734	6453
1126.052	6419
1128.369	6478
1130.686	6421
1133.002	6429
1135.318	6523
1137.632	6355
1139.945	6395
1142.258	6415
1144.573	6391
1146.884	6548
1149.196	6417
1151.505	6468
1153.816	6502
1156.124	6423
1158.435	6403
1160.742	6373
1163.051	6348
1165.356	6458
1167.663	6429
1169.97	6414
1172.276	6487
1174.579	6390
1176.881	6511
1179.186	6482
1181.487	6330
1183.79	6314
1186.092	6408
1188.392	6377
1190.691	6496
1192.991	6596
1195.291	6377
1197.588	6388
1199.885	6316
1202.181	6472
1204.479	6411
1206.775	6311
1209.07	6452
1211.363	6430
1213.656	6438
1215.949	6387
1218.241	6444
1220.534	6503
1222.825	6572
1225.115	6615
1227.405	6510
1229.693	6630
1231.984	6518
1234.271	6535
1236.558	6594
1238.845	6579
1241.131	6547
1243.416	6692
1245.703	6788
1247.987	6742
1250.269	6684
1252.552	6693
1254.834	6683
1257.118	6780
1259.399	6774
1261.678	6684
1263.958	6594
1266.237	6734
1268.516	6814
1270.794	6677
1273.072	6704
1275.347	6670
1277.624	6743
1279.899	6653
1282.175	6697
1284.449	6667
1286.722	6667
1288.995	6621
1291.266	6793
1293.54	6583
1295.81	6589
1298.081	6514
1300.35	6594
1302.62	6664
1304.889	6616
1307.156	6616
1309.425	6567
1311.69	6571
1313.957	6543
1316.222	6576
1318.488	6658
1320.751	6488
1323.016	6631
1325.278	6518
1327.54	6613
1329.803	6689
1332.065	6586
1334.325	6473
1336.584	6678
1338.843	6677
1341.101	6603
1343.36	6548
1345.617	6601
1347.876	6534
1350.131	6580
1352.387	6501
1354.643	6710
1356.897	6628
1359.151	6657
1361.403	6627
1363.656	6527
1365.909	6625
1368.16	6580
1370.409	6587
1372.659	6660
1374.909	6771
1377.157	6710
1379.407	6675
1381.655	6719
1383.9	6682
1386.147	6594
1388.393	6685
1390.64	6647
1392.885	6601
1395.127	6620
1397.37	6762
1399.614	6746
1401.854	6761
1404.098	6637
1406.339	6655
1408.578	6733
1410.818	6625
1413.056	6842
1415.297	6752
1417.533	6820
1419.771	6814
1422.006	6773
1424.243	6856
1426.479	6727
1428.715	6790
1430.948	6901
1433.182	6897
1435.414	6757
1437.647	6803
1439.88	6805
1442.11	6839
1444.342	6883
1446.571	6860
1448.799	6935
1451.029	6953
1453.258	7057
1455.485	6900
1457.711	6981
1459.937	6947
1462.164	6867
1464.39	6920
1466.614	6945
1468.838	6984
1471.06	6898
1473.283	6860
1475.506	6728
1477.727	6686
1479.949	6790
1482.169	6735
1484.389	6744
1486.609	6561
1488.828	6679
1491.045	6674
1493.261	6629
1495.477	6718
1497.693	6645
1499.91	6757
1502.125	6577
1504.339	6631
1506.553	6674
1508.766	6777
1510.979	6667
1513.191	6718
1515.402	6669
1517.613	6755
1519.823	6678
1522.033	6787
1524.242	6696
1526.451	6575
1528.657	6585
1530.865	6700
1533.072	6707
1535.278	6709
1537.484	6726
1539.687	6610
1541.892	6675
1544.096	6782
1546.299	6787
1548.502	6728
1550.703	6655
1552.905	6778
1555.104	6811
1557.303	6818
1559.505	6854
1561.703	6845
1563.902	6658
1566.099	6791
1568.295	6874
1570.494	6760
1572.689	6791
1574.883	6983
1577.079	6787
1579.272	6818
1581.467	6842
1583.659	6899
1585.853	6815
1588.044	6974
1590.234	6816
1592.424	6904
1594.615	6956
1596.806	6904
1598.994	6893
1601.182	6956
1603.369	7000
1605.557	6952
1607.744	6895
1609.929	6908
1612.114	6937
1614.298	6872
1616.482	6930
1618.667	6893
1620.85	7107
1623.032	6995
1625.214	7004
1627.395	6959
1629.575	7000
1631.755	7027
1633.935	7093
1636.114	7054
1638.292	7074
1640.471	7060
1642.647	7091
1644.823	7121
1647	6938
1649.175	7158
1651.348	7058
1653.525	6992
1655.698	7116
1657.87	7082
1660.043	7042
1662.213	7019
1664.387	7210
1666.558	7073
1668.727	7247
1670.896	7196
1673.064	7190
1675.233	7084
1677.401	7014
1679.569	7069
1681.735	7064
1683.902	7135
1686.066	7173
1688.233	6964
1690.397	7127
1692.559	7030
1694.723	7010
1696.885	7014
1699.048	6900
1701.21	7074
1703.37	6979
1705.53	6996
1707.689	6901
1709.849	6947
1712.009	6977
1714.166	6974
1716.323	6989
1718.479	6911
1720.634	6841
1722.793	6799
1724.948	7026
1727.102	6877
1729.255	6868
1731.408	6865
1733.562	6875
1735.714	6939
1737.865	6959
1740.016	7014
1742.166	6908
1744.316	6881
1746.467	6914
1748.616	7035
1750.764	6967
1752.911	6949
1755.056	6984
1757.205	6884
1759.35	6921
1761.496	7056
1763.641	7009
1765.785	6873
1767.927	7023
1770.072	7037
1772.214	7004
1774.355	7071
1776.496	7072
1778.637	7032
1780.778	6864
1782.918	7075
1785.057	6989
1787.194	7048
1789.333	7061
1791.472	6970
1793.608	7063
1795.745	7034
1797.879	7121
1800.015	6981
1802.148	7135
1804.284	7002
1806.417	7157
1808.548	7060
1810.682	7127
1812.812	7218
1814.946	7026
1817.075	7018
1819.205	7075
1821.335	7052
1823.463	6966
1825.59	6961
1827.721	6993
1829.847	7065
1831.973	7129
1834.098	7077
1836.223	7058
1838.351	7003
1840.475	6971
1842.598	6976
1844.721	6990
1846.843	6988
1848.966	7024
1851.087	6915
1853.21	6954
1855.33	7048
1857.449	7016
1859.568	6961
1861.688	7051
1863.806	7036
1865.924	7102
1868.039	6988
1870.155	7028
1872.273	7071
1874.388	6977
1876.503	7010
1878.617	7070
1880.73	7044
1882.844	6984
1884.956	6989
1887.068	6980
1889.18	6948
1891.291	7015
1893.4	7148
1895.511	7088
1897.621	6988
1899.73	7073
1901.837	7016
1903.944	7143
1906.053	7007
1908.159	7062
1910.265	7053
1912.369	7114
1914.474	7132
1916.577	7138
1918.683	7188
1920.785	7093
1922.888	7105
1924.989	7123
1927.091	7227
1929.193	7109
1931.294	7245
1933.393	7108
1935.493	7121
1937.59	7108
1939.689	7081
1941.788	7250
1943.884	7119
1945.98	7135
1948.077	7083
1950.171	7145
1952.267	7083
1954.361	7149
1956.455	7071
1958.548	7114
1960.64	7156
1962.733	7183
1964.824	7168
1966.915	7236
1969.005	7005
1971.096	7125
1973.185	7110
1975.275	7173
1977.363	7063
1979.45	7090
1981.537	7219
1983.623	7132
1985.711	7080
1987.796	7147
1989.881	7135
1991.965	6987
1994.047	7131
1996.132	7082
1998.215	7052
2000.297	7122
2002.378	7119
2004.46	7028
2006.54	6966
2008.62	7184
2010.7	7052
2012.779	7125
2014.858	7103
2016.934	7078
2019.013	7152
2021.09	7100
2023.165	7156
2025.241	7005
2027.317	7178
2029.39	7055
2031.466	7126
2033.538	7010
2035.612	6988
2037.683	7078
2039.755	7108
2041.827	7096
2043.898	7176
2045.968	7124
2048.038	7118
2050.106	7158
2052.177	7143
2054.244	7034
2056.313	6991
2058.379	7193
2060.444	7204
2062.511	7154
2064.577	7221
2066.641	7069
2068.705	7081
2070.77	7115
2072.832	7147
2074.896	7157
2076.958	7149
2079.02	7121
2081.081	7216
2083.141	7136
2085.2	7121
2087.261	7241
2089.319	7098
2091.377	7098
2093.435	7084
2095.492	7156
2097.552	7147
2099.607	7147
2101.663	7087
2103.718	6989
2105.771	7149
2107.826	7202
2109.879	7124
2111.932	7083
2113.985	7125
2116.037	7142
2118.088	7198
2120.141	7056
2122.191	7161
2124.239	7129
2126.288	7064
2128.337	7210
2130.387	7087
2132.434	7244
2134.481	7023
2136.528	7136
2138.574	7198
2140.618	7004
2142.665	7062
2144.71	7104
2146.753	7241
2148.797	7133
2150.838	7149
2152.883	7197
2154.923	7072
2156.965	7024
2159.007	7081
2161.046	7097
2163.086	7029
2165.126	7115
2167.163	7119
2169.202	6966
2171.239	7082
2173.277	7122
2175.314	6961
2177.349	7016
2179.385	7208
2181.42	7008
2183.453	7016
2185.49	7069
2187.522	6952
2189.555	7047
2191.586	6969
2193.619	7042
2195.651	6981
2197.682	6962
2199.711	6987
2201.74	7044
2203.769	6982
2205.799	6959
2207.828	6939
2209.855	6976
2211.882	6920
2213.908	7012
2215.934	7043
2217.961	6988
2219.986	6955
2222.01	6882
2224.034	6983
2226.057	7044
2228.08	6935
2230.104	6981
2232.124	7003
2234.145	7048
2236.166	6947
2238.186	6948
2240.207	6992
2242.227	6904
2244.244	6866
2246.262	6886
2248.28	7017
2250.299	6990
2252.314	7046
2254.33	7027
2256.346	7038
2258.36	6925
2260.375	6927
2262.391	6893
2264.403	6985
2266.416	6951
2268.427	6988
2270.44	6961
2272.453	7031
2274.463	6946
2276.474	6990
2278.483	6909
2280.493	6982
2282.501	6965
2284.51	7069
2286.518	7015
2288.524	6976
2290.532	6899
2292.537	7044
2294.544	6967
2296.55	6987
2298.554	6922
2300.557	6984
2302.562	7090
2304.566	6903
2306.568	6874
2308.569	6957
2310.572	7055
2312.573	6978
2314.573	6924
2316.574	6917
2318.573	6844
2320.571	6983
2322.571	6943
2324.569	7077
2326.567	6900
2328.564	6869
2330.56	6869
2332.556	6838
2334.551	6922
2336.546	6867
2338.542	6984
2340.535	6853
2342.529	6876
2344.521	6890
2346.512	6955
2348.505	6854
2350.497	6839
2352.487	6891
2354.478	6858
2356.468	6899
2358.457	6914
2360.446	6835
2362.434	6899
2364.422	6787
2366.408	6849
2368.395	6905
2370.383	6780
2372.369	6725
2374.353	6935
2376.338	6729
2378.321	6778
2380.307	7016
2382.29	6711
2384.272	6945
2386.254	6849
2388.235	6829
2390.218	6862
2392.198	6701
2394.179	6922
2396.157	6801
2398.137	6895
2400.115	6802
2402.095	6846
2404.072	6753
2406.048	6734
2408.026	6949
2410.001	6747
2411.977	6807
2413.953	6842
2415.927	6732
2417.9	6758
2419.875	6847
2421.847	6701
2423.821	6820
2425.792	6751
2427.763	6867
2429.736	6766
2431.706	6923
2433.677	6831
2435.646	6742
2437.615	6778
2439.583	6805
2441.551	6747
2443.519	6760
2445.486	6762
2447.452	6807
2449.418	6726
2451.383	6796
2453.348	6818
2455.314	6874
2457.278	6737
2459.241	6756
2461.205	6828
2463.167	6734
2465.131	6762
2467.091	6681
2469.052	6757
2471.012	6769
2472.972	6841
2474.932	6628
2476.891	6853
2478.85	6717
2480.808	6631
2482.766	6711
2484.722	6679
2486.68	6624
2488.636	6822
2490.591	6649
2492.546	6794
2494.5	6722
2496.456	6687
2498.41	6729
2500.362	6681
2502.315	6658
2504.266	6736
2506.218	6688
2508.169	6685
2510.121	6646
2512.07	6755
2514.019	6684
2515.968	6734
2517.918	6596
2519.866	6615
2521.813	6627
2523.76	6536
2525.707	6625
2527.653	6756
2529.599	6620
2531.543	6859
2533.489	6672
2535.433	6629
2537.376	6760
2539.32	6697
2541.264	6717
2543.205	6567
2545.147	6623
2547.087	6586
2549.029	6586
2550.969	6621
2552.908	6773
2554.847	6657
2556.786	6636
2558.724	6675
2560.663	6653
2562.6	6753
2564.537	6687
2566.473	6600
2568.408	6710
2570.345	6700
2572.28	6679
2574.214	6738
2576.148	6724
2578.081	6629
2580.014	6755
2581.947	6766
2583.879	6745
2585.81	6693
2587.741	6664
2589.67	6684
2591.602	6717
2593.532	6625
2595.461	6764
2597.388	6835
2599.316	6786
2601.244	6668
2603.172	6709
2605.098	6765
2607.023	6786
2608.949	6680
2610.873	6702
2612.8	6750
2614.723	6800
2616.647	6757
2618.569	6688
2620.493	6717
2622.416	6728
2624.338	6771
2626.258	6836
2628.179	6684
2630.099	6699
2632.019	6672
2633.939	6675
2635.857	6788
2637.775	6814
2639.694	6694
2641.61	6602
2643.528	6706
2645.444	6787
2647.361	6740
2649.276	6772
2651.19	6762
2653.105	6754
2655.019	6708
2656.934	6698
2658.846	6718
2660.758	6722
2662.67	6751
2664.583	6722
2666.493	6713
2668.404	6709
2670.313	6669
2672.223	6702
2674.134	6670
2676.042	6714
2677.95	6748
2679.858	6622
2681.765	6651
2683.673	6594
2685.579	6639
2687.483	6599
2689.389	6661
2691.294	6614
2693.198	6743
2695.104	6664
2697.006	6650
2698.909	6692
2700.811	6666
2702.713	6606
2704.615	6778
2706.516	6661
2708.417	6555
2710.316	6567
2712.216	6654
2714.115	6675
2716.014	6631
2717.913	6696
2719.81	6718
2721.707	6521
2723.603	6747
2725.501	6651
2727.396	6598
2729.292	6534
2731.186	6621
2733.081	6663
2734.976	6670
2736.87	6587
2738.762	6575
2740.653	6575
2742.546	6670
2744.437	6670
2746.329	6596
2748.22	6449
2750.11	6588
2751.999	6656
2753.889	6737
2755.778	6593
2757.666	6484
2759.553	6530
2761.44	6598
2763.328	6670
2765.215	6583
2767.101	6476
2768.986	6568
2770.87	6529
2772.754	6537
2774.638	6510
2776.523	6617
2778.405	6704
2780.288	6640
2782.17	6507
2784.051	6572
2785.934	6586
2787.814	6620
2789.694	6574
2791.574	6536
2793.453	6546
2795.332	6504
2797.212	6493
2799.088	6469
2800.966	6605
2802.843	6542
2804.719	6665
2806.597	6649
2808.471	6375
2810.346	6539
2812.221	6515
2814.094	6554
2815.969	6551
2817.843	6417
2819.714	6551
2821.587	6494
2823.459	6507
2825.329	6527
2827.202	6524
2829.072	6530
2830.942	6532
2832.811	6431
2834.68	6456
2836.549	6543
2838.418	6558
2840.284	6472
2842.152	6390
2844.018	6643
2845.885	6632
2847.751	6409
2849.616	6486
2851.482	6419
2853.345	6593
2855.208	6482
2857.074	6622
2858.937	6597
2860.799	6634
2862.66	6698
2864.522	6671
2866.385	6613
2868.245	6789
2870.104	6778
2871.964	6655
2873.824	6883
2875.683	6930
2877.542	6923
2879.4	7017
2881.257	6943
2883.114	6994
2884.97	7063
2886.827	6898
2888.683	6991
2890.537	7112
2892.392	6987
2894.246	6922
2896.1	6984
2897.954	7009
2899.807	6965
2901.66	6905
2903.51	6967
2905.362	6971
2907.214	7005
2909.065	6974
2910.915	7000
2912.765	7000
2914.613	7172
2916.463	7199
2918.311	7127
2920.158	7348
2922.006	7292
2923.853	7318
2925.698	7523
2927.546	7617
2929.392	7426
2931.236	7528
2933.081	7520
2934.924	7615
2936.77	7728
2938.613	7672
2940.455	7815
2942.298	7673
2944.139	7787
2945.982	7781
2947.823	7596
2949.662	7551
2951.503	7592
2953.342	7435
2955.182	7483
2957.021	7467
2958.858	7329
2960.697	7316
2962.534	7320
2964.37	7255
2966.207	7118
2968.044	7188
2969.879	7143
2971.714	7227
2973.548	6991
2975.383	7132
2977.218	7112
2979.051	7208
2980.883	7067
2982.715	6950
2984.547	7062
2986.379	6899
2988.21	7001
2990.04	6983
2991.87	6926
2993.7	6808
2995.53	6865
2997.359	6901
2999.187	6765
3001.015	6881
3002.842	6677
3004.669	6664
3006.497	6655
3008.323	6498
3010.148	6571
3011.974	6412
3013.797	6371
3015.623	6441
3017.447	6312
3019.27	6438
3021.094	6473
3022.915	6349
3024.737	6435
3026.56	6409
3028.38	6328
3030.201	6351
3032.022	6218
3033.84	6314
3035.662	6205
3037.481	6282
3039.298	6257
3041.117	6154
3042.933	6217
3044.752	6187
3046.568	6246
3048.385	6220
3050.2	6266
3052.016	6194
3053.83	6165
3055.646	6271
3057.46	6217
3059.272	6361
3061.086	6177
3062.898	6209
3064.711	6237
3066.524	6263
3068.335	6245
3070.145	6193
3071.956	6174
3073.766	6246
3075.576	6166
3077.385	6132
3079.193	6215
3081.002	6107
3082.81	6156
3084.618	6207
3086.425	6133
3088.231	6114
3090.036	6226
3091.842	6183
3093.648	6030
3095.452	6071
3097.257	6019
3099.06	6156
3100.863	6078
3102.666	6092
3104.47	6040
3106.272	6079
3108.073	5963
3109.875	6031
3111.676	6066
3113.477	6020
3115.277	6025
3117.077	5971
3118.874	6001
3120.673	6074
3122.473	6050
3124.271	6004
3126.066	5921
3127.863	6012
3129.66	5866
3131.456	5938
3133.252	5996
3135.047	5887
3136.842	5920
3138.635	5838
3140.429	5988
3142.223	5946
3144.016	5934
3145.808	5961
3147.6	5812
3149.392	5905
3151.183	6045
3152.975	5997
3154.765	5958
3156.553	5838
3158.344	5892
3160.132	5910
3161.922	5812
3163.71	5862
3165.497	5878
3167.285	5934
3169.071	5969
3170.858	5902
3172.645	5945
3174.429	5920
3176.214	5874
3177.998	5873
3179.783	5794
3181.568	5876
3183.351	5856
3185.133	5857
3186.915	5966
3188.698	5869
3190.481	5953
3192.261	5887
3194.042	5822
3195.822	5771
3197.601	5850
3199.381	5767
3201.161	5838
3202.939	5848
3204.717	5882
3206.495	5814
3208.272	5823
3210.05	5894
3211.826	5798
3213.602	5798
3215.376	5915
3217.151	5858
3218.927	5708
3220.702	5816
3222.476	5851
3224.249	5799
3226.021	5786
3227.793	5842
3229.567	5864
3231.339	5800
3233.109	5812
3234.88	5806
3236.651	5778
3238.421	5825
3240.191	5827
3241.96	5751
3243.728	5853
3245.497	5822
3247.263	5852
3249.033	5832
3250.799	5773
3252.566	5870
3254.331	5771
3256.097	5784
3257.863	5805
3259.628	5882
3261.392	5901
3263.156	5848
3264.919	5865
3266.683	5810
3268.447	5850
3270.208	5960
3271.969	5777
3273.731	5862
3275.492	5773
3277.253	5803
3279.013	5757
3280.773	5681
3282.532	5778
3284.291	5786
3286.05	5846
3287.808	5852
3289.566	5852
3291.323	5772
3293.079	5801
3294.835	5849
3296.593	5914
3298.348	5819
3300.102	5916
3301.857	5867
3303.611	5891
3305.366	5883
3307.119	5859
3308.872	5818
3310.624	5818
3312.376	5809
3314.129	5927
3315.881	5798
3317.631	5763
3319.38	5916
3321.13	5799
3322.88	5867
3324.631	5781
3326.379	5836
3328.126	5744
3329.875	5791
3331.622	5770
3333.371	5841
3335.116	5773
3336.863	5795
3338.609	5801
3340.353	5780
3342.1	5683
3343.845	5747
3345.588	5786
3347.332	5737
3349.074	5792
3350.817	5770
3352.56	5667
3354.303	5783
3356.043	5756
3357.785	5746
3359.525	5702
3361.268	5845
3363.007	5901
3364.745	5651
3366.485	5804
3368.223	5802
3369.962	5713
3371.701	5758
3373.438	5698
3375.174	5691
3376.911	5622
3378.647	5633
3380.384	5775
3382.118	5670
3383.854	5751
3385.588	5630
3387.322	5695
3389.057	5648
3390.79	5598
3392.522	5628
3394.255	5703
3395.987	5607
3397.719	5645
3399.451	5706
3401.181	5675
3402.911	5662
3404.641	5652
3406.371	5573
3408.101	5595
3409.83	5664
3411.558	5652
3413.285	5555
3415.011	5646
3416.739	5596
3418.467	5546
3420.193	5595
3421.919	5496
3423.644	5647
3425.368	5592
3427.094	5602
3428.818	5526
3430.542	5591
3432.264	5592
3433.987	5537
3435.712	5564
3437.434	5468
3439.155	5510
3440.876	5611
3442.596	5447
3444.317	5515
3446.039	5452
3447.757	5497
3449.477	5459
3451.195	5504
3452.914	5541
3454.632	5523
3456.35	5449
3458.067	5438
3459.784	5453
3461.5	5606
3463.216	5456
3464.932	5460
3466.647	5334
3468.362	5493
3470.076	5418
3471.789	5426
3473.505	5442
3475.217	5359
3476.929	5373
3478.641	5446
3480.354	5445
3482.066	5413
3483.777	5456
3485.487	5298
3487.197	5294
3488.908	5314
3490.617	5382
3492.327	5304
3494.035	5352
3495.743	5331
3497.451	5304
3499.158	5317
3500.866	5361
3502.572	5205
3504.278	5366
3505.984	5445
3507.689	5288
3509.396	5250
3511.1	5317
3512.804	5389
3514.508	5284
3516.211	5335
3517.913	5283
3519.616	5238
3521.319	5224
3523.021	5218
3524.722	5289
3526.422	5143
3528.124	5266
3529.824	5136
3531.524	5257
3533.222	5165
3534.921	5269
3536.62	5199
3538.318	5124
3540.016	5241
3541.714	5183
3543.41	5196
3545.107	5077
3546.803	5237
3548.5	5161
3550.194	5144
3551.889	5220
3553.583	5162
3555.279	5146
3556.972	5278
3558.666	5165
3560.358	5194
3562.051	5240
3563.742	5084
3565.435	5137
3567.126	5126
3568.817	5172
3570.507	5083
3572.197	5093
3573.888	5084
3575.577	4994
3577.265	5183
3578.954	5094
3580.642	5193
3582.329	5164
3584.017	5026
3585.704	4987
3587.391	5073
3589.077	4940
3590.762	5092
3592.449	5024
3594.133	5145
3595.817	5000
3597.501	5057
3599.185	4902
3600.869	5077
3602.552	4895
3604.234	5061
3605.916	5091
3607.598	4937
3609.279	4976
3610.961	5001
3612.642	4971
3614.321	4960
3616	4937
3617.68	4928
3619.36	4924
3621.039	4945
3622.716	4988
3624.394	4922
3626.071	4881
3627.748	4826
3629.425	4825
3631.102	4906
3632.778	4839
3634.452	4844
3636.127	4963
3637.803	4814
3639.477	4849
3641.151	4819
3642.823	4778
3644.497	4765
3646.171	4828
3647.842	4859
3649.515	4788
3651.185	4924
3652.857	4869
3654.527	4786
3656.198	4816
3657.868	4785
3659.537	4884
3661.207	4824
3662.875	4858
3664.544	4885
3666.212	4803
3667.879	4840
3669.546	4863
3671.212	4883
3672.88	4769
3674.546	4748
3676.211	4861
3677.875	4747
3679.541	4646
3681.205	4774
3682.87	4843
3684.533	4756
3686.196	4702
3687.859	4831
3689.521	4863
3691.184	4775
3692.845	4781
3694.507	4753
3696.167	4650
3697.827	4795
3699.487	4634
3701.148	4764
3702.808	4826
3704.466	4713
3706.125	4784
3707.783	4706
3709.442	4665
3711.099	4800
3712.757	4723
3714.412	4726
3716.068	4736
3717.725	4702
3719.381	4637
3721.036	4682
3722.689	4702
3724.344	4679
3725.998	4664
3727.652	4731
3729.305	4754
3730.958	4664
3732.61	4584
3734.262	4686
3735.915	4734
3737.565	4630
3739.217	4655
3740.866	4663
3742.516	4615
3744.165	4622
3745.816	4659
3747.464	4680
3749.113	4488
3750.761	4580
3752.409	4633
3754.057	4625
3755.703	4588
3757.35	4543
3758.996	4562
3760.641	4694
3762.289	4516
3763.933	4476
3765.577	4572
3767.222	4587
3768.865	4593
3770.508	4502
3772.152	4587
3773.796	4550
3775.438	4553
3777.079	4488
3778.721	4566
3780.363	4563
3782.003	4458
3783.643	4579
3785.283	4559
3786.923	4522
3788.563	4553
3790.203	4619
3791.841	4496
3793.479	4478
3795.115	4601
3796.753	4533
3798.391	4471
3800.027	4488
3801.664	4586
3803.299	4440
3804.935	4558
3806.571	4492
3808.206	4457
3809.839	4448
3811.473	4526
3813.107	4470
3814.74	4429
3816.375	4575
3818.006	4539
3819.638	4420
3821.27	4470
3822.9	4455
3824.532	4461
3826.163	4439
3827.792	4371
3829.423	4439
3831.051	4326
3832.682	4412
3834.311	4475
3835.938	4454
3837.566	4446
3839.193	4497
3840.821	4438
3842.448	4446
3844.075	4374
3845.7	4381
3847.325	4303
3848.951	4429
3850.576	4378
3852.201	4364
3853.825	4366
3855.448	4347
3857.072	4352
3858.694	4343
3860.318	4355
3861.939	4387
3863.562	4301
3865.183	4332
3866.804	4319
3868.426	4329
3870.045	4330
3871.666	4316
3873.285	4338
3874.904	4283
3876.524	4195
3878.142	4349
3879.76	4364
3881.378	4362
3882.995	4292
3884.612	4345
3886.229	4340
3887.845	4328
3889.461	4306
3891.076	4266
3892.691	4222
3894.307	4309
3895.922	4283
3897.536	4294
3899.149	4386
3900.761	4237
3902.374	4216
3903.988	4331
3905.6	4312
3907.212	4285
3908.822	4227
3910.433	4307
3912.045	4281
3913.655	4224
3915.265	4191
3916.875	4278
3918.483	4316
3920.093	4242
3921.702	4240
3923.309	4254
3924.917	4225
3926.523	4261
3928.13	4313
3929.739	4325
3931.344	4291
3932.95	4259
3934.555	4225
3936.159	4218
3937.766	4276
3939.369	4148
3940.974	4211
3942.577	4181
3944.181	4236
3945.783	4291
3947.386	4183
3948.989	4123
3950.59	4217
3952.191	4219
3953.791	4221
3955.394	4200
3956.994	4211
3958.593	4227
3960.192	4156
3961.791	4199
3963.392	4205
3964.99	4253
3966.588	4185
3968.185	4178
3969.782	4121
3971.379	4120
3972.976	4178
3974.572	4152
3976.168	4191
3977.763	4208
3979.358	4167
3980.954	4150
3982.548	4198
3984.142	4031
3985.736	4119
3987.329	4081
3988.922	4127
3990.516	4079
3992.108	4084
3993.698	4058
3995.29	4143
3996.881	4054
3998.473	4002
4000.064	3995
4001.653	4027
4003.242	4001
4004.832	4006
4006.422	4052
4008.01	4067
4009.598	4048
4011.186	4025
4012.773	4058
4014.36	4056
4015.947	4043
4017.534	3998
4019.119	4046
4020.705	3855
4022.291	3905
4023.876	3959
4025.461	3968
4027.044	3966
4028.627	3984
4030.211	3992
4031.795	3956
4033.378	3981
4034.96	3964
4036.542	4011
4038.124	3962
4039.704	4062
4041.286	3915
4042.867	3874
4044.447	3856
4046.026	3930
4047.606	3967
4049.187	3873
4050.765	3910
4052.343	3870
4053.92	3983
4055.498	3887
4057.076	3913
4058.654	3915
4060.23	3845
4061.806	3881
4063.381	3993
4064.957	3869
4066.533	3922
4068.107	3885
4069.682	3936
4071.256	3943
4072.829	3963
4074.404	3885
4075.977	3852
4077.549	3840
4079.121	3831
4080.693	3893
4082.265	3878
4083.836	3888
4085.407	3881
4086.977	3860
4088.547	3891
4090.117	3810
4091.687	3922
4093.256	3903
4094.825	3846
4096.392	3821
4097.96	3836
4099.528	3826
4101.097	3841
4102.663	3790
4104.229	3818
4105.795	3860
4107.361	3846
4108.928	3853
4110.493	3733
4112.058	3738
4113.621	3705
4115.186	3768
4116.75	3885
4118.313	3834
4119.876	3729
4121.438	3750
4123	3709
4124.562	3768
4126.125	3818
4127.686	3756
4129.246	3689
4130.807	3746
4132.367	3623
4133.927	3809
4135.486	3735
4137.046	3730
4138.604	3720
4140.162	3790
4141.72	3735
4143.279	3683
4144.836	3714
4146.393	3772
4147.949	3731
4149.505	3687
4151.062	3709
4152.617	3633
4154.172	3671
4155.727	3728
4157.281	3726
4158.836	3719
4160.39	3652
4161.943	3617
4163.496	3652
4165.048	3626
4166.601	3596
4168.154	3664
4169.706	3648
4171.257	3683
4172.808	3668
4174.358	3590
4175.909	3597
4177.458	3571
4179.008	3610
4180.558	3609
4182.106	3655
4183.655	3642
4185.204	3651
4186.751	3616
4188.298	3604
4189.845	3501
4191.392	3575
4192.939	3605
4194.485	3562
4196.031	3618
4197.576	3559
4199.121	3579
4200.666	3554
4202.211	3537
4203.754	3466
4205.298	3590
4206.84	3574
4208.384	3593
4209.927	3535
4211.47	3585
4213.011	3615
4214.552	3520
4216.094	3569
4217.635	3453
4219.175	3597
4220.716	3491
4222.255	3535
4223.793	3495
4225.335	3600
4226.873	3476
4228.411	3580
4229.948	3501
4231.486	3510
4233.024	3502
4234.562	3454
4236.098	3574
4237.634	3444
4239.169	3533
4240.705	3500
4242.241	3529
4243.776	3476
4245.31	3434
4246.844	3515
4248.378	3465
4249.911	3487
4251.445	3508
4252.978	3516
4254.51	3426
4256.042	3486
4257.574	3551
4259.107	3456
4260.638	3499
4262.169	3477
4263.699	3474
4265.228	3402
4266.759	3499
4268.289	3513
4269.818	3509
4271.345	3420
4272.874	3440
4274.402	3443
4275.931	3469
4277.458	3452
4278.985	3421
4280.512	3382
4282.037	3435
4283.564	3505
4285.089	3381
4286.615	3408
4288.139	3420
4289.664	3409
4291.187	3432
4292.712	3347
4294.235	3352
4295.759	3349
4297.281	3470
4298.804	3301
4300.327	3315
4301.849	3359
4303.37	3403
4304.891	3321
4306.412	3307
4307.933	3493
4309.453	3396
4310.973	3349
4312.492	3312
