398.1873	3223
400.7097	3149
403.2336	3251
405.7547	3204
408.2751	3237
410.7948	3332
413.3138	3332
415.83	3305
418.3497	3369
420.8666	3366
423.3829	3423
425.8985	3375
428.4133	3392
430.9275	3413
433.441	3408
435.9538	3380
438.4639	3472
440.9753	3407
443.4881	3477
445.9982	3528
448.5055	3449
451.0142	3478
453.5201	3423
456.0274	3464
458.5361	3503
461.04	3475
463.5453	3407
466.0478	3474
468.5517	3468
471.0549	3463
473.5574	3389
476.0572	3486
478.5584	3449
481.0568	3473
483.5545	3431
486.0557	3526
488.5521	3562
491.0478	3480
493.5449	3521
496.0392	3545
498.5349	3508
501.0299	3524
503.5222	3567
506.0139	3540
508.5048	3584
510.9991	3591
513.4887	3561
515.9777	3512
518.4659	3634
520.9534	3564
523.4403	3611
525.9306	3512
528.4161	3592
530.9009	3537
533.3851	3596
535.8687	3515
538.3535	3589
540.8356	3547
543.3171	3537
545.7979	3654
548.278	3577
550.7595	3487
553.2383	3628
555.7144	3488
558.1918	3614
560.6685	3634
563.1446	3615
565.6221	3651
568.0968	3591
570.5688	3712
573.0422	3610
575.515	3621
577.989	3646
580.4584	3786
582.9291	3695
585.3991	3779
587.8685	3651
590.3352	3778
592.8052	3740
595.2706	3779
597.7372	3614
600.2033	3684
602.6666	3740
605.1334	3685
607.5953	3659
610.0587	3783
612.5193	3672
614.9814	3734
617.4427	3647
619.9034	3735
622.3615	3643
624.8208	3697
627.2775	3643
629.7335	3767
632.1929	3660
634.6476	3609
637.1016	3706
639.5569	3712
642.0096	3720
644.4637	3666
646.9151	3732
649.3678	3814
651.8179	3703
654.2672	3755
656.7159	3783
659.166	3669
661.6154	3689
664.0622	3749
666.5082	3723
668.9537	3797
671.4005	3737
673.8445	3759
676.288	3910
678.7308	3715
681.1729	3726
683.6163	3793
686.0572	3730
688.4973	3884
690.9368	3867
693.3757	3723
695.8138	3848
698.2534	3758
700.6902	3765
703.1245	3889
705.56	3886
707.9949	3896
710.4311	3942
712.8647	3812
715.2957	3937
717.7279	3885
720.1595	3876
722.5905	3922
725.0208	3883
727.4505	3994
729.8795	3881
732.3058	3993
734.7336	3932
737.1626	3951
739.587	3885
742.0128	3997
744.4359	4027
746.8604	4018
749.2841	4020
751.7073	3980
754.1278	4058
756.5496	3984
758.9688	3973
761.3893	3998
763.8093	4038
766.2285	4073
768.6451	4112
771.0611	4030
773.4784	4046
775.895	4062
778.3091	4044
780.7244	4105
783.1371	4046
785.5493	4129
787.9626	4124
790.3754	4049
792.7856	4060
795.1951	4073
797.6039	4087
800.0121	4155
802.4236	4061
804.8306	4115
807.2369	4091
809.6425	4127
812.0475	4132
814.4538	4201
816.8575	4131
819.2606	4031
821.663	4185
824.0648	4110
826.4659	4079
828.8683	4149
831.2682	4145
833.6674	4200
836.066	4134
838.4639	4090
840.8632	4184
843.2579	4212
845.6539	4208
848.0493	4207
850.444	4144
852.84	4128
855.2315	4179
857.6243	4200
860.0165	4272
862.4081	4228
864.797	4179
867.1892	4233
869.5789	4170
871.9659	4198
874.3542	4207
876.74	4210
879.129	4253
881.5155	4237
883.8994	4143
886.2845	4223
888.6671	4237
891.051	4230
893.4343	4168
895.8169	4234
898.197	4154
900.5783	4207
902.9571	4227
905.3372	4242
907.7167	4200
910.0936	4267
912.4698	4266
914.8474	4325
917.2244	4282
919.5987	4383
921.9744	4316
924.3475	4325
926.72	4419
929.0918	4346
931.4669	4431
933.8375	4444
936.2074	4350
938.5767	4518
940.9454	4467
943.3154	4504
945.6829	4608
948.0497	4670
950.4178	4695
952.7833	4888
955.1483	5174
957.5145	5315
959.8782	5348
962.2412	5280
964.6036	5356
966.9655	5019
969.3266	4855
971.6871	4788
974.0471	4638
976.4064	4471
978.765	4322
981.125	4414
983.4824	4430
985.8373	4426
988.1935	4317
990.549	4335
992.9039	4352
995.2602	4304
997.6119	4389
999.965	4363
1002.317	4393
1004.667	4368
1007.02	4364
1009.371	4371
1011.719	4382
1014.068	4438
1016.415	4350
1018.765	4384
1021.111	4400
1023.458	4395
1025.804	4409
1028.147	4364
1030.49	4344
1032.837	4358
1035.179	4359
1037.522	4452
1039.862	4428
1042.204	4473
1044.546	4455
1046.884	4434
1049.224	4371
1051.562	4436
1053.899	4393
1056.237	4435
1058.575	4442
1060.91	4458
1063.244	4608
1065.58	4585
1067.913	4503
1070.248	4572
1072.579	4555
1074.911	4523
1077.242	4521
1079.572	4612
1081.905	4508
1084.234	4552
1086.562	4548
1088.89	4502
1091.217	4477
1093.544	4496
1095.871	4424
1098.197	4519
1100.521	4388
1102.845	4552
1105.169	4493
1107.491	4486
1109.814	4491
1112.135	4407
1114.456	4538
1116.776	4440
1119.096	4441
1121.415	4402
1123.734	4398
1126.052	4428
1128.369	4580
1130.686	4514
1133.002	4427
1135.318	4432
1137.632	4493
1139.945	4544
1142.258	4460
1144.573	4573
1146.884	4445
1149.196	4503
1151.505	4509
1153.816	4455
1156.124	4513
1158.435	4479
1160.742	4542
1163.051	4487
1165.356	4426
1167.663	4499
1169.97	4555
1172.276	4474
1174.579	4571
1176.881	4469
1179.186	4544
1181.487	4425
1183.79	4479
1186.092	4549
1188.392	4540
1190.691	4566
1192.991	4568
1195.291	4479
1197.588	4522
1199.885	4457
1202.181	4485
1204.479	4518
1206.775	4447
1209.07	4470
1211.363	4612
1213.656	4498
1215.949	4531
1218.241	4517
1220.534	4583
1222.825	4502
1225.115	4583
1227.405	4567
1229.693	4576
1231.984	4588
1234.271	4601
1236.558	4611
1238.845	4621
1241.131	4616
1243.416	4669
1245.703	4677
1247.987	4664
1250.269	4626
1252.552	4676
1254.834	4670
1257.118	4693
1259.399	4564
1261.678	4662
1263.958	4735
1266.237	4646
1268.516	4647
1270.794	4681
1273.072	4739
1275.347	4680
1277.624	4718
1279.899	4727
1282.175	4617
1284.449	4579
1286.722	4665
1288.995	4577
1291.266	4566
1293.54	4579
1295.81	4634
1298.081	4546
1300.35	4588
1302.62	4597
1304.889	4593
1307.156	4600
1309.425	4551
1311.69	4596
1313.957	4571
1316.222	4613
1318.488	4669
1320.751	4597
1323.016	4566
1325.278	4651
1327.54	4622
1329.803	4646
1332.065	4647
1334.325	4515
1336.584	4700
1338.843	4605
1341.101	4566
1343.36	4597
1345.617	4646
1347.876	4709
1350.131	4664
1352.387	4657
1354.643	4582
1356.897	4582
1359.151	4696
1361.403	4700
1363.656	4609
1365.909	4624
1368.16	4641
1370.409	4659
1372.659	4620
1374.909	4657
1377.157	4707
1379.407	4670
1381.655	4584
1383.9	4764
1386.147	4703
1388.393	4720
1390.64	4691
1392.885	4726
1395.127	4698
1397.37	4649
1399.614	4579
1401.854	4697
1404.098	4690
1406.339	4739
1408.578	4714
1410.818	4641
1413.056	4770
1415.297	4699
1417.533	4718
1419.771	4629
1422.006	4733
1424.243	4732
1426.479	4743
1428.715	4831
1430.948	4815
1433.182	4747
1435.414	4752
1437.647	4922
1439.88	4796
1442.11	4821
1444.342	4840
1446.571	4825
1448.799	4824
1451.029	4958
1453.258	4883
1455.485	4891
1457.711	4885
1459.937	4914
1462.164	4870
1464.39	4954
1466.614	4829
1468.838	4927
1471.06	4791
1473.283	4767
1475.506	4789
1477.727	4833
1479.949	4760
1482.169	4715
1484.389	4683
1486.609	4773
1488.828	4788
1491.045	4639
1493.261	4671
1495.477	4735
1497.693	4643
1499.91	4686
1502.125	4785
1504.339	4655
1506.553	4697
1508.766	4791
1510.979	4737
1513.191	4628
1515.402	4648
1517.613	4722
1519.823	4657
1522.033	4816
1524.242	4709
1526.451	4763
1528.657	4656
1530.865	4720
1533.072	4639
1535.278	4649
1537.484	4790
1539.687	4757
1541.892	4795
1544.096	4643
1546.299	4617
1548.502	4756
1550.703	4719
1552.905	4703
1555.104	4723
1557.303	4672
1559.505	4856
1561.703	4790
1563.902	4808
1566.099	4781
1568.295	4813
1570.494	4816
1572.689	4816
1574.883	4714
1577.079	4799
1579.272	4850
1581.467	4838
1583.659	4710
1585.853	4839
1588.044	4817
1590.234	4857
1592.424	4888
1594.615	4864
1596.806	4931
1598.994	4868
1601.182	4919
1603.369	4974
1605.557	4847
1607.744	4933
1609.929	4915
1612.114	4885
1614.298	4934
1616.482	4800
1618.667	4863
1620.85	4902
1623.032	4902
1625.214	4936
1627.395	4946
1629.575	4915
1631.755	5010
1633.935	4960
1636.114	4945
1638.292	5007
1640.471	4927
1642.647	4938
1644.823	4884
1647	4966
1649.175	4925
1651.348	4898
1653.525	5003
1655.698	4942
1657.87	5006
1660.043	5007
1662.213	4954
1664.387	5016
1666.558	4839
1668.727	5016
1670.896	4999
1673.064	5039
1675.233	5036
1677.401	4930
1679.569	4963
1681.735	5012
1683.902	5021
1686.066	4878
1688.233	4913
1690.397	4904
1692.559	4909
1694.723	4949
1696.885	4882
1699.048	4938
1701.21	4960
1703.37	4909
1705.53	4875
1707.689	4964
1709.849	4932
1712.009	4871
1714.166	4939
1716.323	4864
1718.479	4864
1720.634	4913
1722.793	4965
1724.948	4939
1727.102	4912
1729.255	4873
1731.408	4870
1733.562	4802
1735.714	4851
1737.865	4911
1740.016	5022
1742.166	4868
1744.316	4946
1746.467	4878
1748.616	4821
1750.764	4913
1752.911	4897
1755.056	4942
1757.205	4836
1759.35	4865
1761.496	4941
1763.641	4923
1765.785	4889
1767.927	4974
1770.072	5006
1772.214	4884
1774.355	5045
1776.496	4938
1778.637	4997
1780.778	4880
1782.918	4954
1785.057	4954
1787.194	5043
1789.333	4993
1791.472	4902
1793.608	4960
1795.745	4874
1797.879	5057
1800.015	5040
1802.148	4944
1804.284	4971
1806.417	5083
1808.548	5080
1810.682	5049
1812.812	4924
1814.946	4982
1817.075	5031
1819.205	4921
1821.335	4901
1823.463	5038
1825.59	5010
1827.721	4949
1829.847	4918
1831.973	4978
1834.098	5022
1836.223	4927
1838.351	5001
1840.475	4987
1842.598	4940
1844.721	4882
1846.843	5001
1848.966	4950
1851.087	4948
1853.21	4920
1855.33	4992
1857.449	4951
1859.568	4942
1861.688	4900
1863.806	4832
1865.924	4934
1868.039	4928
1870.155	4950
1872.273	4892
1874.388	4994
1876.503	4965
1878.617	4928
1880.73	4979
1882.844	4970
1884.956	5068
1887.068	4890
1889.18	4935
1891.291	4978
1893.4	4968
1895.511	4951
1897.621	4943
1899.73	5027
1901.837	5038
1903.944	5083
1906.053	5057
1908.159	5026
1910.265	4992
1912.369	5043
1914.474	4973
1916.577	5054
1918.683	5129
1920.785	5029
1922.888	5069
1924.989	5032
1927.091	5046
1929.193	5035
1931.294	5171
1933.393	5020
1935.493	5087
1937.59	5057
1939.689	5059
1941.788	5070
1943.884	5000
1945.98	5143
1948.077	5144
1950.171	5029
1952.267	5012
1954.361	5033
1956.455	4984
1958.548	5063
1960.64	5069
1962.733	5007
1964.824	5013
1966.915	5106
1969.005	5065
1971.096	5051
1973.185	5010
1975.275	4978
1977.363	5093
1979.45	5034
1981.537	5048
1983.623	5060
1985.711	5126
1987.796	5082
1989.881	5073
1991.965	4994
1994.047	5120
1996.132	5059
1998.215	4986
2000.297	5010
2002.378	4991
2004.46	4998
2006.54	5193
2008.62	4987
2010.7	5038
2012.779	4975
2014.858	5051
2016.934	5018
2019.013	5076
2021.09	5040
2023.165	4982
2025.241	5053
2027.317	5012
2029.39	4986
2031.466	5051
2033.538	5063
2035.612	5071
2037.683	5111
2039.755	4961
2041.827	5061
2043.898	5044
2045.968	5107
2048.038	5035
2050.106	5033
2052.177	5036
2054.244	5131
2056.313	5096
2058.379	5094
2060.444	5035
2062.511	5030
2064.577	5036
2066.641	5129
2068.705	5096
2070.77	5119
2072.832	5005
2074.896	5128
2076.958	5113
2079.02	5052
2081.081	5080
2083.141	5031
2085.2	5075
2087.261	5034
2089.319	5042
2091.377	5087
2093.435	5219
2095.492	5049
2097.552	5076
2099.607	5088
2101.663	5072
2103.718	5001
2105.771	4965
2107.826	5061
2109.879	5056
2111.932	5037
2113.985	5065
2116.037	5071
2118.088	5004
2120.141	5125
2122.191	5085
2124.239	5066
2126.288	5094
2128.337	5029
2130.387	5039
2132.434	5166
2134.481	5069
2136.528	5014
2138.574	5137
2140.618	5063
2142.665	5046
2144.71	5059
2146.753	5185
2148.797	5047
2150.838	5089
2152.883	5077
2154.923	5103
2156.965	5076
2159.007	5117
2161.046	5123
2163.086	4996
2165.126	5022
2167.163	5116
2169.202	4995
2171.239	5034
2173.277	4881
2175.314	5069
2177.349	4996
2179.385	5029
2181.42	5065
2183.453	5031
2185.49	4965
2187.522	5017
2189.555	5082
2191.586	5057
2193.619	5050
2195.651	5077
2197.682	4928
2199.711	4973
2201.74	4958
2203.769	5068
2205.799	4889
2207.828	5064
2209.855	5026
2211.882	4973
2213.908	5031
2215.934	4936
2217.961	5020
2219.986	4874
2222.01	4968
2224.034	4917
2226.057	4935
2228.08	4971
2230.104	4932
2232.124	5042
2234.145	4905
2236.166	5035
2238.186	5009
2240.207	4963
2242.227	5070
2244.244	4973
2246.262	4989
2248.28	5066
2250.299	4886
2252.314	4992
2254.33	5023
2256.346	5084
2258.36	5052
2260.375	4986
2262.391	5055
2264.403	4814
2266.416	5041
2268.427	5003
2270.44	5098
2272.453	5027
2274.463	5031
2276.474	4975
2278.483	4978
2280.493	4959
2282.501	5062
2284.51	4993
2286.518	4960
2288.524	4982
2290.532	5057
2292.537	5030
2294.544	5051
2296.55	4963
2298.554	4905
2300.557	5065
2302.562	4908
2304.566	4973
2306.568	5039
2308.569	4957
2310.572	5054
2312.573	4994
2314.573	4977
2316.574	4934
2318.573	4964
2320.571	4860
2322.571	4980
2324.569	4928
2326.567	4970
2328.564	4958
2330.56	4959
2332.556	4905
2334.551	4960
2336.546	4968
2338.542	4941
2340.535	4975
2342.529	4971
2344.521	4879
2346.512	5026
2348.505	4958
2350.497	4925
2352.487	4903
2354.478	4974
2356.468	4938
2358.457	4896
2360.446	4865
2362.434	4974
2364.422	4890
2366.408	4980
2368.395	4800
2370.383	4865
2372.369	4901
2374.353	5041
2376.338	4954
2378.321	4875
2380.307	4971
2382.29	4953
2384.272	4951
2386.254	4841
2388.235	4874
2390.218	4906
2392.198	4848
2394.179	4870
2396.157	4947
2398.137	5014
2400.115	4945
2402.095	4836
2404.072	4843
2406.048	4937
2408.026	4922
2410.001	4783
2411.977	4922
2413.953	4946
2415.927	4882
2417.9	4883
2419.875	4901
2421.847	4837
2423.821	4890
2425.792	4968
2427.763	4860
2429.736	4890
2431.706	4934
2433.677	4867
2435.646	4927
2437.615	4847
2439.583	4888
2441.551	4886
2443.519	4906
2445.486	4866
2447.452	4830
2449.418	4931
2451.383	4962
2453.348	4886
2455.314	4918
2457.278	4891
2459.241	4854
2461.205	4821
2463.167	4877
2465.131	4874
2467.091	4906
2469.052	4901
2471.012	4892
2472.972	4824
2474.932	4793
2476.891	4827
2478.85	4876
2480.808	4802
2482.766	4822
2484.722	4759
2486.68	4883
2488.636	4836
2490.591	4766
2492.546	4826
2494.5	4837
2496.456	4753
2498.41	4776
2500.362	4848
2502.315	4840
2504.266	4874
2506.218	4824
2508.169	4873
2510.121	4810
2512.07	4806
2514.019	4902
2515.968	4871
2517.918	4822
2519.866	4833
2521.813	4862
2523.76	4743
2525.707	4870
2527.653	4788
2529.599	4757
2531.543	4925
2533.489	4830
2535.433	4746
2537.376	4778
2539.32	4901
2541.264	4872
2543.205	4836
2545.147	4845
2547.087	4756
2549.029	4829
2550.969	4781
2552.908	4847
2554.847	4790
2556.786	4870
2558.724	4800
2560.663	4832
2562.6	4811
2564.537	4800
2566.473	4855
2568.408	4842
2570.345	4891
2572.28	4856
2574.214	4768
2576.148	4828
2578.081	4788
2580.014	4758
2581.947	4944
2583.879	4838
2585.81	4816
2587.741	4842
2589.67	4884
2591.602	4741
2593.532	4836
2595.461	4828
2597.388	4852
2599.316	4813
2601.244	4841
2603.172	4805
2605.098	4955
2607.023	4869
2608.949	4784
2610.873	4870
2612.8	4826
2614.723	4832
2616.647	4792
2618.569	4905
2620.493	4814
2622.416	4742
2624.338	4824
2626.258	4907
2628.179	4827
2630.099	4887
2632.019	4869
2633.939	4838
2635.857	4836
2637.775	4788
2639.694	4880
2641.61	4911
2643.528	4911
2645.444	4915
2647.361	4817
2649.276	4805
2651.19	4884
2653.105	4812
2655.019	4814
2656.934	4867
2658.846	4856
2660.758	4886
2662.67	4918
2664.583	4875
2666.493	4927
2668.404	4896
2670.313	4845
2672.223	4849
2674.134	4797
2676.042	4873
2677.95	4843
2679.858	4878
2681.765	4983
2683.673	4788
2685.579	4953
2687.483	4880
2689.389	4890
2691.294	4809
2693.198	4800
2695.104	4947
2697.006	4779
2698.909	4778
2700.811	4867
2702.713	4748
2704.615	4794
2706.516	4751
2708.417	4841
2710.316	4831
2712.216	4793
2714.115	4811
2716.014	4811
2717.913	4802
2719.81	4824
2721.707	4790
2723.603	4864
2725.501	4730
2727.396	4796
2729.292	4840
2731.186	4859
2733.081	4869
2734.976	4744
2736.87	4768
2738.762	4764
2740.653	4810
2742.546	4834
2744.437	4803
2746.329	4738
2748.22	4880
2750.11	4782
2751.999	4778
2753.889	4723
2755.778	4707
2757.666	4731
2759.553	4801
2761.44	4698
2763.328	4721
2765.215	4806
2767.101	4773
2768.986	4829
2770.87	4808
2772.754	4838
2774.638	4686
2776.523	4768
2778.405	4688
2780.288	4750
2782.17	4667
2784.051	4717
2785.934	4761
2787.814	4718
2789.694	4833
2791.574	4736
2793.453	4766
2795.332	4755
2797.212	4771
2799.088	4785
2800.966	4752
2802.843	4659
2804.719	4740
2806.597	4762
2808.471	4768
2810.346	4723
2812.221	4767
2814.094	4789
2815.969	4698
2817.843	4788
2819.714	4772
2821.587	4830
2823.459	4683
2825.329	4741
2827.202	4732
2829.072	4734
2830.942	4709
2832.811	4672
2834.68	4679
2836.549	4752
2838.418	4791
2840.284	4739
2842.152	4776
2844.018	4786
2845.885	4875
2847.751	4730
2849.616	4799
2851.482	4791
2853.345	4767
2855.208	4815
2857.074	4805
2858.937	4695
2860.799	4774
2862.66	4845
2864.522	4815
2866.385	4779
2868.245	4956
2870.104	4978
2871.964	4967
2873.824	4935
2875.683	4984
2877.542	5009
2879.4	4934
2881.257	4969
2883.114	5075
2884.97	5102
2886.827	5030
2888.683	5059
2890.537	5094
2892.392	5046
2894.246	5027
2896.1	5054
2897.954	5124
2899.807	5049
2901.66	5113
2903.51	5003
2905.362	4921
2907.214	5032
2909.065	4993
2910.915	5075
2912.765	5113
2914.613	5114
2916.463	5159
2918.311	5170
2920.158	5203
2922.006	5209
2923.853	5192
2925.698	5277
2927.546	5439
2929.392	5445
2931.236	5414
2933.081	5486
2934.924	5473
2936.77	5503
2938.613	5471
2940.455	5468
2942.298	5639
2944.139	5587
2945.982	5580
2947.823	5490
2949.662	5541
2951.503	5466
2953.342	5510
2955.182	5415
2957.021	5369
2958.858	5394
2960.697	5342
2962.534	5410
2964.37	5337
2966.207	5320
2968.044	5290
2969.879	5182
2971.714	5209
2973.548	5188
2975.383	5128
2977.218	5005
2979.051	5116
2980.883	5097
2982.715	5099
2984.547	5021
2986.379	5144
2988.21	5113
2990.04	5056
2991.87	5026
2993.7	4993
2995.53	4965
2997.359	4916
2999.187	4966
3001.015	4889
3002.842	4870
3004.669	4838
3006.497	4803
3008.323	4822
3010.148	4777
3011.974	4820
3013.797	4728
3015.623	4729
3017.447	4620
3019.27	4678
3021.094	4625
3022.915	4720
3024.737	4754
3026.56	4596
3028.38	4613
3030.201	4610
3032.022	4582
3033.84	4607
3035.662	4607
3037.481	4622
3039.298	4581
3041.117	4600
3042.933	4656
3044.752	4537
3046.568	4604
3048.385	4614
3050.2	4624
3052.016	4611
3053.83	4630
3055.646	4423
3057.46	4524
3059.272	4654
3061.086	4547
3062.898	4604
3064.711	4492
3066.524	4595
3068.335	4534
3070.145	4492
3071.956	4525
3073.766	4542
3075.576	4511
3077.385	4556
3079.193	4498
3081.002	4511
3082.81	4553
3084.618	4539
3086.425	4499
3088.231	4499
3090.036	4525
3091.842	4496
3093.648	4427
3095.452	4447
3097.257	4431
3099.06	4416
3100.863	4430
3102.666	4389
3104.47	4431
3106.272	4471
3108.073	4466
3109.875	4412
3111.676	4445
3113.477	4396
3115.277	4384
3117.077	4489
3118.874	4554
3120.673	4383
3122.473	4446
3124.271	4392
3126.066	4425
3127.863	4510
3129.66	4403
3131.456	4410
3133.252	4326
3135.047	4436
3136.842	4399
3138.635	4339
3140.429	4481
3142.223	4331
3144.016	4363
3145.808	4321
3147.6	4345
3149.392	4400
3151.183	4333
3152.975	4380
3154.765	4348
3156.553	4376
3158.344	4330
3160.132	4351
3161.922	4449
3163.71	4349
3165.497	4324
3167.285	4354
3169.071	4378
3170.858	4358
3172.645	4312
3174.429	4359
3176.214	4223
3177.998	4412
3179.783	4341
3181.568	4399
3183.351	4261
3185.133	4311
3186.915	4308
3188.698	4427
3190.481	4311
3192.261	4284
3194.042	4314
3195.822	4266
3197.601	4301
3199.381	4327
3201.161	4300
3202.939	4248
3204.717	4247
3206.495	4300
3208.272	4288
3210.05	4240
3211.826	4330
3213.602	4360
3215.376	4315
3217.151	4307
3218.927	4352
3220.702	4287
3222.476	4298
3224.249	4338
3226.021	4370
3227.793	4286
3229.567	4263
3231.339	4238
3233.109	4220
3234.88	4194
3236.651	4292
3238.421	4181
3240.191	4238
3241.96	4279
3243.728	4294
3245.497	4179
3247.263	4334
3249.033	4365
3250.799	4258
3252.566	4234
3254.331	4331
3256.097	4327
3257.863	4269
3259.628	4270
3261.392	4306
3263.156	4329
3264.919	4284
3266.683	4325
3268.447	4309
3270.208	4305
3271.969	4241
3273.731	4263
3275.492	4285
3277.253	4310
3279.013	4261
3280.773	4253
3282.532	4320
3284.291	4270
3286.05	4264
3287.808	4253
3289.566	4315
3291.323	4320
3293.079	4377
3294.835	4277
3296.593	4375
3298.348	4234
3300.102	4303
3301.857	4364
3303.611	4382
3305.366	4217
3307.119	4332
3308.872	4243
3310.624	4278
3312.376	4341
3314.129	4270
3315.881	4292
3317.631	4163
3319.38	4232
3321.13	4280
3322.88	4251
3324.631	4265
3326.379	4209
3328.126	4312
3329.875	4200
3331.622	4287
3333.371	4320
3335.116	4324
3336.863	4191
3338.609	4121
3340.353	4247
3342.1	4219
3343.845	4330
3345.588	4207
3347.332	4307
3349.074	4276
3350.817	4253
3352.56	4211
3354.303	4217
3356.043	4227
3357.785	4168
3359.525	4240
3361.268	4250
3363.007	4242
3364.745	4214
3366.485	4156
3368.223	4179
3369.962	4175
3371.701	4205
3373.438	4191
3375.174	4189
3376.911	4202
3378.647	4221
3380.384	4154
3382.118	4179
3383.854	4063
3385.588	4185
3387.322	4101
3389.057	4104
3390.79	4156
3392.522	4108
3394.255	4155
3395.987	4156
3397.719	4178
3399.451	4118
3401.181	4179
3402.911	4148
3404.641	4157
3406.371	4099
3408.101	4166
3409.83	4105
3411.558	4100
3413.285	4134
3415.011	4117
3416.739	4141
3418.467	4218
3420.193	4215
3421.919	4150
3423.644	4072
3425.368	4044
3427.094	4109
3428.818	4130
3430.542	4129
3432.264	4165
3433.987	4128
3435.712	4023
3437.434	4123
3439.155	4242
3440.876	4143
3442.596	3994
3444.317	4045
3446.039	3986
3447.757	4068
3449.477	3979
3451.195	4072
3452.914	3942
3454.632	4074
3456.35	4013
3458.067	3974
3459.784	4014
3461.5	4067
3463.216	3970
3464.932	4075
3466.647	4058
3468.362	4033
3470.076	4063
3471.789	3997
3473.505	4110
3475.217	3953
3476.929	4007
3478.641	3982
3480.354	3953
3482.066	3939
3483.777	3952
3485.487	3916
3487.197	3914
3488.908	3931
3490.617	4015
3492.327	3969
3494.035	4026
3495.743	3945
3497.451	3965
3499.158	3916
3500.866	3992
3502.572	3924
3504.278	3965
3505.984	3980
3507.689	3936
3509.396	3942
3511.1	3877
3512.804	3882
3514.508	3906
3516.211	3874
3517.913	3944
3519.616	3855
3521.319	3943
3523.021	3929
3524.722	3876
3526.422	3862
3528.124	3932
3529.824	3899
3531.524	3803
3533.222	3886
3534.921	3957
3536.62	3872
3538.318	3933
3540.016	3927
3541.714	3822
3543.41	3794
3545.107	3854
3546.803	3842
3548.5	3874
3550.194	3858
3551.889	3848
3553.583	3880
3555.279	3826
3556.972	3852
3558.666	3800
3560.358	3773
3562.051	3805
3563.742	3749
3565.435	3784
3567.126	3854
3568.817	3844
3570.507	3813
3572.197	3780
3573.888	3774
3575.577	3815
3577.265	3797
3578.954	3815
3580.642	3702
3582.329	3837
3584.017	3764
3585.704	3724
3587.391	3679
3589.077	3754
3590.762	3778
3592.449	3789
3594.133	3764
3595.817	3769
3597.501	3752
3599.185	3712
3600.869	3647
3602.552	3794
3604.234	3730
3605.916	3670
3607.598	3714
3609.279	3666
3610.961	3613
3612.642	3755
3614.321	3688
3616	3620
3617.68	3724
3619.36	3661
3621.039	3698
3622.716	3732
3624.394	3681
3626.071	3711
3627.748	3669
3629.425	3651
3631.102	3630
3632.778	3697
3634.452	3601
3636.127	3622
3637.803	3663
3639.477	3724
3641.151	3625
3642.823	3593
3644.497	3588
3646.171	3615
3647.842	3612
3649.515	3591
3651.185	3591
3652.857	3606
3654.527	3681
3656.198	3609
3657.868	3646
3659.537	3587
3661.207	3524
3662.875	3681
3664.544	3568
3666.212	3503
3667.879	3521
3669.546	3659
3671.212	3545
3672.88	3592
3674.546	3537
3676.211	3582
3677.875	3568
3679.541	3566
3681.205	3533
3682.87	3526
3684.533	3551
3686.196	3555
3687.859	3577
3689.521	3610
3691.184	3482
3692.845	3512
3694.507	3613
3696.167	3508
3697.827	3629
3699.487	3515
3701.148	3578
3702.808	3495
3704.466	3463
3706.125	3591
3707.783	3499
3709.442	3542
3711.099	3490
3712.757	3500
3714.412	3533
3716.068	3524
3717.725	3523
3719.381	3594
3721.036	3522
3722.689	3507
3724.344	3512
3725.998	3539
3727.652	3531
3729.305	3500
3730.958	3468
3732.61	3533
3734.262	3430
3735.915	3419
3737.565	3407
3739.217	3477
3740.866	3491
3742.516	3483
3744.165	3391
3745.816	3486
3747.464	3363
3749.113	3433
3750.761	3433
3752.409	3444
3754.057	3437
3755.703	3417
3757.35	3484
3758.996	3432
3760.641	3487
3762.289	3443
3763.933	3443
3765.577	3419
3767.222	3374
3768.865	3439
3770.508	3457
3772.152	3479
3773.796	3414
3775.438	3491
3777.079	3448
3778.721	3487
3780.363	3456
3782.003	3438
3783.643	3343
3785.283	3421
3786.923	3343
3788.563	3430
3790.203	3365
3791.841	3490
3793.479	3355
3795.115	3331
3796.753	3370
3798.391	3398
3800.027	3369
3801.664	3352
3803.299	3367
3804.935	3380
3806.571	3323
3808.206	3395
3809.839	3340
3811.473	3347
3813.107	3385
3814.74	3328
3816.375	3324
3818.006	3334
3819.638	3311
3821.27	3380
3822.9	3306
3824.532	3314
3826.163	3293
3827.792	3418
3829.423	3347
3831.051	3380
3832.682	3365
3834.311	3337
3835.938	3327
3837.566	3330
3839.193	3296
3840.821	3209
3842.448	3292
3844.075	3278
3845.7	3324
3847.325	3276
3848.951	3298
3850.576	3290
3852.201	3240
3853.825	3338
3855.448	3301
3857.072	3254
3858.694	3293
3860.318	3313
3861.939	3320
3863.562	3280
3865.183	3274
3866.804	3291
3868.426	3176
3870.045	3275
3871.666	3250
3873.285	3250
3874.904	3239
3876.524	3213
3878.142	3249
3879.76	3249
3881.378	3217
3882.995	3180
3884.612	3284
3886.229	3262
3887.845	3145
3889.461	3146
3891.076	3243
3892.691	3303
3894.307	3224
3895.922	3216
3897.536	3254
3899.149	3212
3900.761	3216
3902.374	3207
3903.988	3182
3905.6	3248
3907.212	3236
3908.822	3246
3910.433	3217
3912.045	3290
3913.655	3239
3915.265	3173
3916.875	3262
3918.483	3190
3920.093	3236
3921.702	3193
3923.309	3251
3924.917	3230
3926.523	3270
3928.13	3166
3929.739	3268
3931.344	3191
3932.95	3131
3934.555	3214
3936.159	3177
3937.766	3256
3939.369	3166
3940.974	3262
3942.577	3251
3944.181	3149
3945.783	3077
3947.386	3174
3948.989	3163
3950.59	3173
3952.191	3190
3953.791	3151
3955.394	3196
3956.994	3185
3958.593	3155
3960.192	3170
3961.791	3184
3963.392	3139
3964.99	3152
3966.588	3172
3968.185	3125
3969.782	3152
3971.379	3148
3972.976	3196
3974.572	3149
3976.168	3124
3977.763	3074
3979.358	3115
3980.954	3130
3982.548	3113
3984.142	3194
3985.736	3052
3987.329	3122
3988.922	3163
3990.516	3145
3992.108	3107
3993.698	3086
3995.29	3080
3996.881	3146
3998.473	3049
4000.064	3070
4001.653	3071
4003.242	3004
4004.832	3099
4006.422	3066
4008.01	3054
4009.598	3057
4011.186	3106
4012.773	2989
4014.36	3055
4015.947	3023
4017.534	3039
4019.119	3074
4020.705	3019
4022.291	2993
4023.876	3045
4025.461	3043
4027.044	2984
4028.627	3056
4030.211	2937
4031.795	2971
4033.378	3056
4034.96	2959
4036.542	2994
4038.124	2972
4039.704	3000
4041.286	2933
4042.867	2936
4044.447	2990
4046.026	2978
4047.606	3028
4049.187	2990
4050.765	2998
4052.343	2941
4053.92	2939
4055.498	3013
4057.076	3030
4058.654	2991
4060.23	2939
4061.806	2989
4063.381	2903
4064.957	2900
4066.533	2895
4068.107	3008
4069.682	3015
4071.256	2959
4072.829	2866
4074.404	2959
4075.977	2951
4077.549	2956
4079.121	2956
4080.693	2929
4082.265	2931
4083.836	2930
4085.407	2967
4086.977	2873
4088.547	2905
4090.117	2913
4091.687	3030
4093.256	2873
4094.825	2896
4096.392	2886
4097.96	2923
4099.528	2909
4101.097	2871
4102.663	2841
4104.229	2958
4105.795	2884
4107.361	2849
4108.928	2988
4110.493	2842
4112.058	2838
4113.621	2812
4115.186	2920
4116.75	2860
4118.313	2884
4119.876	2889
4121.438	2852
4123	2882
4124.562	2884
4126.125	2850
4127.686	2865
4129.246	2903
4130.807	2878
4132.367	2863
4133.927	2843
4135.486	2845
4137.046	2897
4138.604	2828
4140.162	2739
4141.72	2785
4143.279	2781
4144.836	2887
4146.393	2820
4147.949	2813
4149.505	2883
4151.062	2851
4152.617	2867
4154.172	2805
4155.727	2797
4157.281	2825
4158.836	2740
4160.39	2824
4161.943	2824
4163.496	2813
4165.048	2760
4166.601	2820
4168.154	2765
4169.706	2759
4171.257	2798
4172.808	2860
4174.358	2756
4175.909	2702
4177.458	2826
4179.008	2761
4180.558	2795
4182.106	2759
4183.655	2790
4185.204	2749
4186.751	2708
4188.298	2738
4189.845	2716
4191.392	2755
4192.939	2791
4194.485	2734
4196.031	2633
4197.576	2719
4199.121	2680
4200.666	2800
4202.211	2674
4203.754	2821
4205.298	2728
4206.84	2690
4208.384	2724
4209.927	2677
4211.47	2709
4213.011	2735
4214.552	2741
4216.094	2685
4217.635	2756
4219.175	2739
4220.716	2668
4222.255	2711
4223.793	2669
4225.335	2711
4226.873	2691
4228.411	2721
4229.948	2563
4231.486	2703
4233.024	2757
4234.562	2703
4236.098	2687
4237.634	2701
4239.169	2654
4240.705	2686
4242.241	2647
4243.776	2671
4245.31	2665
4246.844	2685
4248.378	2656
4249.911	2701
4251.445	2682
4252.978	2634
4254.51	2647
4256.042	2695
4257.574	2673
4259.107	2689
4260.638	2576
4262.169	2664
4263.699	2704
4265.228	2629
4266.759	2698
4268.289	2615
4269.818	2613
4271.345	2681
4272.874	2606
4274.402	2714
4275.931	2634
4277.458	2675
4278.985	2625
4280.512	2679
4282.037	2630
4283.564	2692
4285.089	2665
4286.615	2606
4288.139	2634
4289.664	2583
4291.187	2634
4292.712	2644
4294.235	2656
4295.759	2542
4297.281	2697
4298.804	2684
4300.327	2520
4301.849	2603
4303.37	2564
4304.891	2557
4306.412	2559
4307.933	2580
4309.453	2587
4310.973	2572
4312.492	2564
