398.1873	2936
400.7097	2870
403.2336	2920
405.7547	2920
408.2751	2914
410.7948	2996
413.3138	2959
415.83	3020
418.3497	3050
420.8666	3021
423.3829	3055
425.8985	3091
428.4133	3058
430.9275	3142
433.441	3082
435.9538	3149
438.4639	3073
440.9753	3160
443.4881	3073
445.9982	3096
448.5055	3161
451.0142	3095
453.5201	3120
456.0274	3170
458.5361	3064
461.04	3233
463.5453	3097
466.0478	3088
468.5517	3153
471.0549	3174
473.5574	3201
476.0572	3111
478.5584	3113
481.0568	3160
483.5545	3108
486.0557	3153
488.5521	3134
491.0478	3133
493.5449	3193
496.0392	3138
498.5349	3184
501.0299	3216
503.5222	3221
506.0139	3202
508.5048	3272
510.9991	3270
513.4887	3263
515.9777	3186
518.4659	3226
520.9534	3306
523.4403	3259
525.9306	3204
528.4161	3223
530.9009	3257
533.3851	3241
535.8687	3176
538.3535	3339
540.8356	3248
543.3171	3266
545.7979	3264
548.278	3214
550.7595	3299
553.2383	3156
555.7144	3167
558.1918	3301
560.6685	3305
563.1446	3298
565.6221	3273
568.0968	3263
570.5688	3323
573.0422	3301
575.515	3350
577.989	3320
580.4584	3349
582.9291	3375
585.3991	3384
587.8685	3314
590.3352	3354
592.8052	3429
595.2706	3393
597.7372	3350
600.2033	3408
602.6666	3292
605.1334	3347
607.5953	3363
610.0587	3324
612.5193	3323
614.9814	3418
617.4427	3313
619.9034	3345
622.3615	3301
624.8208	3321
627.2775	3303
629.7335	3303
632.1929	3320
634.6476	3278
637.1016	3393
639.5569	3367
642.0096	3253
644.4637	3295
646.9151	3358
649.3678	3340
651.8179	3309
654.2672	3357
656.7159	3369
659.166	3349
661.6154	3367
664.0622	3359
666.5082	3306
668.9537	3460
671.4005	3435
673.8445	3441
676.288	3320
678.7308	3408
681.1729	3361
683.6163	3457
686.0572	3417
688.4973	3396
690.9368	3433
693.3757	3453
695.8138	3472
698.2534	3457
700.6902	3450
703.1245	3482
705.56	3403
707.9949	3461
710.4311	3459
712.8647	3489
715.2957	3448
717.7279	3532
720.1595	3538
722.5905	3510
725.0208	3552
727.4505	3575
729.8795	3509
732.3058	3498
734.7336	3536
737.1626	3588
739.587	3553
742.0128	3538
744.4359	3634
746.8604	3552
749.2841	3577
751.7073	3550
754.1278	3625
756.5496	3706
758.9688	3630
761.3893	3641
763.8093	3669
766.2285	3722
768.6451	3652
771.0611	3603
773.4784	3674
775.895	3697
778.3091	3601
780.7244	3636
783.1371	3685
785.5493	3701
787.9626	3623
790.3754	3736
792.7856	3598
795.1951	3658
797.6039	3660
800.0121	3633
802.4236	3730
804.8306	3723
807.2369	3697
809.6425	3691
812.0475	3684
814.4538	3809
816.8575	3682
819.2606	3781
821.663	3736
824.0648	3667
826.4659	3720
828.8683	3721
831.2682	3632
833.6674	3679
836.066	3775
838.4639	3744
840.8632	3766
843.2579	3704
845.6539	3848
848.0493	3758
850.444	3800
852.84	3779
855.2315	3814
857.6243	3768
860.0165	3827
862.4081	3760
864.797	3744
867.1892	3787
869.5789	3798
871.9659	3787
874.3542	3780
876.74	3736
879.129	3784
881.5155	3771
883.8994	3814
886.2845	3837
888.6671	3748
891.051	3753
893.4343	3814
895.8169	3797
898.197	3740
900.5783	3770
902.9571	3748
905.3372	3796
907.7167	3832
910.0936	3857
912.4698	3854
914.8474	3833
917.2244	3932
919.5987	3920
921.9744	3868
924.3475	3855
926.72	3922
929.0918	4009
931.4669	3953
933.8375	3978
936.2074	4017
938.5767	4001
940.9454	4019
943.3154	4036
945.6829	4174
948.0497	4308
950.4178	4199
952.7833	4453
955.1483	4439
957.5145	4571
959.8782	4597
962.2412	4677
964.6036	4451
966.9655	4461
969.3266	4305
971.6871	4185
974.0471	4103
976.4064	4056
978.765	4043
981.125	3990
983.4824	3947
985.8373	3878
988.1935	3981
990.549	4013
992.9039	3983
995.2602	3959
997.6119	3907
999.965	3874
1002.317	3900
1004.667	3996
1007.02	3992
1009.371	4000
1011.719	3987
1014.068	3916
1016.415	4035
1018.765	4029
1021.111	3981
1023.458	3923
1025.804	4013
1028.147	4038
1030.49	4034
1032.837	3966
1035.179	4001
1037.522	3975
1039.862	3911
1042.204	4066
1044.546	4032
1046.884	4061
1049.224	4056
1051.562	3925
1053.899	3980
1056.237	4060
1058.575	4037
1060.91	4057
1063.244	4039
1065.58	3983
1067.913	4102
1070.248	4043
1072.579	4068
1074.911	4044
1077.242	4095
1079.572	3992
1081.905	4090
1084.234	4130
1086.562	4020
1088.89	4070
1091.217	4002
1093.544	4058
1095.871	4031
1098.197	4042
1100.521	3995
1102.845	3967
1105.169	3963
1107.491	4154
1109.814	4035
1112.135	3984
1114.456	4106
1116.776	3993
1119.096	4072
1121.415	4056
1123.734	4006
1126.052	4124
1128.369	4030
1130.686	4131
1133.002	4089
1135.318	4060
1137.632	4133
1139.945	4104
1142.258	4029
1144.573	4082
1146.884	4077
1149.196	4053
1151.505	4257
1153.816	4183
1156.124	4237
1158.435	4279
1160.742	4162
1163.051	4207
1165.356	4104
1167.663	4152
1169.97	4020
1172.276	4126
1174.579	4093
1176.881	4045
1179.186	4103
1181.487	4105
1183.79	4030
1186.092	4106
1188.392	4100
1190.691	4185
1192.991	3983
1195.291	4015
1197.588	4042
1199.885	4070
1202.181	4058
1204.479	4190
1206.775	4010
1209.07	4076
1211.363	4086
1213.656	4064
1215.949	4040
1218.241	4083
1220.534	4140
1222.825	4080
1225.115	4101
1227.405	4099
1229.693	4167
1231.984	4178
1234.271	4132
1236.558	4181
1238.845	4143
1241.131	4270
1243.416	4150
1245.703	4185
1247.987	4171
1250.269	4222
1252.552	4209
1254.834	4258
1257.118	4225
1259.399	4199
1261.678	4082
1263.958	4080
1266.237	4261
1268.516	4160
1270.794	4265
1273.072	4225
1275.347	4360
1277.624	4154
1279.899	4274
1282.175	4158
1284.449	4185
1286.722	4150
1288.995	4233
1291.266	4154
1293.54	4257
1295.81	4177
1298.081	4158
1300.35	4201
1302.62	4263
1304.889	4107
1307.156	4255
1309.425	4150
1311.69	4185
1313.957	4185
1316.222	4171
1318.488	4205
1320.751	4180
1323.016	4145
1325.278	4163
1327.54	4182
1329.803	4162
1332.065	4122
1334.325	4203
1336.584	4199
1338.843	4159
1341.101	4174
1343.36	4191
1345.617	4162
1347.876	4193
1350.131	4155
1352.387	4157
1354.643	4140
1356.897	4130
1359.151	4247
1361.403	4130
1363.656	4191
1365.909	4253
1368.16	4198
1370.409	4191
1372.659	4260
1374.909	4232
1377.157	4144
1379.407	4128
1381.655	4286
1383.9	4226
1386.147	4253
1388.393	4329
1390.64	4299
1392.885	4219
1395.127	4328
1397.37	4288
1399.614	4176
1401.854	4304
1404.098	4365
1406.339	4361
1408.578	4360
1410.818	4365
1413.056	4326
1415.297	4358
1417.533	4356
1419.771	4352
1422.006	4298
1424.243	4282
1426.479	4260
1428.715	4209
1430.948	4322
1433.182	4374
1435.414	4404
1437.647	4304
1439.88	4448
1442.11	4417
1444.342	4295
1446.571	4407
1448.799	4290
1451.029	4384
1453.258	4343
1455.485	4389
1457.711	4554
1459.937	4421
1462.164	4323
1464.39	4337
1466.614	4402
1468.838	4343
1471.06	4306
1473.283	4317
1475.506	4336
1477.727	4343
1479.949	4339
1482.169	4403
1484.389	4284
1486.609	4308
1488.828	4260
1491.045	4204
1493.261	4282
1495.477	4276
1497.693	4352
1499.91	4282
1502.125	4350
1504.339	4232
1506.553	4348
1508.766	4314
1510.979	4309
1513.191	4305
1515.402	4366
1517.613	4329
1519.823	4295
1522.033	4381
1524.242	4374
1526.451	4280
1528.657	4347
1530.865	4314
1533.072	4356
1535.278	4302
1537.484	4239
1539.687	4395
1541.892	4316
1544.096	4342
1546.299	4268
1548.502	4320
1550.703	4310
1552.905	4359
1555.104	4334
1557.303	4410
1559.505	4359
1561.703	4421
1563.902	4227
1566.099	4331
1568.295	4396
1570.494	4343
1572.689	4390
1574.883	4375
1577.079	4378
1579.272	4360
1581.467	4418
1583.659	4407
1585.853	4412
1588.044	4330
1590.234	4430
1592.424	4333
1594.615	4402
1596.806	4438
1598.994	4481
1601.182	4513
1603.369	4322
1605.557	4507
1607.744	4449
1609.929	4501
1612.114	4415
1614.298	4506
1616.482	4439
1618.667	4488
1620.85	4513
1623.032	4458
1625.214	4395
1627.395	4473
1629.575	4409
1631.755	4468
1633.935	4459
1636.114	4398
1638.292	4497
1640.471	4505
1642.647	4433
1644.823	4472
1647	4355
1649.175	4453
1651.348	4500
1653.525	4533
1655.698	4546
1657.87	4488
1660.043	4434
1662.213	4529
1664.387	4495
1666.558	4410
1668.727	4543
1670.896	4470
1673.064	4541
1675.233	4455
1677.401	4468
1679.569	4471
1681.735	4449
1683.902	4546
1686.066	4530
1688.233	4473
1690.397	4539
1692.559	4475
1694.723	4397
1696.885	4548
1699.048	4522
1701.21	4488
1703.37	4442
1705.53	4413
1707.689	4456
1709.849	4377
1712.009	4460
1714.166	4445
1716.323	4448
1718.479	4358
1720.634	4446
1722.793	4390
1724.948	4504
1727.102	4386
1729.255	4439
1731.408	4569
1733.562	4574
1735.714	4438
1737.865	4384
1740.016	4511
1742.166	4432
1744.316	4505
1746.467	4440
1748.616	4489
1750.764	4415
1752.911	4481
1755.056	4482
1757.205	4490
1759.35	4519
1761.496	4555
1763.641	4524
1765.785	4479
1767.927	4553
1770.072	4537
1772.214	4516
1774.355	4454
1776.496	4487
1778.637	4477
1780.778	4494
1782.918	4424
1785.057	4471
1787.194	4567
1789.333	4473
1791.472	4564
1793.608	4441
1795.745	4602
1797.879	4575
1800.015	4403
1802.148	4575
1804.284	4431
1806.417	4510
1808.548	4530
1810.682	4542
1812.812	4531
1814.946	4544
1817.075	4564
1819.205	4478
1821.335	4565
1823.463	4470
1825.59	4549
1827.721	4519
1829.847	4501
1831.973	4535
1834.098	4511
1836.223	4502
1838.351	4494
1840.475	4434
1842.598	4573
1844.721	4633
1846.843	4587
1848.966	4541
1851.087	4484
1853.21	4467
1855.33	4493
1857.449	4506
1859.568	4453
1861.688	4418
1863.806	4482
1865.924	4499
1868.039	4512
1870.155	4504
1872.273	4466
1874.388	4466
1876.503	4488
1878.617	4489
1880.73	4455
1882.844	4592
1884.956	4569
1887.068	4531
1889.18	4511
1891.291	4430
1893.4	4532
1895.511	4584
1897.621	4456
1899.73	4566
1901.837	4514
1903.944	4578
1906.053	4520
1908.159	4570
1910.265	4489
1912.369	4568
1914.474	4565
1916.577	4627
1918.683	4467
1920.785	4573
1922.888	4515
1924.989	4661
1927.091	4522
1929.193	4517
1931.294	4646
1933.393	4579
1935.493	4578
1937.59	4646
1939.689	4596
1941.788	4702
1943.884	4577
1945.98	4626
1948.077	4573
1950.171	4573
1952.267	4718
1954.361	4604
1956.455	4576
1958.548	4601
1960.64	4671
1962.733	4569
1964.824	4676
1966.915	4562
1969.005	4593
1971.096	4556
1973.185	4566
1975.275	4566
1977.363	4560
1979.45	4552
1981.537	4542
1983.623	4606
1985.711	4649
1987.796	4550
1989.881	4523
1991.965	4691
1994.047	4618
1996.132	4561
1998.215	4592
2000.297	4673
2002.378	4593
2004.46	4586
2006.54	4608
2008.62	4571
2010.7	4612
2012.779	4537
2014.858	4567
2016.934	4653
2019.013	4503
2021.09	4520
2023.165	4500
2025.241	4562
2027.317	4662
2029.39	4499
2031.466	4621
2033.538	4634
2035.612	4522
2037.683	4654
2039.755	4602
2041.827	4539
2043.898	4605
2045.968	4619
2048.038	4584
2050.106	4583
2052.177	4644
2054.244	4613
2056.313	4546
2058.379	4568
2060.444	4612
2062.511	4579
2064.577	4632
2066.641	4640
2068.705	4609
2070.77	4548
2072.832	4603
2074.896	4662
2076.958	4657
2079.02	4627
2081.081	4608
2083.141	4539
2085.2	4548
2087.261	4591
2089.319	4623
2091.377	4545
2093.435	4659
2095.492	4700
2097.552	4572
2099.607	4511
2101.663	4665
2103.718	4655
2105.771	4678
2107.826	4643
2109.879	4674
2111.932	4519
2113.985	4590
2116.037	4609
2118.088	4634
2120.141	4595
2122.191	4572
2124.239	4619
2126.288	4684
2128.337	4610
2130.387	4665
2132.434	4577
2134.481	4625
2136.528	4609
2138.574	4672
2140.618	4619
2142.665	4587
2144.71	4622
2146.753	4643
2148.797	4672
2150.838	4643
2152.883	4673
2154.923	4607
2156.965	4630
2159.007	4642
2161.046	4556
2163.086	4670
2165.126	4663
2167.163	4523
2169.202	4721
2171.239	4528
2173.277	4557
2175.314	4596
2177.349	4554
2179.385	4613
2181.42	4510
2183.453	4647
2185.49	4586
2187.522	4588
2189.555	4573
2191.586	4553
2193.619	4543
2195.651	4536
2197.682	4546
2199.711	4521
2201.74	4475
2203.769	4501
2205.799	4633
2207.828	4568
2209.855	4568
2211.882	4524
2213.908	4561
2215.934	4549
2217.961	4638
2219.986	4578
2222.01	4590
2224.034	4591
2226.057	4562
2228.08	4533
2230.104	4500
2232.124	4516
2234.145	4592
2236.166	4538
2238.186	4602
2240.207	4498
2242.227	4610
2244.244	4455
2246.262	4474
2248.28	4565
2250.299	4468
2252.314	4548
2254.33	4551
2256.346	4510
2258.36	4545
2260.375	4605
2262.391	4532
2264.403	4544
2266.416	4546
2268.427	4575
2270.44	4635
2272.453	4645
2274.463	4640
2276.474	4537
2278.483	4578
2280.493	4556
2282.501	4464
2284.51	4557
2286.518	4476
2288.524	4573
2290.532	4652
2292.537	4618
2294.544	4537
2296.55	4613
2298.554	4469
2300.557	4585
2302.562	4493
2304.566	4503
2306.568	4589
2308.569	4557
2310.572	4582
2312.573	4558
2314.573	4593
2316.574	4584
2318.573	4539
2320.571	4456
2322.571	4622
2324.569	4457
2326.567	4640
2328.564	4624
2330.56	4480
2332.556	4541
2334.551	4406
2336.546	4503
2338.542	4600
2340.535	4558
2342.529	4438
2344.521	4454
2346.512	4453
2348.505	4597
2350.497	4435
2352.487	4536
2354.478	4503
2356.468	4608
2358.457	4513
2360.446	4518
2362.434	4524
2364.422	4545
2366.408	4414
2368.395	4463
2370.383	4436
2372.369	4437
2374.353	4548
2376.338	4493
2378.321	4543
2380.307	4522
2382.29	4473
2384.272	4485
2386.254	4519
2388.235	4552
2390.218	4489
2392.198	4429
2394.179	4549
2396.157	4382
2398.137	4481
2400.115	4418
2402.095	4380
2404.072	4463
2406.048	4561
2408.026	4377
2410.001	4548
2411.977	4451
2413.953	4397
2415.927	4547
2417.9	4518
2419.875	4492
2421.847	4503
2423.821	4473
2425.792	4444
2427.763	4518
2429.736	4466
2431.706	4525
2433.677	4507
2435.646	4488
2437.615	4537
2439.583	4450
2441.551	4565
2443.519	4554
2445.486	4389
2447.452	4514
2449.418	4419
2451.383	4482
2453.348	4405
2455.314	4360
2457.278	4486
2459.241	4414
2461.205	4433
2463.167	4528
2465.131	4412
2467.091	4420
2469.052	4458
2471.012	4430
2472.972	4562
2474.932	4361
2476.891	4469
2478.85	4300
2480.808	4384
2482.766	4407
2484.722	4427
2486.68	4416
2488.636	4382
2490.591	4491
2492.546	4434
2494.5	4430
2496.456	4429
2498.41	4479
2500.362	4347
2502.315	4388
2504.266	4326
2506.218	4370
2508.169	4418
2510.121	4429
2512.07	4347
2514.019	4387
2515.968	4385
2517.918	4467
2519.866	4471
2521.813	4343
2523.76	4418
2525.707	4409
2527.653	4448
2529.599	4416
2531.543	4350
2533.489	4515
2535.433	4329
2537.376	4466
2539.32	4435
2541.264	4409
2543.205	4322
2545.147	4443
2547.087	4354
2549.029	4410
2550.969	4491
2552.908	4391
2554.847	4344
2556.786	4411
2558.724	4463
2560.663	4385
2562.6	4514
2564.537	4476
2566.473	4433
2568.408	4460
2570.345	4410
2572.28	4449
2574.214	4436
2576.148	4469
2578.081	4452
2580.014	4416
2581.947	4427
2583.879	4398
2585.81	4407
2587.741	4441
2589.67	4402
2591.602	4462
2593.532	4461
2595.461	4391
2597.388	4473
2599.316	4433
2601.244	4393
2603.172	4525
2605.098	4418
2607.023	4393
2608.949	4415
2610.873	4508
2612.8	4524
2614.723	4449
2616.647	4507
2618.569	4471
2620.493	4528
2622.416	4458
2624.338	4401
2626.258	4589
2628.179	4457
2630.099	4463
2632.019	4476
2633.939	4400
2635.857	4499
2637.775	4535
2639.694	4553
2641.61	4492
2643.528	4442
2645.444	4425
2647.361	4462
2649.276	4536
2651.19	4458
2653.105	4448
2655.019	4534
2656.934	4409
2658.846	4499
2660.758	4473
2662.67	4476
2664.583	4556
2666.493	4498
2668.404	4448
2670.313	4460
2672.223	4510
2674.134	4499
2676.042	4499
2677.95	4581
2679.858	4480
2681.765	4421
2683.673	4427
2685.579	4320
2687.483	4464
2689.389	4434
2691.294	4455
2693.198	4420
2695.104	4388
2697.006	4364
2698.909	4465
2700.811	4439
2702.713	4445
2704.615	4377
2706.516	4399
2708.417	4385
2710.316	4420
2712.216	4324
2714.115	4454
2716.014	4448
2717.913	4407
2719.81	4385
2721.707	4342
2723.603	4405
2725.501	4400
2727.396	4451
2729.292	4427
2731.186	4435
2733.081	4484
2734.976	4394
2736.87	4355
2738.762	4404
2740.653	4429
2742.546	4374
2744.437	4385
2746.329	4458
2748.22	4364
2750.11	4412
2751.999	4365
2753.889	4379
2755.778	4352
2757.666	4338
2759.553	4399
2761.44	4306
2763.328	4315
2765.215	4366
2767.101	4378
2768.986	4383
2770.87	4408
2772.754	4396
2774.638	4409
2776.523	4331
2778.405	4399
2780.288	4410
2782.17	4417
2784.051	4342
2785.934	4402
2787.814	4435
2789.694	4445
2791.574	4325
2793.453	4378
2795.332	4438
2797.212	4357
2799.088	4324
2800.966	4347
2802.843	4346
2804.719	4445
2806.597	4434
2808.471	4337
2810.346	4272
2812.221	4330
2814.094	4369
2815.969	4455
2817.843	4394
2819.714	4388
2821.587	4365
2823.459	4459
2825.329	4275
2827.202	4507
2829.072	4333
2830.942	4332
2832.811	4379
2834.68	4339
2836.549	4352
2838.418	4290
2840.284	4361
2842.152	4323
2844.018	4376
2845.885	4362
2847.751	4455
2849.616	4362
2851.482	4412
2853.345	4425
2855.208	4421
2857.074	4468
2858.937	4476
2860.799	4411
2862.66	4451
2864.522	4499
2866.385	4477
2868.245	4542
2870.104	4518
2871.964	4519
2873.824	4604
2875.683	4502
2877.542	4682
2879.4	4624
2881.257	4724
2883.114	4590
2884.97	4671
2886.827	4532
2888.683	4626
2890.537	4720
2892.392	4683
2894.246	4657
2896.1	4659
2897.954	4702
2899.807	4502
2901.66	4593
2903.51	4604
2905.362	4520
2907.214	4723
2909.065	4603
2910.915	4664
2912.765	4631
2914.613	4621
2916.463	4770
2918.311	4788
2920.158	4768
2922.006	4701
2923.853	4728
2925.698	4861
2927.546	4907
2929.392	4815
2931.236	4862
2933.081	4879
2934.924	4936
2936.77	4863
2938.613	4871
2940.455	5010
2942.298	4994
2944.139	4950
2945.982	5025
2947.823	4924
2949.662	4968
2951.503	4939
2953.342	4833
2955.182	4849
2957.021	4906
2958.858	4881
2960.697	4747
2962.534	4811
2964.37	4868
2966.207	4823
2968.044	4571
2969.879	4765
2971.714	4660
2973.548	4669
2975.383	4677
2977.218	4662
2979.051	4666
2980.883	4611
2982.715	4435
2984.547	4637
2986.379	4572
2988.21	4535
2990.04	4550
2991.87	4569
2993.7	4520
2995.53	4582
2997.359	4492
2999.187	4418
3001.015	4458
3002.842	4342
3004.669	4395
3006.497	4450
3008.323	4413
3010.148	4373
3011.974	4428
3013.797	4319
3015.623	4241
3017.447	4338
3019.27	4350
3021.094	4286
3022.915	4305
3024.737	4205
3026.56	4211
3028.38	4255
3030.201	4179
3032.022	4253
3033.84	4147
3035.662	4231
3037.481	4199
3039.298	4204
3041.117	4218
3042.933	4187
3044.752	4124
3046.568	4221
3048.385	4213
3050.2	4226
3052.016	4213
3053.83	4197
3055.646	4266
3057.46	4200
3059.272	4176
3061.086	4165
3062.898	4179
3064.711	4144
3066.524	4223
3068.335	4188
3070.145	4182
3071.956	4122
3073.766	4160
3075.576	4194
3077.385	4153
3079.193	4129
3081.002	4115
3082.81	4023
3084.618	4211
3086.425	4170
3088.231	4114
3090.036	4143
3091.842	4089
3093.648	4114
3095.452	4155
3097.257	4231
3099.06	4054
3100.863	4055
3102.666	4212
3104.47	4037
3106.272	4054
3108.073	4107
3109.875	4136
3111.676	4028
3113.477	4032
3115.277	3985
3117.077	4132
3118.874	4053
3120.673	4096
3122.473	3986
3124.271	4014
3126.066	4029
3127.863	3923
3129.66	4117
3131.456	3930
3133.252	3981
3135.047	3933
3136.842	3926
3138.635	3978
3140.429	4106
3142.223	4026
3144.016	4030
3145.808	4038
3147.6	4000
3149.392	4028
3151.183	3970
3152.975	4074
3154.765	4003
3156.553	3988
3158.344	3922
3160.132	3957
3161.922	3972
3163.71	3984
3165.497	4031
3167.285	4016
3169.071	4060
3170.858	3963
3172.645	3970
3174.429	4001
3176.214	3950
3177.998	4003
3179.783	3883
3181.568	3990
3183.351	4003
3185.133	3984
3186.915	3982
3188.698	3943
3190.481	3891
3192.261	3996
3194.042	3959
3195.822	3890
3197.601	3990
3199.381	4034
3201.161	3969
3202.939	3905
3204.717	3979
3206.495	3973
3208.272	3957
3210.05	3976
3211.826	4016
3213.602	3907
3215.376	3990
3217.151	4027
3218.927	3888
3220.702	4029
3222.476	3919
3224.249	3959
3226.021	3893
3227.793	3959
3229.567	3882
3231.339	3893
3233.109	4031
3234.88	3914
3236.651	3949
3238.421	3994
3240.191	3916
3241.96	3912
3243.728	3985
3245.497	3808
3247.263	3899
3249.033	3947
3250.799	3950
3252.566	3981
3254.331	3960
3256.097	3931
3257.863	3896
3259.628	3874
3261.392	3907
3263.156	3946
3264.919	3962
3266.683	3899
3268.447	4001
3270.208	3901
3271.969	3917
3273.731	3872
3275.492	3894
3277.253	3982
3279.013	3948
3280.773	3925
3282.532	4012
3284.291	3950
3286.05	3987
3287.808	3830
3289.566	3821
3291.323	3927
3293.079	3914
3294.835	3957
3296.593	3933
3298.348	3950
3300.102	3908
3301.857	3896
3303.611	3881
3305.366	3808
3307.119	3867
3308.872	3899
3310.624	3883
3312.376	3939
3314.129	3943
3315.881	3912
3317.631	3920
3319.38	3889
3321.13	3988
3322.88	3876
3324.631	3874
3326.379	3930
3328.126	3989
3329.875	3892
3331.622	3944
3333.371	3869
3335.116	3809
3336.863	3879
3338.609	3860
3340.353	3895
3342.1	3914
3343.845	3885
3345.588	3892
3347.332	3949
3349.074	3881
3350.817	3956
3352.56	3830
3354.303	3814
3356.043	3781
3357.785	3856
3359.525	3960
3361.268	3915
3363.007	3940
3364.745	3844
3366.485	3854
3368.223	3916
3369.962	3795
3371.701	3910
3373.438	3805
3375.174	3945
3376.911	3811
3378.647	3778
3380.384	3865
3382.118	3842
3383.854	3834
3385.588	3799
3387.322	3852
3389.057	3812
3390.79	3872
3392.522	3766
3394.255	3833
3395.987	3815
3397.719	3840
3399.451	3825
3401.181	3890
3402.911	3797
3404.641	3906
3406.371	3775
3408.101	3761
3409.83	3797
3411.558	3748
3413.285	3808
3415.011	3818
3416.739	3755
3418.467	3759
3420.193	3857
3421.919	3824
3423.644	3781
3425.368	3856
3427.094	3862
3428.818	3868
3430.542	3766
3432.264	3846
3433.987	3706
3435.712	3746
3437.434	3786
3439.155	3827
3440.876	3724
3442.596	3730
3444.317	3788
3446.039	3795
3447.757	3697
3449.477	3704
3451.195	3766
3452.914	3734
3454.632	3714
3456.35	3715
3458.067	3650
3459.784	3661
3461.5	3677
3463.216	3848
3464.932	3686
3466.647	3779
3468.362	3627
3470.076	3695
3471.789	3688
3473.505	3646
3475.217	3627
3476.929	3724
3478.641	3703
3480.354	3668
3482.066	3709
3483.777	3621
3485.487	3686
3487.197	3646
3488.908	3661
3490.617	3710
3492.327	3621
3494.035	3643
3495.743	3678
3497.451	3618
3499.158	3600
3500.866	3593
3502.572	3659
3504.278	3602
3505.984	3582
3507.689	3627
3509.396	3719
3511.1	3464
3512.804	3644
3514.508	3573
3516.211	3542
3517.913	3575
3519.616	3588
3521.319	3531
3523.021	3595
3524.722	3548
3526.422	3600
3528.124	3617
3529.824	3575
3531.524	3643
3533.222	3526
3534.921	3598
3536.62	3619
3538.318	3559
3540.016	3590
3541.714	3490
3543.41	3554
3545.107	3582
3546.803	3558
3548.5	3610
3550.194	3533
3551.889	3617
3553.583	3535
3555.279	3500
3556.972	3526
3558.666	3541
3560.358	3503
3562.051	3539
3563.742	3505
3565.435	3561
3567.126	3575
3568.817	3563
3570.507	3618
3572.197	3439
3573.888	3539
3575.577	3538
3577.265	3534
3578.954	3525
3580.642	3464
3582.329	3469
3584.017	3506
3585.704	3597
3587.391	3513
3589.077	3469
3590.762	3482
3592.449	3451
3594.133	3507
3595.817	3533
3597.501	3451
3599.185	3472
3600.869	3463
3602.552	3427
3604.234	3511
3605.916	3494
3607.598	3396
3609.279	3449
3610.961	3449
3612.642	3378
3614.321	3463
3616	3391
3617.68	3361
3619.36	3380
3621.039	3420
3622.716	3364
3624.394	3403
3626.071	3417
3627.748	3423
3629.425	3418
3631.102	3383
3632.778	3383
3634.452	3457
3636.127	3299
3637.803	3382
3639.477	3397
3641.151	3356
3642.823	3332
3644.497	3456
3646.171	3302
3647.842	3494
3649.515	3322
3651.185	3353
3652.857	3390
3654.527	3327
3656.198	3340
3657.868	3349
3659.537	3377
3661.207	3298
3662.875	3357
3664.544	3299
3666.212	3347
3667.879	3235
3669.546	3322
3671.212	3275
3672.88	3373
3674.546	3298
3676.211	3393
3677.875	3352
3679.541	3279
3681.205	3368
3682.87	3348
3684.533	3264
3686.196	3303
3687.859	3324
3689.521	3344
3691.184	3273
3692.845	3214
3694.507	3307
3696.167	3285
3697.827	3350
3699.487	3287
3701.148	3340
3702.808	3304
3704.466	3262
3706.125	3282
3707.783	3326
3709.442	3380
3711.099	3339
3712.757	3302
3714.412	3271
3716.068	3231
3717.725	3277
3719.381	3264
3721.036	3273
3722.689	3211
3724.344	3262
3725.998	3224
3727.652	3312
3729.305	3290
3730.958	3282
3732.61	3339
3734.262	3283
3735.915	3204
3737.565	3236
3739.217	3251
3740.866	3224
3742.516	3263
3744.165	3273
3745.816	3291
3747.464	3224
3749.113	3283
3750.761	3174
3752.409	3198
3754.057	3198
3755.703	3252
3757.35	3253
3758.996	3274
3760.641	3238
3762.289	3271
3763.933	3149
3765.577	3173
3767.222	3231
3768.865	3154
3770.508	3173
3772.152	3185
3773.796	3155
3775.438	3177
3777.079	3224
3778.721	3172
3780.363	3181
3782.003	3208
3783.643	3210
3785.283	3196
3786.923	3109
3788.563	3188
3790.203	3276
3791.841	3176
3793.479	3151
3795.115	3200
3796.753	3213
3798.391	3183
3800.027	3187
3801.664	3187
3803.299	3111
3804.935	3159
3806.571	3167
3808.206	3142
3809.839	3190
3811.473	3161
3813.107	3158
3814.74	3119
3816.375	3165
3818.006	3093
3819.638	3100
3821.27	3163
3822.9	3111
3824.532	3213
3826.163	3144
3827.792	3050
3829.423	3184
3831.051	3064
3832.682	3141
3834.311	3075
3835.938	3088
3837.566	3094
3839.193	3079
3840.821	3142
3842.448	3111
3844.075	3106
3845.7	3082
3847.325	3082
3848.951	3133
3850.576	3137
3852.201	3020
3853.825	3060
3855.448	3081
3857.072	3143
3858.694	3080
3860.318	3058
3861.939	3074
3863.562	3087
3865.183	3088
3866.804	3070
3868.426	2986
3870.045	3084
3871.666	3001
3873.285	3137
3874.904	3051
3876.524	3032
3878.142	3157
3879.76	3047
3881.378	3128
3882.995	2979
3884.612	3103
3886.229	3102
3887.845	2992
3889.461	3049
3891.076	3075
3892.691	3023
3894.307	3045
3895.922	3063
3897.536	3137
3899.149	3097
3900.761	3021
3902.374	2965
3903.988	3044
3905.6	3022
3907.212	3031
3908.822	2989
3910.433	3034
3912.045	3109
3913.655	3074
3915.265	3016
3916.875	3015
3918.483	3005
3920.093	3033
3921.702	3011
3923.309	3026
3924.917	3021
3926.523	2987
3928.13	2992
3929.739	3005
3931.344	3024
3932.95	2971
3934.555	3040
3936.159	2980
3937.766	2981
3939.369	2950
3940.974	2999
3942.577	2982
3944.181	2968
3945.783	2950
3947.386	2976
3948.989	3006
3950.59	3013
3952.191	2978
3953.791	2963
3955.394	2994
3956.994	2993
3958.593	2902
3960.192	2917
3961.791	2961
3963.392	3063
3964.99	2918
3966.588	2945
3968.185	2861
3969.782	2946
3971.379	2914
3972.976	2945
3974.572	2879
3976.168	2933
3977.763	2922
3979.358	2852
3980.954	2870
3982.548	2911
3984.142	2951
3985.736	2962
3987.329	2907
3988.922	2848
3990.516	2957
3992.108	2965
3993.698	2851
3995.29	2873
3996.881	2887
3998.473	2852
4000.064	2856
4001.653	2805
4003.242	2873
4004.832	2806
4006.422	2790
4008.01	2855
4009.598	2783
4011.186	2937
4012.773	2918
4014.36	2822
4015.947	2848
4017.534	2902
4019.119	2809
4020.705	2841
4022.291	2811
4023.876	2828
4025.461	2872
4027.044	2872
4028.627	2853
4030.211	2837
4031.795	2744
4033.378	2862
4034.96	2836
4036.542	2851
4038.124	2852
4039.704	2849
4041.286	2834
4042.867	2848
4044.447	2812
4046.026	2823
4047.606	2768
4049.187	2769
4050.765	2811
4052.343	2870
4053.92	2776
4055.498	2719
4057.076	2758
4058.654	2734
4060.23	2819
4061.806	2749
4063.381	2774
4064.957	2801
4066.533	2831
4068.107	2689
4069.682	2760
4071.256	2800
4072.829	2732
4074.404	2776
4075.977	2712
4077.549	2787
4079.121	2827
4080.693	2732
4082.265	2742
4083.836	2795
4085.407	2799
4086.977	2790
4088.547	2748
4090.117	2714
4091.687	2742
4093.256	2753
4094.825	2699
4096.392	2741
4097.96	2730
4099.528	2792
4101.097	2783
4102.663	2753
4104.229	2758
4105.795	2719
4107.361	2709
4108.928	2730
4110.493	2775
4112.058	2714
4113.621	2728
4115.186	2750
4116.75	2741
4118.313	2683
4119.876	2668
4121.438	2685
4123	2660
4124.562	2679
4126.125	2702
4127.686	2647
4129.246	2679
4130.807	2647
4132.367	2696
4133.927	2730
4135.486	2693
4137.046	2668
4138.604	2664
4140.162	2656
4141.72	2704
4143.279	2616
4144.836	2644
4146.393	2605
4147.949	2634
4149.505	2690
4151.062	2682
4152.617	2648
4154.172	2642
4155.727	2633
4157.281	2610
4158.836	2652
4160.39	2608
4161.943	2679
4163.496	2628
4165.048	2590
4166.601	2589
4168.154	2618
4169.706	2600
4171.257	2609
4172.808	2627
4174.358	2555
4175.909	2585
4177.458	2569
4179.008	2611
4180.558	2552
4182.106	2556
4183.655	2524
4185.204	2675
4186.751	2566
4188.298	2523
4189.845	2615
4191.392	2587
4192.939	2579
4194.485	2585
4196.031	2535
4197.576	2576
4199.121	2565
4200.666	2614
4202.211	2550
4203.754	2573
4205.298	2460
4206.84	2493
4208.384	2552
4209.927	2541
4211.47	2596
4213.011	2602
4214.552	2569
4216.094	2586
4217.635	2550
4219.175	2593
4220.716	2566
4222.255	2595
4223.793	2489
4225.335	2552
4226.873	2528
4228.411	2573
4229.948	2509
4231.486	2534
4233.024	2559
4234.562	2548
4236.098	2494
4237.634	2549
4239.169	2541
4240.705	2562
4242.241	2509
4243.776	2472
4245.31	2554
4246.844	2503
4248.378	2523
4249.911	2463
4251.445	2491
4252.978	2568
4254.51	2535
4256.042	2525
4257.574	2467
4259.107	2501
4260.638	2512
4262.169	2511
4263.699	2517
4265.228	2559
4266.759	2525
4268.289	2430
4269.818	2454
4271.345	2500
4272.874	2497
4274.402	2584
4275.931	2496
4277.458	2533
4278.985	2552
4280.512	2479
4282.037	2539
4283.564	2428
4285.089	2504
4286.615	2438
4288.139	2496
4289.664	2452
4291.187	2463
4292.712	2450
4294.235	2425
4295.759	2383
4297.281	2466
4298.804	2446
4300.327	2454
4301.849	2487
4303.37	2517
4304.891	2496
4306.412	2464
4307.933	2405
4309.453	2368
4310.973	2438
4312.492	2451
