398.1873	2894
400.7097	3010
403.2336	2985
405.7547	2982
408.2751	2986
410.7948	2921
413.3138	3050
415.83	3051
418.3497	3013
420.8666	3034
423.3829	3076
425.8985	3148
428.4133	3018
430.9275	3119
433.441	3141
435.9538	3105
438.4639	3145
440.9753	3126
443.4881	3177
445.9982	3172
448.5055	3121
451.0142	3132
453.5201	3193
456.0274	3166
458.5361	3137
461.04	3134
463.5453	3095
466.0478	3240
468.5517	3113
471.0549	3196
473.5574	3121
476.0572	3116
478.5584	3110
481.0568	3150
483.5545	3176
486.0557	3223
488.5521	3242
491.0478	3200
493.5449	3190
496.0392	3215
498.5349	3207
501.0299	3230
503.5222	3224
506.0139	3272
508.5048	3221
510.9991	3198
513.4887	3241
515.9777	3279
518.4659	3248
520.9534	3288
523.4403	3279
525.9306	3252
528.4161	3286
530.9009	3267
533.3851	3273
535.8687	3230
538.3535	3273
540.8356	3301
543.3171	3375
545.7979	3325
548.278	3210
550.7595	3203
553.2383	3322
555.7144	3268
558.1918	3317
560.6685	3335
563.1446	3308
565.6221	3355
568.0968	3363
570.5688	3328
573.0422	3366
575.515	3296
577.989	3372
580.4584	3381
582.9291	3341
585.3991	3377
587.8685	3406
590.3352	3324
592.8052	3419
595.2706	3382
597.7372	3419
600.2033	3388
602.6666	3308
605.1334	3411
607.5953	3371
610.0587	3301
612.5193	3374
614.9814	3389
617.4427	3409
619.9034	3417
622.3615	3303
624.8208	3343
627.2775	3444
629.7335	3448
632.1929	3355
634.6476	3349
637.1016	3480
639.5569	3382
642.0096	3368
644.4637	3315
646.9151	3395
649.3678	3411
651.8179	3463
654.2672	3467
656.7159	3343
659.166	3441
661.6154	3435
664.0622	3486
666.5082	3466
668.9537	3472
671.4005	3466
673.8445	3469
676.288	3478
678.7308	3445
681.1729	3531
683.6163	3430
686.0572	3466
688.4973	3483
690.9368	3433
693.3757	3498
695.8138	3600
698.2534	3519
700.6902	3518
703.1245	3523
705.56	3553
707.9949	3551
710.4311	3598
712.8647	3577
715.2957	3571
717.7279	3668
720.1595	3511
722.5905	3528
725.0208	3651
727.4505	3547
729.8795	3614
732.3058	3615
734.7336	3532
737.1626	3625
739.587	3653
742.0128	3657
744.4359	3607
746.8604	3725
749.2841	3650
751.7073	3737
754.1278	3622
756.5496	3670
758.9688	3709
761.3893	3665
763.8093	3672
766.2285	3697
768.6451	3715
771.0611	3724
773.4784	3764
775.895	3655
778.3091	3709
780.7244	3644
783.1371	3668
785.5493	3772
787.9626	3745
790.3754	3759
792.7856	3742
795.1951	3745
797.6039	3739
800.0121	3808
802.4236	3723
804.8306	3809
807.2369	3703
809.6425	3819
812.0475	3760
814.4538	3804
816.8575	3760
819.2606	3790
821.663	3810
824.0648	3858
826.4659	3768
828.8683	3718
831.2682	3811
833.6674	3736
836.066	3819
838.4639	3804
840.8632	3880
843.2579	3781
845.6539	3855
848.0493	3806
850.444	3887
852.84	3861
855.2315	3872
857.6243	3777
860.0165	3869
862.4081	3780
864.797	3859
867.1892	3731
869.5789	3859
871.9659	3876
874.3542	3820
876.74	3860
879.129	3843
881.5155	3722
883.8994	3869
886.2845	3772
888.6671	3841
891.051	3811
893.4343	3865
895.8169	3773
898.197	3806
900.5783	3801
902.9571	3824
905.3372	3846
907.7167	3850
910.0936	3851
912.4698	3819
914.8474	3845
917.2244	3873
919.5987	4006
921.9744	3912
924.3475	3892
926.72	4022
929.0918	4031
931.4669	3997
933.8375	4050
936.2074	3882
938.5767	3969
940.9454	4046
943.3154	4086
945.6829	4209
948.0497	4185
950.4178	4240
952.7833	4225
955.1483	4388
957.5145	4475
959.8782	4486
962.2412	4487
964.6036	4453
966.9655	4373
969.3266	4275
971.6871	4210
974.0471	4127
976.4064	4029
978.765	4013
981.125	3945
983.4824	3957
985.8373	3955
988.1935	3925
990.549	3947
992.9039	3952
995.2602	3939
997.6119	3835
999.965	3906
1002.317	3943
1004.667	4063
1007.02	4077
1009.371	3959
1011.719	3975
1014.068	4014
1016.415	4014
1018.765	3954
1021.111	4043
1023.458	4009
1025.804	4101
1028.147	3913
1030.49	4088
1032.837	4092
1035.179	4090
1037.522	4151
1039.862	4047
1042.204	4077
1044.546	4003
1046.884	4040
1049.224	4058
1051.562	4040
1053.899	4088
1056.237	4089
1058.575	3988
1060.91	4079
1063.244	4114
1065.58	4052
1067.913	4041
1070.248	4120
1072.579	4041
1074.911	4105
1077.242	4076
1079.572	3973
1081.905	4105
1084.234	4115
1086.562	4079
1088.89	3999
1091.217	4121
1093.544	4033
1095.871	4052
1098.197	4145
1100.521	4061
1102.845	4093
1105.169	4050
1107.491	4089
1109.814	4023
1112.135	4045
1114.456	4131
1116.776	4080
1119.096	4096
1121.415	4130
1123.734	4120
1126.052	4108
1128.369	4083
1130.686	4075
1133.002	4092
1135.318	4181
1137.632	4119
1139.945	4087
1142.258	4185
1144.573	4120
1146.884	4178
1149.196	4147
1151.505	4135
1153.816	4161
1156.124	4195
1158.435	4208
1160.742	4189
1163.051	4180
1165.356	4220
1167.663	4122
1169.97	4143
1172.276	4063
1174.579	4053
1176.881	4170
1179.186	4101
1181.487	4135
1183.79	4152
1186.092	4088
1188.392	4204
1190.691	4133
1192.991	4101
1195.291	4191
1197.588	4153
1199.885	4081
1202.181	4169
1204.479	4107
1206.775	4071
1209.07	4175
1211.363	4091
1213.656	4082
1215.949	4151
1218.241	4185
1220.534	4140
1222.825	4128
1225.115	4195
1227.405	4159
1229.693	4233
1231.984	4259
1234.271	4145
1236.558	4245
1238.845	4171
1241.131	4318
1243.416	4262
1245.703	4272
1247.987	4235
1250.269	4268
1252.552	4211
1254.834	4289
1257.118	4221
1259.399	4302
1261.678	4259
1263.958	4205
1266.237	4171
1268.516	4170
1270.794	4180
1273.072	4166
1275.347	4407
1277.624	4261
1279.899	4163
1282.175	4250
1284.449	4295
1286.722	4316
1288.995	4252
1291.266	4240
1293.54	4184
1295.81	4275
1298.081	4184
1300.35	4188
1302.62	4221
1304.889	4266
1307.156	4233
1309.425	4247
1311.69	4286
1313.957	4228
1316.222	4283
1318.488	4249
1320.751	4200
1323.016	4254
1325.278	4259
1327.54	4242
1329.803	4295
1332.065	4246
1334.325	4308
1336.584	4245
1338.843	4262
1341.101	4177
1343.36	4232
1345.617	4320
1347.876	4229
1350.131	4156
1352.387	4230
1354.643	4249
1356.897	4215
1359.151	4220
1361.403	4380
1363.656	4253
1365.909	4275
1368.16	4314
1370.409	4289
1372.659	4265
1374.909	4296
1377.157	4284
1379.407	4293
1381.655	4354
1383.9	4216
1386.147	4244
1388.393	4318
1390.64	4277
1392.885	4365
1395.127	4311
1397.37	4344
1399.614	4398
1401.854	4261
1404.098	4342
1406.339	4353
1408.578	4493
1410.818	4302
1413.056	4254
1415.297	4423
1417.533	4413
1419.771	4336
1422.006	4381
1424.243	4348
1426.479	4362
1428.715	4373
1430.948	4361
1433.182	4398
1435.414	4335
1437.647	4463
1439.88	4435
1442.11	4459
1444.342	4369
1446.571	4396
1448.799	4417
1451.029	4514
1453.258	4537
1455.485	4463
1457.711	4337
1459.937	4410
1462.164	4351
1464.39	4393
1466.614	4425
1468.838	4419
1471.06	4399
1473.283	4342
1475.506	4350
1477.727	4258
1479.949	4389
1482.169	4339
1484.389	4316
1486.609	4408
1488.828	4377
1491.045	4352
1493.261	4276
1495.477	4336
1497.693	4283
1499.91	4328
1502.125	4311
1504.339	4287
1506.553	4362
1508.766	4358
1510.979	4224
1513.191	4352
1515.402	4332
1517.613	4328
1519.823	4391
1522.033	4397
1524.242	4380
1526.451	4308
1528.657	4405
1530.865	4357
1533.072	4261
1535.278	4274
1537.484	4342
1539.687	4389
1541.892	4372
1544.096	4327
1546.299	4345
1548.502	4330
1550.703	4392
1552.905	4323
1555.104	4410
1557.303	4418
1559.505	4403
1561.703	4313
1563.902	4415
1566.099	4419
1568.295	4389
1570.494	4409
1572.689	4397
1574.883	4434
1577.079	4414
1579.272	4533
1581.467	4429
1583.659	4420
1585.853	4342
1588.044	4548
1590.234	4496
1592.424	4497
1594.615	4445
1596.806	4503
1598.994	4354
1601.182	4445
1603.369	4478
1605.557	4542
1607.744	4417
1609.929	4467
1612.114	4512
1614.298	4621
1616.482	4415
1618.667	4406
1620.85	4511
1623.032	4482
1625.214	4419
1627.395	4506
1629.575	4479
1631.755	4506
1633.935	4487
1636.114	4564
1638.292	4576
1640.471	4521
1642.647	4504
1644.823	4538
1647	4540
1649.175	4521
1651.348	4559
1653.525	4511
1655.698	4512
1657.87	4484
1660.043	4492
1662.213	4539
1664.387	4480
1666.558	4487
1668.727	4553
1670.896	4594
1673.064	4520
1675.233	4602
1677.401	4517
1679.569	4420
1681.735	4497
1683.902	4564
1686.066	4596
1688.233	4553
1690.397	4590
1692.559	4567
1694.723	4617
1696.885	4537
1699.048	4518
1701.21	4577
1703.37	4393
1705.53	4513
1707.689	4483
1709.849	4366
1712.009	4514
1714.166	4450
1716.323	4485
1718.479	4449
1720.634	4494
1722.793	4491
1724.948	4469
1727.102	4476
1729.255	4512
1731.408	4487
1733.562	4474
1735.714	4470
1737.865	4404
1740.016	4532
1742.166	4455
1744.316	4456
1746.467	4463
1748.616	4498
1750.764	4534
1752.911	4622
1755.056	4540
1757.205	4552
1759.35	4575
1761.496	4466
1763.641	4481
1765.785	4559
1767.927	4578
1770.072	4461
1772.214	4587
1774.355	4645
1776.496	4557
1778.637	4520
1780.778	4486
1782.918	4521
1785.057	4654
1787.194	4571
1789.333	4509
1791.472	4549
1793.608	4575
1795.745	4522
1797.879	4458
1800.015	4584
1802.148	4475
1804.284	4598
1806.417	4547
1808.548	4593
1810.682	4515
1812.812	4576
1814.946	4524
1817.075	4631
1819.205	4555
1821.335	4570
1823.463	4517
1825.59	4475
1827.721	4532
1829.847	4495
1831.973	4567
1834.098	4581
1836.223	4567
1838.351	4652
1840.475	4518
1842.598	4628
1844.721	4589
1846.843	4597
1848.966	4513
1851.087	4495
1853.21	4501
1855.33	4618
1857.449	4581
1859.568	4420
1861.688	4551
1863.806	4554
1865.924	4597
1868.039	4608
1870.155	4512
1872.273	4525
1874.388	4475
1876.503	4594
1878.617	4573
1880.73	4524
1882.844	4486
1884.956	4554
1887.068	4572
1889.18	4561
1891.291	4634
1893.4	4518
1895.511	4610
1897.621	4594
1899.73	4590
1901.837	4557
1903.944	4614
1906.053	4606
1908.159	4594
1910.265	4620
1912.369	4666
1914.474	4620
1916.577	4631
1918.683	4582
1920.785	4601
1922.888	4555
1924.989	4643
1927.091	4669
1929.193	4677
1931.294	4607
1933.393	4590
1935.493	4513
1937.59	4693
1939.689	4640
1941.788	4609
1943.884	4593
1945.98	4591
1948.077	4608
1950.171	4636
1952.267	4656
1954.361	4688
1956.455	4620
1958.548	4729
1960.64	4569
1962.733	4582
1964.824	4573
1966.915	4699
1969.005	4596
1971.096	4615
1973.185	4579
1975.275	4486
1977.363	4587
1979.45	4522
1981.537	4600
1983.623	4713
1985.711	4640
1987.796	4612
1989.881	4653
1991.965	4680
1994.047	4668
1996.132	4603
1998.215	4688
2000.297	4656
2002.378	4620
2004.46	4567
2006.54	4607
2008.62	4592
2010.7	4635
2012.779	4656
2014.858	4688
2016.934	4727
2019.013	4636
2021.09	4544
2023.165	4646
2025.241	4535
2027.317	4506
2029.39	4623
2031.466	4630
2033.538	4592
2035.612	4631
2037.683	4664
2039.755	4498
2041.827	4686
2043.898	4522
2045.968	4571
2048.038	4693
2050.106	4659
2052.177	4699
2054.244	4624
2056.313	4658
2058.379	4657
2060.444	4695
2062.511	4641
2064.577	4544
2066.641	4613
2068.705	4580
2070.77	4584
2072.832	4584
2074.896	4668
2076.958	4599
2079.02	4649
2081.081	4688
2083.141	4580
2085.2	4713
2087.261	4637
2089.319	4592
2091.377	4634
2093.435	4683
2095.492	4686
2097.552	4593
2099.607	4685
2101.663	4684
2103.718	4681
2105.771	4694
2107.826	4681
2109.879	4591
2111.932	4582
2113.985	4712
2116.037	4599
2118.088	4709
2120.141	4703
2122.191	4557
2124.239	4596
2126.288	4630
2128.337	4584
2130.387	4612
2132.434	4675
2134.481	4659
2136.528	4620
2138.574	4688
2140.618	4715
2142.665	4657
2144.71	4641
2146.753	4689
2148.797	4658
2150.838	4647
2152.883	4596
2154.923	4571
2156.965	4601
2159.007	4596
2161.046	4686
2163.086	4664
2165.126	4561
2167.163	4505
2169.202	4584
2171.239	4603
2173.277	4666
2175.314	4588
2177.349	4754
2179.385	4634
2181.42	4546
2183.453	4543
2185.49	4639
2187.522	4645
2189.555	4491
2191.586	4540
2193.619	4511
2195.651	4653
2197.682	4560
2199.711	4561
2201.74	4544
2203.769	4567
2205.799	4478
2207.828	4551
2209.855	4648
2211.882	4534
2213.908	4505
2215.934	4478
2217.961	4433
2219.986	4540
2222.01	4592
2224.034	4642
2226.057	4641
2228.08	4517
2230.104	4541
2232.124	4583
2234.145	4477
2236.166	4618
2238.186	4576
2240.207	4524
2242.227	4580
2244.244	4621
2246.262	4601
2248.28	4546
2250.299	4557
2252.314	4562
2254.33	4505
2256.346	4583
2258.36	4462
2260.375	4601
2262.391	4600
2264.403	4606
2266.416	4543
2268.427	4535
2270.44	4516
2272.453	4542
2274.463	4586
2276.474	4568
2278.483	4567
2280.493	4552
2282.501	4523
2284.51	4593
2286.518	4550
2288.524	4576
2290.532	4543
2292.537	4664
2294.544	4613
2296.55	4567
2298.554	4464
2300.557	4546
2302.562	4564
2304.566	4685
2306.568	4502
2308.569	4532
2310.572	4530
2312.573	4568
2314.573	4621
2316.574	4514
2318.573	4506
2320.571	4549
2322.571	4632
2324.569	4610
2326.567	4518
2328.564	4575
2330.56	4482
2332.556	4590
2334.551	4530
2336.546	4509
2338.542	4416
2340.535	4501
2342.529	4522
2344.521	4655
2346.512	4504
2348.505	4496
2350.497	4526
2352.487	4563
2354.478	4527
2356.468	4416
2358.457	4534
2360.446	4574
2362.434	4520
2364.422	4454
2366.408	4547
2368.395	4431
2370.383	4432
2372.369	4419
2374.353	4567
2376.338	4582
2378.321	4439
2380.307	4429
2382.29	4384
2384.272	4462
2386.254	4441
2388.235	4360
2390.218	4494
2392.198	4436
2394.179	4414
2396.157	4512
2398.137	4448
2400.115	4406
2402.095	4431
2404.072	4392
2406.048	4475
2408.026	4456
2410.001	4441
2411.977	4470
2413.953	4396
2415.927	4413
2417.9	4482
2419.875	4400
2421.847	4444
2423.821	4368
2425.792	4521
2427.763	4409
2429.736	4476
2431.706	4437
2433.677	4382
2435.646	4422
2437.615	4498
2439.583	4404
2441.551	4486
2443.519	4464
2445.486	4586
2447.452	4483
2449.418	4436
2451.383	4418
2453.348	4386
2455.314	4427
2457.278	4401
2459.241	4413
2461.205	4445
2463.167	4525
2465.131	4400
2467.091	4446
2469.052	4409
2471.012	4395
2472.972	4424
2474.932	4334
2476.891	4392
2478.85	4516
2480.808	4468
2482.766	4375
2484.722	4329
2486.68	4400
2488.636	4447
2490.591	4490
2492.546	4375
2494.5	4425
2496.456	4342
2498.41	4443
2500.362	4415
2502.315	4388
2504.266	4413
2506.218	4436
2508.169	4354
2510.121	4471
2512.07	4545
2514.019	4331
2515.968	4470
2517.918	4363
2519.866	4381
2521.813	4393
2523.76	4407
2525.707	4370
2527.653	4403
2529.599	4356
2531.543	4463
2533.489	4359
2535.433	4364
2537.376	4331
2539.32	4329
2541.264	4358
2543.205	4358
2545.147	4368
2547.087	4403
2549.029	4333
2550.969	4419
2552.908	4420
2554.847	4387
2556.786	4395
2558.724	4250
2560.663	4358
2562.6	4344
2564.537	4432
2566.473	4331
2568.408	4399
2570.345	4396
2572.28	4463
2574.214	4405
2576.148	4347
2578.081	4365
2580.014	4351
2581.947	4408
2583.879	4334
2585.81	4356
2587.741	4368
2589.67	4438
2591.602	4359
2593.532	4389
2595.461	4411
2597.388	4413
2599.316	4433
2601.244	4375
2603.172	4395
2605.098	4415
2607.023	4425
2608.949	4394
2610.873	4499
2612.8	4362
2614.723	4334
2616.647	4445
2618.569	4452
2620.493	4467
2622.416	4405
2624.338	4487
2626.258	4490
2628.179	4348
2630.099	4382
2632.019	4384
2633.939	4399
2635.857	4518
2637.775	4434
2639.694	4449
2641.61	4364
2643.528	4448
2645.444	4467
2647.361	4399
2649.276	4404
2651.19	4466
2653.105	4346
2655.019	4453
2656.934	4359
2658.846	4380
2660.758	4469
2662.67	4390
2664.583	4323
2666.493	4393
2668.404	4332
2670.313	4346
2672.223	4435
2674.134	4401
2676.042	4341
2677.95	4356
2679.858	4357
2681.765	4472
2683.673	4348
2685.579	4370
2687.483	4358
2689.389	4384
2691.294	4328
2693.198	4403
2695.104	4369
2697.006	4391
2698.909	4313
2700.811	4385
2702.713	4442
2704.615	4395
2706.516	4325
2708.417	4407
2710.316	4279
2712.216	4329
2714.115	4473
2716.014	4351
2717.913	4378
2719.81	4389
2721.707	4347
2723.603	4423
2725.501	4365
2727.396	4229
2729.292	4320
2731.186	4418
2733.081	4381
2734.976	4294
2736.87	4314
2738.762	4319
2740.653	4216
2742.546	4344
2744.437	4244
2746.329	4310
2748.22	4254
2750.11	4229
2751.999	4341
2753.889	4406
2755.778	4285
2757.666	4252
2759.553	4286
2761.44	4328
2763.328	4303
2765.215	4380
2767.101	4325
2768.986	4365
2770.87	4295
2772.754	4329
2774.638	4254
2776.523	4299
2778.405	4297
2780.288	4250
2782.17	4350
2784.051	4249
2785.934	4431
2787.814	4305
2789.694	4227
2791.574	4320
2793.453	4229
2795.332	4328
2797.212	4343
2799.088	4283
2800.966	4207
2802.843	4277
2804.719	4265
2806.597	4344
2808.471	4238
2810.346	4205
2812.221	4338
2814.094	4311
2815.969	4272
2817.843	4260
2819.714	4375
2821.587	4237
2823.459	4254
2825.329	4246
2827.202	4292
2829.072	4258
2830.942	4301
2832.811	4283
2834.68	4282
2836.549	4352
2838.418	4298
2840.284	4270
2842.152	4250
2844.018	4263
2845.885	4327
2847.751	4213
2849.616	4372
2851.482	4353
2853.345	4270
2855.208	4243
2857.074	4347
2858.937	4394
2860.799	4315
2862.66	4296
2864.522	4423
2866.385	4328
2868.245	4430
2870.104	4376
2871.964	4464
2873.824	4369
2875.683	4541
2877.542	4378
2879.4	4512
2881.257	4496
2883.114	4430
2884.97	4518
2886.827	4412
2888.683	4552
2890.537	4525
2892.392	4484
2894.246	4412
2896.1	4513
2897.954	4525
2899.807	4465
2901.66	4505
2903.51	4367
2905.362	4454
2907.214	4431
2909.065	4524
2910.915	4553
2912.765	4549
2914.613	4524
2916.463	4567
2918.311	4547
2920.158	4578
2922.006	4467
2923.853	4632
2925.698	4582
2927.546	4626
2929.392	4691
2931.236	4649
2933.081	4691
2934.924	4644
2936.77	4738
2938.613	4701
2940.455	4762
2942.298	4719
2944.139	4747
2945.982	4807
2947.823	4753
2949.662	4675
2951.503	4729
2953.342	4556
2955.182	4614
2957.021	4644
2958.858	4559
2960.697	4639
2962.534	4566
2964.37	4580
2966.207	4535
2968.044	4599
2969.879	4538
2971.714	4427
2973.548	4494
2975.383	4504
2977.218	4504
2979.051	4525
2980.883	4409
2982.715	4416
2984.547	4449
2986.379	4393
2988.21	4365
2990.04	4402
2991.87	4420
2993.7	4408
2995.53	4298
2997.359	4375
2999.187	4352
3001.015	4349
3002.842	4150
3004.669	4172
3006.497	4226
3008.323	4279
3010.148	4242
3011.974	4206
3013.797	4168
3015.623	4175
3017.447	4123
3019.27	4199
3021.094	4256
3022.915	4095
3024.737	4152
3026.56	4079
3028.38	4127
3030.201	4101
3032.022	4209
3033.84	4155
3035.662	4099
3037.481	4052
3039.298	4074
3041.117	4241
3042.933	4055
3044.752	4055
3046.568	4060
3048.385	4055
3050.2	4115
3052.016	4214
3053.83	4043
3055.646	4078
3057.46	4105
3059.272	4092
3061.086	4059
3062.898	4148
3064.711	4113
3066.524	4097
3068.335	4055
3070.145	4086
3071.956	4012
3073.766	4065
3075.576	4020
3077.385	4057
3079.193	4008
3081.002	4121
3082.81	3978
3084.618	4066
3086.425	3961
3088.231	4089
3090.036	4020
3091.842	3979
3093.648	3928
3095.452	4002
3097.257	4018
3099.06	3945
3100.863	4010
3102.666	4040
3104.47	3927
3106.272	3873
3108.073	3972
3109.875	3922
3111.676	3883
3113.477	3882
3115.277	3992
3117.077	3905
3118.874	3977
3120.673	3980
3122.473	3892
3124.271	3914
3126.066	3931
3127.863	3935
3129.66	3888
3131.456	3902
3133.252	3861
3135.047	3890
3136.842	3962
3138.635	3882
3140.429	3947
3142.223	3915
3144.016	3983
3145.808	3885
3147.6	3990
3149.392	3916
3151.183	3970
3152.975	3916
3154.765	3786
3156.553	3894
3158.344	3851
3160.132	3871
3161.922	3958
3163.71	3787
3165.497	3890
3167.285	3882
3169.071	3824
3170.858	3842
3172.645	3875
3174.429	3793
3176.214	3799
3177.998	3872
3179.783	3901
3181.568	3910
3183.351	3769
3185.133	3840
3186.915	3879
3188.698	3852
3190.481	3774
3192.261	3836
3194.042	3737
3195.822	3833
3197.601	3887
3199.381	3764
3201.161	3851
3202.939	3882
3204.717	3840
3206.495	3797
3208.272	3829
3210.05	3836
3211.826	3811
3213.602	3897
3215.376	3856
3217.151	3849
3218.927	3878
3220.702	3845
3222.476	3814
3224.249	3813
3226.021	3792
3227.793	3743
3229.567	3883
3231.339	3861
3233.109	3739
3234.88	3827
3236.651	3730
3238.421	3767
3240.191	3857
3241.96	3801
3243.728	3782
3245.497	3741
3247.263	3824
3249.033	3834
3250.799	3709
3252.566	3819
3254.331	3745
3256.097	3719
3257.863	3740
3259.628	3787
3261.392	3765
3263.156	3747
3264.919	3802
3266.683	3791
3268.447	3801
3270.208	3712
3271.969	3758
3273.731	3814
3275.492	3865
3277.253	3862
3279.013	3757
3280.773	3828
3282.532	3744
3284.291	3728
3286.05	3812
3287.808	3829
3289.566	3841
3291.323	3743
3293.079	3788
3294.835	3799
3296.593	3842
3298.348	3696
3300.102	3864
3301.857	3774
3303.611	3703
3305.366	3668
3307.119	3797
3308.872	3791
3310.624	3771
3312.376	3772
3314.129	3705
3315.881	3782
3317.631	3711
3319.38	3763
3321.13	3726
3322.88	3808
3324.631	3792
3326.379	3718
3328.126	3790
3329.875	3780
3331.622	3749
3333.371	3712
3335.116	3718
3336.863	3697
3338.609	3659
3340.353	3704
3342.1	3737
3343.845	3763
3345.588	3734
3347.332	3721
3349.074	3721
3350.817	3745
3352.56	3672
3354.303	3682
3356.043	3704
3357.785	3725
3359.525	3694
3361.268	3665
3363.007	3662
3364.745	3604
3366.485	3670
3368.223	3658
3369.962	3751
3371.701	3657
3373.438	3696
3375.174	3711
3376.911	3612
3378.647	3681
3380.384	3629
3382.118	3676
3383.854	3618
3385.588	3651
3387.322	3598
3389.057	3689
3390.79	3664
3392.522	3621
3394.255	3647
3395.987	3699
3397.719	3705
3399.451	3701
3401.181	3716
3402.911	3612
3404.641	3704
3406.371	3620
3408.101	3640
3409.83	3616
3411.558	3685
3413.285	3662
3415.011	3694
3416.739	3654
3418.467	3633
3420.193	3600
3421.919	3687
3423.644	3630
3425.368	3646
3427.094	3660
3428.818	3608
3430.542	3623
3432.264	3653
3433.987	3528
3435.712	3561
3437.434	3594
3439.155	3573
3440.876	3589
3442.596	3561
3444.317	3564
3446.039	3664
3447.757	3562
3449.477	3536
3451.195	3572
3452.914	3595
3454.632	3570
3456.35	3571
3458.067	3576
3459.784	3618
3461.5	3596
3463.216	3582
3464.932	3554
3466.647	3632
3468.362	3523
3470.076	3539
3471.789	3471
3473.505	3549
3475.217	3573
3476.929	3520
3478.641	3543
3480.354	3495
3482.066	3537
3483.777	3470
3485.487	3519
3487.197	3455
3488.908	3534
3490.617	3528
3492.327	3568
3494.035	3528
3495.743	3512
3497.451	3455
3499.158	3483
3500.866	3469
3502.572	3445
3504.278	3445
3505.984	3438
3507.689	3514
3509.396	3491
3511.1	3503
3512.804	3490
3514.508	3425
3516.211	3487
3517.913	3460
3519.616	3425
3521.319	3399
3523.021	3495
3524.722	3428
3526.422	3443
3528.124	3493
3529.824	3478
3531.524	3398
3533.222	3405
3534.921	3426
3536.62	3429
3538.318	3419
3540.016	3431
3541.714	3362
3543.41	3384
3545.107	3454
3546.803	3430
3548.5	3352
3550.194	3401
3551.889	3362
3553.583	3364
3555.279	3426
3556.972	3372
3558.666	3347
3560.358	3391
3562.051	3407
3563.742	3369
3565.435	3357
3567.126	3376
3568.817	3351
3570.507	3323
3572.197	3313
3573.888	3387
3575.577	3372
3577.265	3310
3578.954	3371
3580.642	3328
3582.329	3365
3584.017	3422
3585.704	3351
3587.391	3329
3589.077	3279
3590.762	3287
3592.449	3396
3594.133	3297
3595.817	3284
3597.501	3376
3599.185	3371
3600.869	3363
3602.552	3263
3604.234	3303
3605.916	3292
3607.598	3206
3609.279	3311
3610.961	3245
3612.642	3281
3614.321	3358
3616	3315
3617.68	3268
3619.36	3232
3621.039	3278
3622.716	3314
3624.394	3278
3626.071	3215
3627.748	3251
3629.425	3238
3631.102	3275
3632.778	3257
3634.452	3240
3636.127	3227
3637.803	3296
3639.477	3218
3641.151	3252
3642.823	3268
3644.497	3247
3646.171	3244
3647.842	3174
3649.515	3253
3651.185	3219
3652.857	3223
3654.527	3253
3656.198	3196
3657.868	3228
3659.537	3174
3661.207	3186
3662.875	3164
3664.544	3242
3666.212	3164
3667.879	3211
3669.546	3220
3671.212	3267
3672.88	3199
3674.546	3222
3676.211	3167
3677.875	3122
3679.541	3080
3681.205	3150
3682.87	3103
3684.533	3108
3686.196	3178
3687.859	3136
3689.521	3215
3691.184	3108
3692.845	3197
3694.507	3113
3696.167	3157
3697.827	3122
3699.487	3165
3701.148	3094
3702.808	3120
3704.466	3126
3706.125	3216
3707.783	3135
3709.442	3098
3711.099	3168
3712.757	3160
3714.412	3158
3716.068	3214
3717.725	3111
3719.381	3189
3721.036	3183
3722.689	3133
3724.344	3109
3725.998	3144
3727.652	3145
3729.305	3069
3730.958	3110
3732.61	3111
3734.262	3136
3735.915	3091
3737.565	3049
3739.217	3116
3740.866	3096
3742.516	3143
3744.165	3159
3745.816	3111
3747.464	3075
3749.113	3134
3750.761	3155
3752.409	3099
3754.057	3049
3755.703	3125
3757.35	3100
3758.996	3061
3760.641	3070
3762.289	3024
3763.933	3046
3765.577	3158
3767.222	3007
3768.865	3026
3770.508	2974
3772.152	3037
3773.796	3123
3775.438	3064
3777.079	3081
3778.721	3079
3780.363	3122
3782.003	3021
3783.643	3097
3785.283	3034
3786.923	3036
3788.563	2965
3790.203	3038
3791.841	3037
3793.479	3007
3795.115	2966
3796.753	2993
3798.391	3028
3800.027	2986
3801.664	3084
3803.299	3042
3804.935	2990
3806.571	3021
3808.206	3034
3809.839	2975
3811.473	2994
3813.107	3011
3814.74	2968
3816.375	2975
3818.006	3015
3819.638	2940
3821.27	2876
3822.9	2972
3824.532	2995
3826.163	2909
3827.792	2985
3829.423	3020
3831.051	2997
3832.682	2917
3834.311	2985
3835.938	2980
3837.566	2945
3839.193	2966
3840.821	2933
3842.448	3001
3844.075	2917
3845.7	2895
3847.325	2937
3848.951	2959
3850.576	2965
3852.201	2869
3853.825	2993
3855.448	2963
3857.072	2885
3858.694	2894
3860.318	2854
3861.939	2909
3863.562	2876
3865.183	2923
3866.804	2867
3868.426	2960
3870.045	2930
3871.666	2973
3873.285	2939
3874.904	2973
3876.524	2867
3878.142	2851
3879.76	2896
3881.378	2973
3882.995	2903
3884.612	2901
3886.229	2876
3887.845	2919
3889.461	2951
3891.076	2856
3892.691	2892
3894.307	2912
3895.922	2906
3897.536	2898
3899.149	2881
3900.761	2882
3902.374	2908
3903.988	2910
3905.6	2880
3907.212	2862
3908.822	2861
3910.433	2907
3912.045	2863
3913.655	2848
3915.265	2861
3916.875	2928
3918.483	2855
3920.093	2824
3921.702	2822
3923.309	2838
3924.917	2831
3926.523	2803
3928.13	2791
3929.739	2883
3931.344	2856
3932.95	2817
3934.555	2822
3936.159	2833
3937.766	2791
3939.369	2784
3940.974	2837
3942.577	2824
3944.181	2847
3945.783	2832
3947.386	2865
3948.989	2789
3950.59	2817
3952.191	2863
3953.791	2798
3955.394	2870
3956.994	2843
3958.593	2792
3960.192	2920
3961.791	2804
3963.392	2758
3964.99	2803
3966.588	2808
3968.185	2794
3969.782	2818
3971.379	2783
3972.976	2739
3974.572	2761
3976.168	2747
3977.763	2717
3979.358	2767
3980.954	2727
3982.548	2811
3984.142	2750
3985.736	2719
3987.329	2768
3988.922	2683
3990.516	2691
3992.108	2784
3993.698	2755
3995.29	2725
3996.881	2671
3998.473	2813
4000.064	2769
4001.653	2765
4003.242	2709
4004.832	2699
4006.422	2699
4008.01	2671
4009.598	2733
4011.186	2757
4012.773	2672
4014.36	2765
4015.947	2693
4017.534	2712
4019.119	2709
4020.705	2712
4022.291	2718
4023.876	2710
4025.461	2691
4027.044	2654
4028.627	2738
4030.211	2711
4031.795	2742
4033.378	2635
4034.96	2679
4036.542	2621
4038.124	2710
4039.704	2612
4041.286	2702
4042.867	2625
4044.447	2736
4046.026	2634
4047.606	2686
4049.187	2662
4050.765	2619
4052.343	2618
4053.92	2650
4055.498	2635
4057.076	2601
4058.654	2675
4060.23	2607
4061.806	2622
4063.381	2645
4064.957	2562
4066.533	2639
4068.107	2576
4069.682	2640
4071.256	2608
4072.829	2629
4074.404	2610
4075.977	2637
4077.549	2596
4079.121	2643
4080.693	2574
4082.265	2609
4083.836	2581
4085.407	2672
4086.977	2634
4088.547	2601
4090.117	2555
4091.687	2562
4093.256	2582
4094.825	2524
4096.392	2542
4097.96	2557
4099.528	2557
4101.097	2554
4102.663	2565
4104.229	2599
4105.795	2631
4107.361	2633
4108.928	2594
4110.493	2514
4112.058	2564
4113.621	2598
4115.186	2586
4116.75	2600
4118.313	2577
4119.876	2518
4121.438	2519
4123	2492
4124.562	2604
4126.125	2542
4127.686	2507
4129.246	2553
4130.807	2525
4132.367	2469
4133.927	2539
4135.486	2531
4137.046	2579
4138.604	2556
4140.162	2551
4141.72	2547
4143.279	2474
4144.836	2540
4146.393	2473
4147.949	2480
4149.505	2526
4151.062	2443
4152.617	2492
4154.172	2488
4155.727	2443
4157.281	2512
4158.836	2462
4160.39	2431
4161.943	2427
4163.496	2473
4165.048	2490
4166.601	2425
4168.154	2438
4169.706	2454
4171.257	2465
4172.808	2472
4174.358	2451
4175.909	2453
4177.458	2510
4179.008	2447
4180.558	2481
4182.106	2465
4183.655	2471
4185.204	2388
4186.751	2446
4188.298	2443
4189.845	2438
4191.392	2508
4192.939	2457
4194.485	2477
4196.031	2461
4197.576	2448
4199.121	2428
4200.666	2450
4202.211	2412
4203.754	2370
4205.298	2439
4206.84	2426
4208.384	2399
4209.927	2436
4211.47	2395
4213.011	2411
4214.552	2371
4216.094	2399
4217.635	2411
4219.175	2377
4220.716	2412
4222.255	2419
4223.793	2368
4225.335	2410
4226.873	2403
4228.411	2404
4229.948	2352
4231.486	2364
4233.024	2345
4234.562	2398
4236.098	2353
4237.634	2384
4239.169	2375
4240.705	2336
4242.241	2332
4243.776	2341
4245.31	2420
4246.844	2370
4248.378	2356
4249.911	2386
4251.445	2361
4252.978	2335
4254.51	2356
4256.042	2351
4257.574	2345
4259.107	2333
4260.638	2371
4262.169	2332
4263.699	2362
4265.228	2356
4266.759	2267
4268.289	2352
4269.818	2350
4271.345	2319
4272.874	2360
4274.402	2379
4275.931	2321
4277.458	2383
4278.985	2270
4280.512	2312
4282.037	2374
4283.564	2310
4285.089	2326
4286.615	2297
4288.139	2360
4289.664	2312
4291.187	2355
4292.712	2339
4294.235	2250
4295.759	2275
4297.281	2243
4298.804	2308
4300.327	2316
4301.849	2279
4303.37	2319
4304.891	2325
4306.412	2294
4307.933	2264
4309.453	2272
4310.973	2310
4312.492	2297
