398.1873	6550
400.7097	6671
403.2336	6587
405.7547	6686
408.2751	6668
410.7948	6696
413.3138	6841
415.83	6740
418.3497	6845
420.8666	6910
423.3829	6971
425.8985	6996
428.4133	7182
430.9275	7031
433.441	7105
435.9538	7151
438.4639	7108
440.9753	7133
443.4881	7131
445.9982	7176
448.5055	7136
451.0142	7173
453.5201	7168
456.0274	7161
458.5361	7022
461.04	7183
463.5453	7224
466.0478	7127
468.5517	7202
471.0549	7233
473.5574	7233
476.0572	7278
478.5584	7165
481.0568	7193
483.5545	7257
486.0557	7265
488.5521	7258
491.0478	7397
493.5449	7264
496.0392	7409
498.5349	7357
501.0299	7450
503.5222	7471
506.0139	7361
508.5048	7551
510.9991	7534
513.4887	7502
515.9777	7393
518.4659	7461
520.9534	7530
523.4403	7557
525.9306	7549
528.4161	7468
530.9009	7495
533.3851	7358
535.8687	7523
538.3535	7574
540.8356	7484
543.3171	7526
545.7979	7541
548.278	7567
550.7595	7531
553.2383	7642
555.7144	7566
558.1918	7612
560.6685	7609
563.1446	7526
565.6221	7576
568.0968	7604
570.5688	7681
573.0422	7744
575.515	7635
577.989	7744
580.4584	7774
582.9291	7878
585.3991	7743
587.8685	7906
590.3352	7869
592.8052	7794
595.2706	7751
597.7372	7761
600.2033	7841
602.6666	7815
605.1334	7819
607.5953	7808
610.0587	7855
612.5193	7770
614.9814	7732
617.4427	7852
619.9034	7734
622.3615	7749
624.8208	7787
627.2775	7803
629.7335	7584
632.1929	7682
634.6476	7719
637.1016	7778
639.5569	7800
642.0096	7808
644.4637	7795
646.9151	7818
649.3678	7892
651.8179	7822
654.2672	7970
656.7159	7982
659.166	7878
661.6154	7979
664.0622	7947
666.5082	7886
668.9537	7975
671.4005	7877
673.8445	8022
676.288	8047
678.7308	7986
681.1729	7963
683.6163	8039
686.0572	8032
688.4973	8132
690.9368	8074
693.3757	7930
695.8138	8044
698.2534	8090
700.6902	8060
703.1245	8061
705.56	7996
707.9949	8146
710.4311	8296
712.8647	8079
715.2957	8041
717.7279	8301
720.1595	8126
722.5905	8294
725.0208	8174
727.4505	8261
729.8795	8193
732.3058	8384
734.7336	8366
737.1626	8408
739.587	8327
742.0128	8355
744.4359	8488
746.8604	8496
749.2841	8575
751.7073	8464
754.1278	8604
756.5496	8597
758.9688	8604
761.3893	8590
763.8093	8566
766.2285	8643
768.6451	8526
771.0611	8731
773.4784	8597
775.895	8543
778.3091	8634
780.7244	8627
783.1371	8699
785.5493	8687
787.9626	8569
790.3754	8613
792.7856	8594
795.1951	8700
797.6039	8685
800.0121	8667
802.4236	8579
804.8306	8647
807.2369	8594
809.6425	8831
812.0475	8637
814.4538	8922
816.8575	8924
819.2606	8820
821.663	8702
824.0648	8790
826.4659	8757
828.8683	8824
831.2682	8608
833.6674	8800
836.066	8806
838.4639	8874
840.8632	8716
843.2579	9028
845.6539	8821
848.0493	8887
850.444	8820
852.84	8874
855.2315	8801
857.6243	8889
860.0165	8983
862.4081	8856
864.797	8993
867.1892	8924
869.5789	8885
871.9659	8908
874.3542	8908
876.74	8949
879.129	8923
881.5155	8890
883.8994	8875
886.2845	8981
888.6671	8760
891.051	8929
893.4343	8839
895.8169	8860
898.197	8908
900.5783	8823
902.9571	8857
905.3372	8945
907.7167	9012
910.0936	8925
912.4698	9129
914.8474	9096
917.2244	9161
919.5987	9248
921.9744	9093
924.3475	9097
926.72	9292
929.0918	9252
931.4669	9251
933.8375	9438
936.2074	9352
938.5767	9295
940.9454	9535
943.3154	9434
945.6829	9802
948.0497	9931
950.4178	10050
952.7833	10192
955.1483	10697
957.5145	10894
959.8782	10995
962.2412	11111
964.6036	11086
966.9655	10588
969.3266	10304
971.6871	9903
974.0471	9651
976.4064	9467
978.765	9370
981.125	9227
983.4824	9267
985.8373	9230
988.1935	9164
990.549	9204
992.9039	9163
995.2602	9337
997.6119	9197
999.965	9166
1002.317	9321
1004.667	9183
1007.02	9234
1009.371	9303
1011.719	9181
1014.068	9178
1016.415	9287
1018.765	9320
1021.111	9374
1023.458	9322
1025.804	9319
1028.147	9346
1030.49	9298
1032.837	9364
1035.179	9465
1037.522	9429
1039.862	9362
1042.204	9371
1044.546	9490
1046.884	9394
1049.224	9311
1051.562	9529
1053.899	9393
1056.237	9525
1058.575	9402
1060.91	9490
1063.244	9558
1065.58	9581
1067.913	9484
1070.248	9643
1072.579	9578
1074.911	9597
1077.242	9537
1079.572	9492
1081.905	9473
1084.234	9486
1086.562	9610
1088.89	9289
1091.217	9405
1093.544	9721
1095.871	9466
1098.197	9302
1100.521	9403
1102.845	9499
1105.169	9473
1107.491	9352
1109.814	9448
1112.135	9463
1114.456	9524
1116.776	9377
1119.096	9489
1121.415	9432
1123.734	9476
1126.052	9606
1128.369	9540
1130.686	9460
1133.002	9494
1135.318	9512
1137.632	9635
1139.945	9554
1142.258	9381
1144.573	9541
1146.884	9500
1149.196	9561
1151.505	9646
1153.816	9541
1156.124	9514
1158.435	9441
1160.742	9547
1163.051	9498
1165.356	9516
1167.663	9530
1169.97	9545
1172.276	9503
1174.579	9557
1176.881	9619
1179.186	9464
1181.487	9515
1183.79	9554
1186.092	9502
1188.392	9421
1190.691	9482
1192.991	9355
1195.291	9576
1197.588	9564
1199.885	9543
1202.181	9375
1204.479	9603
1206.775	9530
1209.07	9481
1211.363	9568
1213.656	9432
1215.949	9583
1218.241	9620
1220.534	9543
1222.825	9600
1225.115	9597
1227.405	9638
1229.693	9671
1231.984	9789
1234.271	9723
1236.558	9755
1238.845	9760
1241.131	9811
1243.416	9844
1245.703	9727
1247.987	9805
1250.269	9833
1252.552	9905
1254.834	9818
1257.118	9832
1259.399	9859
1261.678	9874
1263.958	9927
1266.237	9865
1268.516	9866
1270.794	9897
1273.072	9772
1275.347	9922
1277.624	9738
1279.899	9754
1282.175	9717
1284.449	9830
1286.722	9819
1288.995	9736
1291.266	9655
1293.54	9785
1295.81	9821
1298.081	9772
1300.35	9779
1302.62	9638
1304.889	9836
1307.156	9792
1309.425	9744
1311.69	9730
1313.957	9851
1316.222	9600
1318.488	9792
1320.751	9756
1323.016	9749
1325.278	9682
1327.54	9952
1329.803	9843
1332.065	9678
1334.325	9860
1336.584	9696
1338.843	9830
1341.101	9893
1343.36	9839
1345.617	9800
1347.876	9910
1350.131	9804
1352.387	9816
1354.643	9871
1356.897	9676
1359.151	9798
1361.403	9851
1363.656	9792
1365.909	9679
1368.16	9729
1370.409	9891
1372.659	9833
1374.909	9935
1377.157	9874
1379.407	9741
1381.655	9900
1383.9	9977
1386.147	9890
1388.393	9916
1390.64	9975
1392.885	9967
1395.127	9922
1397.37	9851
1399.614	9962
1401.854	9993
1404.098	10022
1406.339	10006
1408.578	9988
1410.818	9967
1413.056	9956
1415.297	9857
1417.533	10018
1419.771	10074
1422.006	10078
1424.243	9946
1426.479	10042
1428.715	9994
1430.948	10177
1433.182	10094
1435.414	10090
1437.647	10147
1439.88	10116
1442.11	10185
1444.342	10375
1446.571	10059
1448.799	10224
1451.029	10157
1453.258	10344
1455.485	10213
1457.711	9963
1459.937	10432
1462.164	10175
1464.39	10169
1466.614	10145
1468.838	10061
1471.06	10125
1473.283	10032
1475.506	9996
1477.727	10190
1479.949	9923
1482.169	10028
1484.389	9996
1486.609	9984
1488.828	9895
1491.045	9919
1493.261	9991
1495.477	9937
1497.693	9926
1499.91	9896
1502.125	9815
1504.339	10008
1506.553	9813
1508.766	9865
1510.979	10023
1513.191	9888
1515.402	9983
1517.613	9773
1519.823	9866
1522.033	9933
1524.242	9850
1526.451	9791
1528.657	9815
1530.865	9805
1533.072	9971
1535.278	9835
1537.484	9850
1539.687	9925
1541.892	9948
1544.096	9947
1546.299	9871
1548.502	9948
1550.703	9910
1552.905	9874
1555.104	10085
1557.303	10052
1559.505	9838
1561.703	9888
1563.902	10210
1566.099	10028
1568.295	10193
1570.494	10134
1572.689	10149
1574.883	10032
1577.079	10151
1579.272	10012
1581.467	10137
1583.659	10167
1585.853	10244
1588.044	10108
1590.234	9986
1592.424	10256
1594.615	10227
1596.806	10262
1598.994	10156
1601.182	10100
1603.369	10283
1605.557	10263
1607.744	10206
1609.929	10199
1612.114	10082
1614.298	10206
1616.482	10376
1618.667	10091
1620.85	10257
1623.032	10188
1625.214	10080
1627.395	10199
1629.575	10328
1631.755	10300
1633.935	10312
1636.114	10286
1638.292	10304
1640.471	10361
1642.647	10253
1644.823	10244
1647	10265
1649.175	10337
1651.348	10356
1653.525	10324
1655.698	10345
1657.87	10361
1660.043	10453
1662.213	10420
1664.387	10651
1666.558	10418
1668.727	10400
1670.896	10219
1673.064	10330
1675.233	10521
1677.401	10328
1679.569	10331
1681.735	10414
1683.902	10289
1686.066	10431
1688.233	10432
1690.397	10463
1692.559	10386
1694.723	10315
1696.885	10400
1699.048	10271
1701.21	10301
1703.37	10145
1705.53	10321
1707.689	10277
1709.849	10352
1712.009	10135
1714.166	10114
1716.323	10130
1718.479	10232
1720.634	10195
1722.793	10277
1724.948	10216
1727.102	10175
1729.255	10182
1731.408	10186
1733.562	10145
1735.714	10146
1737.865	10136
1740.016	10217
1742.166	10272
1744.316	10081
1746.467	10154
1748.616	10220
1750.764	10223
1752.911	10204
1755.056	10338
1757.205	10190
1759.35	10228
1761.496	10201
1763.641	10282
1765.785	10142
1767.927	10392
1770.072	10347
1772.214	10218
1774.355	10337
1776.496	10303
1778.637	10246
1780.778	10321
1782.918	10269
1785.057	10245
1787.194	10283
1789.333	10279
1791.472	10260
1793.608	10382
1795.745	10277
1797.879	10224
1800.015	10305
1802.148	10316
1804.284	10358
1806.417	10336
1808.548	10283
1810.682	10388
1812.812	10453
1814.946	10430
1817.075	10440
1819.205	10385
1821.335	10478
1823.463	10197
1825.59	10263
1827.721	10216
1829.847	10335
1831.973	10169
1834.098	10347
1836.223	10281
1838.351	10327
1840.475	10131
1842.598	10229
1844.721	10262
1846.843	10196
1848.966	10207
1851.087	10205
1853.21	10308
1855.33	10123
1857.449	10227
1859.568	10232
1861.688	10294
1863.806	10092
1865.924	10240
1868.039	10235
1870.155	10218
1872.273	10191
1874.388	10213
1876.503	10202
1878.617	10167
1880.73	10234
1882.844	10167
1884.956	10219
1887.068	10124
1889.18	10076
1891.291	10314
1893.4	10185
1895.511	10255
1897.621	10194
1899.73	10094
1901.837	10309
1903.944	10243
1906.053	10347
1908.159	10257
1910.265	10282
1912.369	10292
1914.474	10288
1916.577	10363
1918.683	10409
1920.785	10310
1922.888	10368
1924.989	10296
1927.091	10354
1929.193	10359
1931.294	10438
1933.393	10492
1935.493	10401
1937.59	10389
1939.689	10389
1941.788	10521
1943.884	10294
1945.98	10473
1948.077	10388
1950.171	10417
1952.267	10314
1954.361	10437
1956.455	10319
1958.548	10550
1960.64	10344
1962.733	10351
1964.824	10483
1966.915	10357
1969.005	10374
1971.096	10302
1973.185	10451
1975.275	10239
1977.363	10310
1979.45	10291
1981.537	10294
1983.623	10337
1985.711	10234
1987.796	10225
1989.881	10254
1991.965	10295
1994.047	10314
1996.132	10110
1998.215	10346
2000.297	10268
2002.378	10320
2004.46	10308
2006.54	10257
2008.62	10282
2010.7	10328
2012.779	10328
2014.858	10232
2016.934	10283
2019.013	10102
2021.09	10308
2023.165	10353
2025.241	10307
2027.317	10237
2029.39	10220
2031.466	10342
2033.538	10155
2035.612	10115
2037.683	10243
2039.755	10088
2041.827	10330
2043.898	10265
2045.968	10232
2048.038	10162
2050.106	10325
2052.177	10267
2054.244	10330
2056.313	10321
2058.379	10202
2060.444	10328
2062.511	10305
2064.577	10114
2066.641	10294
2068.705	10161
2070.77	10377
2072.832	10264
2074.896	10413
2076.958	10290
2079.02	10244
2081.081	10134
2083.141	10390
2085.2	10256
2087.261	10274
2089.319	10312
2091.377	10140
2093.435	10240
2095.492	10250
2097.552	10389
2099.607	10372
2101.663	10171
2103.718	10245
2105.771	10436
2107.826	10421
2109.879	10421
2111.932	10300
2113.985	10095
2116.037	10248
2118.088	10388
2120.141	10404
2122.191	10289
2124.239	10036
2126.288	10157
2128.337	10225
2130.387	10298
2132.434	10208
2134.481	10204
2136.528	10180
2138.574	10297
2140.618	10429
2142.665	10292
2144.71	10211
2146.753	10139
2148.797	10191
2150.838	10213
2152.883	10108
2154.923	10272
2156.965	10133
2159.007	10273
2161.046	10172
2163.086	10046
2165.126	10159
2167.163	10143
2169.202	10246
2171.239	10219
2173.277	10125
2175.314	10062
2177.349	10133
2179.385	10087
2181.42	10085
2183.453	10095
2185.49	9833
2187.522	10132
2189.555	10074
2191.586	10091
2193.619	10106
2195.651	10146
2197.682	10038
2199.711	10053
2201.74	9989
2203.769	9973
2205.799	9918
2207.828	10020
2209.855	9904
2211.882	9977
2213.908	9834
2215.934	10077
2217.961	10000
2219.986	10001
2222.01	10080
2224.034	10022
2226.057	9831
2228.08	9883
2230.104	10096
2232.124	10071
2234.145	9865
2236.166	10086
2238.186	9858
2240.207	9894
2242.227	9972
2244.244	9951
2246.262	10061
2248.28	9955
2250.299	9984
2252.314	10086
2254.33	9968
2256.346	10113
2258.36	9944
2260.375	9938
2262.391	9980
2264.403	9948
2266.416	10019
2268.427	9889
2270.44	9753
2272.453	10121
2274.463	9920
2276.474	9982
2278.483	10076
2280.493	9847
2282.501	10060
2284.51	10024
2286.518	9894
2288.524	10044
2290.532	10071
2292.537	9900
2294.544	10016
2296.55	9989
2298.554	10106
2300.557	9807
2302.562	10240
2304.566	10064
2306.568	9756
2308.569	9781
2310.572	9971
2312.573	9892
2314.573	9863
2316.574	9795
2318.573	9963
2320.571	9846
2322.571	9850
2324.569	9758
2326.567	9922
2328.564	9871
2330.56	9800
2332.556	9832
2334.551	10058
2336.546	9813
2338.542	9793
2340.535	9705
2342.529	9981
2344.521	9872
2346.512	9863
2348.505	9788
2350.497	9845
2352.487	9836
2354.478	9684
2356.468	9795
2358.457	9713
2360.446	9902
2362.434	9772
2364.422	9654
2366.408	9738
2368.395	9772
2370.383	9732
2372.369	9786
2374.353	9865
2376.338	9721
2378.321	9782
2380.307	9786
2382.29	9727
2384.272	9681
2386.254	9694
2388.235	9579
2390.218	9770
2392.198	9518
2394.179	9698
2396.157	9751
2398.137	9805
2400.115	9518
2402.095	9677
2404.072	9642
2406.048	9627
2408.026	9537
2410.001	9602
2411.977	9771
2413.953	9609
2415.927	9592
2417.9	9682
2419.875	9702
2421.847	9584
2423.821	9646
2425.792	9553
2427.763	9540
2429.736	9681
2431.706	9602
2433.677	9557
2435.646	9564
2437.615	9701
2439.583	9531
2441.551	9612
2443.519	9561
2445.486	9408
2447.452	9787
2449.418	9647
2451.383	9503
2453.348	9604
2455.314	9620
2457.278	9548
2459.241	9673
2461.205	9577
2463.167	9641
2465.131	9613
2467.091	9451
2469.052	9463
2471.012	9465
2472.972	9590
2474.932	9518
2476.891	9479
2478.85	9452
2480.808	9553
2482.766	9549
2484.722	9492
2486.68	9550
2488.636	9556
2490.591	9523
2492.546	9498
2494.5	9393
2496.456	9623
2498.41	9578
2500.362	9384
2502.315	9393
2504.266	9462
2506.218	9369
2508.169	9425
2510.121	9397
2512.07	9584
2514.019	9413
2515.968	9369
2517.918	9570
2519.866	9566
2521.813	9353
2523.76	9402
2525.707	9564
2527.653	9367
2529.599	9433
2531.543	9337
2533.489	9353
2535.433	9371
2537.376	9411
2539.32	9367
2541.264	9454
2543.205	9353
2545.147	9408
2547.087	9328
2549.029	9466
2550.969	9345
2552.908	9479
2554.847	9475
2556.786	9486
2558.724	9503
2560.663	9384
2562.6	9564
2564.537	9598
2566.473	9385
2568.408	9509
2570.345	9351
2572.28	9408
2574.214	9413
2576.148	9433
2578.081	9385
2580.014	9453
2581.947	9466
2583.879	9481
2585.81	9278
2587.741	9400
2589.67	9375
2591.602	9427
2593.532	9501
2595.461	9291
2597.388	9492
2599.316	9349
2601.244	9401
2603.172	9435
2605.098	9382
2607.023	9445
2608.949	9511
2610.873	9451
2612.8	9437
2614.723	9476
2616.647	9501
2618.569	9452
2620.493	9552
2622.416	9520
2624.338	9541
2626.258	9361
2628.179	9391
2630.099	9508
2632.019	9490
2633.939	9305
2635.857	9466
2637.775	9424
2639.694	9345
2641.61	9253
2643.528	9613
2645.444	9403
2647.361	9427
2649.276	9426
2651.19	9554
2653.105	9403
2655.019	9460
2656.934	9435
2658.846	9469
2660.758	9442
2662.67	9291
2664.583	9487
2666.493	9476
2668.404	9313
2670.313	9337
2672.223	9218
2674.134	9346
2676.042	9438
2677.95	9461
2679.858	9251
2681.765	9404
2683.673	9191
2685.579	9323
2687.483	9386
2689.389	9312
2691.294	9190
2693.198	9478
2695.104	9406
2697.006	9383
2698.909	9368
2700.811	9357
2702.713	9286
2704.615	9365
2706.516	9370
2708.417	9332
2710.316	9462
2712.216	9133
2714.115	9395
2716.014	9233
2717.913	9244
2719.81	9088
2721.707	9251
2723.603	9411
2725.501	9367
2727.396	9243
2729.292	9365
2731.186	9258
2733.081	9367
2734.976	9329
2736.87	9247
2738.762	9347
2740.653	9226
2742.546	9340
2744.437	9288
2746.329	9288
2748.22	9230
2750.11	9308
2751.999	9243
2753.889	9164
2755.778	9307
2757.666	9118
2759.553	9026
2761.44	9283
2763.328	9182
2765.215	9164
2767.101	9213
2768.986	9224
2770.87	9129
2772.754	9080
2774.638	9111
2776.523	9172
2778.405	9191
2780.288	9135
2782.17	9111
2784.051	9165
2785.934	9227
2787.814	9176
2789.694	9217
2791.574	9113
2793.453	9241
2795.332	9264
2797.212	9122
2799.088	9090
2800.966	9111
2802.843	8984
2804.719	8982
2806.597	9074
2808.471	9090
2810.346	9012
2812.221	9122
2814.094	9114
2815.969	9051
2817.843	9139
2819.714	9149
2821.587	9102
2823.459	9079
2825.329	9187
2827.202	9099
2829.072	9145
2830.942	9030
2832.811	9181
2834.68	9192
2836.549	9079
2838.418	9185
2840.284	8946
2842.152	9185
2844.018	9239
2845.885	9088
2847.751	9037
2849.616	9070
2851.482	9196
2853.345	9151
2855.208	9254
2857.074	9268
2858.937	9251
2860.799	9249
2862.66	9299
2864.522	9261
2866.385	9312
2868.245	9291
2870.104	9499
2871.964	9335
2873.824	9468
2875.683	9525
2877.542	9378
2879.4	9497
2881.257	9454
2883.114	9519
2884.97	9566
2886.827	9612
2888.683	9765
2890.537	9579
2892.392	9591
2894.246	9381
2896.1	9598
2897.954	9663
2899.807	9523
2901.66	9437
2903.51	9494
2905.362	9543
2907.214	9632
2909.065	9392
2910.915	9653
2912.765	9734
2914.613	9769
2916.463	9764
2918.311	9765
2920.158	9880
2922.006	9848
2923.853	9896
2925.698	9901
2927.546	10068
2929.392	9860
2931.236	9901
2933.081	10151
2934.924	9992
2936.77	10248
2938.613	10352
2940.455	10207
2942.298	10279
2944.139	10353
2945.982	10457
2947.823	10137
2949.662	10371
2951.503	10298
2953.342	10172
2955.182	10017
2957.021	10070
2958.858	10037
2960.697	10094
2962.534	10122
2964.37	9917
2966.207	9907
2968.044	9805
2969.879	9766
2971.714	9637
2973.548	9516
2975.383	9688
2977.218	9512
2979.051	9601
2980.883	9517
2982.715	9338
2984.547	9554
2986.379	9402
2988.21	9360
2990.04	9426
2991.87	9405
2993.7	9355
2995.53	9309
2997.359	9192
2999.187	9061
3001.015	9149
3002.842	9116
3004.669	8920
3006.497	8989
3008.323	8872
3010.148	8985
3011.974	8762
3013.797	8883
3015.623	8921
3017.447	8873
3019.27	8875
3021.094	8729
3022.915	8724
3024.737	8819
3026.56	8661
3028.38	8806
3030.201	8744
3032.022	8753
3033.84	8681
3035.662	8610
3037.481	8579
3039.298	8680
3041.117	8642
3042.933	8528
3044.752	8627
3046.568	8574
3048.385	8658
3050.2	8633
3052.016	8544
3053.83	8542
3055.646	8527
3057.46	8567
3059.272	8606
3061.086	8591
3062.898	8471
3064.711	8550
3066.524	8613
3068.335	8481
3070.145	8525
3071.956	8572
3073.766	8560
3075.576	8506
3077.385	8343
3079.193	8511
3081.002	8486
3082.81	8284
3084.618	8379
3086.425	8297
3088.231	8513
3090.036	8317
3091.842	8474
3093.648	8373
3095.452	8364
3097.257	8373
3099.06	8475
3100.863	8269
3102.666	8401
3104.47	8263
3106.272	8301
3108.073	8256
3109.875	8282
3111.676	8365
3113.477	8288
3115.277	8265
3117.077	8384
3118.874	8224
3120.673	8331
3122.473	8202
3124.271	8187
3126.066	8264
3127.863	8204
3129.66	8209
3131.456	8192
3133.252	8194
3135.047	8177
3136.842	8250
3138.635	8149
3140.429	8109
3142.223	8171
3144.016	8037
3145.808	8067
3147.6	8098
3149.392	8094
3151.183	8117
3152.975	8139
3154.765	8088
3156.553	8180
3158.344	8177
3160.132	7988
3161.922	8129
3163.71	8155
3165.497	8178
3167.285	8067
3169.071	8122
3170.858	8129
3172.645	8054
3174.429	7934
3176.214	8014
3177.998	7969
3179.783	7979
3181.568	8182
3183.351	8019
3185.133	7947
3186.915	7937
3188.698	8090
3190.481	8035
3192.261	8037
3194.042	8059
3195.822	8045
3197.601	7947
3199.381	8063
3201.161	8004
3202.939	7952
3204.717	8006
3206.495	8011
3208.272	7953
3210.05	7876
3211.826	8019
3213.602	7931
3215.376	7982
3217.151	8045
3218.927	8002
3220.702	7955
3222.476	7902
3224.249	8007
3226.021	7903
3227.793	7982
3229.567	8046
3231.339	7847
3233.109	7854
3234.88	7925
3236.651	7927
3238.421	7899
3240.191	7944
3241.96	7829
3243.728	8010
3245.497	7846
3247.263	7841
3249.033	7999
3250.799	7776
3252.566	7909
3254.331	7906
3256.097	7920
3257.863	7972
3259.628	8019
3261.392	7860
3263.156	7879
3264.919	7970
3266.683	7898
3268.447	7948
3270.208	7895
3271.969	7998
3273.731	7848
3275.492	7936
3277.253	7944
3279.013	7828
3280.773	7858
3282.532	7830
3284.291	7886
3286.05	7846
3287.808	7877
3289.566	7840
3291.323	7784
3293.079	7884
3294.835	7919
3296.593	7780
3298.348	7904
3300.102	7832
3301.857	7764
3303.611	7765
3305.366	7818
3307.119	7831
3308.872	7872
3310.624	7827
3312.376	7836
3314.129	7890
3315.881	7924
3317.631	7813
3319.38	7783
3321.13	7780
3322.88	7820
3324.631	7816
3326.379	7844
3328.126	7835
3329.875	7780
3331.622	7861
3333.371	7770
3335.116	7705
3336.863	7816
3338.609	7652
3340.353	7873
3342.1	7690
3343.845	7827
3345.588	7789
3347.332	7831
3349.074	7809
3350.817	7673
3352.56	7702
3354.303	7715
3356.043	7703
3357.785	7759
3359.525	7608
3361.268	7778
3363.007	7791
3364.745	7702
3366.485	7587
3368.223	7606
3369.962	7709
3371.701	7655
3373.438	7603
3375.174	7674
3376.911	7684
3378.647	7551
3380.384	7760
3382.118	7578
3383.854	7563
3385.588	7577
3387.322	7520
3389.057	7703
3390.79	7765
3392.522	7724
3394.255	7468
3395.987	7615
3397.719	7518
3399.451	7566
3401.181	7503
3402.911	7502
3404.641	7633
3406.371	7527
3408.101	7515
3409.83	7429
3411.558	7513
3413.285	7498
3415.011	7624
3416.739	7552
3418.467	7342
3420.193	7500
3421.919	7462
3423.644	7597
3425.368	7487
3427.094	7553
3428.818	7497
3430.542	7393
3432.264	7365
3433.987	7484
3435.712	7406
3437.434	7423
3439.155	7389
3440.876	7498
3442.596	7300
3444.317	7411
3446.039	7424
3447.757	7318
3449.477	7421
3451.195	7318
3452.914	7302
3454.632	7296
3456.35	7210
3458.067	7342
3459.784	7206
3461.5	7341
3463.216	7222
3464.932	7190
3466.647	7285
3468.362	7307
3470.076	7327
3471.789	7257
3473.505	7265
3475.217	7227
3476.929	7235
3478.641	7252
3480.354	7106
3482.066	7144
3483.777	7075
3485.487	7067
3487.197	7172
3488.908	7189
3490.617	7273
3492.327	7189
3494.035	7262
3495.743	7096
3497.451	7026
3499.158	6942
3500.866	7213
3502.572	7008
3504.278	7083
3505.984	7157
3507.689	6952
3509.396	6986
3511.1	7018
3512.804	7087
3514.508	6958
3516.211	7070
3517.913	6927
3519.616	6999
3521.319	6895
3523.021	7080
3524.722	6970
3526.422	6990
3528.124	7022
3529.824	7033
3531.524	6987
3533.222	6966
3534.921	6956
3536.62	7022
3538.318	6971
3540.016	6906
3541.714	6934
3543.41	7050
3545.107	6880
3546.803	6934
3548.5	6895
3550.194	6908
3551.889	6939
3553.583	6897
3555.279	6852
3556.972	6959
3558.666	6902
3560.358	6856
3562.051	6883
3563.742	6843
3565.435	6815
3567.126	6828
3568.817	6757
3570.507	6771
3572.197	6843
3573.888	6842
3575.577	6870
3577.265	6733
3578.954	6892
3580.642	6743
3582.329	6776
3584.017	6693
3585.704	6848
3587.391	6762
3589.077	6811
3590.762	6753
3592.449	6656
3594.133	6758
3595.817	6699
3597.501	6813
3599.185	6672
3600.869	6694
3602.552	6713
3604.234	6642
3605.916	6634
3607.598	6647
3609.279	6725
3610.961	6738
3612.642	6555
3614.321	6608
3616	6773
3617.68	6638
3619.36	6509
3621.039	6542
3622.716	6515
3624.394	6646
3626.071	6556
3627.748	6409
3629.425	6504
3631.102	6489
3632.778	6491
3634.452	6560
3636.127	6525
3637.803	6562
3639.477	6525
3641.151	6546
3642.823	6391
3644.497	6525
3646.171	6557
3647.842	6485
3649.515	6443
3651.185	6445
3652.857	6455
3654.527	6356
3656.198	6364
3657.868	6403
3659.537	6381
3661.207	6452
3662.875	6407
3664.544	6403
3666.212	6268
3667.879	6495
3669.546	6350
3671.212	6543
3672.88	6455
3674.546	6224
3676.211	6315
3677.875	6402
3679.541	6264
3681.205	6481
3682.87	6488
3684.533	6277
3686.196	6280
3687.859	6372
3689.521	6318
3691.184	6408
3692.845	6295
3694.507	6178
3696.167	6473
3697.827	6384
3699.487	6328
3701.148	6290
3702.808	6290
3704.466	6246
3706.125	6260
3707.783	6334
3709.442	6343
3711.099	6234
3712.757	6245
3714.412	6365
3716.068	6228
3717.725	6268
3719.381	6259
3721.036	6249
3722.689	6281
3724.344	6275
3725.998	6192
3727.652	6259
3729.305	6236
3730.958	6220
3732.61	6150
3734.262	6239
3735.915	6199
3737.565	6223
3739.217	6229
3740.866	6259
3742.516	6150
3744.165	6172
3745.816	6052
3747.464	6117
3749.113	6206
3750.761	6111
3752.409	6124
3754.057	6100
3755.703	6180
3757.35	6066
3758.996	6190
3760.641	6032
3762.289	6192
3763.933	6119
3765.577	6075
3767.222	6087
3768.865	6105
3770.508	5951
3772.152	6125
3773.796	6077
3775.438	6075
3777.079	5983
3778.721	5996
3780.363	6015
3782.003	6036
3783.643	6017
3785.283	6038
3786.923	5994
3788.563	5891
3790.203	6051
3791.841	5945
3793.479	5941
3795.115	5901
3796.753	5960
3798.391	5919
3800.027	6037
3801.664	5933
3803.299	5853
3804.935	5902
3806.571	5975
3808.206	5997
3809.839	5931
3811.473	5861
3813.107	5947
3814.74	5900
3816.375	5913
3818.006	5854
3819.638	5906
3821.27	5982
3822.9	5866
3824.532	5785
3826.163	5920
3827.792	5906
3829.423	5864
3831.051	5894
3832.682	5814
3834.311	5770
3835.938	5829
3837.566	5726
3839.193	5786
3840.821	5902
3842.448	5885
3844.075	5905
3845.7	5842
3847.325	5670
3848.951	5821
3850.576	5807
3852.201	5713
3853.825	5778
3855.448	5738
3857.072	5767
3858.694	5799
3860.318	5775
3861.939	5767
3863.562	5748
3865.183	5775
3866.804	5572
3868.426	5867
3870.045	5728
3871.666	5669
3873.285	5742
3874.904	5725
3876.524	5745
3878.142	5606
3879.76	5825
3881.378	5690
3882.995	5621
3884.612	5635
3886.229	5809
3887.845	5672
3889.461	5727
3891.076	5720
3892.691	5612
3894.307	5694
3895.922	5603
3897.536	5716
3899.149	5652
3900.761	5658
3902.374	5589
3903.988	5596
3905.6	5678
3907.212	5575
3908.822	5678
3910.433	5639
3912.045	5597
3913.655	5660
3915.265	5644
3916.875	5604
3918.483	5591
3920.093	5553
3921.702	5612
3923.309	5636
3924.917	5535
3926.523	5488
3928.13	5596
3929.739	5543
3931.344	5585
3932.95	5606
3934.555	5538
3936.159	5549
3937.766	5542
3939.369	5596
3940.974	5591
3942.577	5550
3944.181	5618
3945.783	5569
3947.386	5623
3948.989	5562
3950.59	5505
3952.191	5597
3953.791	5491
3955.394	5606
3956.994	5580
3958.593	5548
3960.192	5503
3961.791	5493
3963.392	5603
3964.99	5452
3966.588	5535
3968.185	5498
3969.782	5449
3971.379	5420
3972.976	5486
3974.572	5409
3976.168	5406
3977.763	5397
3979.358	5430
3980.954	5427
3982.548	5378
3984.142	5459
3985.736	5377
3987.329	5355
3988.922	5384
3990.516	5393
3992.108	5466
3993.698	5306
3995.29	5327
3996.881	5383
3998.473	5395
4000.064	5276
4001.653	5392
4003.242	5350
4004.832	5232
4006.422	5357
4008.01	5344
4009.598	5306
4011.186	5309
4012.773	5260
4014.36	5256
4015.947	5217
4017.534	5331
4019.119	5301
4020.705	5180
4022.291	5264
4023.876	5218
4025.461	5159
4027.044	5213
4028.627	5264
4030.211	5112
4031.795	5237
4033.378	5165
4034.96	5127
4036.542	5205
4038.124	5159
4039.704	5208
4041.286	5196
4042.867	5161
4044.447	5303
4046.026	5161
4047.606	5116
4049.187	5139
4050.765	5099
4052.343	5107
4053.92	5183
4055.498	5041
4057.076	5099
4058.654	5142
4060.23	5162
4061.806	5031
4063.381	5051
4064.957	5095
4066.533	5098
4068.107	5103
4069.682	5071
4071.256	5032
4072.829	5060
4074.404	5021
4075.977	5131
4077.549	5073
4079.121	4944
4080.693	5042
4082.265	5052
4083.836	5037
4085.407	5167
4086.977	5037
4088.547	5067
4090.117	5038
4091.687	4901
4093.256	4930
4094.825	5036
4096.392	5042
4097.96	4976
4099.528	4999
4101.097	4972
4102.663	4906
4104.229	4909
4105.795	4971
4107.361	4968
4108.928	4927
4110.493	4948
4112.058	4934
4113.621	4903
4115.186	4993
4116.75	4972
4118.313	4995
4119.876	4965
4121.438	4947
4123	4883
4124.562	4911
4126.125	4952
4127.686	4953
4129.246	4865
4130.807	4931
4132.367	4871
4133.927	4898
4135.486	4955
4137.046	4835
4138.604	4884
4140.162	4833
4141.72	4796
4143.279	4935
4144.836	4784
4146.393	4778
4147.949	4822
4149.505	4858
4151.062	4877
4152.617	4710
4154.172	4750
4155.727	4762
4157.281	4862
4158.836	4814
4160.39	4837
4161.943	4733
4163.496	4782
4165.048	4846
4166.601	4633
4168.154	4739
4169.706	4696
4171.257	4737
4172.808	4835
4174.358	4676
4175.909	4745
4177.458	4736
4179.008	4659
4180.558	4717
4182.106	4701
4183.655	4684
4185.204	4729
4186.751	4644
4188.298	4695
4189.845	4649
4191.392	4773
4192.939	4719
4194.485	4586
4196.031	4608
4197.576	4645
4199.121	4699
4200.666	4639
4202.211	4674
4203.754	4690
4205.298	4579
4206.84	4658
4208.384	4666
4209.927	4668
4211.47	4609
4213.011	4684
4214.552	4602
4216.094	4616
4217.635	4669
4219.175	4548
4220.716	4511
4222.255	4595
4223.793	4570
4225.335	4651
4226.873	4612
4228.411	4624
4229.948	4646
4231.486	4562
4233.024	4633
4234.562	4578
4236.098	4558
4237.634	4519
4239.169	4600
4240.705	4502
4242.241	4542
4243.776	4547
4245.31	4552
4246.844	4465
4248.378	4508
4249.911	4534
4251.445	4508
4252.978	4480
4254.51	4495
4256.042	4454
4257.574	4537
4259.107	4528
4260.638	4506
4262.169	4533
4263.699	4424
4265.228	4419
4266.759	4496
4268.289	4521
4269.818	4536
4271.345	4381
4272.874	4365
4274.402	4502
4275.931	4459
4277.458	4458
4278.985	4423
4280.512	4421
4282.037	4412
4283.564	4513
4285.089	4434
4286.615	4384
4288.139	4292
4289.664	4444
4291.187	4375
4292.712	4390
4294.235	4336
4295.759	4385
4297.281	4422
4298.804	4431
4300.327	4455
4301.849	4323
4303.37	4476
4304.891	4388
4306.412	4347
4307.933	4382
4309.453	4312
4310.973	4297
4312.492	4378
