398.1873	4406
400.7097	4508
403.2336	4490
405.7547	4526
408.2751	4570
410.7948	4632
413.3138	4626
415.83	4647
418.3497	4666
420.8666	4696
423.3829	4783
425.8985	4828
428.4133	4755
430.9275	4851
433.441	4761
435.9538	4805
438.4639	4789
440.9753	4855
443.4881	4777
445.9982	4815
448.5055	4884
451.0142	4854
453.5201	4784
456.0274	4833
458.5361	4861
461.04	4835
463.5453	4804
466.0478	4915
468.5517	4928
471.0549	4852
473.5574	4828
476.0572	4843
478.5584	4895
481.0568	4946
483.5545	4989
486.0557	4949
488.5521	4883
491.0478	4949
493.5449	4849
496.0392	4952
498.5349	4953
501.0299	4952
503.5222	5015
506.0139	4895
508.5048	5083
510.9991	4966
513.4887	5022
515.9777	5043
518.4659	5086
520.9534	4981
523.4403	5062
525.9306	5041
528.4161	5013
530.9009	5052
533.3851	5005
535.8687	5056
538.3535	5068
540.8356	4970
543.3171	4958
545.7979	5097
548.278	5024
550.7595	5100
553.2383	5096
555.7144	5027
558.1918	5062
560.6685	5194
563.1446	5115
565.6221	5089
568.0968	5219
570.5688	5203
573.0422	5128
575.515	5247
577.989	5268
580.4584	5120
582.9291	5215
585.3991	5299
587.8685	5325
590.3352	5262
592.8052	5209
595.2706	5325
597.7372	5273
600.2033	5274
602.6666	5238
605.1334	5159
607.5953	5203
610.0587	5231
612.5193	5164
614.9814	5188
617.4427	5254
619.9034	5129
622.3615	5191
624.8208	5221
627.2775	5101
629.7335	5211
632.1929	5181
634.6476	5153
637.1016	5220
639.5569	5236
642.0096	5175
644.4637	5309
646.9151	5217
649.3678	5283
651.8179	5211
654.2672	5330
656.7159	5318
659.166	5259
661.6154	5258
664.0622	5233
666.5082	5343
668.9537	5325
671.4005	5398
673.8445	5344
676.288	5278
678.7308	5389
681.1729	5294
683.6163	5317
686.0572	5396
688.4973	5380
690.9368	5348
693.3757	5382
695.8138	5396
698.2534	5444
700.6902	5560
703.1245	5443
705.56	5471
707.9949	5458
710.4311	5420
712.8647	5431
715.2957	5444
717.7279	5495
720.1595	5543
722.5905	5627
725.0208	5516
727.4505	5599
729.8795	5505
732.3058	5577
734.7336	5603
737.1626	5678
739.587	5671
742.0128	5706
744.4359	5727
746.8604	5691
749.2841	5745
751.7073	5736
754.1278	5670
756.5496	5720
758.9688	5713
761.3893	5801
763.8093	5845
766.2285	5851
768.6451	5744
771.0611	5720
773.4784	5706
775.895	5808
778.3091	5753
780.7244	5785
783.1371	5803
785.5493	5764
787.9626	5720
790.3754	5704
792.7856	5805
795.1951	5756
797.6039	5778
800.0121	5700
802.4236	5847
804.8306	5895
807.2369	5799
809.6425	5891
812.0475	5858
814.4538	5857
816.8575	5837
819.2606	5846
821.663	5856
824.0648	5878
826.4659	5844
828.8683	5796
831.2682	5855
833.6674	5930
836.066	5891
838.4639	5886
840.8632	5938
843.2579	5869
845.6539	5861
848.0493	5935
850.444	5926
852.84	5957
855.2315	5938
857.6243	5938
860.0165	5986
862.4081	5857
864.797	5864
867.1892	5908
869.5789	5896
871.9659	5915
874.3542	6007
876.74	5933
879.129	5849
881.5155	5875
883.8994	5956
886.2845	5874
888.6671	5934
891.051	5868
893.4343	5958
895.8169	5916
898.197	5883
900.5783	6084
902.9571	5907
905.3372	6039
907.7167	5980
910.0936	5979
912.4698	6042
914.8474	5981
917.2244	6081
919.5987	6064
921.9744	6034
924.3475	6132
926.72	6175
929.0918	6132
931.4669	6275
933.8375	6294
936.2074	6293
938.5767	6236
940.9454	6423
943.3154	6449
945.6829	6503
948.0497	6624
950.4178	6871
952.7833	7064
955.1483	7155
957.5145	7357
959.8782	7480
962.2412	7394
964.6036	7451
966.9655	7136
969.3266	6811
971.6871	6643
974.0471	6518
976.4064	6276
978.765	6263
981.125	6248
983.4824	6130
985.8373	6190
988.1935	6069
990.549	6105
992.9039	6154
995.2602	6157
997.6119	6243
999.965	6167
1002.317	6224
1004.667	6135
1007.02	6178
1009.371	6209
1011.719	6133
1014.068	6175
1016.415	6179
1018.765	6177
1021.111	6261
1023.458	6322
1025.804	6296
1028.147	6204
1030.49	6323
1032.837	6301
1035.179	6194
1037.522	6299
1039.862	6252
1042.204	6317
1044.546	6287
1046.884	6360
1049.224	6348
1051.562	6241
1053.899	6312
1056.237	6391
1058.575	6376
1060.91	6279
1063.244	6347
1065.58	6391
1067.913	6455
1070.248	6472
1072.579	6407
1074.911	6327
1077.242	6466
1079.572	6415
1081.905	6379
1084.234	6265
1086.562	6274
1088.89	6380
1091.217	6278
1093.544	6286
1095.871	6415
1098.197	6317
1100.521	6373
1102.845	6292
1105.169	6354
1107.491	6330
1109.814	6351
1112.135	6241
1114.456	6396
1116.776	6360
1119.096	6384
1121.415	6309
1123.734	6258
1126.052	6416
1128.369	6383
1130.686	6394
1133.002	6326
1135.318	6310
1137.632	6310
1139.945	6384
1142.258	6290
1144.573	6333
1146.884	6353
1149.196	6386
1151.505	6412
1153.816	6369
1156.124	6336
1158.435	6433
1160.742	6428
1163.051	6340
1165.356	6331
1167.663	6359
1169.97	6378
1172.276	6383
1174.579	6356
1176.881	6340
1179.186	6437
1181.487	6371
1183.79	6444
1186.092	6462
1188.392	6383
1190.691	6278
1192.991	6368
1195.291	6389
1197.588	6395
1199.885	6387
1202.181	6356
1204.479	6481
1206.775	6385
1209.07	6294
1211.363	6508
1213.656	6280
1215.949	6409
1218.241	6460
1220.534	6317
1222.825	6387
1225.115	6513
1227.405	6524
1229.693	6561
1231.984	6535
1234.271	6466
1236.558	6563
1238.845	6655
1241.131	6604
1243.416	6628
1245.703	6453
1247.987	6711
1250.269	6650
1252.552	6553
1254.834	6464
1257.118	6599
1259.399	6623
1261.678	6530
1263.958	6571
1266.237	6553
1268.516	6597
1270.794	6640
1273.072	6707
1275.347	6611
1277.624	6806
1279.899	6577
1282.175	6546
1284.449	6520
1286.722	6525
1288.995	6569
1291.266	6486
1293.54	6508
1295.81	6501
1298.081	6441
1300.35	6540
1302.62	6569
1304.889	6486
1307.156	6498
1309.425	6491
1311.69	6423
1313.957	6461
1316.222	6564
1318.488	6634
1320.751	6403
1323.016	6520
1325.278	6494
1327.54	6525
1329.803	6678
1332.065	6607
1334.325	6479
1336.584	6473
1338.843	6560
1341.101	6405
1343.36	6463
1345.617	6554
1347.876	6615
1350.131	6606
1352.387	6547
1354.643	6452
1356.897	6582
1359.151	6434
1361.403	6566
1363.656	6601
1365.909	6571
1368.16	6533
1370.409	6537
1372.659	6430
1374.909	6618
1377.157	6667
1379.407	6634
1381.655	6614
1383.9	6666
1386.147	6614
1388.393	6634
1390.64	6683
1392.885	6637
1395.127	6658
1397.37	6535
1399.614	6599
1401.854	6693
1404.098	6587
1406.339	6706
1408.578	6650
1410.818	6821
1413.056	6602
1415.297	6719
1417.533	6607
1419.771	6674
1422.006	6800
1424.243	6726
1426.479	6687
1428.715	6792
1430.948	6699
1433.182	6784
1435.414	6778
1437.647	6853
1439.88	6768
1442.11	6705
1444.342	6746
1446.571	6855
1448.799	6821
1451.029	7011
1453.258	6883
1455.485	6926
1457.711	6843
1459.937	6824
1462.164	6860
1464.39	6857
1466.614	6798
1468.838	6733
1471.06	6776
1473.283	6753
1475.506	6779
1477.727	6798
1479.949	6739
1482.169	6608
1484.389	6625
1486.609	6658
1488.828	6630
1491.045	6688
1493.261	6670
1495.477	6770
1497.693	6649
1499.91	6545
1502.125	6520
1504.339	6644
1506.553	6534
1508.766	6583
1510.979	6615
1513.191	6594
1515.402	6656
1517.613	6699
1519.823	6567
1522.033	6630
1524.242	6588
1526.451	6706
1528.657	6536
1530.865	6646
1533.072	6685
1535.278	6694
1537.484	6638
1539.687	6667
1541.892	6640
1544.096	6680
1546.299	6644
1548.502	6716
1550.703	6664
1552.905	6762
1555.104	6714
1557.303	6619
1559.505	6748
1561.703	6825
1563.902	6629
1566.099	6707
1568.295	6854
1570.494	6711
1572.689	6720
1574.883	6871
1577.079	6789
1579.272	6869
1581.467	6738
1583.659	6889
1585.853	6769
1588.044	6789
1590.234	6857
1592.424	6852
1594.615	6814
1596.806	6916
1598.994	6932
1601.182	6812
1603.369	6961
1605.557	6807
1607.744	6912
1609.929	6843
1612.114	6872
1614.298	6833
1616.482	6892
1618.667	6881
1620.85	6839
1623.032	6837
1625.214	6959
1627.395	6947
1629.575	6929
1631.755	6984
1633.935	6859
1636.114	6891
1638.292	6902
1640.471	6865
1642.647	6898
1644.823	6924
1647	6946
1649.175	6988
1651.348	6891
1653.525	6968
1655.698	6996
1657.87	6891
1660.043	6975
1662.213	6978
1664.387	7013
1666.558	6894
1668.727	6976
1670.896	6977
1673.064	7007
1675.233	6958
1677.401	6993
1679.569	6826
1681.735	6858
1683.902	6991
1686.066	6996
1688.233	6943
1690.397	6973
1692.559	7002
1694.723	7016
1696.885	6919
1699.048	6918
1701.21	6862
1703.37	6985
1705.53	7016
1707.689	6948
1709.849	6871
1712.009	6832
1714.166	6817
1716.323	6836
1718.479	6885
1720.634	6821
1722.793	6914
1724.948	6835
1727.102	6873
1729.255	6915
1731.408	6906
1733.562	6900
1735.714	6875
1737.865	6811
1740.016	6854
1742.166	6938
1744.316	6818
1746.467	6933
1748.616	6809
1750.764	6887
1752.911	6906
1755.056	6941
1757.205	6901
1759.35	6907
1761.496	6968
1763.641	6888
1765.785	6889
1767.927	7031
1770.072	6948
1772.214	6909
1774.355	6929
1776.496	7023
1778.637	7152
1780.778	6949
1782.918	6931
1785.057	6912
1787.194	6932
1789.333	7044
1791.472	7003
1793.608	7083
1795.745	6944
1797.879	7018
1800.015	7004
1802.148	6905
1804.284	6989
1806.417	6921
1808.548	6885
1810.682	6971
1812.812	6966
1814.946	7013
1817.075	7081
1819.205	6973
1821.335	6985
1823.463	6940
1825.59	6903
1827.721	6911
1829.847	6936
1831.973	6934
1834.098	7096
1836.223	6828
1838.351	6899
1840.475	6885
1842.598	6885
1844.721	7003
1846.843	6901
1848.966	6973
1851.087	6927
1853.21	6943
1855.33	6921
1857.449	6978
1859.568	6904
1861.688	7024
1863.806	6875
1865.924	7019
1868.039	7108
1870.155	6839
1872.273	6873
1874.388	6964
1876.503	6890
1878.617	6933
1880.73	6928
1882.844	6850
1884.956	6957
1887.068	6931
1889.18	6850
1891.291	6946
1893.4	6913
1895.511	7051
1897.621	6924
1899.73	7042
1901.837	7101
1903.944	6967
1906.053	6948
1908.159	7092
1910.265	7034
1912.369	7112
1914.474	7032
1916.577	7069
1918.683	6988
1920.785	7101
1922.888	7143
1924.989	6945
1927.091	7079
1929.193	6999
1931.294	7169
1933.393	7069
1935.493	7002
1937.59	7127
1939.689	7050
1941.788	7202
1943.884	6979
1945.98	7128
1948.077	6988
1950.171	7086
1952.267	7039
1954.361	7019
1956.455	6999
1958.548	7020
1960.64	6978
1962.733	7097
1964.824	7025
1966.915	7089
1969.005	6934
1971.096	7049
1973.185	7062
1975.275	7010
1977.363	7113
1979.45	7106
1981.537	7016
1983.623	6913
1985.711	7039
1987.796	6914
1989.881	6945
1991.965	7048
1994.047	7100
1996.132	7015
1998.215	7005
2000.297	6968
2002.378	7054
2004.46	6896
2006.54	6944
2008.62	6932
2010.7	7075
2012.779	7041
2014.858	7023
2016.934	7058
2019.013	6972
2021.09	6976
2023.165	7014
2025.241	6973
2027.317	7012
2029.39	7040
2031.466	6959
2033.538	7051
2035.612	7001
2037.683	6976
2039.755	6948
2041.827	7018
2043.898	6972
2045.968	7066
2048.038	6837
2050.106	6988
2052.177	7117
2054.244	6995
2056.313	6993
2058.379	7006
2060.444	7149
2062.511	6987
2064.577	6986
2066.641	7029
2068.705	7098
2070.77	7051
2072.832	7062
2074.896	6967
2076.958	7045
2079.02	6955
2081.081	7020
2083.141	7113
2085.2	7076
2087.261	7148
2089.319	7075
2091.377	7015
2093.435	7130
2095.492	6990
2097.552	7018
2099.607	7092
2101.663	7035
2103.718	7213
2105.771	6928
2107.826	6979
2109.879	7132
2111.932	7113
2113.985	7023
2116.037	7091
2118.088	6994
2120.141	7073
2122.191	7081
2124.239	6906
2126.288	7129
2128.337	7095
2130.387	6957
2132.434	6969
2134.481	7000
2136.528	6899
2138.574	6938
2140.618	6930
2142.665	7006
2144.71	7044
2146.753	7050
2148.797	7107
2150.838	7041
2152.883	6897
2154.923	7024
2156.965	7038
2159.007	7067
2161.046	7081
2163.086	6958
2165.126	6846
2167.163	6989
2169.202	6951
2171.239	6869
2173.277	6952
2175.314	6870
2177.349	6861
2179.385	7010
2181.42	6842
2183.453	6992
2185.49	6867
2187.522	6917
2189.555	6942
2191.586	7018
2193.619	6856
2195.651	6950
2197.682	6896
2199.711	6883
2201.74	6828
2203.769	6856
2205.799	6891
2207.828	6910
2209.855	6907
2211.882	6865
2213.908	6923
2215.934	6942
2217.961	6885
2219.986	6958
2222.01	6869
2224.034	6878
2226.057	6905
2228.08	6852
2230.104	6862
2232.124	6811
2234.145	6844
2236.166	6865
2238.186	6886
2240.207	6866
2242.227	6883
2244.244	6784
2246.262	6838
2248.28	6886
2250.299	6801
2252.314	6832
2254.33	6861
2256.346	7054
2258.36	6864
2260.375	6890
2262.391	6787
2264.403	6787
2266.416	6845
2268.427	6901
2270.44	6749
2272.453	6830
2274.463	6814
2276.474	6766
2278.483	6817
2280.493	6957
2282.501	6917
2284.51	6812
2286.518	6950
2288.524	6920
2290.532	6848
2292.537	6852
2294.544	6825
2296.55	6867
2298.554	6902
2300.557	6829
2302.562	6841
2304.566	6933
2306.568	6818
2308.569	6919
2310.572	6726
2312.573	6762
2314.573	6774
2316.574	6817
2318.573	6727
2320.571	6793
2322.571	6864
2324.569	6822
2326.567	6810
2328.564	6820
2330.56	6771
2332.556	6812
2334.551	6766
2336.546	6787
2338.542	6837
2340.535	6648
2342.529	6800
2344.521	6849
2346.512	6826
2348.505	6764
2350.497	6750
2352.487	6793
2354.478	6687
2356.468	6672
2358.457	6811
2360.446	6840
2362.434	6662
2364.422	6718
2366.408	6678
2368.395	6702
2370.383	6690
2372.369	6660
2374.353	6870
2376.338	6711
2378.321	6737
2380.307	6692
2382.29	6744
2384.272	6626
2386.254	6604
2388.235	6698
2390.218	6778
2392.198	6664
2394.179	6623
2396.157	6609
2398.137	6815
2400.115	6658
2402.095	6609
2404.072	6741
2406.048	6718
2408.026	6670
2410.001	6676
2411.977	6727
2413.953	6794
2415.927	6743
2417.9	6712
2419.875	6579
2421.847	6800
2423.821	6605
2425.792	6690
2427.763	6763
2429.736	6672
2431.706	6722
2433.677	6582
2435.646	6680
2437.615	6674
2439.583	6648
2441.551	6688
2443.519	6617
2445.486	6568
2447.452	6651
2449.418	6603
2451.383	6583
2453.348	6616
2455.314	6544
2457.278	6574
2459.241	6657
2461.205	6597
2463.167	6648
2465.131	6659
2467.091	6627
2469.052	6498
2471.012	6546
2472.972	6669
2474.932	6662
2476.891	6672
2478.85	6686
2480.808	6710
2482.766	6581
2484.722	6480
2486.68	6539
2488.636	6678
2490.591	6513
2492.546	6591
2494.5	6449
2496.456	6613
2498.41	6510
2500.362	6623
2502.315	6636
2504.266	6651
2506.218	6514
2508.169	6355
2510.121	6516
2512.07	6591
2514.019	6380
2515.968	6607
2517.918	6600
2519.866	6603
2521.813	6593
2523.76	6429
2525.707	6553
2527.653	6503
2529.599	6674
2531.543	6445
2533.489	6647
2535.433	6479
2537.376	6617
2539.32	6656
2541.264	6588
2543.205	6473
2545.147	6509
2547.087	6458
2549.029	6491
2550.969	6600
2552.908	6604
2554.847	6511
2556.786	6527
2558.724	6586
2560.663	6498
2562.6	6428
2564.537	6448
2566.473	6590
2568.408	6465
2570.345	6525
2572.28	6578
2574.214	6528
2576.148	6501
2578.081	6573
2580.014	6524
2581.947	6601
2583.879	6636
2585.81	6619
2587.741	6603
2589.67	6514
2591.602	6577
2593.532	6542
2595.461	6557
2597.388	6516
2599.316	6479
2601.244	6555
2603.172	6563
2605.098	6534
2607.023	6515
2608.949	6547
2610.873	6571
2612.8	6571
2614.723	6569
2616.647	6528
2618.569	6613
2620.493	6587
2622.416	6525
2624.338	6614
2626.258	6614
2628.179	6586
2630.099	6642
2632.019	6486
2633.939	6517
2635.857	6660
2637.775	6520
2639.694	6603
2641.61	6558
2643.528	6543
2645.444	6704
2647.361	6546
2649.276	6642
2651.19	6627
2653.105	6479
2655.019	6532
2656.934	6701
2658.846	6555
2660.758	6504
2662.67	6641
2664.583	6552
2666.493	6466
2668.404	6603
2670.313	6546
2672.223	6475
2674.134	6604
2676.042	6497
2677.95	6516
2679.858	6574
2681.765	6618
2683.673	6541
2685.579	6489
2687.483	6579
2689.389	6567
2691.294	6446
2693.198	6515
2695.104	6445
2697.006	6572
2698.909	6574
2700.811	6450
2702.713	6454
2704.615	6402
2706.516	6463
2708.417	6546
2710.316	6610
2712.216	6422
2714.115	6464
2716.014	6481
2717.913	6586
2719.81	6351
2721.707	6507
2723.603	6363
2725.501	6451
2727.396	6547
2729.292	6359
2731.186	6403
2733.081	6490
2734.976	6445
2736.87	6447
2738.762	6447
2740.653	6480
2742.546	6431
2744.437	6394
2746.329	6444
2748.22	6580
2750.11	6437
2751.999	6427
2753.889	6509
2755.778	6357
2757.666	6436
2759.553	6354
2761.44	6384
2763.328	6273
2765.215	6322
2767.101	6404
2768.986	6398
2770.87	6296
2772.754	6436
2774.638	6420
2776.523	6329
2778.405	6445
2780.288	6434
2782.17	6490
2784.051	6243
2785.934	6460
2787.814	6368
2789.694	6405
2791.574	6489
2793.453	6483
2795.332	6366
2797.212	6392
2799.088	6318
2800.966	6428
2802.843	6416
2804.719	6300
2806.597	6467
2808.471	6305
2810.346	6440
2812.221	6280
2814.094	6301
2815.969	6396
2817.843	6348
2819.714	6381
2821.587	6269
2823.459	6439
2825.329	6252
2827.202	6349
2829.072	6278
2830.942	6306
2832.811	6312
2834.68	6422
2836.549	6239
2838.418	6386
2840.284	6393
2842.152	6407
2844.018	6383
2845.885	6362
2847.751	6390
2849.616	6274
2851.482	6335
2853.345	6387
2855.208	6395
2857.074	6478
2858.937	6353
2860.799	6407
2862.66	6409
2864.522	6457
2866.385	6484
2868.245	6540
2870.104	6521
2871.964	6498
2873.824	6601
2875.683	6574
2877.542	6574
2879.4	6615
2881.257	6579
2883.114	6728
2884.97	6557
2886.827	6582
2888.683	6686
2890.537	6663
2892.392	6647
2894.246	6673
2896.1	6643
2897.954	6723
2899.807	6607
2901.66	6743
2903.51	6734
2905.362	6678
2907.214	6773
2909.065	6740
2910.915	6634
2912.765	6836
2914.613	6707
2916.463	6772
2918.311	6838
2920.158	6937
2922.006	6751
2923.853	7066
2925.698	7015
2927.546	7059
2929.392	7057
2931.236	7090
2933.081	7168
2934.924	7244
2936.77	7199
2938.613	7103
2940.455	7275
2942.298	7213
2944.139	7223
2945.982	7286
2947.823	6997
2949.662	7158
2951.503	7121
2953.342	7051
2955.182	7063
2957.021	7042
2958.858	6938
2960.697	6964
2962.534	6899
2964.37	6937
2966.207	6781
2968.044	6761
2969.879	6789
2971.714	6904
2973.548	6752
2975.383	6779
2977.218	6785
2979.051	6707
2980.883	6691
2982.715	6644
2984.547	6773
2986.379	6665
2988.21	6695
2990.04	6612
2991.87	6586
2993.7	6561
2995.53	6516
2997.359	6462
2999.187	6534
3001.015	6537
3002.842	6455
3004.669	6329
3006.497	6380
3008.323	6361
3010.148	6325
3011.974	6254
3013.797	6242
3015.623	6265
3017.447	6075
3019.27	6211
3021.094	6158
3022.915	6140
3024.737	6113
3026.56	6159
3028.38	6204
3030.201	6106
3032.022	6091
3033.84	6117
3035.662	6130
3037.481	6029
3039.298	5955
3041.117	6078
3042.933	6080
3044.752	6033
3046.568	6081
3048.385	6053
3050.2	6110
3052.016	5966
3053.83	5967
3055.646	6048
3057.46	5935
3059.272	5934
3061.086	6101
3062.898	6036
3064.711	5926
3066.524	6065
3068.335	6006
3070.145	6002
3071.956	5981
3073.766	5962
3075.576	5957
3077.385	5910
3079.193	5967
3081.002	5911
3082.81	5959
3084.618	5981
3086.425	5941
3088.231	5941
3090.036	5902
3091.842	5933
3093.648	5971
3095.452	5896
3097.257	5857
3099.06	5947
3100.863	5863
3102.666	5967
3104.47	5983
3106.272	5881
3108.073	5720
3109.875	5859
3111.676	5869
3113.477	5907
3115.277	5796
3117.077	5829
3118.874	5858
3120.673	5824
3122.473	5709
3124.271	5916
3126.066	5809
3127.863	5904
3129.66	5870
3131.456	5732
3133.252	5848
3135.047	5859
3136.842	5766
3138.635	5807
3140.429	5839
3142.223	5803
3144.016	5838
3145.808	5794
3147.6	5792
3149.392	5713
3151.183	5674
3152.975	5751
3154.765	5647
3156.553	5779
3158.344	5813
3160.132	5584
3161.922	5706
3163.71	5731
3165.497	5715
3167.285	5712
3169.071	5726
3170.858	5753
3172.645	5657
3174.429	5686
3176.214	5613
3177.998	5682
3179.783	5705
3181.568	5697
3183.351	5715
3185.133	5668
3186.915	5651
3188.698	5652
3190.481	5637
3192.261	5582
3194.042	5650
3195.822	5664
3197.601	5645
3199.381	5615
3201.161	5675
3202.939	5586
3204.717	5649
3206.495	5645
3208.272	5575
3210.05	5641
3211.826	5617
3213.602	5541
3215.376	5644
3217.151	5554
3218.927	5649
3220.702	5613
3222.476	5637
3224.249	5601
3226.021	5599
3227.793	5576
3229.567	5748
3231.339	5586
3233.109	5624
3234.88	5627
3236.651	5600
3238.421	5638
3240.191	5615
3241.96	5663
3243.728	5568
3245.497	5620
3247.263	5612
3249.033	5618
3250.799	5532
3252.566	5519
3254.331	5599
3256.097	5563
3257.863	5643
3259.628	5665
3261.392	5686
3263.156	5560
3264.919	5525
3266.683	5568
3268.447	5616
3270.208	5605
3271.969	5560
3273.731	5652
3275.492	5634
3277.253	5627
3279.013	5674
3280.773	5604
3282.532	5613
3284.291	5562
3286.05	5646
3287.808	5594
3289.566	5654
3291.323	5653
3293.079	5558
3294.835	5636
3296.593	5600
3298.348	5642
3300.102	5662
3301.857	5637
3303.611	5555
3305.366	5653
3307.119	5577
3308.872	5633
3310.624	5764
3312.376	5593
3314.129	5535
3315.881	5481
3317.631	5524
3319.38	5580
3321.13	5554
3322.88	5477
3324.631	5608
3326.379	5513
3328.126	5510
3329.875	5547
3331.622	5536
3333.371	5511
3335.116	5534
3336.863	5525
3338.609	5488
3340.353	5616
3342.1	5601
3343.845	5582
3345.588	5487
3347.332	5484
3349.074	5576
3350.817	5470
3352.56	5532
3354.303	5604
3356.043	5513
3357.785	5426
3359.525	5506
3361.268	5457
3363.007	5491
3364.745	5498
3366.485	5306
3368.223	5487
3369.962	5500
3371.701	5413
3373.438	5507
3375.174	5608
3376.911	5475
3378.647	5529
3380.384	5535
3382.118	5478
3383.854	5416
3385.588	5383
3387.322	5432
3389.057	5363
3390.79	5360
3392.522	5438
3394.255	5342
3395.987	5560
3397.719	5312
3399.451	5384
3401.181	5455
3402.911	5380
3404.641	5404
3406.371	5403
3408.101	5370
3409.83	5433
3411.558	5306
3413.285	5443
3415.011	5354
3416.739	5412
3418.467	5473
3420.193	5377
3421.919	5423
3423.644	5324
3425.368	5356
3427.094	5389
3428.818	5340
3430.542	5383
3432.264	5234
3433.987	5298
3435.712	5412
3437.434	5392
3439.155	5331
3440.876	5300
3442.596	5241
3444.317	5291
3446.039	5308
3447.757	5316
3449.477	5265
3451.195	5312
3452.914	5208
3454.632	5348
3456.35	5276
3458.067	5208
3459.784	5290
3461.5	5144
3463.216	5147
3464.932	5295
3466.647	5228
3468.362	5260
3470.076	5266
3471.789	5145
3473.505	5222
3475.217	5205
3476.929	5100
3478.641	5243
3480.354	5190
3482.066	5278
3483.777	5152
3485.487	5206
3487.197	5132
3488.908	5054
3490.617	5225
3492.327	5109
3494.035	5216
3495.743	5137
3497.451	5114
3499.158	5156
3500.866	5094
3502.572	5112
3504.278	5115
3505.984	5156
3507.689	5026
3509.396	5113
3511.1	5124
3512.804	5098
3514.508	5106
3516.211	5068
3517.913	5090
3519.616	5051
3521.319	5094
3523.021	4957
3524.722	5031
3526.422	4987
3528.124	5023
3529.824	5047
3531.524	5102
3533.222	5151
3534.921	4970
3536.62	5071
3538.318	4967
3540.016	5090
3541.714	4965
3543.41	5028
3545.107	4951
3546.803	4953
3548.5	4897
3550.194	4945
3551.889	4983
3553.583	4967
3555.279	5044
3556.972	5019
3558.666	4985
3560.358	5027
3562.051	5042
3563.742	5014
3565.435	5012
3567.126	4946
3568.817	4931
3570.507	4995
3572.197	4889
3573.888	4971
3575.577	4976
3577.265	4891
3578.954	4906
3580.642	4973
3582.329	4925
3584.017	4918
3585.704	4762
3587.391	5031
3589.077	4908
3590.762	4912
3592.449	4965
3594.133	4835
3595.817	4859
3597.501	4956
3599.185	4802
3600.869	4849
3602.552	4907
3604.234	4897
3605.916	4785
3607.598	4800
3609.279	4802
3610.961	4698
3612.642	4843
3614.321	4801
3616	4900
3617.68	4740
3619.36	4830
3621.039	4712
3622.716	4682
3624.394	4631
3626.071	4852
3627.748	4844
3629.425	4763
3631.102	4736
3632.778	4696
3634.452	4673
3636.127	4741
3637.803	4679
3639.477	4774
3641.151	4725
3642.823	4620
3644.497	4637
3646.171	4736
3647.842	4657
3649.515	4681
3651.185	4707
3652.857	4642
3654.527	4688
3656.198	4618
3657.868	4712
3659.537	4694
3661.207	4702
3662.875	4635
3664.544	4734
3666.212	4577
3667.879	4660
3669.546	4629
3671.212	4568
3672.88	4637
3674.546	4652
3676.211	4591
3677.875	4636
3679.541	4656
3681.205	4587
3682.87	4591
3684.533	4584
3686.196	4655
3687.859	4571
3689.521	4606
3691.184	4488
3692.845	4638
3694.507	4562
3696.167	4592
3697.827	4563
3699.487	4626
3701.148	4610
3702.808	4560
3704.466	4578
3706.125	4636
3707.783	4509
3709.442	4515
3711.099	4544
3712.757	4522
3714.412	4516
3716.068	4471
3717.725	4555
3719.381	4587
3721.036	4422
3722.689	4521
3724.344	4630
3725.998	4475
3727.652	4502
3729.305	4440
3730.958	4499
3732.61	4525
3734.262	4431
3735.915	4535
3737.565	4448
3739.217	4481
3740.866	4517
3742.516	4629
3744.165	4596
3745.816	4459
3747.464	4461
3749.113	4359
3750.761	4441
3752.409	4517
3754.057	4428
3755.703	4498
3757.35	4474
3758.996	4494
3760.641	4487
3762.289	4442
3763.933	4463
3765.577	4458
3767.222	4441
3768.865	4487
3770.508	4463
3772.152	4443
3773.796	4427
3775.438	4407
3777.079	4448
3778.721	4427
3780.363	4421
3782.003	4466
3783.643	4361
3785.283	4425
3786.923	4385
3788.563	4321
3790.203	4374
3791.841	4422
3793.479	4451
3795.115	4433
3796.753	4354
3798.391	4279
3800.027	4275
3801.664	4328
3803.299	4352
3804.935	4327
3806.571	4376
3808.206	4349
3809.839	4362
3811.473	4288
3813.107	4279
3814.74	4257
3816.375	4306
3818.006	4368
3819.638	4339
3821.27	4324
3822.9	4239
3824.532	4315
3826.163	4317
3827.792	4228
3829.423	4220
3831.051	4319
3832.682	4330
3834.311	4255
3835.938	4232
3837.566	4332
3839.193	4191
3840.821	4311
3842.448	4284
3844.075	4268
3845.7	4200
3847.325	4165
3848.951	4229
3850.576	4258
3852.201	4208
3853.825	4289
3855.448	4186
3857.072	4269
3858.694	4323
3860.318	4290
3861.939	4255
3863.562	4228
3865.183	4267
3866.804	4171
3868.426	4166
3870.045	4249
3871.666	4213
3873.285	4124
3874.904	4193
3876.524	4145
3878.142	4143
3879.76	4239
3881.378	4167
3882.995	4152
3884.612	4126
3886.229	4214
3887.845	4116
3889.461	4265
3891.076	4252
3892.691	4171
3894.307	4162
3895.922	4193
3897.536	4213
3899.149	4202
3900.761	4153
3902.374	4194
3903.988	4199
3905.6	4227
3907.212	4086
3908.822	4148
3910.433	4195
3912.045	4226
3913.655	4136
3915.265	4233
3916.875	4071
3918.483	4170
3920.093	4185
3921.702	4109
3923.309	4070
3924.917	4046
3926.523	4033
3928.13	4101
3929.739	4158
3931.344	4081
3932.95	4116
3934.555	4084
3936.159	4132
3937.766	4111
3939.369	4184
3940.974	4073
3942.577	4126
3944.181	4172
3945.783	4061
3947.386	4138
3948.989	4090
3950.59	4096
3952.191	4103
3953.791	4034
3955.394	4053
3956.994	4113
3958.593	4096
3960.192	4065
3961.791	4078
3963.392	4112
3964.99	4110
3966.588	4038
3968.185	4082
3969.782	4042
3971.379	4051
3972.976	4018
3974.572	4010
3976.168	4087
3977.763	3959
3979.358	4013
3980.954	3936
3982.548	4017
3984.142	3932
3985.736	4027
3987.329	4030
3988.922	3980
3990.516	3989
3992.108	4008
3993.698	4021
3995.29	3905
3996.881	3980
3998.473	3911
4000.064	3938
4001.653	3917
4003.242	3980
4004.832	3985
4006.422	3947
4008.01	3916
4009.598	3874
4011.186	3977
4012.773	3900
4014.36	3852
4015.947	3988
4017.534	3939
4019.119	3830
4020.705	3890
4022.291	3939
4023.876	3866
4025.461	3863
4027.044	3959
4028.627	3814
4030.211	3897
4031.795	3815
4033.378	3858
4034.96	3899
4036.542	3867
4038.124	3865
4039.704	3870
4041.286	3867
4042.867	3802
4044.447	3912
4046.026	3822
4047.606	3853
4049.187	3825
4050.765	3777
4052.343	3858
4053.92	3761
4055.498	3804
4057.076	3814
4058.654	3775
4060.23	3791
4061.806	3740
4063.381	3787
4064.957	3761
4066.533	3739
4068.107	3798
4069.682	3709
4071.256	3760
4072.829	3807
4074.404	3707
4075.977	3618
4077.549	3686
4079.121	3753
4080.693	3749
4082.265	3782
4083.836	3770
4085.407	3800
4086.977	3751
4088.547	3673
4090.117	3840
4091.687	3768
4093.256	3697
4094.825	3774
4096.392	3755
4097.96	3722
4099.528	3667
4101.097	3689
4102.663	3831
4104.229	3758
4105.795	3705
4107.361	3658
4108.928	3661
4110.493	3704
4112.058	3692
4113.621	3665
4115.186	3715
4116.75	3669
4118.313	3612
4119.876	3616
4121.438	3688
4123	3666
4124.562	3681
4126.125	3606
4127.686	3644
4129.246	3622
4130.807	3638
4132.367	3643
4133.927	3655
4135.486	3577
4137.046	3596
4138.604	3684
4140.162	3640
4141.72	3572
4143.279	3581
4144.836	3605
4146.393	3593
4147.949	3555
4149.505	3605
4151.062	3587
4152.617	3601
4154.172	3540
4155.727	3599
4157.281	3537
4158.836	3576
4160.39	3516
4161.943	3547
4163.496	3561
4165.048	3439
4166.601	3520
4168.154	3445
4169.706	3588
4171.257	3642
4172.808	3439
4174.358	3549
4175.909	3464
4177.458	3523
4179.008	3487
4180.558	3539
4182.106	3557
4183.655	3408
4185.204	3535
4186.751	3511
4188.298	3594
4189.845	3431
4191.392	3430
4192.939	3480
4194.485	3490
4196.031	3504
4197.576	3450
4199.121	3442
4200.666	3543
4202.211	3464
4203.754	3482
4205.298	3423
4206.84	3424
4208.384	3539
4209.927	3378
4211.47	3444
4213.011	3445
4214.552	3394
4216.094	3474
4217.635	3469
4219.175	3428
4220.716	3475
4222.255	3441
4223.793	3398
4225.335	3457
4226.873	3423
4228.411	3415
4229.948	3353
4231.486	3358
4233.024	3389
4234.562	3411
4236.098	3441
4237.634	3363
4239.169	3434
4240.705	3402
4242.241	3414
4243.776	3324
4245.31	3429
4246.844	3402
4248.378	3380
4249.911	3299
4251.445	3302
4252.978	3370
4254.51	3368
4256.042	3415
4257.574	3404
4259.107	3366
4260.638	3328
4262.169	3346
4263.699	3368
4265.228	3312
4266.759	3361
4268.289	3409
4269.818	3290
4271.345	3334
4272.874	3345
4274.402	3336
4275.931	3345
4277.458	3318
4278.985	3393
4280.512	3306
4282.037	3310
4283.564	3320
4285.089	3278
4286.615	3307
4288.139	3382
4289.664	3237
4291.187	3320
4292.712	3265
4294.235	3276
4295.759	3278
4297.281	3325
4298.804	3256
4300.327	3264
4301.849	3301
4303.37	3283
4304.891	3289
4306.412	3252
4307.933	3256
4309.453	3331
4310.973	3209
4312.492	3200
