398.1873	3999
400.7097	3973
403.2336	4047
405.7547	4070
408.2751	4070
410.7948	4075
413.3138	4083
415.83	4167
418.3497	4132
420.8666	4209
423.3829	4291
425.8985	4210
428.4133	4226
430.9275	4306
433.441	4149
435.9538	4369
438.4639	4391
440.9753	4307
443.4881	4328
445.9982	4384
448.5055	4391
451.0142	4443
453.5201	4336
456.0274	4303
458.5361	4311
461.04	4376
463.5453	4269
466.0478	4273
468.5517	4301
471.0549	4385
473.5574	4335
476.0572	4282
478.5584	4325
481.0568	4383
483.5545	4292
486.0557	4382
488.5521	4353
491.0478	4403
493.5449	4391
496.0392	4403
498.5349	4471
501.0299	4469
503.5222	4410
506.0139	4481
508.5048	4423
510.9991	4403
513.4887	4543
515.9777	4465
518.4659	4426
520.9534	4525
523.4403	4409
525.9306	4505
528.4161	4519
530.9009	4464
533.3851	4549
535.8687	4529
538.3535	4446
540.8356	4413
543.3171	4545
545.7979	4472
548.278	4519
550.7595	4520
553.2383	4488
555.7144	4509
558.1918	4483
560.6685	4489
563.1446	4501
565.6221	4576
568.0968	4673
570.5688	4623
573.0422	4598
575.515	4596
577.989	4601
580.4584	4597
582.9291	4675
585.3991	4671
587.8685	4676
590.3352	4762
592.8052	4606
595.2706	4646
597.7372	4673
600.2033	4691
602.6666	4619
605.1334	4574
607.5953	4666
610.0587	4735
612.5193	4631
614.9814	4635
617.4427	4617
619.9034	4509
622.3615	4568
624.8208	4653
627.2775	4666
629.7335	4522
632.1929	4567
634.6476	4542
637.1016	4554
639.5569	4637
642.0096	4664
644.4637	4624
646.9151	4630
649.3678	4722
651.8179	4696
654.2672	4706
656.7159	4750
659.166	4767
661.6154	4710
664.0622	4633
666.5082	4592
668.9537	4647
671.4005	4692
673.8445	4671
676.288	4665
678.7308	4677
681.1729	4754
683.6163	4748
686.0572	4764
688.4973	4810
690.9368	4764
693.3757	4857
695.8138	4681
698.2534	4766
700.6902	4703
703.1245	4780
705.56	4796
707.9949	4730
710.4311	4901
712.8647	4833
715.2957	4767
717.7279	4977
720.1595	4825
722.5905	4869
725.0208	4817
727.4505	4941
729.8795	4999
732.3058	4913
734.7336	4967
737.1626	4908
739.587	4906
742.0128	5010
744.4359	5003
746.8604	5039
749.2841	5063
751.7073	5029
754.1278	5108
756.5496	5029
758.9688	5050
761.3893	5132
763.8093	5121
766.2285	5069
768.6451	5106
771.0611	5031
773.4784	5098
775.895	5197
778.3091	5094
780.7244	5085
783.1371	5022
785.5493	5065
787.9626	5195
790.3754	5088
792.7856	5114
795.1951	5096
797.6039	5163
800.0121	5105
802.4236	5094
804.8306	5086
807.2369	5214
809.6425	5159
812.0475	5207
814.4538	5306
816.8575	5178
819.2606	5129
821.663	5227
824.0648	5101
826.4659	5188
828.8683	5235
831.2682	5152
833.6674	5215
836.066	5207
838.4639	5187
840.8632	5249
843.2579	5329
845.6539	5183
848.0493	5193
850.444	5283
852.84	5348
855.2315	5297
857.6243	5302
860.0165	5287
862.4081	5265
864.797	5259
867.1892	5271
869.5789	5263
871.9659	5340
874.3542	5349
876.74	5291
879.129	5256
881.5155	5372
883.8994	5344
886.2845	5207
888.6671	5255
891.051	5302
893.4343	5223
895.8169	5343
898.197	5256
900.5783	5238
902.9571	5290
905.3372	5245
907.7167	5382
910.0936	5313
912.4698	5269
914.8474	5374
917.2244	5361
919.5987	5502
921.9744	5462
924.3475	5454
926.72	5471
929.0918	5437
931.4669	5480
933.8375	5555
936.2074	5590
938.5767	5590
940.9454	5674
943.3154	5718
945.6829	5896
948.0497	5900
950.4178	6057
952.7833	6315
955.1483	6478
957.5145	6655
959.8782	6843
962.2412	6890
964.6036	6713
966.9655	6428
969.3266	6195
971.6871	6082
974.0471	5862
976.4064	5686
978.765	5664
981.125	5559
983.4824	5442
985.8373	5526
988.1935	5450
990.549	5408
992.9039	5471
995.2602	5429
997.6119	5467
999.965	5509
1002.317	5459
1004.667	5554
1007.02	5446
1009.371	5561
1011.719	5479
1014.068	5501
1016.415	5415
1018.765	5502
1021.111	5574
1023.458	5514
1025.804	5562
1028.147	5537
1030.49	5672
1032.837	5575
1035.179	5582
1037.522	5544
1039.862	5514
1042.204	5549
1044.546	5603
1046.884	5647
1049.224	5635
1051.562	5645
1053.899	5597
1056.237	5609
1058.575	5652
1060.91	5695
1063.244	5756
1065.58	5631
1067.913	5812
1070.248	5852
1072.579	5754
1074.911	5703
1077.242	5748
1079.572	5670
1081.905	5696
1084.234	5694
1086.562	5663
1088.89	5536
1091.217	5508
1093.544	5575
1095.871	5617
1098.197	5636
1100.521	5517
1102.845	5555
1105.169	5628
1107.491	5558
1109.814	5542
1112.135	5554
1114.456	5572
1116.776	5601
1119.096	5531
1121.415	5636
1123.734	5660
1126.052	5596
1128.369	5586
1130.686	5626
1133.002	5571
1135.318	5567
1137.632	5551
1139.945	5613
1142.258	5616
1144.573	5573
1146.884	5519
1149.196	5612
1151.505	5523
1153.816	5634
1156.124	5617
1158.435	5635
1160.742	5544
1163.051	5634
1165.356	5562
1167.663	5621
1169.97	5617
1172.276	5585
1174.579	5611
1176.881	5620
1179.186	5710
1181.487	5676
1183.79	5600
1186.092	5616
1188.392	5490
1190.691	5556
1192.991	5561
1195.291	5635
1197.588	5586
1199.885	5590
1202.181	5608
1204.479	5691
1206.775	5692
1209.07	5600
1211.363	5624
1213.656	5604
1215.949	5658
1218.241	5602
1220.534	5655
1222.825	5663
1225.115	5739
1227.405	5709
1229.693	5765
1231.984	5800
1234.271	5738
1236.558	5780
1238.845	5779
1241.131	5951
1243.416	5808
1245.703	5839
1247.987	5842
1250.269	5805
1252.552	5796
1254.834	5882
1257.118	5826
1259.399	5762
1261.678	5848
1263.958	5836
1266.237	5862
1268.516	5937
1270.794	5852
1273.072	5933
1275.347	5797
1277.624	5865
1279.899	5790
1282.175	5912
1284.449	5745
1286.722	5734
1288.995	5839
1291.266	5813
1293.54	5725
1295.81	5732
1298.081	5837
1300.35	5807
1302.62	5785
1304.889	5767
1307.156	5744
1309.425	5765
1311.69	5756
1313.957	5716
1316.222	5774
1318.488	5663
1320.751	5682
1323.016	5965
1325.278	5748
1327.54	5749
1329.803	5733
1332.065	5805
1334.325	5849
1336.584	5802
1338.843	5807
1341.101	5719
1343.36	5740
1345.617	5871
1347.876	5702
1350.131	5856
1352.387	5746
1354.643	5716
1356.897	5756
1359.151	5746
1361.403	5863
1363.656	5752
1365.909	5725
1368.16	5800
1370.409	5769
1372.659	5783
1374.909	5774
1377.157	5765
1379.407	5806
1381.655	5805
1383.9	5881
1386.147	5817
1388.393	5843
1390.64	5855
1392.885	5921
1395.127	5837
1397.37	5855
1399.614	5877
1401.854	5889
1404.098	5922
1406.339	5890
1408.578	5849
1410.818	5905
1413.056	5820
1415.297	5876
1417.533	5976
1419.771	5810
1422.006	5944
1424.243	5929
1426.479	5985
1428.715	5991
1430.948	5911
1433.182	6014
1435.414	5966
1437.647	6018
1439.88	5864
1442.11	5928
1444.342	6010
1446.571	5980
1448.799	6073
1451.029	6075
1453.258	6149
1455.485	6114
1457.711	6125
1459.937	6051
1462.164	6047
1464.39	6052
1466.614	6126
1468.838	6016
1471.06	5967
1473.283	5809
1475.506	5967
1477.727	6029
1479.949	5986
1482.169	5798
1484.389	5882
1486.609	5841
1488.828	5880
1491.045	5823
1493.261	5841
1495.477	5878
1497.693	5841
1499.91	5892
1502.125	5880
1504.339	5846
1506.553	5862
1508.766	5804
1510.979	5818
1513.191	5716
1515.402	5766
1517.613	5671
1519.823	5854
1522.033	5831
1524.242	5803
1526.451	5826
1528.657	5824
1530.865	5874
1533.072	5902
1535.278	5810
1537.484	5896
1539.687	5895
1541.892	5720
1544.096	5885
1546.299	5809
1548.502	5932
1550.703	5951
1552.905	5863
1555.104	5966
1557.303	5891
1559.505	5936
1561.703	5925
1563.902	5900
1566.099	5928
1568.295	6039
1570.494	5917
1572.689	5974
1574.883	6025
1577.079	6018
1579.272	6047
1581.467	5964
1583.659	5968
1585.853	6030
1588.044	6023
1590.234	6073
1592.424	5906
1594.615	6030
1596.806	6019
1598.994	6050
1601.182	6127
1603.369	6155
1605.557	6076
1607.744	6102
1609.929	6000
1612.114	6069
1614.298	6095
1616.482	5978
1618.667	6063
1620.85	6159
1623.032	6033
1625.214	6035
1627.395	6100
1629.575	6197
1631.755	6050
1633.935	6175
1636.114	6013
1638.292	6010
1640.471	6123
1642.647	6163
1644.823	6098
1647	6092
1649.175	6031
1651.348	6123
1653.525	6215
1655.698	6019
1657.87	6129
1660.043	6120
1662.213	6151
1664.387	6186
1666.558	6197
1668.727	6148
1670.896	6142
1673.064	6224
1675.233	6246
1677.401	6257
1679.569	6115
1681.735	6165
1683.902	6177
1686.066	6134
1688.233	6065
1690.397	6143
1692.559	6116
1694.723	6141
1696.885	6153
1699.048	6069
1701.21	6045
1703.37	6090
1705.53	6007
1707.689	6083
1709.849	5992
1712.009	6028
1714.166	6034
1716.323	5997
1718.479	6026
1720.634	5923
1722.793	6101
1724.948	6019
1727.102	6010
1729.255	6036
1731.408	6011
1733.562	6032
1735.714	6107
1737.865	6037
1740.016	6012
1742.166	6012
1744.316	6029
1746.467	6117
1748.616	6001
1750.764	6116
1752.911	5992
1755.056	6093
1757.205	6089
1759.35	6105
1761.496	6157
1763.641	6152
1765.785	6011
1767.927	6109
1770.072	6079
1772.214	6096
1774.355	6064
1776.496	6116
1778.637	6135
1780.778	6192
1782.918	6177
1785.057	6190
1787.194	6137
1789.333	6179
1791.472	6112
1793.608	6144
1795.745	6118
1797.879	6057
1800.015	6067
1802.148	6081
1804.284	6185
1806.417	6171
1808.548	6155
1810.682	6045
1812.812	6194
1814.946	6035
1817.075	6165
1819.205	6129
1821.335	6052
1823.463	6116
1825.59	6085
1827.721	6113
1829.847	6107
1831.973	6166
1834.098	6063
1836.223	6073
1838.351	6164
1840.475	6183
1842.598	6125
1844.721	6185
1846.843	6018
1848.966	6127
1851.087	6016
1853.21	6022
1855.33	6091
1857.449	6031
1859.568	6058
1861.688	6062
1863.806	5987
1865.924	6082
1868.039	6110
1870.155	6100
1872.273	6018
1874.388	5992
1876.503	6119
1878.617	6145
1880.73	6048
1882.844	6083
1884.956	6141
1887.068	6091
1889.18	6098
1891.291	6116
1893.4	6175
1895.511	6217
1897.621	6149
1899.73	6244
1901.837	6123
1903.944	6150
1906.053	6270
1908.159	6266
1910.265	6158
1912.369	6201
1914.474	6165
1916.577	6268
1918.683	6263
1920.785	6184
1922.888	6254
1924.989	6215
1927.091	6177
1929.193	6281
1931.294	6274
1933.393	6162
1935.493	6212
1937.59	6191
1939.689	6207
1941.788	6242
1943.884	6201
1945.98	6144
1948.077	6164
1950.171	6272
1952.267	6248
1954.361	6240
1956.455	6132
1958.548	6207
1960.64	6323
1962.733	6175
1964.824	6100
1966.915	6274
1969.005	6309
1971.096	6195
1973.185	6308
1975.275	6260
1977.363	6273
1979.45	6190
1981.537	6205
1983.623	6208
1985.711	6134
1987.796	6122
1989.881	6152
1991.965	6089
1994.047	6141
1996.132	6215
1998.215	6122
2000.297	6172
2002.378	6154
2004.46	6158
2006.54	6137
2008.62	6123
2010.7	6150
2012.779	6104
2014.858	6134
2016.934	6186
2019.013	6031
2021.09	6192
2023.165	6168
2025.241	6086
2027.317	6166
2029.39	6200
2031.466	6156
2033.538	6222
2035.612	6241
2037.683	6182
2039.755	6208
2041.827	6073
2043.898	6170
2045.968	6192
2048.038	6193
2050.106	6144
2052.177	6199
2054.244	6108
2056.313	6248
2058.379	6131
2060.444	6187
2062.511	6215
2064.577	6211
2066.641	6269
2068.705	6134
2070.77	6267
2072.832	6138
2074.896	6207
2076.958	6142
2079.02	6213
2081.081	6077
2083.141	6220
2085.2	6277
2087.261	6144
2089.319	6315
2091.377	6094
2093.435	6211
2095.492	6215
2097.552	6094
2099.607	6220
2101.663	6160
2103.718	6243
2105.771	6169
2107.826	6254
2109.879	6184
2111.932	6163
2113.985	6168
2116.037	6181
2118.088	6208
2120.141	6255
2122.191	6226
2124.239	6181
2126.288	6207
2128.337	6188
2130.387	6136
2132.434	6142
2134.481	6178
2136.528	6139
2138.574	6123
2140.618	6245
2142.665	6186
2144.71	6080
2146.753	6111
2148.797	6117
2150.838	6176
2152.883	6242
2154.923	6127
2156.965	6228
2159.007	6012
2161.046	6122
2163.086	6241
2165.126	6125
2167.163	6077
2169.202	6139
2171.239	6213
2173.277	6104
2175.314	6040
2177.349	6060
2179.385	6242
2181.42	6119
2183.453	6090
2185.49	6089
2187.522	6129
2189.555	6106
2191.586	6117
2193.619	6093
2195.651	6056
2197.682	6063
2199.711	6020
2201.74	6002
2203.769	6112
2205.799	6025
2207.828	6083
2209.855	6005
2211.882	6083
2213.908	5999
2215.934	6124
2217.961	6039
2219.986	6090
2222.01	6052
2224.034	6056
2226.057	5990
2228.08	6028
2230.104	6038
2232.124	6043
2234.145	5967
2236.166	6043
2238.186	5998
2240.207	6026
2242.227	5879
2244.244	6119
2246.262	6041
2248.28	6103
2250.299	5987
2252.314	5984
2254.33	6001
2256.346	5993
2258.36	5958
2260.375	6182
2262.391	6049
2264.403	5976
2266.416	6154
2268.427	6098
2270.44	6037
2272.453	6111
2274.463	5998
2276.474	6021
2278.483	6087
2280.493	6099
2282.501	6113
2284.51	6036
2286.518	6147
2288.524	5941
2290.532	6048
2292.537	6045
2294.544	6045
2296.55	5999
2298.554	6025
2300.557	6002
2302.562	5964
2304.566	6012
2306.568	6000
2308.569	5979
2310.572	6105
2312.573	6079
2314.573	5980
2316.574	6072
2318.573	5971
2320.571	6058
2322.571	6032
2324.569	5988
2326.567	6000
2328.564	6048
2330.56	6019
2332.556	6044
2334.551	5941
2336.546	5881
2338.542	5874
2340.535	5957
2342.529	5959
2344.521	5953
2346.512	5886
2348.505	6070
2350.497	5915
2352.487	5970
2354.478	5907
2356.468	6007
2358.457	5953
2360.446	5932
2362.434	5867
2364.422	5878
2366.408	5962
2368.395	5813
2370.383	5995
2372.369	5950
2374.353	5925
2376.338	5854
2378.321	5947
2380.307	5963
2382.29	5907
2384.272	5834
2386.254	5841
2388.235	5969
2390.218	5912
2392.198	5849
2394.179	5809
2396.157	5807
2398.137	5918
2400.115	5947
2402.095	5803
2404.072	5882
2406.048	5903
2408.026	5852
2410.001	5866
2411.977	5977
2413.953	5960
2415.927	5928
2417.9	5832
2419.875	5873
2421.847	5888
2423.821	5971
2425.792	5835
2427.763	5982
2429.736	5919
2431.706	5790
2433.677	5918
2435.646	5929
2437.615	5970
2439.583	5914
2441.551	5922
2443.519	5834
2445.486	5903
2447.452	5854
2449.418	5824
2451.383	5937
2453.348	5829
2455.314	5836
2457.278	5860
2459.241	5852
2461.205	5790
2463.167	5871
2465.131	5858
2467.091	5781
2469.052	5701
2471.012	5823
2472.972	5959
2474.932	5839
2476.891	5798
2478.85	5849
2480.808	5888
2482.766	5889
2484.722	5786
2486.68	5732
2488.636	5809
2490.591	5802
2492.546	5805
2494.5	5810
2496.456	5807
2498.41	5906
2500.362	5772
2502.315	5872
2504.266	5838
2506.218	5840
2508.169	5782
2510.121	5784
2512.07	5725
2514.019	5778
2515.968	5751
2517.918	5808
2519.866	5861
2521.813	5773
2523.76	5739
2525.707	5826
2527.653	5731
2529.599	5733
2531.543	5768
2533.489	5725
2535.433	5822
2537.376	5771
2539.32	5759
2541.264	5761
2543.205	5624
2545.147	5772
2547.087	5781
2549.029	5665
2550.969	5740
2552.908	5795
2554.847	5742
2556.786	5780
2558.724	5707
2560.663	5770
2562.6	5799
2564.537	5750
2566.473	5674
2568.408	5660
2570.345	5795
2572.28	5740
2574.214	5838
2576.148	5751
2578.081	5746
2580.014	5852
2581.947	5760
2583.879	5750
2585.81	5712
2587.741	5904
2589.67	5829
2591.602	5837
2593.532	5812
2595.461	5917
2597.388	5802
2599.316	5744
2601.244	5706
2603.172	5803
2605.098	5877
2607.023	5799
2608.949	5823
2610.873	5796
2612.8	5833
2614.723	5778
2616.647	5780
2618.569	5769
2620.493	5800
2622.416	5853
2624.338	5747
2626.258	5767
2628.179	5759
2630.099	5769
2632.019	5778
2633.939	5784
2635.857	5814
2637.775	5798
2639.694	5825
2641.61	5802
2643.528	5870
2645.444	5841
2647.361	5793
2649.276	5810
2651.19	5862
2653.105	5928
2655.019	5781
2656.934	5841
2658.846	5809
2660.758	5805
2662.67	5692
2664.583	5850
2666.493	5797
2668.404	5836
2670.313	5779
2672.223	5806
2674.134	5866
2676.042	5721
2677.95	5767
2679.858	5846
2681.765	5841
2683.673	5714
2685.579	5816
2687.483	5731
2689.389	5739
2691.294	5717
2693.198	5878
2695.104	5771
2697.006	5713
2698.909	5748
2700.811	5630
2702.713	5794
2704.615	5754
2706.516	5671
2708.417	5734
2710.316	5715
2712.216	5706
2714.115	5719
2716.014	5790
2717.913	5738
2719.81	5674
2721.707	5644
2723.603	5725
2725.501	5824
2727.396	5788
2729.292	5660
2731.186	5691
2733.081	5658
2734.976	5642
2736.87	5651
2738.762	5683
2740.653	5702
2742.546	5710
2744.437	5683
2746.329	5666
2748.22	5703
2750.11	5712
2751.999	5555
2753.889	5741
2755.778	5718
2757.666	5592
2759.553	5671
2761.44	5641
2763.328	5567
2765.215	5728
2767.101	5709
2768.986	5556
2770.87	5575
2772.754	5693
2774.638	5743
2776.523	5716
2778.405	5602
2780.288	5699
2782.17	5710
2784.051	5675
2785.934	5738
2787.814	5645
2789.694	5695
2791.574	5687
2793.453	5680
2795.332	5777
2797.212	5622
2799.088	5692
2800.966	5624
2802.843	5628
2804.719	5626
2806.597	5670
2808.471	5660
2810.346	5574
2812.221	5689
2814.094	5605
2815.969	5689
2817.843	5773
2819.714	5611
2821.587	5565
2823.459	5676
2825.329	5647
2827.202	5589
2829.072	5563
2830.942	5598
2832.811	5603
2834.68	5632
2836.549	5603
2838.418	5670
2840.284	5624
2842.152	5622
2844.018	5583
2845.885	5616
2847.751	5642
2849.616	5627
2851.482	5604
2853.345	5665
2855.208	5730
2857.074	5650
2858.937	5787
2860.799	5706
2862.66	5767
2864.522	5694
2866.385	5706
2868.245	5801
2870.104	5921
2871.964	5848
2873.824	5855
2875.683	5895
2877.542	5968
2879.4	5887
2881.257	5854
2883.114	6021
2884.97	6020
2886.827	6072
2888.683	5991
2890.537	6076
2892.392	6079
2894.246	5919
2896.1	6022
2897.954	5935
2899.807	5993
2901.66	6000
2903.51	6031
2905.362	5952
2907.214	5940
2909.065	5923
2910.915	6024
2912.765	6079
2914.613	6036
2916.463	6199
2918.311	6172
2920.158	6077
2922.006	6208
2923.853	6312
2925.698	6390
2927.546	6395
2929.392	6381
2931.236	6396
2933.081	6578
2934.924	6551
2936.77	6527
2938.613	6552
2940.455	6698
2942.298	6587
2944.139	6693
2945.982	6643
2947.823	6745
2949.662	6635
2951.503	6612
2953.342	6443
2955.182	6427
2957.021	6282
2958.858	6499
2960.697	6427
2962.534	6378
2964.37	6209
2966.207	6106
2968.044	6200
2969.879	6181
2971.714	6132
2973.548	6106
2975.383	6220
2977.218	5967
2979.051	6049
2980.883	6050
2982.715	6134
2984.547	6073
2986.379	6076
2988.21	6042
2990.04	5912
2991.87	5895
2993.7	5943
2995.53	5941
2997.359	5876
2999.187	5861
3001.015	5781
3002.842	5767
3004.669	5786
3006.497	5734
3008.323	5679
3010.148	5537
3011.974	5527
3013.797	5719
3015.623	5602
3017.447	5466
3019.27	5503
3021.094	5406
3022.915	5513
3024.737	5456
3026.56	5459
3028.38	5457
3030.201	5512
3032.022	5475
3033.84	5343
3035.662	5399
3037.481	5297
3039.298	5435
3041.117	5476
3042.933	5430
3044.752	5406
3046.568	5428
3048.385	5510
3050.2	5414
3052.016	5466
3053.83	5332
3055.646	5451
3057.46	5353
3059.272	5345
3061.086	5333
3062.898	5424
3064.711	5480
3066.524	5393
3068.335	5305
3070.145	5306
3071.956	5406
3073.766	5308
3075.576	5281
3077.385	5270
3079.193	5293
3081.002	5266
3082.81	5171
3084.618	5257
3086.425	5276
3088.231	5239
3090.036	5190
3091.842	5194
3093.648	5169
3095.452	5258
3097.257	5325
3099.06	5241
3100.863	5164
3102.666	5172
3104.47	5297
3106.272	5222
3108.073	5189
3109.875	5151
3111.676	5219
3113.477	5236
3115.277	5195
3117.077	5201
3118.874	5269
3120.673	5109
3122.473	5136
3124.271	5129
3126.066	5129
3127.863	5257
3129.66	5129
3131.456	5206
3133.252	5116
3135.047	5194
3136.842	5132
3138.635	5070
3140.429	5178
3142.223	5106
3144.016	5113
3145.808	5117
3147.6	5085
3149.392	5172
3151.183	5243
3152.975	5055
3154.765	5232
3156.553	5122
3158.344	5117
3160.132	5036
3161.922	5149
3163.71	5166
3165.497	5128
3167.285	5118
3169.071	4976
3170.858	5102
3172.645	4997
3174.429	5181
3176.214	5101
3177.998	4996
3179.783	4964
3181.568	5075
3183.351	5081
3185.133	5054
3186.915	5051
3188.698	5037
3190.481	5062
3192.261	5122
3194.042	5076
3195.822	5003
3197.601	5084
3199.381	5058
3201.161	5096
3202.939	5023
3204.717	5078
3206.495	5148
3208.272	5037
3210.05	5017
3211.826	5037
3213.602	5116
3215.376	5040
3217.151	5101
3218.927	4994
3220.702	5015
3222.476	5024
3224.249	5006
3226.021	4972
3227.793	5085
3229.567	5033
3231.339	4985
3233.109	4984
3234.88	5046
3236.651	4991
3238.421	4925
3240.191	5000
3241.96	4982
3243.728	5131
3245.497	4941
3247.263	5042
3249.033	5002
3250.799	5000
3252.566	5052
3254.331	5038
3256.097	4916
3257.863	5010
3259.628	5038
3261.392	5053
3263.156	4870
3264.919	4984
3266.683	5030
3268.447	4947
3270.208	5083
3271.969	5068
3273.731	5071
3275.492	4955
3277.253	5009
3279.013	5023
3280.773	4960
3282.532	4972
3284.291	5062
3286.05	5031
3287.808	5038
3289.566	4986
3291.323	5058
3293.079	5076
3294.835	5024
3296.593	4979
3298.348	4997
3300.102	5146
3301.857	4999
3303.611	4991
3305.366	5039
3307.119	4996
3308.872	5001
3310.624	5039
3312.376	5003
3314.129	4875
3315.881	5001
3317.631	5025
3319.38	5107
3321.13	4998
3322.88	5022
3324.631	4984
3326.379	4961
3328.126	4917
3329.875	5070
3331.622	4946
3333.371	4995
3335.116	5031
3336.863	5027
3338.609	4958
3340.353	4998
3342.1	4998
3343.845	4888
3345.588	4948
3347.332	4877
3349.074	5002
3350.817	4948
3352.56	4922
3354.303	4833
3356.043	4999
3357.785	5006
3359.525	4967
3361.268	4940
3363.007	4980
3364.745	4826
3366.485	4991
3368.223	4959
3369.962	4911
3371.701	4921
3373.438	4890
3375.174	4998
3376.911	4867
3378.647	4953
3380.384	4844
3382.118	4916
3383.854	4904
3385.588	4890
3387.322	4821
3389.057	4858
3390.79	4838
3392.522	4848
3394.255	4828
3395.987	4878
3397.719	4704
3399.451	4747
3401.181	4823
3402.911	4868
3404.641	4846
3406.371	4781
3408.101	4828
3409.83	4827
3411.558	4892
3413.285	4723
3415.011	4832
3416.739	4799
3418.467	4755
3420.193	4737
3421.919	4820
3423.644	4806
3425.368	4768
3427.094	4818
3428.818	4784
3430.542	4798
3432.264	4785
3433.987	4760
3435.712	4731
3437.434	4746
3439.155	4850
3440.876	4712
3442.596	4801
3444.317	4757
3446.039	4794
3447.757	4656
3449.477	4784
3451.195	4731
3452.914	4734
3454.632	4756
3456.35	4800
3458.067	4665
3459.784	4630
3461.5	4688
3463.216	4655
3464.932	4580
3466.647	4690
3468.362	4661
3470.076	4615
3471.789	4649
3473.505	4536
3475.217	4660
3476.929	4611
3478.641	4672
3480.354	4623
3482.066	4595
3483.777	4607
3485.487	4575
3487.197	4552
3488.908	4598
3490.617	4679
3492.327	4537
3494.035	4569
3495.743	4713
3497.451	4504
3499.158	4522
3500.866	4565
3502.572	4581
3504.278	4545
3505.984	4528
3507.689	4550
3509.396	4527
3511.1	4565
3512.804	4532
3514.508	4458
3516.211	4532
3517.913	4602
3519.616	4481
3521.319	4596
3523.021	4521
3524.722	4541
3526.422	4457
3528.124	4487
3529.824	4405
3531.524	4418
3533.222	4462
3534.921	4513
3536.62	4513
3538.318	4493
3540.016	4467
3541.714	4430
3543.41	4422
3545.107	4496
3546.803	4394
3548.5	4502
3550.194	4466
3551.889	4510
3553.583	4487
3555.279	4398
3556.972	4478
3558.666	4402
3560.358	4440
3562.051	4436
3563.742	4409
3565.435	4465
3567.126	4447
3568.817	4386
3570.507	4372
3572.197	4381
3573.888	4388
3575.577	4358
3577.265	4455
3578.954	4364
3580.642	4438
3582.329	4371
3584.017	4332
3585.704	4373
3587.391	4345
3589.077	4327
3590.762	4275
3592.449	4380
3594.133	4418
3595.817	4303
3597.501	4355
3599.185	4204
3600.869	4332
3602.552	4224
3604.234	4318
3605.916	4359
3607.598	4223
3609.279	4273
3610.961	4392
3612.642	4261
3614.321	4229
3616	4224
3617.68	4259
3619.36	4280
3621.039	4210
3622.716	4151
3624.394	4234
3626.071	4241
3627.748	4279
3629.425	4273
3631.102	4202
3632.778	4231
3634.452	4102
3636.127	4279
3637.803	4253
3639.477	4202
3641.151	4178
3642.823	4168
3644.497	4179
3646.171	4159
3647.842	4216
3649.515	4184
3651.185	4217
3652.857	4120
3654.527	4186
3656.198	4091
3657.868	4172
3659.537	4168
3661.207	4058
3662.875	4111
3664.544	4195
3666.212	4106
3667.879	4039
3669.546	4099
3671.212	4056
3672.88	4142
3674.546	4159
3676.211	4081
3677.875	3995
3679.541	4108
3681.205	4083
3682.87	4096
3684.533	4046
3686.196	4100
3687.859	4101
3689.521	4041
3691.184	4092
3692.845	4032
3694.507	4035
3696.167	4010
3697.827	3990
3699.487	4082
3701.148	4031
3702.808	4060
3704.466	4092
3706.125	4091
3707.783	4050
3709.442	4099
3711.099	4065
3712.757	4045
3714.412	4125
3716.068	3978
3717.725	3970
3719.381	4007
3721.036	3979
3722.689	4064
3724.344	3958
3725.998	4038
3727.652	3913
3729.305	3957
3730.958	3941
3732.61	3988
3734.262	4027
3735.915	4006
3737.565	3963
3739.217	4050
3740.866	3965
3742.516	3978
3744.165	3870
3745.816	4006
3747.464	3941
3749.113	4083
3750.761	3991
3752.409	3967
3754.057	3977
3755.703	3931
3757.35	3983
3758.996	4079
3760.641	3965
3762.289	3943
3763.933	3970
3765.577	3969
3767.222	3934
3768.865	4043
3770.508	3905
3772.152	3890
3773.796	3959
3775.438	3889
3777.079	3824
3778.721	3931
3780.363	3974
3782.003	3853
3783.643	3936
3785.283	3841
3786.923	3896
3788.563	3924
3790.203	3881
3791.841	3851
3793.479	3861
3795.115	3890
3796.753	3813
3798.391	3824
3800.027	3872
3801.664	3899
3803.299	3921
3804.935	3898
3806.571	3900
3808.206	3872
3809.839	3800
3811.473	3900
3813.107	3825
3814.74	3841
3816.375	3860
3818.006	3757
3819.638	3812
3821.27	3843
3822.9	3836
3824.532	3882
3826.163	3854
3827.792	3789
3829.423	3832
3831.051	3793
3832.682	3798
3834.311	3834
3835.938	3758
3837.566	3841
3839.193	3807
3840.821	3759
3842.448	3701
3844.075	3799
3845.7	3796
3847.325	3642
3848.951	3767
3850.576	3736
3852.201	3841
3853.825	3759
3855.448	3773
3857.072	3804
3858.694	3765
3860.318	3778
3861.939	3743
3863.562	3807
3865.183	3728
3866.804	3666
3868.426	3764
3870.045	3727
3871.666	3688
3873.285	3774
3874.904	3732
3876.524	3753
3878.142	3738
3879.76	3743
3881.378	3768
3882.995	3689
3884.612	3644
3886.229	3757
3887.845	3611
3889.461	3769
3891.076	3697
3892.691	3756
3894.307	3689
3895.922	3631
3897.536	3645
3899.149	3645
3900.761	3650
3902.374	3769
3903.988	3706
3905.6	3700
3907.212	3731
3908.822	3646
3910.433	3748
3912.045	3751
3913.655	3670
3915.265	3652
3916.875	3686
3918.483	3661
3920.093	3669
3921.702	3638
3923.309	3710
3924.917	3614
3926.523	3568
3928.13	3701
3929.739	3582
3931.344	3646
3932.95	3654
3934.555	3679
3936.159	3613
3937.766	3635
3939.369	3598
3940.974	3694
3942.577	3689
3944.181	3655
3945.783	3633
3947.386	3599
3948.989	3588
3950.59	3652
3952.191	3705
3953.791	3574
3955.394	3599
3956.994	3596
3958.593	3555
3960.192	3684
3961.791	3613
3963.392	3676
3964.99	3487
3966.588	3589
3968.185	3574
3969.782	3565
3971.379	3498
3972.976	3686
3974.572	3614
3976.168	3551
3977.763	3542
3979.358	3546
3980.954	3537
3982.548	3627
3984.142	3588
3985.736	3553
3987.329	3481
3988.922	3487
3990.516	3559
3992.108	3470
3993.698	3495
3995.29	3453
3996.881	3548
3998.473	3465
4000.064	3518
4001.653	3487
4003.242	3508
4004.832	3508
4006.422	3429
4008.01	3484
4009.598	3541
4011.186	3546
4012.773	3394
4014.36	3522
4015.947	3505
4017.534	3450
4019.119	3433
4020.705	3402
4022.291	3483
4023.876	3345
4025.461	3537
4027.044	3423
4028.627	3388
4030.211	3384
4031.795	3388
4033.378	3404
4034.96	3428
4036.542	3499
4038.124	3412
4039.704	3427
4041.286	3454
4042.867	3362
4044.447	3400
4046.026	3393
4047.606	3298
4049.187	3370
4050.765	3426
4052.343	3330
4053.92	3396
4055.498	3325
4057.076	3323
4058.654	3386
4060.23	3380
4061.806	3337
4063.381	3393
4064.957	3272
4066.533	3304
4068.107	3300
4069.682	3354
4071.256	3300
4072.829	3438
4074.404	3289
4075.977	3399
4077.549	3347
4079.121	3318
4080.693	3297
4082.265	3348
4083.836	3280
4085.407	3304
4086.977	3276
4088.547	3307
4090.117	3348
4091.687	3334
4093.256	3302
4094.825	3251
4096.392	3332
4097.96	3373
4099.528	3243
4101.097	3292
4102.663	3301
4104.229	3281
4105.795	3329
4107.361	3341
4108.928	3275
4110.493	3284
4112.058	3190
4113.621	3286
4115.186	3293
4116.75	3259
4118.313	3233
4119.876	3210
4121.438	3180
4123	3224
4124.562	3235
4126.125	3271
4127.686	3126
4129.246	3205
4130.807	3221
4132.367	3181
4133.927	3262
4135.486	3211
4137.046	3228
4138.604	3191
4140.162	3200
4141.72	3221
4143.279	3209
4144.836	3268
4146.393	3152
4147.949	3176
4149.505	3176
4151.062	3223
4152.617	3183
4154.172	3139
4155.727	3216
4157.281	3229
4158.836	3177
4160.39	3108
4161.943	3193
4163.496	3176
4165.048	3164
4166.601	3106
4168.154	3143
4169.706	3144
4171.257	3184
4172.808	3137
4174.358	3139
4175.909	3150
4177.458	3076
4179.008	3118
4180.558	3115
4182.106	3116
4183.655	3086
4185.204	3074
4186.751	3163
4188.298	3095
4189.845	3092
4191.392	3059
4192.939	3132
4194.485	3175
4196.031	3099
4197.576	3102
4199.121	3094
4200.666	3035
4202.211	3018
4203.754	3099
4205.298	3081
4206.84	3019
4208.384	3013
4209.927	3084
4211.47	3008
4213.011	2981
4214.552	3058
4216.094	3020
4217.635	3041
4219.175	3035
4220.716	3077
4222.255	3092
4223.793	3112
4225.335	3135
4226.873	2985
4228.411	3027
4229.948	3066
4231.486	3037
4233.024	2986
4234.562	3057
4236.098	3138
4237.634	3073
4239.169	2999
4240.705	2979
4242.241	3049
4243.776	3047
4245.31	3037
4246.844	3043
4248.378	3025
4249.911	3039
4251.445	2995
4252.978	3054
4254.51	2980
4256.042	2955
4257.574	3029
4259.107	3066
4260.638	2991
4262.169	2969
4263.699	3049
4265.228	3012
4266.759	3010
4268.289	2988
4269.818	2909
4271.345	3027
4272.874	2936
4274.402	3035
4275.931	2944
4277.458	2987
4278.985	2956
4280.512	3027
4282.037	2983
4283.564	2998
4285.089	2999
4286.615	2948
4288.139	2883
4289.664	2921
4291.187	2971
4292.712	2927
4294.235	3032
4295.759	2896
4297.281	2918
4298.804	2937
4300.327	2861
4301.849	2961
4303.37	2915
4304.891	2933
4306.412	2932
4307.933	2975
4309.453	2913
4310.973	2949
4312.492	2839
