398.1873	2743
400.7097	2730
403.2336	2736
405.7547	2741
408.2751	2747
410.7948	2771
413.3138	2855
415.83	2826
418.3497	2813
420.8666	2876
423.3829	2899
425.8985	2936
428.4133	2977
430.9275	2930
433.441	3014
435.9538	2925
438.4639	2981
440.9753	2920
443.4881	2846
445.9982	3011
448.5055	2988
451.0142	2951
453.5201	2944
456.0274	2957
458.5361	2898
461.04	2911
463.5453	2971
466.0478	2965
468.5517	2939
471.0549	2857
473.5574	2949
476.0572	2945
478.5584	2933
481.0568	2906
483.5545	2990
486.0557	2955
488.5521	2988
491.0478	3001
493.5449	2916
496.0392	2980
498.5349	2944
501.0299	2945
503.5222	3014
506.0139	3002
508.5048	2976
510.9991	3059
513.4887	3082
515.9777	3030
518.4659	3070
520.9534	2992
523.4403	2997
525.9306	3015
528.4161	3064
530.9009	2983
533.3851	3158
535.8687	3038
538.3535	3014
540.8356	3031
543.3171	3033
545.7979	3087
548.278	3076
550.7595	3047
553.2383	3040
555.7144	3008
558.1918	3048
560.6685	3054
563.1446	3099
565.6221	3045
568.0968	3129
570.5688	3149
573.0422	3052
575.515	3141
577.989	3123
580.4584	3182
582.9291	3091
585.3991	3129
587.8685	3123
590.3352	3184
592.8052	3169
595.2706	3152
597.7372	3197
600.2033	3186
602.6666	3128
605.1334	3144
607.5953	3226
610.0587	3147
612.5193	3105
614.9814	3198
617.4427	3093
619.9034	3056
622.3615	3063
624.8208	3116
627.2775	3065
629.7335	3048
632.1929	3165
634.6476	3164
637.1016	3009
639.5569	3126
642.0096	3065
644.4637	3173
646.9151	3124
649.3678	3165
651.8179	3162
654.2672	3170
656.7159	3155
659.166	3172
661.6154	3190
664.0622	3125
666.5082	3170
668.9537	3151
671.4005	3182
673.8445	3189
676.288	3228
678.7308	3203
681.1729	3170
683.6163	3197
686.0572	3143
688.4973	3225
690.9368	3236
693.3757	3253
695.8138	3272
698.2534	3350
700.6902	3194
703.1245	3226
705.56	3212
707.9949	3269
710.4311	3226
712.8647	3246
715.2957	3296
717.7279	3300
720.1595	3277
722.5905	3283
725.0208	3340
727.4505	3334
729.8795	3287
732.3058	3346
734.7336	3340
737.1626	3329
739.587	3333
742.0128	3353
744.4359	3425
746.8604	3387
749.2841	3410
751.7073	3358
754.1278	3449
756.5496	3446
758.9688	3355
761.3893	3485
763.8093	3410
766.2285	3417
768.6451	3410
771.0611	3425
773.4784	3346
775.895	3459
778.3091	3428
780.7244	3453
783.1371	3405
785.5493	3454
787.9626	3479
790.3754	3412
792.7856	3467
795.1951	3469
797.6039	3338
800.0121	3412
802.4236	3523
804.8306	3515
807.2369	3468
809.6425	3495
812.0475	3448
814.4538	3543
816.8575	3504
819.2606	3485
821.663	3498
824.0648	3600
826.4659	3433
828.8683	3477
831.2682	3512
833.6674	3433
836.066	3513
838.4639	3496
840.8632	3470
843.2579	3569
845.6539	3494
848.0493	3519
850.444	3569
852.84	3581
855.2315	3541
857.6243	3467
860.0165	3587
862.4081	3528
864.797	3609
867.1892	3508
869.5789	3520
871.9659	3571
874.3542	3536
876.74	3503
879.129	3532
881.5155	3572
883.8994	3566
886.2845	3657
888.6671	3541
891.051	3568
893.4343	3556
895.8169	3624
898.197	3557
900.5783	3514
902.9571	3646
905.3372	3556
907.7167	3537
910.0936	3556
912.4698	3648
914.8474	3655
917.2244	3717
919.5987	3653
921.9744	3636
924.3475	3689
926.72	3727
929.0918	3727
931.4669	3645
933.8375	3664
936.2074	3665
938.5767	3719
940.9454	3775
943.3154	3849
945.6829	3773
948.0497	3951
950.4178	3986
952.7833	4110
955.1483	4249
957.5145	4322
959.8782	4477
962.2412	4340
964.6036	4367
966.9655	4260
969.3266	4065
971.6871	3911
974.0471	3869
976.4064	3850
978.765	3736
981.125	3786
983.4824	3705
985.8373	3650
988.1935	3684
990.549	3678
992.9039	3645
995.2602	3636
997.6119	3758
999.965	3751
1002.317	3645
1004.667	3776
1007.02	3677
1009.371	3743
1011.719	3715
1014.068	3677
1016.415	3677
1018.765	3679
1021.111	3662
1023.458	3750
1025.804	3758
1028.147	3758
1030.49	3754
1032.837	3694
1035.179	3774
1037.522	3780
1039.862	3718
1042.204	3679
1044.546	3735
1046.884	3784
1049.224	3803
1051.562	3743
1053.899	3698
1056.237	3844
1058.575	3876
1060.91	3815
1063.244	3780
1065.58	3728
1067.913	3776
1070.248	3849
1072.579	3773
1074.911	3861
1077.242	3805
1079.572	3870
1081.905	3851
1084.234	3835
1086.562	3751
1088.89	3833
1091.217	3785
1093.544	3770
1095.871	3787
1098.197	3779
1100.521	3754
1102.845	3796
1105.169	3796
1107.491	3765
1109.814	3775
1112.135	3666
1114.456	3792
1116.776	3863
1119.096	3823
1121.415	3792
1123.734	3773
1126.052	3789
1128.369	3828
1130.686	3769
1133.002	3821
1135.318	3805
1137.632	3764
1139.945	3777
1142.258	3820
1144.573	3834
1146.884	3827
1149.196	3795
1151.505	3865
1153.816	3800
1156.124	3775
1158.435	3828
1160.742	3770
1163.051	3856
1165.356	3823
1167.663	3846
1169.97	3727
1172.276	3839
1174.579	3872
1176.881	3816
1179.186	3892
1181.487	3807
1183.79	3749
1186.092	3753
1188.392	3828
1190.691	3829
1192.991	3779
1195.291	3873
1197.588	3888
1199.885	3794
1202.181	3814
1204.479	3811
1206.775	3889
1209.07	3812
1211.363	3845
1213.656	3837
1215.949	3984
1218.241	3861
1220.534	3848
1222.825	3895
1225.115	3948
1227.405	3855
1229.693	3895
1231.984	3841
1234.271	3946
1236.558	3900
1238.845	3940
1241.131	3928
1243.416	3913
1245.703	3949
1247.987	3930
1250.269	3906
1252.552	3924
1254.834	4038
1257.118	3903
1259.399	3911
1261.678	4005
1263.958	3959
1266.237	3953
1268.516	4053
1270.794	3937
1273.072	3951
1275.347	3927
1277.624	3950
1279.899	4000
1282.175	3967
1284.449	3877
1286.722	3961
1288.995	3902
1291.266	3870
1293.54	3965
1295.81	4020
1298.081	3913
1300.35	3923
1302.62	3848
1304.889	3940
1307.156	3874
1309.425	3886
1311.69	3927
1313.957	3896
1316.222	3958
1318.488	4007
1320.751	3868
1323.016	3810
1325.278	3893
1327.54	3995
1329.803	3906
1332.065	3967
1334.325	4004
1336.584	3904
1338.843	4005
1341.101	3840
1343.36	3986
1345.617	3995
1347.876	3937
1350.131	3918
1352.387	3889
1354.643	3903
1356.897	3870
1359.151	3877
1361.403	3924
1363.656	3880
1365.909	3960
1368.16	3919
1370.409	3980
1372.659	3954
1374.909	4003
1377.157	3942
1379.407	4059
1381.655	4074
1383.9	4087
1386.147	3923
1388.393	3954
1390.64	4063
1392.885	4046
1395.127	3914
1397.37	4094
1399.614	4021
1401.854	3969
1404.098	4053
1406.339	3998
1408.578	4009
1410.818	4045
1413.056	3999
1415.297	4002
1417.533	4039
1419.771	4016
1422.006	4071
1424.243	4116
1426.479	4060
1428.715	4027
1430.948	4177
1433.182	4107
1435.414	3997
1437.647	4124
1439.88	4107
1442.11	4136
1444.342	4134
1446.571	4146
1448.799	4122
1451.029	4171
1453.258	4156
1455.485	4135
1457.711	4191
1459.937	4133
1462.164	4135
1464.39	4039
1466.614	4065
1468.838	4046
1471.06	4075
1473.283	4071
1475.506	4056
1477.727	4079
1479.949	4027
1482.169	3990
1484.389	3975
1486.609	3989
1488.828	4051
1491.045	4018
1493.261	3999
1495.477	3931
1497.693	4034
1499.91	3963
1502.125	3981
1504.339	4035
1506.553	3971
1508.766	3961
1510.979	3963
1513.191	3995
1515.402	3949
1517.613	4016
1519.823	3968
1522.033	4027
1524.242	3998
1526.451	3999
1528.657	4075
1530.865	3972
1533.072	4070
1535.278	3986
1537.484	4056
1539.687	4012
1541.892	3938
1544.096	3966
1546.299	4020
1548.502	3982
1550.703	4075
1552.905	3989
1555.104	3998
1557.303	4043
1559.505	4112
1561.703	4004
1563.902	4134
1566.099	4090
1568.295	4095
1570.494	4145
1572.689	4024
1574.883	4102
1577.079	4028
1579.272	4088
1581.467	4053
1583.659	4172
1585.853	4095
1588.044	4096
1590.234	4114
1592.424	4195
1594.615	4175
1596.806	4148
1598.994	4144
1601.182	4117
1603.369	4162
1605.557	4047
1607.744	4111
1609.929	4224
1612.114	4192
1614.298	4098
1616.482	4204
1618.667	4156
1620.85	4184
1623.032	4109
1625.214	4094
1627.395	4196
1629.575	4238
1631.755	4113
1633.935	4098
1636.114	4140
1638.292	4246
1640.471	4108
1642.647	4263
1644.823	4220
1647	4154
1649.175	4203
1651.348	4193
1653.525	4227
1655.698	4204
1657.87	4265
1660.043	4185
1662.213	4357
1664.387	4200
1666.558	4192
1668.727	4238
1670.896	4323
1673.064	4234
1675.233	4205
1677.401	4216
1679.569	4331
1681.735	4166
1683.902	4097
1686.066	4174
1688.233	4163
1690.397	4215
1692.559	4175
1694.723	4266
1696.885	4264
1699.048	4098
1701.21	4206
1703.37	4132
1705.53	4169
1707.689	4208
1709.849	4125
1712.009	4172
1714.166	4131
1716.323	4137
1718.479	4149
1720.634	4109
1722.793	4199
1724.948	4160
1727.102	4050
1729.255	4166
1731.408	4196
1733.562	4206
1735.714	4166
1737.865	4126
1740.016	4277
1742.166	4253
1744.316	4138
1746.467	4078
1748.616	4213
1750.764	4133
1752.911	4211
1755.056	4240
1757.205	4190
1759.35	4173
1761.496	4220
1763.641	4162
1765.785	4229
1767.927	4151
1770.072	4275
1772.214	4151
1774.355	4219
1776.496	4254
1778.637	4169
1780.778	4203
1782.918	4168
1785.057	4222
1787.194	4235
1789.333	4310
1791.472	4193
1793.608	4268
1795.745	4282
1797.879	4233
1800.015	4185
1802.148	4249
1804.284	4200
1806.417	4236
1808.548	4183
1810.682	4202
1812.812	4281
1814.946	4221
1817.075	4198
1819.205	4197
1821.335	4211
1823.463	4218
1825.59	4205
1827.721	4212
1829.847	4249
1831.973	4186
1834.098	4228
1836.223	4264
1838.351	4309
1840.475	4203
1842.598	4159
1844.721	4312
1846.843	4136
1848.966	4233
1851.087	4254
1853.21	4225
1855.33	4147
1857.449	4263
1859.568	4159
1861.688	4310
1863.806	4233
1865.924	4245
1868.039	4274
1870.155	4177
1872.273	4124
1874.388	4211
1876.503	4244
1878.617	4207
1880.73	4278
1882.844	4219
1884.956	4223
1887.068	4212
1889.18	4220
1891.291	4258
1893.4	4418
1895.511	4300
1897.621	4286
1899.73	4223
1901.837	4239
1903.944	4260
1906.053	4273
1908.159	4218
1910.265	4265
1912.369	4324
1914.474	4244
1916.577	4248
1918.683	4272
1920.785	4308
1922.888	4288
1924.989	4323
1927.091	4280
1929.193	4356
1931.294	4266
1933.393	4327
1935.493	4333
1937.59	4329
1939.689	4328
1941.788	4309
1943.884	4283
1945.98	4319
1948.077	4268
1950.171	4325
1952.267	4251
1954.361	4357
1956.455	4297
1958.548	4366
1960.64	4292
1962.733	4293
1964.824	4255
1966.915	4274
1969.005	4332
1971.096	4231
1973.185	4237
1975.275	4316
1977.363	4307
1979.45	4330
1981.537	4369
1983.623	4342
1985.711	4339
1987.796	4303
1989.881	4212
1991.965	4370
1994.047	4316
1996.132	4329
1998.215	4324
2000.297	4305
2002.378	4344
2004.46	4221
2006.54	4290
2008.62	4225
2010.7	4256
2012.779	4303
2014.858	4276
2016.934	4327
2019.013	4257
2021.09	4375
2023.165	4307
2025.241	4233
2027.317	4295
2029.39	4304
2031.466	4249
2033.538	4248
2035.612	4267
2037.683	4256
2039.755	4179
2041.827	4293
2043.898	4336
2045.968	4270
2048.038	4268
2050.106	4238
2052.177	4272
2054.244	4318
2056.313	4317
2058.379	4244
2060.444	4435
2062.511	4236
2064.577	4216
2066.641	4310
2068.705	4284
2070.77	4383
2072.832	4394
2074.896	4322
2076.958	4379
2079.02	4419
2081.081	4299
2083.141	4299
2085.2	4326
2087.261	4420
2089.319	4321
2091.377	4321
2093.435	4311
2095.492	4339
2097.552	4240
2099.607	4317
2101.663	4351
2103.718	4342
2105.771	4352
2107.826	4314
2109.879	4287
2111.932	4366
2113.985	4348
2116.037	4439
2118.088	4270
2120.141	4294
2122.191	4291
2124.239	4367
2126.288	4294
2128.337	4255
2130.387	4296
2132.434	4309
2134.481	4328
2136.528	4283
2138.574	4289
2140.618	4319
2142.665	4299
2144.71	4334
2146.753	4295
2148.797	4292
2150.838	4390
2152.883	4268
2154.923	4323
2156.965	4358
2159.007	4242
2161.046	4344
2163.086	4370
2165.126	4395
2167.163	4322
2169.202	4194
2171.239	4313
2173.277	4290
2175.314	4309
2177.349	4227
2179.385	4335
2181.42	4260
2183.453	4299
2185.49	4248
2187.522	4270
2189.555	4260
2191.586	4304
2193.619	4276
2195.651	4172
2197.682	4280
2199.711	4267
2201.74	4188
2203.769	4258
2205.799	4277
2207.828	4344
2209.855	4312
2211.882	4294
2213.908	4229
2215.934	4261
2217.961	4188
2219.986	4216
2222.01	4244
2224.034	4340
2226.057	4277
2228.08	4225
2230.104	4163
2232.124	4202
2234.145	4226
2236.166	4220
2238.186	4235
2240.207	4312
2242.227	4259
2244.244	4215
2246.262	4281
2248.28	4232
2250.299	4229
2252.314	4312
2254.33	4225
2256.346	4273
2258.36	4288
2260.375	4244
2262.391	4249
2264.403	4292
2266.416	4141
2268.427	4170
2270.44	4225
2272.453	4313
2274.463	4318
2276.474	4305
2278.483	4278
2280.493	4251
2282.501	4267
2284.51	4266
2286.518	4284
2288.524	4211
2290.532	4216
2292.537	4297
2294.544	4245
2296.55	4338
2298.554	4176
2300.557	4276
2302.562	4379
2304.566	4230
2306.568	4268
2308.569	4201
2310.572	4283
2312.573	4308
2314.573	4219
2316.574	4294
2318.573	4258
2320.571	4308
2322.571	4289
2324.569	4238
2326.567	4242
2328.564	4190
2330.56	4296
2332.556	4337
2334.551	4171
2336.546	4236
2338.542	4329
2340.535	4172
2342.529	4152
2344.521	4232
2346.512	4219
2348.505	4263
2350.497	4186
2352.487	4249
2354.478	4284
2356.468	4249
2358.457	4238
2360.446	4262
2362.434	4150
2364.422	4287
2366.408	4288
2368.395	4262
2370.383	4181
2372.369	4182
2374.353	4230
2376.338	4234
2378.321	4149
2380.307	4230
2382.29	4183
2384.272	4215
2386.254	4134
2388.235	4140
2390.218	4297
2392.198	4156
2394.179	4190
2396.157	4169
2398.137	4284
2400.115	4217
2402.095	4134
2404.072	4191
2406.048	4193
2408.026	4203
2410.001	4096
2411.977	4245
2413.953	4122
2415.927	4179
2417.9	4100
2419.875	4181
2421.847	4200
2423.821	4175
2425.792	4191
2427.763	4196
2429.736	4219
2431.706	4233
2433.677	4059
2435.646	4209
2437.615	4217
2439.583	4300
2441.551	4193
2443.519	4185
2445.486	4119
2447.452	4173
2449.418	4184
2451.383	4135
2453.348	4196
2455.314	4170
2457.278	4254
2459.241	4086
2461.205	4143
2463.167	4166
2465.131	4263
2467.091	4111
2469.052	4136
2471.012	4114
2472.972	4198
2474.932	4132
2476.891	4132
2478.85	4267
2480.808	4142
2482.766	4134
2484.722	4199
2486.68	4174
2488.636	4128
2490.591	4114
2492.546	4206
2494.5	4157
2496.456	4170
2498.41	4134
2500.362	4184
2502.315	4162
2504.266	4183
2506.218	4153
2508.169	4138
2510.121	4190
2512.07	4166
2514.019	4149
2515.968	4047
2517.918	4145
2519.866	4203
2521.813	4119
2523.76	4166
2525.707	4070
2527.653	4167
2529.599	4181
2531.543	4113
2533.489	4174
2535.433	4127
2537.376	4205
2539.32	4178
2541.264	4151
2543.205	4137
2545.147	4114
2547.087	4117
2549.029	4064
2550.969	4174
2552.908	4061
2554.847	4062
2556.786	4111
2558.724	4150
2560.663	4029
2562.6	4149
2564.537	4084
2566.473	4123
2568.408	4109
2570.345	4109
2572.28	4121
2574.214	4203
2576.148	4080
2578.081	4135
2580.014	4138
2581.947	4114
2583.879	4172
2585.81	4128
2587.741	4133
2589.67	4233
2591.602	4154
2593.532	4071
2595.461	4142
2597.388	4126
2599.316	4243
2601.244	4100
2603.172	4177
2605.098	4148
2607.023	4110
2608.949	4165
2610.873	4099
2612.8	4100
2614.723	4148
2616.647	4070
2618.569	4213
2620.493	4163
2622.416	4177
2624.338	4107
2626.258	4124
2628.179	4121
2630.099	4151
2632.019	4224
2633.939	4237
2635.857	4130
2637.775	4236
2639.694	4106
2641.61	4171
2643.528	4132
2645.444	4158
2647.361	4127
2649.276	4175
2651.19	4198
2653.105	4179
2655.019	4142
2656.934	4169
2658.846	4149
2660.758	4110
2662.67	4141
2664.583	4169
2666.493	4143
2668.404	4233
2670.313	4182
2672.223	4085
2674.134	4110
2676.042	4132
2677.95	4233
2679.858	4058
2681.765	4038
2683.673	4178
2685.579	4109
2687.483	4129
2689.389	4133
2691.294	4132
2693.198	4137
2695.104	4154
2697.006	4213
2698.909	4118
2700.811	4087
2702.713	4158
2704.615	4012
2706.516	4080
2708.417	4135
2710.316	4143
2712.216	4139
2714.115	4080
2716.014	4092
2717.913	4133
2719.81	4062
2721.707	4119
2723.603	4175
2725.501	4149
2727.396	4115
2729.292	4152
2731.186	4070
2733.081	4073
2734.976	4114
2736.87	4097
2738.762	4205
2740.653	4110
2742.546	4081
2744.437	4052
2746.329	4143
2748.22	4095
2750.11	4049
2751.999	4083
2753.889	4128
2755.778	4125
2757.666	4065
2759.553	4111
2761.44	4070
2763.328	4133
2765.215	4041
2767.101	4017
2768.986	4046
2770.87	4150
2772.754	4080
2774.638	4091
2776.523	4001
2778.405	4039
2780.288	4134
2782.17	4145
2784.051	4026
2785.934	4078
2787.814	4072
2789.694	4048
2791.574	4085
2793.453	4044
2795.332	4085
2797.212	4102
2799.088	4079
2800.966	4049
2802.843	4113
2804.719	4042
2806.597	4095
2808.471	4103
2810.346	4138
2812.221	4023
2814.094	4122
2815.969	4108
2817.843	4161
2819.714	4112
2821.587	4029
2823.459	4093
2825.329	4135
2827.202	4045
2829.072	4091
2830.942	4131
2832.811	3986
2834.68	4107
2836.549	4106
2838.418	4031
2840.284	4141
2842.152	4067
2844.018	4191
2845.885	4033
2847.751	4041
2849.616	4091
2851.482	4134
2853.345	4154
2855.208	4278
2857.074	4197
2858.937	4196
2860.799	4234
2862.66	4184
2864.522	4162
2866.385	4160
2868.245	4238
2870.104	4286
2871.964	4322
2873.824	4324
2875.683	4390
2877.542	4243
2879.4	4460
2881.257	4358
2883.114	4361
2884.97	4445
2886.827	4454
2888.683	4408
2890.537	4489
2892.392	4471
2894.246	4470
2896.1	4400
2897.954	4514
2899.807	4315
2901.66	4462
2903.51	4414
2905.362	4311
2907.214	4461
2909.065	4348
2910.915	4446
2912.765	4405
2914.613	4478
2916.463	4439
2918.311	4468
2920.158	4531
2922.006	4569
2923.853	4557
2925.698	4586
2927.546	4629
2929.392	4674
2931.236	4664
2933.081	4581
2934.924	4650
2936.77	4671
2938.613	4719
2940.455	4764
2942.298	4870
2944.139	4875
2945.982	4695
2947.823	4767
2949.662	4888
2951.503	4733
2953.342	4607
2955.182	4805
2957.021	4707
2958.858	4775
2960.697	4656
2962.534	4660
2964.37	4695
2966.207	4543
2968.044	4555
2969.879	4539
2971.714	4473
2973.548	4455
2975.383	4398
2977.218	4394
2979.051	4432
2980.883	4436
2982.715	4316
2984.547	4372
2986.379	4356
2988.21	4312
2990.04	4312
2991.87	4302
2993.7	4252
2995.53	4236
2997.359	4176
2999.187	4101
3001.015	4169
3002.842	4120
3004.669	4093
3006.497	4063
3008.323	4104
3010.148	4107
3011.974	4080
3013.797	4040
3015.623	4072
3017.447	4019
3019.27	4087
3021.094	4078
3022.915	3996
3024.737	4008
3026.56	4028
3028.38	3975
3030.201	3980
3032.022	3967
3033.84	3901
3035.662	3861
3037.481	3938
3039.298	3992
3041.117	4008
3042.933	4013
3044.752	3918
3046.568	3906
3048.385	3946
3050.2	3969
3052.016	3883
3053.83	3861
3055.646	3963
3057.46	3865
3059.272	3885
3061.086	3911
3062.898	3987
3064.711	3936
3066.524	3970
3068.335	3856
3070.145	3911
3071.956	3853
3073.766	3838
3075.576	3905
3077.385	3853
3079.193	3814
3081.002	3967
3082.81	3869
3084.618	3898
3086.425	3900
3088.231	3861
3090.036	3853
3091.842	3857
3093.648	3901
3095.452	3815
3097.257	3910
3099.06	3821
3100.863	3822
3102.666	3779
3104.47	3851
3106.272	3858
3108.073	3824
3109.875	3833
3111.676	3899
3113.477	3773
3115.277	3721
3117.077	3808
3118.874	3744
3120.673	3811
3122.473	3751
3124.271	3795
3126.066	3709
3127.863	3849
3129.66	3803
3131.456	3780
3133.252	3718
3135.047	3785
3136.842	3807
3138.635	3810
3140.429	3850
3142.223	3785
3144.016	3772
3145.808	3781
3147.6	3810
3149.392	3755
3151.183	3801
3152.975	3739
3154.765	3721
3156.553	3793
3158.344	3803
3160.132	3766
3161.922	3708
3163.71	3675
3165.497	3687
3167.285	3715
3169.071	3797
3170.858	3732
3172.645	3771
3174.429	3785
3176.214	3769
3177.998	3701
3179.783	3693
3181.568	3792
3183.351	3714
3185.133	3778
3186.915	3704
3188.698	3754
3190.481	3757
3192.261	3663
3194.042	3694
3195.822	3704
3197.601	3651
3199.381	3670
3201.161	3662
3202.939	3706
3204.717	3791
3206.495	3656
3208.272	3620
3210.05	3683
3211.826	3719
3213.602	3655
3215.376	3607
3217.151	3708
3218.927	3639
3220.702	3652
3222.476	3717
3224.249	3705
3226.021	3773
3227.793	3640
3229.567	3673
3231.339	3735
3233.109	3641
3234.88	3723
3236.651	3717
3238.421	3658
3240.191	3677
3241.96	3707
3243.728	3679
3245.497	3658
3247.263	3737
3249.033	3660
3250.799	3703
3252.566	3650
3254.331	3641
3256.097	3578
3257.863	3638
3259.628	3751
3261.392	3766
3263.156	3682
3264.919	3646
3266.683	3684
3268.447	3614
3270.208	3695
3271.969	3693
3273.731	3755
3275.492	3712
3277.253	3671
3279.013	3678
3280.773	3681
3282.532	3702
3284.291	3671
3286.05	3710
3287.808	3757
3289.566	3691
3291.323	3687
3293.079	3635
3294.835	3711
3296.593	3677
3298.348	3627
3300.102	3689
3301.857	3655
3303.611	3742
3305.366	3591
3307.119	3700
3308.872	3697
3310.624	3677
3312.376	3649
3314.129	3636
3315.881	3724
3317.631	3617
3319.38	3604
3321.13	3687
3322.88	3708
3324.631	3635
3326.379	3578
3328.126	3629
3329.875	3715
3331.622	3678
3333.371	3606
3335.116	3648
3336.863	3674
3338.609	3659
3340.353	3659
3342.1	3665
3343.845	3667
3345.588	3651
3347.332	3715
3349.074	3638
3350.817	3689
3352.56	3620
3354.303	3582
3356.043	3700
3357.785	3656
3359.525	3625
3361.268	3598
3363.007	3697
3364.745	3653
3366.485	3651
3368.223	3604
3369.962	3588
3371.701	3597
3373.438	3537
3375.174	3659
3376.911	3587
3378.647	3605
3380.384	3535
3382.118	3574
3383.854	3612
3385.588	3630
3387.322	3627
3389.057	3607
3390.79	3608
3392.522	3531
3394.255	3557
3395.987	3593
3397.719	3546
3399.451	3583
3401.181	3620
3402.911	3545
3404.641	3569
3406.371	3530
3408.101	3655
3409.83	3631
3411.558	3591
3413.285	3558
3415.011	3578
3416.739	3497
3418.467	3546
3420.193	3457
3421.919	3565
3423.644	3473
3425.368	3598
3427.094	3596
3428.818	3546
3430.542	3567
3432.264	3514
3433.987	3479
3435.712	3478
3437.434	3505
3439.155	3542
3440.876	3534
3442.596	3477
3444.317	3455
3446.039	3560
3447.757	3454
3449.477	3417
3451.195	3560
3452.914	3430
3454.632	3518
3456.35	3375
3458.067	3516
3459.784	3421
3461.5	3430
3463.216	3380
3464.932	3477
3466.647	3506
3468.362	3500
3470.076	3417
3471.789	3450
3473.505	3458
3475.217	3474
3476.929	3557
3478.641	3484
3480.354	3459
3482.066	3436
3483.777	3424
3485.487	3441
3487.197	3390
3488.908	3486
3490.617	3304
3492.327	3485
3494.035	3389
3495.743	3517
3497.451	3353
3499.158	3441
3500.866	3387
3502.572	3239
3504.278	3412
3505.984	3376
3507.689	3325
3509.396	3402
3511.1	3373
3512.804	3308
3514.508	3340
3516.211	3335
3517.913	3327
3519.616	3339
3521.319	3349
3523.021	3366
3524.722	3333
3526.422	3436
3528.124	3352
3529.824	3384
3531.524	3350
3533.222	3256
3534.921	3345
3536.62	3372
3538.318	3358
3540.016	3293
3541.714	3276
3543.41	3383
3545.107	3321
3546.803	3392
3548.5	3278
3550.194	3347
3551.889	3287
3553.583	3289
3555.279	3314
3556.972	3360
3558.666	3303
3560.358	3248
3562.051	3303
3563.742	3346
3565.435	3285
3567.126	3244
3568.817	3303
3570.507	3289
3572.197	3219
3573.888	3302
3575.577	3294
3577.265	3294
3578.954	3234
3580.642	3289
3582.329	3286
3584.017	3228
3585.704	3245
3587.391	3261
3589.077	3287
3590.762	3254
3592.449	3363
3594.133	3273
3595.817	3221
3597.501	3257
3599.185	3285
3600.869	3282
3602.552	3204
3604.234	3205
3605.916	3235
3607.598	3260
3609.279	3223
3610.961	3267
3612.642	3244
3614.321	3122
3616	3195
3617.68	3160
3619.36	3179
3621.039	3115
3622.716	3126
3624.394	3154
3626.071	3241
3627.748	3209
3629.425	3179
3631.102	3196
3632.778	3123
3634.452	3166
3636.127	3145
3637.803	3166
3639.477	3183
3641.151	3049
3642.823	3123
3644.497	3103
3646.171	3100
3647.842	3194
3649.515	3063
3651.185	3161
3652.857	3128
3654.527	3068
3656.198	3112
3657.868	3112
3659.537	3116
3661.207	3173
3662.875	3086
3664.544	3137
3666.212	3098
3667.879	3062
3669.546	3019
3671.212	3082
3672.88	3037
3674.546	3088
3676.211	3134
3677.875	3082
3679.541	3093
3681.205	3141
3682.87	3056
3684.533	3167
3686.196	3081
3687.859	3006
3689.521	3085
3691.184	3096
3692.845	3040
3694.507	3056
3696.167	3010
3697.827	3086
3699.487	3043
3701.148	3138
3702.808	3123
3704.466	3032
3706.125	3153
3707.783	3096
3709.442	3124
3711.099	3101
3712.757	3050
3714.412	3076
3716.068	3066
3717.725	3090
3719.381	3039
3721.036	3168
3722.689	3080
3724.344	3149
3725.998	2993
3727.652	3045
3729.305	2965
3730.958	3077
3732.61	3007
3734.262	2989
3735.915	3075
3737.565	3049
3739.217	2933
3740.866	3039
3742.516	2959
3744.165	3028
3745.816	2996
3747.464	3053
3749.113	2983
3750.761	2928
3752.409	2993
3754.057	3087
3755.703	2999
3757.35	2997
3758.996	3004
3760.641	2968
3762.289	3054
3763.933	3020
3765.577	2946
3767.222	2959
3768.865	3050
3770.508	2928
3772.152	2994
3773.796	2928
3775.438	3045
3777.079	2916
3778.721	2993
3780.363	2941
3782.003	3023
3783.643	3016
3785.283	2972
3786.923	2965
3788.563	2969
3790.203	2956
3791.841	2956
3793.479	2979
3795.115	2934
3796.753	2929
3798.391	2966
3800.027	2919
3801.664	2956
3803.299	2898
3804.935	2894
3806.571	2942
3808.206	2943
3809.839	2899
3811.473	2931
3813.107	2875
3814.74	2861
3816.375	2913
3818.006	2876
3819.638	2874
3821.27	2969
3822.9	2945
3824.532	2889
3826.163	2888
3827.792	2954
3829.423	2901
3831.051	2828
3832.682	2852
3834.311	2907
3835.938	2839
3837.566	2932
3839.193	2876
3840.821	2853
3842.448	2901
3844.075	2863
3845.7	2848
3847.325	2891
3848.951	2907
3850.576	2880
3852.201	2799
3853.825	2956
3855.448	2844
3857.072	2847
3858.694	2806
3860.318	2806
3861.939	2832
3863.562	2801
3865.183	2853
3866.804	2833
3868.426	2837
3870.045	2859
3871.666	2844
3873.285	2864
3874.904	2852
3876.524	2838
3878.142	2847
3879.76	2755
3881.378	2888
3882.995	2774
3884.612	2786
3886.229	2827
3887.845	2767
3889.461	2808
3891.076	2742
3892.691	2830
3894.307	2815
3895.922	2758
3897.536	2825
3899.149	2752
3900.761	2852
3902.374	2773
3903.988	2776
3905.6	2740
3907.212	2805
3908.822	2750
3910.433	2805
3912.045	2771
3913.655	2830
3915.265	2782
3916.875	2793
3918.483	2780
3920.093	2765
3921.702	2861
3923.309	2761
3924.917	2781
3926.523	2753
3928.13	2834
3929.739	2792
3931.344	2800
3932.95	2782
3934.555	2814
3936.159	2823
3937.766	2814
3939.369	2773
3940.974	2735
3942.577	2733
3944.181	2800
3945.783	2812
3947.386	2781
3948.989	2806
3950.59	2827
3952.191	2797
3953.791	2811
3955.394	2866
3956.994	2779
3958.593	2731
3960.192	2775
3961.791	2774
3963.392	2735
3964.99	2753
3966.588	2731
3968.185	2733
3969.782	2732
3971.379	2685
3972.976	2689
3974.572	2713
3976.168	2725
3977.763	2774
3979.358	2727
3980.954	2780
3982.548	2737
3984.142	2689
3985.736	2795
3987.329	2681
3988.922	2719
3990.516	2660
3992.108	2696
3993.698	2675
3995.29	2715
3996.881	2737
3998.473	2701
4000.064	2705
4001.653	2699
4003.242	2683
4004.832	2575
4006.422	2630
4008.01	2689
4009.598	2657
4011.186	2695
4012.773	2655
4014.36	2607
4015.947	2629
4017.534	2638
4019.119	2617
4020.705	2604
4022.291	2650
4023.876	2631
4025.461	2628
4027.044	2617
4028.627	2664
4030.211	2523
4031.795	2599
4033.378	2624
4034.96	2637
4036.542	2608
4038.124	2625
4039.704	2611
4041.286	2615
4042.867	2569
4044.447	2617
4046.026	2622
4047.606	2677
4049.187	2608
4050.765	2600
4052.343	2594
4053.92	2572
4055.498	2582
4057.076	2557
4058.654	2636
4060.23	2593
4061.806	2541
4063.381	2544
4064.957	2582
4066.533	2619
4068.107	2604
4069.682	2621
4071.256	2560
4072.829	2571
4074.404	2536
4075.977	2593
4077.549	2638
4079.121	2551
4080.693	2595
4082.265	2531
4083.836	2558
4085.407	2599
4086.977	2586
4088.547	2654
4090.117	2581
4091.687	2515
4093.256	2586
4094.825	2638
4096.392	2563
4097.96	2552
4099.528	2547
4101.097	2499
4102.663	2480
4104.229	2565
4105.795	2509
4107.361	2578
4108.928	2499
4110.493	2563
4112.058	2539
4113.621	2501
4115.186	2543
4116.75	2558
4118.313	2548
4119.876	2549
4121.438	2552
4123	2438
4124.562	2525
4126.125	2454
4127.686	2468
4129.246	2497
4130.807	2518
4132.367	2467
4133.927	2511
4135.486	2459
4137.046	2462
4138.604	2466
4140.162	2451
4141.72	2476
4143.279	2467
4144.836	2457
4146.393	2457
4147.949	2434
4149.505	2460
4151.062	2467
4152.617	2498
4154.172	2455
4155.727	2479
4157.281	2443
4158.836	2519
4160.39	2438
4161.943	2416
4163.496	2439
4165.048	2530
4166.601	2492
4168.154	2425
4169.706	2445
4171.257	2410
4172.808	2471
4174.358	2374
4175.909	2426
4177.458	2400
4179.008	2448
4180.558	2375
4182.106	2519
4183.655	2410
4185.204	2415
4186.751	2418
4188.298	2408
4189.845	2402
4191.392	2377
4192.939	2451
4194.485	2424
4196.031	2350
4197.576	2446
4199.121	2343
4200.666	2417
4202.211	2368
4203.754	2373
4205.298	2357
4206.84	2395
4208.384	2369
4209.927	2411
4211.47	2325
4213.011	2383
4214.552	2409
4216.094	2392
4217.635	2345
4219.175	2375
4220.716	2463
4222.255	2378
4223.793	2349
4225.335	2405
4226.873	2301
4228.411	2416
4229.948	2334
4231.486	2395
4233.024	2389
4234.562	2343
4236.098	2327
4237.634	2366
4239.169	2402
4240.705	2341
4242.241	2365
4243.776	2374
4245.31	2343
4246.844	2326
4248.378	2295
4249.911	2307
4251.445	2322
4252.978	2369
4254.51	2372
4256.042	2363
4257.574	2311
4259.107	2335
4260.638	2279
4262.169	2372
4263.699	2365
4265.228	2308
4266.759	2297
4268.289	2319
4269.818	2380
4271.345	2328
4272.874	2312
4274.402	2268
4275.931	2313
4277.458	2303
4278.985	2336
4280.512	2356
4282.037	2263
4283.564	2342
4285.089	2230
4286.615	2235
4288.139	2311
4289.664	2290
4291.187	2219
4292.712	2284
4294.235	2311
4295.759	2294
4297.281	2255
4298.804	2288
4300.327	2266
4301.849	2281
4303.37	2318
4304.891	2275
4306.412	2235
4307.933	2273
4309.453	2297
4310.973	2283
4312.492	2251
