398.1873	3883
400.7097	3945
403.2336	3947
405.7547	3997
408.2751	3971
410.7948	3965
413.3138	4041
415.83	3972
418.3497	4132
420.8666	3991
423.3829	4123
425.8985	4195
428.4133	4116
430.9275	4268
433.441	4089
435.9538	4147
438.4639	4184
440.9753	4192
443.4881	4172
445.9982	4125
448.5055	4206
451.0142	4147
453.5201	4194
456.0274	4258
458.5361	4221
461.04	4125
463.5453	4176
466.0478	4219
468.5517	4202
471.0549	4095
473.5574	4265
476.0572	4263
478.5584	4201
481.0568	4168
483.5545	4264
486.0557	4310
488.5521	4295
491.0478	4296
493.5449	4197
496.0392	4334
498.5349	4324
501.0299	4327
503.5222	4319
506.0139	4287
508.5048	4355
510.9991	4283
513.4887	4345
515.9777	4381
518.4659	4341
520.9534	4274
523.4403	4321
525.9306	4339
528.4161	4388
530.9009	4339
533.3851	4353
535.8687	4301
538.3535	4444
540.8356	4458
543.3171	4376
545.7979	4370
548.278	4324
550.7595	4313
553.2383	4346
555.7144	4403
558.1918	4353
560.6685	4364
563.1446	4294
565.6221	4401
568.0968	4405
570.5688	4370
573.0422	4466
575.515	4482
577.989	4431
580.4584	4529
582.9291	4537
585.3991	4611
587.8685	4464
590.3352	4577
592.8052	4525
595.2706	4556
597.7372	4531
600.2033	4599
602.6666	4503
605.1334	4501
607.5953	4512
610.0587	4518
612.5193	4555
614.9814	4545
617.4427	4532
619.9034	4522
622.3615	4487
624.8208	4473
627.2775	4521
629.7335	4413
632.1929	4469
634.6476	4439
637.1016	4517
639.5569	4559
642.0096	4579
644.4637	4486
646.9151	4488
649.3678	4438
651.8179	4419
654.2672	4508
656.7159	4583
659.166	4495
661.6154	4523
664.0622	4653
666.5082	4543
668.9537	4656
671.4005	4622
673.8445	4694
676.288	4629
678.7308	4653
681.1729	4462
683.6163	4630
686.0572	4588
688.4973	4638
690.9368	4615
693.3757	4683
695.8138	4692
698.2534	4657
700.6902	4659
703.1245	4683
705.56	4672
707.9949	4672
710.4311	4747
712.8647	4746
715.2957	4705
717.7279	4701
720.1595	4773
722.5905	4750
725.0208	4744
727.4505	4844
729.8795	4792
732.3058	4725
734.7336	4804
737.1626	4780
739.587	4820
742.0128	4827
744.4359	4839
746.8604	4840
749.2841	4913
751.7073	4881
754.1278	4880
756.5496	4945
758.9688	4900
761.3893	4915
763.8093	4980
766.2285	4920
768.6451	4974
771.0611	4971
773.4784	5037
775.895	4906
778.3091	4944
780.7244	4983
783.1371	4968
785.5493	4950
787.9626	4977
790.3754	4997
792.7856	4883
795.1951	5006
797.6039	5074
800.0121	4988
802.4236	4909
804.8306	5043
807.2369	4949
809.6425	4949
812.0475	4990
814.4538	5025
816.8575	4988
819.2606	4939
821.663	5046
824.0648	5051
826.4659	5102
828.8683	4977
831.2682	5064
833.6674	5006
836.066	5147
838.4639	5123
840.8632	4977
843.2579	5134
845.6539	5097
848.0493	5085
850.444	5107
852.84	5121
855.2315	5097
857.6243	5128
860.0165	5208
862.4081	5227
864.797	4978
867.1892	5071
869.5789	5077
871.9659	5079
874.3542	5111
876.74	5180
879.129	5121
881.5155	5114
883.8994	5199
886.2845	4999
888.6671	5125
891.051	5188
893.4343	5115
895.8169	5070
898.197	5156
900.5783	5136
902.9571	5135
905.3372	5214
907.7167	5168
910.0936	5208
912.4698	5145
914.8474	5196
917.2244	5266
919.5987	5257
921.9744	5247
924.3475	5305
926.72	5286
929.0918	5245
931.4669	5288
933.8375	5441
936.2074	5310
938.5767	5387
940.9454	5366
943.3154	5419
945.6829	5557
948.0497	5682
950.4178	5899
952.7833	5883
955.1483	6106
957.5145	6313
959.8782	6389
962.2412	6388
964.6036	6298
966.9655	6063
969.3266	5830
971.6871	5709
974.0471	5572
976.4064	5457
978.765	5391
981.125	5343
983.4824	5333
985.8373	5299
988.1935	5360
990.549	5368
992.9039	5304
995.2602	5304
997.6119	5289
999.965	5269
1002.317	5366
1004.667	5306
1007.02	5298
1009.371	5304
1011.719	5328
1014.068	5312
1016.415	5379
1018.765	5255
1021.111	5325
1023.458	5302
1025.804	5295
1028.147	5408
1030.49	5422
1032.837	5383
1035.179	5368
1037.522	5409
1039.862	5443
1042.204	5325
1044.546	5388
1046.884	5351
1049.224	5385
1051.562	5370
1053.899	5382
1056.237	5454
1058.575	5382
1060.91	5491
1063.244	5460
1065.58	5443
1067.913	5594
1070.248	5611
1072.579	5585
1074.911	5596
1077.242	5424
1079.572	5399
1081.905	5414
1084.234	5427
1086.562	5583
1088.89	5373
1091.217	5407
1093.544	5421
1095.871	5361
1098.197	5487
1100.521	5387
1102.845	5393
1105.169	5417
1107.491	5453
1109.814	5416
1112.135	5384
1114.456	5379
1116.776	5541
1119.096	5402
1121.415	5477
1123.734	5486
1126.052	5474
1128.369	5483
1130.686	5576
1133.002	5429
1135.318	5423
1137.632	5475
1139.945	5474
1142.258	5389
1144.573	5483
1146.884	5444
1149.196	5466
1151.505	5550
1153.816	5378
1156.124	5440
1158.435	5511
1160.742	5510
1163.051	5473
1165.356	5402
1167.663	5429
1169.97	5437
1172.276	5419
1174.579	5477
1176.881	5438
1179.186	5508
1181.487	5414
1183.79	5355
1186.092	5547
1188.392	5462
1190.691	5456
1192.991	5403
1195.291	5430
1197.588	5556
1199.885	5473
1202.181	5506
1204.479	5438
1206.775	5489
1209.07	5494
1211.363	5494
1213.656	5434
1215.949	5498
1218.241	5476
1220.534	5489
1222.825	5532
1225.115	5573
1227.405	5423
1229.693	5647
1231.984	5655
1234.271	5699
1236.558	5545
1238.845	5532
1241.131	5629
1243.416	5642
1245.703	5607
1247.987	5588
1250.269	5472
1252.552	5607
1254.834	5695
1257.118	5654
1259.399	5638
1261.678	5598
1263.958	5640
1266.237	5635
1268.516	5618
1270.794	5650
1273.072	5638
1275.347	5631
1277.624	5610
1279.899	5534
1282.175	5578
1284.449	5632
1286.722	5706
1288.995	5656
1291.266	5526
1293.54	5651
1295.81	5657
1298.081	5659
1300.35	5632
1302.62	5699
1304.889	5494
1307.156	5704
1309.425	5637
1311.69	5654
1313.957	5614
1316.222	5594
1318.488	5657
1320.751	5575
1323.016	5647
1325.278	5597
1327.54	5665
1329.803	5666
1332.065	5648
1334.325	5645
1336.584	5708
1338.843	5657
1341.101	5551
1343.36	5632
1345.617	5641
1347.876	5661
1350.131	5665
1352.387	5572
1354.643	5717
1356.897	5596
1359.151	5634
1361.403	5650
1363.656	5647
1365.909	5672
1368.16	5604
1370.409	5734
1372.659	5631
1374.909	5607
1377.157	5679
1379.407	5674
1381.655	5704
1383.9	5748
1386.147	5748
1388.393	5717
1390.64	5808
1392.885	5721
1395.127	5687
1397.37	5635
1399.614	5823
1401.854	5830
1404.098	5820
1406.339	5766
1408.578	5703
1410.818	5784
1413.056	5876
1415.297	5887
1417.533	5866
1419.771	5834
1422.006	5717
1424.243	5816
1426.479	5711
1428.715	5882
1430.948	5751
1433.182	5856
1435.414	5802
1437.647	5826
1439.88	5887
1442.11	5836
1444.342	5867
1446.571	5782
1448.799	5842
1451.029	5890
1453.258	5960
1455.485	5927
1457.711	5861
1459.937	5921
1462.164	5912
1464.39	5919
1466.614	5795
1468.838	5821
1471.06	5823
1473.283	5821
1475.506	5801
1477.727	5674
1479.949	5804
1482.169	5765
1484.389	5732
1486.609	5706
1488.828	5765
1491.045	5670
1493.261	5775
1495.477	5715
1497.693	5723
1499.91	5678
1502.125	5763
1504.339	5702
1506.553	5742
1508.766	5721
1510.979	5748
1513.191	5719
1515.402	5669
1517.613	5669
1519.823	5681
1522.033	5783
1524.242	5745
1526.451	5738
1528.657	5606
1530.865	5754
1533.072	5700
1535.278	5720
1537.484	5828
1539.687	5693
1541.892	5695
1544.096	5760
1546.299	5682
1548.502	5817
1550.703	5811
1552.905	5716
1555.104	5733
1557.303	5869
1559.505	5681
1561.703	5791
1563.902	5877
1566.099	5766
1568.295	5814
1570.494	5859
1572.689	5866
1574.883	5834
1577.079	5890
1579.272	5887
1581.467	5894
1583.659	5869
1585.853	5901
1588.044	5908
1590.234	5909
1592.424	5800
1594.615	5921
1596.806	5933
1598.994	5960
1601.182	5826
1603.369	5907
1605.557	5819
1607.744	5895
1609.929	5925
1612.114	6018
1614.298	5918
1616.482	5928
1618.667	5954
1620.85	5880
1623.032	5997
1625.214	5987
1627.395	6023
1629.575	5840
1631.755	5861
1633.935	6098
1636.114	5919
1638.292	5952
1640.471	5917
1642.647	6068
1644.823	5958
1647	5909
1649.175	6012
1651.348	5873
1653.525	5894
1655.698	5844
1657.87	5917
1660.043	5953
1662.213	5856
1664.387	5969
1666.558	6008
1668.727	6012
1670.896	6040
1673.064	6034
1675.233	5957
1677.401	6086
1679.569	5971
1681.735	5888
1683.902	5912
1686.066	5895
1688.233	6001
1690.397	5898
1692.559	5974
1694.723	5973
1696.885	6006
1699.048	5985
1701.21	5969
1703.37	5848
1705.53	5984
1707.689	6013
1709.849	5906
1712.009	6036
1714.166	5806
1716.323	5872
1718.479	5953
1720.634	5990
1722.793	5847
1724.948	5996
1727.102	5907
1729.255	5934
1731.408	5980
1733.562	5892
1735.714	5954
1737.865	5929
1740.016	5901
1742.166	5915
1744.316	6013
1746.467	5849
1748.616	5905
1750.764	5943
1752.911	5990
1755.056	5950
1757.205	5919
1759.35	5918
1761.496	6029
1763.641	5980
1765.785	5970
1767.927	6119
1770.072	5971
1772.214	5963
1774.355	6067
1776.496	6123
1778.637	6011
1780.778	6050
1782.918	5988
1785.057	6024
1787.194	5990
1789.333	6101
1791.472	5936
1793.608	5998
1795.745	6025
1797.879	6066
1800.015	5951
1802.148	5965
1804.284	5935
1806.417	5960
1808.548	5984
1810.682	6061
1812.812	6042
1814.946	5890
1817.075	6127
1819.205	5962
1821.335	5947
1823.463	6033
1825.59	6100
1827.721	6068
1829.847	5984
1831.973	5879
1834.098	6023
1836.223	5958
1838.351	5938
1840.475	5946
1842.598	5956
1844.721	5949
1846.843	5972
1848.966	5983
1851.087	6012
1853.21	5865
1855.33	5940
1857.449	5938
1859.568	5925
1861.688	5911
1863.806	5930
1865.924	6026
1868.039	5975
1870.155	6011
1872.273	6003
1874.388	5948
1876.503	5874
1878.617	6041
1880.73	5970
1882.844	6002
1884.956	6047
1887.068	5959
1889.18	5983
1891.291	5915
1893.4	6180
1895.511	6023
1897.621	5979
1899.73	6006
1901.837	5916
1903.944	6022
1906.053	5985
1908.159	6004
1910.265	6017
1912.369	6026
1914.474	5957
1916.577	6038
1918.683	6141
1920.785	6066
1922.888	6040
1924.989	6089
1927.091	5997
1929.193	6050
1931.294	5988
1933.393	6093
1935.493	6023
1937.59	6043
1939.689	6120
1941.788	6145
1943.884	6088
1945.98	6119
1948.077	6152
1950.171	6148
1952.267	6089
1954.361	6143
1956.455	5992
1958.548	6120
1960.64	6063
1962.733	6037
1964.824	6153
1966.915	6034
1969.005	6057
1971.096	6060
1973.185	6074
1975.275	6053
1977.363	6054
1979.45	6098
1981.537	6027
1983.623	6035
1985.711	6083
1987.796	5968
1989.881	6095
1991.965	5991
1994.047	6093
1996.132	5894
1998.215	6036
2000.297	5990
2002.378	5947
2004.46	5851
2006.54	5940
2008.62	6030
2010.7	6074
2012.779	6059
2014.858	5948
2016.934	6010
2019.013	6141
2021.09	6024
2023.165	5971
2025.241	5994
2027.317	6092
2029.39	6043
2031.466	5870
2033.538	6033
2035.612	6024
2037.683	5983
2039.755	5981
2041.827	6028
2043.898	6010
2045.968	6085
2048.038	6042
2050.106	6111
2052.177	5943
2054.244	6036
2056.313	5946
2058.379	6066
2060.444	6096
2062.511	6028
2064.577	6101
2066.641	6049
2068.705	6109
2070.77	6110
2072.832	6068
2074.896	6181
2076.958	6001
2079.02	5992
2081.081	6050
2083.141	6005
2085.2	6036
2087.261	6155
2089.319	6136
2091.377	6148
2093.435	6191
2095.492	6132
2097.552	5963
2099.607	5992
2101.663	6044
2103.718	6240
2105.771	6047
2107.826	6063
2109.879	6089
2111.932	6009
2113.985	6015
2116.037	6028
2118.088	6110
2120.141	6012
2122.191	6030
2124.239	6003
2126.288	6023
2128.337	5956
2130.387	6007
2132.434	6172
2134.481	5894
2136.528	5974
2138.574	5951
2140.618	6139
2142.665	6041
2144.71	6017
2146.753	6008
2148.797	6067
2150.838	6015
2152.883	5914
2154.923	6085
2156.965	6018
2159.007	5953
2161.046	5963
2163.086	6015
2165.126	6037
2167.163	5928
2169.202	6032
2171.239	6034
2173.277	5999
2175.314	5955
2177.349	6114
2179.385	5970
2181.42	5998
2183.453	5977
2185.49	5917
2187.522	6083
2189.555	5871
2191.586	5876
2193.619	5956
2195.651	5895
2197.682	5992
2199.711	6036
2201.74	5976
2203.769	5964
2205.799	5923
2207.828	5975
2209.855	5955
2211.882	5887
2213.908	6043
2215.934	6002
2217.961	5888
2219.986	5958
2222.01	5966
2224.034	5890
2226.057	6029
2228.08	5933
2230.104	5952
2232.124	5972
2234.145	5927
2236.166	5909
2238.186	5897
2240.207	5952
2242.227	5936
2244.244	5851
2246.262	5973
2248.28	5917
2250.299	5870
2252.314	5962
2254.33	5854
2256.346	5957
2258.36	5955
2260.375	5911
2262.391	5996
2264.403	5996
2266.416	5857
2268.427	5998
2270.44	5961
2272.453	5961
2274.463	5877
2276.474	5973
2278.483	5861
2280.493	5886
2282.501	6016
2284.51	5883
2286.518	5969
2288.524	5857
2290.532	5960
2292.537	6011
2294.544	6010
2296.55	5959
2298.554	5932
2300.557	5988
2302.562	5946
2304.566	5902
2306.568	5912
2308.569	5964
2310.572	5908
2312.573	5881
2314.573	5896
2316.574	5901
2318.573	5842
2320.571	5904
2322.571	5940
2324.569	5877
2326.567	5949
2328.564	5899
2330.56	5875
2332.556	5784
2334.551	5774
2336.546	5811
2338.542	5815
2340.535	5938
2342.529	5781
2344.521	5882
2346.512	5803
2348.505	5902
2350.497	5831
2352.487	5854
2354.478	5775
2356.468	5778
2358.457	5788
2360.446	5797
2362.434	5828
2364.422	5789
2366.408	5867
2368.395	5824
2370.383	5915
2372.369	5729
2374.353	5834
2376.338	5729
2378.321	5821
2380.307	5833
2382.29	5685
2384.272	5757
2386.254	5819
2388.235	5810
2390.218	5805
2392.198	5817
2394.179	5817
2396.157	5713
2398.137	5833
2400.115	5738
2402.095	5811
2404.072	5870
2406.048	5792
2408.026	5671
2410.001	5739
2411.977	5765
2413.953	5722
2415.927	5794
2417.9	5776
2419.875	5837
2421.847	5719
2423.821	5707
2425.792	5764
2427.763	5789
2429.736	5830
2431.706	5800
2433.677	5767
2435.646	5826
2437.615	5825
2439.583	5782
2441.551	5674
2443.519	5820
2445.486	5739
2447.452	5802
2449.418	5761
2451.383	5723
2453.348	5719
2455.314	5712
2457.278	5708
2459.241	5778
2461.205	5688
2463.167	5800
2465.131	5813
2467.091	5741
2469.052	5637
2471.012	5711
2472.972	5824
2474.932	5663
2476.891	5743
2478.85	5656
2480.808	5684
2482.766	5790
2484.722	5627
2486.68	5687
2488.636	5724
2490.591	5609
2492.546	5718
2494.5	5644
2496.456	5702
2498.41	5721
2500.362	5752
2502.315	5729
2504.266	5649
2506.218	5574
2508.169	5603
2510.121	5769
2512.07	5752
2514.019	5747
2515.968	5640
2517.918	5638
2519.866	5694
2521.813	5731
2523.76	5698
2525.707	5770
2527.653	5755
2529.599	5682
2531.543	5672
2533.489	5700
2535.433	5649
2537.376	5635
2539.32	5710
2541.264	5673
2543.205	5679
2545.147	5699
2547.087	5782
2549.029	5662
2550.969	5612
2552.908	5658
2554.847	5774
2556.786	5791
2558.724	5672
2560.663	5674
2562.6	5842
2564.537	5682
2566.473	5712
2568.408	5738
2570.345	5610
2572.28	5543
2574.214	5664
2576.148	5671
2578.081	5711
2580.014	5821
2581.947	5704
2583.879	5710
2585.81	5653
2587.741	5726
2589.67	5704
2591.602	5800
2593.532	5702
2595.461	5726
2597.388	5642
2599.316	5659
2601.244	5715
2603.172	5789
2605.098	5656
2607.023	5626
2608.949	5673
2610.873	5557
2612.8	5708
2614.723	5620
2616.647	5737
2618.569	5705
2620.493	5705
2622.416	5663
2624.338	5655
2626.258	5622
2628.179	5568
2630.099	5755
2632.019	5752
2633.939	5730
2635.857	5644
2637.775	5761
2639.694	5615
2641.61	5685
2643.528	5776
2645.444	5686
2647.361	5756
2649.276	5727
2651.19	5722
2653.105	5703
2655.019	5655
2656.934	5796
2658.846	5710
2660.758	5731
2662.67	5596
2664.583	5643
2666.493	5618
2668.404	5632
2670.313	5764
2672.223	5761
2674.134	5777
2676.042	5628
2677.95	5648
2679.858	5674
2681.765	5648
2683.673	5526
2685.579	5716
2687.483	5668
2689.389	5563
2691.294	5620
2693.198	5674
2695.104	5670
2697.006	5712
2698.909	5565
2700.811	5629
2702.713	5495
2704.615	5654
2706.516	5581
2708.417	5617
2710.316	5554
2712.216	5538
2714.115	5622
2716.014	5577
2717.913	5673
2719.81	5554
2721.707	5617
2723.603	5656
2725.501	5676
2727.396	5570
2729.292	5584
2731.186	5478
2733.081	5681
2734.976	5551
2736.87	5621
2738.762	5524
2740.653	5590
2742.546	5603
2744.437	5645
2746.329	5711
2748.22	5592
2750.11	5619
2751.999	5546
2753.889	5546
2755.778	5663
2757.666	5582
2759.553	5620
2761.44	5522
2763.328	5528
2765.215	5602
2767.101	5565
2768.986	5535
2770.87	5497
2772.754	5621
2774.638	5617
2776.523	5649
2778.405	5475
2780.288	5520
2782.17	5628
2784.051	5524
2785.934	5529
2787.814	5525
2789.694	5578
2791.574	5544
2793.453	5399
2795.332	5559
2797.212	5589
2799.088	5606
2800.966	5537
2802.843	5489
2804.719	5587
2806.597	5700
2808.471	5528
2810.346	5478
2812.221	5524
2814.094	5571
2815.969	5546
2817.843	5448
2819.714	5598
2821.587	5459
2823.459	5589
2825.329	5486
2827.202	5529
2829.072	5408
2830.942	5509
2832.811	5589
2834.68	5567
2836.549	5517
2838.418	5510
2840.284	5676
2842.152	5485
2844.018	5565
2845.885	5509
2847.751	5540
2849.616	5618
2851.482	5545
2853.345	5617
2855.208	5542
2857.074	5627
2858.937	5544
2860.799	5604
2862.66	5632
2864.522	5636
2866.385	5692
2868.245	5637
2870.104	5680
2871.964	5673
2873.824	5747
2875.683	5779
2877.542	5917
2879.4	5806
2881.257	5771
2883.114	5798
2884.97	5831
2886.827	5858
2888.683	5770
2890.537	5854
2892.392	5863
2894.246	5713
2896.1	5870
2897.954	5917
2899.807	5883
2901.66	5925
2903.51	5925
2905.362	5909
2907.214	5723
2909.065	5806
2910.915	5817
2912.765	5910
2914.613	5924
2916.463	6093
2918.311	5931
2920.158	5894
2922.006	5918
2923.853	5976
2925.698	6119
2927.546	6006
2929.392	6120
2931.236	6177
2933.081	6137
2934.924	6133
2936.77	6172
2938.613	6245
2940.455	6284
2942.298	6170
2944.139	6270
2945.982	6362
2947.823	6430
2949.662	6292
2951.503	6304
2953.342	6203
2955.182	6266
2957.021	6094
2958.858	6215
2960.697	6100
2962.534	6137
2964.37	6046
2966.207	6092
2968.044	5988
2969.879	5909
2971.714	5834
2973.548	5845
2975.383	5872
2977.218	5907
2979.051	5853
2980.883	5740
2982.715	5730
2984.547	5693
2986.379	5681
2988.21	5565
2990.04	5652
2991.87	5727
2993.7	5549
2995.53	5709
2997.359	5610
2999.187	5494
3001.015	5567
3002.842	5546
3004.669	5461
3006.497	5476
3008.323	5507
3010.148	5420
3011.974	5429
3013.797	5430
3015.623	5414
3017.447	5366
3019.27	5409
3021.094	5401
3022.915	5333
3024.737	5341
3026.56	5352
3028.38	5300
3030.201	5304
3032.022	5309
3033.84	5266
3035.662	5313
3037.481	5280
3039.298	5360
3041.117	5316
3042.933	5283
3044.752	5372
3046.568	5270
3048.385	5201
3050.2	5329
3052.016	5300
3053.83	5219
3055.646	5222
3057.46	5309
3059.272	5260
3061.086	5283
3062.898	5361
3064.711	5342
3066.524	5264
3068.335	5328
3070.145	5242
3071.956	5154
3073.766	5241
3075.576	5107
3077.385	5273
3079.193	5183
3081.002	5254
3082.81	5131
3084.618	5196
3086.425	5180
3088.231	5175
3090.036	5186
3091.842	5197
3093.648	5232
3095.452	5173
3097.257	5124
3099.06	5157
3100.863	5182
3102.666	5236
3104.47	5157
3106.272	5144
3108.073	5099
3109.875	5111
3111.676	5231
3113.477	5071
3115.277	5167
3117.077	5108
3118.874	5071
3120.673	5205
3122.473	5126
3124.271	5175
3126.066	5073
3127.863	5196
3129.66	5080
3131.456	5031
3133.252	5016
3135.047	5016
3136.842	5131
3138.635	5047
3140.429	4981
3142.223	5053
3144.016	5082
3145.808	5098
3147.6	4987
3149.392	4952
3151.183	4958
3152.975	4978
3154.765	5010
3156.553	5024
3158.344	4948
3160.132	4984
3161.922	5018
3163.71	4893
3165.497	4883
3167.285	5140
3169.071	4988
3170.858	4991
3172.645	4981
3174.429	4944
3176.214	4957
3177.998	4891
3179.783	4884
3181.568	5040
3183.351	4988
3185.133	4904
3186.915	4917
3188.698	4978
3190.481	5005
3192.261	5045
3194.042	5011
3195.822	4843
3197.601	4990
3199.381	4960
3201.161	5064
3202.939	4911
3204.717	4947
3206.495	4939
3208.272	4943
3210.05	4941
3211.826	4982
3213.602	4875
3215.376	4898
3217.151	4982
3218.927	5001
3220.702	4884
3222.476	4937
3224.249	4857
3226.021	4854
3227.793	4864
3229.567	4902
3231.339	4865
3233.109	4933
3234.88	4838
3236.651	4921
3238.421	4792
3240.191	4962
3241.96	4911
3243.728	4935
3245.497	4948
3247.263	4849
3249.033	4961
3250.799	4980
3252.566	4888
3254.331	4942
3256.097	4876
3257.863	4857
3259.628	4874
3261.392	4935
3263.156	4840
3264.919	4911
3266.683	4925
3268.447	4899
3270.208	4936
3271.969	4923
3273.731	4908
3275.492	4917
3277.253	4816
3279.013	4865
3280.773	4930
3282.532	4871
3284.291	4959
3286.05	4916
3287.808	4856
3289.566	4959
3291.323	4827
3293.079	4807
3294.835	4853
3296.593	4872
3298.348	4856
3300.102	4889
3301.857	4850
3303.611	4934
3305.366	4836
3307.119	4926
3308.872	4966
3310.624	4888
3312.376	4912
3314.129	4858
3315.881	4874
3317.631	4844
3319.38	4900
3321.13	4837
3322.88	4836
3324.631	4873
3326.379	4895
3328.126	4914
3329.875	4888
3331.622	4832
3333.371	4953
3335.116	4795
3336.863	4803
3338.609	4847
3340.353	4814
3342.1	4835
3343.845	4832
3345.588	4791
3347.332	4856
3349.074	4866
3350.817	4860
3352.56	4812
3354.303	4795
3356.043	4888
3357.785	4797
3359.525	4864
3361.268	4777
3363.007	4789
3364.745	4845
3366.485	4735
3368.223	4820
3369.962	4710
3371.701	4800
3373.438	4783
3375.174	4707
3376.911	4722
3378.647	4764
3380.384	4788
3382.118	4752
3383.854	4761
3385.588	4680
3387.322	4805
3389.057	4833
3390.79	4762
3392.522	4688
3394.255	4716
3395.987	4834
3397.719	4661
3399.451	4729
3401.181	4670
3402.911	4695
3404.641	4691
3406.371	4680
3408.101	4724
3409.83	4625
3411.558	4720
3413.285	4679
3415.011	4685
3416.739	4678
3418.467	4689
3420.193	4614
3421.919	4648
3423.644	4634
3425.368	4615
3427.094	4666
3428.818	4654
3430.542	4746
3432.264	4603
3433.987	4594
3435.712	4649
3437.434	4638
3439.155	4539
3440.876	4558
3442.596	4502
3444.317	4608
3446.039	4649
3447.757	4602
3449.477	4581
3451.195	4645
3452.914	4624
3454.632	4578
3456.35	4540
3458.067	4561
3459.784	4564
3461.5	4595
3463.216	4641
3464.932	4579
3466.647	4611
3468.362	4628
3470.076	4524
3471.789	4580
3473.505	4630
3475.217	4509
3476.929	4497
3478.641	4531
3480.354	4460
3482.066	4527
3483.777	4495
3485.487	4565
3487.197	4449
3488.908	4533
3490.617	4491
3492.327	4370
3494.035	4452
3495.743	4466
3497.451	4409
3499.158	4437
3500.866	4459
3502.572	4428
3504.278	4456
3505.984	4499
3507.689	4356
3509.396	4451
3511.1	4474
3512.804	4403
3514.508	4367
3516.211	4322
3517.913	4428
3519.616	4376
3521.319	4503
3523.021	4446
3524.722	4432
3526.422	4343
3528.124	4347
3529.824	4375
3531.524	4405
3533.222	4376
3534.921	4375
3536.62	4353
3538.318	4428
3540.016	4299
3541.714	4501
3543.41	4277
3545.107	4425
3546.803	4343
3548.5	4396
3550.194	4317
3551.889	4266
3553.583	4293
3555.279	4299
3556.972	4362
3558.666	4260
3560.358	4335
3562.051	4324
3563.742	4216
3565.435	4313
3567.126	4315
3568.817	4372
3570.507	4318
3572.197	4263
3573.888	4391
3575.577	4260
3577.265	4222
3578.954	4283
3580.642	4284
3582.329	4322
3584.017	4265
3585.704	4238
3587.391	4360
3589.077	4226
3590.762	4306
3592.449	4214
3594.133	4356
3595.817	4132
3597.501	4228
3599.185	4167
3600.869	4241
3602.552	4192
3604.234	4237
3605.916	4113
3607.598	4173
3609.279	4167
3610.961	4178
3612.642	4242
3614.321	4148
3616	4187
3617.68	4168
3619.36	4221
3621.039	4207
3622.716	4122
3624.394	4195
3626.071	4108
3627.748	4168
3629.425	4202
3631.102	4102
3632.778	4161
3634.452	4126
3636.127	4186
3637.803	4117
3639.477	4110
3641.151	4128
3642.823	4046
3644.497	4077
3646.171	4096
3647.842	4077
3649.515	4122
3651.185	4022
3652.857	4038
3654.527	4060
3656.198	3991
3657.868	4067
3659.537	4126
3661.207	4048
3662.875	3967
3664.544	4125
3666.212	4049
3667.879	4094
3669.546	4077
3671.212	4019
3672.88	3955
3674.546	3991
3676.211	4034
3677.875	4079
3679.541	4038
3681.205	4044
3682.87	4151
3684.533	3963
3686.196	3978
3687.859	4059
3689.521	3994
3691.184	3947
3692.845	3981
3694.507	4023
3696.167	4011
3697.827	4036
3699.487	3981
3701.148	4005
3702.808	4010
3704.466	4017
3706.125	4054
3707.783	3979
3709.442	3988
3711.099	4009
3712.757	4017
3714.412	3870
3716.068	3960
3717.725	3973
3719.381	3982
3721.036	3992
3722.689	3958
3724.344	3949
3725.998	3968
3727.652	3955
3729.305	3919
3730.958	3980
3732.61	3940
3734.262	3874
3735.915	3930
3737.565	3925
3739.217	3787
3740.866	3857
3742.516	3890
3744.165	3966
3745.816	3864
3747.464	3949
3749.113	3895
3750.761	3926
3752.409	3827
3754.057	3919
3755.703	3903
3757.35	3871
3758.996	3955
3760.641	3822
3762.289	3785
3763.933	3913
3765.577	3825
3767.222	3901
3768.865	3864
3770.508	3851
3772.152	3895
3773.796	3925
3775.438	3891
3777.079	3810
3778.721	3830
3780.363	3859
3782.003	3871
3783.643	3865
3785.283	3814
3786.923	3841
3788.563	3788
3790.203	3849
3791.841	3877
3793.479	3792
3795.115	3789
3796.753	3730
3798.391	3784
3800.027	3772
3801.664	3761
3803.299	3788
3804.935	3789
3806.571	3741
3808.206	3736
3809.839	3811
3811.473	3765
3813.107	3800
3814.74	3861
3816.375	3755
3818.006	3740
3819.638	3782
3821.27	3811
3822.9	3740
3824.532	3762
3826.163	3778
3827.792	3783
3829.423	3758
3831.051	3697
3832.682	3742
3834.311	3740
3835.938	3726
3837.566	3692
3839.193	3744
3840.821	3703
3842.448	3688
3844.075	3744
3845.7	3692
3847.325	3714
3848.951	3745
3850.576	3614
3852.201	3699
3853.825	3724
3855.448	3757
3857.072	3711
3858.694	3604
3860.318	3766
3861.939	3672
3863.562	3678
3865.183	3752
3866.804	3638
3868.426	3636
3870.045	3636
3871.666	3685
3873.285	3686
3874.904	3745
3876.524	3653
3878.142	3637
3879.76	3622
3881.378	3663
3882.995	3658
3884.612	3682
3886.229	3627
3887.845	3687
3889.461	3694
3891.076	3681
3892.691	3643
3894.307	3712
3895.922	3547
3897.536	3654
3899.149	3584
3900.761	3652
3902.374	3669
3903.988	3657
3905.6	3633
3907.212	3559
3908.822	3616
3910.433	3584
3912.045	3573
3913.655	3631
3915.265	3657
3916.875	3574
3918.483	3610
3920.093	3606
3921.702	3637
3923.309	3604
3924.917	3603
3926.523	3656
3928.13	3545
3929.739	3697
3931.344	3623
3932.95	3662
3934.555	3538
3936.159	3470
3937.766	3558
3939.369	3591
3940.974	3526
3942.577	3500
3944.181	3590
3945.783	3546
3947.386	3525
3948.989	3500
3950.59	3566
3952.191	3596
3953.791	3529
3955.394	3542
3956.994	3484
3958.593	3551
3960.192	3525
3961.791	3477
3963.392	3562
3964.99	3474
3966.588	3509
3968.185	3560
3969.782	3571
3971.379	3495
3972.976	3438
3974.572	3423
3976.168	3489
3977.763	3476
3979.358	3463
3980.954	3514
3982.548	3582
3984.142	3503
3985.736	3510
3987.329	3525
3988.922	3522
3990.516	3399
3992.108	3402
3993.698	3481
3995.29	3419
3996.881	3435
3998.473	3476
4000.064	3372
4001.653	3362
4003.242	3420
4004.832	3403
4006.422	3390
4008.01	3392
4009.598	3427
4011.186	3381
4012.773	3354
4014.36	3354
4015.947	3372
4017.534	3439
4019.119	3413
4020.705	3398
4022.291	3313
4023.876	3384
4025.461	3318
4027.044	3338
4028.627	3397
4030.211	3401
4031.795	3286
4033.378	3360
4034.96	3427
4036.542	3313
4038.124	3377
4039.704	3397
4041.286	3263
4042.867	3325
4044.447	3354
4046.026	3373
4047.606	3322
4049.187	3395
4050.765	3333
4052.343	3333
4053.92	3349
4055.498	3328
4057.076	3288
4058.654	3318
4060.23	3291
4061.806	3286
4063.381	3339
4064.957	3279
4066.533	3261
4068.107	3315
4069.682	3336
4071.256	3202
4072.829	3248
4074.404	3385
4075.977	3232
4077.549	3338
4079.121	3323
4080.693	3302
4082.265	3318
4083.836	3212
4085.407	3277
4086.977	3274
4088.547	3234
4090.117	3211
4091.687	3319
4093.256	3225
4094.825	3324
4096.392	3250
4097.96	3287
4099.528	3240
4101.097	3243
4102.663	3228
4104.229	3252
4105.795	3245
4107.361	3191
4108.928	3237
4110.493	3281
4112.058	3191
4113.621	3258
4115.186	3161
4116.75	3222
4118.313	3219
4119.876	3156
4121.438	3167
4123	3186
4124.562	3182
4126.125	3225
4127.686	3201
4129.246	3171
4130.807	3193
4132.367	3246
4133.927	3114
4135.486	3037
4137.046	3159
4138.604	3237
4140.162	3120
4141.72	3190
4143.279	3089
4144.836	3126
4146.393	3110
4147.949	3151
4149.505	3039
4151.062	3120
4152.617	3118
4154.172	3133
4155.727	3111
4157.281	3169
4158.836	3119
4160.39	3114
4161.943	3152
4163.496	3156
4165.048	3070
4166.601	3104
4168.154	3068
4169.706	3102
4171.257	3104
4172.808	3133
4174.358	3105
4175.909	3028
4177.458	3102
4179.008	3078
4180.558	3091
4182.106	3134
4183.655	3046
4185.204	3012
4186.751	3063
4188.298	3024
4189.845	3015
4191.392	3042
4192.939	3041
4194.485	3068
4196.031	3017
4197.576	3042
4199.121	2985
4200.666	2980
4202.211	3085
4203.754	2990
4205.298	3052
4206.84	3092
4208.384	2952
4209.927	3046
4211.47	2917
4213.011	3011
4214.552	3007
4216.094	3037
4217.635	2986
4219.175	3000
4220.716	2987
4222.255	3047
4223.793	2935
4225.335	3021
4226.873	3022
4228.411	2975
4229.948	2978
4231.486	2985
4233.024	2948
4234.562	2889
4236.098	2908
4237.634	2980
4239.169	3015
4240.705	2932
4242.241	2969
4243.776	2992
4245.31	2970
4246.844	2922
4248.378	2918
4249.911	2972
4251.445	3045
4252.978	2920
4254.51	2970
4256.042	2942
4257.574	3002
4259.107	2926
4260.638	2965
4262.169	2917
4263.699	2897
4265.228	2880
4266.759	2891
4268.289	2881
4269.818	2936
4271.345	2928
4272.874	2892
4274.402	2942
4275.931	2851
4277.458	2913
4278.985	2902
4280.512	2894
4282.037	2887
4283.564	2964
4285.089	2836
4286.615	2903
4288.139	2897
4289.664	2843
4291.187	2950
4292.712	2898
4294.235	2916
4295.759	2914
4297.281	2889
4298.804	2790
4300.327	2867
4301.849	2867
4303.37	2929
4304.891	2859
4306.412	2855
4307.933	2822
4309.453	2878
4310.973	2908
4312.492	2855
