398.1873	3114
400.7097	3159
403.2336	3103
405.7547	3152
408.2751	3158
410.7948	3203
413.3138	3194
415.83	3253
418.3497	3215
420.8666	3290
423.3829	3231
425.8985	3295
428.4133	3331
430.9275	3359
433.441	3406
435.9538	3417
438.4639	3420
440.9753	3370
443.4881	3327
445.9982	3406
448.5055	3316
451.0142	3303
453.5201	3375
456.0274	3360
458.5361	3316
461.04	3400
463.5453	3369
466.0478	3320
468.5517	3304
471.0549	3369
473.5574	3353
476.0572	3370
478.5584	3429
481.0568	3407
483.5545	3414
486.0557	3433
488.5521	3432
491.0478	3461
493.5449	3447
496.0392	3460
498.5349	3424
501.0299	3481
503.5222	3495
506.0139	3491
508.5048	3520
510.9991	3435
513.4887	3395
515.9777	3535
518.4659	3522
520.9534	3473
523.4403	3491
525.9306	3521
528.4161	3512
530.9009	3520
533.3851	3584
535.8687	3483
538.3535	3501
540.8356	3541
543.3171	3463
545.7979	3559
548.278	3517
550.7595	3508
553.2383	3584
555.7144	3446
558.1918	3467
560.6685	3602
563.1446	3496
565.6221	3566
568.0968	3525
570.5688	3535
573.0422	3495
575.515	3575
577.989	3572
580.4584	3571
582.9291	3667
585.3991	3676
587.8685	3663
590.3352	3686
592.8052	3664
595.2706	3717
597.7372	3550
600.2033	3577
602.6666	3586
605.1334	3608
607.5953	3617
610.0587	3650
612.5193	3555
614.9814	3654
617.4427	3593
619.9034	3541
622.3615	3579
624.8208	3570
627.2775	3483
629.7335	3522
632.1929	3578
634.6476	3613
637.1016	3571
639.5569	3556
642.0096	3698
644.4637	3746
646.9151	3672
649.3678	3649
651.8179	3617
654.2672	3638
656.7159	3695
659.166	3660
661.6154	3653
664.0622	3650
666.5082	3603
668.9537	3740
671.4005	3678
673.8445	3643
676.288	3712
678.7308	3651
681.1729	3697
683.6163	3758
686.0572	3685
688.4973	3719
690.9368	3637
693.3757	3718
695.8138	3737
698.2534	3769
700.6902	3760
703.1245	3649
705.56	3747
707.9949	3826
710.4311	3754
712.8647	3704
715.2957	3771
717.7279	3805
720.1595	3806
722.5905	3778
725.0208	3823
727.4505	3832
729.8795	3828
732.3058	3839
734.7336	3843
737.1626	3901
739.587	3838
742.0128	3867
744.4359	3803
746.8604	3884
749.2841	3958
751.7073	3897
754.1278	3894
756.5496	3973
758.9688	3921
761.3893	3962
763.8093	3996
766.2285	3977
768.6451	3903
771.0611	3883
773.4784	3947
775.895	3886
778.3091	4025
780.7244	4033
783.1371	3947
785.5493	3945
787.9626	3943
790.3754	3908
792.7856	4021
795.1951	3983
797.6039	3992
800.0121	3903
802.4236	3983
804.8306	3992
807.2369	3913
809.6425	3994
812.0475	3991
814.4538	4032
816.8575	4067
819.2606	4012
821.663	4017
824.0648	4044
826.4659	4051
828.8683	4069
831.2682	3981
833.6674	4035
836.066	4042
838.4639	3990
840.8632	4008
843.2579	4019
845.6539	4038
848.0493	4026
850.444	4069
852.84	4026
855.2315	4108
857.6243	4112
860.0165	4093
862.4081	4140
864.797	4121
867.1892	4069
869.5789	4142
871.9659	4028
874.3542	4108
876.74	4089
879.129	4124
881.5155	4065
883.8994	4055
886.2845	4181
888.6671	4137
891.051	4107
893.4343	4145
895.8169	4077
898.197	4000
900.5783	4090
902.9571	4094
905.3372	4023
907.7167	4098
910.0936	4151
912.4698	4152
914.8474	4195
917.2244	4290
919.5987	4216
921.9744	4170
924.3475	4255
926.72	4271
929.0918	4184
931.4669	4250
933.8375	4334
936.2074	4311
938.5767	4324
940.9454	4363
943.3154	4396
945.6829	4416
948.0497	4579
950.4178	4569
952.7833	4778
955.1483	4911
957.5145	5114
959.8782	4998
962.2412	5148
964.6036	4982
966.9655	4858
969.3266	4711
971.6871	4542
974.0471	4443
976.4064	4330
978.765	4281
981.125	4276
983.4824	4251
985.8373	4266
988.1935	4236
990.549	4334
992.9039	4247
995.2602	4292
997.6119	4264
999.965	4237
1002.317	4278
1004.667	4271
1007.02	4204
1009.371	4240
1011.719	4277
1014.068	4245
1016.415	4288
1018.765	4316
1021.111	4318
1023.458	4250
1025.804	4356
1028.147	4270
1030.49	4314
1032.837	4304
1035.179	4388
1037.522	4344
1039.862	4345
1042.204	4354
1044.546	4287
1046.884	4319
1049.224	4328
1051.562	4395
1053.899	4427
1056.237	4310
1058.575	4361
1060.91	4406
1063.244	4384
1065.58	4408
1067.913	4484
1070.248	4396
1072.579	4418
1074.911	4436
1077.242	4392
1079.572	4365
1081.905	4361
1084.234	4438
1086.562	4440
1088.89	4338
1091.217	4363
1093.544	4351
1095.871	4334
1098.197	4338
1100.521	4339
1102.845	4300
1105.169	4448
1107.491	4380
1109.814	4313
1112.135	4425
1114.456	4492
1116.776	4354
1119.096	4340
1121.415	4426
1123.734	4402
1126.052	4375
1128.369	4440
1130.686	4396
1133.002	4514
1135.318	4417
1137.632	4467
1139.945	4405
1142.258	4485
1144.573	4396
1146.884	4419
1149.196	4389
1151.505	4393
1153.816	4305
1156.124	4373
1158.435	4351
1160.742	4418
1163.051	4361
1165.356	4384
1167.663	4522
1169.97	4412
1172.276	4389
1174.579	4373
1176.881	4420
1179.186	4364
1181.487	4361
1183.79	4352
1186.092	4263
1188.392	4384
1190.691	4419
1192.991	4355
1195.291	4358
1197.588	4459
1199.885	4448
1202.181	4346
1204.479	4419
1206.775	4441
1209.07	4391
1211.363	4371
1213.656	4416
1215.949	4415
1218.241	4414
1220.534	4522
1222.825	4549
1225.115	4516
1227.405	4540
1229.693	4417
1231.984	4561
1234.271	4590
1236.558	4454
1238.845	4557
1241.131	4658
1243.416	4679
1245.703	4592
1247.987	4633
1250.269	4504
1252.552	4648
1254.834	4584
1257.118	4604
1259.399	4565
1261.678	4612
1263.958	4577
1266.237	4517
1268.516	4546
1270.794	4537
1273.072	4600
1275.347	4691
1277.624	4522
1279.899	4613
1282.175	4506
1284.449	4596
1286.722	4610
1288.995	4520
1291.266	4621
1293.54	4549
1295.81	4577
1298.081	4574
1300.35	4575
1302.62	4559
1304.889	4535
1307.156	4523
1309.425	4530
1311.69	4437
1313.957	4595
1316.222	4519
1318.488	4501
1320.751	4562
1323.016	4517
1325.278	4549
1327.54	4503
1329.803	4520
1332.065	4580
1334.325	4575
1336.584	4570
1338.843	4605
1341.101	4535
1343.36	4596
1345.617	4548
1347.876	4604
1350.131	4581
1352.387	4609
1354.643	4518
1356.897	4554
1359.151	4490
1361.403	4622
1363.656	4528
1365.909	4601
1368.16	4630
1370.409	4661
1372.659	4561
1374.909	4585
1377.157	4582
1379.407	4588
1381.655	4604
1383.9	4502
1386.147	4600
1388.393	4698
1390.64	4706
1392.885	4584
1395.127	4646
1397.37	4608
1399.614	4669
1401.854	4725
1404.098	4689
1406.339	4681
1408.578	4676
1410.818	4615
1413.056	4658
1415.297	4669
1417.533	4711
1419.771	4724
1422.006	4722
1424.243	4670
1426.479	4699
1428.715	4692
1430.948	4821
1433.182	4702
1435.414	4817
1437.647	4794
1439.88	4720
1442.11	4719
1444.342	4779
1446.571	4780
1448.799	4695
1451.029	4722
1453.258	4878
1455.485	4811
1457.711	4789
1459.937	4766
1462.164	4812
1464.39	4784
1466.614	4719
1468.838	4692
1471.06	4731
1473.283	4781
1475.506	4691
1477.727	4693
1479.949	4611
1482.169	4718
1484.389	4733
1486.609	4696
1488.828	4646
1491.045	4630
1493.261	4643
1495.477	4691
1497.693	4660
1499.91	4614
1502.125	4657
1504.339	4737
1506.553	4633
1508.766	4584
1510.979	4545
1513.191	4712
1515.402	4636
1517.613	4659
1519.823	4642
1522.033	4700
1524.242	4636
1526.451	4582
1528.657	4682
1530.865	4665
1533.072	4646
1535.278	4654
1537.484	4680
1539.687	4667
1541.892	4733
1544.096	4711
1546.299	4570
1548.502	4693
1550.703	4710
1552.905	4755
1555.104	4722
1557.303	4705
1559.505	4772
1561.703	4754
1563.902	4725
1566.099	4762
1568.295	4747
1570.494	4792
1572.689	4775
1574.883	4726
1577.079	4821
1579.272	4761
1581.467	4805
1583.659	4752
1585.853	4834
1588.044	4811
1590.234	4800
1592.424	4900
1594.615	4738
1596.806	4948
1598.994	4932
1601.182	4795
1603.369	4844
1605.557	4821
1607.744	4881
1609.929	4778
1612.114	4801
1614.298	4840
1616.482	4876
1618.667	4846
1620.85	4878
1623.032	4924
1625.214	4838
1627.395	4998
1629.575	4904
1631.755	4880
1633.935	4883
1636.114	4870
1638.292	4874
1640.471	4748
1642.647	4859
1644.823	4945
1647	4950
1649.175	4854
1651.348	4919
1653.525	5006
1655.698	4853
1657.87	4854
1660.043	4860
1662.213	4984
1664.387	4964
1666.558	4981
1668.727	4949
1670.896	4928
1673.064	4914
1675.233	4907
1677.401	4932
1679.569	4868
1681.735	4796
1683.902	4928
1686.066	4948
1688.233	4968
1690.397	4910
1692.559	4784
1694.723	4870
1696.885	4896
1699.048	4867
1701.21	4879
1703.37	4846
1705.53	5020
1707.689	4793
1709.849	4806
1712.009	4885
1714.166	4743
1716.323	4880
1718.479	4881
1720.634	4944
1722.793	4861
1724.948	4819
1727.102	4912
1729.255	4862
1731.408	4883
1733.562	4859
1735.714	4852
1737.865	4970
1740.016	4864
1742.166	4918
1744.316	4969
1746.467	4868
1748.616	4876
1750.764	4902
1752.911	4871
1755.056	4893
1757.205	4825
1759.35	4929
1761.496	5000
1763.641	4940
1765.785	4866
1767.927	4992
1770.072	4934
1772.214	4900
1774.355	4935
1776.496	4972
1778.637	4985
1780.778	4929
1782.918	4941
1785.057	4900
1787.194	4894
1789.333	4933
1791.472	4965
1793.608	4976
1795.745	4993
1797.879	4999
1800.015	4929
1802.148	4939
1804.284	4977
1806.417	4877
1808.548	4892
1810.682	4919
1812.812	5108
1814.946	4934
1817.075	4995
1819.205	4935
1821.335	4959
1823.463	4900
1825.59	4928
1827.721	4961
1829.847	4986
1831.973	4923
1834.098	4996
1836.223	4863
1838.351	4956
1840.475	4917
1842.598	4966
1844.721	4949
1846.843	4919
1848.966	4937
1851.087	4849
1853.21	4834
1855.33	4988
1857.449	4987
1859.568	4918
1861.688	4943
1863.806	4921
1865.924	4823
1868.039	5019
1870.155	4886
1872.273	4915
1874.388	4904
1876.503	4907
1878.617	4871
1880.73	4911
1882.844	4849
1884.956	4971
1887.068	4926
1889.18	4943
1891.291	5035
1893.4	4948
1895.511	4999
1897.621	4903
1899.73	5067
1901.837	4926
1903.944	4924
1906.053	5005
1908.159	4953
1910.265	5032
1912.369	5012
1914.474	5085
1916.577	5020
1918.683	5028
1920.785	5033
1922.888	5092
1924.989	5052
1927.091	5026
1929.193	4958
1931.294	5058
1933.393	5071
1935.493	5004
1937.59	5037
1939.689	5014
1941.788	5124
1943.884	5086
1945.98	5106
1948.077	5077
1950.171	5043
1952.267	5016
1954.361	5069
1956.455	5036
1958.548	5153
1960.64	5033
1962.733	5041
1964.824	5012
1966.915	5026
1969.005	5069
1971.096	5132
1973.185	5145
1975.275	4927
1977.363	5047
1979.45	4956
1981.537	4981
1983.623	5037
1985.711	5070
1987.796	5011
1989.881	5146
1991.965	5083
1994.047	5037
1996.132	4963
1998.215	5066
2000.297	5020
2002.378	4980
2004.46	5037
2006.54	5039
2008.62	5047
2010.7	5011
2012.779	5097
2014.858	5006
2016.934	5047
2019.013	4958
2021.09	4991
2023.165	4951
2025.241	5106
2027.317	5105
2029.39	5016
2031.466	4990
2033.538	5067
2035.612	5033
2037.683	5051
2039.755	4958
2041.827	5025
2043.898	5005
2045.968	4994
2048.038	5056
2050.106	5009
2052.177	5049
2054.244	5091
2056.313	5027
2058.379	5051
2060.444	5025
2062.511	4981
2064.577	5071
2066.641	5016
2068.705	5085
2070.77	4979
2072.832	5068
2074.896	5136
2076.958	5040
2079.02	5094
2081.081	5057
2083.141	5001
2085.2	5123
2087.261	5024
2089.319	5083
2091.377	5075
2093.435	5176
2095.492	5061
2097.552	5054
2099.607	5078
2101.663	5178
2103.718	5024
2105.771	5111
2107.826	5094
2109.879	4999
2111.932	5084
2113.985	5112
2116.037	5061
2118.088	5105
2120.141	5115
2122.191	5062
2124.239	4972
2126.288	4988
2128.337	5135
2130.387	5023
2132.434	5135
2134.481	5068
2136.528	5101
2138.574	5017
2140.618	5038
2142.665	4988
2144.71	5045
2146.753	5041
2148.797	5026
2150.838	5022
2152.883	5002
2154.923	5103
2156.965	4985
2159.007	4996
2161.046	5070
2163.086	5141
2165.126	5019
2167.163	4973
2169.202	5039
2171.239	5067
2173.277	5068
2175.314	4938
2177.349	4983
2179.385	5111
2181.42	5034
2183.453	4948
2185.49	5007
2187.522	5080
2189.555	4994
2191.586	4991
2193.619	4896
2195.651	5033
2197.682	4980
2199.711	4973
2201.74	5028
2203.769	4950
2205.799	5029
2207.828	4956
2209.855	4994
2211.882	4977
2213.908	4950
2215.934	5055
2217.961	4991
2219.986	5007
2222.01	5023
2224.034	4965
2226.057	4976
2228.08	4900
2230.104	4988
2232.124	4990
2234.145	4876
2236.166	4929
2238.186	4986
2240.207	5018
2242.227	4974
2244.244	5017
2246.262	5006
2248.28	5082
2250.299	4999
2252.314	5001
2254.33	4975
2256.346	5025
2258.36	5014
2260.375	5014
2262.391	5063
2264.403	4950
2266.416	5093
2268.427	4933
2270.44	5015
2272.453	5086
2274.463	5007
2276.474	4988
2278.483	4889
2280.493	5038
2282.501	4956
2284.51	4985
2286.518	5043
2288.524	4936
2290.532	5001
2292.537	5000
2294.544	5028
2296.55	4984
2298.554	4993
2300.557	5028
2302.562	5022
2304.566	5041
2306.568	4995
2308.569	4950
2310.572	5105
2312.573	4983
2314.573	4981
2316.574	4988
2318.573	4948
2320.571	5023
2322.571	5054
2324.569	5003
2326.567	5024
2328.564	4945
2330.56	5013
2332.556	5090
2334.551	5010
2336.546	4988
2338.542	5014
2340.535	4923
2342.529	4981
2344.521	4905
2346.512	4994
2348.505	4873
2350.497	4937
2352.487	4964
2354.478	5052
2356.468	4958
2358.457	5023
2360.446	4921
2362.434	4939
2364.422	5018
2366.408	4968
2368.395	4859
2370.383	5027
2372.369	4926
2374.353	4996
2376.338	4939
2378.321	4948
2380.307	4885
2382.29	4981
2384.272	4923
2386.254	4982
2388.235	4877
2390.218	4939
2392.198	4899
2394.179	4902
2396.157	4933
2398.137	4899
2400.115	4884
2402.095	4936
2404.072	4870
2406.048	4951
2408.026	4894
2410.001	4914
2411.977	4940
2413.953	4805
2415.927	4931
2417.9	4901
2419.875	4944
2421.847	4902
2423.821	4908
2425.792	4884
2427.763	4998
2429.736	4832
2431.706	4968
2433.677	4909
2435.646	4991
2437.615	4931
2439.583	4953
2441.551	4974
2443.519	4885
2445.486	4935
2447.452	5033
2449.418	4887
2451.383	4854
2453.348	4919
2455.314	4904
2457.278	4874
2459.241	4804
2461.205	4851
2463.167	4867
2465.131	4968
2467.091	4981
2469.052	4805
2471.012	4913
2472.972	4909
2474.932	4869
2476.891	4851
2478.85	4883
2480.808	4828
2482.766	4965
2484.722	4891
2486.68	4928
2488.636	4955
2490.591	4826
2492.546	4846
2494.5	4912
2496.456	4879
2498.41	4790
2500.362	4784
2502.315	4756
2504.266	4921
2506.218	4899
2508.169	4803
2510.121	4899
2512.07	4760
2514.019	4807
2515.968	4829
2517.918	4895
2519.866	4849
2521.813	4907
2523.76	4818
2525.707	4846
2527.653	4773
2529.599	4858
2531.543	4814
2533.489	4849
2535.433	4866
2537.376	4752
2539.32	4830
2541.264	4848
2543.205	4794
2545.147	4926
2547.087	4790
2549.029	4879
2550.969	4821
2552.908	4775
2554.847	4948
2556.786	4942
2558.724	4886
2560.663	4769
2562.6	4909
2564.537	4904
2566.473	4847
2568.408	4834
2570.345	4850
2572.28	4865
2574.214	4824
2576.148	4780
2578.081	4904
2580.014	4784
2581.947	4822
2583.879	4902
2585.81	4890
2587.741	4879
2589.67	4789
2591.602	4799
2593.532	4869
2595.461	4820
2597.388	4904
2599.316	4918
2601.244	4851
2603.172	4914
2605.098	4885
2607.023	4898
2608.949	4853
2610.873	4881
2612.8	4841
2614.723	4846
2616.647	4941
2618.569	4933
2620.493	4910
2622.416	4798
2624.338	4785
2626.258	4869
2628.179	4912
2630.099	4828
2632.019	4853
2633.939	4925
2635.857	4909
2637.775	4986
2639.694	4882
2641.61	4998
2643.528	4910
2645.444	4980
2647.361	4820
2649.276	4816
2651.19	4873
2653.105	4968
2655.019	4913
2656.934	5010
2658.846	4974
2660.758	4986
2662.67	4987
2664.583	4970
2666.493	4954
2668.404	4948
2670.313	4862
2672.223	4973
2674.134	4901
2676.042	4887
2677.95	4943
2679.858	4815
2681.765	5009
2683.673	4893
2685.579	4858
2687.483	4814
2689.389	4884
2691.294	4792
2693.198	4883
2695.104	4875
2697.006	4943
2698.909	4871
2700.811	4860
2702.713	4854
2704.615	4923
2706.516	4873
2708.417	4795
2710.316	4773
2712.216	4757
2714.115	4829
2716.014	4762
2717.913	4983
2719.81	4891
2721.707	4801
2723.603	4764
2725.501	4901
2727.396	4780
2729.292	4813
2731.186	4839
2733.081	4905
2734.976	4814
2736.87	4772
2738.762	4875
2740.653	4807
2742.546	4846
2744.437	4888
2746.329	4915
2748.22	4904
2750.11	4814
2751.999	4876
2753.889	4769
2755.778	4923
2757.666	4837
2759.553	4852
2761.44	4768
2763.328	4767
2765.215	4750
2767.101	4771
2768.986	4818
2770.87	4864
2772.754	4775
2774.638	4837
2776.523	4874
2778.405	4798
2780.288	4871
2782.17	4781
2784.051	4808
2785.934	4866
2787.814	4871
2789.694	4859
2791.574	4819
2793.453	4742
2795.332	4907
2797.212	4784
2799.088	4826
2800.966	4928
2802.843	4758
2804.719	4763
2806.597	4781
2808.471	4838
2810.346	4729
2812.221	4827
2814.094	4778
2815.969	4854
2817.843	4824
2819.714	4846
2821.587	4708
2823.459	4753
2825.329	4743
2827.202	4788
2829.072	4828
2830.942	4964
2832.811	4757
2834.68	4791
2836.549	4811
2838.418	4831
2840.284	4815
2842.152	4803
2844.018	4939
2845.885	4734
2847.751	4887
2849.616	4703
2851.482	4896
2853.345	4851
2855.208	4814
2857.074	4884
2858.937	4861
2860.799	4837
2862.66	4836
2864.522	4764
2866.385	4908
2868.245	5051
2870.104	5020
2871.964	4883
2873.824	5024
2875.683	5026
2877.542	4980
2879.4	5031
2881.257	4969
2883.114	5103
2884.97	5010
2886.827	5049
2888.683	5119
2890.537	5084
2892.392	5090
2894.246	5106
2896.1	5010
2897.954	5078
2899.807	5047
2901.66	5013
2903.51	5074
2905.362	5034
2907.214	5077
2909.065	5073
2910.915	5167
2912.765	5094
2914.613	5112
2916.463	5232
2918.311	5167
2920.158	5302
2922.006	5236
2923.853	5266
2925.698	5276
2927.546	5311
2929.392	5349
2931.236	5395
2933.081	5251
2934.924	5440
2936.77	5447
2938.613	5534
2940.455	5493
2942.298	5454
2944.139	5503
2945.982	5547
2947.823	5467
2949.662	5385
2951.503	5394
2953.342	5442
2955.182	5390
2957.021	5355
2958.858	5422
2960.697	5289
2962.534	5305
2964.37	5239
2966.207	5205
2968.044	5251
2969.879	5177
2971.714	5205
2973.548	5162
2975.383	5137
2977.218	5151
2979.051	5199
2980.883	5109
2982.715	5066
2984.547	5168
2986.379	5146
2988.21	5063
2990.04	5037
2991.87	5020
2993.7	5020
2995.53	4886
2997.359	4907
2999.187	4889
3001.015	4944
3002.842	4819
3004.669	4860
3006.497	4880
3008.323	4831
3010.148	4805
3011.974	4815
3013.797	4889
3015.623	4742
3017.447	4717
3019.27	4655
3021.094	4849
3022.915	4746
3024.737	4730
3026.56	4684
3028.38	4715
3030.201	4732
3032.022	4658
3033.84	4660
3035.662	4690
3037.481	4619
3039.298	4657
3041.117	4708
3042.933	4628
3044.752	4667
3046.568	4735
3048.385	4595
3050.2	4651
3052.016	4691
3053.83	4583
3055.646	4649
3057.46	4612
3059.272	4602
3061.086	4647
3062.898	4681
3064.711	4669
3066.524	4767
3068.335	4660
3070.145	4659
3071.956	4566
3073.766	4547
3075.576	4610
3077.385	4610
3079.193	4614
3081.002	4608
3082.81	4616
3084.618	4554
3086.425	4558
3088.231	4612
3090.036	4550
3091.842	4575
3093.648	4514
3095.452	4592
3097.257	4556
3099.06	4516
3100.863	4474
3102.666	4544
3104.47	4443
3106.272	4525
3108.073	4543
3109.875	4438
3111.676	4479
3113.477	4478
3115.277	4458
3117.077	4455
3118.874	4500
3120.673	4433
3122.473	4498
3124.271	4520
3126.066	4503
3127.863	4424
3129.66	4387
3131.456	4422
3133.252	4380
3135.047	4464
3136.842	4476
3138.635	4427
3140.429	4509
3142.223	4457
3144.016	4448
3145.808	4469
3147.6	4490
3149.392	4449
3151.183	4452
3152.975	4399
3154.765	4434
3156.553	4429
3158.344	4419
3160.132	4511
3161.922	4370
3163.71	4411
3165.497	4394
3167.285	4479
3169.071	4433
3170.858	4445
3172.645	4408
3174.429	4408
3176.214	4348
3177.998	4376
3179.783	4402
3181.568	4357
3183.351	4420
3185.133	4468
3186.915	4454
3188.698	4470
3190.481	4396
3192.261	4471
3194.042	4377
3195.822	4405
3197.601	4387
3199.381	4358
3201.161	4352
3202.939	4332
3204.717	4362
3206.495	4323
3208.272	4497
3210.05	4393
3211.826	4408
3213.602	4471
3215.376	4386
3217.151	4434
3218.927	4459
3220.702	4360
3222.476	4426
3224.249	4338
3226.021	4372
3227.793	4313
3229.567	4378
3231.339	4368
3233.109	4371
3234.88	4346
3236.651	4400
3238.421	4331
3240.191	4348
3241.96	4343
3243.728	4439
3245.497	4412
3247.263	4415
3249.033	4436
3250.799	4359
3252.566	4335
3254.331	4398
3256.097	4347
3257.863	4415
3259.628	4295
3261.392	4338
3263.156	4377
3264.919	4277
3266.683	4419
3268.447	4412
3270.208	4321
3271.969	4441
3273.731	4351
3275.492	4379
3277.253	4398
3279.013	4411
3280.773	4389
3282.532	4381
3284.291	4390
3286.05	4325
3287.808	4331
3289.566	4367
3291.323	4373
3293.079	4365
3294.835	4305
3296.593	4371
3298.348	4406
3300.102	4362
3301.857	4370
3303.611	4401
3305.366	4400
3307.119	4331
3308.872	4343
3310.624	4354
3312.376	4327
3314.129	4345
3315.881	4342
3317.631	4365
3319.38	4318
3321.13	4368
3322.88	4292
3324.631	4339
3326.379	4294
3328.126	4333
3329.875	4344
3331.622	4255
3333.371	4350
3335.116	4325
3336.863	4387
3338.609	4298
3340.353	4265
3342.1	4248
3343.845	4338
3345.588	4284
3347.332	4278
3349.074	4430
3350.817	4301
3352.56	4266
3354.303	4278
3356.043	4231
3357.785	4249
3359.525	4360
3361.268	4236
3363.007	4314
3364.745	4264
3366.485	4292
3368.223	4283
3369.962	4307
3371.701	4338
3373.438	4252
3375.174	4330
3376.911	4220
3378.647	4267
3380.384	4285
3382.118	4318
3383.854	4311
3385.588	4228
3387.322	4338
3389.057	4236
3390.79	4288
3392.522	4213
3394.255	4275
3395.987	4314
3397.719	4259
3399.451	4302
3401.181	4239
3402.911	4217
3404.641	4168
3406.371	4172
3408.101	4205
3409.83	4270
3411.558	4253
3413.285	4221
3415.011	4246
3416.739	4196
3418.467	4175
3420.193	4150
3421.919	4243
3423.644	4245
3425.368	4183
3427.094	4265
3428.818	4205
3430.542	4217
3432.264	4230
3433.987	4210
3435.712	4168
3437.434	4198
3439.155	4181
3440.876	4197
3442.596	4102
3444.317	4128
3446.039	4119
3447.757	4141
3449.477	4145
3451.195	4088
3452.914	4139
3454.632	4070
3456.35	4155
3458.067	4098
3459.784	4120
3461.5	4098
3463.216	4136
3464.932	4109
3466.647	4106
3468.362	4096
3470.076	4091
3471.789	4189
3473.505	4080
3475.217	4089
3476.929	4034
3478.641	4082
3480.354	4111
3482.066	4092
3483.777	4048
3485.487	4049
3487.197	4086
3488.908	4126
3490.617	4100
3492.327	3999
3494.035	4017
3495.743	4040
3497.451	4052
3499.158	4025
3500.866	4024
3502.572	4114
3504.278	4072
3505.984	4001
3507.689	4040
3509.396	4016
3511.1	3959
3512.804	4007
3514.508	3923
3516.211	3985
3517.913	3938
3519.616	4050
3521.319	3997
3523.021	3951
3524.722	3965
3526.422	4004
3528.124	4021
3529.824	3963
3531.524	4001
3533.222	3975
3534.921	4058
3536.62	3956
3538.318	3968
3540.016	3988
3541.714	3881
3543.41	3940
3545.107	4006
3546.803	3987
3548.5	3866
3550.194	4029
3551.889	3983
3553.583	3947
3555.279	3945
3556.972	3955
3558.666	3937
3560.358	3954
3562.051	3934
3563.742	3904
3565.435	3957
3567.126	3963
3568.817	4016
3570.507	3812
3572.197	3919
3573.888	3852
3575.577	3962
3577.265	3840
3578.954	3856
3580.642	3873
3582.329	3889
3584.017	3895
3585.704	3840
3587.391	3961
3589.077	3879
3590.762	3885
3592.449	3864
3594.133	3841
3595.817	3891
3597.501	3871
3599.185	3840
3600.869	3822
3602.552	3830
3604.234	3800
3605.916	3864
3607.598	3760
3609.279	3924
3610.961	3850
3612.642	3766
3614.321	3761
3616	3840
3617.68	3760
3619.36	3876
3621.039	3788
3622.716	3826
3624.394	3818
3626.071	3828
3627.748	3789
3629.425	3717
3631.102	3724
3632.778	3790
3634.452	3807
3636.127	3766
3637.803	3734
3639.477	3780
3641.151	3705
3642.823	3704
3644.497	3718
3646.171	3759
3647.842	3732
3649.515	3704
3651.185	3720
3652.857	3752
3654.527	3696
3656.198	3624
3657.868	3670
3659.537	3759
3661.207	3682
3662.875	3674
3664.544	3736
3666.212	3769
3667.879	3697
3669.546	3746
3671.212	3598
3672.88	3684
3674.546	3612
3676.211	3694
3677.875	3796
3679.541	3707
3681.205	3731
3682.87	3752
3684.533	3720
3686.196	3711
3687.859	3671
3689.521	3764
3691.184	3708
3692.845	3694
3694.507	3678
3696.167	3650
3697.827	3654
3699.487	3709
3701.148	3687
3702.808	3715
3704.466	3622
3706.125	3680
3707.783	3580
3709.442	3734
3711.099	3644
3712.757	3581
3714.412	3710
3716.068	3615
3717.725	3713
3719.381	3577
3721.036	3637
3722.689	3697
3724.344	3628
3725.998	3742
3727.652	3671
3729.305	3568
3730.958	3598
3732.61	3636
3734.262	3554
3735.915	3662
3737.565	3621
3739.217	3623
3740.866	3646
3742.516	3621
3744.165	3605
3745.816	3624
3747.464	3649
3749.113	3579
3750.761	3560
3752.409	3529
3754.057	3606
3755.703	3666
3757.35	3659
3758.996	3623
3760.641	3559
3762.289	3564
3763.933	3549
3765.577	3649
3767.222	3540
3768.865	3568
3770.508	3519
3772.152	3567
3773.796	3588
3775.438	3586
3777.079	3536
3778.721	3539
3780.363	3529
3782.003	3565
3783.643	3582
3785.283	3626
3786.923	3608
3788.563	3547
3790.203	3524
3791.841	3613
3793.479	3502
3795.115	3577
3796.753	3582
3798.391	3493
3800.027	3466
3801.664	3611
3803.299	3486
3804.935	3582
3806.571	3517
3808.206	3455
3809.839	3475
3811.473	3451
3813.107	3540
3814.74	3468
3816.375	3470
3818.006	3442
3819.638	3538
3821.27	3483
3822.9	3471
3824.532	3496
3826.163	3501
3827.792	3570
3829.423	3352
3831.051	3468
3832.682	3458
3834.311	3447
3835.938	3434
3837.566	3426
3839.193	3508
3840.821	3436
3842.448	3454
3844.075	3453
3845.7	3445
3847.325	3416
3848.951	3498
3850.576	3365
3852.201	3448
3853.825	3406
3855.448	3399
3857.072	3363
3858.694	3415
3860.318	3441
3861.939	3367
3863.562	3448
3865.183	3432
3866.804	3443
3868.426	3448
3870.045	3477
3871.666	3376
3873.285	3381
3874.904	3468
3876.524	3390
3878.142	3470
3879.76	3461
3881.378	3412
3882.995	3335
3884.612	3393
3886.229	3415
3887.845	3388
3889.461	3427
3891.076	3398
3892.691	3329
3894.307	3301
3895.922	3333
3897.536	3390
3899.149	3375
3900.761	3379
3902.374	3417
3903.988	3409
3905.6	3400
3907.212	3366
3908.822	3406
3910.433	3381
3912.045	3302
3913.655	3338
3915.265	3333
3916.875	3433
3918.483	3349
3920.093	3312
3921.702	3387
3923.309	3331
3924.917	3317
3926.523	3355
3928.13	3345
3929.739	3349
3931.344	3332
3932.95	3303
3934.555	3378
3936.159	3297
3937.766	3350
3939.369	3341
3940.974	3345
3942.577	3351
3944.181	3348
3945.783	3336
3947.386	3228
3948.989	3400
3950.59	3368
3952.191	3301
3953.791	3324
3955.394	3319
3956.994	3267
3958.593	3296
3960.192	3316
3961.791	3302
3963.392	3344
3964.99	3290
3966.588	3310
3968.185	3234
3969.782	3309
3971.379	3334
3972.976	3320
3974.572	3321
3976.168	3316
3977.763	3218
3979.358	3310
3980.954	3317
3982.548	3279
3984.142	3257
3985.736	3312
3987.329	3230
3988.922	3278
3990.516	3236
3992.108	3273
3993.698	3225
3995.29	3253
3996.881	3239
3998.473	3191
4000.064	3219
4001.653	3147
4003.242	3198
4004.832	3194
4006.422	3236
4008.01	3167
4009.598	3181
4011.186	3190
4012.773	3260
4014.36	3258
4015.947	3237
4017.534	3223
4019.119	3211
4020.705	3171
4022.291	3246
4023.876	3129
4025.461	3163
4027.044	3140
4028.627	3151
4030.211	3195
4031.795	3133
4033.378	3188
4034.96	3143
4036.542	3167
4038.124	3083
4039.704	3176
4041.286	3152
4042.867	3227
4044.447	3214
4046.026	3110
4047.606	3126
4049.187	3146
4050.765	3229
4052.343	3117
4053.92	3168
4055.498	3089
4057.076	3141
4058.654	3161
4060.23	3110
4061.806	3094
4063.381	3125
4064.957	3108
4066.533	3112
4068.107	3141
4069.682	3097
4071.256	3004
4072.829	3035
4074.404	3051
4075.977	3075
4077.549	3052
4079.121	3051
4080.693	3113
4082.265	3104
4083.836	3027
4085.407	3118
4086.977	3127
4088.547	3117
4090.117	3065
4091.687	3062
4093.256	3085
4094.825	3021
4096.392	3038
4097.96	3040
4099.528	3019
4101.097	3066
4102.663	3044
4104.229	3077
4105.795	3046
4107.361	3041
4108.928	3025
4110.493	3101
4112.058	3006
4113.621	3013
4115.186	3077
4116.75	3054
4118.313	3027
4119.876	3019
4121.438	3015
4123	2965
4124.562	2956
4126.125	3029
4127.686	3044
4129.246	3002
4130.807	3015
4132.367	2958
4133.927	3031
4135.486	2961
4137.046	2990
4138.604	3028
4140.162	3036
4141.72	2972
4143.279	2918
4144.836	3001
4146.393	3059
4147.949	2941
4149.505	2944
4151.062	2922
4152.617	2953
4154.172	2948
4155.727	2955
4157.281	2990
4158.836	2957
4160.39	2958
4161.943	2918
4163.496	2948
4165.048	2885
4166.601	2861
4168.154	2902
4169.706	2937
4171.257	2972
4172.808	2938
4174.358	2892
4175.909	2880
4177.458	2915
4179.008	2851
4180.558	3012
4182.106	2932
4183.655	2896
4185.204	2920
4186.751	2849
4188.298	2923
4189.845	2869
4191.392	2851
4192.939	2873
4194.485	2856
4196.031	2917
4197.576	2851
4199.121	2859
4200.666	2814
4202.211	2775
4203.754	2939
4205.298	2876
4206.84	2893
4208.384	2894
4209.927	2874
4211.47	2821
4213.011	2842
4214.552	2871
4216.094	2838
4217.635	2830
4219.175	2866
4220.716	2901
4222.255	2813
4223.793	2876
4225.335	2826
4226.873	2850
4228.411	2852
4229.948	2888
4231.486	2804
4233.024	2867
4234.562	2797
4236.098	2872
4237.634	2872
4239.169	2839
4240.705	2855
4242.241	2850
4243.776	2787
4245.31	2862
4246.844	2829
4248.378	2833
4249.911	2857
4251.445	2877
4252.978	2825
4254.51	2892
4256.042	2873
4257.574	2855
4259.107	2799
4260.638	2827
4262.169	2770
4263.699	2822
4265.228	2743
4266.759	2806
4268.289	2790
4269.818	2855
4271.345	2773
4272.874	2851
4274.402	2734
4275.931	2849
4277.458	2750
4278.985	2710
4280.512	2730
4282.037	2808
4283.564	2718
4285.089	2791
4286.615	2762
4288.139	2762
4289.664	2717
4291.187	2711
4292.712	2723
4294.235	2771
4295.759	2796
4297.281	2814
4298.804	2728
4300.327	2761
4301.849	2735
4303.37	2773
4304.891	2727
4306.412	2758
4307.933	2741
4309.453	2754
4310.973	2734
4312.492	2705
