398.1873	2642
400.7097	2687
403.2336	2673
405.7547	2647
408.2751	2653
410.7948	2677
413.3138	2731
415.83	2679
418.3497	2742
420.8666	2785
423.3829	2858
425.8985	2820
428.4133	2804
430.9275	2955
433.441	2852
435.9538	2872
438.4639	2846
440.9753	2904
443.4881	2764
445.9982	2862
448.5055	2851
451.0142	2917
453.5201	2830
456.0274	2793
458.5361	2832
461.04	2831
463.5453	2863
466.0478	2916
468.5517	2879
471.0549	2883
473.5574	2869
476.0572	2906
478.5584	2857
481.0568	2854
483.5545	2865
486.0557	2903
488.5521	2919
491.0478	2883
493.5449	2818
496.0392	2907
498.5349	2965
501.0299	2860
503.5222	2956
506.0139	2923
508.5048	2953
510.9991	2910
513.4887	2902
515.9777	2898
518.4659	2910
520.9534	2961
523.4403	2933
525.9306	2902
528.4161	2967
530.9009	3013
533.3851	2982
535.8687	2931
538.3535	3011
540.8356	2994
543.3171	2932
545.7979	2993
548.278	2991
550.7595	2904
553.2383	2945
555.7144	2986
558.1918	2936
560.6685	3005
563.1446	3026
565.6221	3002
568.0968	2969
570.5688	3004
573.0422	3065
575.515	3056
577.989	3118
580.4584	3074
582.9291	3083
585.3991	3069
587.8685	3112
590.3352	3014
592.8052	3085
595.2706	3093
597.7372	3017
600.2033	3130
602.6666	3073
605.1334	3046
607.5953	3049
610.0587	3102
612.5193	3015
614.9814	3070
617.4427	3075
619.9034	3043
622.3615	3049
624.8208	3067
627.2775	3017
629.7335	2984
632.1929	2998
634.6476	3082
637.1016	2977
639.5569	3101
642.0096	2958
644.4637	2984
646.9151	3074
649.3678	3041
651.8179	2993
654.2672	3093
656.7159	3092
659.166	3075
661.6154	3146
664.0622	3118
666.5082	3103
668.9537	3093
671.4005	3138
673.8445	3178
676.288	3105
678.7308	3156
681.1729	3106
683.6163	3114
686.0572	3112
688.4973	3162
690.9368	3174
693.3757	3165
695.8138	3202
698.2534	3203
700.6902	3182
703.1245	3179
705.56	3140
707.9949	3166
710.4311	3172
712.8647	3228
715.2957	3123
717.7279	3272
720.1595	3233
722.5905	3187
725.0208	3222
727.4505	3174
729.8795	3250
732.3058	3234
734.7336	3331
737.1626	3237
739.587	3242
742.0128	3232
744.4359	3291
746.8604	3276
749.2841	3335
751.7073	3312
754.1278	3342
756.5496	3347
758.9688	3387
761.3893	3344
763.8093	3345
766.2285	3365
768.6451	3344
771.0611	3367
773.4784	3413
775.895	3312
778.3091	3383
780.7244	3326
783.1371	3382
785.5493	3384
787.9626	3346
790.3754	3386
792.7856	3334
795.1951	3360
797.6039	3389
800.0121	3315
802.4236	3276
804.8306	3309
807.2369	3368
809.6425	3371
812.0475	3377
814.4538	3346
816.8575	3409
819.2606	3516
821.663	3440
824.0648	3352
826.4659	3389
828.8683	3424
831.2682	3516
833.6674	3452
836.066	3416
838.4639	3447
840.8632	3455
843.2579	3452
845.6539	3391
848.0493	3436
850.444	3509
852.84	3510
855.2315	3479
857.6243	3485
860.0165	3436
862.4081	3431
864.797	3469
867.1892	3386
869.5789	3389
871.9659	3423
874.3542	3479
876.74	3498
879.129	3512
881.5155	3502
883.8994	3547
886.2845	3435
888.6671	3481
891.051	3472
893.4343	3422
895.8169	3444
898.197	3508
900.5783	3460
902.9571	3401
905.3372	3491
907.7167	3432
910.0936	3421
912.4698	3482
914.8474	3357
917.2244	3577
919.5987	3564
921.9744	3527
924.3475	3527
926.72	3570
929.0918	3572
931.4669	3624
933.8375	3619
936.2074	3673
938.5767	3664
940.9454	3608
943.3154	3681
945.6829	3724
948.0497	3946
950.4178	3862
952.7833	4015
955.1483	4113
957.5145	4188
959.8782	4251
962.2412	4331
964.6036	4141
966.9655	4087
969.3266	3987
971.6871	3780
974.0471	3705
976.4064	3719
978.765	3719
981.125	3572
983.4824	3547
985.8373	3498
988.1935	3569
990.549	3582
992.9039	3537
995.2602	3605
997.6119	3574
999.965	3604
1002.317	3633
1004.667	3535
1007.02	3627
1009.371	3545
1011.719	3632
1014.068	3643
1016.415	3631
1018.765	3676
1021.111	3604
1023.458	3592
1025.804	3640
1028.147	3684
1030.49	3697
1032.837	3629
1035.179	3631
1037.522	3660
1039.862	3722
1042.204	3683
1044.546	3609
1046.884	3630
1049.224	3716
1051.562	3684
1053.899	3708
1056.237	3647
1058.575	3651
1060.91	3706
1063.244	3684
1065.58	3677
1067.913	3727
1070.248	3768
1072.579	3693
1074.911	3692
1077.242	3664
1079.572	3811
1081.905	3801
1084.234	3729
1086.562	3796
1088.89	3617
1091.217	3675
1093.544	3754
1095.871	3626
1098.197	3712
1100.521	3648
1102.845	3669
1105.169	3643
1107.491	3597
1109.814	3668
1112.135	3664
1114.456	3720
1116.776	3610
1119.096	3668
1121.415	3687
1123.734	3666
1126.052	3734
1128.369	3711
1130.686	3659
1133.002	3776
1135.318	3676
1137.632	3727
1139.945	3754
1142.258	3656
1144.573	3771
1146.884	3648
1149.196	3664
1151.505	3739
1153.816	3676
1156.124	3699
1158.435	3772
1160.742	3719
1163.051	3730
1165.356	3706
1167.663	3731
1169.97	3697
1172.276	3750
1174.579	3656
1176.881	3736
1179.186	3691
1181.487	3709
1183.79	3675
1186.092	3719
1188.392	3654
1190.691	3740
1192.991	3785
1195.291	3620
1197.588	3780
1199.885	3728
1202.181	3730
1204.479	3769
1206.775	3729
1209.07	3713
1211.363	3710
1213.656	3749
1215.949	3805
1218.241	3767
1220.534	3692
1222.825	3812
1225.115	3744
1227.405	3870
1229.693	3822
1231.984	3768
1234.271	3777
1236.558	3830
1238.845	3799
1241.131	3799
1243.416	3889
1245.703	3780
1247.987	3940
1250.269	3871
1252.552	3834
1254.834	3817
1257.118	3951
1259.399	3820
1261.678	3801
1263.958	3827
1266.237	3867
1268.516	3802
1270.794	3814
1273.072	3934
1275.347	3806
1277.624	3825
1279.899	3837
1282.175	3881
1284.449	3768
1286.722	3814
1288.995	3792
1291.266	3829
1293.54	3787
1295.81	3892
1298.081	3742
1300.35	3782
1302.62	3777
1304.889	3884
1307.156	3788
1309.425	3848
1311.69	3864
1313.957	3801
1316.222	3814
1318.488	3814
1320.751	3768
1323.016	3916
1325.278	3810
1327.54	3763
1329.803	3805
1332.065	3882
1334.325	3853
1336.584	3848
1338.843	3829
1341.101	3779
1343.36	3795
1345.617	3882
1347.876	3877
1350.131	3839
1352.387	3798
1354.643	3761
1356.897	3787
1359.151	3851
1361.403	3848
1363.656	3819
1365.909	3854
1368.16	3856
1370.409	3905
1372.659	3833
1374.909	3906
1377.157	3799
1379.407	3870
1381.655	3913
1383.9	3920
1386.147	3855
1388.393	3810
1390.64	3891
1392.885	3873
1395.127	3846
1397.37	3935
1399.614	3871
1401.854	3883
1404.098	3817
1406.339	3906
1408.578	3897
1410.818	3938
1413.056	3947
1415.297	3951
1417.533	3975
1419.771	3963
1422.006	3912
1424.243	3861
1426.479	3987
1428.715	3939
1430.948	3881
1433.182	3904
1435.414	3912
1437.647	4046
1439.88	4022
1442.11	4003
1444.342	4041
1446.571	3991
1448.799	3997
1451.029	4060
1453.258	3958
1455.485	3935
1457.711	3994
1459.937	4108
1462.164	4074
1464.39	4029
1466.614	3973
1468.838	3950
1471.06	3941
1473.283	3987
1475.506	3984
1477.727	3902
1479.949	4011
1482.169	3903
1484.389	3873
1486.609	3918
1488.828	3908
1491.045	3882
1493.261	3810
1495.477	3930
1497.693	3921
1499.91	3899
1502.125	3877
1504.339	3849
1506.553	3826
1508.766	3850
1510.979	3873
1513.191	3892
1515.402	3906
1517.613	3935
1519.823	3851
1522.033	3934
1524.242	3904
1526.451	3836
1528.657	3855
1530.865	3894
1533.072	3905
1535.278	3881
1537.484	3865
1539.687	3995
1541.892	3938
1544.096	3889
1546.299	3910
1548.502	3887
1550.703	3910
1552.905	3933
1555.104	3886
1557.303	3906
1559.505	4039
1561.703	3971
1563.902	4013
1566.099	4042
1568.295	4001
1570.494	3984
1572.689	3973
1574.883	4057
1577.079	4002
1579.272	3996
1581.467	3939
1583.659	3978
1585.853	4011
1588.044	4029
1590.234	4036
1592.424	4006
1594.615	3978
1596.806	4043
1598.994	4032
1601.182	3986
1603.369	4091
1605.557	4108
1607.744	3967
1609.929	4095
1612.114	3991
1614.298	4000
1616.482	4014
1618.667	4094
1620.85	4089
1623.032	4020
1625.214	4069
1627.395	4139
1629.575	4043
1631.755	4188
1633.935	4032
1636.114	4069
1638.292	4085
1640.471	4099
1642.647	4169
1644.823	4027
1647	4118
1649.175	4175
1651.348	4015
1653.525	4147
1655.698	4059
1657.87	4216
1660.043	4012
1662.213	4188
1664.387	4191
1666.558	4111
1668.727	4081
1670.896	4077
1673.064	4135
1675.233	4127
1677.401	4140
1679.569	4090
1681.735	4141
1683.902	4151
1686.066	4070
1688.233	4027
1690.397	4148
1692.559	4115
1694.723	4114
1696.885	3976
1699.048	4023
1701.21	4082
1703.37	4043
1705.53	4020
1707.689	4078
1709.849	3896
1712.009	4031
1714.166	4070
1716.323	4025
1718.479	4042
1720.634	4066
1722.793	4028
1724.948	4057
1727.102	4063
1729.255	4011
1731.408	4113
1733.562	4120
1735.714	4064
1737.865	4057
1740.016	3971
1742.166	4049
1744.316	4084
1746.467	4140
1748.616	4179
1750.764	4126
1752.911	4103
1755.056	4081
1757.205	4072
1759.35	4086
1761.496	4003
1763.641	4107
1765.785	4123
1767.927	4028
1770.072	4135
1772.214	4126
1774.355	4037
1776.496	4094
1778.637	4033
1780.778	4129
1782.918	4137
1785.057	4123
1787.194	4151
1789.333	4158
1791.472	4125
1793.608	4109
1795.745	4191
1797.879	4202
1800.015	4176
1802.148	4176
1804.284	4119
1806.417	4149
1808.548	4094
1810.682	4089
1812.812	4177
1814.946	4173
1817.075	4117
1819.205	3996
1821.335	4117
1823.463	4058
1825.59	4233
1827.721	4088
1829.847	4160
1831.973	4189
1834.098	4154
1836.223	4164
1838.351	4082
1840.475	4080
1842.598	4079
1844.721	4142
1846.843	4094
1848.966	4034
1851.087	4274
1853.21	4100
1855.33	4025
1857.449	4097
1859.568	4141
1861.688	4088
1863.806	4148
1865.924	4051
1868.039	4081
1870.155	4139
1872.273	4191
1874.388	4102
1876.503	4144
1878.617	4134
1880.73	4012
1882.844	4107
1884.956	4142
1887.068	4112
1889.18	4044
1891.291	4143
1893.4	4170
1895.511	4194
1897.621	4255
1899.73	4214
1901.837	4234
1903.944	4165
1906.053	4058
1908.159	4128
1910.265	4195
1912.369	4265
1914.474	4237
1916.577	4255
1918.683	4193
1920.785	4205
1922.888	4133
1924.989	4164
1927.091	4173
1929.193	4236
1931.294	4218
1933.393	4170
1935.493	4161
1937.59	4178
1939.689	4270
1941.788	4075
1943.884	4191
1945.98	4256
1948.077	4174
1950.171	4252
1952.267	4207
1954.361	4281
1956.455	4198
1958.548	4187
1960.64	4215
1962.733	4262
1964.824	4270
1966.915	4207
1969.005	4159
1971.096	4159
1973.185	4225
1975.275	4219
1977.363	4245
1979.45	4149
1981.537	4272
1983.623	4167
1985.711	4206
1987.796	4232
1989.881	4146
1991.965	4279
1994.047	4197
1996.132	4219
1998.215	4125
2000.297	4271
2002.378	4260
2004.46	4164
2006.54	4197
2008.62	4306
2010.7	4214
2012.779	4181
2014.858	4162
2016.934	4178
2019.013	4116
2021.09	4145
2023.165	4182
2025.241	4210
2027.317	4112
2029.39	4138
2031.466	4185
2033.538	4168
2035.612	4109
2037.683	4270
2039.755	4081
2041.827	4220
2043.898	4207
2045.968	4137
2048.038	4232
2050.106	4193
2052.177	4172
2054.244	4156
2056.313	4244
2058.379	4220
2060.444	4141
2062.511	4188
2064.577	4294
2066.641	4181
2068.705	4217
2070.77	4186
2072.832	4147
2074.896	4231
2076.958	4257
2079.02	4130
2081.081	4135
2083.141	4234
2085.2	4121
2087.261	4311
2089.319	4259
2091.377	4253
2093.435	4204
2095.492	4196
2097.552	4275
2099.607	4107
2101.663	4226
2103.718	4242
2105.771	4167
2107.826	4263
2109.879	4114
2111.932	4213
2113.985	4249
2116.037	4202
2118.088	4219
2120.141	4170
2122.191	4216
2124.239	4222
2126.288	4203
2128.337	4213
2130.387	4206
2132.434	4204
2134.481	4213
2136.528	4311
2138.574	4188
2140.618	4216
2142.665	4189
2144.71	4182
2146.753	4222
2148.797	4202
2150.838	4193
2152.883	4128
2154.923	4220
2156.965	4231
2159.007	4186
2161.046	4130
2163.086	4143
2165.126	4209
2167.163	4293
2169.202	4239
2171.239	4251
2173.277	4175
2175.314	4149
2177.349	4081
2179.385	4135
2181.42	4234
2183.453	4173
2185.49	4142
2187.522	4192
2189.555	4224
2191.586	4229
2193.619	4176
2195.651	4165
2197.682	4216
2199.711	4085
2201.74	4130
2203.769	4185
2205.799	4088
2207.828	4142
2209.855	4189
2211.882	4175
2213.908	4175
2215.934	4168
2217.961	4075
2219.986	4141
2222.01	4174
2224.034	4109
2226.057	4107
2228.08	4218
2230.104	4102
2232.124	4084
2234.145	4196
2236.166	4156
2238.186	4135
2240.207	4234
2242.227	4160
2244.244	4133
2246.262	4181
2248.28	4214
2250.299	4161
2252.314	4116
2254.33	4203
2256.346	4212
2258.36	4137
2260.375	4145
2262.391	4146
2264.403	4128
2266.416	4128
2268.427	4163
2270.44	4237
2272.453	4207
2274.463	4197
2276.474	4132
2278.483	4185
2280.493	4074
2282.501	4186
2284.51	4173
2286.518	4225
2288.524	4140
2290.532	4165
2292.537	4153
2294.544	4177
2296.55	4221
2298.554	4105
2300.557	4157
2302.562	4170
2304.566	4195
2306.568	4165
2308.569	4063
2310.572	4228
2312.573	4215
2314.573	4166
2316.574	4170
2318.573	4244
2320.571	4202
2322.571	4172
2324.569	4169
2326.567	4188
2328.564	4119
2330.56	4151
2332.556	4093
2334.551	4112
2336.546	4152
2338.542	4163
2340.535	4106
2342.529	4133
2344.521	4184
2346.512	4159
2348.505	4109
2350.497	4173
2352.487	4167
2354.478	4097
2356.468	4113
2358.457	4167
2360.446	4023
2362.434	4180
2364.422	4146
2366.408	4027
2368.395	4103
2370.383	4057
2372.369	4060
2374.353	4086
2376.338	4051
2378.321	4043
2380.307	4164
2382.29	4068
2384.272	4073
2386.254	4058
2388.235	4152
2390.218	4112
2392.198	4052
2394.179	4077
2396.157	4027
2398.137	3996
2400.115	4148
2402.095	4161
2404.072	4025
2406.048	4064
2408.026	4094
2410.001	4035
2411.977	4152
2413.953	4106
2415.927	4073
2417.9	4130
2419.875	4091
2421.847	4126
2423.821	4062
2425.792	4020
2427.763	3985
2429.736	4041
2431.706	4105
2433.677	4121
2435.646	4031
2437.615	4126
2439.583	4076
2441.551	4118
2443.519	4016
2445.486	4048
2447.452	4076
2449.418	4053
2451.383	4101
2453.348	4004
2455.314	4077
2457.278	4125
2459.241	4100
2461.205	4165
2463.167	4057
2465.131	4091
2467.091	4013
2469.052	4014
2471.012	4016
2472.972	4027
2474.932	3988
2476.891	4147
2478.85	4009
2480.808	4112
2482.766	4093
2484.722	4069
2486.68	4019
2488.636	4006
2490.591	4019
2492.546	4055
2494.5	3940
2496.456	4030
2498.41	3988
2500.362	3929
2502.315	3990
2504.266	4030
2506.218	3999
2508.169	4039
2510.121	4033
2512.07	4077
2514.019	3977
2515.968	4016
2517.918	4061
2519.866	4015
2521.813	4115
2523.76	3950
2525.707	3992
2527.653	4085
2529.599	4033
2531.543	4047
2533.489	4064
2535.433	4008
2537.376	3967
2539.32	4079
2541.264	4018
2543.205	3990
2545.147	4055
2547.087	4034
2549.029	3940
2550.969	4080
2552.908	4006
2554.847	4068
2556.786	4052
2558.724	3994
2560.663	3956
2562.6	4026
2564.537	3970
2566.473	4013
2568.408	4050
2570.345	4042
2572.28	4034
2574.214	3990
2576.148	4038
2578.081	4030
2580.014	4044
2581.947	4058
2583.879	4002
2585.81	4035
2587.741	4028
2589.67	4019
2591.602	4036
2593.532	3950
2595.461	3997
2597.388	4006
2599.316	3986
2601.244	4073
2603.172	4043
2605.098	3935
2607.023	4060
2608.949	3990
2610.873	4095
2612.8	4077
2614.723	4101
2616.647	4150
2618.569	4105
2620.493	4022
2622.416	4035
2624.338	4027
2626.258	4031
2628.179	4067
2630.099	4087
2632.019	4034
2633.939	4041
2635.857	4052
2637.775	4091
2639.694	4028
2641.61	4168
2643.528	4085
2645.444	3969
2647.361	4045
2649.276	3983
2651.19	4106
2653.105	4059
2655.019	4056
2656.934	4117
2658.846	3998
2660.758	4075
2662.67	4040
2664.583	4031
2666.493	4008
2668.404	4017
2670.313	3992
2672.223	4003
2674.134	3944
2676.042	4070
2677.95	3953
2679.858	4093
2681.765	3930
2683.673	4064
2685.579	3986
2687.483	4010
2689.389	4032
2691.294	4051
2693.198	3922
2695.104	4049
2697.006	4102
2698.909	4089
2700.811	4014
2702.713	3981
2704.615	4054
2706.516	4060
2708.417	3996
2710.316	4026
2712.216	3986
2714.115	3970
2716.014	3976
2717.913	4085
2719.81	4046
2721.707	4058
2723.603	4055
2725.501	3984
2727.396	3980
2729.292	4054
2731.186	4019
2733.081	4065
2734.976	3995
2736.87	4047
2738.762	3981
2740.653	3941
2742.546	4017
2744.437	3945
2746.329	4013
2748.22	3999
2750.11	3989
2751.999	4024
2753.889	4055
2755.778	3976
2757.666	4061
2759.553	4007
2761.44	3981
2763.328	3962
2765.215	3997
2767.101	4003
2768.986	4011
2770.87	3880
2772.754	3962
2774.638	3940
2776.523	3943
2778.405	3995
2780.288	3951
2782.17	3935
2784.051	3995
2785.934	3977
2787.814	3992
2789.694	3953
2791.574	3979
2793.453	3904
2795.332	4034
2797.212	3951
2799.088	3935
2800.966	3966
2802.843	3953
2804.719	4003
2806.597	3999
2808.471	3992
2810.346	3972
2812.221	4030
2814.094	3961
2815.969	3912
2817.843	3995
2819.714	4103
2821.587	3861
2823.459	4002
2825.329	3957
2827.202	4034
2829.072	3894
2830.942	3960
2832.811	3916
2834.68	3970
2836.549	3924
2838.418	3872
2840.284	3984
2842.152	4008
2844.018	3932
2845.885	3961
2847.751	3971
2849.616	4024
2851.482	3915
2853.345	3996
2855.208	3903
2857.074	3982
2858.937	3941
2860.799	3965
2862.66	3992
2864.522	3988
2866.385	4033
2868.245	4014
2870.104	4077
2871.964	4051
2873.824	4062
2875.683	4137
2877.542	4098
2879.4	4173
2881.257	4119
2883.114	4100
2884.97	4183
2886.827	4038
2888.683	4209
2890.537	4084
2892.392	4091
2894.246	4130
2896.1	4099
2897.954	4121
2899.807	4096
2901.66	4112
2903.51	4136
2905.362	4151
2907.214	4153
2909.065	4121
2910.915	4196
2912.765	4192
2914.613	4073
2916.463	4122
2918.311	4246
2920.158	4216
2922.006	4261
2923.853	4274
2925.698	4195
2927.546	4318
2929.392	4259
2931.236	4324
2933.081	4270
2934.924	4401
2936.77	4413
2938.613	4393
2940.455	4424
2942.298	4438
2944.139	4384
2945.982	4457
2947.823	4422
2949.662	4414
2951.503	4377
2953.342	4308
2955.182	4318
2957.021	4327
2958.858	4307
2960.697	4284
2962.534	4309
2964.37	4219
2966.207	4245
2968.044	4147
2969.879	4236
2971.714	4113
2973.548	4139
2975.383	4162
2977.218	4140
2979.051	4206
2980.883	4172
2982.715	4194
2984.547	4184
2986.379	4137
2988.21	4129
2990.04	4039
2991.87	4125
2993.7	4106
2995.53	3982
2997.359	4035
2999.187	4059
3001.015	3890
3002.842	4000
3004.669	4041
3006.497	3940
3008.323	3913
3010.148	3952
3011.974	3967
3013.797	3953
3015.623	3906
3017.447	3908
3019.27	3892
3021.094	3827
3022.915	3823
3024.737	3876
3026.56	3779
3028.38	3878
3030.201	3839
3032.022	3834
3033.84	3772
3035.662	3802
3037.481	3838
3039.298	3825
3041.117	3863
3042.933	3892
3044.752	3847
3046.568	3803
3048.385	3784
3050.2	3847
3052.016	3715
3053.83	3780
3055.646	3826
3057.46	3792
3059.272	3776
3061.086	3783
3062.898	3779
3064.711	3787
3066.524	3798
3068.335	3821
3070.145	3800
3071.956	3799
3073.766	3771
3075.576	3804
3077.385	3770
3079.193	3799
3081.002	3703
3082.81	3718
3084.618	3674
3086.425	3803
3088.231	3681
3090.036	3775
3091.842	3826
3093.648	3706
3095.452	3678
3097.257	3724
3099.06	3651
3100.863	3657
3102.666	3632
3104.47	3653
3106.272	3728
3108.073	3648
3109.875	3653
3111.676	3660
3113.477	3633
3115.277	3678
3117.077	3734
3118.874	3626
3120.673	3687
3122.473	3650
3124.271	3727
3126.066	3622
3127.863	3655
3129.66	3684
3131.456	3673
3133.252	3756
3135.047	3681
3136.842	3698
3138.635	3694
3140.429	3723
3142.223	3574
3144.016	3703
3145.808	3669
3147.6	3600
3149.392	3608
3151.183	3580
3152.975	3627
3154.765	3584
3156.553	3614
3158.344	3609
3160.132	3648
3161.922	3580
3163.71	3567
3165.497	3632
3167.285	3632
3169.071	3628
3170.858	3613
3172.645	3618
3174.429	3551
3176.214	3627
3177.998	3574
3179.783	3610
3181.568	3605
3183.351	3646
3185.133	3614
3186.915	3626
3188.698	3513
3190.481	3594
3192.261	3468
3194.042	3545
3195.822	3602
3197.601	3635
3199.381	3541
3201.161	3616
3202.939	3542
3204.717	3584
3206.495	3619
3208.272	3532
3210.05	3578
3211.826	3569
3213.602	3494
3215.376	3619
3217.151	3548
3218.927	3559
3220.702	3505
3222.476	3557
3224.249	3603
3226.021	3615
3227.793	3635
3229.567	3594
3231.339	3474
3233.109	3537
3234.88	3560
3236.651	3552
3238.421	3549
3240.191	3565
3241.96	3500
3243.728	3590
3245.497	3516
3247.263	3529
3249.033	3558
3250.799	3545
3252.566	3555
3254.331	3524
3256.097	3504
3257.863	3498
3259.628	3560
3261.392	3587
3263.156	3588
3264.919	3531
3266.683	3534
3268.447	3583
3270.208	3596
3271.969	3462
3273.731	3632
3275.492	3604
3277.253	3520
3279.013	3525
3280.773	3598
3282.532	3459
3284.291	3549
3286.05	3587
3287.808	3548
3289.566	3621
3291.323	3539
3293.079	3618
3294.835	3515
3296.593	3514
3298.348	3504
3300.102	3529
3301.857	3539
3303.611	3583
3305.366	3573
3307.119	3541
3308.872	3492
3310.624	3492
3312.376	3623
3314.129	3572
3315.881	3532
3317.631	3533
3319.38	3535
3321.13	3505
3322.88	3555
3324.631	3534
3326.379	3585
3328.126	3520
3329.875	3467
3331.622	3554
3333.371	3545
3335.116	3579
3336.863	3501
3338.609	3499
3340.353	3570
3342.1	3542
3343.845	3526
3345.588	3443
3347.332	3473
3349.074	3515
3350.817	3519
3352.56	3591
3354.303	3575
3356.043	3494
3357.785	3546
3359.525	3418
3361.268	3519
3363.007	3566
3364.745	3443
3366.485	3490
3368.223	3450
3369.962	3531
3371.701	3462
3373.438	3453
3375.174	3559
3376.911	3497
3378.647	3544
3380.384	3545
3382.118	3437
3383.854	3398
3385.588	3470
3387.322	3547
3389.057	3497
3390.79	3437
3392.522	3536
3394.255	3526
3395.987	3411
3397.719	3534
3399.451	3414
3401.181	3460
3402.911	3499
3404.641	3499
3406.371	3384
3408.101	3413
3409.83	3450
3411.558	3421
3413.285	3337
3415.011	3443
3416.739	3518
3418.467	3440
3420.193	3516
3421.919	3384
3423.644	3408
3425.368	3436
3427.094	3480
3428.818	3424
3430.542	3429
3432.264	3436
3433.987	3392
3435.712	3425
3437.434	3456
3439.155	3412
3440.876	3451
3442.596	3288
3444.317	3420
3446.039	3314
3447.757	3338
3449.477	3343
3451.195	3351
3452.914	3409
3454.632	3391
3456.35	3404
3458.067	3354
3459.784	3349
3461.5	3396
3463.216	3356
3464.932	3354
3466.647	3340
3468.362	3344
3470.076	3329
3471.789	3337
3473.505	3336
3475.217	3273
3476.929	3366
3478.641	3383
3480.354	3294
3482.066	3341
3483.777	3345
3485.487	3350
3487.197	3332
3488.908	3295
3490.617	3307
3492.327	3345
3494.035	3306
3495.743	3262
3497.451	3274
3499.158	3389
3500.866	3273
3502.572	3313
3504.278	3276
3505.984	3249
3507.689	3325
3509.396	3241
3511.1	3275
3512.804	3301
3514.508	3240
3516.211	3297
3517.913	3199
3519.616	3318
3521.319	3249
3523.021	3273
3524.722	3232
3526.422	3246
3528.124	3297
3529.824	3286
3531.524	3197
3533.222	3251
3534.921	3231
3536.62	3227
3538.318	3189
3540.016	3247
3541.714	3230
3543.41	3296
3545.107	3152
3546.803	3221
3548.5	3189
3550.194	3231
3551.889	3175
3553.583	3159
3555.279	3222
3556.972	3242
3558.666	3160
3560.358	3233
3562.051	3267
3563.742	3190
3565.435	3108
3567.126	3210
3568.817	3198
3570.507	3184
3572.197	3220
3573.888	3255
3575.577	3198
3577.265	3165
3578.954	3226
3580.642	3126
3582.329	3128
3584.017	3146
3585.704	3208
3587.391	3122
3589.077	3143
3590.762	3140
3592.449	3187
3594.133	3142
3595.817	3059
3597.501	3162
3599.185	3156
3600.869	3105
3602.552	3076
3604.234	3045
3605.916	3162
3607.598	3134
3609.279	3175
3610.961	3164
3612.642	3147
3614.321	3154
3616	3106
3617.68	3083
3619.36	3093
3621.039	3063
3622.716	3126
3624.394	3057
3626.071	3077
3627.748	3165
3629.425	3118
3631.102	3100
3632.778	3103
3634.452	3097
3636.127	3076
3637.803	3034
3639.477	3080
3641.151	3125
3642.823	3096
3644.497	3018
3646.171	3023
3647.842	3145
3649.515	2988
3651.185	2992
3652.857	3093
3654.527	3026
3656.198	2992
3657.868	3007
3659.537	3070
3661.207	3091
3662.875	3006
3664.544	3055
3666.212	3037
3667.879	3021
3669.546	2959
3671.212	3023
3672.88	2986
3674.546	2960
3676.211	2976
3677.875	2941
3679.541	3008
3681.205	2951
3682.87	3069
3684.533	3018
3686.196	2997
3687.859	2958
3689.521	2974
3691.184	2972
3692.845	3010
3694.507	2943
3696.167	2953
3697.827	2971
3699.487	3001
3701.148	3012
3702.808	2955
3704.466	3010
3706.125	3020
3707.783	3018
3709.442	2942
3711.099	2910
3712.757	3004
3714.412	2993
3716.068	2993
3717.725	2992
3719.381	2992
3721.036	3010
3722.689	2968
3724.344	2962
3725.998	2964
3727.652	3002
3729.305	3002
3730.958	2913
3732.61	2982
3734.262	2898
3735.915	2937
3737.565	2929
3739.217	2951
3740.866	2890
3742.516	2877
3744.165	2983
3745.816	2950
3747.464	2994
3749.113	2927
3750.761	2859
3752.409	2889
3754.057	2936
3755.703	2895
3757.35	2873
3758.996	2965
3760.641	2978
3762.289	2929
3763.933	2932
3765.577	2952
3767.222	2874
3768.865	2893
3770.508	2894
3772.152	2844
3773.796	2908
3775.438	2892
3777.079	2935
3778.721	2890
3780.363	2894
3782.003	2900
3783.643	2823
3785.283	2946
3786.923	2841
3788.563	2865
3790.203	2921
3791.841	2826
3793.479	2899
3795.115	2934
3796.753	2872
3798.391	2884
3800.027	2854
3801.664	2864
3803.299	2857
3804.935	2855
3806.571	2827
3808.206	2862
3809.839	2761
3811.473	2913
3813.107	2836
3814.74	2797
3816.375	2798
3818.006	2757
3819.638	2876
3821.27	2912
3822.9	2744
3824.532	2815
3826.163	2866
3827.792	2825
3829.423	2856
3831.051	2788
3832.682	2854
3834.311	2806
3835.938	2841
3837.566	2801
3839.193	2850
3840.821	2703
3842.448	2823
3844.075	2745
3845.7	2756
3847.325	2735
3848.951	2793
3850.576	2821
3852.201	2802
3853.825	2791
3855.448	2838
3857.072	2768
3858.694	2827
3860.318	2798
3861.939	2780
3863.562	2768
3865.183	2761
3866.804	2750
3868.426	2747
3870.045	2796
3871.666	2721
3873.285	2777
3874.904	2711
3876.524	2735
3878.142	2792
3879.76	2794
3881.378	2778
3882.995	2689
3884.612	2724
3886.229	2713
3887.845	2835
3889.461	2778
3891.076	2725
3892.691	2747
3894.307	2771
3895.922	2695
3897.536	2806
3899.149	2732
3900.761	2742
3902.374	2716
3903.988	2726
3905.6	2746
3907.212	2750
3908.822	2723
3910.433	2764
3912.045	2730
3913.655	2759
3915.265	2693
3916.875	2698
3918.483	2709
3920.093	2732
3921.702	2703
3923.309	2703
3924.917	2737
3926.523	2666
3928.13	2716
3929.739	2673
3931.344	2699
3932.95	2700
3934.555	2750
3936.159	2734
3937.766	2734
3939.369	2685
3940.974	2637
3942.577	2708
3944.181	2715
3945.783	2693
3947.386	2755
3948.989	2698
3950.59	2681
3952.191	2648
3953.791	2689
3955.394	2706
3956.994	2733
3958.593	2689
3960.192	2673
3961.791	2663
3963.392	2676
3964.99	2725
3966.588	2627
3968.185	2632
3969.782	2689
3971.379	2616
3972.976	2708
3974.572	2573
3976.168	2597
3977.763	2574
3979.358	2655
3980.954	2681
3982.548	2594
3984.142	2706
3985.736	2582
3987.329	2668
3988.922	2624
3990.516	2641
3992.108	2641
3993.698	2664
3995.29	2628
3996.881	2609
3998.473	2599
4000.064	2600
4001.653	2602
4003.242	2563
4004.832	2556
4006.422	2570
4008.01	2599
4009.598	2615
4011.186	2577
4012.773	2618
4014.36	2596
4015.947	2629
4017.534	2549
4019.119	2560
4020.705	2565
4022.291	2575
4023.876	2622
4025.461	2542
4027.044	2604
4028.627	2614
4030.211	2515
4031.795	2566
4033.378	2552
4034.96	2535
4036.542	2525
4038.124	2540
4039.704	2485
4041.286	2494
4042.867	2521
4044.447	2519
4046.026	2512
4047.606	2600
4049.187	2558
4050.765	2498
4052.343	2556
4053.92	2554
4055.498	2432
4057.076	2480
4058.654	2544
4060.23	2572
4061.806	2480
4063.381	2554
4064.957	2447
4066.533	2494
4068.107	2564
4069.682	2490
4071.256	2496
4072.829	2466
4074.404	2525
4075.977	2428
4077.549	2591
4079.121	2478
4080.693	2462
4082.265	2478
4083.836	2460
4085.407	2456
4086.977	2461
4088.547	2478
4090.117	2491
4091.687	2492
4093.256	2501
4094.825	2512
4096.392	2505
4097.96	2454
4099.528	2428
4101.097	2489
4102.663	2436
4104.229	2425
4105.795	2388
4107.361	2438
4108.928	2476
4110.493	2425
4112.058	2480
4113.621	2355
4115.186	2439
4116.75	2450
4118.313	2424
4119.876	2401
4121.438	2396
4123	2474
4124.562	2439
4126.125	2388
4127.686	2534
4129.246	2413
4130.807	2464
4132.367	2441
4133.927	2383
4135.486	2428
4137.046	2356
4138.604	2398
4140.162	2415
4141.72	2453
4143.279	2357
4144.836	2372
4146.393	2411
4147.949	2353
4149.505	2431
4151.062	2401
4152.617	2396
4154.172	2441
4155.727	2354
4157.281	2421
4158.836	2318
4160.39	2417
4161.943	2431
4163.496	2390
4165.048	2379
4166.601	2407
4168.154	2401
4169.706	2377
4171.257	2344
4172.808	2411
4174.358	2373
4175.909	2336
4177.458	2298
4179.008	2376
4180.558	2349
4182.106	2321
4183.655	2382
4185.204	2383
4186.751	2355
4188.298	2290
4189.845	2321
4191.392	2261
4192.939	2293
4194.485	2351
4196.031	2359
4197.576	2349
4199.121	2350
4200.666	2317
4202.211	2325
4203.754	2342
4205.298	2315
4206.84	2322
4208.384	2311
4209.927	2344
4211.47	2274
4213.011	2336
4214.552	2254
4216.094	2292
4217.635	2332
4219.175	2312
4220.716	2295
4222.255	2347
4223.793	2285
4225.335	2273
4226.873	2282
4228.411	2315
4229.948	2287
4231.486	2254
4233.024	2270
4234.562	2274
4236.098	2306
4237.634	2303
4239.169	2270
4240.705	2349
4242.241	2266
4243.776	2240
4245.31	2242
4246.844	2274
4248.378	2260
4249.911	2280
4251.445	2235
4252.978	2275
4254.51	2283
4256.042	2272
4257.574	2278
4259.107	2224
4260.638	2272
4262.169	2233
4263.699	2227
4265.228	2251
4266.759	2229
4268.289	2230
4269.818	2281
4271.345	2203
4272.874	2265
4274.402	2220
4275.931	2220
4277.458	2273
4278.985	2231
4280.512	2269
4282.037	2224
4283.564	2241
4285.089	2223
4286.615	2252
4288.139	2235
4289.664	2211
4291.187	2212
4292.712	2205
4294.235	2221
4295.759	2252
4297.281	2223
4298.804	2241
4300.327	2199
4301.849	2236
4303.37	2266
4304.891	2162
4306.412	2259
4307.933	2241
4309.453	2176
4310.973	2197
4312.492	2228
