398.1873	2853
400.7097	2895
403.2336	2850
405.7547	2923
408.2751	2964
410.7948	2952
413.3138	2942
415.83	2952
418.3497	2934
420.8666	3058
423.3829	3083
425.8985	3059
428.4133	3101
430.9275	3120
433.441	3096
435.9538	3093
438.4639	3121
440.9753	3157
443.4881	3087
445.9982	3071
448.5055	3112
451.0142	3088
453.5201	3091
456.0274	3090
458.5361	3023
461.04	3114
463.5453	3134
466.0478	3030
468.5517	3006
471.0549	3044
473.5574	3100
476.0572	3059
478.5584	3060
481.0568	3111
483.5545	3115
486.0557	3050
488.5521	3147
491.0478	3138
493.5449	3179
496.0392	3128
498.5349	3153
501.0299	3152
503.5222	3151
506.0139	3119
508.5048	3173
510.9991	3175
513.4887	3133
515.9777	3179
518.4659	3194
520.9534	3208
523.4403	3236
525.9306	3153
528.4161	3172
530.9009	3179
533.3851	3187
535.8687	3190
538.3535	3162
540.8356	3267
543.3171	3192
545.7979	3204
548.278	3181
550.7595	3214
553.2383	3205
555.7144	3208
558.1918	3202
560.6685	3125
563.1446	3278
565.6221	3204
568.0968	3251
570.5688	3266
573.0422	3326
575.515	3283
577.989	3328
580.4584	3378
582.9291	3417
585.3991	3205
587.8685	3292
590.3352	3344
592.8052	3296
595.2706	3329
597.7372	3356
600.2033	3271
602.6666	3245
605.1334	3313
607.5953	3249
610.0587	3249
612.5193	3291
614.9814	3340
617.4427	3313
619.9034	3264
622.3615	3309
624.8208	3301
627.2775	3241
629.7335	3234
632.1929	3249
634.6476	3290
637.1016	3208
639.5569	3286
642.0096	3241
644.4637	3312
646.9151	3377
649.3678	3307
651.8179	3235
654.2672	3358
656.7159	3385
659.166	3303
661.6154	3321
664.0622	3318
666.5082	3437
668.9537	3382
671.4005	3334
673.8445	3370
676.288	3322
678.7308	3396
681.1729	3324
683.6163	3415
686.0572	3371
688.4973	3347
690.9368	3372
693.3757	3346
695.8138	3322
698.2534	3426
700.6902	3352
703.1245	3445
705.56	3487
707.9949	3491
710.4311	3426
712.8647	3434
715.2957	3406
717.7279	3469
720.1595	3411
722.5905	3396
725.0208	3460
727.4505	3456
729.8795	3449
732.3058	3445
734.7336	3456
737.1626	3452
739.587	3468
742.0128	3478
744.4359	3558
746.8604	3579
749.2841	3647
751.7073	3516
754.1278	3563
756.5496	3572
758.9688	3533
761.3893	3587
763.8093	3602
766.2285	3532
768.6451	3597
771.0611	3703
773.4784	3575
775.895	3562
778.3091	3550
780.7244	3670
783.1371	3686
785.5493	3614
787.9626	3542
790.3754	3604
792.7856	3653
795.1951	3642
797.6039	3612
800.0121	3604
802.4236	3569
804.8306	3631
807.2369	3570
809.6425	3644
812.0475	3668
814.4538	3705
816.8575	3718
819.2606	3640
821.663	3728
824.0648	3761
826.4659	3643
828.8683	3606
831.2682	3640
833.6674	3629
836.066	3708
838.4639	3699
840.8632	3634
843.2579	3647
845.6539	3697
848.0493	3680
850.444	3728
852.84	3767
855.2315	3762
857.6243	3668
860.0165	3786
862.4081	3711
864.797	3814
867.1892	3676
869.5789	3756
871.9659	3673
874.3542	3785
876.74	3694
879.129	3741
881.5155	3736
883.8994	3668
886.2845	3731
888.6671	3782
891.051	3773
893.4343	3718
895.8169	3712
898.197	3761
900.5783	3772
902.9571	3799
905.3372	3738
907.7167	3812
910.0936	3830
912.4698	3803
914.8474	3805
917.2244	3745
919.5987	3846
921.9744	3799
924.3475	3799
926.72	3962
929.0918	3930
931.4669	3874
933.8375	3930
936.2074	3913
938.5767	3964
940.9454	4040
943.3154	4122
945.6829	4048
948.0497	4081
950.4178	4244
952.7833	4514
955.1483	4641
957.5145	4744
959.8782	4843
962.2412	4899
964.6036	4805
966.9655	4509
969.3266	4352
971.6871	4239
974.0471	4105
976.4064	4019
978.765	3954
981.125	3971
983.4824	3933
985.8373	3915
988.1935	3883
990.549	3722
992.9039	3882
995.2602	3887
997.6119	3907
999.965	3890
1002.317	3894
1004.667	3834
1007.02	3912
1009.371	3948
1011.719	3962
1014.068	3796
1016.415	3924
1018.765	3905
1021.111	3936
1023.458	3882
1025.804	3882
1028.147	3880
1030.49	3948
1032.837	3865
1035.179	3934
1037.522	3979
1039.862	3900
1042.204	3953
1044.546	3977
1046.884	3999
1049.224	3934
1051.562	3962
1053.899	3971
1056.237	4005
1058.575	4020
1060.91	3992
1063.244	4110
1065.58	4043
1067.913	4070
1070.248	4046
1072.579	4026
1074.911	4044
1077.242	4080
1079.572	4027
1081.905	4051
1084.234	3929
1086.562	4020
1088.89	3968
1091.217	4007
1093.544	3981
1095.871	3993
1098.197	3970
1100.521	3996
1102.845	4019
1105.169	3966
1107.491	4041
1109.814	3949
1112.135	3999
1114.456	3931
1116.776	3926
1119.096	3906
1121.415	3950
1123.734	3998
1126.052	4039
1128.369	3934
1130.686	3933
1133.002	3973
1135.318	3990
1137.632	4013
1139.945	3964
1142.258	3991
1144.573	4044
1146.884	4034
1149.196	3950
1151.505	3961
1153.816	4009
1156.124	4028
1158.435	3895
1160.742	3946
1163.051	4031
1165.356	4005
1167.663	4018
1169.97	3931
1172.276	3957
1174.579	4027
1176.881	4042
1179.186	4024
1181.487	4056
1183.79	4073
1186.092	3999
1188.392	3941
1190.691	3962
1192.991	3969
1195.291	3997
1197.588	4048
1199.885	4038
1202.181	4057
1204.479	3948
1206.775	4012
1209.07	3955
1211.363	4095
1213.656	4051
1215.949	3956
1218.241	4006
1220.534	3980
1222.825	3984
1225.115	3995
1227.405	4071
1229.693	4081
1231.984	4025
1234.271	4081
1236.558	4089
1238.845	4127
1241.131	4182
1243.416	4185
1245.703	4113
1247.987	4168
1250.269	4200
1252.552	4200
1254.834	4208
1257.118	4259
1259.399	4110
1261.678	4052
1263.958	4112
1266.237	4096
1268.516	4179
1270.794	4137
1273.072	4205
1275.347	4150
1277.624	4180
1279.899	4185
1282.175	4119
1284.449	4054
1286.722	4092
1288.995	4107
1291.266	4096
1293.54	4151
1295.81	4092
1298.081	4136
1300.35	4137
1302.62	4054
1304.889	4130
1307.156	4161
1309.425	4053
1311.69	4142
1313.957	4116
1316.222	4067
1318.488	4129
1320.751	4098
1323.016	4017
1325.278	4040
1327.54	4160
1329.803	4095
1332.065	4157
1334.325	4160
1336.584	4059
1338.843	4093
1341.101	4088
1343.36	4124
1345.617	4060
1347.876	4094
1350.131	4072
1352.387	4098
1354.643	4114
1356.897	4164
1359.151	4080
1361.403	4071
1363.656	4079
1365.909	4152
1368.16	4126
1370.409	4174
1372.659	4123
1374.909	4158
1377.157	4153
1379.407	4137
1381.655	4147
1383.9	4180
1386.147	4168
1388.393	4230
1390.64	4172
1392.885	4262
1395.127	4165
1397.37	4239
1399.614	4122
1401.854	4169
1404.098	4207
1406.339	4210
1408.578	4243
1410.818	4158
1413.056	4334
1415.297	4222
1417.533	4372
1419.771	4194
1422.006	4213
1424.243	4239
1426.479	4180
1428.715	4252
1430.948	4265
1433.182	4300
1435.414	4256
1437.647	4268
1439.88	4295
1442.11	4325
1444.342	4391
1446.571	4318
1448.799	4267
1451.029	4328
1453.258	4359
1455.485	4336
1457.711	4388
1459.937	4276
1462.164	4298
1464.39	4296
1466.614	4275
1468.838	4266
1471.06	4372
1473.283	4209
1475.506	4237
1477.727	4175
1479.949	4113
1482.169	4162
1484.389	4195
1486.609	4150
1488.828	4213
1491.045	4172
1493.261	4150
1495.477	4174
1497.693	4245
1499.91	4171
1502.125	4183
1504.339	4157
1506.553	4097
1508.766	4179
1510.979	4140
1513.191	4164
1515.402	4125
1517.613	4181
1519.823	4130
1522.033	4147
1524.242	4113
1526.451	4159
1528.657	4093
1530.865	4248
1533.072	4116
1535.278	4109
1537.484	4123
1539.687	4196
1541.892	4206
1544.096	4161
1546.299	4184
1548.502	4220
1550.703	4188
1552.905	4165
1555.104	4212
1557.303	4330
1559.505	4289
1561.703	4236
1563.902	4269
1566.099	4193
1568.295	4256
1570.494	4198
1572.689	4328
1574.883	4196
1577.079	4239
1579.272	4314
1581.467	4229
1583.659	4341
1585.853	4396
1588.044	4256
1590.234	4389
1592.424	4196
1594.615	4272
1596.806	4287
1598.994	4401
1601.182	4360
1603.369	4296
1605.557	4239
1607.744	4371
1609.929	4417
1612.114	4288
1614.298	4352
1616.482	4256
1618.667	4266
1620.85	4331
1623.032	4305
1625.214	4284
1627.395	4286
1629.575	4290
1631.755	4360
1633.935	4351
1636.114	4304
1638.292	4387
1640.471	4407
1642.647	4425
1644.823	4406
1647	4366
1649.175	4397
1651.348	4421
1653.525	4368
1655.698	4382
1657.87	4334
1660.043	4455
1662.213	4383
1664.387	4466
1666.558	4390
1668.727	4433
1670.896	4412
1673.064	4424
1675.233	4433
1677.401	4450
1679.569	4414
1681.735	4481
1683.902	4453
1686.066	4281
1688.233	4509
1690.397	4448
1692.559	4364
1694.723	4413
1696.885	4311
1699.048	4385
1701.21	4386
1703.37	4320
1705.53	4416
1707.689	4329
1709.849	4321
1712.009	4314
1714.166	4390
1716.323	4353
1718.479	4398
1720.634	4402
1722.793	4389
1724.948	4395
1727.102	4316
1729.255	4366
1731.408	4354
1733.562	4402
1735.714	4230
1737.865	4374
1740.016	4411
1742.166	4362
1744.316	4346
1746.467	4415
1748.616	4310
1750.764	4381
1752.911	4365
1755.056	4392
1757.205	4319
1759.35	4426
1761.496	4309
1763.641	4479
1765.785	4355
1767.927	4409
1770.072	4391
1772.214	4488
1774.355	4384
1776.496	4450
1778.637	4425
1780.778	4307
1782.918	4365
1785.057	4344
1787.194	4355
1789.333	4439
1791.472	4386
1793.608	4402
1795.745	4386
1797.879	4340
1800.015	4416
1802.148	4446
1804.284	4328
1806.417	4352
1808.548	4349
1810.682	4401
1812.812	4474
1814.946	4276
1817.075	4364
1819.205	4386
1821.335	4401
1823.463	4437
1825.59	4403
1827.721	4421
1829.847	4419
1831.973	4349
1834.098	4422
1836.223	4394
1838.351	4328
1840.475	4320
1842.598	4355
1844.721	4446
1846.843	4357
1848.966	4411
1851.087	4362
1853.21	4442
1855.33	4349
1857.449	4464
1859.568	4377
1861.688	4353
1863.806	4396
1865.924	4424
1868.039	4452
1870.155	4306
1872.273	4357
1874.388	4411
1876.503	4365
1878.617	4400
1880.73	4462
1882.844	4395
1884.956	4330
1887.068	4387
1889.18	4327
1891.291	4496
1893.4	4380
1895.511	4394
1897.621	4429
1899.73	4413
1901.837	4356
1903.944	4422
1906.053	4451
1908.159	4490
1910.265	4399
1912.369	4387
1914.474	4395
1916.577	4441
1918.683	4509
1920.785	4466
1922.888	4521
1924.989	4401
1927.091	4386
1929.193	4442
1931.294	4487
1933.393	4399
1935.493	4414
1937.59	4451
1939.689	4450
1941.788	4496
1943.884	4424
1945.98	4534
1948.077	4530
1950.171	4414
1952.267	4498
1954.361	4516
1956.455	4620
1958.548	4483
1960.64	4524
1962.733	4482
1964.824	4472
1966.915	4492
1969.005	4441
1971.096	4621
1973.185	4412
1975.275	4483
1977.363	4439
1979.45	4444
1981.537	4461
1983.623	4366
1985.711	4422
1987.796	4475
1989.881	4527
1991.965	4481
1994.047	4442
1996.132	4487
1998.215	4475
2000.297	4474
2002.378	4426
2004.46	4482
2006.54	4424
2008.62	4397
2010.7	4406
2012.779	4415
2014.858	4373
2016.934	4422
2019.013	4436
2021.09	4426
2023.165	4491
2025.241	4390
2027.317	4436
2029.39	4540
2031.466	4463
2033.538	4329
2035.612	4491
2037.683	4433
2039.755	4488
2041.827	4502
2043.898	4458
2045.968	4450
2048.038	4474
2050.106	4456
2052.177	4522
2054.244	4425
2056.313	4436
2058.379	4510
2060.444	4500
2062.511	4435
2064.577	4417
2066.641	4481
2068.705	4436
2070.77	4434
2072.832	4417
2074.896	4528
2076.958	4411
2079.02	4433
2081.081	4409
2083.141	4475
2085.2	4587
2087.261	4493
2089.319	4384
2091.377	4496
2093.435	4640
2095.492	4478
2097.552	4512
2099.607	4510
2101.663	4414
2103.718	4461
2105.771	4497
2107.826	4461
2109.879	4541
2111.932	4492
2113.985	4461
2116.037	4559
2118.088	4482
2120.141	4385
2122.191	4447
2124.239	4506
2126.288	4448
2128.337	4548
2130.387	4414
2132.434	4525
2134.481	4498
2136.528	4518
2138.574	4559
2140.618	4523
2142.665	4537
2144.71	4424
2146.753	4559
2148.797	4510
2150.838	4479
2152.883	4547
2154.923	4397
2156.965	4489
2159.007	4423
2161.046	4433
2163.086	4526
2165.126	4439
2167.163	4488
2169.202	4459
2171.239	4401
2173.277	4433
2175.314	4418
2177.349	4411
2179.385	4422
2181.42	4403
2183.453	4427
2185.49	4472
2187.522	4443
2189.555	4389
2191.586	4397
2193.619	4447
2195.651	4410
2197.682	4444
2199.711	4367
2201.74	4389
2203.769	4486
2205.799	4476
2207.828	4476
2209.855	4451
2211.882	4444
2213.908	4397
2215.934	4437
2217.961	4447
2219.986	4331
2222.01	4456
2224.034	4393
2226.057	4413
2228.08	4383
2230.104	4372
2232.124	4369
2234.145	4384
2236.166	4412
2238.186	4476
2240.207	4347
2242.227	4376
2244.244	4458
2246.262	4412
2248.28	4415
2250.299	4422
2252.314	4374
2254.33	4381
2256.346	4360
2258.36	4403
2260.375	4440
2262.391	4485
2264.403	4389
2266.416	4371
2268.427	4451
2270.44	4372
2272.453	4349
2274.463	4473
2276.474	4429
2278.483	4359
2280.493	4427
2282.501	4441
2284.51	4454
2286.518	4457
2288.524	4373
2290.532	4476
2292.537	4395
2294.544	4387
2296.55	4416
2298.554	4458
2300.557	4392
2302.562	4485
2304.566	4450
2306.568	4483
2308.569	4353
2310.572	4443
2312.573	4361
2314.573	4496
2316.574	4330
2318.573	4395
2320.571	4345
2322.571	4432
2324.569	4406
2326.567	4498
2328.564	4436
2330.56	4340
2332.556	4434
2334.551	4392
2336.546	4431
2338.542	4370
2340.535	4361
2342.529	4348
2344.521	4353
2346.512	4356
2348.505	4387
2350.497	4419
2352.487	4390
2354.478	4354
2356.468	4306
2358.457	4366
2360.446	4345
2362.434	4366
2364.422	4323
2366.408	4344
2368.395	4347
2370.383	4308
2372.369	4451
2374.353	4350
2376.338	4343
2378.321	4411
2380.307	4264
2382.29	4314
2384.272	4422
2386.254	4367
2388.235	4282
2390.218	4324
2392.198	4395
2394.179	4333
2396.157	4214
2398.137	4347
2400.115	4232
2402.095	4326
2404.072	4350
2406.048	4377
2408.026	4242
2410.001	4318
2411.977	4305
2413.953	4328
2415.927	4307
2417.9	4283
2419.875	4361
2421.847	4313
2423.821	4340
2425.792	4350
2427.763	4284
2429.736	4284
2431.706	4298
2433.677	4223
2435.646	4361
2437.615	4363
2439.583	4290
2441.551	4305
2443.519	4407
2445.486	4215
2447.452	4329
2449.418	4327
2451.383	4267
2453.348	4295
2455.314	4313
2457.278	4262
2459.241	4304
2461.205	4385
2463.167	4347
2465.131	4310
2467.091	4303
2469.052	4333
2471.012	4289
2472.972	4398
2474.932	4355
2476.891	4255
2478.85	4269
2480.808	4347
2482.766	4346
2484.722	4235
2486.68	4224
2488.636	4282
2490.591	4247
2492.546	4289
2494.5	4339
2496.456	4227
2498.41	4296
2500.362	4327
2502.315	4247
2504.266	4247
2506.218	4356
2508.169	4328
2510.121	4251
2512.07	4247
2514.019	4229
2515.968	4336
2517.918	4259
2519.866	4340
2521.813	4268
2523.76	4239
2525.707	4275
2527.653	4329
2529.599	4258
2531.543	4324
2533.489	4278
2535.433	4242
2537.376	4337
2539.32	4283
2541.264	4182
2543.205	4204
2545.147	4306
2547.087	4323
2549.029	4290
2550.969	4261
2552.908	4179
2554.847	4289
2556.786	4242
2558.724	4316
2560.663	4220
2562.6	4272
2564.537	4284
2566.473	4290
2568.408	4277
2570.345	4171
2572.28	4337
2574.214	4281
2576.148	4258
2578.081	4286
2580.014	4238
2581.947	4171
2583.879	4338
2585.81	4276
2587.741	4294
2589.67	4293
2591.602	4358
2593.532	4238
2595.461	4203
2597.388	4342
2599.316	4303
2601.244	4198
2603.172	4336
2605.098	4304
2607.023	4314
2608.949	4271
2610.873	4230
2612.8	4260
2614.723	4171
2616.647	4294
2618.569	4342
2620.493	4344
2622.416	4287
2624.338	4304
2626.258	4246
2628.179	4247
2630.099	4318
2632.019	4285
2633.939	4305
2635.857	4372
2637.775	4363
2639.694	4306
2641.61	4351
2643.528	4278
2645.444	4291
2647.361	4342
2649.276	4267
2651.19	4266
2653.105	4239
2655.019	4382
2656.934	4325
2658.846	4255
2660.758	4275
2662.67	4223
2664.583	4275
2666.493	4235
2668.404	4252
2670.313	4315
2672.223	4276
2674.134	4281
2676.042	4330
2677.95	4286
2679.858	4191
2681.765	4340
2683.673	4259
2685.579	4242
2687.483	4373
2689.389	4220
2691.294	4240
2693.198	4217
2695.104	4187
2697.006	4247
2698.909	4285
2700.811	4192
2702.713	4190
2704.615	4235
2706.516	4222
2708.417	4247
2710.316	4265
2712.216	4166
2714.115	4292
2716.014	4281
2717.913	4234
2719.81	4193
2721.707	4235
2723.603	4227
2725.501	4305
2727.396	4289
2729.292	4319
2731.186	4260
2733.081	4278
2734.976	4258
2736.87	4300
2738.762	4205
2740.653	4247
2742.546	4216
2744.437	4359
2746.329	4362
2748.22	4228
2750.11	4234
2751.999	4278
2753.889	4202
2755.778	4242
2757.666	4251
2759.553	4168
2761.44	4206
2763.328	4306
2765.215	4221
2767.101	4292
2768.986	4280
2770.87	4268
2772.754	4260
2774.638	4222
2776.523	4257
2778.405	4183
2780.288	4207
2782.17	4235
2784.051	4257
2785.934	4203
2787.814	4212
2789.694	4274
2791.574	4228
2793.453	4121
2795.332	4303
2797.212	4156
2799.088	4265
2800.966	4282
2802.843	4240
2804.719	4095
2806.597	4261
2808.471	4216
2810.346	4218
2812.221	4213
2814.094	4311
2815.969	4221
2817.843	4120
2819.714	4092
2821.587	4257
2823.459	4115
2825.329	4267
2827.202	4223
2829.072	4221
2830.942	4175
2832.811	4275
2834.68	4175
2836.549	4279
2838.418	4210
2840.284	4309
2842.152	4241
2844.018	4309
2845.885	4170
2847.751	4346
2849.616	4213
2851.482	4283
2853.345	4258
2855.208	4231
2857.074	4246
2858.937	4296
2860.799	4307
2862.66	4378
2864.522	4382
2866.385	4316
2868.245	4346
2870.104	4369
2871.964	4382
2873.824	4456
2875.683	4355
2877.542	4516
2879.4	4466
2881.257	4564
2883.114	4578
2884.97	4610
2886.827	4584
2888.683	4601
2890.537	4576
2892.392	4582
2894.246	4514
2896.1	4613
2897.954	4636
2899.807	4541
2901.66	4541
2903.51	4496
2905.362	4548
2907.214	4612
2909.065	4571
2910.915	4597
2912.765	4594
2914.613	4624
2916.463	4724
2918.311	4713
2920.158	4696
2922.006	4707
2923.853	4746
2925.698	4896
2927.546	4832
2929.392	4868
2931.236	4907
2933.081	4949
2934.924	4900
2936.77	4963
2938.613	5000
2940.455	5079
2942.298	5039
2944.139	5103
2945.982	5078
2947.823	5047
2949.662	5071
2951.503	4992
2953.342	4944
2955.182	4932
2957.021	4962
2958.858	4931
2960.697	4849
2962.534	4780
2964.37	4732
2966.207	4783
2968.044	4701
2969.879	4719
2971.714	4654
2973.548	4693
2975.383	4644
2977.218	4597
2979.051	4577
2980.883	4575
2982.715	4577
2984.547	4596
2986.379	4574
2988.21	4556
2990.04	4550
2991.87	4434
2993.7	4464
2995.53	4393
2997.359	4461
2999.187	4331
3001.015	4379
3002.842	4438
3004.669	4369
3006.497	4297
3008.323	4334
3010.148	4272
3011.974	4285
3013.797	4254
3015.623	4150
3017.447	4319
3019.27	4162
3021.094	4212
3022.915	4126
3024.737	4094
3026.56	4116
3028.38	4073
3030.201	4010
3032.022	4121
3033.84	4061
3035.662	4063
3037.481	4195
3039.298	4044
3041.117	4107
3042.933	4073
3044.752	4067
3046.568	4063
3048.385	4047
3050.2	4131
3052.016	4099
3053.83	3986
3055.646	4140
3057.46	4053
3059.272	4006
3061.086	4019
3062.898	3978
3064.711	4039
3066.524	4048
3068.335	4005
3070.145	3958
3071.956	3986
3073.766	4046
3075.576	4012
3077.385	4055
3079.193	4010
3081.002	4050
3082.81	4017
3084.618	3947
3086.425	4027
3088.231	4008
3090.036	3966
3091.842	4015
3093.648	3949
3095.452	3951
3097.257	3983
3099.06	3976
3100.863	3877
3102.666	3986
3104.47	3971
3106.272	3963
3108.073	3959
3109.875	3916
3111.676	3964
3113.477	3949
3115.277	3961
3117.077	3965
3118.874	3889
3120.673	3829
3122.473	3911
3124.271	3875
3126.066	3915
3127.863	3912
3129.66	3939
3131.456	3935
3133.252	3872
3135.047	3889
3136.842	3891
3138.635	3916
3140.429	3910
3142.223	3887
3144.016	3816
3145.808	3908
3147.6	3880
3149.392	3826
3151.183	3881
3152.975	3868
3154.765	3873
3156.553	3893
3158.344	3798
3160.132	3829
3161.922	3930
3163.71	3846
3165.497	3870
3167.285	3797
3169.071	3949
3170.858	3905
3172.645	3921
3174.429	3864
3176.214	3882
3177.998	3842
3179.783	3870
3181.568	3872
3183.351	3904
3185.133	3814
3186.915	3877
3188.698	3853
3190.481	3889
3192.261	3831
3194.042	3860
3195.822	3855
3197.601	3891
3199.381	3910
3201.161	3817
3202.939	3871
3204.717	3715
3206.495	3832
3208.272	3807
3210.05	3761
3211.826	3874
3213.602	3856
3215.376	3836
3217.151	3841
3218.927	3894
3220.702	3817
3222.476	3769
3224.249	3774
3226.021	3898
3227.793	3889
3229.567	3872
3231.339	3844
3233.109	3757
3234.88	3828
3236.651	3852
3238.421	3798
3240.191	3850
3241.96	3791
3243.728	3799
3245.497	3841
3247.263	3949
3249.033	3748
3250.799	3786
3252.566	3810
3254.331	3772
3256.097	3776
3257.863	3876
3259.628	3775
3261.392	3834
3263.156	3869
3264.919	3784
3266.683	3850
3268.447	3857
3270.208	3785
3271.969	3772
3273.731	3852
3275.492	3753
3277.253	3824
3279.013	3890
3280.773	3831
3282.532	3893
3284.291	3840
3286.05	3831
3287.808	3770
3289.566	3872
3291.323	3723
3293.079	3876
3294.835	3890
3296.593	3855
3298.348	3839
3300.102	3807
3301.857	3766
3303.611	3837
3305.366	3853
3307.119	3787
3308.872	3804
3310.624	3844
3312.376	3760
3314.129	3864
3315.881	3775
3317.631	3779
3319.38	3900
3321.13	3789
3322.88	3735
3324.631	3816
3326.379	3842
3328.126	3802
3329.875	3794
3331.622	3774
3333.371	3862
3335.116	3826
3336.863	3753
3338.609	3818
3340.353	3813
3342.1	3749
3343.845	3781
3345.588	3790
3347.332	3787
3349.074	3810
3350.817	3785
3352.56	3689
3354.303	3771
3356.043	3782
3357.785	3800
3359.525	3719
3361.268	3760
3363.007	3820
3364.745	3749
3366.485	3712
3368.223	3785
3369.962	3768
3371.701	3679
3373.438	3729
3375.174	3816
3376.911	3701
3378.647	3737
3380.384	3755
3382.118	3713
3383.854	3822
3385.588	3762
3387.322	3742
3389.057	3597
3390.79	3749
3392.522	3644
3394.255	3686
3395.987	3687
3397.719	3695
3399.451	3692
3401.181	3647
3402.911	3673
3404.641	3709
3406.371	3721
3408.101	3689
3409.83	3756
3411.558	3735
3413.285	3711
3415.011	3776
3416.739	3622
3418.467	3649
3420.193	3686
3421.919	3657
3423.644	3709
3425.368	3649
3427.094	3648
3428.818	3702
3430.542	3676
3432.264	3698
3433.987	3668
3435.712	3649
3437.434	3722
3439.155	3576
3440.876	3620
3442.596	3704
3444.317	3582
3446.039	3659
3447.757	3597
3449.477	3681
3451.195	3622
3452.914	3611
3454.632	3604
3456.35	3552
3458.067	3564
3459.784	3591
3461.5	3611
3463.216	3585
3464.932	3573
3466.647	3566
3468.362	3584
3470.076	3547
3471.789	3587
3473.505	3523
3475.217	3560
3476.929	3583
3478.641	3573
3480.354	3605
3482.066	3511
3483.777	3528
3485.487	3543
3487.197	3541
3488.908	3476
3490.617	3538
3492.327	3471
3494.035	3545
3495.743	3517
3497.451	3608
3499.158	3561
3500.866	3598
3502.572	3477
3504.278	3461
3505.984	3506
3507.689	3406
3509.396	3602
3511.1	3463
3512.804	3534
3514.508	3467
3516.211	3479
3517.913	3608
3519.616	3475
3521.319	3463
3523.021	3463
3524.722	3449
3526.422	3478
3528.124	3517
3529.824	3425
3531.524	3450
3533.222	3462
3534.921	3405
3536.62	3482
3538.318	3398
3540.016	3416
3541.714	3355
3543.41	3444
3545.107	3435
3546.803	3426
3548.5	3292
3550.194	3339
3551.889	3474
3553.583	3491
3555.279	3454
3556.972	3385
3558.666	3413
3560.358	3417
3562.051	3394
3563.742	3356
3565.435	3347
3567.126	3364
3568.817	3370
3570.507	3399
3572.197	3356
3573.888	3361
3575.577	3405
3577.265	3369
3578.954	3368
3580.642	3324
3582.329	3404
3584.017	3377
3585.704	3386
3587.391	3329
3589.077	3337
3590.762	3368
3592.449	3367
3594.133	3302
3595.817	3201
3597.501	3317
3599.185	3329
3600.869	3305
3602.552	3294
3604.234	3331
3605.916	3300
3607.598	3301
3609.279	3275
3610.961	3262
3612.642	3332
3614.321	3290
3616	3262
3617.68	3254
3619.36	3277
3621.039	3299
3622.716	3274
3624.394	3235
3626.071	3268
3627.748	3188
3629.425	3218
3631.102	3207
3632.778	3231
3634.452	3297
3636.127	3240
3637.803	3221
3639.477	3233
3641.151	3182
3642.823	3196
3644.497	3211
3646.171	3182
3647.842	3152
3649.515	3220
3651.185	3208
3652.857	3220
3654.527	3262
3656.198	3167
3657.868	3128
3659.537	3166
3661.207	3189
3662.875	3196
3664.544	3192
3666.212	3181
3667.879	3124
3669.546	3264
3671.212	3165
3672.88	3185
3674.546	3209
3676.211	3139
3677.875	3220
3679.541	3147
3681.205	3213
3682.87	3169
3684.533	3170
3686.196	3125
3687.859	3136
3689.521	3158
3691.184	3159
3692.845	3153
3694.507	3213
3696.167	3112
3697.827	3169
3699.487	3162
3701.148	3162
3702.808	3098
3704.466	3047
3706.125	3177
3707.783	3173
3709.442	3171
3711.099	3146
3712.757	3241
3714.412	3112
3716.068	3107
3717.725	3076
3719.381	3184
3721.036	3159
3722.689	3067
3724.344	3071
3725.998	3167
3727.652	3124
3729.305	3101
3730.958	3162
3732.61	3092
3734.262	3075
3735.915	3062
3737.565	3053
3739.217	3188
3740.866	3069
3742.516	3105
3744.165	3106
3745.816	3070
3747.464	3015
3749.113	3057
3750.761	3006
3752.409	3080
3754.057	3020
3755.703	3019
3757.35	3070
3758.996	3111
3760.641	3117
3762.289	2991
3763.933	3026
3765.577	3021
3767.222	3044
3768.865	3021
3770.508	3063
3772.152	3042
3773.796	3044
3775.438	3106
3777.079	3041
3778.721	3088
3780.363	3004
3782.003	3004
3783.643	2992
3785.283	2999
3786.923	3045
3788.563	2997
3790.203	3087
3791.841	2996
3793.479	3015
3795.115	3026
3796.753	2992
3798.391	2949
3800.027	2966
3801.664	2979
3803.299	2947
3804.935	3033
3806.571	2974
3808.206	3019
3809.839	3012
3811.473	2950
3813.107	2985
3814.74	2938
3816.375	2996
3818.006	2958
3819.638	2997
3821.27	3060
3822.9	2986
3824.532	3013
3826.163	2915
3827.792	3028
3829.423	2983
3831.051	3006
3832.682	2943
3834.311	2997
3835.938	2941
3837.566	2955
3839.193	2979
3840.821	2966
3842.448	2993
3844.075	2888
3845.7	2920
3847.325	2916
3848.951	2904
3850.576	2941
3852.201	2915
3853.825	2991
3855.448	2925
3857.072	2988
3858.694	2965
3860.318	2937
3861.939	2920
3863.562	2880
3865.183	2944
3866.804	2884
3868.426	2901
3870.045	2922
3871.666	2914
3873.285	2924
3874.904	2902
3876.524	2855
3878.142	2877
3879.76	2812
3881.378	2908
3882.995	2832
3884.612	2883
3886.229	2851
3887.845	2878
3889.461	2870
3891.076	2859
3892.691	2889
3894.307	2874
3895.922	2844
3897.536	2883
3899.149	2904
3900.761	2911
3902.374	2866
3903.988	2899
3905.6	2822
3907.212	2905
3908.822	2874
3910.433	2902
3912.045	2872
3913.655	2836
3915.265	2813
3916.875	2828
3918.483	2905
3920.093	2797
3921.702	2906
3923.309	2951
3924.917	2906
3926.523	2877
3928.13	2838
3929.739	2890
3931.344	2820
3932.95	2859
3934.555	2814
3936.159	2847
3937.766	2822
3939.369	2852
3940.974	2867
3942.577	2894
3944.181	2861
3945.783	2863
3947.386	2904
3948.989	2827
3950.59	2846
3952.191	2794
3953.791	2831
3955.394	2839
3956.994	2828
3958.593	2855
3960.192	2826
3961.791	2769
3963.392	2840
3964.99	2760
3966.588	2836
3968.185	2795
3969.782	2734
3971.379	2747
3972.976	2818
3974.572	2810
3976.168	2713
3977.763	2749
3979.358	2771
3980.954	2806
3982.548	2817
3984.142	2805
3985.736	2820
3987.329	2741
3988.922	2759
3990.516	2760
3992.108	2778
3993.698	2772
3995.29	2708
3996.881	2757
3998.473	2803
4000.064	2708
4001.653	2739
4003.242	2753
4004.832	2734
4006.422	2721
4008.01	2765
4009.598	2743
4011.186	2749
4012.773	2692
4014.36	2768
4015.947	2722
4017.534	2728
4019.119	2687
4020.705	2628
4022.291	2754
4023.876	2595
4025.461	2698
4027.044	2749
4028.627	2657
4030.211	2662
4031.795	2660
4033.378	2733
4034.96	2696
4036.542	2735
4038.124	2708
4039.704	2706
4041.286	2661
4042.867	2657
4044.447	2695
4046.026	2690
4047.606	2671
4049.187	2641
4050.765	2700
4052.343	2650
4053.92	2696
4055.498	2714
4057.076	2669
4058.654	2657
4060.23	2676
4061.806	2588
4063.381	2625
4064.957	2663
4066.533	2661
4068.107	2630
4069.682	2562
4071.256	2582
4072.829	2559
4074.404	2633
4075.977	2602
4077.549	2604
4079.121	2664
4080.693	2678
4082.265	2628
4083.836	2647
4085.407	2581
4086.977	2615
4088.547	2542
4090.117	2656
4091.687	2654
4093.256	2591
4094.825	2625
4096.392	2639
4097.96	2648
4099.528	2645
4101.097	2612
4102.663	2648
4104.229	2618
4105.795	2591
4107.361	2574
4108.928	2585
4110.493	2591
4112.058	2543
4113.621	2601
4115.186	2552
4116.75	2632
4118.313	2484
4119.876	2546
4121.438	2546
4123	2653
4124.562	2578
4126.125	2504
4127.686	2566
4129.246	2541
4130.807	2546
4132.367	2574
4133.927	2564
4135.486	2532
4137.046	2593
4138.604	2522
4140.162	2515
4141.72	2555
4143.279	2576
4144.836	2518
4146.393	2546
4147.949	2502
4149.505	2482
4151.062	2508
4152.617	2529
4154.172	2583
4155.727	2461
4157.281	2544
4158.836	2520
4160.39	2491
4161.943	2558
4163.496	2454
4165.048	2517
4166.601	2520
4168.154	2507
4169.706	2490
4171.257	2454
4172.808	2444
4174.358	2490
4175.909	2524
4177.458	2528
4179.008	2464
4180.558	2437
4182.106	2468
4183.655	2445
4185.204	2434
4186.751	2489
4188.298	2509
4189.845	2439
4191.392	2473
4192.939	2479
4194.485	2418
4196.031	2504
4197.576	2452
4199.121	2455
4200.666	2401
4202.211	2372
4203.754	2523
4205.298	2425
4206.84	2468
4208.384	2435
4209.927	2429
4211.47	2367
4213.011	2439
4214.552	2467
4216.094	2423
4217.635	2407
4219.175	2420
4220.716	2460
4222.255	2409
4223.793	2406
4225.335	2413
4226.873	2329
4228.411	2415
4229.948	2410
4231.486	2425
4233.024	2372
4234.562	2405
4236.098	2449
4237.634	2333
4239.169	2476
4240.705	2437
4242.241	2432
4243.776	2343
4245.31	2457
4246.844	2349
4248.378	2388
4249.911	2364
4251.445	2347
4252.978	2379
4254.51	2421
4256.042	2360
4257.574	2406
4259.107	2360
4260.638	2417
4262.169	2378
4263.699	2396
4265.228	2430
4266.759	2404
4268.289	2334
4269.818	2385
4271.345	2402
4272.874	2357
4274.402	2353
4275.931	2362
4277.458	2378
4278.985	2391
4280.512	2318
4282.037	2369
4283.564	2356
4285.089	2380
4286.615	2361
4288.139	2372
4289.664	2277
4291.187	2334
4292.712	2371
4294.235	2296
4295.759	2350
4297.281	2347
4298.804	2338
4300.327	2390
4301.849	2325
4303.37	2326
4304.891	2330
4306.412	2287
4307.933	2290
4309.453	2327
4310.973	2322
4312.492	2283
