398.1873	8727
400.7097	8579
403.2336	8641
405.7547	8714
408.2751	8590
410.7948	8769
413.3138	8748
415.83	8931
418.3497	8788
420.8666	8843
423.3829	8891
425.8985	9154
428.4133	9080
430.9275	9087
433.441	9028
435.9538	9241
438.4639	9065
440.9753	9077
443.4881	9211
445.9982	9260
448.5055	9275
451.0142	9029
453.5201	9248
456.0274	9224
458.5361	9099
461.04	9156
463.5453	9163
466.0478	9323
468.5517	9240
471.0549	9329
473.5574	9275
476.0572	9340
478.5584	9280
481.0568	9400
483.5545	9375
486.0557	9556
488.5521	9467
491.0478	9499
493.5449	9659
496.0392	9482
498.5349	9644
501.0299	9685
503.5222	9600
506.0139	9626
508.5048	9615
510.9991	9612
513.4887	9776
515.9777	9815
518.4659	9712
520.9534	9749
523.4403	9769
525.9306	9756
528.4161	9702
530.9009	9815
533.3851	9759
535.8687	9869
538.3535	9729
540.8356	9770
543.3171	9850
545.7979	9767
548.278	9808
550.7595	9750
553.2383	9761
555.7144	9789
558.1918	9669
560.6685	9817
563.1446	9672
565.6221	9866
568.0968	9929
570.5688	9925
573.0422	10045
575.515	9937
577.989	10049
580.4584	9993
582.9291	10127
585.3991	10123
587.8685	10113
590.3352	10041
592.8052	10138
595.2706	10094
597.7372	10097
600.2033	10091
602.6666	10062
605.1334	10113
607.5953	10097
610.0587	10163
612.5193	10123
614.9814	10076
617.4427	10129
619.9034	10058
622.3615	10180
624.8208	10086
627.2775	10167
629.7335	10154
632.1929	10080
634.6476	10074
637.1016	10139
639.5569	10205
642.0096	10049
644.4637	10172
646.9151	10254
649.3678	10206
651.8179	10257
654.2672	10160
656.7159	10232
659.166	10180
661.6154	10408
664.0622	10344
666.5082	10436
668.9537	10513
671.4005	10391
673.8445	10390
676.288	10503
678.7308	10348
681.1729	10398
683.6163	10468
686.0572	10479
688.4973	10555
690.9368	10604
693.3757	10531
695.8138	10586
698.2534	10556
700.6902	10468
703.1245	10669
705.56	10534
707.9949	10477
710.4311	10524
712.8647	10537
715.2957	10667
717.7279	10795
720.1595	10717
722.5905	10592
725.0208	10878
727.4505	10594
729.8795	10741
732.3058	10947
734.7336	10942
737.1626	10909
739.587	10976
742.0128	11038
744.4359	11023
746.8604	11056
749.2841	10997
751.7073	11010
754.1278	11167
756.5496	11156
758.9688	11237
761.3893	11270
763.8093	11237
766.2285	11185
768.6451	11300
771.0611	11260
773.4784	11376
775.895	11388
778.3091	11221
780.7244	11278
783.1371	11335
785.5493	11213
787.9626	11256
790.3754	11263
792.7856	11258
795.1951	11278
797.6039	11324
800.0121	11351
802.4236	11344
804.8306	11531
807.2369	11312
809.6425	11340
812.0475	11333
814.4538	11505
816.8575	11396
819.2606	11395
821.663	11335
824.0648	11401
826.4659	11417
828.8683	11405
831.2682	11510
833.6674	11591
836.066	11438
838.4639	11419
840.8632	11345
843.2579	11444
845.6539	11434
848.0493	11609
850.444	11615
852.84	11700
855.2315	11429
857.6243	11494
860.0165	11535
862.4081	11532
864.797	11620
867.1892	11412
869.5789	11492
871.9659	11455
874.3542	11446
876.74	11483
879.129	11536
881.5155	11548
883.8994	11357
886.2845	11623
888.6671	11570
891.051	11462
893.4343	11568
895.8169	11448
898.197	11389
900.5783	11508
902.9571	11608
905.3372	11425
907.7167	11661
910.0936	11578
912.4698	11600
914.8474	11694
917.2244	11699
919.5987	11924
921.9744	11754
924.3475	11918
926.72	11892
929.0918	12094
931.4669	11981
933.8375	11884
936.2074	12139
938.5767	12138
940.9454	12082
943.3154	12113
945.6829	12196
948.0497	12303
950.4178	12653
952.7833	12774
955.1483	12995
957.5145	13248
959.8782	13248
962.2412	13196
964.6036	13109
966.9655	12841
969.3266	12663
971.6871	12521
974.0471	11931
976.4064	12130
978.765	12118
981.125	11978
983.4824	12013
985.8373	11982
988.1935	11986
990.549	11928
992.9039	12086
995.2602	11922
997.6119	11833
999.965	12016
1002.317	11948
1004.667	12025
1007.02	11865
1009.371	11880
1011.719	11996
1014.068	12018
1016.415	11887
1018.765	11912
1021.111	11890
1023.458	11921
1025.804	11860
1028.147	12055
1030.49	12044
1032.837	12090
1035.179	12006
1037.522	12106
1039.862	12047
1042.204	11966
1044.546	12163
1046.884	12156
1049.224	12003
1051.562	12030
1053.899	12163
1056.237	12121
1058.575	12222
1060.91	12195
1063.244	12347
1065.58	12163
1067.913	12323
1070.248	12304
1072.579	12220
1074.911	12306
1077.242	12252
1079.572	12375
1081.905	12049
1084.234	12237
1086.562	12402
1088.89	12149
1091.217	12142
1093.544	12333
1095.871	12309
1098.197	12235
1100.521	12284
1102.845	12143
1105.169	12460
1107.491	12223
1109.814	12125
1112.135	12263
1114.456	12370
1116.776	12355
1119.096	12345
1121.415	12374
1123.734	12321
1126.052	12531
1128.369	12433
1130.686	12530
1133.002	12529
1135.318	12266
1137.632	12220
1139.945	12417
1142.258	12317
1144.573	12395
1146.884	12275
1149.196	12438
1151.505	12325
1153.816	12236
1156.124	12444
1158.435	12564
1160.742	12480
1163.051	12263
1165.356	12518
1167.663	12415
1169.97	12515
1172.276	12350
1174.579	12446
1176.881	12141
1179.186	12293
1181.487	12422
1183.79	12414
1186.092	12529
1188.392	12378
1190.691	12436
1192.991	12417
1195.291	12399
1197.588	12476
1199.885	12452
1202.181	12304
1204.479	12444
1206.775	12385
1209.07	12339
1211.363	12495
1213.656	12421
1215.949	12385
1218.241	12430
1220.534	12453
1222.825	12716
1225.115	12611
1227.405	12512
1229.693	12622
1231.984	12588
1234.271	12673
1236.558	12770
1238.845	12704
1241.131	12809
1243.416	12739
1245.703	12825
1247.987	12860
1250.269	12804
1252.552	12662
1254.834	12792
1257.118	12665
1259.399	12955
1261.678	12649
1263.958	12754
1266.237	12662
1268.516	12683
1270.794	12623
1273.072	12779
1275.347	12833
1277.624	12809
1279.899	12655
1282.175	12763
1284.449	12874
1286.722	12789
1288.995	12567
1291.266	12496
1293.54	12516
1295.81	12723
1298.081	12663
1300.35	12512
1302.62	12831
1304.889	12695
1307.156	12500
1309.425	12648
1311.69	12610
1313.957	12641
1316.222	12495
1318.488	12663
1320.751	12564
1323.016	12688
1325.278	12520
1327.54	12600
1329.803	12671
1332.065	12733
1334.325	12546
1336.584	12818
1338.843	12805
1341.101	12697
1343.36	12745
1345.617	12870
1347.876	12840
1350.131	12679
1352.387	12612
1354.643	12783
1356.897	12648
1359.151	12757
1361.403	12762
1363.656	12881
1365.909	12732
1368.16	13062
1370.409	12642
1372.659	12630
1374.909	12767
1377.157	12594
1379.407	12868
1381.655	12910
1383.9	12817
1386.147	12675
1388.393	12945
1390.64	12839
1392.885	12796
1395.127	12990
1397.37	13011
1399.614	12718
1401.854	12984
1404.098	12928
1406.339	12911
1408.578	12749
1410.818	13118
1413.056	12902
1415.297	13068
1417.533	13002
1419.771	12963
1422.006	12976
1424.243	12972
1426.479	12996
1428.715	13208
1430.948	13239
1433.182	13085
1435.414	13187
1437.647	13235
1439.88	13260
1442.11	13205
1444.342	13152
1446.571	13388
1448.799	13121
1451.029	13274
1453.258	13258
1455.485	13244
1457.711	13233
1459.937	13115
1462.164	13225
1464.39	13232
1466.614	13106
1468.838	13241
1471.06	13131
1473.283	13053
1475.506	12941
1477.727	12888
1479.949	13000
1482.169	13002
1484.389	12776
1486.609	12886
1488.828	13034
1491.045	12911
1493.261	12847
1495.477	12792
1497.693	12831
1499.91	13053
1502.125	12808
1504.339	13007
1506.553	12959
1508.766	12881
1510.979	12812
1513.191	12575
1515.402	12753
1517.613	12820
1519.823	12881
1522.033	12705
1524.242	12729
1526.451	12816
1528.657	12792
1530.865	12825
1533.072	12975
1535.278	12812
1537.484	12870
1539.687	12985
1541.892	12899
1544.096	12847
1546.299	12853
1548.502	13152
1550.703	13041
1552.905	12969
1555.104	13089
1557.303	13051
1559.505	13041
1561.703	12945
1563.902	13141
1566.099	13221
1568.295	13218
1570.494	13014
1572.689	13264
1574.883	13096
1577.079	13199
1579.272	13304
1581.467	13135
1583.659	13199
1585.853	13221
1588.044	13134
1590.234	13177
1592.424	13128
1594.615	13385
1596.806	13151
1598.994	13323
1601.182	13246
1603.369	13316
1605.557	13196
1607.744	13351
1609.929	13408
1612.114	13283
1614.298	13354
1616.482	13410
1618.667	13310
1620.85	13300
1623.032	13322
1625.214	13236
1627.395	13333
1629.575	13252
1631.755	13331
1633.935	13280
1636.114	13337
1638.292	13312
1640.471	13359
1642.647	13439
1644.823	13362
1647	13196
1649.175	13303
1651.348	13477
1653.525	13455
1655.698	13527
1657.87	13505
1660.043	13328
1662.213	13369
1664.387	13538
1666.558	13444
1668.727	13304
1670.896	13443
1673.064	13437
1675.233	13288
1677.401	13466
1679.569	13367
1681.735	13280
1683.902	13339
1686.066	13346
1688.233	13345
1690.397	13415
1692.559	13282
1694.723	13471
1696.885	13420
1699.048	13322
1701.21	13383
1703.37	13350
1705.53	13468
1707.689	13447
1709.849	13306
1712.009	13148
1714.166	13349
1716.323	13286
1718.479	13324
1720.634	13337
1722.793	13279
1724.948	13290
1727.102	13312
1729.255	13226
1731.408	13356
1733.562	13261
1735.714	13457
1737.865	13187
1740.016	13321
1742.166	13205
1744.316	13333
1746.467	13385
1748.616	13312
1750.764	13285
1752.911	13399
1755.056	13390
1757.205	13410
1759.35	13559
1761.496	13393
1763.641	13470
1765.785	13395
1767.927	13525
1770.072	13372
1772.214	13448
1774.355	13403
1776.496	13530
1778.637	13473
1780.778	13624
1782.918	13470
1785.057	13516
1787.194	13581
1789.333	13402
1791.472	13490
1793.608	13488
1795.745	13423
1797.879	13511
1800.015	13562
1802.148	13400
1804.284	13601
1806.417	13554
1808.548	13566
1810.682	13468
1812.812	13543
1814.946	13610
1817.075	13557
1819.205	13571
1821.335	13409
1823.463	13393
1825.59	13495
1827.721	13505
1829.847	13332
1831.973	13447
1834.098	13473
1836.223	13411
1838.351	13338
1840.475	13227
1842.598	13438
1844.721	13450
1846.843	13372
1848.966	13575
1851.087	13254
1853.21	13323
1855.33	13444
1857.449	13363
1859.568	13306
1861.688	13299
1863.806	13114
1865.924	13340
1868.039	13424
1870.155	13256
1872.273	13367
1874.388	13060
1876.503	13234
1878.617	13519
1880.73	13085
1882.844	13336
1884.956	13477
1887.068	13442
1889.18	13292
1891.291	13381
1893.4	13310
1895.511	13401
1897.621	13286
1899.73	13546
1901.837	13461
1903.944	13492
1906.053	13515
1908.159	13422
1910.265	13445
1912.369	13308
1914.474	13490
1916.577	13550
1918.683	13378
1920.785	13470
1922.888	13362
1924.989	13476
1927.091	13670
1929.193	13534
1931.294	13619
1933.393	13588
1935.493	13581
1937.59	13534
1939.689	13725
1941.788	13710
1943.884	13398
1945.98	13605
1948.077	13652
1950.171	13570
1952.267	13432
1954.361	13703
1956.455	13420
1958.548	13458
1960.64	13614
1962.733	13545
1964.824	13628
1966.915	13513
1969.005	13598
1971.096	13436
1973.185	13482
1975.275	13542
1977.363	13607
1979.45	13417
1981.537	13500
1983.623	13455
1985.711	13470
1987.796	13466
1989.881	13560
1991.965	13453
1994.047	13367
1996.132	13667
1998.215	13326
2000.297	13578
2002.378	13479
2004.46	13387
2006.54	13257
2008.62	13373
2010.7	13489
2012.779	13355
2014.858	13306
2016.934	13264
2019.013	13201
2021.09	13432
2023.165	13422
2025.241	13202
2027.317	13384
2029.39	13482
2031.466	13479
2033.538	13390
2035.612	13333
2037.683	13379
2039.755	13419
2041.827	13417
2043.898	13554
2045.968	13264
2048.038	13490
2050.106	13310
2052.177	13388
2054.244	13475
2056.313	13522
2058.379	13349
2060.444	13403
2062.511	13520
2064.577	13429
2066.641	13383
2068.705	13441
2070.77	13618
2072.832	13485
2074.896	13453
2076.958	13515
2079.02	13491
2081.081	13341
2083.141	13577
2085.2	13280
2087.261	13649
2089.319	13477
2091.377	13548
2093.435	13518
2095.492	13449
2097.552	13441
2099.607	13457
2101.663	13341
2103.718	13196
2105.771	13539
2107.826	13663
2109.879	13407
2111.932	13503
2113.985	13435
2116.037	13643
2118.088	13432
2120.141	13268
2122.191	13410
2124.239	13349
2126.288	13345
2128.337	13396
2130.387	13329
2132.434	13521
2134.481	13392
2136.528	13323
2138.574	13307
2140.618	13519
2142.665	13325
2144.71	13305
2146.753	13454
2148.797	13256
2150.838	13464
2152.883	13308
2154.923	13347
2156.965	13303
2159.007	13450
2161.046	13238
2163.086	13100
2165.126	13233
2167.163	13237
2169.202	13186
2171.239	13189
2173.277	13413
2175.314	13355
2177.349	13200
2179.385	13219
2181.42	13181
2183.453	13086
2185.49	13000
2187.522	13094
2189.555	13160
2191.586	13106
2193.619	13062
2195.651	13324
2197.682	13048
2199.711	13127
2201.74	13093
2203.769	13001
2205.799	12985
2207.828	13255
2209.855	12996
2211.882	12969
2213.908	12866
2215.934	13066
2217.961	13103
2219.986	13135
2222.01	13139
2224.034	12942
2226.057	12999
2228.08	13218
2230.104	12943
2232.124	13170
2234.145	12972
2236.166	12917
2238.186	13053
2240.207	12914
2242.227	12899
2244.244	12943
2246.262	13048
2248.28	13070
2250.299	12942
2252.314	12985
2254.33	13062
2256.346	12987
2258.36	12994
2260.375	12979
2262.391	13071
2264.403	12863
2266.416	12894
2268.427	13181
2270.44	13090
2272.453	12917
2274.463	13027
2276.474	12923
2278.483	13096
2280.493	12943
2282.501	13087
2284.51	13063
2286.518	13043
2288.524	12991
2290.532	13083
2292.537	12930
2294.544	13014
2296.55	13056
2298.554	13076
2300.557	13128
2302.562	13128
2304.566	13006
2306.568	13013
2308.569	13012
2310.572	13047
2312.573	13010
2314.573	12879
2316.574	12994
2318.573	12888
2320.571	12960
2322.571	12815
2324.569	12838
2326.567	12936
2328.564	12867
2330.56	12712
2332.556	13042
2334.551	12949
2336.546	12674
2338.542	12871
2340.535	12961
2342.529	12827
2344.521	12820
2346.512	12697
2348.505	12758
2350.497	13000
2352.487	12927
2354.478	12633
2356.468	12824
2358.457	12773
2360.446	12819
2362.434	12769
2364.422	12659
2366.408	12705
2368.395	12701
2370.383	12712
2372.369	12509
2374.353	12556
2376.338	12737
2378.321	12712
2380.307	12813
2382.29	12545
2384.272	12728
2386.254	12532
2388.235	12597
2390.218	12730
2392.198	12570
2394.179	12701
2396.157	12530
2398.137	12660
2400.115	12589
2402.095	12635
2404.072	12594
2406.048	12651
2408.026	12538
2410.001	12521
2411.977	12527
2413.953	12568
2415.927	12542
2417.9	12569
2419.875	12424
2421.847	12673
2423.821	12576
2425.792	12519
2427.763	12701
2429.736	12573
2431.706	12669
2433.677	12454
2435.646	12610
2437.615	12522
2439.583	12445
2441.551	12652
2443.519	12645
2445.486	12689
2447.452	12466
2449.418	12529
2451.383	12509
2453.348	12441
2455.314	12521
2457.278	12444
2459.241	12576
2461.205	12375
2463.167	12473
2465.131	12445
2467.091	12550
2469.052	12333
2471.012	12478
2472.972	12378
2474.932	12418
2476.891	12519
2478.85	12519
2480.808	12387
2482.766	12596
2484.722	12230
2486.68	12393
2488.636	12569
2490.591	12568
2492.546	12431
2494.5	12411
2496.456	12253
2498.41	12303
2500.362	12294
2502.315	12320
2504.266	12391
2506.218	12428
2508.169	12291
2510.121	12302
2512.07	12410
2514.019	12280
2515.968	12198
2517.918	12299
2519.866	12386
2521.813	12294
2523.76	12330
2525.707	12456
2527.653	12124
2529.599	12222
2531.543	12353
2533.489	12356
2535.433	12305
2537.376	12185
2539.32	12415
2541.264	12383
2543.205	12297
2545.147	12308
2547.087	12109
2549.029	12239
2550.969	12215
2552.908	12326
2554.847	12255
2556.786	12373
2558.724	12245
2560.663	12130
2562.6	12416
2564.537	12193
2566.473	12215
2568.408	12270
2570.345	12318
2572.28	12284
2574.214	12342
2576.148	12173
2578.081	12344
2580.014	12343
2581.947	12221
2583.879	12433
2585.81	12144
2587.741	12405
2589.67	12175
2591.602	12343
2593.532	12256
2595.461	12290
2597.388	12402
2599.316	12255
2601.244	12363
2603.172	12336
2605.098	12157
2607.023	12239
2608.949	12313
2610.873	12272
2612.8	12234
2614.723	12416
2616.647	12352
2618.569	12418
2620.493	12308
2622.416	12277
2624.338	12226
2626.258	12409
2628.179	12397
2630.099	12346
2632.019	12396
2633.939	12247
2635.857	12303
2637.775	12401
2639.694	12366
2641.61	12247
2643.528	12468
2645.444	12277
2647.361	12161
2649.276	12428
2651.19	12248
2653.105	12207
2655.019	12255
2656.934	12343
2658.846	12375
2660.758	12398
2662.67	12357
2664.583	12377
2666.493	12299
2668.404	12307
2670.313	12143
2672.223	12309
2674.134	12250
2676.042	12246
2677.95	12312
2679.858	12274
2681.765	12175
2683.673	12304
2685.579	12130
2687.483	12202
2689.389	12050
2691.294	12282
2693.198	12010
2695.104	12204
2697.006	12146
2698.909	12098
2700.811	12039
2702.713	12103
2704.615	12230
2706.516	11992
2708.417	12237
2710.316	12172
2712.216	12098
2714.115	12117
2716.014	12086
2717.913	12038
2719.81	12178
2721.707	12069
2723.603	11975
2725.501	12057
2727.396	12076
2729.292	12034
2731.186	11982
2733.081	12129
2734.976	11926
2736.87	12065
2738.762	12148
2740.653	11861
2742.546	12027
2744.437	11834
2746.329	12052
2748.22	11919
2750.11	12081
2751.999	12073
2753.889	12034
2755.778	11966
2757.666	11902
2759.553	12010
2761.44	11941
2763.328	11930
2765.215	11896
2767.101	12083
2768.986	11928
2770.87	12070
2772.754	11956
2774.638	11975
2776.523	12083
2778.405	11954
2780.288	11982
2782.17	11979
2784.051	11822
2785.934	11957
2787.814	11879
2789.694	11819
2791.574	11904
2793.453	11929
2795.332	11873
2797.212	11877
2799.088	11830
2800.966	11873
2802.843	11911
2804.719	11734
2806.597	11879
2808.471	11855
2810.346	11921
2812.221	11742
2814.094	11887
2815.969	11811
2817.843	11780
2819.714	11929
2821.587	11801
2823.459	11743
2825.329	11853
2827.202	11792
2829.072	11917
2830.942	11702
2832.811	11914
2834.68	11866
2836.549	11774
2838.418	11864
2840.284	11761
2842.152	11852
2844.018	11825
2845.885	11905
2847.751	11686
2849.616	11726
2851.482	11746
2853.345	11859
2855.208	11781
2857.074	11846
2858.937	11808
2860.799	11981
2862.66	11838
2864.522	11834
2866.385	11883
2868.245	11927
2870.104	12076
2871.964	11959
2873.824	11946
2875.683	11905
2877.542	12036
2879.4	12036
2881.257	12101
2883.114	12194
2884.97	12094
2886.827	12196
2888.683	12298
2890.537	12164
2892.392	12093
2894.246	12085
2896.1	12217
2897.954	12186
2899.807	12021
2901.66	12183
2903.51	12002
2905.362	12080
2907.214	12151
2909.065	12117
2910.915	12175
2912.765	12146
2914.613	12078
2916.463	12318
2918.311	12231
2920.158	12469
2922.006	12230
2923.853	12333
2925.698	12549
2927.546	12400
2929.392	12457
2931.236	12559
2933.081	12451
2934.924	12581
2936.77	12652
2938.613	12658
2940.455	12777
2942.298	12433
2944.139	12793
2945.982	12652
2947.823	12782
2949.662	12614
2951.503	12680
2953.342	12514
2955.182	12429
2957.021	12445
2958.858	12616
2960.697	12463
2962.534	12462
2964.37	12370
2966.207	12200
2968.044	12173
2969.879	11986
2971.714	11995
2973.548	12104
2975.383	12100
2977.218	12082
2979.051	12032
2980.883	11886
2982.715	12020
2984.547	11846
2986.379	12016
2988.21	11853
2990.04	11960
2991.87	11744
2993.7	11683
2995.53	11634
2997.359	11830
2999.187	11558
3001.015	11724
3002.842	11583
3004.669	11634
3006.497	11463
3008.323	11518
3010.148	11458
3011.974	11369
3013.797	11478
3015.623	11315
3017.447	11298
3019.27	11223
3021.094	11414
3022.915	11216
3024.737	11275
3026.56	11301
3028.38	11129
3030.201	11229
3032.022	11355
3033.84	11069
3035.662	11152
3037.481	11079
3039.298	11199
3041.117	11049
3042.933	11075
3044.752	11311
3046.568	11052
3048.385	11095
3050.2	11053
3052.016	11154
3053.83	10946
3055.646	11280
3057.46	11002
3059.272	10942
3061.086	11092
3062.898	11140
3064.711	10855
3066.524	11020
3068.335	10998
3070.145	10970
3071.956	10847
3073.766	10999
3075.576	11029
3077.385	10965
3079.193	10922
3081.002	10824
3082.81	10775
3084.618	10901
3086.425	10939
3088.231	10817
3090.036	10681
3091.842	10800
3093.648	10763
3095.452	10922
3097.257	10772
3099.06	10891
3100.863	10668
3102.666	10670
3104.47	10749
3106.272	10547
3108.073	10719
3109.875	10696
3111.676	10876
3113.477	10555
3115.277	10528
3117.077	10640
3118.874	10770
3120.673	10644
3122.473	10660
3124.271	10684
3126.066	10685
3127.863	10582
3129.66	10625
3131.456	10563
3133.252	10570
3135.047	10633
3136.842	10612
3138.635	10546
3140.429	10632
3142.223	10503
3144.016	10318
3145.808	10518
3147.6	10460
3149.392	10410
3151.183	10329
3152.975	10464
3154.765	10477
3156.553	10381
3158.344	10462
3160.132	10516
3161.922	10411
3163.71	10371
3165.497	10303
3167.285	10458
3169.071	10463
3170.858	10328
3172.645	10367
3174.429	10423
3176.214	10401
3177.998	10270
3179.783	10388
3181.568	10447
3183.351	10308
3185.133	10217
3186.915	10175
3188.698	10353
3190.481	10211
3192.261	10349
3194.042	10192
3195.822	10374
3197.601	10409
3199.381	10202
3201.161	10311
3202.939	10184
3204.717	10199
3206.495	10217
3208.272	10202
3210.05	10228
3211.826	10097
3213.602	10265
3215.376	9993
3217.151	10011
3218.927	10096
3220.702	10123
3222.476	10158
3224.249	10217
3226.021	10156
3227.793	10224
3229.567	10195
3231.339	10221
3233.109	10094
3234.88	10208
3236.651	10240
3238.421	10064
3240.191	10133
3241.96	9965
3243.728	10145
3245.497	10166
3247.263	10071
3249.033	9940
3250.799	10074
3252.566	10071
3254.331	10227
3256.097	10061
3257.863	10044
3259.628	10138
3261.392	10134
3263.156	10035
3264.919	10075
3266.683	10028
3268.447	9956
3270.208	10175
3271.969	10034
3273.731	10232
3275.492	10158
3277.253	10165
3279.013	10018
3280.773	10000
3282.532	10124
3284.291	10127
3286.05	9990
3287.808	10060
3289.566	10114
3291.323	9988
3293.079	10072
3294.835	10125
3296.593	10018
3298.348	10144
3300.102	10012
3301.857	10021
3303.611	10023
3305.366	10032
3307.119	9894
3308.872	10032
3310.624	9956
3312.376	10028
3314.129	9876
3315.881	9920
3317.631	9983
3319.38	9947
3321.13	10005
3322.88	10007
3324.631	9978
3326.379	9812
3328.126	10053
3329.875	9884
3331.622	9980
3333.371	9908
3335.116	10006
3336.863	9995
3338.609	10007
3340.353	9784
3342.1	9969
3343.845	9996
3345.588	9863
3347.332	9825
3349.074	9928
3350.817	9736
3352.56	9862
3354.303	9920
3356.043	9741
3357.785	9778
3359.525	9948
3361.268	9794
3363.007	9951
3364.745	9818
3366.485	9810
3368.223	9969
3369.962	9948
3371.701	9749
3373.438	9810
3375.174	9855
3376.911	9824
3378.647	9607
3380.384	9613
3382.118	9802
3383.854	9721
3385.588	9616
3387.322	9785
3389.057	9752
3390.79	9640
3392.522	9694
3394.255	9678
3395.987	9876
3397.719	9699
3399.451	9654
3401.181	9628
3402.911	9554
3404.641	9699
3406.371	9555
3408.101	9556
3409.83	9719
3411.558	9514
3413.285	9579
3415.011	9648
3416.739	9630
3418.467	9580
3420.193	9602
3421.919	9784
3423.644	9606
3425.368	9602
3427.094	9491
3428.818	9536
3430.542	9527
3432.264	9518
3433.987	9744
3435.712	9534
3437.434	9444
3439.155	9602
3440.876	9584
3442.596	9474
3444.317	9468
3446.039	9481
3447.757	9402
3449.477	9324
3451.195	9406
3452.914	9479
3454.632	9415
3456.35	9542
3458.067	9319
3459.784	9270
3461.5	9371
3463.216	9336
3464.932	9338
3466.647	9403
3468.362	9319
3470.076	9215
3471.789	9291
3473.505	9291
3475.217	9282
3476.929	9275
3478.641	9191
3480.354	9350
3482.066	9335
3483.777	9377
3485.487	9033
3487.197	9173
3488.908	9147
3490.617	9199
3492.327	9193
3494.035	9079
3495.743	9235
3497.451	9068
3499.158	9057
3500.866	9245
3502.572	9092
3504.278	9149
3505.984	9082
3507.689	9056
3509.396	9193
3511.1	9106
3512.804	9001
3514.508	9110
3516.211	9102
3517.913	9063
3519.616	8933
3521.319	9101
3523.021	8964
3524.722	8986
3526.422	9041
3528.124	9076
3529.824	9018
3531.524	9078
3533.222	9060
3534.921	8952
3536.62	9174
3538.318	8970
3540.016	8946
3541.714	8897
3543.41	8955
3545.107	8920
3546.803	8870
3548.5	8843
3550.194	8885
3551.889	8875
3553.583	8919
3555.279	8913
3556.972	8886
3558.666	8944
3560.358	8851
3562.051	8926
3563.742	8799
3565.435	8931
3567.126	8838
3568.817	8804
3570.507	8846
3572.197	8807
3573.888	8831
3575.577	8783
3577.265	8878
3578.954	8842
3580.642	8889
3582.329	8892
3584.017	8852
3585.704	8597
3587.391	8687
3589.077	8741
3590.762	8712
3592.449	8690
3594.133	8657
3595.817	8635
3597.501	8810
3599.185	8773
3600.869	8598
3602.552	8690
3604.234	8638
3605.916	8737
3607.598	8530
3609.279	8643
3610.961	8595
3612.642	8528
3614.321	8343
3616	8457
3617.68	8481
3619.36	8531
3621.039	8487
3622.716	8545
3624.394	8486
3626.071	8585
3627.748	8540
3629.425	8391
3631.102	8373
3632.778	8592
3634.452	8420
3636.127	8488
3637.803	8336
3639.477	8445
3641.151	8370
3642.823	8484
3644.497	8455
3646.171	8492
3647.842	8441
3649.515	8326
3651.185	8471
3652.857	8434
3654.527	8317
3656.198	8319
3657.868	8349
3659.537	8364
3661.207	8325
3662.875	8360
3664.544	8278
3666.212	8308
3667.879	8235
3669.546	8305
3671.212	8292
3672.88	8300
3674.546	8167
3676.211	8253
3677.875	8179
3679.541	8177
3681.205	8294
3682.87	8270
3684.533	8355
3686.196	8168
3687.859	8271
3689.521	8312
3691.184	8265
3692.845	8334
3694.507	8143
3696.167	8278
3697.827	8218
3699.487	8357
3701.148	8134
3702.808	8209
3704.466	8120
3706.125	8154
3707.783	8151
3709.442	8061
3711.099	8086
3712.757	8256
3714.412	8171
3716.068	8162
3717.725	8154
3719.381	8235
3721.036	8214
3722.689	8218
3724.344	8145
3725.998	8173
3727.652	8124
3729.305	8028
3730.958	7982
3732.61	8088
3734.262	8102
3735.915	8151
3737.565	8097
3739.217	8090
3740.866	8077
3742.516	8083
3744.165	8065
3745.816	8039
3747.464	8014
3749.113	8108
3750.761	7972
3752.409	8057
3754.057	7987
3755.703	8030
3757.35	8040
3758.996	7931
3760.641	7972
3762.289	7891
3763.933	7984
3765.577	7865
3767.222	7833
3768.865	7984
3770.508	7967
3772.152	7976
3773.796	7956
3775.438	7877
3777.079	7870
3778.721	7938
3780.363	7846
3782.003	7804
3783.643	7937
3785.283	7735
3786.923	7933
3788.563	7870
3790.203	7915
3791.841	7846
3793.479	7912
3795.115	7812
3796.753	7724
3798.391	7725
3800.027	7788
3801.664	7858
3803.299	7699
3804.935	7768
3806.571	7776
3808.206	7760
3809.839	7716
3811.473	7732
3813.107	7631
3814.74	7725
3816.375	7736
3818.006	7844
3819.638	7566
3821.27	7749
3822.9	7729
3824.532	7688
3826.163	7626
3827.792	7663
3829.423	7627
3831.051	7644
3832.682	7634
3834.311	7600
3835.938	7669
3837.566	7547
3839.193	7617
3840.821	7600
3842.448	7496
3844.075	7686
3845.7	7517
3847.325	7592
3848.951	7557
3850.576	7500
3852.201	7501
3853.825	7369
3855.448	7647
3857.072	7491
3858.694	7581
3860.318	7568
3861.939	7535
3863.562	7485
3865.183	7498
3866.804	7516
3868.426	7570
3870.045	7557
3871.666	7389
3873.285	7339
3874.904	7414
3876.524	7404
3878.142	7526
3879.76	7402
3881.378	7423
3882.995	7429
3884.612	7423
3886.229	7415
3887.845	7521
3889.461	7449
3891.076	7365
3892.691	7369
3894.307	7363
3895.922	7254
3897.536	7534
3899.149	7345
3900.761	7280
3902.374	7404
3903.988	7352
3905.6	7313
3907.212	7241
3908.822	7430
3910.433	7471
3912.045	7236
3913.655	7430
3915.265	7335
3916.875	7410
3918.483	7384
3920.093	7229
3921.702	7328
3923.309	7330
3924.917	7277
3926.523	7304
3928.13	7339
3929.739	7333
3931.344	7215
3932.95	7352
3934.555	7330
3936.159	7220
3937.766	7289
3939.369	7299
3940.974	7389
3942.577	7248
3944.181	7373
3945.783	7172
3947.386	7337
3948.989	7202
3950.59	7178
3952.191	7222
3953.791	7242
3955.394	7086
3956.994	7236
3958.593	7189
3960.192	7172
3961.791	7034
3963.392	7224
3964.99	7107
3966.588	7099
3968.185	7114
3969.782	7157
3971.379	7144
3972.976	7188
3974.572	7211
3976.168	7035
3977.763	6923
3979.358	7138
3980.954	7128
3982.548	7038
3984.142	7073
3985.736	7148
3987.329	7060
3988.922	7167
3990.516	6997
3992.108	7022
3993.698	6839
3995.29	7020
3996.881	7023
3998.473	6987
4000.064	7101
4001.653	6914
4003.242	6894
4004.832	6985
4006.422	6933
4008.01	6863
4009.598	6886
4011.186	6827
4012.773	6971
4014.36	6864
4015.947	6746
4017.534	6823
4019.119	6897
4020.705	6870
4022.291	6853
4023.876	6853
4025.461	6818
4027.044	6787
4028.627	6799
4030.211	6757
4031.795	6730
4033.378	6767
4034.96	6804
4036.542	6851
4038.124	6821
4039.704	6708
4041.286	6714
4042.867	6803
4044.447	6730
4046.026	6813
4047.606	6636
4049.187	6684
4050.765	6721
4052.343	6743
4053.92	6632
4055.498	6614
4057.076	6664
4058.654	6576
4060.23	6618
4061.806	6585
4063.381	6723
4064.957	6736
4066.533	6719
4068.107	6607
4069.682	6630
4071.256	6673
4072.829	6575
4074.404	6645
4075.977	6544
4077.549	6616
4079.121	6592
4080.693	6541
4082.265	6621
4083.836	6559
4085.407	6590
4086.977	6586
4088.547	6459
4090.117	6505
4091.687	6604
4093.256	6521
4094.825	6475
4096.392	6484
4097.96	6551
4099.528	6608
4101.097	6528
4102.663	6491
4104.229	6509
4105.795	6576
4107.361	6531
4108.928	6501
4110.493	6531
4112.058	6471
4113.621	6329
4115.186	6434
4116.75	6472
4118.313	6531
4119.876	6403
4121.438	6339
4123	6447
4124.562	6449
4126.125	6378
4127.686	6292
4129.246	6319
4130.807	6330
4132.367	6293
4133.927	6373
4135.486	6408
4137.046	6447
4138.604	6267
4140.162	6283
4141.72	6247
4143.279	6186
4144.836	6185
4146.393	6364
4147.949	6193
4149.505	6381
4151.062	6262
4152.617	6257
4154.172	6220
4155.727	6284
4157.281	6230
4158.836	6167
4160.39	6210
4161.943	6118
4163.496	6279
4165.048	6153
4166.601	6262
4168.154	6133
4169.706	6154
4171.257	6209
4172.808	6129
4174.358	6233
4175.909	6321
4177.458	6149
4179.008	6018
4180.558	6195
4182.106	6191
4183.655	6158
4185.204	6105
4186.751	6088
4188.298	6021
4189.845	6113
4191.392	6029
4192.939	6215
4194.485	5997
4196.031	6120
4197.576	5983
4199.121	5991
4200.666	5996
4202.211	5969
4203.754	6124
4205.298	6007
4206.84	5912
4208.384	5951
4209.927	6118
4211.47	5963
4213.011	5973
4214.552	6000
4216.094	6017
4217.635	5882
4219.175	6012
4220.716	5919
4222.255	6036
4223.793	5927
4225.335	5900
4226.873	5966
4228.411	6041
4229.948	6003
4231.486	5926
4233.024	6009
4234.562	5927
4236.098	5862
4237.634	5919
4239.169	5797
4240.705	5912
4242.241	6025
4243.776	5812
4245.31	5972
4246.844	5935
4248.378	5894
4249.911	5948
4251.445	5858
4252.978	5948
4254.51	5848
4256.042	5908
4257.574	5883
4259.107	5792
4260.638	5889
4262.169	5882
4263.699	5877
4265.228	5812
4266.759	5802
4268.289	5871
4269.818	5717
4271.345	5773
4272.874	5733
4274.402	5812
4275.931	5894
4277.458	5811
4278.985	5772
4280.512	5820
4282.037	5744
4283.564	5749
4285.089	5736
4286.615	5721
4288.139	5752
4289.664	5812
4291.187	5775
4292.712	5617
4294.235	5705
4295.759	5727
4297.281	5782
4298.804	5592
4300.327	5673
4301.849	5679
4303.37	5688
4304.891	5686
4306.412	5710
4307.933	5654
4309.453	5729
4310.973	5605
4312.492	5636
