398.1873	2772
400.7097	2716
403.2336	2804
405.7547	2771
408.2751	2778
410.7948	2756
413.3138	2776
415.83	2856
418.3497	2858
420.8666	2840
423.3829	2919
425.8985	2846
428.4133	2906
430.9275	2935
433.441	2904
435.9538	3003
438.4639	2937
440.9753	2939
443.4881	2913
445.9982	2915
448.5055	2930
451.0142	2892
453.5201	2875
456.0274	2992
458.5361	2921
461.04	2948
463.5453	2955
466.0478	2961
468.5517	2942
471.0549	2917
473.5574	2997
476.0572	2993
478.5584	2950
481.0568	3004
483.5545	2921
486.0557	3033
488.5521	2987
491.0478	2992
493.5449	2992
496.0392	3021
498.5349	3014
501.0299	2995
503.5222	3095
506.0139	3046
508.5048	3008
510.9991	3088
513.4887	3051
515.9777	3058
518.4659	2981
520.9534	3047
523.4403	3146
525.9306	3034
528.4161	3076
530.9009	3076
533.3851	3153
535.8687	2951
538.3535	3072
540.8356	2948
543.3171	3040
545.7979	2997
548.278	3084
550.7595	3053
553.2383	3075
555.7144	3049
558.1918	3120
560.6685	3075
563.1446	3157
565.6221	3077
568.0968	3103
570.5688	3106
573.0422	3123
575.515	3122
577.989	3153
580.4584	3098
582.9291	3201
585.3991	3164
587.8685	3189
590.3352	3142
592.8052	3144
595.2706	3195
597.7372	3161
600.2033	3066
602.6666	3138
605.1334	3049
607.5953	3154
610.0587	3087
612.5193	3171
614.9814	3191
617.4427	3166
619.9034	3142
622.3615	3185
624.8208	3120
627.2775	3048
629.7335	3160
632.1929	3149
634.6476	3109
637.1016	3097
639.5569	3065
642.0096	3120
644.4637	3192
646.9151	3095
649.3678	3202
651.8179	3168
654.2672	3212
656.7159	3132
659.166	3188
661.6154	3199
664.0622	3230
666.5082	3192
668.9537	3272
671.4005	3156
673.8445	3222
676.288	3205
678.7308	3178
681.1729	3192
683.6163	3219
686.0572	3230
688.4973	3220
690.9368	3188
693.3757	3187
695.8138	3231
698.2534	3226
700.6902	3326
703.1245	3261
705.56	3252
707.9949	3247
710.4311	3184
712.8647	3280
715.2957	3328
717.7279	3307
720.1595	3291
722.5905	3309
725.0208	3284
727.4505	3345
729.8795	3391
732.3058	3367
734.7336	3297
737.1626	3412
739.587	3346
742.0128	3482
744.4359	3334
746.8604	3380
749.2841	3403
751.7073	3407
754.1278	3489
756.5496	3491
758.9688	3362
761.3893	3435
763.8093	3452
766.2285	3380
768.6451	3450
771.0611	3501
773.4784	3394
775.895	3403
778.3091	3435
780.7244	3488
783.1371	3393
785.5493	3471
787.9626	3446
790.3754	3486
792.7856	3462
795.1951	3512
797.6039	3472
800.0121	3452
802.4236	3429
804.8306	3454
807.2369	3414
809.6425	3441
812.0475	3527
814.4538	3488
816.8575	3483
819.2606	3527
821.663	3548
824.0648	3457
826.4659	3549
828.8683	3445
831.2682	3526
833.6674	3489
836.066	3440
838.4639	3579
840.8632	3551
843.2579	3535
845.6539	3597
848.0493	3599
850.444	3460
852.84	3583
855.2315	3578
857.6243	3537
860.0165	3508
862.4081	3550
864.797	3515
867.1892	3585
869.5789	3610
871.9659	3567
874.3542	3584
876.74	3619
879.129	3560
881.5155	3532
883.8994	3554
886.2845	3502
888.6671	3630
891.051	3452
893.4343	3535
895.8169	3548
898.197	3534
900.5783	3527
902.9571	3570
905.3372	3523
907.7167	3612
910.0936	3635
912.4698	3595
914.8474	3671
917.2244	3602
919.5987	3600
921.9744	3701
924.3475	3709
926.72	3658
929.0918	3724
931.4669	3675
933.8375	3726
936.2074	3720
938.5767	3683
940.9454	3752
943.3154	3826
945.6829	3740
948.0497	3899
950.4178	3965
952.7833	4093
955.1483	4210
957.5145	4302
959.8782	4306
962.2412	4317
964.6036	4242
966.9655	4152
969.3266	4099
971.6871	3870
974.0471	3816
976.4064	3750
978.765	3685
981.125	3740
983.4824	3681
985.8373	3703
988.1935	3690
990.549	3609
992.9039	3665
995.2602	3704
997.6119	3679
999.965	3712
1002.317	3704
1004.667	3666
1007.02	3634
1009.371	3710
1011.719	3757
1014.068	3655
1016.415	3725
1018.765	3760
1021.111	3768
1023.458	3690
1025.804	3738
1028.147	3668
1030.49	3755
1032.837	3740
1035.179	3760
1037.522	3781
1039.862	3750
1042.204	3676
1044.546	3763
1046.884	3781
1049.224	3764
1051.562	3762
1053.899	3768
1056.237	3831
1058.575	3707
1060.91	3808
1063.244	3765
1065.58	3741
1067.913	3790
1070.248	3822
1072.579	3903
1074.911	3706
1077.242	3840
1079.572	3743
1081.905	3837
1084.234	3712
1086.562	3742
1088.89	3833
1091.217	3787
1093.544	3783
1095.871	3715
1098.197	3726
1100.521	3803
1102.845	3780
1105.169	3789
1107.491	3782
1109.814	3738
1112.135	3791
1114.456	3813
1116.776	3772
1119.096	3852
1121.415	3706
1123.734	3844
1126.052	3862
1128.369	3788
1130.686	3808
1133.002	3779
1135.318	3846
1137.632	3831
1139.945	3785
1142.258	3856
1144.573	3834
1146.884	3815
1149.196	3821
1151.505	3890
1153.816	3798
1156.124	3824
1158.435	3743
1160.742	3916
1163.051	3891
1165.356	3780
1167.663	3893
1169.97	3782
1172.276	3876
1174.579	3834
1176.881	3881
1179.186	3828
1181.487	3741
1183.79	3754
1186.092	3876
1188.392	3780
1190.691	3898
1192.991	3790
1195.291	3729
1197.588	3826
1199.885	3850
1202.181	3817
1204.479	3900
1206.775	3732
1209.07	3803
1211.363	3839
1213.656	3772
1215.949	3865
1218.241	3796
1220.534	3830
1222.825	3866
1225.115	3770
1227.405	3799
1229.693	3823
1231.984	3912
1234.271	3925
1236.558	3921
1238.845	3881
1241.131	3927
1243.416	3988
1245.703	3916
1247.987	4011
1250.269	3919
1252.552	3961
1254.834	3973
1257.118	3943
1259.399	3969
1261.678	3902
1263.958	3918
1266.237	3945
1268.516	3973
1270.794	3950
1273.072	3960
1275.347	3978
1277.624	3937
1279.899	3919
1282.175	3889
1284.449	3925
1286.722	3908
1288.995	3862
1291.266	3906
1293.54	4029
1295.81	3925
1298.081	3903
1300.35	3887
1302.62	3907
1304.889	3875
1307.156	3941
1309.425	3926
1311.69	3904
1313.957	3876
1316.222	3985
1318.488	3940
1320.751	3845
1323.016	4000
1325.278	3892
1327.54	3948
1329.803	3820
1332.065	3945
1334.325	3917
1336.584	3969
1338.843	3964
1341.101	3954
1343.36	3986
1345.617	3905
1347.876	3919
1350.131	3864
1352.387	3930
1354.643	3964
1356.897	3907
1359.151	3866
1361.403	3957
1363.656	3936
1365.909	3988
1368.16	4007
1370.409	4003
1372.659	3958
1374.909	3933
1377.157	3920
1379.407	3915
1381.655	3862
1383.9	3995
1386.147	3967
1388.393	3997
1390.64	4067
1392.885	4077
1395.127	4002
1397.37	3969
1399.614	3997
1401.854	4107
1404.098	3965
1406.339	4010
1408.578	4030
1410.818	4125
1413.056	4013
1415.297	4053
1417.533	4049
1419.771	3996
1422.006	3992
1424.243	4090
1426.479	4135
1428.715	4091
1430.948	4063
1433.182	4073
1435.414	4057
1437.647	4147
1439.88	4101
1442.11	4054
1444.342	4168
1446.571	4081
1448.799	4191
1451.029	4145
1453.258	4208
1455.485	4172
1457.711	4185
1459.937	4128
1462.164	4133
1464.39	4119
1466.614	4072
1468.838	4044
1471.06	4102
1473.283	4100
1475.506	3979
1477.727	4106
1479.949	4020
1482.169	4022
1484.389	4075
1486.609	3933
1488.828	3980
1491.045	3986
1493.261	4052
1495.477	4110
1497.693	4033
1499.91	3987
1502.125	4039
1504.339	3967
1506.553	4039
1508.766	3974
1510.979	4025
1513.191	3985
1515.402	4024
1517.613	3956
1519.823	4037
1522.033	4067
1524.242	4022
1526.451	4037
1528.657	3928
1530.865	3992
1533.072	4027
1535.278	4105
1537.484	3998
1539.687	4034
1541.892	4007
1544.096	3994
1546.299	3992
1548.502	4059
1550.703	4115
1552.905	4067
1555.104	4064
1557.303	4079
1559.505	4088
1561.703	4071
1563.902	3994
1566.099	4091
1568.295	4163
1570.494	4055
1572.689	4051
1574.883	4087
1577.079	4053
1579.272	4127
1581.467	4170
1583.659	4120
1585.853	4193
1588.044	4149
1590.234	4121
1592.424	4153
1594.615	4107
1596.806	4117
1598.994	4069
1601.182	4130
1603.369	4147
1605.557	4169
1607.744	4199
1609.929	4101
1612.114	4166
1614.298	4125
1616.482	4225
1618.667	4159
1620.85	4202
1623.032	4134
1625.214	4163
1627.395	4100
1629.575	4129
1631.755	4188
1633.935	4200
1636.114	4196
1638.292	4182
1640.471	4132
1642.647	4229
1644.823	4195
1647	4139
1649.175	4152
1651.348	4191
1653.525	4117
1655.698	4215
1657.87	4188
1660.043	4172
1662.213	4248
1664.387	4239
1666.558	4206
1668.727	4237
1670.896	4188
1673.064	4152
1675.233	4295
1677.401	4199
1679.569	4280
1681.735	4237
1683.902	4191
1686.066	4233
1688.233	4272
1690.397	4196
1692.559	4281
1694.723	4288
1696.885	4184
1699.048	4168
1701.21	4146
1703.37	4162
1705.53	4134
1707.689	4208
1709.849	4203
1712.009	4105
1714.166	4245
1716.323	4164
1718.479	4089
1720.634	4242
1722.793	4133
1724.948	4138
1727.102	4184
1729.255	4137
1731.408	4157
1733.562	4215
1735.714	4106
1737.865	4234
1740.016	4155
1742.166	4265
1744.316	4163
1746.467	4099
1748.616	4219
1750.764	4131
1752.911	4223
1755.056	4131
1757.205	4130
1759.35	4229
1761.496	4223
1763.641	4193
1765.785	4085
1767.927	4272
1770.072	4124
1772.214	4218
1774.355	4220
1776.496	4242
1778.637	4185
1780.778	4291
1782.918	4278
1785.057	4255
1787.194	4254
1789.333	4282
1791.472	4248
1793.608	4248
1795.745	4214
1797.879	4170
1800.015	4155
1802.148	4253
1804.284	4287
1806.417	4239
1808.548	4209
1810.682	4308
1812.812	4267
1814.946	4255
1817.075	4290
1819.205	4204
1821.335	4121
1823.463	4321
1825.59	4250
1827.721	4203
1829.847	4320
1831.973	4180
1834.098	4176
1836.223	4182
1838.351	4249
1840.475	4236
1842.598	4200
1844.721	4257
1846.843	4212
1848.966	4232
1851.087	4092
1853.21	4279
1855.33	4157
1857.449	4269
1859.568	4195
1861.688	4203
1863.806	4201
1865.924	4229
1868.039	4173
1870.155	4278
1872.273	4276
1874.388	4217
1876.503	4174
1878.617	4270
1880.73	4170
1882.844	4237
1884.956	4232
1887.068	4252
1889.18	4235
1891.291	4311
1893.4	4208
1895.511	4260
1897.621	4252
1899.73	4224
1901.837	4215
1903.944	4316
1906.053	4222
1908.159	4228
1910.265	4272
1912.369	4274
1914.474	4299
1916.577	4339
1918.683	4273
1920.785	4261
1922.888	4349
1924.989	4328
1927.091	4336
1929.193	4269
1931.294	4378
1933.393	4310
1935.493	4280
1937.59	4374
1939.689	4346
1941.788	4313
1943.884	4301
1945.98	4378
1948.077	4288
1950.171	4328
1952.267	4313
1954.361	4331
1956.455	4229
1958.548	4309
1960.64	4360
1962.733	4228
1964.824	4252
1966.915	4245
1969.005	4166
1971.096	4331
1973.185	4260
1975.275	4342
1977.363	4285
1979.45	4377
1981.537	4285
1983.623	4280
1985.711	4204
1987.796	4184
1989.881	4320
1991.965	4287
1994.047	4327
1996.132	4366
1998.215	4258
2000.297	4274
2002.378	4242
2004.46	4228
2006.54	4244
2008.62	4229
2010.7	4280
2012.779	4216
2014.858	4248
2016.934	4244
2019.013	4350
2021.09	4371
2023.165	4191
2025.241	4254
2027.317	4260
2029.39	4384
2031.466	4234
2033.538	4209
2035.612	4185
2037.683	4397
2039.755	4320
2041.827	4303
2043.898	4287
2045.968	4333
2048.038	4273
2050.106	4349
2052.177	4397
2054.244	4285
2056.313	4323
2058.379	4268
2060.444	4330
2062.511	4304
2064.577	4333
2066.641	4313
2068.705	4262
2070.77	4221
2072.832	4265
2074.896	4392
2076.958	4332
2079.02	4375
2081.081	4329
2083.141	4325
2085.2	4235
2087.261	4251
2089.319	4275
2091.377	4330
2093.435	4301
2095.492	4342
2097.552	4295
2099.607	4348
2101.663	4315
2103.718	4332
2105.771	4300
2107.826	4314
2109.879	4249
2111.932	4380
2113.985	4295
2116.037	4387
2118.088	4333
2120.141	4344
2122.191	4312
2124.239	4333
2126.288	4366
2128.337	4390
2130.387	4310
2132.434	4318
2134.481	4287
2136.528	4308
2138.574	4264
2140.618	4339
2142.665	4295
2144.71	4308
2146.753	4240
2148.797	4378
2150.838	4289
2152.883	4198
2154.923	4312
2156.965	4298
2159.007	4338
2161.046	4303
2163.086	4307
2165.126	4326
2167.163	4208
2169.202	4207
2171.239	4273
2173.277	4206
2175.314	4274
2177.349	4205
2179.385	4349
2181.42	4342
2183.453	4152
2185.49	4258
2187.522	4166
2189.555	4350
2191.586	4202
2193.619	4255
2195.651	4220
2197.682	4154
2199.711	4230
2201.74	4269
2203.769	4220
2205.799	4284
2207.828	4165
2209.855	4210
2211.882	4176
2213.908	4143
2215.934	4269
2217.961	4244
2219.986	4172
2222.01	4219
2224.034	4151
2226.057	4198
2228.08	4176
2230.104	4222
2232.124	4235
2234.145	4295
2236.166	4211
2238.186	4216
2240.207	4218
2242.227	4211
2244.244	4204
2246.262	4247
2248.28	4301
2250.299	4198
2252.314	4168
2254.33	4217
2256.346	4184
2258.36	4245
2260.375	4241
2262.391	4317
2264.403	4179
2266.416	4277
2268.427	4198
2270.44	4222
2272.453	4290
2274.463	4240
2276.474	4193
2278.483	4217
2280.493	4212
2282.501	4274
2284.51	4362
2286.518	4248
2288.524	4210
2290.532	4281
2292.537	4281
2294.544	4177
2296.55	4125
2298.554	4274
2300.557	4267
2302.562	4239
2304.566	4294
2306.568	4201
2308.569	4227
2310.572	4289
2312.573	4292
2314.573	4253
2316.574	4195
2318.573	4274
2320.571	4205
2322.571	4220
2324.569	4149
2326.567	4296
2328.564	4165
2330.56	4293
2332.556	4183
2334.551	4179
2336.546	4124
2338.542	4211
2340.535	4190
2342.529	4176
2344.521	4189
2346.512	4231
2348.505	4195
2350.497	4184
2352.487	4288
2354.478	4148
2356.468	4097
2358.457	4217
2360.446	4184
2362.434	4198
2364.422	4220
2366.408	4213
2368.395	4089
2370.383	4225
2372.369	4199
2374.353	4110
2376.338	4070
2378.321	4136
2380.307	4223
2382.29	4112
2384.272	4205
2386.254	4145
2388.235	4163
2390.218	4146
2392.198	4194
2394.179	4108
2396.157	4140
2398.137	4117
2400.115	4153
2402.095	4154
2404.072	4182
2406.048	4226
2408.026	4076
2410.001	4167
2411.977	4133
2413.953	4136
2415.927	4122
2417.9	4100
2419.875	4189
2421.847	4067
2423.821	4048
2425.792	4190
2427.763	4169
2429.736	4066
2431.706	4146
2433.677	4165
2435.646	4164
2437.615	4184
2439.583	4102
2441.551	4151
2443.519	4168
2445.486	4123
2447.452	4169
2449.418	4166
2451.383	4151
2453.348	4080
2455.314	4137
2457.278	4055
2459.241	4078
2461.205	4127
2463.167	4085
2465.131	4098
2467.091	4183
2469.052	4129
2471.012	4088
2472.972	4062
2474.932	4055
2476.891	4032
2478.85	4076
2480.808	4048
2482.766	4123
2484.722	4166
2486.68	4099
2488.636	4156
2490.591	4124
2492.546	4030
2494.5	4068
2496.456	4087
2498.41	4110
2500.362	4070
2502.315	4001
2504.266	4076
2506.218	4104
2508.169	4080
2510.121	3961
2512.07	4117
2514.019	4074
2515.968	4082
2517.918	4078
2519.866	4050
2521.813	4067
2523.76	4096
2525.707	4114
2527.653	4093
2529.599	4091
2531.543	4044
2533.489	4045
2535.433	4058
2537.376	4038
2539.32	4096
2541.264	4096
2543.205	4090
2545.147	4088
2547.087	4170
2549.029	4090
2550.969	4166
2552.908	4065
2554.847	4114
2556.786	4078
2558.724	4084
2560.663	4073
2562.6	4175
2564.537	4026
2566.473	4123
2568.408	4102
2570.345	4003
2572.28	4166
2574.214	4088
2576.148	4104
2578.081	4190
2580.014	4096
2581.947	4092
2583.879	4138
2585.81	4090
2587.741	4088
2589.67	4110
2591.602	4086
2593.532	4136
2595.461	4152
2597.388	4106
2599.316	4087
2601.244	4051
2603.172	4056
2605.098	4081
2607.023	3981
2608.949	4092
2610.873	4111
2612.8	4074
2614.723	4127
2616.647	4040
2618.569	4097
2620.493	4035
2622.416	4098
2624.338	4101
2626.258	4114
2628.179	4149
2630.099	4083
2632.019	4159
2633.939	4123
2635.857	4189
2637.775	4156
2639.694	4137
2641.61	4178
2643.528	4046
2645.444	4075
2647.361	4120
2649.276	4150
2651.19	4206
2653.105	4035
2655.019	4040
2656.934	4135
2658.846	4162
2660.758	4087
2662.67	4057
2664.583	4100
2666.493	4120
2668.404	4091
2670.313	3961
2672.223	4102
2674.134	3990
2676.042	4070
2677.95	4085
2679.858	4140
2681.765	4048
2683.673	4023
2685.579	4089
2687.483	4062
2689.389	4149
2691.294	3988
2693.198	4079
2695.104	4058
2697.006	4176
2698.909	4024
2700.811	4101
2702.713	4093
2704.615	4107
2706.516	3983
2708.417	4093
2710.316	4032
2712.216	4059
2714.115	4058
2716.014	4026
2717.913	3978
2719.81	4030
2721.707	4025
2723.603	4012
2725.501	4026
2727.396	3998
2729.292	4041
2731.186	4000
2733.081	4100
2734.976	4032
2736.87	3999
2738.762	4046
2740.653	3968
2742.546	4037
2744.437	4016
2746.329	4000
2748.22	4133
2750.11	4052
2751.999	4071
2753.889	4064
2755.778	4057
2757.666	3920
2759.553	4065
2761.44	4055
2763.328	4059
2765.215	4058
2767.101	4045
2768.986	4052
2770.87	3980
2772.754	4023
2774.638	3969
2776.523	3985
2778.405	3958
2780.288	4023
2782.17	4030
2784.051	4020
2785.934	3994
2787.814	4093
2789.694	4041
2791.574	3951
2793.453	4036
2795.332	3974
2797.212	3996
2799.088	3966
2800.966	3978
2802.843	4011
2804.719	3971
2806.597	4067
2808.471	3973
2810.346	3933
2812.221	3923
2814.094	3907
2815.969	3988
2817.843	3954
2819.714	3974
2821.587	4034
2823.459	4018
2825.329	3985
2827.202	3929
2829.072	4051
2830.942	3932
2832.811	3969
2834.68	3975
2836.549	3917
2838.418	3979
2840.284	3980
2842.152	3928
2844.018	3969
2845.885	4019
2847.751	3967
2849.616	3992
2851.482	3997
2853.345	3984
2855.208	4048
2857.074	4049
2858.937	3978
2860.799	4030
2862.66	4022
2864.522	3946
2866.385	4046
2868.245	4031
2870.104	4086
2871.964	4083
2873.824	4097
2875.683	4157
2877.542	4133
2879.4	4191
2881.257	4115
2883.114	4198
2884.97	4165
2886.827	4183
2888.683	4285
2890.537	4296
2892.392	4109
2894.246	4184
2896.1	4126
2897.954	4197
2899.807	4224
2901.66	4155
2903.51	4246
2905.362	4155
2907.214	4136
2909.065	4118
2910.915	4185
2912.765	4248
2914.613	4192
2916.463	4250
2918.311	4286
2920.158	4213
2922.006	4332
2923.853	4300
2925.698	4322
2927.546	4335
2929.392	4365
2931.236	4365
2933.081	4437
2934.924	4403
2936.77	4417
2938.613	4469
2940.455	4450
2942.298	4451
2944.139	4509
2945.982	4498
2947.823	4490
2949.662	4370
2951.503	4431
2953.342	4457
2955.182	4454
2957.021	4435
2958.858	4404
2960.697	4350
2962.534	4224
2964.37	4315
2966.207	4300
2968.044	4231
2969.879	4233
2971.714	4281
2973.548	4242
2975.383	4234
2977.218	4284
2979.051	4202
2980.883	4153
2982.715	4107
2984.547	4227
2986.379	4139
2988.21	4102
2990.04	4138
2991.87	4106
2993.7	4066
2995.53	4054
2997.359	4087
2999.187	4136
3001.015	3957
3002.842	3927
3004.669	4054
3006.497	3935
3008.323	3991
3010.148	3960
3011.974	3904
3013.797	3872
3015.623	3922
3017.447	3943
3019.27	3889
3021.094	3890
3022.915	3848
3024.737	3802
3026.56	3854
3028.38	3890
3030.201	3820
3032.022	3841
3033.84	3894
3035.662	3845
3037.481	3835
3039.298	3820
3041.117	3903
3042.933	3856
3044.752	3761
3046.568	3850
3048.385	3815
3050.2	3868
3052.016	3807
3053.83	3758
3055.646	3867
3057.46	3876
3059.272	3855
3061.086	3812
3062.898	3830
3064.711	3700
3066.524	3727
3068.335	3868
3070.145	3728
3071.956	3736
3073.766	3762
3075.576	3876
3077.385	3779
3079.193	3708
3081.002	3855
3082.81	3697
3084.618	3740
3086.425	3714
3088.231	3774
3090.036	3713
3091.842	3722
3093.648	3855
3095.452	3773
3097.257	3683
3099.06	3744
3100.863	3715
3102.666	3844
3104.47	3704
3106.272	3709
3108.073	3729
3109.875	3711
3111.676	3691
3113.477	3673
3115.277	3731
3117.077	3652
3118.874	3741
3120.673	3673
3122.473	3655
3124.271	3697
3126.066	3632
3127.863	3615
3129.66	3626
3131.456	3726
3133.252	3702
3135.047	3639
3136.842	3672
3138.635	3671
3140.429	3672
3142.223	3699
3144.016	3734
3145.808	3761
3147.6	3680
3149.392	3676
3151.183	3615
3152.975	3720
3154.765	3562
3156.553	3652
3158.344	3640
3160.132	3577
3161.922	3673
3163.71	3599
3165.497	3646
3167.285	3663
3169.071	3641
3170.858	3555
3172.645	3620
3174.429	3593
3176.214	3576
3177.998	3624
3179.783	3622
3181.568	3611
3183.351	3612
3185.133	3635
3186.915	3520
3188.698	3578
3190.481	3545
3192.261	3690
3194.042	3679
3195.822	3577
3197.601	3560
3199.381	3606
3201.161	3516
3202.939	3620
3204.717	3587
3206.495	3624
3208.272	3535
3210.05	3619
3211.826	3555
3213.602	3606
3215.376	3566
3217.151	3543
3218.927	3570
3220.702	3534
3222.476	3558
3224.249	3559
3226.021	3584
3227.793	3542
3229.567	3568
3231.339	3573
3233.109	3544
3234.88	3558
3236.651	3565
3238.421	3559
3240.191	3626
3241.96	3630
3243.728	3606
3245.497	3593
3247.263	3527
3249.033	3597
3250.799	3624
3252.566	3522
3254.331	3508
3256.097	3562
3257.863	3514
3259.628	3515
3261.392	3556
3263.156	3571
3264.919	3569
3266.683	3623
3268.447	3582
3270.208	3561
3271.969	3515
3273.731	3549
3275.492	3550
3277.253	3626
3279.013	3599
3280.773	3510
3282.532	3464
3284.291	3627
3286.05	3547
3287.808	3600
3289.566	3518
3291.323	3608
3293.079	3507
3294.835	3526
3296.593	3533
3298.348	3535
3300.102	3556
3301.857	3564
3303.611	3534
3305.366	3562
3307.119	3575
3308.872	3478
3310.624	3551
3312.376	3475
3314.129	3493
3315.881	3499
3317.631	3552
3319.38	3601
3321.13	3526
3322.88	3577
3324.631	3573
3326.379	3470
3328.126	3524
3329.875	3446
3331.622	3521
3333.371	3470
3335.116	3570
3336.863	3485
3338.609	3534
3340.353	3534
3342.1	3476
3343.845	3528
3345.588	3504
3347.332	3476
3349.074	3521
3350.817	3481
3352.56	3501
3354.303	3563
3356.043	3434
3357.785	3488
3359.525	3574
3361.268	3522
3363.007	3475
3364.745	3486
3366.485	3529
3368.223	3537
3369.962	3501
3371.701	3449
3373.438	3478
3375.174	3488
3376.911	3509
3378.647	3476
3380.384	3499
3382.118	3487
3383.854	3469
3385.588	3477
3387.322	3511
3389.057	3491
3390.79	3429
3392.522	3467
3394.255	3387
3395.987	3500
3397.719	3460
3399.451	3408
3401.181	3448
3402.911	3409
3404.641	3492
3406.371	3464
3408.101	3435
3409.83	3449
3411.558	3395
3413.285	3443
3415.011	3397
3416.739	3370
3418.467	3487
3420.193	3392
3421.919	3489
3423.644	3493
3425.368	3377
3427.094	3421
3428.818	3405
3430.542	3352
3432.264	3419
3433.987	3486
3435.712	3347
3437.434	3418
3439.155	3372
3440.876	3456
3442.596	3348
3444.317	3384
3446.039	3387
3447.757	3399
3449.477	3348
3451.195	3413
3452.914	3422
3454.632	3441
3456.35	3344
3458.067	3456
3459.784	3366
3461.5	3380
3463.216	3286
3464.932	3353
3466.647	3309
3468.362	3358
3470.076	3361
3471.789	3362
3473.505	3348
3475.217	3392
3476.929	3364
3478.641	3387
3480.354	3404
3482.066	3308
3483.777	3326
3485.487	3296
3487.197	3321
3488.908	3217
3490.617	3302
3492.327	3329
3494.035	3279
3495.743	3252
3497.451	3307
3499.158	3153
3500.866	3256
3502.572	3229
3504.278	3224
3505.984	3330
3507.689	3235
3509.396	3255
3511.1	3296
3512.804	3280
3514.508	3201
3516.211	3248
3517.913	3236
3519.616	3255
3521.319	3246
3523.021	3271
3524.722	3292
3526.422	3272
3528.124	3281
3529.824	3207
3531.524	3183
3533.222	3155
3534.921	3246
3536.62	3188
3538.318	3211
3540.016	3179
3541.714	3233
3543.41	3176
3545.107	3267
3546.803	3233
3548.5	3174
3550.194	3136
3551.889	3176
3553.583	3206
3555.279	3208
3556.972	3218
3558.666	3179
3560.358	3281
3562.051	3232
3563.742	3168
3565.435	3249
3567.126	3161
3568.817	3163
3570.507	3208
3572.197	3196
3573.888	3115
3575.577	3244
3577.265	3105
3578.954	3132
3580.642	3151
3582.329	3132
3584.017	3191
3585.704	3097
3587.391	3170
3589.077	3164
3590.762	3096
3592.449	3175
3594.133	3150
3595.817	3113
3597.501	3147
3599.185	3083
3600.869	3066
3602.552	3125
3604.234	3159
3605.916	3091
3607.598	3033
3609.279	3058
3610.961	3091
3612.642	3081
3614.321	3050
3616	2972
3617.68	3139
3619.36	3079
3621.039	3058
3622.716	3106
3624.394	3116
3626.071	3009
3627.748	3039
3629.425	3008
3631.102	3013
3632.778	3129
3634.452	2993
3636.127	3003
3637.803	3075
3639.477	3084
3641.151	3035
3642.823	3093
3644.497	3025
3646.171	3038
3647.842	3073
3649.515	3013
3651.185	3056
3652.857	3060
3654.527	3007
3656.198	3082
3657.868	3004
3659.537	2990
3661.207	3016
3662.875	3044
3664.544	2968
3666.212	3000
3667.879	2985
3669.546	2982
3671.212	3003
3672.88	2992
3674.546	3009
3676.211	3044
3677.875	2984
3679.541	3025
3681.205	3051
3682.87	3041
3684.533	2991
3686.196	2945
3687.859	3027
3689.521	2941
3691.184	3000
3692.845	2990
3694.507	3014
3696.167	2962
3697.827	3107
3699.487	2938
3701.148	2952
3702.808	2944
3704.466	2982
3706.125	2923
3707.783	2979
3709.442	2948
3711.099	2980
3712.757	3036
3714.412	2941
3716.068	2888
3717.725	2972
3719.381	2933
3721.036	2977
3722.689	2945
3724.344	2967
3725.998	2946
3727.652	2982
3729.305	2910
3730.958	2967
3732.61	2920
3734.262	2867
3735.915	2962
3737.565	2946
3739.217	2952
3740.866	2896
3742.516	2915
3744.165	2913
3745.816	2896
3747.464	2870
3749.113	2972
3750.761	2936
3752.409	2892
3754.057	2975
3755.703	2955
3757.35	2929
3758.996	2910
3760.641	2908
3762.289	2928
3763.933	2914
3765.577	2858
3767.222	2816
3768.865	2877
3770.508	2892
3772.152	2875
3773.796	2843
3775.438	2805
3777.079	2903
3778.721	2862
3780.363	2940
3782.003	2844
3783.643	2902
3785.283	2844
3786.923	2814
3788.563	2867
3790.203	2864
3791.841	2908
3793.479	2924
3795.115	2861
3796.753	2886
3798.391	2825
3800.027	2842
3801.664	2830
3803.299	2831
3804.935	2739
3806.571	2791
3808.206	2789
3809.839	2858
3811.473	2835
3813.107	2781
3814.74	2867
3816.375	2839
3818.006	2855
3819.638	2813
3821.27	2806
3822.9	2806
3824.532	2820
3826.163	2795
3827.792	2797
3829.423	2768
3831.051	2818
3832.682	2749
3834.311	2700
3835.938	2758
3837.566	2767
3839.193	2794
3840.821	2785
3842.448	2797
3844.075	2764
3845.7	2750
3847.325	2772
3848.951	2777
3850.576	2746
3852.201	2775
3853.825	2728
3855.448	2792
3857.072	2747
3858.694	2786
3860.318	2746
3861.939	2733
3863.562	2777
3865.183	2791
3866.804	2732
3868.426	2744
3870.045	2823
3871.666	2783
3873.285	2671
3874.904	2722
3876.524	2753
3878.142	2738
3879.76	2617
3881.378	2773
3882.995	2680
3884.612	2733
3886.229	2722
3887.845	2715
3889.461	2718
3891.076	2695
3892.691	2712
3894.307	2747
3895.922	2678
3897.536	2692
3899.149	2698
3900.761	2628
3902.374	2712
3903.988	2756
3905.6	2716
3907.212	2752
3908.822	2697
3910.433	2757
3912.045	2726
3913.655	2660
3915.265	2688
3916.875	2642
3918.483	2706
3920.093	2681
3921.702	2674
3923.309	2696
3924.917	2674
3926.523	2684
3928.13	2689
3929.739	2713
3931.344	2635
3932.95	2714
3934.555	2699
3936.159	2605
3937.766	2724
3939.369	2657
3940.974	2712
3942.577	2679
3944.181	2678
3945.783	2613
3947.386	2737
3948.989	2707
3950.59	2668
3952.191	2630
3953.791	2672
3955.394	2619
3956.994	2631
3958.593	2624
3960.192	2603
3961.791	2613
3963.392	2642
3964.99	2609
3966.588	2650
3968.185	2632
3969.782	2668
3971.379	2589
3972.976	2637
3974.572	2694
3976.168	2529
3977.763	2676
3979.358	2548
3980.954	2548
3982.548	2677
3984.142	2596
3985.736	2613
3987.329	2581
3988.922	2696
3990.516	2594
3992.108	2623
3993.698	2607
3995.29	2609
3996.881	2604
3998.473	2567
4000.064	2578
4001.653	2482
4003.242	2535
4004.832	2531
4006.422	2552
4008.01	2533
4009.598	2547
4011.186	2534
4012.773	2588
4014.36	2594
4015.947	2508
4017.534	2515
4019.119	2578
4020.705	2566
4022.291	2524
4023.876	2538
4025.461	2560
4027.044	2532
4028.627	2454
4030.211	2551
4031.795	2477
4033.378	2582
4034.96	2527
4036.542	2520
4038.124	2529
4039.704	2516
4041.286	2449
4042.867	2506
4044.447	2529
4046.026	2508
4047.606	2499
4049.187	2492
4050.765	2483
4052.343	2485
4053.92	2498
4055.498	2469
4057.076	2493
4058.654	2527
4060.23	2487
4061.806	2563
4063.381	2474
4064.957	2476
4066.533	2525
4068.107	2516
4069.682	2500
4071.256	2489
4072.829	2442
4074.404	2470
4075.977	2533
4077.549	2446
4079.121	2470
4080.693	2429
4082.265	2438
4083.836	2450
4085.407	2476
4086.977	2475
4088.547	2424
4090.117	2478
4091.687	2445
4093.256	2483
4094.825	2478
4096.392	2445
4097.96	2464
4099.528	2428
4101.097	2418
4102.663	2413
4104.229	2397
4105.795	2454
4107.361	2391
4108.928	2448
4110.493	2518
4112.058	2484
4113.621	2435
4115.186	2413
4116.75	2368
4118.313	2411
4119.876	2434
4121.438	2427
4123	2401
4124.562	2390
4126.125	2403
4127.686	2437
4129.246	2451
4130.807	2373
4132.367	2411
4133.927	2437
4135.486	2424
4137.046	2374
4138.604	2406
4140.162	2411
4141.72	2373
4143.279	2304
4144.836	2288
4146.393	2341
4147.949	2395
4149.505	2332
4151.062	2352
4152.617	2384
4154.172	2325
4155.727	2328
4157.281	2315
4158.836	2344
4160.39	2352
4161.943	2369
4163.496	2334
4165.048	2343
4166.601	2297
4168.154	2369
4169.706	2316
4171.257	2382
4172.808	2338
4174.358	2342
4175.909	2323
4177.458	2224
4179.008	2311
4180.558	2281
4182.106	2314
4183.655	2323
4185.204	2304
4186.751	2344
4188.298	2328
4189.845	2312
4191.392	2412
4192.939	2289
4194.485	2299
4196.031	2350
4197.576	2333
4199.121	2317
4200.666	2329
4202.211	2303
4203.754	2302
4205.298	2267
4206.84	2326
4208.384	2263
4209.927	2280
4211.47	2291
4213.011	2286
4214.552	2321
4216.094	2298
4217.635	2305
4219.175	2249
4220.716	2257
4222.255	2271
4223.793	2302
4225.335	2226
4226.873	2274
4228.411	2307
4229.948	2210
4231.486	2192
4233.024	2297
4234.562	2251
4236.098	2269
4237.634	2308
4239.169	2238
4240.705	2338
4242.241	2315
4243.776	2249
4245.31	2253
4246.844	2252
4248.378	2222
4249.911	2210
4251.445	2253
4252.978	2238
4254.51	2262
4256.042	2209
4257.574	2208
4259.107	2276
4260.638	2262
4262.169	2260
4263.699	2201
4265.228	2233
4266.759	2232
4268.289	2212
4269.818	2210
4271.345	2232
4272.874	2166
4274.402	2193
4275.931	2210
4277.458	2221
4278.985	2181
4280.512	2197
4282.037	2209
4283.564	2242
4285.089	2157
4286.615	2230
4288.139	2186
4289.664	2153
4291.187	2192
4292.712	2137
4294.235	2169
4295.759	2234
4297.281	2223
4298.804	2186
4300.327	2173
4301.849	2202
4303.37	2136
4304.891	2224
4306.412	2161
4307.933	2231
4309.453	2169
4310.973	2110
4312.492	2145
