398.1873	3147
400.7097	3243
403.2336	3212
405.7547	3267
408.2751	3303
410.7948	3305
413.3138	3239
415.83	3359
418.3497	3394
420.8666	3330
423.3829	3359
425.8985	3408
428.4133	3438
430.9275	3428
433.441	3400
435.9538	3432
438.4639	3447
440.9753	3395
443.4881	3407
445.9982	3413
448.5055	3478
451.0142	3492
453.5201	3485
456.0274	3507
458.5361	3484
461.04	3463
463.5453	3440
466.0478	3474
468.5517	3547
471.0549	3539
473.5574	3514
476.0572	3544
478.5584	3479
481.0568	3542
483.5545	3447
486.0557	3601
488.5521	3522
491.0478	3517
493.5449	3545
496.0392	3583
498.5349	3579
501.0299	3544
503.5222	3559
506.0139	3573
508.5048	3672
510.9991	3658
513.4887	3657
515.9777	3666
518.4659	3584
520.9534	3599
523.4403	3572
525.9306	3631
528.4161	3606
530.9009	3647
533.3851	3581
535.8687	3605
538.3535	3593
540.8356	3629
543.3171	3608
545.7979	3651
548.278	3682
550.7595	3694
553.2383	3571
555.7144	3575
558.1918	3606
560.6685	3648
563.1446	3629
565.6221	3577
568.0968	3716
570.5688	3677
573.0422	3680
575.515	3654
577.989	3711
580.4584	3661
582.9291	3670
585.3991	3747
587.8685	3751
590.3352	3727
592.8052	3692
595.2706	3709
597.7372	3722
600.2033	3730
602.6666	3733
605.1334	3730
607.5953	3773
610.0587	3716
612.5193	3677
614.9814	3779
617.4427	3740
619.9034	3754
622.3615	3699
624.8208	3716
627.2775	3730
629.7335	3760
632.1929	3669
634.6476	3764
637.1016	3690
639.5569	3774
642.0096	3753
644.4637	3729
646.9151	3790
649.3678	3662
651.8179	3794
654.2672	3841
656.7159	3761
659.166	3806
661.6154	3722
664.0622	3798
666.5082	3726
668.9537	3861
671.4005	3835
673.8445	3820
676.288	3873
678.7308	3893
681.1729	3834
683.6163	3802
686.0572	3881
688.4973	3972
690.9368	3854
693.3757	3867
695.8138	3890
698.2534	3949
700.6902	3877
703.1245	3876
705.56	3901
707.9949	3917
710.4311	3905
712.8647	3908
715.2957	3938
717.7279	3991
720.1595	3844
722.5905	3880
725.0208	3896
727.4505	3864
729.8795	3921
732.3058	3975
734.7336	3942
737.1626	4070
739.587	4072
742.0128	4058
744.4359	4131
746.8604	3913
749.2841	4011
751.7073	3997
754.1278	4072
756.5496	4160
758.9688	4060
761.3893	4053
763.8093	4104
766.2285	4064
768.6451	4205
771.0611	4054
773.4784	4098
775.895	4143
778.3091	4187
780.7244	4103
783.1371	4128
785.5493	4092
787.9626	4066
790.3754	4101
792.7856	3983
795.1951	4040
797.6039	4170
800.0121	4067
802.4236	4141
804.8306	4104
807.2369	4137
809.6425	4213
812.0475	4080
814.4538	4113
816.8575	4217
819.2606	4179
821.663	4200
824.0648	4135
826.4659	4143
828.8683	4184
831.2682	4148
833.6674	4197
836.066	4243
838.4639	4192
840.8632	4287
843.2579	4179
845.6539	4209
848.0493	4290
850.444	4210
852.84	4158
855.2315	4254
857.6243	4110
860.0165	4236
862.4081	4183
864.797	4266
867.1892	4142
869.5789	4204
871.9659	4173
874.3542	4310
876.74	4219
879.129	4300
881.5155	4206
883.8994	4182
886.2845	4302
888.6671	4249
891.051	4188
893.4343	4275
895.8169	4253
898.197	4217
900.5783	4265
902.9571	4326
905.3372	4244
907.7167	4199
910.0936	4306
912.4698	4264
914.8474	4258
917.2244	4324
919.5987	4405
921.9744	4416
924.3475	4458
926.72	4326
929.0918	4425
931.4669	4367
933.8375	4422
936.2074	4380
938.5767	4433
940.9454	4501
943.3154	4429
945.6829	4413
948.0497	4508
950.4178	4656
952.7833	4647
955.1483	4772
957.5145	4856
959.8782	4908
962.2412	4915
964.6036	4854
966.9655	4714
969.3266	4645
971.6871	4635
974.0471	4419
976.4064	4494
978.765	4438
981.125	4396
983.4824	4407
985.8373	4436
988.1935	4440
990.549	4300
992.9039	4394
995.2602	4382
997.6119	4357
999.965	4445
1002.317	4510
1004.667	4403
1007.02	4382
1009.371	4339
1011.719	4384
1014.068	4380
1016.415	4544
1018.765	4453
1021.111	4387
1023.458	4417
1025.804	4403
1028.147	4509
1030.49	4510
1032.837	4496
1035.179	4371
1037.522	4423
1039.862	4455
1042.204	4475
1044.546	4528
1046.884	4439
1049.224	4485
1051.562	4471
1053.899	4494
1056.237	4411
1058.575	4422
1060.91	4484
1063.244	4538
1065.58	4419
1067.913	4528
1070.248	4512
1072.579	4507
1074.911	4514
1077.242	4514
1079.572	4469
1081.905	4451
1084.234	4478
1086.562	4482
1088.89	4528
1091.217	4435
1093.544	4449
1095.871	4431
1098.197	4582
1100.521	4490
1102.845	4482
1105.169	4554
1107.491	4520
1109.814	4575
1112.135	4524
1114.456	4500
1116.776	4520
1119.096	4536
1121.415	4556
1123.734	4520
1126.052	4504
1128.369	4486
1130.686	4492
1133.002	4601
1135.318	4580
1137.632	4613
1139.945	4507
1142.258	4633
1144.573	4611
1146.884	4527
1149.196	4571
1151.505	4506
1153.816	4568
1156.124	4555
1158.435	4583
1160.742	4533
1163.051	4526
1165.356	4667
1167.663	4564
1169.97	4541
1172.276	4621
1174.579	4465
1176.881	4691
1179.186	4603
1181.487	4648
1183.79	4534
1186.092	4535
1188.392	4525
1190.691	4602
1192.991	4660
1195.291	4593
1197.588	4512
1199.885	4524
1202.181	4567
1204.479	4569
1206.775	4565
1209.07	4569
1211.363	4569
1213.656	4580
1215.949	4629
1218.241	4577
1220.534	4604
1222.825	4603
1225.115	4652
1227.405	4669
1229.693	4637
1231.984	4715
1234.271	4608
1236.558	4690
1238.845	4604
1241.131	4681
1243.416	4552
1245.703	4758
1247.987	4739
1250.269	4745
1252.552	4813
1254.834	4748
1257.118	4661
1259.399	4677
1261.678	4612
1263.958	4761
1266.237	4770
1268.516	4803
1270.794	4676
1273.072	4648
1275.347	4754
1277.624	4751
1279.899	4807
1282.175	4694
1284.449	4686
1286.722	4711
1288.995	4732
1291.266	4662
1293.54	4707
1295.81	4647
1298.081	4622
1300.35	4709
1302.62	4630
1304.889	4782
1307.156	4632
1309.425	4564
1311.69	4682
1313.957	4682
1316.222	4761
1318.488	4635
1320.751	4564
1323.016	4737
1325.278	4617
1327.54	4739
1329.803	4770
1332.065	4669
1334.325	4737
1336.584	4651
1338.843	4681
1341.101	4721
1343.36	4789
1345.617	4720
1347.876	4729
1350.131	4724
1352.387	4673
1354.643	4738
1356.897	4618
1359.151	4739
1361.403	4750
1363.656	4654
1365.909	4661
1368.16	4731
1370.409	4769
1372.659	4748
1374.909	4591
1377.157	4732
1379.407	4742
1381.655	4781
1383.9	4676
1386.147	4763
1388.393	4809
1390.64	4777
1392.885	4776
1395.127	4832
1397.37	4774
1399.614	4777
1401.854	4808
1404.098	4747
1406.339	4800
1408.578	4823
1410.818	4892
1413.056	4839
1415.297	4738
1417.533	4843
1419.771	4826
1422.006	4815
1424.243	4845
1426.479	4839
1428.715	4878
1430.948	4888
1433.182	4909
1435.414	5021
1437.647	4906
1439.88	5019
1442.11	4888
1444.342	4908
1446.571	4910
1448.799	4977
1451.029	4990
1453.258	4815
1455.485	4855
1457.711	4872
1459.937	4909
1462.164	4908
1464.39	4781
1466.614	4845
1468.838	4840
1471.06	4811
1473.283	4824
1475.506	4827
1477.727	4754
1479.949	4888
1482.169	4842
1484.389	4871
1486.609	4761
1488.828	4757
1491.045	4701
1493.261	4793
1495.477	4858
1497.693	4816
1499.91	4827
1502.125	4871
1504.339	4844
1506.553	4759
1508.766	4784
1510.979	4764
1513.191	4855
1515.402	4912
1517.613	4871
1519.823	4811
1522.033	4797
1524.242	4788
1526.451	4882
1528.657	4795
1530.865	4796
1533.072	4828
1535.278	4847
1537.484	4910
1539.687	4817
1541.892	4769
1544.096	4906
1546.299	4769
1548.502	4881
1550.703	4831
1552.905	4870
1555.104	4790
1557.303	4898
1559.505	4888
1561.703	4895
1563.902	4843
1566.099	4872
1568.295	4919
1570.494	4927
1572.689	4903
1574.883	4888
1577.079	4896
1579.272	4897
1581.467	4861
1583.659	4882
1585.853	5041
1588.044	4918
1590.234	4982
1592.424	4871
1594.615	4885
1596.806	5003
1598.994	4970
1601.182	4921
1603.369	4880
1605.557	4861
1607.744	4957
1609.929	4971
1612.114	4985
1614.298	5029
1616.482	5062
1618.667	5002
1620.85	5043
1623.032	4961
1625.214	4903
1627.395	5033
1629.575	5040
1631.755	4983
1633.935	5022
1636.114	4917
1638.292	4949
1640.471	5022
1642.647	4944
1644.823	5072
1647	5041
1649.175	5027
1651.348	4922
1653.525	5029
1655.698	5032
1657.87	5090
1660.043	4890
1662.213	5091
1664.387	5059
1666.558	5027
1668.727	5008
1670.896	5099
1673.064	5087
1675.233	5040
1677.401	5095
1679.569	5043
1681.735	5018
1683.902	5091
1686.066	5029
1688.233	5047
1690.397	4971
1692.559	4940
1694.723	5036
1696.885	5052
1699.048	5049
1701.21	5049
1703.37	4962
1705.53	5005
1707.689	4968
1709.849	4966
1712.009	4985
1714.166	5079
1716.323	5050
1718.479	4969
1720.634	4986
1722.793	4941
1724.948	4962
1727.102	5020
1729.255	5006
1731.408	4982
1733.562	5063
1735.714	5060
1737.865	4952
1740.016	5058
1742.166	4983
1744.316	4996
1746.467	4980
1748.616	5067
1750.764	5067
1752.911	5056
1755.056	5082
1757.205	4987
1759.35	5109
1761.496	5077
1763.641	5119
1765.785	5078
1767.927	5040
1770.072	4986
1772.214	5220
1774.355	5146
1776.496	5145
1778.637	5109
1780.778	5146
1782.918	5079
1785.057	5066
1787.194	5074
1789.333	5131
1791.472	5061
1793.608	5095
1795.745	5100
1797.879	5143
1800.015	5069
1802.148	5086
1804.284	5083
1806.417	5036
1808.548	5131
1810.682	5121
1812.812	5208
1814.946	5063
1817.075	5065
1819.205	5150
1821.335	5095
1823.463	5143
1825.59	5019
1827.721	5095
1829.847	5119
1831.973	5115
1834.098	5172
1836.223	5087
1838.351	5033
1840.475	5077
1842.598	4910
1844.721	5069
1846.843	5028
1848.966	5046
1851.087	5095
1853.21	5110
1855.33	5065
1857.449	5104
1859.568	5065
1861.688	5040
1863.806	5052
1865.924	5035
1868.039	5100
1870.155	5073
1872.273	5044
1874.388	4986
1876.503	5080
1878.617	5113
1880.73	5066
1882.844	5082
1884.956	5115
1887.068	5119
1889.18	5029
1891.291	5154
1893.4	5107
1895.511	5009
1897.621	5047
1899.73	5072
1901.837	5076
1903.944	5088
1906.053	5143
1908.159	5201
1910.265	5116
1912.369	5260
1914.474	5180
1916.577	5105
1918.683	5197
1920.785	5126
1922.888	5134
1924.989	5102
1927.091	5137
1929.193	5149
1931.294	5058
1933.393	5150
1935.493	5141
1937.59	5245
1939.689	5246
1941.788	5152
1943.884	5129
1945.98	5178
1948.077	5169
1950.171	5301
1952.267	5210
1954.361	5241
1956.455	5148
1958.548	5226
1960.64	5114
1962.733	5233
1964.824	5237
1966.915	5252
1969.005	5153
1971.096	5215
1973.185	5197
1975.275	5182
1977.363	5290
1979.45	5287
1981.537	5199
1983.623	5214
1985.711	5187
1987.796	5122
1989.881	5052
1991.965	5167
1994.047	5141
1996.132	5148
1998.215	5121
2000.297	5169
2002.378	5073
2004.46	5139
2006.54	5231
2008.62	5195
2010.7	5114
2012.779	5205
2014.858	5127
2016.934	5164
2019.013	5095
2021.09	5178
2023.165	5171
2025.241	5187
2027.317	5135
2029.39	5121
2031.466	5096
2033.538	5196
2035.612	5137
2037.683	5145
2039.755	5258
2041.827	5206
2043.898	5200
2045.968	5109
2048.038	5177
2050.106	5071
2052.177	5088
2054.244	5153
2056.313	5146
2058.379	5138
2060.444	5188
2062.511	5216
2064.577	5228
2066.641	5127
2068.705	5182
2070.77	5165
2072.832	5198
2074.896	5172
2076.958	5143
2079.02	5228
2081.081	5104
2083.141	5172
2085.2	5261
2087.261	5176
2089.319	5242
2091.377	5131
2093.435	5150
2095.492	5271
2097.552	5258
2099.607	5124
2101.663	5188
2103.718	5068
2105.771	5151
2107.826	5133
2109.879	5291
2111.932	5246
2113.985	5140
2116.037	5230
2118.088	5183
2120.141	5091
2122.191	5270
2124.239	5159
2126.288	5144
2128.337	5322
2130.387	5151
2132.434	5159
2134.481	5158
2136.528	5272
2138.574	5064
2140.618	5136
2142.665	5236
2144.71	5155
2146.753	5157
2148.797	5168
2150.838	5111
2152.883	5153
2154.923	5137
2156.965	5269
2159.007	5151
2161.046	5099
2163.086	5200
2165.126	5240
2167.163	5178
2169.202	5115
2171.239	5186
2173.277	5201
2175.314	5163
2177.349	5120
2179.385	5300
2181.42	5227
2183.453	5217
2185.49	5187
2187.522	5112
2189.555	5127
2191.586	5164
2193.619	5117
2195.651	5068
2197.682	5184
2199.711	5125
2201.74	5095
2203.769	5071
2205.799	5031
2207.828	5135
2209.855	5152
2211.882	5100
2213.908	5108
2215.934	5114
2217.961	5081
2219.986	5125
2222.01	5037
2224.034	5038
2226.057	5098
2228.08	5053
2230.104	5008
2232.124	5127
2234.145	5130
2236.166	5124
2238.186	5090
2240.207	5060
2242.227	5147
2244.244	5269
2246.262	5080
2248.28	5096
2250.299	5073
2252.314	5220
2254.33	5084
2256.346	5178
2258.36	5028
2260.375	5179
2262.391	5020
2264.403	5102
2266.416	5105
2268.427	5139
2270.44	5069
2272.453	5090
2274.463	5118
2276.474	5162
2278.483	5088
2280.493	5090
2282.501	5103
2284.51	5109
2286.518	5050
2288.524	5121
2290.532	5128
2292.537	5023
2294.544	5118
2296.55	5074
2298.554	5030
2300.557	5128
2302.562	5108
2304.566	5141
2306.568	5129
2308.569	5081
2310.572	5057
2312.573	5101
2314.573	5082
2316.574	5041
2318.573	5070
2320.571	5135
2322.571	5144
2324.569	5002
2326.567	5001
2328.564	5094
2330.56	5102
2332.556	4987
2334.551	5139
2336.546	5117
2338.542	5034
2340.535	5153
2342.529	5023
2344.521	4999
2346.512	5033
2348.505	5068
2350.497	5117
2352.487	5099
2354.478	5088
2356.468	5091
2358.457	4981
2360.446	4964
2362.434	4967
2364.422	4966
2366.408	5007
2368.395	4980
2370.383	5109
2372.369	4994
2374.353	5082
2376.338	5044
2378.321	5000
2380.307	5048
2382.29	5004
2384.272	5015
2386.254	5056
2388.235	4973
2390.218	5119
2392.198	4948
2394.179	4919
2396.157	4987
2398.137	5147
2400.115	4933
2402.095	4891
2404.072	5014
2406.048	5020
2408.026	4916
2410.001	4917
2411.977	4997
2413.953	4984
2415.927	4986
2417.9	5031
2419.875	5003
2421.847	4893
2423.821	4931
2425.792	5001
2427.763	4920
2429.736	4908
2431.706	5008
2433.677	5002
2435.646	4943
2437.615	5154
2439.583	4829
2441.551	4999
2443.519	5028
2445.486	4943
2447.452	4961
2449.418	5068
2451.383	5027
2453.348	5015
2455.314	5007
2457.278	5056
2459.241	4936
2461.205	4993
2463.167	4943
2465.131	4924
2467.091	5031
2469.052	4867
2471.012	4928
2472.972	4989
2474.932	4939
2476.891	4950
2478.85	4947
2480.808	4956
2482.766	4966
2484.722	4868
2486.68	4961
2488.636	4890
2490.591	4885
2492.546	4902
2494.5	5009
2496.456	4975
2498.41	4887
2500.362	4934
2502.315	4928
2504.266	4979
2506.218	4835
2508.169	4923
2510.121	4949
2512.07	5013
2514.019	4929
2515.968	4992
2517.918	4918
2519.866	4905
2521.813	4954
2523.76	4979
2525.707	4871
2527.653	4885
2529.599	4905
2531.543	4907
2533.489	4916
2535.433	4962
2537.376	4879
2539.32	4990
2541.264	4909
2543.205	4813
2545.147	4872
2547.087	4935
2549.029	4950
2550.969	4878
2552.908	4933
2554.847	4916
2556.786	4999
2558.724	4937
2560.663	4855
2562.6	4948
2564.537	4924
2566.473	4900
2568.408	4925
2570.345	4976
2572.28	4961
2574.214	4889
2576.148	4923
2578.081	4861
2580.014	4915
2581.947	4954
2583.879	4946
2585.81	4871
2587.741	4893
2589.67	4867
2591.602	5071
2593.532	4973
2595.461	4868
2597.388	4934
2599.316	4936
2601.244	4951
2603.172	4974
2605.098	4995
2607.023	4948
2608.949	4886
2610.873	4965
2612.8	4936
2614.723	4896
2616.647	5029
2618.569	4921
2620.493	4832
2622.416	4929
2624.338	4953
2626.258	4937
2628.179	4835
2630.099	4951
2632.019	4950
2633.939	4966
2635.857	4909
2637.775	4957
2639.694	4951
2641.61	4926
2643.528	4962
2645.444	4942
2647.361	5008
2649.276	4944
2651.19	4885
2653.105	4956
2655.019	4912
2656.934	4973
2658.846	4939
2660.758	4992
2662.67	4909
2664.583	4958
2666.493	4929
2668.404	5009
2670.313	4960
2672.223	4926
2674.134	4878
2676.042	4969
2677.95	4938
2679.858	4889
2681.765	4945
2683.673	5041
2685.579	4867
2687.483	4941
2689.389	4850
2691.294	4847
2693.198	4959
2695.104	4892
2697.006	4926
2698.909	4953
2700.811	4897
2702.713	4857
2704.615	4826
2706.516	4793
2708.417	4852
2710.316	4828
2712.216	4918
2714.115	4904
2716.014	4857
2717.913	4897
2719.81	4865
2721.707	4873
2723.603	4892
2725.501	4841
2727.396	4871
2729.292	4791
2731.186	4941
2733.081	4872
2734.976	4894
2736.87	4916
2738.762	4897
2740.653	4854
2742.546	4861
2744.437	4853
2746.329	4875
2748.22	4876
2750.11	4895
2751.999	4859
2753.889	4768
2755.778	4799
2757.666	4870
2759.553	4845
2761.44	4870
2763.328	4859
2765.215	4876
2767.101	4818
2768.986	4876
2770.87	4872
2772.754	4828
2774.638	4823
2776.523	4772
2778.405	4721
2780.288	4859
2782.17	4881
2784.051	4708
2785.934	4811
2787.814	4840
2789.694	4753
2791.574	4823
2793.453	4736
2795.332	4741
2797.212	4823
2799.088	4746
2800.966	4769
2802.843	4785
2804.719	4776
2806.597	4896
2808.471	4878
2810.346	4814
2812.221	4711
2814.094	4697
2815.969	4797
2817.843	4775
2819.714	4787
2821.587	4863
2823.459	4893
2825.329	4808
2827.202	4757
2829.072	4724
2830.942	4707
2832.811	4767
2834.68	4754
2836.549	4820
2838.418	4783
2840.284	4780
2842.152	4806
2844.018	4806
2845.885	4791
2847.751	4728
2849.616	4829
2851.482	4864
2853.345	4869
2855.208	4875
2857.074	4836
2858.937	4791
2860.799	4752
2862.66	4843
2864.522	4909
2866.385	4820
2868.245	4942
2870.104	4867
2871.964	4841
2873.824	4798
2875.683	4958
2877.542	4960
2879.4	4830
2881.257	4943
2883.114	4987
2884.97	5003
2886.827	4977
2888.683	4916
2890.537	5037
2892.392	4966
2894.246	4900
2896.1	4944
2897.954	4936
2899.807	4813
2901.66	4913
2903.51	4970
2905.362	4913
2907.214	4897
2909.065	4995
2910.915	4937
2912.765	4935
2914.613	5055
2916.463	4992
2918.311	4912
2920.158	5015
2922.006	4986
2923.853	5054
2925.698	5106
2927.546	5029
2929.392	5122
2931.236	5108
2933.081	5132
2934.924	5132
2936.77	5084
2938.613	5030
2940.455	5222
2942.298	5163
2944.139	5220
2945.982	5081
2947.823	5126
2949.662	5104
2951.503	5146
2953.342	5081
2955.182	5081
2957.021	5029
2958.858	5066
2960.697	5051
2962.534	4999
2964.37	5097
2966.207	4934
2968.044	5012
2969.879	4956
2971.714	4906
2973.548	4903
2975.383	4849
2977.218	4877
2979.051	4958
2980.883	4908
2982.715	4956
2984.547	4930
2986.379	4854
2988.21	4888
2990.04	4893
2991.87	4891
2993.7	4870
2995.53	4746
2997.359	4755
2999.187	4849
3001.015	4793
3002.842	4719
3004.669	4667
3006.497	4662
3008.323	4720
3010.148	4654
3011.974	4593
3013.797	4646
3015.623	4664
3017.447	4635
3019.27	4664
3021.094	4629
3022.915	4612
3024.737	4579
3026.56	4680
3028.38	4725
3030.201	4560
3032.022	4693
3033.84	4566
3035.662	4641
3037.481	4600
3039.298	4564
3041.117	4542
3042.933	4547
3044.752	4611
3046.568	4624
3048.385	4561
3050.2	4600
3052.016	4645
3053.83	4543
3055.646	4518
3057.46	4524
3059.272	4534
3061.086	4542
3062.898	4533
3064.711	4547
3066.524	4611
3068.335	4551
3070.145	4505
3071.956	4535
3073.766	4520
3075.576	4580
3077.385	4503
3079.193	4480
3081.002	4594
3082.81	4567
3084.618	4454
3086.425	4511
3088.231	4592
3090.036	4539
3091.842	4507
3093.648	4484
3095.452	4441
3097.257	4402
3099.06	4533
3100.863	4530
3102.666	4533
3104.47	4512
3106.272	4465
3108.073	4521
3109.875	4450
3111.676	4471
3113.477	4420
3115.277	4524
3117.077	4398
3118.874	4497
3120.673	4514
3122.473	4373
3124.271	4442
3126.066	4492
3127.863	4419
3129.66	4451
3131.456	4394
3133.252	4370
3135.047	4432
3136.842	4400
3138.635	4422
3140.429	4427
3142.223	4341
3144.016	4365
3145.808	4371
3147.6	4278
3149.392	4297
3151.183	4447
3152.975	4335
3154.765	4371
3156.553	4310
3158.344	4337
3160.132	4340
3161.922	4370
3163.71	4240
3165.497	4241
3167.285	4342
3169.071	4282
3170.858	4374
3172.645	4314
3174.429	4345
3176.214	4291
3177.998	4373
3179.783	4328
3181.568	4346
3183.351	4349
3185.133	4343
3186.915	4329
3188.698	4331
3190.481	4237
3192.261	4267
3194.042	4308
3195.822	4255
3197.601	4342
3199.381	4181
3201.161	4251
3202.939	4264
3204.717	4338
3206.495	4286
3208.272	4283
3210.05	4280
3211.826	4216
3213.602	4271
3215.376	4260
3217.151	4328
3218.927	4233
3220.702	4234
3222.476	4205
3224.249	4358
3226.021	4229
3227.793	4203
3229.567	4292
3231.339	4219
3233.109	4238
3234.88	4236
3236.651	4207
3238.421	4251
3240.191	4192
3241.96	4241
3243.728	4250
3245.497	4151
3247.263	4284
3249.033	4280
3250.799	4311
3252.566	4258
3254.331	4283
3256.097	4277
3257.863	4243
3259.628	4161
3261.392	4216
3263.156	4245
3264.919	4232
3266.683	4243
3268.447	4255
3270.208	4338
3271.969	4298
3273.731	4231
3275.492	4241
3277.253	4254
3279.013	4202
3280.773	4167
3282.532	4270
3284.291	4276
3286.05	4247
3287.808	4223
3289.566	4273
3291.323	4137
3293.079	4160
3294.835	4344
3296.593	4273
3298.348	4191
3300.102	4139
3301.857	4241
3303.611	4256
3305.366	4178
3307.119	4186
3308.872	4179
3310.624	4167
3312.376	4190
3314.129	4218
3315.881	4185
3317.631	4259
3319.38	4283
3321.13	4220
3322.88	4181
3324.631	4182
3326.379	4175
3328.126	4248
3329.875	4204
3331.622	4123
3333.371	4211
3335.116	4202
3336.863	4219
3338.609	4175
3340.353	4064
3342.1	4216
3343.845	4158
3345.588	4192
3347.332	4210
3349.074	4194
3350.817	4103
3352.56	4091
3354.303	4186
3356.043	4133
3357.785	4081
3359.525	4160
3361.268	4128
3363.007	4165
3364.745	4211
3366.485	4210
3368.223	4146
3369.962	4136
3371.701	4168
3373.438	4155
3375.174	4226
3376.911	4093
3378.647	4075
3380.384	4078
3382.118	4130
3383.854	4094
3385.588	4064
3387.322	4111
3389.057	4131
3390.79	4024
3392.522	4071
3394.255	4062
3395.987	4139
3397.719	4040
3399.451	4123
3401.181	4103
3402.911	4110
3404.641	4147
3406.371	4095
3408.101	4099
3409.83	4102
3411.558	4003
3413.285	4077
3415.011	4057
3416.739	4132
3418.467	4020
3420.193	3999
3421.919	4132
3423.644	4151
3425.368	4116
3427.094	4068
3428.818	4030
3430.542	4015
3432.264	4047
3433.987	4056
3435.712	4010
3437.434	4079
3439.155	4022
3440.876	4011
3442.596	4052
3444.317	4052
3446.039	3991
3447.757	4089
3449.477	3974
3451.195	4008
3452.914	4008
3454.632	3980
3456.35	3966
3458.067	4084
3459.784	3976
3461.5	3876
3463.216	3941
3464.932	3967
3466.647	3913
3468.362	3957
3470.076	3927
3471.789	3915
3473.505	3980
3475.217	3943
3476.929	3915
3478.641	3936
3480.354	3965
3482.066	3932
3483.777	3960
3485.487	3943
3487.197	3931
3488.908	3902
3490.617	4026
3492.327	3925
3494.035	3873
3495.743	3896
3497.451	3929
3499.158	3954
3500.866	3912
3502.572	3894
3504.278	3880
3505.984	3887
3507.689	3856
3509.396	3918
3511.1	3936
3512.804	3931
3514.508	3881
3516.211	3913
3517.913	3940
3519.616	3855
3521.319	3869
3523.021	3886
3524.722	3935
3526.422	3833
3528.124	3886
3529.824	3876
3531.524	3887
3533.222	3895
3534.921	3860
3536.62	3968
3538.318	3832
3540.016	3820
3541.714	3907
3543.41	3790
3545.107	3791
3546.803	3905
3548.5	3784
3550.194	3859
3551.889	3810
3553.583	3747
3555.279	3799
3556.972	3854
3558.666	3759
3560.358	3915
3562.051	3789
3563.742	3748
3565.435	3850
3567.126	3705
3568.817	3751
3570.507	3728
3572.197	3895
3573.888	3724
3575.577	3861
3577.265	3810
3578.954	3746
3580.642	3821
3582.329	3758
3584.017	3791
3585.704	3785
3587.391	3686
3589.077	3771
3590.762	3779
3592.449	3757
3594.133	3822
3595.817	3753
3597.501	3833
3599.185	3744
3600.869	3763
3602.552	3664
3604.234	3776
3605.916	3761
3607.598	3666
3609.279	3669
3610.961	3675
3612.642	3668
3614.321	3618
3616	3666
3617.68	3638
3619.36	3662
3621.039	3618
3622.716	3702
3624.394	3616
3626.071	3680
3627.748	3636
3629.425	3672
3631.102	3651
3632.778	3681
3634.452	3643
3636.127	3619
3637.803	3703
3639.477	3653
3641.151	3652
3642.823	3586
3644.497	3677
3646.171	3721
3647.842	3680
3649.515	3562
3651.185	3583
3652.857	3674
3654.527	3649
3656.198	3573
3657.868	3705
3659.537	3603
3661.207	3638
3662.875	3563
3664.544	3600
3666.212	3583
3667.879	3635
3669.546	3564
3671.212	3620
3672.88	3570
3674.546	3580
3676.211	3564
3677.875	3519
3679.541	3509
3681.205	3567
3682.87	3656
3684.533	3637
3686.196	3621
3687.859	3560
3689.521	3538
3691.184	3546
3692.845	3471
3694.507	3547
3696.167	3501
3697.827	3613
3699.487	3526
3701.148	3507
3702.808	3475
3704.466	3529
3706.125	3558
3707.783	3601
3709.442	3536
3711.099	3561
3712.757	3538
3714.412	3526
3716.068	3497
3717.725	3488
3719.381	3509
3721.036	3554
3722.689	3506
3724.344	3525
3725.998	3521
3727.652	3539
3729.305	3564
3730.958	3507
3732.61	3507
3734.262	3576
3735.915	3451
3737.565	3500
3739.217	3495
3740.866	3531
3742.516	3474
3744.165	3480
3745.816	3501
3747.464	3535
3749.113	3569
3750.761	3525
3752.409	3487
3754.057	3414
3755.703	3508
3757.35	3464
3758.996	3397
3760.641	3559
3762.289	3494
3763.933	3550
3765.577	3413
3767.222	3469
3768.865	3373
3770.508	3463
3772.152	3526
3773.796	3414
3775.438	3383
3777.079	3439
3778.721	3454
3780.363	3459
3782.003	3437
3783.643	3377
3785.283	3416
3786.923	3392
3788.563	3412
3790.203	3515
3791.841	3376
3793.479	3424
3795.115	3383
3796.753	3447
3798.391	3441
3800.027	3420
3801.664	3391
3803.299	3416
3804.935	3372
3806.571	3467
3808.206	3339
3809.839	3410
3811.473	3447
3813.107	3376
3814.74	3417
3816.375	3396
3818.006	3414
3819.638	3309
3821.27	3336
3822.9	3432
3824.532	3320
3826.163	3368
3827.792	3329
3829.423	3262
3831.051	3369
3832.682	3298
3834.311	3303
3835.938	3278
3837.566	3266
3839.193	3302
3840.821	3339
3842.448	3309
3844.075	3349
3845.7	3312
3847.325	3317
3848.951	3350
3850.576	3373
3852.201	3225
3853.825	3257
3855.448	3325
3857.072	3377
3858.694	3262
3860.318	3334
3861.939	3356
3863.562	3253
3865.183	3339
3866.804	3301
3868.426	3305
3870.045	3306
3871.666	3251
3873.285	3261
3874.904	3222
3876.524	3360
3878.142	3295
3879.76	3208
3881.378	3219
3882.995	3302
3884.612	3267
3886.229	3340
3887.845	3219
3889.461	3281
3891.076	3180
3892.691	3251
3894.307	3227
3895.922	3185
3897.536	3182
3899.149	3240
3900.761	3288
3902.374	3227
3903.988	3290
3905.6	3209
3907.212	3214
3908.822	3238
3910.433	3194
3912.045	3239
3913.655	3287
3915.265	3240
3916.875	3203
3918.483	3141
3920.093	3178
3921.702	3260
3923.309	3207
3924.917	3222
3926.523	3221
3928.13	3256
3929.739	3265
3931.344	3232
3932.95	3254
3934.555	3182
3936.159	3148
3937.766	3229
3939.369	3136
3940.974	3251
3942.577	3201
3944.181	3199
3945.783	3246
3947.386	3210
3948.989	3138
3950.59	3195
3952.191	3243
3953.791	3124
3955.394	3168
3956.994	3158
3958.593	3207
3960.192	3182
3961.791	3186
3963.392	3151
3964.99	3172
3966.588	3090
3968.185	3193
3969.782	3177
3971.379	3152
3972.976	3167
3974.572	3157
3976.168	3119
3977.763	3096
3979.358	3138
3980.954	3133
3982.548	3129
3984.142	3080
3985.736	3085
3987.329	3085
3988.922	3152
3990.516	3101
3992.108	3116
3993.698	3047
3995.29	3062
3996.881	3051
3998.473	3139
4000.064	3049
4001.653	3043
4003.242	3028
4004.832	3037
4006.422	3139
4008.01	3059
4009.598	3037
4011.186	3056
4012.773	3003
4014.36	3107
4015.947	3027
4017.534	3070
4019.119	3031
4020.705	3048
4022.291	3096
4023.876	3033
4025.461	3042
4027.044	3044
4028.627	3061
4030.211	2939
4031.795	2909
4033.378	3011
4034.96	2997
4036.542	3097
4038.124	2950
4039.704	3038
4041.286	3038
4042.867	3036
4044.447	2995
4046.026	2986
4047.606	2987
4049.187	3015
4050.765	2987
4052.343	2942
4053.92	2942
4055.498	2981
4057.076	2938
4058.654	2997
4060.23	2958
4061.806	2929
4063.381	2988
4064.957	2917
4066.533	2969
4068.107	2938
4069.682	2919
4071.256	2900
4072.829	2954
4074.404	2926
4075.977	2931
4077.549	2990
4079.121	2965
4080.693	2919
4082.265	2934
4083.836	2889
4085.407	2950
4086.977	2932
4088.547	2925
4090.117	2946
4091.687	2923
4093.256	2873
4094.825	2858
4096.392	2910
4097.96	2986
4099.528	2920
4101.097	2894
4102.663	2956
4104.229	2909
4105.795	2903
4107.361	2895
4108.928	2914
4110.493	2869
4112.058	2891
4113.621	2910
4115.186	2795
4116.75	2810
4118.313	2856
4119.876	2901
4121.438	2881
4123	2875
4124.562	2934
4126.125	2839
4127.686	2910
4129.246	2873
4130.807	2863
4132.367	2868
4133.927	2926
4135.486	2890
4137.046	2808
4138.604	2834
4140.162	2782
4141.72	2790
4143.279	2800
4144.836	2863
4146.393	2741
4147.949	2786
4149.505	2820
4151.062	2763
4152.617	2848
4154.172	2773
4155.727	2777
4157.281	2759
4158.836	2788
4160.39	2749
4161.943	2754
4163.496	2736
4165.048	2790
4166.601	2765
4168.154	2800
4169.706	2778
4171.257	2785
4172.808	2817
4174.358	2759
4175.909	2793
4177.458	2746
4179.008	2744
4180.558	2727
4182.106	2730
4183.655	2779
4185.204	2727
4186.751	2729
4188.298	2680
4189.845	2652
4191.392	2729
4192.939	2724
4194.485	2668
4196.031	2737
4197.576	2715
4199.121	2754
4200.666	2672
4202.211	2751
4203.754	2779
4205.298	2707
4206.84	2688
4208.384	2658
4209.927	2673
4211.47	2751
4213.011	2736
4214.552	2710
4216.094	2667
4217.635	2679
4219.175	2691
4220.716	2796
4222.255	2652
4223.793	2733
4225.335	2720
4226.873	2674
4228.411	2693
4229.948	2625
4231.486	2698
4233.024	2677
4234.562	2637
4236.098	2644
4237.634	2726
4239.169	2680
4240.705	2698
4242.241	2595
4243.776	2647
4245.31	2662
4246.844	2600
4248.378	2642
4249.911	2635
4251.445	2671
4252.978	2634
4254.51	2649
4256.042	2705
4257.574	2652
4259.107	2667
4260.638	2670
4262.169	2678
4263.699	2645
4265.228	2651
4266.759	2605
4268.289	2576
4269.818	2668
4271.345	2670
4272.874	2629
4274.402	2665
4275.931	2666
4277.458	2614
4278.985	2591
4280.512	2674
4282.037	2645
4283.564	2600
4285.089	2608
4286.615	2626
4288.139	2651
4289.664	2569
4291.187	2654
4292.712	2644
4294.235	2562
4295.759	2544
4297.281	2555
4298.804	2570
4300.327	2591
4301.849	2535
4303.37	2574
4304.891	2602
4306.412	2527
4307.933	2585
4309.453	2611
4310.973	2545
4312.492	2620
