398.1873	3447
400.7097	3452
403.2336	3456
405.7547	3337
408.2751	3512
410.7948	3534
413.3138	3466
415.83	3410
418.3497	3502
420.8666	3589
423.3829	3648
425.8985	3592
428.4133	3625
430.9275	3617
433.441	3716
435.9538	3660
438.4639	3647
440.9753	3650
443.4881	3665
445.9982	3696
448.5055	3654
451.0142	3648
453.5201	3701
456.0274	3613
458.5361	3687
461.04	3659
463.5453	3635
466.0478	3688
468.5517	3626
471.0549	3614
473.5574	3642
476.0572	3685
478.5584	3612
481.0568	3673
483.5545	3685
486.0557	3683
488.5521	3678
491.0478	3681
493.5449	3669
496.0392	3755
498.5349	3762
501.0299	3694
503.5222	3793
506.0139	3758
508.5048	3709
510.9991	3712
513.4887	3834
515.9777	3821
518.4659	3817
520.9534	3786
523.4403	3799
525.9306	3763
528.4161	3777
530.9009	3809
533.3851	3695
535.8687	3810
538.3535	3769
540.8356	3791
543.3171	3799
545.7979	3777
548.278	3763
550.7595	3714
553.2383	3705
555.7144	3801
558.1918	3785
560.6685	3833
563.1446	3790
565.6221	3874
568.0968	3817
570.5688	3821
573.0422	3881
575.515	3878
577.989	3968
580.4584	3905
582.9291	3948
585.3991	3907
587.8685	3973
590.3352	3938
592.8052	3903
595.2706	3925
597.7372	3874
600.2033	3897
602.6666	3894
605.1334	3881
607.5953	3859
610.0587	3910
612.5193	3928
614.9814	3904
617.4427	3902
619.9034	3898
622.3615	3926
624.8208	3926
627.2775	3846
629.7335	3955
632.1929	3853
634.6476	3846
637.1016	3984
639.5569	3858
642.0096	3943
644.4637	3911
646.9151	3845
649.3678	3892
651.8179	3851
654.2672	3936
656.7159	3923
659.166	3973
661.6154	3995
664.0622	3937
666.5082	4042
668.9537	3879
671.4005	3971
673.8445	4054
676.288	3993
678.7308	3958
681.1729	3985
683.6163	4111
686.0572	4076
688.4973	4047
690.9368	4000
693.3757	4086
695.8138	4013
698.2534	3922
700.6902	4137
703.1245	4029
705.56	4027
707.9949	4064
710.4311	4111
712.8647	4121
715.2957	4061
717.7279	4159
720.1595	4100
722.5905	4136
725.0208	4099
727.4505	4090
729.8795	4020
732.3058	4185
734.7336	4164
737.1626	4033
739.587	4200
742.0128	4141
744.4359	4130
746.8604	4286
749.2841	4256
751.7073	4184
754.1278	4215
756.5496	4211
758.9688	4244
761.3893	4234
763.8093	4307
766.2285	4280
768.6451	4287
771.0611	4336
773.4784	4249
775.895	4315
778.3091	4306
780.7244	4402
783.1371	4306
785.5493	4209
787.9626	4333
790.3754	4352
792.7856	4313
795.1951	4337
797.6039	4292
800.0121	4276
802.4236	4290
804.8306	4247
807.2369	4289
809.6425	4299
812.0475	4320
814.4538	4397
816.8575	4367
819.2606	4435
821.663	4361
824.0648	4333
826.4659	4400
828.8683	4320
831.2682	4377
833.6674	4351
836.066	4373
838.4639	4294
840.8632	4476
843.2579	4436
845.6539	4513
848.0493	4455
850.444	4451
852.84	4458
855.2315	4438
857.6243	4416
860.0165	4397
862.4081	4543
864.797	4449
867.1892	4377
869.5789	4484
871.9659	4462
874.3542	4484
876.74	4403
879.129	4475
881.5155	4442
883.8994	4456
886.2845	4449
888.6671	4441
891.051	4336
893.4343	4420
895.8169	4469
898.197	4454
900.5783	4420
902.9571	4437
905.3372	4477
907.7167	4454
910.0936	4468
912.4698	4459
914.8474	4607
917.2244	4545
919.5987	4636
921.9744	4612
924.3475	4589
926.72	4632
929.0918	4723
931.4669	4570
933.8375	4594
936.2074	4658
938.5767	4693
940.9454	4764
943.3154	4855
945.6829	4866
948.0497	4914
950.4178	5045
952.7833	5221
955.1483	5420
957.5145	5536
959.8782	5521
962.2412	5503
964.6036	5335
966.9655	5266
969.3266	5155
971.6871	4946
974.0471	4874
976.4064	4692
978.765	4712
981.125	4720
983.4824	4593
985.8373	4551
988.1935	4640
990.549	4523
992.9039	4569
995.2602	4544
997.6119	4593
999.965	4655
1002.317	4634
1004.667	4521
1007.02	4690
1009.371	4676
1011.719	4614
1014.068	4685
1016.415	4534
1018.765	4703
1021.111	4691
1023.458	4693
1025.804	4616
1028.147	4737
1030.49	4694
1032.837	4604
1035.179	4706
1037.522	4763
1039.862	4752
1042.204	4717
1044.546	4683
1046.884	4744
1049.224	4735
1051.562	4667
1053.899	4680
1056.237	4663
1058.575	4734
1060.91	4745
1063.244	4791
1065.58	4739
1067.913	4739
1070.248	4721
1072.579	4716
1074.911	4888
1077.242	4746
1079.572	4686
1081.905	4819
1084.234	4701
1086.562	4739
1088.89	4670
1091.217	4790
1093.544	4795
1095.871	4803
1098.197	4706
1100.521	4661
1102.845	4657
1105.169	4734
1107.491	4791
1109.814	4643
1112.135	4725
1114.456	4716
1116.776	4756
1119.096	4757
1121.415	4684
1123.734	4756
1126.052	4701
1128.369	4761
1130.686	4764
1133.002	4798
1135.318	4782
1137.632	4739
1139.945	4780
1142.258	4735
1144.573	4796
1146.884	4746
1149.196	4700
1151.505	4731
1153.816	4756
1156.124	4701
1158.435	4705
1160.742	4902
1163.051	4713
1165.356	4724
1167.663	4756
1169.97	4716
1172.276	4739
1174.579	4722
1176.881	4790
1179.186	4704
1181.487	4767
1183.79	4711
1186.092	4751
1188.392	4714
1190.691	4837
1192.991	4781
1195.291	4689
1197.588	4748
1199.885	4721
1202.181	4758
1204.479	4790
1206.775	4792
1209.07	4855
1211.363	4737
1213.656	4736
1215.949	4889
1218.241	4815
1220.534	4792
1222.825	4742
1225.115	4867
1227.405	4906
1229.693	4942
1231.984	4822
1234.271	4893
1236.558	4871
1238.845	4876
1241.131	4934
1243.416	4888
1245.703	4906
1247.987	5035
1250.269	4974
1252.552	4949
1254.834	4954
1257.118	4835
1259.399	4992
1261.678	4867
1263.958	4974
1266.237	5011
1268.516	4922
1270.794	4834
1273.072	5002
1275.347	4791
1277.624	4969
1279.899	4914
1282.175	4881
1284.449	4941
1286.722	4955
1288.995	4820
1291.266	4836
1293.54	4934
1295.81	4950
1298.081	4945
1300.35	4941
1302.62	4863
1304.889	4821
1307.156	4877
1309.425	4943
1311.69	4911
1313.957	4878
1316.222	4917
1318.488	4781
1320.751	4950
1323.016	4874
1325.278	4934
1327.54	4853
1329.803	4888
1332.065	4875
1334.325	4923
1336.584	4867
1338.843	4950
1341.101	4897
1343.36	4892
1345.617	4982
1347.876	5001
1350.131	4922
1352.387	4886
1354.643	4865
1356.897	4919
1359.151	4878
1361.403	4928
1363.656	5016
1365.909	4904
1368.16	4954
1370.409	4872
1372.659	4953
1374.909	4902
1377.157	4929
1379.407	4986
1381.655	4889
1383.9	4973
1386.147	4952
1388.393	5054
1390.64	4980
1392.885	4980
1395.127	4922
1397.37	5108
1399.614	5038
1401.854	5135
1404.098	5015
1406.339	5069
1408.578	4956
1410.818	5103
1413.056	5076
1415.297	5096
1417.533	5026
1419.771	5106
1422.006	5070
1424.243	5050
1426.479	5085
1428.715	5107
1430.948	5110
1433.182	5090
1435.414	5058
1437.647	5037
1439.88	5198
1442.11	5123
1444.342	5044
1446.571	5159
1448.799	5070
1451.029	5244
1453.258	5097
1455.485	5238
1457.711	5150
1459.937	5063
1462.164	5120
1464.39	5101
1466.614	5244
1468.838	5038
1471.06	5184
1473.283	5132
1475.506	5065
1477.727	5038
1479.949	5055
1482.169	5030
1484.389	5023
1486.609	4992
1488.828	4950
1491.045	4927
1493.261	5007
1495.477	4941
1497.693	5006
1499.91	5038
1502.125	4943
1504.339	4991
1506.553	4973
1508.766	5023
1510.979	4939
1513.191	5026
1515.402	4847
1517.613	4971
1519.823	4939
1522.033	4968
1524.242	4899
1526.451	4943
1528.657	4954
1530.865	4938
1533.072	4928
1535.278	4899
1537.484	5000
1539.687	4957
1541.892	4922
1544.096	4994
1546.299	5044
1548.502	5027
1550.703	4976
1552.905	5014
1555.104	4980
1557.303	5096
1559.505	5042
1561.703	5034
1563.902	5114
1566.099	5144
1568.295	5066
1570.494	5110
1572.689	5090
1574.883	4998
1577.079	5055
1579.272	5097
1581.467	5116
1583.659	5042
1585.853	5107
1588.044	5146
1590.234	5029
1592.424	5146
1594.615	5173
1596.806	5176
1598.994	5019
1601.182	5170
1603.369	5236
1605.557	5051
1607.744	5252
1609.929	5252
1612.114	5139
1614.298	5066
1616.482	5161
1618.667	5157
1620.85	5268
1623.032	5247
1625.214	5036
1627.395	5269
1629.575	5187
1631.755	5183
1633.935	5274
1636.114	5173
1638.292	5143
1640.471	5180
1642.647	5288
1644.823	5365
1647	5247
1649.175	5269
1651.348	5322
1653.525	5318
1655.698	5289
1657.87	5335
1660.043	5199
1662.213	5348
1664.387	5311
1666.558	5264
1668.727	5296
1670.896	5316
1673.064	5227
1675.233	5353
1677.401	5298
1679.569	5256
1681.735	5226
1683.902	5355
1686.066	5267
1688.233	5295
1690.397	5124
1692.559	5288
1694.723	5245
1696.885	5238
1699.048	5187
1701.21	5289
1703.37	5208
1705.53	5132
1707.689	5267
1709.849	5168
1712.009	5222
1714.166	5278
1716.323	5119
1718.479	5147
1720.634	5129
1722.793	5137
1724.948	5090
1727.102	5184
1729.255	5057
1731.408	5130
1733.562	5222
1735.714	5160
1737.865	5185
1740.016	5204
1742.166	5173
1744.316	5159
1746.467	5140
1748.616	5197
1750.764	5239
1752.911	5225
1755.056	5187
1757.205	5166
1759.35	5286
1761.496	5267
1763.641	5187
1765.785	5288
1767.927	5244
1770.072	5262
1772.214	5189
1774.355	5307
1776.496	5200
1778.637	5337
1780.778	5248
1782.918	5179
1785.057	5343
1787.194	5255
1789.333	5274
1791.472	5315
1793.608	5275
1795.745	5278
1797.879	5261
1800.015	5262
1802.148	5268
1804.284	5317
1806.417	5211
1808.548	5307
1810.682	5240
1812.812	5246
1814.946	5326
1817.075	5169
1819.205	5209
1821.335	5316
1823.463	5317
1825.59	5212
1827.721	5216
1829.847	5251
1831.973	5292
1834.098	5331
1836.223	5306
1838.351	5346
1840.475	5317
1842.598	5223
1844.721	5301
1846.843	5222
1848.966	5315
1851.087	5284
1853.21	5222
1855.33	5191
1857.449	5263
1859.568	5239
1861.688	5336
1863.806	5150
1865.924	5205
1868.039	5274
1870.155	5236
1872.273	5319
1874.388	5270
1876.503	5205
1878.617	5158
1880.73	5280
1882.844	5192
1884.956	5223
1887.068	5314
1889.18	5266
1891.291	5288
1893.4	5373
1895.511	5234
1897.621	5206
1899.73	5288
1901.837	5250
1903.944	5356
1906.053	5181
1908.159	5349
1910.265	5335
1912.369	5313
1914.474	5298
1916.577	5339
1918.683	5394
1920.785	5395
1922.888	5394
1924.989	5396
1927.091	5278
1929.193	5404
1931.294	5302
1933.393	5440
1935.493	5339
1937.59	5433
1939.689	5314
1941.788	5464
1943.884	5404
1945.98	5339
1948.077	5272
1950.171	5362
1952.267	5282
1954.361	5321
1956.455	5329
1958.548	5283
1960.64	5384
1962.733	5408
1964.824	5388
1966.915	5402
1969.005	5243
1971.096	5315
1973.185	5350
1975.275	5325
1977.363	5321
1979.45	5284
1981.537	5334
1983.623	5337
1985.711	5357
1987.796	5346
1989.881	5316
1991.965	5390
1994.047	5380
1996.132	5359
1998.215	5366
2000.297	5333
2002.378	5487
2004.46	5321
2006.54	5396
2008.62	5298
2010.7	5345
2012.779	5326
2014.858	5319
2016.934	5247
2019.013	5259
2021.09	5303
2023.165	5357
2025.241	5304
2027.317	5344
2029.39	5287
2031.466	5289
2033.538	5440
2035.612	5323
2037.683	5422
2039.755	5362
2041.827	5322
2043.898	5282
2045.968	5332
2048.038	5317
2050.106	5297
2052.177	5247
2054.244	5292
2056.313	5327
2058.379	5368
2060.444	5249
2062.511	5363
2064.577	5363
2066.641	5388
2068.705	5414
2070.77	5427
2072.832	5306
2074.896	5344
2076.958	5494
2079.02	5383
2081.081	5359
2083.141	5417
2085.2	5386
2087.261	5368
2089.319	5387
2091.377	5372
2093.435	5392
2095.492	5288
2097.552	5416
2099.607	5360
2101.663	5304
2103.718	5293
2105.771	5401
2107.826	5282
2109.879	5300
2111.932	5435
2113.985	5407
2116.037	5315
2118.088	5289
2120.141	5345
2122.191	5312
2124.239	5322
2126.288	5352
2128.337	5365
2130.387	5326
2132.434	5426
2134.481	5340
2136.528	5315
2138.574	5360
2140.618	5372
2142.665	5371
2144.71	5371
2146.753	5331
2148.797	5398
2150.838	5358
2152.883	5284
2154.923	5393
2156.965	5235
2159.007	5308
2161.046	5341
2163.086	5476
2165.126	5304
2167.163	5405
2169.202	5236
2171.239	5285
2173.277	5346
2175.314	5325
2177.349	5315
2179.385	5325
2181.42	5395
2183.453	5341
2185.49	5338
2187.522	5299
2189.555	5256
2191.586	5345
2193.619	5131
2195.651	5225
2197.682	5317
2199.711	5291
2201.74	5205
2203.769	5276
2205.799	5259
2207.828	5288
2209.855	5286
2211.882	5220
2213.908	5231
2215.934	5270
2217.961	5286
2219.986	5290
2222.01	5315
2224.034	5330
2226.057	5293
2228.08	5304
2230.104	5159
2232.124	5218
2234.145	5253
2236.166	5279
2238.186	5280
2240.207	5266
2242.227	5231
2244.244	5290
2246.262	5268
2248.28	5306
2250.299	5200
2252.314	5223
2254.33	5242
2256.346	5283
2258.36	5260
2260.375	5214
2262.391	5354
2264.403	5256
2266.416	5242
2268.427	5184
2270.44	5257
2272.453	5322
2274.463	5287
2276.474	5350
2278.483	5283
2280.493	5309
2282.501	5239
2284.51	5359
2286.518	5387
2288.524	5400
2290.532	5422
2292.537	5309
2294.544	5193
2296.55	5303
2298.554	5229
2300.557	5327
2302.562	5231
2304.566	5274
2306.568	5224
2308.569	5270
2310.572	5267
2312.573	5242
2314.573	5262
2316.574	5220
2318.573	5240
2320.571	5305
2322.571	5378
2324.569	5302
2326.567	5264
2328.564	5320
2330.56	5235
2332.556	5353
2334.551	5258
2336.546	5312
2338.542	5341
2340.535	5318
2342.529	5253
2344.521	5114
2346.512	5332
2348.505	5223
2350.497	5292
2352.487	5211
2354.478	5279
2356.468	5287
2358.457	5147
2360.446	5260
2362.434	5252
2364.422	5141
2366.408	5211
2368.395	5249
2370.383	5110
2372.369	5215
2374.353	5278
2376.338	5182
2378.321	5175
2380.307	5167
2382.29	5167
2384.272	5210
2386.254	5119
2388.235	5200
2390.218	5236
2392.198	5158
2394.179	5258
2396.157	5097
2398.137	5178
2400.115	5126
2402.095	5285
2404.072	5278
2406.048	5123
2408.026	5218
2410.001	5142
2411.977	5111
2413.953	5155
2415.927	5117
2417.9	5219
2419.875	5200
2421.847	5203
2423.821	5222
2425.792	5191
2427.763	5116
2429.736	5183
2431.706	5185
2433.677	5238
2435.646	5189
2437.615	5136
2439.583	5182
2441.551	5158
2443.519	5178
2445.486	5197
2447.452	5181
2449.418	5084
2451.383	5149
2453.348	5094
2455.314	5031
2457.278	5086
2459.241	5223
2461.205	5083
2463.167	5202
2465.131	5283
2467.091	5129
2469.052	5117
2471.012	5127
2472.972	5219
2474.932	5129
2476.891	5092
2478.85	5109
2480.808	5208
2482.766	5208
2484.722	5072
2486.68	5122
2488.636	5163
2490.591	5142
2492.546	5099
2494.5	5169
2496.456	5145
2498.41	5070
2500.362	5110
2502.315	5095
2504.266	5160
2506.218	5219
2508.169	5147
2510.121	5117
2512.07	5140
2514.019	5056
2515.968	5136
2517.918	5049
2519.866	5092
2521.813	5106
2523.76	5000
2525.707	5191
2527.653	5106
2529.599	5140
2531.543	5145
2533.489	5139
2535.433	5107
2537.376	5031
2539.32	5089
2541.264	5009
2543.205	5122
2545.147	5215
2547.087	5110
2549.029	5130
2550.969	5151
2552.908	5197
2554.847	5109
2556.786	5067
2558.724	5017
2560.663	5072
2562.6	5219
2564.537	5084
2566.473	5114
2568.408	5105
2570.345	5166
2572.28	5114
2574.214	5139
2576.148	5017
2578.081	5076
2580.014	5069
2581.947	5151
2583.879	5212
2585.81	5101
2587.741	5167
2589.67	5165
2591.602	5195
2593.532	5067
2595.461	5044
2597.388	5102
2599.316	5176
2601.244	5066
2603.172	5197
2605.098	5131
2607.023	5241
2608.949	5137
2610.873	5191
2612.8	5048
2614.723	5188
2616.647	5122
2618.569	5216
2620.493	5156
2622.416	5155
2624.338	5174
2626.258	5062
2628.179	5226
2630.099	5130
2632.019	5082
2633.939	5187
2635.857	5202
2637.775	5246
2639.694	5193
2641.61	5134
2643.528	5116
2645.444	5080
2647.361	5058
2649.276	5035
2651.19	5169
2653.105	5158
2655.019	5172
2656.934	5130
2658.846	5208
2660.758	5111
2662.67	5122
2664.583	5216
2666.493	5160
2668.404	5149
2670.313	5152
2672.223	5074
2674.134	5065
2676.042	5088
2677.95	5155
2679.858	5115
2681.765	5144
2683.673	5113
2685.579	5061
2687.483	5185
2689.389	5090
2691.294	5060
2693.198	5134
2695.104	5005
2697.006	5139
2698.909	5055
2700.811	5035
2702.713	5119
2704.615	5139
2706.516	4975
2708.417	5136
2710.316	5030
2712.216	5193
2714.115	5090
2716.014	5073
2717.913	5145
2719.81	5100
2721.707	5165
2723.603	5067
2725.501	5018
2727.396	5088
2729.292	5077
2731.186	5091
2733.081	5189
2734.976	5132
2736.87	5025
2738.762	5007
2740.653	5061
2742.546	5162
2744.437	5127
2746.329	4984
2748.22	5167
2750.11	5090
2751.999	5029
2753.889	4943
2755.778	5003
2757.666	4946
2759.553	5116
2761.44	5048
2763.328	5037
2765.215	5030
2767.101	5054
2768.986	4970
2770.87	4970
2772.754	4984
2774.638	4993
2776.523	5104
2778.405	5086
2780.288	4952
2782.17	5033
2784.051	5005
2785.934	5088
2787.814	5033
2789.694	5102
2791.574	5056
2793.453	5019
2795.332	5063
2797.212	5027
2799.088	4948
2800.966	5080
2802.843	5014
2804.719	5003
2806.597	5008
2808.471	4943
2810.346	4956
2812.221	4921
2814.094	5028
2815.969	5040
2817.843	4927
2819.714	5006
2821.587	5089
2823.459	5074
2825.329	4891
2827.202	5017
2829.072	5026
2830.942	5034
2832.811	4959
2834.68	5094
2836.549	5086
2838.418	4961
2840.284	5027
2842.152	5020
2844.018	5032
2845.885	4979
2847.751	5112
2849.616	5051
2851.482	5050
2853.345	4967
2855.208	5097
2857.074	5094
2858.937	5066
2860.799	5068
2862.66	5076
2864.522	5114
2866.385	5038
2868.245	5121
2870.104	5260
2871.964	5180
2873.824	5245
2875.683	5291
2877.542	5267
2879.4	5286
2881.257	5279
2883.114	5348
2884.97	5370
2886.827	5299
2888.683	5443
2890.537	5340
2892.392	5309
2894.246	5319
2896.1	5237
2897.954	5396
2899.807	5245
2901.66	5291
2903.51	5239
2905.362	5350
2907.214	5368
2909.065	5262
2910.915	5301
2912.765	5309
2914.613	5463
2916.463	5388
2918.311	5385
2920.158	5415
2922.006	5526
2923.853	5494
2925.698	5684
2927.546	5599
2929.392	5567
2931.236	5635
2933.081	5744
2934.924	5707
2936.77	5621
2938.613	5770
2940.455	5701
2942.298	5745
2944.139	5808
2945.982	5771
2947.823	5768
2949.662	5801
2951.503	5816
2953.342	5552
2955.182	5736
2957.021	5619
2958.858	5563
2960.697	5512
2962.534	5569
2964.37	5568
2966.207	5532
2968.044	5432
2969.879	5323
2971.714	5351
2973.548	5447
2975.383	5362
2977.218	5406
2979.051	5343
2980.883	5352
2982.715	5431
2984.547	5301
2986.379	5324
2988.21	5298
2990.04	5209
2991.87	5194
2993.7	5240
2995.53	5170
2997.359	5196
2999.187	5187
3001.015	5188
3002.842	5126
3004.669	5069
3006.497	5000
3008.323	5154
3010.148	5018
3011.974	4919
3013.797	5095
3015.623	4878
3017.447	4993
3019.27	4970
3021.094	4932
3022.915	4961
3024.737	4909
3026.56	4793
3028.38	4964
3030.201	4793
3032.022	4847
3033.84	4879
3035.662	4834
3037.481	4799
3039.298	4863
3041.117	4807
3042.933	4816
3044.752	4783
3046.568	4839
3048.385	4866
3050.2	4728
3052.016	4838
3053.83	4758
3055.646	4876
3057.46	4836
3059.272	4719
3061.086	4814
3062.898	4833
3064.711	4691
3066.524	4844
3068.335	4847
3070.145	4800
3071.956	4868
3073.766	4858
3075.576	4818
3077.385	4826
3079.193	4830
3081.002	4736
3082.81	4763
3084.618	4771
3086.425	4724
3088.231	4771
3090.036	4756
3091.842	4745
3093.648	4671
3095.452	4715
3097.257	4756
3099.06	4723
3100.863	4806
3102.666	4692
3104.47	4760
3106.272	4669
3108.073	4727
3109.875	4636
3111.676	4648
3113.477	4605
3115.277	4620
3117.077	4655
3118.874	4649
3120.673	4642
3122.473	4684
3124.271	4672
3126.066	4702
3127.863	4651
3129.66	4631
3131.456	4625
3133.252	4746
3135.047	4628
3136.842	4651
3138.635	4591
3140.429	4521
3142.223	4621
3144.016	4657
3145.808	4643
3147.6	4691
3149.392	4600
3151.183	4521
3152.975	4602
3154.765	4502
3156.553	4600
3158.344	4594
3160.132	4590
3161.922	4605
3163.71	4570
3165.497	4705
3167.285	4610
3169.071	4585
3170.858	4527
3172.645	4557
3174.429	4594
3176.214	4531
3177.998	4555
3179.783	4590
3181.568	4595
3183.351	4552
3185.133	4523
3186.915	4544
3188.698	4571
3190.481	4511
3192.261	4639
3194.042	4554
3195.822	4511
3197.601	4511
3199.381	4546
3201.161	4644
3202.939	4498
3204.717	4497
3206.495	4524
3208.272	4502
3210.05	4541
3211.826	4635
3213.602	4558
3215.376	4481
3217.151	4509
3218.927	4500
3220.702	4398
3222.476	4526
3224.249	4513
3226.021	4535
3227.793	4566
3229.567	4606
3231.339	4494
3233.109	4516
3234.88	4439
3236.651	4447
3238.421	4556
3240.191	4482
3241.96	4440
3243.728	4451
3245.497	4551
3247.263	4479
3249.033	4584
3250.799	4426
3252.566	4515
3254.331	4548
3256.097	4434
3257.863	4532
3259.628	4503
3261.392	4568
3263.156	4582
3264.919	4475
3266.683	4541
3268.447	4538
3270.208	4415
3271.969	4656
3273.731	4469
3275.492	4502
3277.253	4500
3279.013	4516
3280.773	4484
3282.532	4465
3284.291	4533
3286.05	4495
3287.808	4462
3289.566	4446
3291.323	4529
3293.079	4493
3294.835	4508
3296.593	4443
3298.348	4539
3300.102	4477
3301.857	4530
3303.611	4538
3305.366	4488
3307.119	4516
3308.872	4496
3310.624	4484
3312.376	4437
3314.129	4502
3315.881	4431
3317.631	4445
3319.38	4483
3321.13	4515
3322.88	4568
3324.631	4464
3326.379	4346
3328.126	4603
3329.875	4480
3331.622	4446
3333.371	4518
3335.116	4352
3336.863	4442
3338.609	4441
3340.353	4513
3342.1	4452
3343.845	4440
3345.588	4382
3347.332	4456
3349.074	4457
3350.817	4490
3352.56	4502
3354.303	4456
3356.043	4421
3357.785	4444
3359.525	4460
3361.268	4421
3363.007	4383
3364.745	4483
3366.485	4359
3368.223	4507
3369.962	4231
3371.701	4429
3373.438	4437
3375.174	4337
3376.911	4414
3378.647	4385
3380.384	4308
3382.118	4402
3383.854	4365
3385.588	4405
3387.322	4323
3389.057	4444
3390.79	4382
3392.522	4369
3394.255	4484
3395.987	4427
3397.719	4342
3399.451	4392
3401.181	4369
3402.911	4372
3404.641	4414
3406.371	4347
3408.101	4388
3409.83	4278
3411.558	4377
3413.285	4342
3415.011	4328
3416.739	4281
3418.467	4327
3420.193	4320
3421.919	4262
3423.644	4359
3425.368	4339
3427.094	4326
3428.818	4346
3430.542	4329
3432.264	4388
3433.987	4279
3435.712	4355
3437.434	4290
3439.155	4361
3440.876	4276
3442.596	4217
3444.317	4250
3446.039	4311
3447.757	4255
3449.477	4290
3451.195	4206
3452.914	4272
3454.632	4260
3456.35	4295
3458.067	4224
3459.784	4286
3461.5	4314
3463.216	4168
3464.932	4228
3466.647	4236
3468.362	4194
3470.076	4233
3471.789	4163
3473.505	4192
3475.217	4205
3476.929	4155
3478.641	4227
3480.354	4205
3482.066	4160
3483.777	4135
3485.487	4152
3487.197	4094
3488.908	4171
3490.617	4172
3492.327	4167
3494.035	4217
3495.743	4181
3497.451	4206
3499.158	4127
3500.866	4127
3502.572	4062
3504.278	4091
3505.984	4189
3507.689	4160
3509.396	4145
3511.1	4139
3512.804	4092
3514.508	4173
3516.211	4152
3517.913	4087
3519.616	4092
3521.319	4071
3523.021	4129
3524.722	4073
3526.422	4143
3528.124	4115
3529.824	4105
3531.524	4093
3533.222	4060
3534.921	4039
3536.62	4050
3538.318	3998
3540.016	3989
3541.714	4056
3543.41	4011
3545.107	4059
3546.803	4103
3548.5	4001
3550.194	4084
3551.889	4109
3553.583	3983
3555.279	3978
3556.972	4140
3558.666	3977
3560.358	4008
3562.051	4065
3563.742	4069
3565.435	4001
3567.126	4005
3568.817	4023
3570.507	3995
3572.197	4003
3573.888	4023
3575.577	4032
3577.265	3995
3578.954	3943
3580.642	4081
3582.329	3964
3584.017	3963
3585.704	3942
3587.391	3922
3589.077	3933
3590.762	3978
3592.449	4032
3594.133	3891
3595.817	3985
3597.501	4035
3599.185	3995
3600.869	3858
3602.552	3887
3604.234	4069
3605.916	3963
3607.598	3889
3609.279	3958
3610.961	4014
3612.642	3932
3614.321	3934
3616	3854
3617.68	3884
3619.36	3947
3621.039	3933
3622.716	3855
3624.394	3936
3626.071	3827
3627.748	3947
3629.425	3841
3631.102	3880
3632.778	3909
3634.452	3803
3636.127	3924
3637.803	3852
3639.477	3913
3641.151	3777
3642.823	3792
3644.497	3718
3646.171	3821
3647.842	3737
3649.515	3799
3651.185	3894
3652.857	3844
3654.527	3734
3656.198	3789
3657.868	3839
3659.537	3834
3661.207	3713
3662.875	3812
3664.544	3818
3666.212	3781
3667.879	3731
3669.546	3771
3671.212	3761
3672.88	3732
3674.546	3696
3676.211	3876
3677.875	3779
3679.541	3785
3681.205	3798
3682.87	3742
3684.533	3723
3686.196	3693
3687.859	3750
3689.521	3743
3691.184	3764
3692.845	3735
3694.507	3712
3696.167	3714
3697.827	3707
3699.487	3812
3701.148	3654
3702.808	3726
3704.466	3735
3706.125	3735
3707.783	3709
3709.442	3714
3711.099	3765
3712.757	3726
3714.412	3746
3716.068	3708
3717.725	3679
3719.381	3723
3721.036	3685
3722.689	3681
3724.344	3817
3725.998	3634
3727.652	3610
3729.305	3768
3730.958	3647
3732.61	3718
3734.262	3686
3735.915	3734
3737.565	3672
3739.217	3668
3740.866	3646
3742.516	3617
3744.165	3755
3745.816	3639
3747.464	3680
3749.113	3679
3750.761	3635
3752.409	3658
3754.057	3669
3755.703	3672
3757.35	3624
3758.996	3641
3760.641	3578
3762.289	3582
3763.933	3662
3765.577	3654
3767.222	3618
3768.865	3625
3770.508	3592
3772.152	3662
3773.796	3536
3775.438	3640
3777.079	3562
3778.721	3560
3780.363	3567
3782.003	3622
3783.643	3680
3785.283	3588
3786.923	3637
3788.563	3587
3790.203	3503
3791.841	3558
3793.479	3691
3795.115	3642
3796.753	3610
3798.391	3561
3800.027	3565
3801.664	3633
3803.299	3503
3804.935	3525
3806.571	3610
3808.206	3601
3809.839	3556
3811.473	3616
3813.107	3501
3814.74	3513
3816.375	3517
3818.006	3574
3819.638	3527
3821.27	3597
3822.9	3512
3824.532	3538
3826.163	3460
3827.792	3554
3829.423	3561
3831.051	3503
3832.682	3497
3834.311	3485
3835.938	3469
3837.566	3440
3839.193	3511
3840.821	3496
3842.448	3615
3844.075	3506
3845.7	3442
3847.325	3435
3848.951	3540
3850.576	3559
3852.201	3455
3853.825	3482
3855.448	3529
3857.072	3475
3858.694	3482
3860.318	3414
3861.939	3417
3863.562	3428
3865.183	3519
3866.804	3507
3868.426	3449
3870.045	3466
3871.666	3390
3873.285	3505
3874.904	3495
3876.524	3455
3878.142	3378
3879.76	3488
3881.378	3475
3882.995	3394
3884.612	3461
3886.229	3431
3887.845	3437
3889.461	3384
3891.076	3471
3892.691	3451
3894.307	3425
3895.922	3455
3897.536	3427
3899.149	3481
3900.761	3454
3902.374	3398
3903.988	3341
3905.6	3401
3907.212	3405
3908.822	3410
3910.433	3412
3912.045	3455
3913.655	3419
3915.265	3339
3916.875	3431
3918.483	3389
3920.093	3383
3921.702	3352
3923.309	3375
3924.917	3360
3926.523	3460
3928.13	3419
3929.739	3376
3931.344	3413
3932.95	3371
3934.555	3294
3936.159	3484
3937.766	3389
3939.369	3372
3940.974	3412
3942.577	3324
3944.181	3340
3945.783	3388
3947.386	3456
3948.989	3357
3950.59	3274
3952.191	3349
3953.791	3302
3955.394	3362
3956.994	3346
3958.593	3298
3960.192	3323
3961.791	3350
3963.392	3447
3964.99	3286
3966.588	3291
3968.185	3262
3969.782	3375
3971.379	3335
3972.976	3410
3974.572	3337
3976.168	3269
3977.763	3291
3979.358	3272
3980.954	3208
3982.548	3317
3984.142	3259
3985.736	3242
3987.329	3242
3988.922	3311
3990.516	3214
3992.108	3272
3993.698	3276
3995.29	3304
3996.881	3312
3998.473	3243
4000.064	3233
4001.653	3232
4003.242	3147
4004.832	3224
4006.422	3260
4008.01	3194
4009.598	3156
4011.186	3206
4012.773	3218
4014.36	3259
4015.947	3261
4017.534	3167
4019.119	3172
4020.705	3223
4022.291	3190
4023.876	3162
4025.461	3235
4027.044	3198
4028.627	3095
4030.211	3220
4031.795	3160
4033.378	3151
4034.96	3222
4036.542	3192
4038.124	3102
4039.704	3190
4041.286	3185
4042.867	3210
4044.447	3128
4046.026	3146
4047.606	3168
4049.187	3180
4050.765	3187
4052.343	3173
4053.92	3171
4055.498	3123
4057.076	3127
4058.654	3190
4060.23	3141
4061.806	3069
4063.381	3069
4064.957	3090
4066.533	3057
4068.107	3100
4069.682	3106
4071.256	3075
4072.829	3157
4074.404	3109
4075.977	3064
4077.549	3046
4079.121	3078
4080.693	3074
4082.265	3086
4083.836	3125
4085.407	3037
4086.977	3063
4088.547	3096
4090.117	3066
4091.687	3065
4093.256	3125
4094.825	3079
4096.392	3048
4097.96	3111
4099.528	3067
4101.097	3093
4102.663	3093
4104.229	3054
4105.795	3046
4107.361	3065
4108.928	3044
4110.493	3107
4112.058	2963
4113.621	3128
4115.186	3046
4116.75	3021
4118.313	3028
4119.876	3075
4121.438	3032
4123	3097
4124.562	3011
4126.125	3043
4127.686	3023
4129.246	3048
4130.807	3012
4132.367	3075
4133.927	3046
4135.486	2999
4137.046	3079
4138.604	3036
4140.162	2990
4141.72	2987
4143.279	3020
4144.836	3037
4146.393	2947
4147.949	2985
4149.505	2934
4151.062	2916
4152.617	2995
4154.172	2949
4155.727	2915
4157.281	2899
4158.836	2938
4160.39	2932
4161.943	2944
4163.496	2926
4165.048	2925
4166.601	2948
4168.154	2878
4169.706	2965
4171.257	2909
4172.808	2939
4174.358	2850
4175.909	2911
4177.458	2911
4179.008	2917
4180.558	2947
4182.106	2961
4183.655	2915
4185.204	2932
4186.751	2903
4188.298	2884
4189.845	2900
4191.392	2872
4192.939	2870
4194.485	2843
4196.031	2893
4197.576	2878
4199.121	2797
4200.666	2916
4202.211	2873
4203.754	2886
4205.298	2856
4206.84	2902
4208.384	2854
4209.927	2827
4211.47	2887
4213.011	2807
4214.552	2836
4216.094	2840
4217.635	2903
4219.175	2877
4220.716	2888
4222.255	2955
4223.793	2860
4225.335	2876
4226.873	2878
4228.411	2887
4229.948	2737
4231.486	2841
4233.024	2802
4234.562	2773
4236.098	2865
4237.634	2849
4239.169	2795
4240.705	2826
4242.241	2841
4243.776	2811
4245.31	2881
4246.844	2833
4248.378	2813
4249.911	2829
4251.445	2779
4252.978	2791
4254.51	2818
4256.042	2815
4257.574	2793
4259.107	2745
4260.638	2767
4262.169	2803
4263.699	2765
4265.228	2778
4266.759	2792
4268.289	2737
4269.818	2758
4271.345	2860
4272.874	2822
4274.402	2771
4275.931	2820
4277.458	2787
4278.985	2785
4280.512	2713
4282.037	2760
4283.564	2799
4285.089	2731
4286.615	2673
4288.139	2789
4289.664	2785
4291.187	2790
4292.712	2737
4294.235	2725
4295.759	2739
4297.281	2683
4298.804	2793
4300.327	2720
4301.849	2693
4303.37	2818
4304.891	2782
4306.412	2781
4307.933	2676
4309.453	2702
4310.973	2703
4312.492	2735
