398.1873	4750
400.7097	4720
403.2336	4748
405.7547	4665
408.2751	4715
410.7948	4795
413.3138	4890
415.83	4760
418.3497	4822
420.8666	4864
423.3829	4860
425.8985	4922
428.4133	5050
430.9275	5012
433.441	4917
435.9538	5066
438.4639	4968
440.9753	5095
443.4881	5009
445.9982	5107
448.5055	5036
451.0142	4985
453.5201	5003
456.0274	5053
458.5361	5086
461.04	5091
463.5453	5017
466.0478	5098
468.5517	5069
471.0549	5080
473.5574	5084
476.0572	5145
478.5584	5133
481.0568	5084
483.5545	5121
486.0557	5083
488.5521	5138
491.0478	5239
493.5449	5243
496.0392	5301
498.5349	5181
501.0299	5171
503.5222	5218
506.0139	5229
508.5048	5268
510.9991	5246
513.4887	5298
515.9777	5222
518.4659	5257
520.9534	5226
523.4403	5277
525.9306	5144
528.4161	5239
530.9009	5364
533.3851	5322
535.8687	5216
538.3535	5305
540.8356	5297
543.3171	5194
545.7979	5303
548.278	5262
550.7595	5246
553.2383	5381
555.7144	5232
558.1918	5270
560.6685	5399
563.1446	5393
565.6221	5393
568.0968	5354
570.5688	5333
573.0422	5348
575.515	5459
577.989	5470
580.4584	5531
582.9291	5428
585.3991	5559
587.8685	5456
590.3352	5409
592.8052	5479
595.2706	5539
597.7372	5469
600.2033	5470
602.6666	5483
605.1334	5439
607.5953	5547
610.0587	5468
612.5193	5467
614.9814	5451
617.4427	5398
619.9034	5418
622.3615	5432
624.8208	5383
627.2775	5425
629.7335	5449
632.1929	5324
634.6476	5456
637.1016	5470
639.5569	5492
642.0096	5504
644.4637	5495
646.9151	5512
649.3678	5408
651.8179	5490
654.2672	5471
656.7159	5592
659.166	5552
661.6154	5646
664.0622	5619
666.5082	5556
668.9537	5565
671.4005	5589
673.8445	5570
676.288	5589
678.7308	5696
681.1729	5620
683.6163	5683
686.0572	5693
688.4973	5642
690.9368	5552
693.3757	5701
695.8138	5663
698.2534	5597
700.6902	5645
703.1245	5749
705.56	5650
707.9949	5660
710.4311	5767
712.8647	5682
715.2957	5714
717.7279	5816
720.1595	5793
722.5905	5765
725.0208	5822
727.4505	5864
729.8795	5794
732.3058	6027
734.7336	5762
737.1626	5918
739.587	5958
742.0128	5948
744.4359	5807
746.8604	6045
749.2841	5940
751.7073	5968
754.1278	5965
756.5496	5960
758.9688	6063
761.3893	6030
763.8093	6065
766.2285	6031
768.6451	5923
771.0611	6042
773.4784	6100
775.895	6074
778.3091	6001
780.7244	6007
783.1371	5999
785.5493	6060
787.9626	6092
790.3754	5945
792.7856	5905
795.1951	5958
797.6039	6002
800.0121	6028
802.4236	5985
804.8306	6146
807.2369	6110
809.6425	5937
812.0475	6056
814.4538	6064
816.8575	6048
819.2606	6102
821.663	6089
824.0648	6093
826.4659	6195
828.8683	6132
831.2682	6129
833.6674	6088
836.066	6198
838.4639	6158
840.8632	6221
843.2579	6253
845.6539	6218
848.0493	6206
850.444	6176
852.84	6206
855.2315	6181
857.6243	6366
860.0165	6288
862.4081	6226
864.797	6216
867.1892	6260
869.5789	6131
871.9659	6298
874.3542	6356
876.74	6220
879.129	6275
881.5155	6276
883.8994	6136
886.2845	6189
888.6671	6149
891.051	6297
893.4343	6287
895.8169	6189
898.197	6103
900.5783	6242
902.9571	6298
905.3372	6193
907.7167	6320
910.0936	6224
912.4698	6295
914.8474	6232
917.2244	6387
919.5987	6308
921.9744	6547
924.3475	6313
926.72	6500
929.0918	6482
931.4669	6538
933.8375	6403
936.2074	6404
938.5767	6525
940.9454	6645
943.3154	6540
945.6829	6678
948.0497	6789
950.4178	6879
952.7833	7129
955.1483	7264
957.5145	7496
959.8782	7528
962.2412	7491
964.6036	7507
966.9655	7222
969.3266	6984
971.6871	6874
974.0471	6702
976.4064	6552
978.765	6498
981.125	6537
983.4824	6415
985.8373	6431
988.1935	6383
990.549	6552
992.9039	6457
995.2602	6546
997.6119	6438
999.965	6385
1002.317	6504
1004.667	6544
1007.02	6472
1009.371	6358
1011.719	6402
1014.068	6439
1016.415	6518
1018.765	6464
1021.111	6441
1023.458	6533
1025.804	6436
1028.147	6543
1030.49	6581
1032.837	6522
1035.179	6595
1037.522	6568
1039.862	6600
1042.204	6628
1044.546	6471
1046.884	6553
1049.224	6509
1051.562	6484
1053.899	6545
1056.237	6498
1058.575	6594
1060.91	6690
1063.244	6665
1065.58	6639
1067.913	6642
1070.248	6723
1072.579	6665
1074.911	6744
1077.242	6725
1079.572	6570
1081.905	6664
1084.234	6521
1086.562	6608
1088.89	6605
1091.217	6582
1093.544	6581
1095.871	6618
1098.197	6603
1100.521	6677
1102.845	6502
1105.169	6544
1107.491	6554
1109.814	6694
1112.135	6593
1114.456	6683
1116.776	6610
1119.096	6611
1121.415	6631
1123.734	6794
1126.052	6671
1128.369	6568
1130.686	6833
1133.002	6705
1135.318	6705
1137.632	6657
1139.945	6647
1142.258	6715
1144.573	6644
1146.884	6646
1149.196	6722
1151.505	6796
1153.816	6700
1156.124	6751
1158.435	6736
1160.742	6728
1163.051	6761
1165.356	6673
1167.663	6730
1169.97	6576
1172.276	6639
1174.579	6598
1176.881	6612
1179.186	6720
1181.487	6682
1183.79	6683
1186.092	6682
1188.392	6590
1190.691	6654
1192.991	6694
1195.291	6595
1197.588	6658
1199.885	6658
1202.181	6599
1204.479	6602
1206.775	6674
1209.07	6568
1211.363	6711
1213.656	6605
1215.949	6718
1218.241	6723
1220.534	6688
1222.825	6717
1225.115	6640
1227.405	6689
1229.693	6873
1231.984	6776
1234.271	6758
1236.558	6813
1238.845	6926
1241.131	6746
1243.416	6903
1245.703	6844
1247.987	6853
1250.269	6927
1252.552	6820
1254.834	6951
1257.118	7009
1259.399	6830
1261.678	6933
1263.958	6878
1266.237	6924
1268.516	6882
1270.794	6895
1273.072	7091
1275.347	6834
1277.624	6809
1279.899	6805
1282.175	6832
1284.449	6847
1286.722	6858
1288.995	6937
1291.266	6802
1293.54	6842
1295.81	6853
1298.081	6894
1300.35	6736
1302.62	6912
1304.889	6888
1307.156	6878
1309.425	6867
1311.69	6820
1313.957	6879
1316.222	6771
1318.488	6849
1320.751	6752
1323.016	6791
1325.278	6887
1327.54	6859
1329.803	6915
1332.065	6943
1334.325	6906
1336.584	6916
1338.843	6795
1341.101	6899
1343.36	6781
1345.617	6849
1347.876	6843
1350.131	6865
1352.387	6886
1354.643	6784
1356.897	6796
1359.151	6866
1361.403	6831
1363.656	6833
1365.909	6984
1368.16	6974
1370.409	6944
1372.659	6896
1374.909	6985
1377.157	6821
1379.407	6964
1381.655	7095
1383.9	6902
1386.147	6918
1388.393	6945
1390.64	6940
1392.885	7025
1395.127	6976
1397.37	6999
1399.614	6951
1401.854	6995
1404.098	6900
1406.339	6949
1408.578	6976
1410.818	7001
1413.056	7045
1415.297	7013
1417.533	7118
1419.771	7043
1422.006	6902
1424.243	6935
1426.479	7093
1428.715	7050
1430.948	6996
1433.182	6972
1435.414	7103
1437.647	7181
1439.88	7233
1442.11	7137
1444.342	7121
1446.571	7254
1448.799	7161
1451.029	7193
1453.258	7173
1455.485	7149
1457.711	7257
1459.937	7114
1462.164	7245
1464.39	7188
1466.614	7128
1468.838	7077
1471.06	7051
1473.283	7152
1475.506	7087
1477.727	7047
1479.949	7011
1482.169	6975
1484.389	6938
1486.609	6956
1488.828	6854
1491.045	6905
1493.261	6937
1495.477	6936
1497.693	6916
1499.91	7073
1502.125	6938
1504.339	6899
1506.553	6955
1508.766	6873
1510.979	6900
1513.191	6950
1515.402	7034
1517.613	6934
1519.823	6849
1522.033	6847
1524.242	6915
1526.451	6933
1528.657	6958
1530.865	6992
1533.072	6930
1535.278	6953
1537.484	7000
1539.687	6966
1541.892	6949
1544.096	7101
1546.299	6921
1548.502	7061
1550.703	7060
1552.905	7049
1555.104	6858
1557.303	7142
1559.505	6926
1561.703	6935
1563.902	6986
1566.099	7099
1568.295	7057
1570.494	7051
1572.689	7099
1574.883	7036
1577.079	7051
1579.272	7088
1581.467	7199
1583.659	7096
1585.853	7124
1588.044	7087
1590.234	7274
1592.424	7170
1594.615	7245
1596.806	7305
1598.994	7194
1601.182	7296
1603.369	7241
1605.557	7086
1607.744	7174
1609.929	7190
1612.114	7366
1614.298	7138
1616.482	7238
1618.667	7170
1620.85	7212
1623.032	7158
1625.214	7232
1627.395	7208
1629.575	7273
1631.755	7298
1633.935	7250
1636.114	7133
1638.292	7284
1640.471	7240
1642.647	7257
1644.823	7310
1647	7181
1649.175	7163
1651.348	7274
1653.525	7252
1655.698	7229
1657.87	7356
1660.043	7231
1662.213	7278
1664.387	7188
1666.558	7306
1668.727	7241
1670.896	7270
1673.064	7278
1675.233	7389
1677.401	7335
1679.569	7316
1681.735	7258
1683.902	7269
1686.066	7320
1688.233	7307
1690.397	7287
1692.559	7223
1694.723	7248
1696.885	7182
1699.048	7191
1701.21	7144
1703.37	7326
1705.53	7169
1707.689	7226
1709.849	7178
1712.009	7211
1714.166	7191
1716.323	7239
1718.479	7281
1720.634	7119
1722.793	7191
1724.948	7207
1727.102	7243
1729.255	7280
1731.408	7258
1733.562	7260
1735.714	7199
1737.865	7149
1740.016	7224
1742.166	7200
1744.316	7182
1746.467	7253
1748.616	7210
1750.764	7350
1752.911	7256
1755.056	7323
1757.205	7212
1759.35	7311
1761.496	7156
1763.641	7179
1765.785	7360
1767.927	7295
1770.072	7354
1772.214	7329
1774.355	7242
1776.496	7285
1778.637	7216
1780.778	7174
1782.918	7175
1785.057	7292
1787.194	7298
1789.333	7251
1791.472	7396
1793.608	7276
1795.745	7222
1797.879	7222
1800.015	7209
1802.148	7255
1804.284	7316
1806.417	7230
1808.548	7365
1810.682	7274
1812.812	7295
1814.946	7292
1817.075	7320
1819.205	7202
1821.335	7215
1823.463	7368
1825.59	7256
1827.721	7268
1829.847	7297
1831.973	7282
1834.098	7250
1836.223	7193
1838.351	7188
1840.475	7208
1842.598	7245
1844.721	7202
1846.843	7256
1848.966	7243
1851.087	7161
1853.21	7316
1855.33	7242
1857.449	7255
1859.568	7125
1861.688	7266
1863.806	7210
1865.924	7263
1868.039	7335
1870.155	7248
1872.273	7303
1874.388	7130
1876.503	7258
1878.617	7111
1880.73	7174
1882.844	7019
1884.956	7291
1887.068	7343
1889.18	7243
1891.291	7220
1893.4	7326
1895.511	7251
1897.621	7309
1899.73	7249
1901.837	7159
1903.944	7330
1906.053	7189
1908.159	7254
1910.265	7329
1912.369	7337
1914.474	7414
1916.577	7296
1918.683	7359
1920.785	7301
1922.888	7409
1924.989	7391
1927.091	7432
1929.193	7357
1931.294	7321
1933.393	7326
1935.493	7283
1937.59	7450
1939.689	7427
1941.788	7398
1943.884	7387
1945.98	7429
1948.077	7226
1950.171	7426
1952.267	7352
1954.361	7317
1956.455	7461
1958.548	7298
1960.64	7385
1962.733	7335
1964.824	7261
1966.915	7518
1969.005	7502
1971.096	7302
1973.185	7354
1975.275	7358
1977.363	7393
1979.45	7326
1981.537	7276
1983.623	7284
1985.711	7316
1987.796	7336
1989.881	7345
1991.965	7332
1994.047	7287
1996.132	7302
1998.215	7212
2000.297	7220
2002.378	7322
2004.46	7317
2006.54	7213
2008.62	7284
2010.7	7328
2012.779	7340
2014.858	7328
2016.934	7379
2019.013	7396
2021.09	7301
2023.165	7375
2025.241	7239
2027.317	7255
2029.39	7230
2031.466	7261
2033.538	7351
2035.612	7296
2037.683	7239
2039.755	7343
2041.827	7306
2043.898	7358
2045.968	7267
2048.038	7225
2050.106	7403
2052.177	7239
2054.244	7397
2056.313	7262
2058.379	7356
2060.444	7265
2062.511	7420
2064.577	7257
2066.641	7462
2068.705	7342
2070.77	7445
2072.832	7234
2074.896	7283
2076.958	7368
2079.02	7330
2081.081	7252
2083.141	7388
2085.2	7326
2087.261	7273
2089.319	7301
2091.377	7325
2093.435	7411
2095.492	7375
2097.552	7264
2099.607	7226
2101.663	7423
2103.718	7280
2105.771	7387
2107.826	7307
2109.879	7308
2111.932	7369
2113.985	7320
2116.037	7337
2118.088	7393
2120.141	7329
2122.191	7267
2124.239	7390
2126.288	7366
2128.337	7326
2130.387	7409
2132.434	7336
2134.481	7224
2136.528	7334
2138.574	7243
2140.618	7345
2142.665	7299
2144.71	7207
2146.753	7309
2148.797	7234
2150.838	7278
2152.883	7338
2154.923	7353
2156.965	7233
2159.007	7196
2161.046	7200
2163.086	7350
2165.126	7321
2167.163	7279
2169.202	7393
2171.239	7221
2173.277	7196
2175.314	7147
2177.349	7130
2179.385	7261
2181.42	7160
2183.453	7342
2185.49	7095
2187.522	7289
2189.555	7202
2191.586	7141
2193.619	7194
2195.651	7215
2197.682	7145
2199.711	7165
2201.74	7197
2203.769	7164
2205.799	7092
2207.828	7052
2209.855	7176
2211.882	7174
2213.908	7211
2215.934	7211
2217.961	7135
2219.986	7172
2222.01	7192
2224.034	7072
2226.057	7141
2228.08	7111
2230.104	7164
2232.124	7087
2234.145	7134
2236.166	7181
2238.186	7206
2240.207	7074
2242.227	7214
2244.244	7147
2246.262	7125
2248.28	7221
2250.299	7043
2252.314	7119
2254.33	7189
2256.346	7197
2258.36	7151
2260.375	7120
2262.391	7223
2264.403	7111
2266.416	7231
2268.427	7181
2270.44	7126
2272.453	7206
2274.463	7202
2276.474	7167
2278.483	7288
2280.493	7112
2282.501	7099
2284.51	7176
2286.518	7079
2288.524	7107
2290.532	7201
2292.537	7125
2294.544	7099
2296.55	7166
2298.554	7129
2300.557	7150
2302.562	7192
2304.566	7107
2306.568	7215
2308.569	7211
2310.572	7197
2312.573	7058
2314.573	7263
2316.574	7113
2318.573	7063
2320.571	7148
2322.571	7072
2324.569	7163
2326.567	7134
2328.564	7069
2330.56	7058
2332.556	7122
2334.551	7027
2336.546	7007
2338.542	7097
2340.535	7010
2342.529	7122
2344.521	7100
2346.512	6937
2348.505	7069
2350.497	7002
2352.487	7118
2354.478	6993
2356.468	6961
2358.457	7041
2360.446	6949
2362.434	7076
2364.422	6976
2366.408	6891
2368.395	7105
2370.383	7007
2372.369	7014
2374.353	7095
2376.338	7020
2378.321	7043
2380.307	7031
2382.29	6987
2384.272	7129
2386.254	7058
2388.235	6986
2390.218	6983
2392.198	6905
2394.179	7051
2396.157	6958
2398.137	7018
2400.115	6980
2402.095	6901
2404.072	6937
2406.048	6987
2408.026	7034
2410.001	6816
2411.977	6968
2413.953	6861
2415.927	6930
2417.9	6886
2419.875	7092
2421.847	6901
2423.821	6870
2425.792	6965
2427.763	7019
2429.736	6961
2431.706	7003
2433.677	6823
2435.646	6928
2437.615	6916
2439.583	6879
2441.551	7043
2443.519	6976
2445.486	7005
2447.452	7015
2449.418	6936
2451.383	6858
2453.348	6947
2455.314	6906
2457.278	6881
2459.241	6909
2461.205	6871
2463.167	6943
2465.131	6944
2467.091	7066
2469.052	6853
2471.012	6999
2472.972	6899
2474.932	6816
2476.891	6854
2478.85	6922
2480.808	6830
2482.766	6881
2484.722	6840
2486.68	6864
2488.636	6947
2490.591	6784
2492.546	6754
2494.5	6923
2496.456	6915
2498.41	6919
2500.362	6746
2502.315	6808
2504.266	6743
2506.218	6801
2508.169	6929
2510.121	6836
2512.07	6882
2514.019	6872
2515.968	6790
2517.918	6742
2519.866	6735
2521.813	6784
2523.76	6803
2525.707	6849
2527.653	6860
2529.599	6848
2531.543	6768
2533.489	6868
2535.433	6901
2537.376	6793
2539.32	6846
2541.264	6918
2543.205	6888
2545.147	6835
2547.087	6820
2549.029	6839
2550.969	6878
2552.908	6937
2554.847	6804
2556.786	6863
2558.724	6742
2560.663	6775
2562.6	6821
2564.537	6708
2566.473	6773
2568.408	6877
2570.345	6777
2572.28	6781
2574.214	6816
2576.148	6861
2578.081	6859
2580.014	6936
2581.947	6804
2583.879	6778
2585.81	6886
2587.741	6869
2589.67	6787
2591.602	6898
2593.532	6779
2595.461	6888
2597.388	6866
2599.316	6877
2601.244	6822
2603.172	6787
2605.098	6773
2607.023	6823
2608.949	6867
2610.873	6886
2612.8	7018
2614.723	6925
2616.647	6833
2618.569	6917
2620.493	6887
2622.416	6927
2624.338	6801
2626.258	6889
2628.179	6849
2630.099	6834
2632.019	6868
2633.939	6793
2635.857	6840
2637.775	6845
2639.694	6901
2641.61	6813
2643.528	6858
2645.444	6786
2647.361	6834
2649.276	6829
2651.19	6782
2653.105	6874
2655.019	6813
2656.934	6946
2658.846	6816
2660.758	6812
2662.67	6818
2664.583	6875
2666.493	6865
2668.404	6863
2670.313	6883
2672.223	6841
2674.134	6893
2676.042	6801
2677.95	6897
2679.858	6892
2681.765	6843
2683.673	6824
2685.579	6889
2687.483	6857
2689.389	6846
2691.294	6730
2693.198	6832
2695.104	6875
2697.006	6817
2698.909	6688
2700.811	6796
2702.713	6717
2704.615	6748
2706.516	6708
2708.417	6862
2710.316	6754
2712.216	6721
2714.115	6819
2716.014	6723
2717.913	6944
2719.81	6620
2721.707	6622
2723.603	6863
2725.501	6701
2727.396	6625
2729.292	6682
2731.186	6694
2733.081	6811
2734.976	6668
2736.87	6748
2738.762	6661
2740.653	6720
2742.546	6626
2744.437	6757
2746.329	6683
2748.22	6649
2750.11	6651
2751.999	6749
2753.889	6690
2755.778	6678
2757.666	6670
2759.553	6727
2761.44	6750
2763.328	6795
2765.215	6684
2767.101	6665
2768.986	6759
2770.87	6647
2772.754	6801
2774.638	6637
2776.523	6637
2778.405	6746
2780.288	6785
2782.17	6707
2784.051	6562
2785.934	6748
2787.814	6618
2789.694	6586
2791.574	6558
2793.453	6614
2795.332	6632
2797.212	6787
2799.088	6532
2800.966	6752
2802.843	6542
2804.719	6558
2806.597	6793
2808.471	6672
2810.346	6585
2812.221	6619
2814.094	6763
2815.969	6692
2817.843	6540
2819.714	6561
2821.587	6624
2823.459	6654
2825.329	6548
2827.202	6656
2829.072	6575
2830.942	6615
2832.811	6649
2834.68	6712
2836.549	6674
2838.418	6608
2840.284	6577
2842.152	6701
2844.018	6669
2845.885	6704
2847.751	6774
2849.616	6697
2851.482	6685
2853.345	6623
2855.208	6733
2857.074	6707
2858.937	6722
2860.799	6759
2862.66	6730
2864.522	6738
2866.385	6799
2868.245	6904
2870.104	6927
2871.964	6975
2873.824	6984
2875.683	6991
2877.542	6994
2879.4	7052
2881.257	7086
2883.114	7095
2884.97	7009
2886.827	7104
2888.683	7071
2890.537	7060
2892.392	7081
2894.246	7077
2896.1	7250
2897.954	7043
2899.807	7035
2901.66	7048
2903.51	6998
2905.362	6987
2907.214	6980
2909.065	6971
2910.915	7144
2912.765	7035
2914.613	7031
2916.463	7318
2918.311	7315
2920.158	7206
2922.006	7295
2923.853	7320
2925.698	7330
2927.546	7464
2929.392	7421
2931.236	7434
2933.081	7373
2934.924	7494
2936.77	7468
2938.613	7490
2940.455	7659
2942.298	7593
2944.139	7584
2945.982	7564
2947.823	7534
2949.662	7603
2951.503	7604
2953.342	7456
2955.182	7469
2957.021	7411
2958.858	7445
2960.697	7423
2962.534	7438
2964.37	7364
2966.207	7365
2968.044	7162
2969.879	7122
2971.714	7116
2973.548	7008
2975.383	7111
2977.218	6883
2979.051	7053
2980.883	7038
2982.715	6944
2984.547	7042
2986.379	7032
2988.21	6945
2990.04	6930
2991.87	6750
2993.7	6863
2995.53	6802
2997.359	6930
2999.187	6639
3001.015	6729
3002.842	6702
3004.669	6542
3006.497	6619
3008.323	6484
3010.148	6551
3011.974	6473
3013.797	6479
3015.623	6515
3017.447	6377
3019.27	6418
3021.094	6516
3022.915	6368
3024.737	6429
3026.56	6413
3028.38	6308
3030.201	6381
3032.022	6454
3033.84	6211
3035.662	6218
3037.481	6300
3039.298	6303
3041.117	6380
3042.933	6338
3044.752	6379
3046.568	6346
3048.385	6322
3050.2	6225
3052.016	6226
3053.83	6133
3055.646	6232
3057.46	6249
3059.272	6197
3061.086	6121
3062.898	6343
3064.711	6217
3066.524	6284
3068.335	6224
3070.145	6261
3071.956	6315
3073.766	6267
3075.576	6253
3077.385	6281
3079.193	6261
3081.002	6182
3082.81	6172
3084.618	6147
3086.425	6268
3088.231	6236
3090.036	6197
3091.842	6191
3093.648	6149
3095.452	6149
3097.257	6217
3099.06	6128
3100.863	6118
3102.666	6226
3104.47	6246
3106.272	5974
3108.073	6102
3109.875	6011
3111.676	6146
3113.477	6047
3115.277	6113
3117.077	5934
3118.874	6088
3120.673	6059
3122.473	6005
3124.271	5984
3126.066	6103
3127.863	5957
3129.66	6065
3131.456	5961
3133.252	6057
3135.047	5961
3136.842	6017
3138.635	5984
3140.429	6087
3142.223	5970
3144.016	5966
3145.808	5967
3147.6	5999
3149.392	5904
3151.183	5913
3152.975	5971
3154.765	5993
3156.553	5937
3158.344	5992
3160.132	5895
3161.922	5871
3163.71	5955
3165.497	5885
3167.285	6056
3169.071	5947
3170.858	5965
3172.645	5883
3174.429	5957
3176.214	5921
3177.998	5936
3179.783	5953
3181.568	5967
3183.351	5835
3185.133	5952
3186.915	5948
3188.698	5876
3190.481	5777
3192.261	5905
3194.042	5867
3195.822	5836
3197.601	5887
3199.381	5867
3201.161	5913
3202.939	5796
3204.717	5842
3206.495	5917
3208.272	5857
3210.05	5836
3211.826	5926
3213.602	5844
3215.376	5875
3217.151	5909
3218.927	5809
3220.702	5788
3222.476	5716
3224.249	5897
3226.021	5889
3227.793	5826
3229.567	5824
3231.339	5802
3233.109	5746
3234.88	5921
3236.651	5829
3238.421	5743
3240.191	5903
3241.96	5846
3243.728	5890
3245.497	5816
3247.263	5772
3249.033	5821
3250.799	5776
3252.566	5799
3254.331	5901
3256.097	5896
3257.863	5777
3259.628	5780
3261.392	5772
3263.156	5836
3264.919	5810
3266.683	5791
3268.447	5865
3270.208	5761
3271.969	5804
3273.731	5873
3275.492	5807
3277.253	5804
3279.013	5789
3280.773	5819
3282.532	5902
3284.291	5848
3286.05	5794
3287.808	5756
3289.566	5837
3291.323	5783
3293.079	5809
3294.835	5785
3296.593	5725
3298.348	5765
3300.102	5804
3301.857	5827
3303.611	5855
3305.366	5801
3307.119	5759
3308.872	5794
3310.624	5830
3312.376	5726
3314.129	5749
3315.881	5774
3317.631	5816
3319.38	5828
3321.13	5789
3322.88	5744
3324.631	5828
3326.379	5732
3328.126	5719
3329.875	5701
3331.622	5674
3333.371	5742
3335.116	5718
3336.863	5740
3338.609	5715
3340.353	5708
3342.1	5786
3343.845	5694
3345.588	5690
3347.332	5737
3349.074	5728
3350.817	5774
3352.56	5713
3354.303	5551
3356.043	5615
3357.785	5705
3359.525	5660
3361.268	5639
3363.007	5735
3364.745	5719
3366.485	5729
3368.223	5689
3369.962	5521
3371.701	5634
3373.438	5643
3375.174	5684
3376.911	5698
3378.647	5619
3380.384	5541
3382.118	5577
3383.854	5729
3385.588	5628
3387.322	5658
3389.057	5670
3390.79	5595
3392.522	5599
3394.255	5570
3395.987	5582
3397.719	5700
3399.451	5577
3401.181	5610
3402.911	5684
3404.641	5593
3406.371	5552
3408.101	5596
3409.83	5624
3411.558	5553
3413.285	5602
3415.011	5492
3416.739	5517
3418.467	5578
3420.193	5447
3421.919	5570
3423.644	5502
3425.368	5504
3427.094	5463
3428.818	5471
3430.542	5560
3432.264	5481
3433.987	5470
3435.712	5536
3437.434	5440
3439.155	5423
3440.876	5431
3442.596	5524
3444.317	5442
3446.039	5489
3447.757	5466
3449.477	5394
3451.195	5500
3452.914	5517
3454.632	5366
3456.35	5477
3458.067	5445
3459.784	5370
3461.5	5351
3463.216	5329
3464.932	5433
3466.647	5386
3468.362	5462
3470.076	5447
3471.789	5326
3473.505	5424
3475.217	5358
3476.929	5348
3478.641	5362
3480.354	5357
3482.066	5350
3483.777	5406
3485.487	5246
3487.197	5329
3488.908	5267
3490.617	5372
3492.327	5383
3494.035	5363
3495.743	5277
3497.451	5373
3499.158	5267
3500.866	5261
3502.572	5181
3504.278	5331
3505.984	5276
3507.689	5300
3509.396	5291
3511.1	5238
3512.804	5375
3514.508	5191
3516.211	5277
3517.913	5224
3519.616	5285
3521.319	5203
3523.021	5164
3524.722	5204
3526.422	5178
3528.124	5237
3529.824	5192
3531.524	5267
3533.222	5109
3534.921	5037
3536.62	5224
3538.318	5173
3540.016	5130
3541.714	5228
3543.41	5176
3545.107	5152
3546.803	5199
3548.5	5145
3550.194	5219
3551.889	5166
3553.583	5118
3555.279	5132
3556.972	5132
3558.666	5131
3560.358	5140
3562.051	5178
3563.742	5089
3565.435	5137
3567.126	5115
3568.817	5106
3570.507	5044
3572.197	5072
3573.888	5135
3575.577	5143
3577.265	5047
3578.954	5034
3580.642	5053
3582.329	5138
3584.017	5063
3585.704	5113
3587.391	5077
3589.077	5054
3590.762	5038
3592.449	4997
3594.133	5128
3595.817	5094
3597.501	4960
3599.185	4990
3600.869	5022
3602.552	5010
3604.234	4997
3605.916	5044
3607.598	5021
3609.279	4970
3610.961	4939
3612.642	4866
3614.321	5021
3616	4924
3617.68	4874
3619.36	4979
3621.039	4954
3622.716	5031
3624.394	4849
3626.071	4987
3627.748	4901
3629.425	4844
3631.102	4866
3632.778	4922
3634.452	4946
3636.127	4876
3637.803	4946
3639.477	4888
3641.151	4889
3642.823	4827
3644.497	4785
3646.171	4822
3647.842	4791
3649.515	4916
3651.185	4784
3652.857	4748
3654.527	4881
3656.198	4763
3657.868	4820
3659.537	4869
3661.207	4851
3662.875	4814
3664.544	4704
3666.212	4804
3667.879	4643
3669.546	4764
3671.212	4715
3672.88	4772
3674.546	4764
3676.211	4824
3677.875	4803
3679.541	4731
3681.205	4754
3682.87	4737
3684.533	4820
3686.196	4690
3687.859	4759
3689.521	4718
3691.184	4824
3692.845	4709
3694.507	4724
3696.167	4771
3697.827	4726
3699.487	4692
3701.148	4808
3702.808	4832
3704.466	4695
3706.125	4729
3707.783	4729
3709.442	4675
3711.099	4715
3712.757	4664
3714.412	4701
3716.068	4736
3717.725	4655
3719.381	4698
3721.036	4646
3722.689	4629
3724.344	4689
3725.998	4668
3727.652	4637
3729.305	4703
3730.958	4614
3732.61	4656
3734.262	4602
3735.915	4716
3737.565	4607
3739.217	4655
3740.866	4617
3742.516	4622
3744.165	4635
3745.816	4599
3747.464	4608
3749.113	4666
3750.761	4610
3752.409	4650
3754.057	4576
3755.703	4565
3757.35	4594
3758.996	4614
3760.641	4608
3762.289	4578
3763.933	4514
3765.577	4618
3767.222	4589
3768.865	4616
3770.508	4501
3772.152	4584
3773.796	4580
3775.438	4551
3777.079	4585
3778.721	4534
3780.363	4552
3782.003	4406
3783.643	4536
3785.283	4584
3786.923	4567
3788.563	4489
3790.203	4547
3791.841	4541
3793.479	4500
3795.115	4432
3796.753	4507
3798.391	4525
3800.027	4514
3801.664	4540
3803.299	4466
3804.935	4449
3806.571	4453
3808.206	4560
3809.839	4350
3811.473	4324
3813.107	4457
3814.74	4542
3816.375	4424
3818.006	4510
3819.638	4408
3821.27	4440
3822.9	4418
3824.532	4352
3826.163	4439
3827.792	4385
3829.423	4403
3831.051	4405
3832.682	4397
3834.311	4485
3835.938	4380
3837.566	4428
3839.193	4407
3840.821	4355
3842.448	4394
3844.075	4404
3845.7	4358
3847.325	4384
3848.951	4386
3850.576	4359
3852.201	4381
3853.825	4361
3855.448	4379
3857.072	4300
3858.694	4447
3860.318	4409
3861.939	4373
3863.562	4400
3865.183	4281
3866.804	4369
3868.426	4289
3870.045	4298
3871.666	4353
3873.285	4300
3874.904	4348
3876.524	4263
3878.142	4337
3879.76	4292
3881.378	4379
3882.995	4293
3884.612	4252
3886.229	4288
3887.845	4257
3889.461	4350
3891.076	4355
3892.691	4304
3894.307	4223
3895.922	4247
3897.536	4217
3899.149	4299
3900.761	4240
3902.374	4293
3903.988	4282
3905.6	4265
3907.212	4328
3908.822	4245
3910.433	4265
3912.045	4258
3913.655	4157
3915.265	4348
3916.875	4223
3918.483	4238
3920.093	4220
3921.702	4259
3923.309	4213
3924.917	4299
3926.523	4219
3928.13	4194
3929.739	4216
3931.344	4191
3932.95	4179
3934.555	4247
3936.159	4222
3937.766	4223
3939.369	4243
3940.974	4227
3942.577	4229
3944.181	4296
3945.783	4139
3947.386	4237
3948.989	4201
3950.59	4164
3952.191	4229
3953.791	4184
3955.394	4276
3956.994	4195
3958.593	4090
3960.192	4145
3961.791	4148
3963.392	4181
3964.99	4156
3966.588	4151
3968.185	4139
3969.782	4130
3971.379	4138
3972.976	4119
3974.572	4146
3976.168	4151
3977.763	4162
3979.358	4066
3980.954	4121
3982.548	4153
3984.142	4145
3985.736	4022
3987.329	3932
3988.922	4107
3990.516	4039
3992.108	4144
3993.698	3954
3995.29	4130
3996.881	4109
3998.473	4078
4000.064	4018
4001.653	3989
4003.242	4094
4004.832	4013
4006.422	4075
4008.01	4008
4009.598	3991
4011.186	3995
4012.773	4020
4014.36	4021
4015.947	4040
4017.534	4003
4019.119	4076
4020.705	3919
4022.291	4001
4023.876	4023
4025.461	3922
4027.044	3968
4028.627	3968
4030.211	3918
4031.795	3996
4033.378	4091
4034.96	3892
4036.542	3885
4038.124	3818
4039.704	3942
4041.286	3859
4042.867	3962
4044.447	3905
4046.026	3895
4047.606	3920
4049.187	4008
4050.765	3896
4052.343	3776
4053.92	3960
4055.498	3875
4057.076	3861
4058.654	3818
4060.23	3863
4061.806	3838
4063.381	3884
4064.957	3867
4066.533	3867
4068.107	3958
4069.682	3961
4071.256	3846
4072.829	3937
4074.404	3850
4075.977	3841
4077.549	3879
4079.121	3862
4080.693	3875
4082.265	3851
4083.836	3857
4085.407	3799
4086.977	3886
4088.547	3849
4090.117	3822
4091.687	3839
4093.256	3860
4094.825	3783
4096.392	3814
4097.96	3930
4099.528	3817
4101.097	3793
4102.663	3741
4104.229	3773
4105.795	3838
4107.361	3845
4108.928	3810
4110.493	3769
4112.058	3809
4113.621	3807
4115.186	3777
4116.75	3832
4118.313	3754
4119.876	3728
4121.438	3721
4123	3836
4124.562	3701
4126.125	3709
4127.686	3664
4129.246	3760
4130.807	3659
4132.367	3790
4133.927	3708
4135.486	3647
4137.046	3715
4138.604	3767
4140.162	3738
4141.72	3700
4143.279	3690
4144.836	3683
4146.393	3753
4147.949	3638
4149.505	3626
4151.062	3631
4152.617	3623
4154.172	3718
4155.727	3708
4157.281	3579
4158.836	3636
4160.39	3627
4161.943	3622
4163.496	3607
4165.048	3700
4166.601	3566
4168.154	3589
4169.706	3610
4171.257	3590
4172.808	3627
4174.358	3603
4175.909	3581
4177.458	3625
4179.008	3607
4180.558	3653
4182.106	3598
4183.655	3597
4185.204	3619
4186.751	3635
4188.298	3551
4189.845	3563
4191.392	3529
4192.939	3637
4194.485	3566
4196.031	3584
4197.576	3544
4199.121	3583
4200.666	3507
4202.211	3574
4203.754	3487
4205.298	3513
4206.84	3537
4208.384	3506
4209.927	3528
4211.47	3563
4213.011	3523
4214.552	3494
4216.094	3554
4217.635	3550
4219.175	3514
4220.716	3477
4222.255	3498
4223.793	3427
4225.335	3494
4226.873	3452
4228.411	3567
4229.948	3457
4231.486	3591
4233.024	3480
4234.562	3450
4236.098	3516
4237.634	3468
4239.169	3517
4240.705	3504
4242.241	3425
4243.776	3437
4245.31	3439
4246.844	3409
4248.378	3425
4249.911	3430
4251.445	3440
4252.978	3513
4254.51	3459
4256.042	3439
4257.574	3438
4259.107	3463
4260.638	3436
4262.169	3423
4263.699	3430
4265.228	3462
4266.759	3484
4268.289	3404
4269.818	3472
4271.345	3468
4272.874	3417
4274.402	3420
4275.931	3425
4277.458	3458
4278.985	3460
4280.512	3427
4282.037	3365
4283.564	3401
4285.089	3373
4286.615	3386
4288.139	3360
4289.664	3366
4291.187	3382
4292.712	3343
4294.235	3363
4295.759	3343
4297.281	3328
4298.804	3344
4300.327	3277
4301.849	3276
4303.37	3407
4304.891	3316
4306.412	3375
4307.933	3441
4309.453	3304
4310.973	3347
4312.492	3335
