398.1873	4968
400.7097	5137
403.2336	5126
405.7547	5165
408.2751	5257
410.7948	5128
413.3138	5178
415.83	5156
418.3497	5276
420.8666	5354
423.3829	5364
425.8985	5342
428.4133	5417
430.9275	5409
433.441	5426
435.9538	5451
438.4639	5361
440.9753	5463
443.4881	5482
445.9982	5473
448.5055	5370
451.0142	5481
453.5201	5378
456.0274	5445
458.5361	5553
461.04	5392
463.5453	5402
466.0478	5468
468.5517	5440
471.0549	5472
473.5574	5559
476.0572	5558
478.5584	5563
481.0568	5574
483.5545	5616
486.0557	5586
488.5521	5570
491.0478	5597
493.5449	5600
496.0392	5674
498.5349	5638
501.0299	5627
503.5222	5738
506.0139	5607
508.5048	5606
510.9991	5692
513.4887	5757
515.9777	5651
518.4659	5666
520.9534	5654
523.4403	5691
525.9306	5797
528.4161	5760
530.9009	5729
533.3851	5701
535.8687	5733
538.3535	5666
540.8356	5638
543.3171	5718
545.7979	5733
548.278	5763
550.7595	5697
553.2383	5668
555.7144	5699
558.1918	5712
560.6685	5742
563.1446	5550
565.6221	5777
568.0968	5679
570.5688	5806
573.0422	5886
575.515	5812
577.989	5965
580.4584	6056
582.9291	5905
585.3991	5947
587.8685	5953
590.3352	5920
592.8052	6003
595.2706	5919
597.7372	5917
600.2033	5836
602.6666	5919
605.1334	5864
607.5953	5964
610.0587	5993
612.5193	5875
614.9814	5892
617.4427	5943
619.9034	5791
622.3615	5913
624.8208	5935
627.2775	5979
629.7335	5966
632.1929	5802
634.6476	5882
637.1016	6028
639.5569	5951
642.0096	5887
644.4637	5939
646.9151	6004
649.3678	5949
651.8179	6006
654.2672	6071
656.7159	5973
659.166	5971
661.6154	6036
664.0622	5983
666.5082	6032
668.9537	6021
671.4005	6088
673.8445	6046
676.288	6146
678.7308	6081
681.1729	6192
683.6163	6222
686.0572	6086
688.4973	6103
690.9368	6068
693.3757	6062
695.8138	6198
698.2534	6171
700.6902	6123
703.1245	6211
705.56	6146
707.9949	6120
710.4311	6143
712.8647	6128
715.2957	6127
717.7279	6283
720.1595	6106
722.5905	6238
725.0208	6301
727.4505	6247
729.8795	6285
732.3058	6344
734.7336	6355
737.1626	6333
739.587	6397
742.0128	6337
744.4359	6363
746.8604	6423
749.2841	6535
751.7073	6475
754.1278	6509
756.5496	6524
758.9688	6521
761.3893	6529
763.8093	6509
766.2285	6568
768.6451	6494
771.0611	6495
773.4784	6562
775.895	6477
778.3091	6494
780.7244	6554
783.1371	6521
785.5493	6608
787.9626	6492
790.3754	6591
792.7856	6520
795.1951	6632
797.6039	6543
800.0121	6562
802.4236	6523
804.8306	6558
807.2369	6569
809.6425	6543
812.0475	6614
814.4538	6658
816.8575	6674
819.2606	6581
821.663	6589
824.0648	6590
826.4659	6634
828.8683	6632
831.2682	6688
833.6674	6518
836.066	6657
838.4639	6674
840.8632	6698
843.2579	6708
845.6539	6639
848.0493	6842
850.444	6611
852.84	6867
855.2315	6721
857.6243	6728
860.0165	6849
862.4081	6788
864.797	6692
867.1892	6725
869.5789	6693
871.9659	6820
874.3542	6669
876.74	6756
879.129	6697
881.5155	6817
883.8994	6790
886.2845	6708
888.6671	6706
891.051	6751
893.4343	6751
895.8169	6548
898.197	6667
900.5783	6606
902.9571	6860
905.3372	6846
907.7167	6849
910.0936	6856
912.4698	6859
914.8474	6852
917.2244	6795
919.5987	6951
921.9744	6966
924.3475	7067
926.72	6950
929.0918	6956
931.4669	6980
933.8375	7111
936.2074	7136
938.5767	7176
940.9454	7180
943.3154	7259
945.6829	7370
948.0497	7382
950.4178	7668
952.7833	7721
955.1483	7850
957.5145	8027
959.8782	8172
962.2412	8151
964.6036	8042
966.9655	7810
969.3266	7618
971.6871	7299
974.0471	7252
976.4064	7073
978.765	7111
981.125	7036
983.4824	6910
985.8373	6971
988.1935	6962
990.549	6956
992.9039	6934
995.2602	7040
997.6119	7050
999.965	6965
1002.317	6890
1004.667	7050
1007.02	7014
1009.371	7195
1011.719	6958
1014.068	7008
1016.415	6986
1018.765	7114
1021.111	6986
1023.458	7080
1025.804	7066
1028.147	6990
1030.49	7114
1032.837	7039
1035.179	7129
1037.522	7101
1039.862	7088
1042.204	7170
1044.546	7009
1046.884	7046
1049.224	7133
1051.562	7078
1053.899	7054
1056.237	7150
1058.575	7218
1060.91	7212
1063.244	7209
1065.58	7204
1067.913	7207
1070.248	7283
1072.579	7303
1074.911	7340
1077.242	7228
1079.572	7132
1081.905	7197
1084.234	7148
1086.562	7092
1088.89	7111
1091.217	7032
1093.544	7269
1095.871	7282
1098.197	7170
1100.521	7136
1102.845	7086
1105.169	7184
1107.491	7297
1109.814	7147
1112.135	7123
1114.456	7157
1116.776	7149
1119.096	7254
1121.415	7221
1123.734	7130
1126.052	7229
1128.369	7208
1130.686	7260
1133.002	7251
1135.318	7221
1137.632	7156
1139.945	7239
1142.258	7228
1144.573	7140
1146.884	7254
1149.196	7250
1151.505	7249
1153.816	7208
1156.124	7168
1158.435	7165
1160.742	7287
1163.051	7260
1165.356	7378
1167.663	7216
1169.97	7252
1172.276	7201
1174.579	7217
1176.881	7253
1179.186	7299
1181.487	7139
1183.79	7145
1186.092	7250
1188.392	7183
1190.691	7231
1192.991	7108
1195.291	7178
1197.588	7322
1199.885	7113
1202.181	7231
1204.479	7328
1206.775	7248
1209.07	7296
1211.363	7305
1213.656	7253
1215.949	7344
1218.241	7367
1220.534	7191
1222.825	7165
1225.115	7406
1227.405	7253
1229.693	7343
1231.984	7313
1234.271	7220
1236.558	7461
1238.845	7365
1241.131	7433
1243.416	7387
1245.703	7353
1247.987	7494
1250.269	7484
1252.552	7497
1254.834	7548
1257.118	7530
1259.399	7446
1261.678	7495
1263.958	7529
1266.237	7467
1268.516	7382
1270.794	7475
1273.072	7531
1275.347	7500
1277.624	7409
1279.899	7477
1282.175	7503
1284.449	7492
1286.722	7362
1288.995	7374
1291.266	7420
1293.54	7446
1295.81	7506
1298.081	7448
1300.35	7332
1302.62	7392
1304.889	7356
1307.156	7316
1309.425	7364
1311.69	7422
1313.957	7541
1316.222	7412
1318.488	7569
1320.751	7444
1323.016	7465
1325.278	7359
1327.54	7455
1329.803	7663
1332.065	7377
1334.325	7421
1336.584	7463
1338.843	7437
1341.101	7357
1343.36	7369
1345.617	7365
1347.876	7459
1350.131	7537
1352.387	7303
1354.643	7443
1356.897	7567
1359.151	7403
1361.403	7349
1363.656	7401
1365.909	7534
1368.16	7525
1370.409	7441
1372.659	7455
1374.909	7582
1377.157	7472
1379.407	7475
1381.655	7475
1383.9	7441
1386.147	7579
1388.393	7578
1390.64	7517
1392.885	7633
1395.127	7655
1397.37	7609
1399.614	7604
1401.854	7589
1404.098	7502
1406.339	7703
1408.578	7603
1410.818	7565
1413.056	7590
1415.297	7588
1417.533	7677
1419.771	7564
1422.006	7620
1424.243	7587
1426.479	7639
1428.715	7596
1430.948	7703
1433.182	7707
1435.414	7658
1437.647	7726
1439.88	7603
1442.11	7739
1444.342	7776
1446.571	7775
1448.799	7823
1451.029	7801
1453.258	7726
1455.485	7849
1457.711	7743
1459.937	7670
1462.164	7720
1464.39	7769
1466.614	7758
1468.838	7651
1471.06	7700
1473.283	7647
1475.506	7720
1477.727	7650
1479.949	7496
1482.169	7602
1484.389	7591
1486.609	7594
1488.828	7602
1491.045	7614
1493.261	7605
1495.477	7558
1497.693	7551
1499.91	7651
1502.125	7537
1504.339	7663
1506.553	7504
1508.766	7619
1510.979	7546
1513.191	7506
1515.402	7428
1517.613	7538
1519.823	7529
1522.033	7539
1524.242	7373
1526.451	7552
1528.657	7593
1530.865	7539
1533.072	7719
1535.278	7380
1537.484	7710
1539.687	7540
1541.892	7640
1544.096	7638
1546.299	7512
1548.502	7552
1550.703	7641
1552.905	7654
1555.104	7607
1557.303	7637
1559.505	7670
1561.703	7637
1563.902	7609
1566.099	7711
1568.295	7733
1570.494	7669
1572.689	7693
1574.883	7654
1577.079	7783
1579.272	7650
1581.467	7755
1583.659	7871
1585.853	7746
1588.044	7813
1590.234	7798
1592.424	7775
1594.615	7921
1596.806	7806
1598.994	7806
1601.182	7836
1603.369	7887
1605.557	7740
1607.744	7812
1609.929	7859
1612.114	7903
1614.298	7905
1616.482	7870
1618.667	7789
1620.85	7875
1623.032	7903
1625.214	7997
1627.395	7799
1629.575	7815
1631.755	7871
1633.935	7948
1636.114	7922
1638.292	7824
1640.471	7969
1642.647	7739
1644.823	7671
1647	7851
1649.175	7904
1651.348	7875
1653.525	7837
1655.698	7880
1657.87	7943
1660.043	7911
1662.213	8035
1664.387	7974
1666.558	7875
1668.727	7877
1670.896	7905
1673.064	8003
1675.233	8012
1677.401	7938
1679.569	7924
1681.735	7967
1683.902	7959
1686.066	7869
1688.233	7800
1690.397	7885
1692.559	7832
1694.723	7818
1696.885	7929
1699.048	7804
1701.21	7875
1703.37	7878
1705.53	7834
1707.689	7879
1709.849	7851
1712.009	7873
1714.166	7796
1716.323	7858
1718.479	7833
1720.634	7837
1722.793	7796
1724.948	7948
1727.102	7834
1729.255	7796
1731.408	7856
1733.562	7875
1735.714	7838
1737.865	7902
1740.016	7900
1742.166	7724
1744.316	7913
1746.467	7900
1748.616	7905
1750.764	7922
1752.911	7914
1755.056	7879
1757.205	7828
1759.35	7779
1761.496	7914
1763.641	7997
1765.785	7803
1767.927	7880
1770.072	7858
1772.214	7925
1774.355	7950
1776.496	7975
1778.637	7963
1780.778	7823
1782.918	7976
1785.057	7887
1787.194	8082
1789.333	7898
1791.472	7917
1793.608	8094
1795.745	7974
1797.879	7963
1800.015	8029
1802.148	7994
1804.284	8118
1806.417	7867
1808.548	7917
1810.682	8063
1812.812	7933
1814.946	8106
1817.075	7946
1819.205	7914
1821.335	7914
1823.463	8043
1825.59	7956
1827.721	8042
1829.847	7940
1831.973	7923
1834.098	7893
1836.223	8011
1838.351	7967
1840.475	7849
1842.598	7923
1844.721	8049
1846.843	7874
1848.966	7889
1851.087	7966
1853.21	7834
1855.33	7965
1857.449	7836
1859.568	7982
1861.688	7912
1863.806	7945
1865.924	7973
1868.039	7924
1870.155	7787
1872.273	7890
1874.388	7907
1876.503	7908
1878.617	7889
1880.73	7906
1882.844	7937
1884.956	7999
1887.068	7925
1889.18	8038
1891.291	7890
1893.4	7930
1895.511	7954
1897.621	8033
1899.73	7970
1901.837	8007
1903.944	8003
1906.053	7971
1908.159	8052
1910.265	8028
1912.369	8067
1914.474	7962
1916.577	7995
1918.683	8046
1920.785	7993
1922.888	8079
1924.989	8075
1927.091	8163
1929.193	8157
1931.294	7991
1933.393	8067
1935.493	8089
1937.59	8176
1939.689	8049
1941.788	8196
1943.884	8158
1945.98	8123
1948.077	8120
1950.171	8045
1952.267	7981
1954.361	8210
1956.455	8071
1958.548	8129
1960.64	8200
1962.733	7995
1964.824	8125
1966.915	7990
1969.005	8079
1971.096	8042
1973.185	8118
1975.275	8053
1977.363	8101
1979.45	8308
1981.537	8053
1983.623	7976
1985.711	8032
1987.796	8086
1989.881	8136
1991.965	8062
1994.047	8199
1996.132	8048
1998.215	7970
2000.297	7997
2002.378	8085
2004.46	7961
2006.54	7948
2008.62	8065
2010.7	7922
2012.779	8007
2014.858	8040
2016.934	8042
2019.013	8031
2021.09	8078
2023.165	7977
2025.241	8164
2027.317	7899
2029.39	8129
2031.466	7992
2033.538	8104
2035.612	8033
2037.683	7952
2039.755	8030
2041.827	8061
2043.898	8119
2045.968	8023
2048.038	8079
2050.106	8006
2052.177	8055
2054.244	7973
2056.313	8099
2058.379	8076
2060.444	7986
2062.511	7953
2064.577	8064
2066.641	8090
2068.705	8002
2070.77	8084
2072.832	7993
2074.896	8124
2076.958	8110
2079.02	8087
2081.081	8107
2083.141	7916
2085.2	8063
2087.261	8123
2089.319	7981
2091.377	8013
2093.435	8075
2095.492	8082
2097.552	8122
2099.607	8069
2101.663	8073
2103.718	7924
2105.771	8042
2107.826	8028
2109.879	7961
2111.932	8126
2113.985	8015
2116.037	8146
2118.088	8000
2120.141	7939
2122.191	8224
2124.239	7969
2126.288	8082
2128.337	8104
2130.387	8050
2132.434	8092
2134.481	8081
2136.528	8103
2138.574	8066
2140.618	8027
2142.665	7916
2144.71	8052
2146.753	8058
2148.797	8168
2150.838	8028
2152.883	8057
2154.923	8081
2156.965	8029
2159.007	7972
2161.046	7979
2163.086	8048
2165.126	8108
2167.163	7946
2169.202	7971
2171.239	7963
2173.277	7905
2175.314	8059
2177.349	7883
2179.385	7912
2181.42	7778
2183.453	7909
2185.49	7839
2187.522	7900
2189.555	8028
2191.586	7954
2193.619	8014
2195.651	7818
2197.682	7951
2199.711	7886
2201.74	7882
2203.769	7854
2205.799	7923
2207.828	7969
2209.855	7920
2211.882	7886
2213.908	7891
2215.934	7815
2217.961	7828
2219.986	7877
2222.01	7836
2224.034	7849
2226.057	7944
2228.08	7950
2230.104	7807
2232.124	7860
2234.145	7886
2236.166	7924
2238.186	7906
2240.207	7841
2242.227	7946
2244.244	7810
2246.262	7837
2248.28	7879
2250.299	7881
2252.314	7829
2254.33	8097
2256.346	7882
2258.36	7815
2260.375	7853
2262.391	7894
2264.403	7820
2266.416	7869
2268.427	7922
2270.44	7856
2272.453	7915
2274.463	7792
2276.474	7783
2278.483	7882
2280.493	7976
2282.501	7817
2284.51	7854
2286.518	7761
2288.524	7898
2290.532	7894
2292.537	7753
2294.544	7756
2296.55	7920
2298.554	7843
2300.557	7779
2302.562	7858
2304.566	7808
2306.568	7949
2308.569	7843
2310.572	7907
2312.573	7952
2314.573	7883
2316.574	7842
2318.573	7922
2320.571	7864
2322.571	7876
2324.569	7817
2326.567	7834
2328.564	7875
2330.56	7773
2332.556	7798
2334.551	7684
2336.546	7734
2338.542	7844
2340.535	7846
2342.529	7783
2344.521	7843
2346.512	7735
2348.505	7907
2350.497	7843
2352.487	7866
2354.478	7655
2356.468	7654
2358.457	7812
2360.446	7846
2362.434	7697
2364.422	7789
2366.408	7876
2368.395	7804
2370.383	7742
2372.369	7793
2374.353	7838
2376.338	7754
2378.321	7639
2380.307	7778
2382.29	7704
2384.272	7768
2386.254	7744
2388.235	7782
2390.218	7798
2392.198	7618
2394.179	7657
2396.157	7576
2398.137	7726
2400.115	7627
2402.095	7647
2404.072	7652
2406.048	7753
2408.026	7510
2410.001	7621
2411.977	7780
2413.953	7686
2415.927	7600
2417.9	7503
2419.875	7627
2421.847	7754
2423.821	7596
2425.792	7585
2427.763	7680
2429.736	7622
2431.706	7576
2433.677	7643
2435.646	7601
2437.615	7712
2439.583	7543
2441.551	7761
2443.519	7866
2445.486	7617
2447.452	7729
2449.418	7640
2451.383	7580
2453.348	7681
2455.314	7607
2457.278	7723
2459.241	7615
2461.205	7601
2463.167	7637
2465.131	7678
2467.091	7666
2469.052	7573
2471.012	7528
2472.972	7590
2474.932	7602
2476.891	7660
2478.85	7546
2480.808	7652
2482.766	7640
2484.722	7643
2486.68	7657
2488.636	7554
2490.591	7636
2492.546	7629
2494.5	7593
2496.456	7641
2498.41	7424
2500.362	7530
2502.315	7581
2504.266	7602
2506.218	7638
2508.169	7462
2510.121	7590
2512.07	7766
2514.019	7515
2515.968	7599
2517.918	7517
2519.866	7525
2521.813	7614
2523.76	7744
2525.707	7542
2527.653	7559
2529.599	7435
2531.543	7518
2533.489	7489
2535.433	7587
2537.376	7485
2539.32	7535
2541.264	7565
2543.205	7507
2545.147	7589
2547.087	7407
2549.029	7548
2550.969	7521
2552.908	7520
2554.847	7478
2556.786	7514
2558.724	7499
2560.663	7491
2562.6	7491
2564.537	7553
2566.473	7607
2568.408	7516
2570.345	7706
2572.28	7498
2574.214	7558
2576.148	7523
2578.081	7493
2580.014	7567
2581.947	7513
2583.879	7662
2585.81	7626
2587.741	7582
2589.67	7496
2591.602	7501
2593.532	7572
2595.461	7537
2597.388	7436
2599.316	7579
2601.244	7493
2603.172	7433
2605.098	7599
2607.023	7656
2608.949	7549
2610.873	7552
2612.8	7658
2614.723	7572
2616.647	7614
2618.569	7610
2620.493	7531
2622.416	7599
2624.338	7580
2626.258	7526
2628.179	7586
2630.099	7542
2632.019	7586
2633.939	7534
2635.857	7536
2637.775	7668
2639.694	7598
2641.61	7604
2643.528	7663
2645.444	7540
2647.361	7548
2649.276	7620
2651.19	7454
2653.105	7600
2655.019	7449
2656.934	7436
2658.846	7589
2660.758	7657
2662.67	7600
2664.583	7588
2666.493	7505
2668.404	7639
2670.313	7534
2672.223	7504
2674.134	7560
2676.042	7608
2677.95	7668
2679.858	7474
2681.765	7417
2683.673	7536
2685.579	7542
2687.483	7630
2689.389	7543
2691.294	7480
2693.198	7508
2695.104	7434
2697.006	7608
2698.909	7452
2700.811	7491
2702.713	7371
2704.615	7513
2706.516	7420
2708.417	7382
2710.316	7419
2712.216	7370
2714.115	7411
2716.014	7514
2717.913	7495
2719.81	7517
2721.707	7447
2723.603	7512
2725.501	7408
2727.396	7447
2729.292	7303
2731.186	7457
2733.081	7454
2734.976	7435
2736.87	7422
2738.762	7398
2740.653	7429
2742.546	7453
2744.437	7441
2746.329	7330
2748.22	7401
2750.11	7432
2751.999	7374
2753.889	7433
2755.778	7455
2757.666	7346
2759.553	7319
2761.44	7462
2763.328	7435
2765.215	7455
2767.101	7439
2768.986	7327
2770.87	7240
2772.754	7379
2774.638	7346
2776.523	7427
2778.405	7331
2780.288	7415
2782.17	7387
2784.051	7361
2785.934	7431
2787.814	7391
2789.694	7318
2791.574	7384
2793.453	7357
2795.332	7288
2797.212	7340
2799.088	7360
2800.966	7372
2802.843	7465
2804.719	7442
2806.597	7334
2808.471	7246
2810.346	7309
2812.221	7255
2814.094	7394
2815.969	7392
2817.843	7386
2819.714	7312
2821.587	7288
2823.459	7407
2825.329	7248
2827.202	7270
2829.072	7305
2830.942	7067
2832.811	7401
2834.68	7322
2836.549	7301
2838.418	7212
2840.284	7332
2842.152	7344
2844.018	7293
2845.885	7295
2847.751	7329
2849.616	7408
2851.482	7262
2853.345	7343
2855.208	7369
2857.074	7345
2858.937	7374
2860.799	7317
2862.66	7543
2864.522	7454
2866.385	7562
2868.245	7567
2870.104	7491
2871.964	7436
2873.824	7468
2875.683	7577
2877.542	7583
2879.4	7639
2881.257	7530
2883.114	7676
2884.97	7641
2886.827	7604
2888.683	7723
2890.537	7670
2892.392	7643
2894.246	7588
2896.1	7546
2897.954	7653
2899.807	7655
2901.66	7728
2903.51	7626
2905.362	7698
2907.214	7602
2909.065	7495
2910.915	7720
2912.765	7662
2914.613	7567
2916.463	7728
2918.311	7808
2920.158	7744
2922.006	7858
2923.853	7791
2925.698	7980
2927.546	7880
2929.392	7899
2931.236	8116
2933.081	7946
2934.924	8002
2936.77	8246
2938.613	8008
2940.455	8205
2942.298	8185
2944.139	8136
2945.982	8152
2947.823	8143
2949.662	8130
2951.503	8166
2953.342	8027
2955.182	8026
2957.021	7978
2958.858	8030
2960.697	7956
2962.534	7888
2964.37	7912
2966.207	7802
2968.044	7693
2969.879	7697
2971.714	7764
2973.548	7687
2975.383	7623
2977.218	7709
2979.051	7558
2980.883	7581
2982.715	7584
2984.547	7592
2986.379	7535
2988.21	7622
2990.04	7472
2991.87	7385
2993.7	7399
2995.53	7344
2997.359	7406
2999.187	7464
3001.015	7285
3002.842	7281
3004.669	7408
3006.497	7280
3008.323	7146
3010.148	7258
3011.974	7160
3013.797	7185
3015.623	7116
3017.447	7112
3019.27	7126
3021.094	7249
3022.915	7071
3024.737	7141
3026.56	7090
3028.38	6977
3030.201	7069
3032.022	7112
3033.84	7052
3035.662	7004
3037.481	7013
3039.298	6981
3041.117	7016
3042.933	6974
3044.752	6980
3046.568	6954
3048.385	7027
3050.2	6972
3052.016	6900
3053.83	6867
3055.646	7003
3057.46	6967
3059.272	6978
3061.086	6780
3062.898	6870
3064.711	6936
3066.524	6988
3068.335	6851
3070.145	6963
3071.956	6882
3073.766	6918
3075.576	6952
3077.385	6919
3079.193	6893
3081.002	6791
3082.81	6903
3084.618	6946
3086.425	6910
3088.231	6865
3090.036	6896
3091.842	6840
3093.648	6773
3095.452	6874
3097.257	6718
3099.06	6746
3100.863	6871
3102.666	6744
3104.47	6913
3106.272	6843
3108.073	6681
3109.875	6741
3111.676	6869
3113.477	6719
3115.277	6684
3117.077	6806
3118.874	6740
3120.673	6757
3122.473	6676
3124.271	6689
3126.066	6590
3127.863	6569
3129.66	6705
3131.456	6580
3133.252	6712
3135.047	6702
3136.842	6635
3138.635	6681
3140.429	6700
3142.223	6734
3144.016	6632
3145.808	6672
3147.6	6654
3149.392	6609
3151.183	6591
3152.975	6594
3154.765	6549
3156.553	6581
3158.344	6657
3160.132	6712
3161.922	6571
3163.71	6594
3165.497	6564
3167.285	6574
3169.071	6479
3170.858	6566
3172.645	6650
3174.429	6579
3176.214	6519
3177.998	6639
3179.783	6539
3181.568	6550
3183.351	6610
3185.133	6584
3186.915	6556
3188.698	6563
3190.481	6544
3192.261	6591
3194.042	6634
3195.822	6476
3197.601	6483
3199.381	6492
3201.161	6589
3202.939	6603
3204.717	6483
3206.495	6439
3208.272	6457
3210.05	6450
3211.826	6549
3213.602	6423
3215.376	6306
3217.151	6449
3218.927	6445
3220.702	6557
3222.476	6429
3224.249	6465
3226.021	6471
3227.793	6386
3229.567	6366
3231.339	6486
3233.109	6600
3234.88	6322
3236.651	6534
3238.421	6463
3240.191	6426
3241.96	6426
3243.728	6545
3245.497	6505
3247.263	6478
3249.033	6502
3250.799	6339
3252.566	6506
3254.331	6467
3256.097	6475
3257.863	6429
3259.628	6514
3261.392	6484
3263.156	6512
3264.919	6510
3266.683	6430
3268.447	6464
3270.208	6309
3271.969	6323
3273.731	6365
3275.492	6451
3277.253	6552
3279.013	6428
3280.773	6394
3282.532	6412
3284.291	6391
3286.05	6421
3287.808	6396
3289.566	6455
3291.323	6500
3293.079	6312
3294.835	6462
3296.593	6468
3298.348	6335
3300.102	6375
3301.857	6454
3303.611	6522
3305.366	6354
3307.119	6443
3308.872	6416
3310.624	6363
3312.376	6423
3314.129	6374
3315.881	6516
3317.631	6288
3319.38	6347
3321.13	6353
3322.88	6345
3324.631	6490
3326.379	6438
3328.126	6561
3329.875	6357
3331.622	6326
3333.371	6351
3335.116	6315
3336.863	6231
3338.609	6275
3340.353	6387
3342.1	6391
3343.845	6350
3345.588	6151
3347.332	6384
3349.074	6391
3350.817	6326
3352.56	6312
3354.303	6266
3356.043	6251
3357.785	6237
3359.525	6338
3361.268	6298
3363.007	6348
3364.745	6267
3366.485	6289
3368.223	6277
3369.962	6233
3371.701	6221
3373.438	6277
3375.174	6175
3376.911	6166
3378.647	6302
3380.384	6220
3382.118	6284
3383.854	6101
3385.588	6194
3387.322	6271
3389.057	6294
3390.79	6240
3392.522	6216
3394.255	6256
3395.987	6162
3397.719	6223
3399.451	6195
3401.181	6284
3402.911	6282
3404.641	6270
3406.371	6206
3408.101	6220
3409.83	6266
3411.558	6127
3413.285	6302
3415.011	6224
3416.739	6184
3418.467	6122
3420.193	6229
3421.919	6178
3423.644	6135
3425.368	6196
3427.094	5989
3428.818	6050
3430.542	6234
3432.264	6172
3433.987	6039
3435.712	6140
3437.434	6097
3439.155	6133
3440.876	6085
3442.596	6004
3444.317	6073
3446.039	6009
3447.757	5968
3449.477	6117
3451.195	6095
3452.914	6033
3454.632	6023
3456.35	6001
3458.067	6077
3459.784	5960
3461.5	6040
3463.216	6146
3464.932	6056
3466.647	5940
3468.362	6009
3470.076	5853
3471.789	6020
3473.505	6031
3475.217	5989
3476.929	6045
3478.641	5867
3480.354	5820
3482.066	5924
3483.777	5952
3485.487	5834
3487.197	5955
3488.908	5874
3490.617	5950
3492.327	5966
3494.035	5911
3495.743	5889
3497.451	5957
3499.158	5833
3500.866	5874
3502.572	5892
3504.278	5790
3505.984	5969
3507.689	5706
3509.396	5811
3511.1	5895
3512.804	5749
3514.508	5840
3516.211	5813
3517.913	5771
3519.616	5794
3521.319	5787
3523.021	5745
3524.722	5809
3526.422	5718
3528.124	5779
3529.824	5828
3531.524	5855
3533.222	5759
3534.921	5760
3536.62	5728
3538.318	5763
3540.016	5787
3541.714	5810
3543.41	5786
3545.107	5705
3546.803	5777
3548.5	5782
3550.194	5783
3551.889	5651
3553.583	5615
3555.279	5785
3556.972	5773
3558.666	5695
3560.358	5726
3562.051	5752
3563.742	5650
3565.435	5686
3567.126	5761
3568.817	5658
3570.507	5709
3572.197	5654
3573.888	5672
3575.577	5666
3577.265	5669
3578.954	5603
3580.642	5661
3582.329	5544
3584.017	5656
3585.704	5704
3587.391	5627
3589.077	5748
3590.762	5504
3592.449	5660
3594.133	5617
3595.817	5541
3597.501	5556
3599.185	5506
3600.869	5632
3602.552	5605
3604.234	5624
3605.916	5522
3607.598	5599
3609.279	5629
3610.961	5464
3612.642	5594
3614.321	5598
3616	5503
3617.68	5429
3619.36	5437
3621.039	5403
3622.716	5486
3624.394	5416
3626.071	5412
3627.748	5433
3629.425	5480
3631.102	5389
3632.778	5527
3634.452	5372
3636.127	5413
3637.803	5441
3639.477	5487
3641.151	5383
3642.823	5331
3644.497	5425
3646.171	5413
3647.842	5433
3649.515	5338
3651.185	5480
3652.857	5404
3654.527	5408
3656.198	5364
3657.868	5293
3659.537	5385
3661.207	5377
3662.875	5372
3664.544	5411
3666.212	5388
3667.879	5418
3669.546	5363
3671.212	5386
3672.88	5344
3674.546	5401
3676.211	5326
3677.875	5383
3679.541	5337
3681.205	5314
3682.87	5396
3684.533	5324
3686.196	5364
3687.859	5399
3689.521	5351
3691.184	5282
3692.845	5246
3694.507	5386
3696.167	5290
3697.827	5385
3699.487	5370
3701.148	5250
3702.808	5336
3704.466	5245
3706.125	5384
3707.783	5306
3709.442	5235
3711.099	5201
3712.757	5372
3714.412	5279
3716.068	5289
3717.725	5286
3719.381	5213
3721.036	5251
3722.689	5327
3724.344	5248
3725.998	5302
3727.652	5253
3729.305	5194
3730.958	5175
3732.61	5228
3734.262	5197
3735.915	5232
3737.565	5283
3739.217	5208
3740.866	5225
3742.516	5067
3744.165	5223
3745.816	5236
3747.464	5243
3749.113	5169
3750.761	5293
3752.409	5143
3754.057	5149
3755.703	5095
3757.35	5238
3758.996	5183
3760.641	5134
3762.289	5182
3763.933	5078
3765.577	5120
3767.222	5102
3768.865	5088
3770.508	5083
3772.152	5133
3773.796	5130
3775.438	5114
3777.079	5136
3778.721	5061
3780.363	5015
3782.003	5015
3783.643	4958
3785.283	5141
3786.923	5104
3788.563	5047
3790.203	5144
3791.841	5021
3793.479	5044
3795.115	5041
3796.753	5058
3798.391	5091
3800.027	5032
3801.664	5010
3803.299	5055
3804.935	5057
3806.571	4979
3808.206	4904
3809.839	4966
3811.473	5064
3813.107	4914
3814.74	5019
3816.375	5008
3818.006	4970
3819.638	4923
3821.27	4982
3822.9	4970
3824.532	4974
3826.163	4866
3827.792	4930
3829.423	4866
3831.051	4953
3832.682	4930
3834.311	4953
3835.938	5046
3837.566	4958
3839.193	4951
3840.821	4875
3842.448	4927
3844.075	4864
3845.7	4901
3847.325	4967
3848.951	4977
3850.576	4878
3852.201	4918
3853.825	4893
3855.448	4857
3857.072	4803
3858.694	4857
3860.318	4896
3861.939	4813
3863.562	4922
3865.183	4820
3866.804	4868
3868.426	4868
3870.045	4862
3871.666	4802
3873.285	4773
3874.904	4845
3876.524	4869
3878.142	4832
3879.76	4882
3881.378	4783
3882.995	4831
3884.612	4829
3886.229	4824
3887.845	4834
3889.461	4837
3891.076	4756
3892.691	4828
3894.307	4918
3895.922	4807
3897.536	4843
3899.149	4743
3900.761	4787
3902.374	4867
3903.988	4697
3905.6	4795
3907.212	4767
3908.822	4763
3910.433	4832
3912.045	4858
3913.655	4784
3915.265	4786
3916.875	4717
3918.483	4809
3920.093	4800
3921.702	4808
3923.309	4761
3924.917	4719
3926.523	4695
3928.13	4777
3929.739	4847
3931.344	4804
3932.95	4890
3934.555	4810
3936.159	4730
3937.766	4817
3939.369	4627
3940.974	4824
3942.577	4670
3944.181	4716
3945.783	4712
3947.386	4690
3948.989	4678
3950.59	4767
3952.191	4611
3953.791	4682
3955.394	4660
3956.994	4644
3958.593	4722
3960.192	4649
3961.791	4653
3963.392	4683
3964.99	4533
3966.588	4666
3968.185	4570
3969.782	4688
3971.379	4606
3972.976	4664
3974.572	4606
3976.168	4606
3977.763	4588
3979.358	4645
3980.954	4558
3982.548	4675
3984.142	4602
3985.736	4486
3987.329	4658
3988.922	4597
3990.516	4548
3992.108	4521
3993.698	4462
3995.29	4490
3996.881	4619
3998.473	4580
4000.064	4593
4001.653	4601
4003.242	4454
4004.832	4601
4006.422	4515
4008.01	4499
4009.598	4433
4011.186	4594
4012.773	4466
4014.36	4391
4015.947	4519
4017.534	4509
4019.119	4517
4020.705	4468
4022.291	4467
4023.876	4474
4025.461	4536
4027.044	4471
4028.627	4537
4030.211	4460
4031.795	4455
4033.378	4466
4034.96	4328
4036.542	4367
4038.124	4451
4039.704	4429
4041.286	4384
4042.867	4374
4044.447	4412
4046.026	4445
4047.606	4397
4049.187	4348
4050.765	4392
4052.343	4421
4053.92	4394
4055.498	4340
4057.076	4328
4058.654	4406
4060.23	4337
4061.806	4317
4063.381	4332
4064.957	4378
4066.533	4336
4068.107	4314
4069.682	4358
4071.256	4253
4072.829	4348
4074.404	4417
4075.977	4348
4077.549	4327
4079.121	4325
4080.693	4356
4082.265	4344
4083.836	4294
4085.407	4363
4086.977	4321
4088.547	4269
4090.117	4404
4091.687	4293
4093.256	4239
4094.825	4287
4096.392	4276
4097.96	4230
4099.528	4328
4101.097	4211
4102.663	4296
4104.229	4296
4105.795	4206
4107.361	4213
4108.928	4272
4110.493	4289
4112.058	4245
4113.621	4141
4115.186	4160
4116.75	4196
4118.313	4191
4119.876	4289
4121.438	4212
4123	4232
4124.562	4242
4126.125	4215
4127.686	4243
4129.246	4196
4130.807	4178
4132.367	4157
4133.927	4188
4135.486	4154
4137.046	4217
4138.604	4130
4140.162	4165
4141.72	4218
4143.279	4179
4144.836	4145
4146.393	4141
4147.949	4087
4149.505	4188
4151.062	4170
4152.617	4153
4154.172	4059
4155.727	4024
4157.281	4149
4158.836	4057
4160.39	4114
4161.943	4085
4163.496	4234
4165.048	4076
4166.601	4046
4168.154	4099
4169.706	4096
4171.257	4044
4172.808	4061
4174.358	4087
4175.909	4069
4177.458	4090
4179.008	4024
4180.558	4015
4182.106	4020
4183.655	3971
4185.204	3946
4186.751	4007
4188.298	4104
4189.845	3918
4191.392	4005
4192.939	4025
4194.485	4007
4196.031	3977
4197.576	3994
4199.121	4020
4200.666	4008
4202.211	3931
4203.754	3999
4205.298	3904
4206.84	4044
4208.384	3900
4209.927	4026
4211.47	3982
4213.011	3923
4214.552	4004
4216.094	3942
4217.635	3949
4219.175	3898
4220.716	3962
4222.255	3913
4223.793	3943
4225.335	3914
4226.873	3888
4228.411	3912
4229.948	3849
4231.486	3920
4233.024	3984
4234.562	3913
4236.098	3961
4237.634	3830
4239.169	3971
4240.705	3916
4242.241	3930
4243.776	3922
4245.31	3879
4246.844	3828
4248.378	3933
4249.911	3796
4251.445	3835
4252.978	3939
4254.51	3839
4256.042	3923
4257.574	3925
4259.107	3899
4260.638	3883
4262.169	3940
4263.699	3841
4265.228	3916
4266.759	3889
4268.289	3837
4269.818	3893
4271.345	3833
4272.874	3795
4274.402	3829
4275.931	3781
4277.458	3786
4278.985	3755
4280.512	3828
4282.037	3860
4283.564	3860
4285.089	3793
4286.615	3781
4288.139	3799
4289.664	3856
4291.187	3755
4292.712	3840
4294.235	3818
4295.759	3811
4297.281	3810
4298.804	3821
4300.327	3816
4301.849	3788
4303.37	3684
4304.891	3737
4306.412	3715
4307.933	3755
4309.453	3822
4310.973	3754
4312.492	3651
