398.1873	6038
400.7097	6014
403.2336	5980
405.7547	5967
408.2751	5989
410.7948	5915
413.3138	6111
415.83	6162
418.3497	6139
420.8666	6149
423.3829	6241
425.8985	6286
428.4133	6479
430.9275	6426
433.441	6461
435.9538	6375
438.4639	6351
440.9753	6464
443.4881	6452
445.9982	6511
448.5055	6500
451.0142	6374
453.5201	6422
456.0274	6421
458.5361	6422
461.04	6435
463.5453	6420
466.0478	6306
468.5517	6428
471.0549	6350
473.5574	6473
476.0572	6471
478.5584	6350
481.0568	6556
483.5545	6537
486.0557	6475
488.5521	6484
491.0478	6538
493.5449	6757
496.0392	6641
498.5349	6574
501.0299	6651
503.5222	6644
506.0139	6597
508.5048	6616
510.9991	6643
513.4887	6694
515.9777	6757
518.4659	6708
520.9534	6632
523.4403	6554
525.9306	6723
528.4161	6671
530.9009	6700
533.3851	6775
535.8687	6704
538.3535	6712
540.8356	6711
543.3171	6723
545.7979	6784
548.278	6740
550.7595	6655
553.2383	6776
555.7144	6726
558.1918	6720
560.6685	6740
563.1446	6919
565.6221	6840
568.0968	6904
570.5688	6958
573.0422	6880
575.515	7025
577.989	7138
580.4584	7095
582.9291	6983
585.3991	7100
587.8685	6977
590.3352	7060
592.8052	6964
595.2706	7009
597.7372	6971
600.2033	7009
602.6666	6934
605.1334	7011
607.5953	6827
610.0587	6988
612.5193	7042
614.9814	6935
617.4427	6947
619.9034	7028
622.3615	6794
624.8208	6849
627.2775	6932
629.7335	7017
632.1929	6951
634.6476	6869
637.1016	6913
639.5569	6951
642.0096	6933
644.4637	6987
646.9151	6992
649.3678	6987
651.8179	7063
654.2672	7067
656.7159	7202
659.166	6986
661.6154	6984
664.0622	7066
666.5082	7103
668.9537	7115
671.4005	7085
673.8445	7087
676.288	7081
678.7308	7193
681.1729	7088
683.6163	7247
686.0572	7133
688.4973	7034
690.9368	7150
693.3757	7218
695.8138	7192
698.2534	7227
700.6902	7130
703.1245	7189
705.56	7273
707.9949	7293
710.4311	7317
712.8647	7355
715.2957	7293
717.7279	7337
720.1595	7302
722.5905	7325
725.0208	7404
727.4505	7415
729.8795	7343
732.3058	7529
734.7336	7413
737.1626	7502
739.587	7464
742.0128	7544
744.4359	7579
746.8604	7460
749.2841	7675
751.7073	7497
754.1278	7724
756.5496	7628
758.9688	7617
761.3893	7671
763.8093	7720
766.2285	7790
768.6451	7743
771.0611	7790
773.4784	7697
775.895	7669
778.3091	7663
780.7244	7667
783.1371	7810
785.5493	7726
787.9626	7769
790.3754	7768
792.7856	7664
795.1951	7706
797.6039	7692
800.0121	7808
802.4236	7710
804.8306	7809
807.2369	7635
809.6425	7834
812.0475	7781
814.4538	7865
816.8575	7832
819.2606	7834
821.663	7840
824.0648	7751
826.4659	7840
828.8683	7795
831.2682	7759
833.6674	7813
836.066	7863
838.4639	7923
840.8632	7885
843.2579	7901
845.6539	7973
848.0493	7989
850.444	8023
852.84	8064
855.2315	7941
857.6243	7990
860.0165	7912
862.4081	8050
864.797	7973
867.1892	8040
869.5789	7810
871.9659	8033
874.3542	8015
876.74	8059
879.129	7932
881.5155	7943
883.8994	7962
886.2845	8104
888.6671	7966
891.051	7983
893.4343	7989
895.8169	7941
898.197	7817
900.5783	8018
902.9571	7907
905.3372	8024
907.7167	8008
910.0936	7950
912.4698	7962
914.8474	7941
917.2244	8244
919.5987	8139
921.9744	8176
924.3475	8216
926.72	8300
929.0918	8352
931.4669	8175
933.8375	8318
936.2074	8398
938.5767	8534
940.9454	8636
943.3154	8640
945.6829	8837
948.0497	8894
950.4178	9216
952.7833	9448
955.1483	9870
957.5145	10086
959.8782	10349
962.2412	10298
964.6036	10077
966.9655	9784
969.3266	9215
971.6871	9068
974.0471	8717
976.4064	8504
978.765	8365
981.125	8310
983.4824	8308
985.8373	8040
988.1935	8294
990.549	8151
992.9039	8227
995.2602	8086
997.6119	8264
999.965	8220
1002.317	8242
1004.667	8288
1007.02	8397
1009.371	8216
1011.719	8361
1014.068	8222
1016.415	8270
1018.765	8193
1021.111	8250
1023.458	8306
1025.804	8306
1028.147	8229
1030.49	8425
1032.837	8440
1035.179	8442
1037.522	8361
1039.862	8332
1042.204	8507
1044.546	8435
1046.884	8424
1049.224	8450
1051.562	8337
1053.899	8444
1056.237	8394
1058.575	8344
1060.91	8492
1063.244	8531
1065.58	8579
1067.913	8462
1070.248	8576
1072.579	8529
1074.911	8646
1077.242	8505
1079.572	8648
1081.905	8450
1084.234	8432
1086.562	8409
1088.89	8516
1091.217	8417
1093.544	8421
1095.871	8590
1098.197	8338
1100.521	8482
1102.845	8386
1105.169	8516
1107.491	8442
1109.814	8465
1112.135	8418
1114.456	8539
1116.776	8252
1119.096	8423
1121.415	8303
1123.734	8503
1126.052	8541
1128.369	8632
1130.686	8682
1133.002	8481
1135.318	8553
1137.632	8350
1139.945	8456
1142.258	8444
1144.573	8433
1146.884	8499
1149.196	8510
1151.505	8619
1153.816	8560
1156.124	8575
1158.435	8456
1160.742	8352
1163.051	8445
1165.356	8444
1167.663	8476
1169.97	8616
1172.276	8458
1174.579	8542
1176.881	8495
1179.186	8511
1181.487	8544
1183.79	8512
1186.092	8425
1188.392	8336
1190.691	8521
1192.991	8534
1195.291	8466
1197.588	8463
1199.885	8581
1202.181	8366
1204.479	8448
1206.775	8515
1209.07	8447
1211.363	8515
1213.656	8437
1215.949	8564
1218.241	8594
1220.534	8515
1222.825	8711
1225.115	8534
1227.405	8432
1229.693	8603
1231.984	8727
1234.271	8667
1236.558	8641
1238.845	8680
1241.131	8717
1243.416	8807
1245.703	8689
1247.987	8798
1250.269	8781
1252.552	8826
1254.834	8676
1257.118	8848
1259.399	8763
1261.678	8701
1263.958	8792
1266.237	8721
1268.516	8865
1270.794	8821
1273.072	8840
1275.347	8834
1277.624	8758
1279.899	8765
1282.175	8699
1284.449	8790
1286.722	8714
1288.995	8758
1291.266	8702
1293.54	8752
1295.81	8664
1298.081	8703
1300.35	8747
1302.62	8632
1304.889	8764
1307.156	8647
1309.425	8733
1311.69	8522
1313.957	8681
1316.222	8647
1318.488	8695
1320.751	8711
1323.016	8732
1325.278	8676
1327.54	8675
1329.803	8655
1332.065	8680
1334.325	8514
1336.584	8574
1338.843	8705
1341.101	8641
1343.36	8704
1345.617	8748
1347.876	8683
1350.131	8837
1352.387	8708
1354.643	8676
1356.897	8668
1359.151	8724
1361.403	8685
1363.656	8614
1365.909	8740
1368.16	8806
1370.409	8695
1372.659	8621
1374.909	8727
1377.157	8740
1379.407	8797
1381.655	8758
1383.9	8784
1386.147	8793
1388.393	8713
1390.64	8850
1392.885	8847
1395.127	8944
1397.37	8870
1399.614	8784
1401.854	8916
1404.098	8950
1406.339	8894
1408.578	9043
1410.818	8732
1413.056	8979
1415.297	8861
1417.533	8920
1419.771	8790
1422.006	9005
1424.243	9012
1426.479	8978
1428.715	9040
1430.948	8911
1433.182	8907
1435.414	9176
1437.647	8950
1439.88	9132
1442.11	8990
1444.342	9005
1446.571	9102
1448.799	9087
1451.029	9125
1453.258	9015
1455.485	9079
1457.711	9141
1459.937	9092
1462.164	9100
1464.39	9113
1466.614	9023
1468.838	9054
1471.06	9043
1473.283	8954
1475.506	9075
1477.727	8884
1479.949	8940
1482.169	8927
1484.389	8939
1486.609	8864
1488.828	8885
1491.045	8850
1493.261	8724
1495.477	8826
1497.693	8686
1499.91	8758
1502.125	8688
1504.339	8852
1506.553	8729
1508.766	8800
1510.979	8613
1513.191	8842
1515.402	8675
1517.613	8794
1519.823	8790
1522.033	8870
1524.242	8854
1526.451	8791
1528.657	8877
1530.865	8661
1533.072	8791
1535.278	8757
1537.484	9067
1539.687	8866
1541.892	8803
1544.096	8836
1546.299	8777
1548.502	8987
1550.703	8817
1552.905	8763
1555.104	9103
1557.303	9050
1559.505	9030
1561.703	8955
1563.902	8930
1566.099	8933
1568.295	9078
1570.494	8970
1572.689	9008
1574.883	8996
1577.079	9121
1579.272	9016
1581.467	9004
1583.659	9009
1585.853	9012
1588.044	9171
1590.234	9061
1592.424	9083
1594.615	8977
1596.806	9134
1598.994	8982
1601.182	9051
1603.369	9045
1605.557	9023
1607.744	9060
1609.929	9162
1612.114	9099
1614.298	9153
1616.482	9065
1618.667	9056
1620.85	9290
1623.032	9106
1625.214	8983
1627.395	9296
1629.575	9161
1631.755	9179
1633.935	9271
1636.114	9073
1638.292	9285
1640.471	9237
1642.647	9226
1644.823	9164
1647	9180
1649.175	9370
1651.348	9192
1653.525	9149
1655.698	9133
1657.87	9418
1660.043	9219
1662.213	9368
1664.387	9283
1666.558	9406
1668.727	9400
1670.896	9386
1673.064	9355
1675.233	9342
1677.401	9197
1679.569	9223
1681.735	9234
1683.902	9268
1686.066	9369
1688.233	9246
1690.397	9161
1692.559	9142
1694.723	9111
1696.885	9196
1699.048	9208
1701.21	9217
1703.37	9053
1705.53	9189
1707.689	9187
1709.849	8962
1712.009	9130
1714.166	9082
1716.323	9032
1718.479	9078
1720.634	9113
1722.793	9090
1724.948	9081
1727.102	9175
1729.255	9089
1731.408	9089
1733.562	9121
1735.714	9092
1737.865	9126
1740.016	9020
1742.166	9254
1744.316	9140
1746.467	9170
1748.616	9150
1750.764	9242
1752.911	9243
1755.056	9324
1757.205	9113
1759.35	9222
1761.496	9196
1763.641	9208
1765.785	9080
1767.927	9167
1770.072	9114
1772.214	9114
1774.355	9248
1776.496	9301
1778.637	9239
1780.778	9180
1782.918	9343
1785.057	9231
1787.194	9267
1789.333	9126
1791.472	9281
1793.608	9403
1795.745	9210
1797.879	9339
1800.015	9159
1802.148	9196
1804.284	9211
1806.417	9303
1808.548	9320
1810.682	9208
1812.812	9280
1814.946	9149
1817.075	9250
1819.205	9102
1821.335	9305
1823.463	9331
1825.59	9267
1827.721	9105
1829.847	9078
1831.973	9115
1834.098	9244
1836.223	9045
1838.351	9293
1840.475	9188
1842.598	9128
1844.721	9172
1846.843	9075
1848.966	9071
1851.087	9126
1853.21	9249
1855.33	9156
1857.449	9281
1859.568	9149
1861.688	9187
1863.806	9162
1865.924	9137
1868.039	9209
1870.155	9058
1872.273	9249
1874.388	9150
1876.503	9115
1878.617	9107
1880.73	9064
1882.844	9172
1884.956	9242
1887.068	9234
1889.18	9168
1891.291	9266
1893.4	9201
1895.511	9210
1897.621	9229
1899.73	9205
1901.837	9219
1903.944	9352
1906.053	9280
1908.159	9229
1910.265	9187
1912.369	9389
1914.474	9327
1916.577	9356
1918.683	9246
1920.785	9191
1922.888	9273
1924.989	9327
1927.091	9197
1929.193	9498
1931.294	9396
1933.393	9443
1935.493	9342
1937.59	9335
1939.689	9419
1941.788	9363
1943.884	9371
1945.98	9345
1948.077	9515
1950.171	9328
1952.267	9279
1954.361	9332
1956.455	9425
1958.548	9361
1960.64	9317
1962.733	9230
1964.824	9288
1966.915	9405
1969.005	9442
1971.096	9273
1973.185	9373
1975.275	9350
1977.363	9330
1979.45	9315
1981.537	9412
1983.623	9355
1985.711	9346
1987.796	9258
1989.881	9314
1991.965	9451
1994.047	9170
1996.132	9317
1998.215	9294
2000.297	9334
2002.378	9249
2004.46	9351
2006.54	9231
2008.62	9264
2010.7	9283
2012.779	9156
2014.858	9117
2016.934	9243
2019.013	9287
2021.09	9215
2023.165	9171
2025.241	9166
2027.317	9300
2029.39	9283
2031.466	9211
2033.538	9342
2035.612	9315
2037.683	9297
2039.755	9401
2041.827	9439
2043.898	9337
2045.968	9220
2048.038	9214
2050.106	9242
2052.177	9342
2054.244	9279
2056.313	9340
2058.379	9323
2060.444	9179
2062.511	9230
2064.577	9284
2066.641	9202
2068.705	9346
2070.77	9296
2072.832	9256
2074.896	9352
2076.958	9237
2079.02	9311
2081.081	9253
2083.141	9155
2085.2	9367
2087.261	9375
2089.319	9188
2091.377	9293
2093.435	9472
2095.492	9333
2097.552	9324
2099.607	9418
2101.663	9299
2103.718	9242
2105.771	9243
2107.826	9320
2109.879	9161
2111.932	9284
2113.985	9297
2116.037	9360
2118.088	9429
2120.141	9398
2122.191	9284
2124.239	9387
2126.288	9279
2128.337	9286
2130.387	9378
2132.434	9270
2134.481	9221
2136.528	9294
2138.574	9227
2140.618	9252
2142.665	9200
2144.71	9282
2146.753	9250
2148.797	9118
2150.838	9313
2152.883	9185
2154.923	9237
2156.965	9376
2159.007	9208
2161.046	9324
2163.086	9177
2165.126	9206
2167.163	9173
2169.202	9214
2171.239	9138
2173.277	9208
2175.314	9145
2177.349	9177
2179.385	9154
2181.42	9169
2183.453	9161
2185.49	9190
2187.522	9117
2189.555	9206
2191.586	9089
2193.619	8990
2195.651	9215
2197.682	9122
2199.711	9116
2201.74	9155
2203.769	9223
2205.799	9159
2207.828	9163
2209.855	9059
2211.882	8976
2213.908	9094
2215.934	9111
2217.961	9229
2219.986	9084
2222.01	8934
2224.034	9093
2226.057	9129
2228.08	9164
2230.104	9030
2232.124	9075
2234.145	9214
2236.166	9060
2238.186	9102
2240.207	9057
2242.227	9157
2244.244	9051
2246.262	9098
2248.28	9055
2250.299	9116
2252.314	9105
2254.33	9040
2256.346	9137
2258.36	9135
2260.375	9116
2262.391	9110
2264.403	9053
2266.416	9150
2268.427	9030
2270.44	8988
2272.453	9095
2274.463	9047
2276.474	9089
2278.483	9011
2280.493	9158
2282.501	9188
2284.51	9070
2286.518	9124
2288.524	9120
2290.532	8984
2292.537	8969
2294.544	9183
2296.55	9064
2298.554	9021
2300.557	9148
2302.562	9120
2304.566	8962
2306.568	9103
2308.569	9097
2310.572	9110
2312.573	9027
2314.573	9182
2316.574	9083
2318.573	9026
2320.571	9025
2322.571	9150
2324.569	8923
2326.567	9037
2328.564	8907
2330.56	9005
2332.556	8930
2334.551	9067
2336.546	9049
2338.542	9076
2340.535	9053
2342.529	8992
2344.521	8983
2346.512	8901
2348.505	8947
2350.497	9000
2352.487	8953
2354.478	8925
2356.468	9041
2358.457	8907
2360.446	8870
2362.434	8829
2364.422	8875
2366.408	9043
2368.395	8782
2370.383	9032
2372.369	8791
2374.353	8966
2376.338	8825
2378.321	8953
2380.307	8805
2382.29	8886
2384.272	8991
2386.254	8800
2388.235	9033
2390.218	8931
2392.198	8848
2394.179	8808
2396.157	8830
2398.137	8959
2400.115	8798
2402.095	8788
2404.072	8787
2406.048	8794
2408.026	8857
2410.001	8826
2411.977	8838
2413.953	8952
2415.927	8911
2417.9	8841
2419.875	8876
2421.847	8812
2423.821	8885
2425.792	8820
2427.763	8871
2429.736	8850
2431.706	8853
2433.677	8813
2435.646	8789
2437.615	8819
2439.583	8803
2441.551	8841
2443.519	8817
2445.486	8648
2447.452	8918
2449.418	8688
2451.383	8740
2453.348	8671
2455.314	8814
2457.278	8747
2459.241	8821
2461.205	8765
2463.167	8809
2465.131	8755
2467.091	8791
2469.052	8740
2471.012	8754
2472.972	8737
2474.932	8745
2476.891	8662
2478.85	8767
2480.808	8792
2482.766	8664
2484.722	8764
2486.68	8843
2488.636	8579
2490.591	8587
2492.546	8711
2494.5	8679
2496.456	8705
2498.41	8712
2500.362	8736
2502.315	8809
2504.266	8648
2506.218	8646
2508.169	8684
2510.121	8550
2512.07	8854
2514.019	8624
2515.968	8839
2517.918	8657
2519.866	8658
2521.813	8747
2523.76	8700
2525.707	8739
2527.653	8617
2529.599	8669
2531.543	8601
2533.489	8640
2535.433	8689
2537.376	8576
2539.32	8698
2541.264	8630
2543.205	8744
2545.147	8695
2547.087	8681
2549.029	8666
2550.969	8757
2552.908	8491
2554.847	8693
2556.786	8717
2558.724	8700
2560.663	8533
2562.6	8654
2564.537	8640
2566.473	8706
2568.408	8662
2570.345	8662
2572.28	8681
2574.214	8570
2576.148	8636
2578.081	8692
2580.014	8754
2581.947	8543
2583.879	8654
2585.81	8652
2587.741	8742
2589.67	8588
2591.602	8813
2593.532	8618
2595.461	8630
2597.388	8711
2599.316	8647
2601.244	8606
2603.172	8629
2605.098	8719
2607.023	8604
2608.949	8637
2610.873	8813
2612.8	8735
2614.723	8647
2616.647	8680
2618.569	8576
2620.493	8777
2622.416	8635
2624.338	8678
2626.258	8811
2628.179	8728
2630.099	8754
2632.019	8629
2633.939	8780
2635.857	8823
2637.775	8623
2639.694	8736
2641.61	8749
2643.528	8744
2645.444	8766
2647.361	8607
2649.276	8730
2651.19	8694
2653.105	8712
2655.019	8701
2656.934	8646
2658.846	8693
2660.758	8622
2662.67	8708
2664.583	8577
2666.493	8674
2668.404	8749
2670.313	8694
2672.223	8770
2674.134	8667
2676.042	8658
2677.95	8682
2679.858	8628
2681.765	8771
2683.673	8713
2685.579	8681
2687.483	8670
2689.389	8794
2691.294	8460
2693.198	8639
2695.104	8681
2697.006	8674
2698.909	8683
2700.811	8566
2702.713	8609
2704.615	8644
2706.516	8526
2708.417	8620
2710.316	8567
2712.216	8479
2714.115	8630
2716.014	8589
2717.913	8652
2719.81	8515
2721.707	8592
2723.603	8616
2725.501	8543
2727.396	8588
2729.292	8400
2731.186	8549
2733.081	8535
2734.976	8555
2736.87	8482
2738.762	8585
2740.653	8404
2742.546	8439
2744.437	8484
2746.329	8467
2748.22	8523
2750.11	8529
2751.999	8521
2753.889	8617
2755.778	8701
2757.666	8519
2759.553	8329
2761.44	8570
2763.328	8448
2765.215	8519
2767.101	8588
2768.986	8538
2770.87	8649
2772.754	8422
2774.638	8562
2776.523	8441
2778.405	8551
2780.288	8457
2782.17	8423
2784.051	8348
2785.934	8439
2787.814	8422
2789.694	8460
2791.574	8597
2793.453	8322
2795.332	8570
2797.212	8538
2799.088	8462
2800.966	8431
2802.843	8616
2804.719	8473
2806.597	8498
2808.471	8451
2810.346	8368
2812.221	8420
2814.094	8342
2815.969	8284
2817.843	8243
2819.714	8375
2821.587	8330
2823.459	8442
2825.329	8477
2827.202	8404
2829.072	8325
2830.942	8411
2832.811	8382
2834.68	8556
2836.549	8440
2838.418	8381
2840.284	8301
2842.152	8529
2844.018	8341
2845.885	8388
2847.751	8488
2849.616	8454
2851.482	8279
2853.345	8476
2855.208	8490
2857.074	8485
2858.937	8380
2860.799	8534
2862.66	8541
2864.522	8578
2866.385	8506
2868.245	8549
2870.104	8614
2871.964	8655
2873.824	8675
2875.683	8815
2877.542	8760
2879.4	8849
2881.257	8861
2883.114	8791
2884.97	9008
2886.827	8798
2888.683	8926
2890.537	8868
2892.392	8854
2894.246	8776
2896.1	8762
2897.954	8801
2899.807	8823
2901.66	8802
2903.51	8762
2905.362	8755
2907.214	8845
2909.065	8783
2910.915	8903
2912.765	9003
2914.613	8899
2916.463	8996
2918.311	9122
2920.158	9065
2922.006	9047
2923.853	9163
2925.698	9306
2927.546	9258
2929.392	9386
2931.236	9427
2933.081	9422
2934.924	9582
2936.77	9443
2938.613	9525
2940.455	9632
2942.298	9658
2944.139	9612
2945.982	9510
2947.823	9500
2949.662	9424
2951.503	9608
2953.342	9416
2955.182	9351
2957.021	9257
2958.858	9401
2960.697	9217
2962.534	9171
2964.37	9218
2966.207	8945
2968.044	9086
2969.879	9063
2971.714	8984
2973.548	8998
2975.383	8968
2977.218	8886
2979.051	9096
2980.883	8795
2982.715	8932
2984.547	8862
2986.379	8708
2988.21	8775
2990.04	8820
2991.87	8793
2993.7	8645
2995.53	8566
2997.359	8627
2999.187	8515
3001.015	8605
3002.842	8597
3004.669	8449
3006.497	8434
3008.323	8464
3010.148	8346
3011.974	8266
3013.797	8390
3015.623	8104
3017.447	8195
3019.27	8222
3021.094	8092
3022.915	8027
3024.737	8217
3026.56	8072
3028.38	8101
3030.201	7890
3032.022	8008
3033.84	8056
3035.662	7916
3037.481	8091
3039.298	8090
3041.117	7961
3042.933	8031
3044.752	8012
3046.568	8022
3048.385	8092
3050.2	8187
3052.016	7934
3053.83	7890
3055.646	8049
3057.46	7946
3059.272	7991
3061.086	7930
3062.898	8093
3064.711	8098
3066.524	7956
3068.335	7899
3070.145	7876
3071.956	7977
3073.766	7920
3075.576	7914
3077.385	7860
3079.193	7873
3081.002	7998
3082.81	7870
3084.618	7825
3086.425	7819
3088.231	7964
3090.036	7865
3091.842	7982
3093.648	7780
3095.452	7825
3097.257	7917
3099.06	7868
3100.863	7730
3102.666	7941
3104.47	7814
3106.272	7883
3108.073	7794
3109.875	7863
3111.676	7791
3113.477	7659
3115.277	7632
3117.077	7827
3118.874	7777
3120.673	7665
3122.473	7727
3124.271	7680
3126.066	7648
3127.863	7628
3129.66	7676
3131.456	7709
3133.252	7866
3135.047	7583
3136.842	7719
3138.635	7566
3140.429	7661
3142.223	7682
3144.016	7595
3145.808	7646
3147.6	7457
3149.392	7751
3151.183	7682
3152.975	7557
3154.765	7649
3156.553	7529
3158.344	7581
3160.132	7594
3161.922	7680
3163.71	7463
3165.497	7522
3167.285	7493
3169.071	7689
3170.858	7453
3172.645	7518
3174.429	7511
3176.214	7569
3177.998	7442
3179.783	7545
3181.568	7573
3183.351	7550
3185.133	7634
3186.915	7567
3188.698	7635
3190.481	7445
3192.261	7554
3194.042	7443
3195.822	7497
3197.601	7618
3199.381	7436
3201.161	7508
3202.939	7499
3204.717	7576
3206.495	7441
3208.272	7396
3210.05	7446
3211.826	7509
3213.602	7459
3215.376	7402
3217.151	7566
3218.927	7456
3220.702	7389
3222.476	7567
3224.249	7422
3226.021	7477
3227.793	7521
3229.567	7437
3231.339	7323
3233.109	7455
3234.88	7547
3236.651	7525
3238.421	7548
3240.191	7438
3241.96	7520
3243.728	7479
3245.497	7401
3247.263	7458
3249.033	7414
3250.799	7424
3252.566	7425
3254.331	7492
3256.097	7410
3257.863	7551
3259.628	7473
3261.392	7372
3263.156	7460
3264.919	7464
3266.683	7472
3268.447	7434
3270.208	7351
3271.969	7265
3273.731	7519
3275.492	7344
3277.253	7404
3279.013	7411
3280.773	7490
3282.532	7453
3284.291	7518
3286.05	7441
3287.808	7430
3289.566	7456
3291.323	7397
3293.079	7385
3294.835	7504
3296.593	7467
3298.348	7497
3300.102	7481
3301.857	7345
3303.611	7504
3305.366	7417
3307.119	7513
3308.872	7344
3310.624	7497
3312.376	7283
3314.129	7494
3315.881	7326
3317.631	7436
3319.38	7502
3321.13	7456
3322.88	7421
3324.631	7441
3326.379	7427
3328.126	7499
3329.875	7361
3331.622	7436
3333.371	7436
3335.116	7320
3336.863	7330
3338.609	7431
3340.353	7288
3342.1	7307
3343.845	7381
3345.588	7279
3347.332	7415
3349.074	7211
3350.817	7263
3352.56	7295
3354.303	7264
3356.043	7350
3357.785	7260
3359.525	7218
3361.268	7305
3363.007	7324
3364.745	7253
3366.485	7288
3368.223	7251
3369.962	7210
3371.701	7311
3373.438	7156
3375.174	7300
3376.911	7363
3378.647	7216
3380.384	7254
3382.118	7236
3383.854	7070
3385.588	7299
3387.322	7140
3389.057	7329
3390.79	7247
3392.522	7183
3394.255	7187
3395.987	7236
3397.719	7081
3399.451	7208
3401.181	7191
3402.911	7114
3404.641	7327
3406.371	7122
3408.101	7122
3409.83	7204
3411.558	7152
3413.285	7150
3415.011	7059
3416.739	7124
3418.467	7075
3420.193	7154
3421.919	7104
3423.644	7147
3425.368	7050
3427.094	7016
3428.818	7045
3430.542	7083
3432.264	7104
3433.987	7037
3435.712	7141
3437.434	7165
3439.155	7161
3440.876	7173
3442.596	7045
3444.317	6996
3446.039	7035
3447.757	6931
3449.477	6987
3451.195	7062
3452.914	6938
3454.632	6950
3456.35	6920
3458.067	6933
3459.784	6821
3461.5	7029
3463.216	6804
3464.932	6949
3466.647	6982
3468.362	6878
3470.076	7000
3471.789	6832
3473.505	6978
3475.217	6882
3476.929	6999
3478.641	6868
3480.354	6804
3482.066	6920
3483.777	6931
3485.487	6818
3487.197	6799
3488.908	6801
3490.617	6782
3492.327	6864
3494.035	6857
3495.743	6829
3497.451	6778
3499.158	6690
3500.866	6693
3502.572	6805
3504.278	6799
3505.984	6783
3507.689	6741
3509.396	6748
3511.1	6758
3512.804	6749
3514.508	6772
3516.211	6807
3517.913	6576
3519.616	6653
3521.319	6727
3523.021	6741
3524.722	6700
3526.422	6736
3528.124	6668
3529.824	6622
3531.524	6689
3533.222	6760
3534.921	6546
3536.62	6600
3538.318	6521
3540.016	6610
3541.714	6623
3543.41	6611
3545.107	6627
3546.803	6553
3548.5	6528
3550.194	6574
3551.889	6511
3553.583	6604
3555.279	6720
3556.972	6574
3558.666	6592
3560.358	6498
3562.051	6626
3563.742	6615
3565.435	6553
3567.126	6466
3568.817	6545
3570.507	6453
3572.197	6551
3573.888	6556
3575.577	6594
3577.265	6585
3578.954	6493
3580.642	6595
3582.329	6490
3584.017	6535
3585.704	6502
3587.391	6423
3589.077	6505
3590.762	6523
3592.449	6551
3594.133	6412
3595.817	6446
3597.501	6373
3599.185	6426
3600.869	6403
3602.552	6367
3604.234	6352
3605.916	6425
3607.598	6398
3609.279	6374
3610.961	6289
3612.642	6333
3614.321	6357
3616	6338
3617.68	6284
3619.36	6366
3621.039	6230
3622.716	6266
3624.394	6296
3626.071	6274
3627.748	6279
3629.425	6297
3631.102	6171
3632.778	6271
3634.452	6256
3636.127	6173
3637.803	6240
3639.477	6226
3641.151	6307
3642.823	6245
3644.497	6233
3646.171	6165
3647.842	6113
3649.515	6142
3651.185	6158
3652.857	6086
3654.527	6185
3656.198	6087
3657.868	6112
3659.537	6212
3661.207	6108
3662.875	6061
3664.544	6218
3666.212	6177
3667.879	6061
3669.546	6153
3671.212	6140
3672.88	6145
3674.546	6177
3676.211	6132
3677.875	6017
3679.541	5993
3681.205	6124
3682.87	6041
3684.533	6079
3686.196	6060
3687.859	6102
3689.521	5977
3691.184	5989
3692.845	6135
3694.507	6049
3696.167	5989
3697.827	6062
3699.487	6169
3701.148	6081
3702.808	6092
3704.466	6012
3706.125	6114
3707.783	6005
3709.442	6047
3711.099	6076
3712.757	6088
3714.412	5971
3716.068	6018
3717.725	5991
3719.381	5966
3721.036	5990
3722.689	5912
3724.344	5847
3725.998	5858
3727.652	6066
3729.305	5981
3730.958	6000
3732.61	6014
3734.262	5961
3735.915	5972
3737.565	6015
3739.217	5918
3740.866	6035
3742.516	5848
3744.165	5920
3745.816	5900
3747.464	5914
3749.113	5960
3750.761	5879
3752.409	5926
3754.057	5880
3755.703	5869
3757.35	5877
3758.996	5894
3760.641	5944
3762.289	5923
3763.933	5838
3765.577	5710
3767.222	5855
3768.865	5840
3770.508	5782
3772.152	5848
3773.796	5756
3775.438	5880
3777.079	5791
3778.721	5800
3780.363	5824
3782.003	5698
3783.643	5781
3785.283	5758
3786.923	5759
3788.563	5785
3790.203	5774
3791.841	5792
3793.479	5710
3795.115	5824
3796.753	5829
3798.391	5789
3800.027	5707
3801.664	5651
3803.299	5709
3804.935	5719
3806.571	5650
3808.206	5730
3809.839	5720
3811.473	5754
3813.107	5766
3814.74	5705
3816.375	5680
3818.006	5643
3819.638	5723
3821.27	5694
3822.9	5623
3824.532	5654
3826.163	5644
3827.792	5542
3829.423	5589
3831.051	5674
3832.682	5666
3834.311	5634
3835.938	5587
3837.566	5621
3839.193	5596
3840.821	5593
3842.448	5618
3844.075	5659
3845.7	5661
3847.325	5651
3848.951	5506
3850.576	5519
3852.201	5511
3853.825	5600
3855.448	5573
3857.072	5523
3858.694	5631
3860.318	5541
3861.939	5650
3863.562	5534
3865.183	5591
3866.804	5623
3868.426	5481
3870.045	5587
3871.666	5608
3873.285	5549
3874.904	5431
3876.524	5587
3878.142	5547
3879.76	5557
3881.378	5575
3882.995	5497
3884.612	5537
3886.229	5489
3887.845	5454
3889.461	5426
3891.076	5521
3892.691	5388
3894.307	5476
3895.922	5501
3897.536	5534
3899.149	5520
3900.761	5468
3902.374	5425
3903.988	5508
3905.6	5441
3907.212	5472
3908.822	5351
3910.433	5430
3912.045	5448
3913.655	5423
3915.265	5466
3916.875	5489
3918.483	5473
3920.093	5479
3921.702	5486
3923.309	5398
3924.917	5488
3926.523	5364
3928.13	5436
3929.739	5374
3931.344	5425
3932.95	5406
3934.555	5391
3936.159	5455
3937.766	5421
3939.369	5382
3940.974	5384
3942.577	5364
3944.181	5352
3945.783	5327
3947.386	5377
3948.989	5345
3950.59	5394
3952.191	5322
3953.791	5312
3955.394	5347
3956.994	5311
3958.593	5337
3960.192	5460
3961.791	5347
3963.392	5369
3964.99	5311
3966.588	5449
3968.185	5306
3969.782	5304
3971.379	5166
3972.976	5354
3974.572	5275
3976.168	5253
3977.763	5252
3979.358	5318
3980.954	5237
3982.548	5264
3984.142	5257
3985.736	5180
3987.329	5347
3988.922	5275
3990.516	5157
3992.108	5220
3993.698	5211
3995.29	5243
3996.881	5259
3998.473	5166
4000.064	5238
4001.653	5246
4003.242	5062
4004.832	5114
4006.422	5199
4008.01	5121
4009.598	5292
4011.186	5209
4012.773	5146
4014.36	5188
4015.947	5218
4017.534	5084
4019.119	5085
4020.705	5021
4022.291	5135
4023.876	5019
4025.461	5189
4027.044	5166
4028.627	5123
4030.211	5154
4031.795	5055
4033.378	5015
4034.96	5055
4036.542	4980
4038.124	5104
4039.704	4960
4041.286	4943
4042.867	5095
4044.447	5021
4046.026	5091
4047.606	4975
4049.187	5010
4050.765	4931
4052.343	5077
4053.92	5074
4055.498	5002
4057.076	4956
4058.654	4950
4060.23	4952
4061.806	5000
4063.381	4893
4064.957	5067
4066.533	4903
4068.107	4996
4069.682	4988
4071.256	4997
4072.829	4990
4074.404	5027
4075.977	5000
4077.549	4938
4079.121	4948
4080.693	5037
4082.265	4929
4083.836	4863
4085.407	4977
4086.977	4928
4088.547	4984
4090.117	5037
4091.687	4923
4093.256	4840
4094.825	4914
4096.392	4845
4097.96	4930
4099.528	4922
4101.097	5027
4102.663	4894
4104.229	4823
4105.795	4919
4107.361	4808
4108.928	4867
4110.493	4843
4112.058	4865
4113.621	4772
4115.186	4787
4116.75	4830
4118.313	4800
4119.876	4858
4121.438	4823
4123	4781
4124.562	4758
4126.125	4858
4127.686	4966
4129.246	4738
4130.807	4811
4132.367	4724
4133.927	4770
4135.486	4830
4137.046	4760
4138.604	4763
4140.162	4735
4141.72	4776
4143.279	4742
4144.836	4661
4146.393	4749
4147.949	4647
4149.505	4693
4151.062	4616
4152.617	4731
4154.172	4653
4155.727	4747
4157.281	4721
4158.836	4641
4160.39	4663
4161.943	4632
4163.496	4686
4165.048	4691
4166.601	4651
4168.154	4753
4169.706	4602
4171.257	4595
4172.808	4670
4174.358	4778
4175.909	4649
4177.458	4606
4179.008	4592
4180.558	4692
4182.106	4570
4183.655	4551
4185.204	4536
4186.751	4594
4188.298	4537
4189.845	4654
4191.392	4517
4192.939	4579
4194.485	4548
4196.031	4639
4197.576	4500
4199.121	4639
4200.666	4497
4202.211	4529
4203.754	4533
4205.298	4539
4206.84	4465
4208.384	4531
4209.927	4577
4211.47	4529
4213.011	4512
4214.552	4604
4216.094	4519
4217.635	4545
4219.175	4558
4220.716	4426
4222.255	4525
4223.793	4456
4225.335	4493
4226.873	4499
4228.411	4528
4229.948	4512
4231.486	4570
4233.024	4485
4234.562	4524
4236.098	4492
4237.634	4440
4239.169	4475
4240.705	4498
4242.241	4409
4243.776	4480
4245.31	4456
4246.844	4492
4248.378	4484
4249.911	4521
4251.445	4556
4252.978	4414
4254.51	4484
4256.042	4392
4257.574	4427
4259.107	4310
4260.638	4433
4262.169	4450
4263.699	4483
4265.228	4432
4266.759	4413
4268.289	4543
4269.818	4527
4271.345	4406
4272.874	4360
4274.402	4416
4275.931	4388
4277.458	4443
4278.985	4455
4280.512	4394
4282.037	4342
4283.564	4399
4285.089	4263
4286.615	4393
4288.139	4361
4289.664	4329
4291.187	4300
4292.712	4394
4294.235	4362
4295.759	4424
4297.281	4390
4298.804	4324
4300.327	4298
4301.849	4243
4303.37	4285
4304.891	4348
4306.412	4295
4307.933	4249
4309.453	4389
4310.973	4213
4312.492	4297
