398.1873	4565
400.7097	4571
403.2336	4640
405.7547	4523
408.2751	4649
410.7948	4629
413.3138	4578
415.83	4629
418.3497	4738
420.8666	4753
423.3829	4826
425.8985	4837
428.4133	4883
430.9275	4873
433.441	4859
435.9538	4890
438.4639	4945
440.9753	4911
443.4881	4907
445.9982	4817
448.5055	4866
451.0142	4888
453.5201	4974
456.0274	4858
458.5361	4946
461.04	4900
463.5453	4914
466.0478	5006
468.5517	4958
471.0549	4895
473.5574	4924
476.0572	4945
478.5584	4932
481.0568	5010
483.5545	4968
486.0557	5121
488.5521	4972
491.0478	5050
493.5449	5019
496.0392	5023
498.5349	4998
501.0299	4987
503.5222	4992
506.0139	5067
508.5048	5059
510.9991	5087
513.4887	4959
515.9777	5020
518.4659	5104
520.9534	5044
523.4403	5136
525.9306	5132
528.4161	5105
530.9009	5052
533.3851	5130
535.8687	5132
538.3535	5082
540.8356	5009
543.3171	5071
545.7979	5122
548.278	5116
550.7595	5121
553.2383	5143
555.7144	5084
558.1918	5209
560.6685	5174
563.1446	5155
565.6221	5153
568.0968	5142
570.5688	5194
573.0422	5245
575.515	5324
577.989	5246
580.4584	5262
582.9291	5209
585.3991	5274
587.8685	5302
590.3352	5323
592.8052	5320
595.2706	5323
597.7372	5396
600.2033	5338
602.6666	5235
605.1334	5287
607.5953	5271
610.0587	5194
612.5193	5253
614.9814	5309
617.4427	5372
619.9034	5181
622.3615	5231
624.8208	5253
627.2775	5237
629.7335	5212
632.1929	5255
634.6476	5164
637.1016	5323
639.5569	5417
642.0096	5301
644.4637	5277
646.9151	5309
649.3678	5258
651.8179	5272
654.2672	5267
656.7159	5383
659.166	5397
661.6154	5251
664.0622	5382
666.5082	5367
668.9537	5334
671.4005	5405
673.8445	5486
676.288	5421
678.7308	5424
681.1729	5454
683.6163	5479
686.0572	5429
688.4973	5499
690.9368	5385
693.3757	5400
695.8138	5381
698.2534	5518
700.6902	5522
703.1245	5459
705.56	5411
707.9949	5493
710.4311	5439
712.8647	5540
715.2957	5480
717.7279	5527
720.1595	5440
722.5905	5606
725.0208	5534
727.4505	5755
729.8795	5461
732.3058	5683
734.7336	5622
737.1626	5622
739.587	5601
742.0128	5653
744.4359	5703
746.8604	5814
749.2841	5680
751.7073	5795
754.1278	5747
756.5496	5862
758.9688	5732
761.3893	5852
763.8093	5809
766.2285	5896
768.6451	5794
771.0611	5848
773.4784	5744
775.895	5770
778.3091	5724
780.7244	5960
783.1371	5799
785.5493	5865
787.9626	5889
790.3754	5735
792.7856	5826
795.1951	5793
797.6039	5779
800.0121	5843
802.4236	5752
804.8306	5972
807.2369	5932
809.6425	5821
812.0475	5858
814.4538	5913
816.8575	5840
819.2606	5977
821.663	5961
824.0648	5993
826.4659	5911
828.8683	5955
831.2682	6102
833.6674	5881
836.066	5928
838.4639	5900
840.8632	5958
843.2579	5967
845.6539	5914
848.0493	6115
850.444	6040
852.84	6114
855.2315	6018
857.6243	6112
860.0165	6072
862.4081	6003
864.797	5987
867.1892	5951
869.5789	6014
871.9659	5905
874.3542	6058
876.74	6028
879.129	5919
881.5155	6048
883.8994	6046
886.2845	5975
888.6671	6056
891.051	5952
893.4343	5996
895.8169	5997
898.197	5987
900.5783	5933
902.9571	6021
905.3372	6053
907.7167	5894
910.0936	5960
912.4698	6075
914.8474	6214
917.2244	6104
919.5987	6082
921.9744	6174
924.3475	6146
926.72	6250
929.0918	6284
931.4669	6261
933.8375	6304
936.2074	6284
938.5767	6356
940.9454	6469
943.3154	6361
945.6829	6582
948.0497	6635
950.4178	6797
952.7833	7262
955.1483	7315
957.5145	7540
959.8782	7598
962.2412	7605
964.6036	7527
966.9655	7276
969.3266	6989
971.6871	6740
974.0471	6604
976.4064	6545
978.765	6398
981.125	6304
983.4824	6257
985.8373	6256
988.1935	6242
990.549	6207
992.9039	6223
995.2602	6267
997.6119	6186
999.965	6267
1002.317	6297
1004.667	6307
1007.02	6348
1009.371	6192
1011.719	6192
1014.068	6224
1016.415	6244
1018.765	6253
1021.111	6323
1023.458	6380
1025.804	6308
1028.147	6348
1030.49	6372
1032.837	6308
1035.179	6439
1037.522	6388
1039.862	6340
1042.204	6328
1044.546	6349
1046.884	6423
1049.224	6301
1051.562	6327
1053.899	6371
1056.237	6346
1058.575	6379
1060.91	6537
1063.244	6494
1065.58	6462
1067.913	6598
1070.248	6430
1072.579	6402
1074.911	6510
1077.242	6472
1079.572	6445
1081.905	6537
1084.234	6321
1086.562	6540
1088.89	6357
1091.217	6522
1093.544	6479
1095.871	6419
1098.197	6397
1100.521	6380
1102.845	6332
1105.169	6355
1107.491	6412
1109.814	6377
1112.135	6391
1114.456	6361
1116.776	6434
1119.096	6475
1121.415	6302
1123.734	6294
1126.052	6502
1128.369	6423
1130.686	6379
1133.002	6425
1135.318	6370
1137.632	6426
1139.945	6407
1142.258	6444
1144.573	6362
1146.884	6455
1149.196	6378
1151.505	6553
1153.816	6329
1156.124	6383
1158.435	6395
1160.742	6391
1163.051	6356
1165.356	6601
1167.663	6466
1169.97	6263
1172.276	6359
1174.579	6486
1176.881	6472
1179.186	6368
1181.487	6420
1183.79	6457
1186.092	6378
1188.392	6382
1190.691	6455
1192.991	6562
1195.291	6415
1197.588	6359
1199.885	6395
1202.181	6432
1204.479	6431
1206.775	6508
1209.07	6430
1211.363	6502
1213.656	6488
1215.949	6466
1218.241	6402
1220.534	6497
1222.825	6477
1225.115	6460
1227.405	6626
1229.693	6620
1231.984	6584
1234.271	6551
1236.558	6540
1238.845	6676
1241.131	6590
1243.416	6673
1245.703	6603
1247.987	6673
1250.269	6778
1252.552	6720
1254.834	6701
1257.118	6758
1259.399	6610
1261.678	6665
1263.958	6696
1266.237	6636
1268.516	6664
1270.794	6683
1273.072	6674
1275.347	6759
1277.624	6673
1279.899	6657
1282.175	6520
1284.449	6750
1286.722	6662
1288.995	6535
1291.266	6564
1293.54	6600
1295.81	6642
1298.081	6539
1300.35	6558
1302.62	6567
1304.889	6585
1307.156	6629
1309.425	6697
1311.69	6613
1313.957	6481
1316.222	6633
1318.488	6509
1320.751	6564
1323.016	6554
1325.278	6655
1327.54	6652
1329.803	6647
1332.065	6663
1334.325	6611
1336.584	6623
1338.843	6575
1341.101	6521
1343.36	6744
1345.617	6638
1347.876	6673
1350.131	6643
1352.387	6507
1354.643	6491
1356.897	6616
1359.151	6567
1361.403	6712
1363.656	6600
1365.909	6725
1368.16	6638
1370.409	6629
1372.659	6727
1374.909	6617
1377.157	6738
1379.407	6629
1381.655	6628
1383.9	6707
1386.147	6629
1388.393	6685
1390.64	6680
1392.885	6679
1395.127	6715
1397.37	6696
1399.614	6696
1401.854	6748
1404.098	6858
1406.339	6727
1408.578	6756
1410.818	6820
1413.056	6764
1415.297	6757
1417.533	6799
1419.771	6776
1422.006	6671
1424.243	6801
1426.479	6725
1428.715	6814
1430.948	6858
1433.182	6754
1435.414	6836
1437.647	6858
1439.88	7001
1442.11	6840
1444.342	6934
1446.571	6895
1448.799	6847
1451.029	6962
1453.258	6805
1455.485	6867
1457.711	7018
1459.937	6865
1462.164	6904
1464.39	6830
1466.614	6906
1468.838	6785
1471.06	6821
1473.283	6807
1475.506	6823
1477.727	6849
1479.949	6820
1482.169	6675
1484.389	6754
1486.609	6691
1488.828	6749
1491.045	6735
1493.261	6748
1495.477	6682
1497.693	6711
1499.91	6615
1502.125	6638
1504.339	6612
1506.553	6787
1508.766	6744
1510.979	6741
1513.191	6715
1515.402	6829
1517.613	6616
1519.823	6725
1522.033	6651
1524.242	6747
1526.451	6686
1528.657	6597
1530.865	6601
1533.072	6608
1535.278	6672
1537.484	6729
1539.687	6654
1541.892	6799
1544.096	6710
1546.299	6807
1548.502	6760
1550.703	6703
1552.905	6723
1555.104	6802
1557.303	6667
1559.505	6743
1561.703	6767
1563.902	6791
1566.099	6834
1568.295	6786
1570.494	6707
1572.689	6743
1574.883	6839
1577.079	6828
1579.272	6989
1581.467	6869
1583.659	6923
1585.853	6735
1588.044	6854
1590.234	6906
1592.424	6789
1594.615	7003
1596.806	6820
1598.994	6924
1601.182	6962
1603.369	6844
1605.557	6830
1607.744	6906
1609.929	6954
1612.114	7032
1614.298	6868
1616.482	6946
1618.667	6971
1620.85	6872
1623.032	6890
1625.214	7066
1627.395	6908
1629.575	6866
1631.755	7084
1633.935	6945
1636.114	6973
1638.292	7017
1640.471	7024
1642.647	6986
1644.823	7032
1647	6963
1649.175	6992
1651.348	7007
1653.525	6944
1655.698	6981
1657.87	7124
1660.043	7024
1662.213	6941
1664.387	7113
1666.558	7071
1668.727	7128
1670.896	7036
1673.064	7003
1675.233	6984
1677.401	7042
1679.569	7023
1681.735	7094
1683.902	6984
1686.066	6930
1688.233	7076
1690.397	7126
1692.559	7082
1694.723	7056
1696.885	7068
1699.048	6955
1701.21	7013
1703.37	7014
1705.53	7028
1707.689	6954
1709.849	6940
1712.009	6976
1714.166	6881
1716.323	6952
1718.479	6976
1720.634	6928
1722.793	6927
1724.948	6953
1727.102	7018
1729.255	6971
1731.408	6972
1733.562	6932
1735.714	6951
1737.865	6817
1740.016	6814
1742.166	6833
1744.316	7016
1746.467	6815
1748.616	6908
1750.764	6902
1752.911	6944
1755.056	7064
1757.205	6970
1759.35	6983
1761.496	6974
1763.641	7114
1765.785	7131
1767.927	7053
1770.072	7048
1772.214	6888
1774.355	6996
1776.496	6993
1778.637	6972
1780.778	6982
1782.918	6981
1785.057	7023
1787.194	6977
1789.333	7063
1791.472	6975
1793.608	6991
1795.745	6976
1797.879	7099
1800.015	6938
1802.148	6977
1804.284	7008
1806.417	7011
1808.548	7106
1810.682	7024
1812.812	7076
1814.946	7064
1817.075	6977
1819.205	6970
1821.335	7120
1823.463	6954
1825.59	7050
1827.721	7017
1829.847	7121
1831.973	7057
1834.098	6977
1836.223	7012
1838.351	6956
1840.475	7048
1842.598	7034
1844.721	7100
1846.843	6896
1848.966	6998
1851.087	6942
1853.21	6916
1855.33	7089
1857.449	6817
1859.568	7056
1861.688	6920
1863.806	6971
1865.924	6931
1868.039	6974
1870.155	6957
1872.273	6972
1874.388	6928
1876.503	7080
1878.617	6941
1880.73	6936
1882.844	7007
1884.956	7099
1887.068	6984
1889.18	6988
1891.291	7028
1893.4	7150
1895.511	6992
1897.621	7031
1899.73	7011
1901.837	7073
1903.944	7021
1906.053	7022
1908.159	7057
1910.265	7163
1912.369	7112
1914.474	7225
1916.577	7122
1918.683	7022
1920.785	7015
1922.888	7106
1924.989	7024
1927.091	7168
1929.193	7104
1931.294	7052
1933.393	7149
1935.493	7067
1937.59	7062
1939.689	7158
1941.788	7058
1943.884	7113
1945.98	7126
1948.077	7139
1950.171	7001
1952.267	7041
1954.361	7145
1956.455	7150
1958.548	7133
1960.64	7078
1962.733	7028
1964.824	7141
1966.915	7135
1969.005	7060
1971.096	7155
1973.185	7030
1975.275	7007
1977.363	7155
1979.45	7036
1981.537	7070
1983.623	7090
1985.711	7144
1987.796	7090
1989.881	6962
1991.965	6973
1994.047	7067
1996.132	7049
1998.215	6921
2000.297	7041
2002.378	7020
2004.46	7078
2006.54	7063
2008.62	7102
2010.7	7092
2012.779	7069
2014.858	7124
2016.934	6976
2019.013	7115
2021.09	6954
2023.165	7118
2025.241	6988
2027.317	7165
2029.39	7067
2031.466	6996
2033.538	7149
2035.612	7040
2037.683	7079
2039.755	7149
2041.827	7152
2043.898	7021
2045.968	7008
2048.038	6935
2050.106	7101
2052.177	7050
2054.244	7073
2056.313	7163
2058.379	6971
2060.444	7098
2062.511	7134
2064.577	7139
2066.641	7126
2068.705	7007
2070.77	7077
2072.832	7089
2074.896	7084
2076.958	7111
2079.02	7197
2081.081	7094
2083.141	7140
2085.2	6868
2087.261	7038
2089.319	7046
2091.377	7100
2093.435	7094
2095.492	7152
2097.552	7032
2099.607	7181
2101.663	7072
2103.718	7125
2105.771	7034
2107.826	6901
2109.879	7076
2111.932	7062
2113.985	7068
2116.037	7009
2118.088	7116
2120.141	7073
2122.191	7086
2124.239	7149
2126.288	6996
2128.337	7084
2130.387	7081
2132.434	7114
2134.481	7046
2136.528	7085
2138.574	7116
2140.618	7125
2142.665	7014
2144.71	6971
2146.753	6959
2148.797	7127
2150.838	7033
2152.883	7036
2154.923	7122
2156.965	7059
2159.007	7142
2161.046	7108
2163.086	6970
2165.126	7156
2167.163	7012
2169.202	7052
2171.239	6995
2173.277	7030
2175.314	6990
2177.349	7035
2179.385	7086
2181.42	7095
2183.453	6957
2185.49	6888
2187.522	6988
2189.555	7007
2191.586	6963
2193.619	7061
2195.651	6920
2197.682	6903
2199.711	6916
2201.74	6956
2203.769	6958
2205.799	6816
2207.828	6969
2209.855	6951
2211.882	6915
2213.908	6927
2215.934	7031
2217.961	6954
2219.986	7008
2222.01	6951
2224.034	6943
2226.057	6937
2228.08	6904
2230.104	6849
2232.124	7030
2234.145	6912
2236.166	6941
2238.186	6834
2240.207	6827
2242.227	7023
2244.244	6800
2246.262	6856
2248.28	6990
2250.299	6920
2252.314	6842
2254.33	6932
2256.346	7032
2258.36	6979
2260.375	6813
2262.391	6872
2264.403	6999
2266.416	6896
2268.427	6979
2270.44	6774
2272.453	6993
2274.463	6960
2276.474	6933
2278.483	7022
2280.493	6897
2282.501	6906
2284.51	6918
2286.518	6822
2288.524	6887
2290.532	6873
2292.537	6865
2294.544	6906
2296.55	6972
2298.554	6842
2300.557	6891
2302.562	6974
2304.566	6932
2306.568	6885
2308.569	6841
2310.572	6916
2312.573	6953
2314.573	6863
2316.574	6962
2318.573	7005
2320.571	6858
2322.571	6940
2324.569	6883
2326.567	6809
2328.564	6874
2330.56	6946
2332.556	6927
2334.551	6922
2336.546	6723
2338.542	6889
2340.535	6755
2342.529	6861
2344.521	6832
2346.512	6750
2348.505	6765
2350.497	6894
2352.487	6846
2354.478	6861
2356.468	6821
2358.457	6793
2360.446	6814
2362.434	6739
2364.422	6725
2366.408	6772
2368.395	6802
2370.383	6755
2372.369	6896
2374.353	6856
2376.338	6749
2378.321	6828
2380.307	6813
2382.29	6749
2384.272	6822
2386.254	6773
2388.235	6729
2390.218	6893
2392.198	6630
2394.179	6746
2396.157	6705
2398.137	6820
2400.115	6710
2402.095	6705
2404.072	6762
2406.048	6782
2408.026	6818
2410.001	6530
2411.977	6677
2413.953	6789
2415.927	6803
2417.9	6783
2419.875	6710
2421.847	6703
2423.821	6737
2425.792	6676
2427.763	6816
2429.736	6722
2431.706	6635
2433.677	6812
2435.646	6661
2437.615	6793
2439.583	6708
2441.551	6722
2443.519	6732
2445.486	6654
2447.452	6733
2449.418	6715
2451.383	6744
2453.348	6750
2455.314	6720
2457.278	6593
2459.241	6721
2461.205	6747
2463.167	6741
2465.131	6682
2467.091	6617
2469.052	6688
2471.012	6583
2472.972	6663
2474.932	6553
2476.891	6558
2478.85	6593
2480.808	6633
2482.766	6718
2484.722	6720
2486.68	6565
2488.636	6652
2490.591	6617
2492.546	6663
2494.5	6703
2496.456	6631
2498.41	6641
2500.362	6628
2502.315	6561
2504.266	6707
2506.218	6607
2508.169	6631
2510.121	6577
2512.07	6648
2514.019	6637
2515.968	6605
2517.918	6539
2519.866	6535
2521.813	6610
2523.76	6638
2525.707	6514
2527.653	6581
2529.599	6615
2531.543	6637
2533.489	6542
2535.433	6509
2537.376	6491
2539.32	6684
2541.264	6686
2543.205	6539
2545.147	6706
2547.087	6544
2549.029	6593
2550.969	6571
2552.908	6639
2554.847	6583
2556.786	6647
2558.724	6638
2560.663	6697
2562.6	6563
2564.537	6703
2566.473	6671
2568.408	6506
2570.345	6545
2572.28	6699
2574.214	6537
2576.148	6585
2578.081	6601
2580.014	6607
2581.947	6545
2583.879	6625
2585.81	6645
2587.741	6657
2589.67	6633
2591.602	6635
2593.532	6578
2595.461	6577
2597.388	6635
2599.316	6529
2601.244	6575
2603.172	6616
2605.098	6680
2607.023	6527
2608.949	6603
2610.873	6668
2612.8	6692
2614.723	6618
2616.647	6498
2618.569	6651
2620.493	6685
2622.416	6700
2624.338	6529
2626.258	6682
2628.179	6759
2630.099	6611
2632.019	6628
2633.939	6603
2635.857	6608
2637.775	6672
2639.694	6704
2641.61	6599
2643.528	6709
2645.444	6651
2647.361	6521
2649.276	6562
2651.19	6660
2653.105	6571
2655.019	6581
2656.934	6614
2658.846	6627
2660.758	6645
2662.67	6631
2664.583	6673
2666.493	6468
2668.404	6703
2670.313	6521
2672.223	6522
2674.134	6555
2676.042	6474
2677.95	6520
2679.858	6669
2681.765	6518
2683.673	6608
2685.579	6578
2687.483	6637
2689.389	6577
2691.294	6585
2693.198	6543
2695.104	6619
2697.006	6559
2698.909	6524
2700.811	6515
2702.713	6560
2704.615	6514
2706.516	6519
2708.417	6633
2710.316	6428
2712.216	6397
2714.115	6494
2716.014	6412
2717.913	6507
2719.81	6476
2721.707	6556
2723.603	6558
2725.501	6502
2727.396	6540
2729.292	6472
2731.186	6553
2733.081	6670
2734.976	6461
2736.87	6573
2738.762	6582
2740.653	6476
2742.546	6365
2744.437	6465
2746.329	6397
2748.22	6403
2750.11	6479
2751.999	6492
2753.889	6423
2755.778	6580
2757.666	6446
2759.553	6407
2761.44	6411
2763.328	6342
2765.215	6575
2767.101	6457
2768.986	6489
2770.87	6384
2772.754	6565
2774.638	6430
2776.523	6412
2778.405	6433
2780.288	6416
2782.17	6522
2784.051	6417
2785.934	6280
2787.814	6491
2789.694	6395
2791.574	6455
2793.453	6479
2795.332	6501
2797.212	6466
2799.088	6396
2800.966	6522
2802.843	6413
2804.719	6442
2806.597	6499
2808.471	6368
2810.346	6397
2812.221	6339
2814.094	6393
2815.969	6381
2817.843	6323
2819.714	6371
2821.587	6330
2823.459	6426
2825.329	6448
2827.202	6263
2829.072	6467
2830.942	6417
2832.811	6320
2834.68	6438
2836.549	6510
2838.418	6337
2840.284	6439
2842.152	6474
2844.018	6369
2845.885	6324
2847.751	6377
2849.616	6330
2851.482	6376
2853.345	6425
2855.208	6507
2857.074	6405
2858.937	6488
2860.799	6498
2862.66	6528
2864.522	6557
2866.385	6527
2868.245	6456
2870.104	6647
2871.964	6593
2873.824	6609
2875.683	6620
2877.542	6670
2879.4	6782
2881.257	6766
2883.114	6692
2884.97	6773
2886.827	6754
2888.683	6815
2890.537	6782
2892.392	6730
2894.246	6682
2896.1	6704
2897.954	6722
2899.807	6776
2901.66	6758
2903.51	6746
2905.362	6608
2907.214	6739
2909.065	6926
2910.915	6616
2912.765	6788
2914.613	6708
2916.463	6796
2918.311	6891
2920.158	6909
2922.006	7069
2923.853	7048
2925.698	7009
2927.546	7132
2929.392	7117
2931.236	7136
2933.081	7267
2934.924	7185
2936.77	7262
2938.613	7278
2940.455	7312
2942.298	7316
2944.139	7414
2945.982	7367
2947.823	7332
2949.662	7334
2951.503	7247
2953.342	7240
2955.182	7174
2957.021	7095
2958.858	7102
2960.697	6960
2962.534	6966
2964.37	7004
2966.207	6903
2968.044	6922
2969.879	6824
2971.714	6872
2973.548	6802
2975.383	6853
2977.218	6825
2979.051	6829
2980.883	6741
2982.715	6841
2984.547	6722
2986.379	6779
2988.21	6663
2990.04	6730
2991.87	6670
2993.7	6670
2995.53	6603
2997.359	6562
2999.187	6496
3001.015	6558
3002.842	6529
3004.669	6311
3006.497	6402
3008.323	6310
3010.148	6226
3011.974	6320
3013.797	6343
3015.623	6286
3017.447	6284
3019.27	6156
3021.094	6363
3022.915	6163
3024.737	6202
3026.56	6158
3028.38	6159
3030.201	6129
3032.022	6090
3033.84	6184
3035.662	6087
3037.481	6027
3039.298	6087
3041.117	6153
3042.933	6250
3044.752	6022
3046.568	6145
3048.385	6092
3050.2	6068
3052.016	6009
3053.83	5955
3055.646	6091
3057.46	5969
3059.272	6048
3061.086	6052
3062.898	6067
3064.711	6012
3066.524	6088
3068.335	6042
3070.145	5984
3071.956	5900
3073.766	6035
3075.576	6077
3077.385	5992
3079.193	5933
3081.002	6066
3082.81	5943
3084.618	5960
3086.425	5996
3088.231	6004
3090.036	5997
3091.842	5910
3093.648	5976
3095.452	5961
3097.257	5935
3099.06	5909
3100.863	5826
3102.666	5947
3104.47	5849
3106.272	5804
3108.073	5923
3109.875	5881
3111.676	5897
3113.477	5838
3115.277	5851
3117.077	5961
3118.874	5797
3120.673	5798
3122.473	5895
3124.271	5946
3126.066	5800
3127.863	5815
3129.66	5841
3131.456	5764
3133.252	5847
3135.047	5831
3136.842	5738
3138.635	5678
3140.429	5759
3142.223	5808
3144.016	5708
3145.808	5767
3147.6	5823
3149.392	5779
3151.183	5778
3152.975	5709
3154.765	5758
3156.553	5714
3158.344	5744
3160.132	5671
3161.922	5698
3163.71	5662
3165.497	5778
3167.285	5785
3169.071	5749
3170.858	5823
3172.645	5677
3174.429	5724
3176.214	5777
3177.998	5650
3179.783	5648
3181.568	5748
3183.351	5753
3185.133	5675
3186.915	5775
3188.698	5664
3190.481	5660
3192.261	5687
3194.042	5662
3195.822	5662
3197.601	5732
3199.381	5653
3201.161	5680
3202.939	5704
3204.717	5724
3206.495	5658
3208.272	5609
3210.05	5739
3211.826	5693
3213.602	5664
3215.376	5640
3217.151	5578
3218.927	5731
3220.702	5639
3222.476	5562
3224.249	5730
3226.021	5662
3227.793	5760
3229.567	5640
3231.339	5655
3233.109	5709
3234.88	5656
3236.651	5689
3238.421	5608
3240.191	5588
3241.96	5664
3243.728	5644
3245.497	5660
3247.263	5523
3249.033	5659
3250.799	5625
3252.566	5606
3254.331	5620
3256.097	5583
3257.863	5590
3259.628	5579
3261.392	5634
3263.156	5649
3264.919	5768
3266.683	5673
3268.447	5760
3270.208	5599
3271.969	5479
3273.731	5640
3275.492	5661
3277.253	5759
3279.013	5624
3280.773	5638
3282.532	5708
3284.291	5714
3286.05	5596
3287.808	5688
3289.566	5651
3291.323	5703
3293.079	5664
3294.835	5631
3296.593	5636
3298.348	5540
3300.102	5618
3301.857	5665
3303.611	5662
3305.366	5625
3307.119	5606
3308.872	5680
3310.624	5560
3312.376	5665
3314.129	5679
3315.881	5550
3317.631	5650
3319.38	5696
3321.13	5609
3322.88	5675
3324.631	5708
3326.379	5578
3328.126	5639
3329.875	5537
3331.622	5569
3333.371	5559
3335.116	5610
3336.863	5674
3338.609	5569
3340.353	5498
3342.1	5412
3343.845	5531
3345.588	5569
3347.332	5561
3349.074	5580
3350.817	5602
3352.56	5525
3354.303	5596
3356.043	5499
3357.785	5505
3359.525	5560
3361.268	5599
3363.007	5517
3364.745	5559
3366.485	5466
3368.223	5547
3369.962	5506
3371.701	5576
3373.438	5427
3375.174	5456
3376.911	5498
3378.647	5471
3380.384	5399
3382.118	5532
3383.854	5432
3385.588	5526
3387.322	5535
3389.057	5472
3390.79	5459
3392.522	5377
3394.255	5509
3395.987	5540
3397.719	5447
3399.451	5386
3401.181	5436
3402.911	5404
3404.641	5504
3406.371	5442
3408.101	5421
3409.83	5348
3411.558	5441
3413.285	5394
3415.011	5395
3416.739	5473
3418.467	5306
3420.193	5411
3421.919	5413
3423.644	5377
3425.368	5378
3427.094	5348
3428.818	5406
3430.542	5352
3432.264	5349
3433.987	5360
3435.712	5352
3437.434	5339
3439.155	5462
3440.876	5399
3442.596	5296
3444.317	5274
3446.039	5266
3447.757	5245
3449.477	5299
3451.195	5272
3452.914	5285
3454.632	5249
3456.35	5232
3458.067	5334
3459.784	5248
3461.5	5241
3463.216	5213
3464.932	5291
3466.647	5187
3468.362	5307
3470.076	5279
3471.789	5259
3473.505	5303
3475.217	5227
3476.929	5261
3478.641	5160
3480.354	5172
3482.066	5145
3483.777	5257
3485.487	5104
3487.197	5260
3488.908	5179
3490.617	5143
3492.327	4973
3494.035	5160
3495.743	5099
3497.451	5204
3499.158	5105
3500.866	5115
3502.572	5071
3504.278	5154
3505.984	5057
3507.689	5112
3509.396	5106
3511.1	5091
3512.804	5174
3514.508	5079
3516.211	5088
3517.913	5193
3519.616	5093
3521.319	5204
3523.021	5061
3524.722	5108
3526.422	5114
3528.124	5098
3529.824	5065
3531.524	5067
3533.222	5084
3534.921	4949
3536.62	5123
3538.318	5002
3540.016	5097
3541.714	5173
3543.41	5055
3545.107	4951
3546.803	5007
3548.5	5026
3550.194	5038
3551.889	5010
3553.583	4913
3555.279	5030
3556.972	4932
3558.666	4968
3560.358	4900
3562.051	5020
3563.742	4965
3565.435	4964
3567.126	4947
3568.817	4928
3570.507	4956
3572.197	4970
3573.888	4938
3575.577	4953
3577.265	4918
3578.954	4895
3580.642	4989
3582.329	4905
3584.017	4925
3585.704	4808
3587.391	4881
3589.077	4856
3590.762	4906
3592.449	4880
3594.133	4811
3595.817	4842
3597.501	4929
3599.185	4830
3600.869	4795
3602.552	4865
3604.234	4908
3605.916	4887
3607.598	4795
3609.279	4841
3610.961	4890
3612.642	4780
3614.321	4755
3616	4789
3617.68	4726
3619.36	4858
3621.039	4826
3622.716	4845
3624.394	4837
3626.071	4750
3627.748	4720
3629.425	4768
3631.102	4781
3632.778	4700
3634.452	4716
3636.127	4639
3637.803	4675
3639.477	4745
3641.151	4809
3642.823	4661
3644.497	4654
3646.171	4774
3647.842	4739
3649.515	4688
3651.185	4660
3652.857	4671
3654.527	4696
3656.198	4687
3657.868	4627
3659.537	4690
3661.207	4642
3662.875	4659
3664.544	4643
3666.212	4594
3667.879	4608
3669.546	4613
3671.212	4640
3672.88	4675
3674.546	4642
3676.211	4576
3677.875	4542
3679.541	4637
3681.205	4620
3682.87	4553
3684.533	4546
3686.196	4611
3687.859	4521
3689.521	4631
3691.184	4580
3692.845	4603
3694.507	4626
3696.167	4588
3697.827	4604
3699.487	4549
3701.148	4499
3702.808	4551
3704.466	4677
3706.125	4607
3707.783	4544
3709.442	4550
3711.099	4530
3712.757	4494
3714.412	4589
3716.068	4547
3717.725	4546
3719.381	4535
3721.036	4424
3722.689	4510
3724.344	4598
3725.998	4558
3727.652	4486
3729.305	4615
3730.958	4533
3732.61	4641
3734.262	4534
3735.915	4514
3737.565	4511
3739.217	4547
3740.866	4484
3742.516	4572
3744.165	4483
3745.816	4545
3747.464	4410
3749.113	4468
3750.761	4433
3752.409	4397
3754.057	4508
3755.703	4510
3757.35	4404
3758.996	4474
3760.641	4435
3762.289	4490
3763.933	4512
3765.577	4489
3767.222	4430
3768.865	4514
3770.508	4366
3772.152	4424
3773.796	4425
3775.438	4460
3777.079	4382
3778.721	4372
3780.363	4472
3782.003	4433
3783.643	4351
3785.283	4296
3786.923	4342
3788.563	4314
3790.203	4358
3791.841	4346
3793.479	4394
3795.115	4384
3796.753	4433
3798.391	4349
3800.027	4357
3801.664	4346
3803.299	4339
3804.935	4394
3806.571	4390
3808.206	4329
3809.839	4391
3811.473	4309
3813.107	4357
3814.74	4309
3816.375	4349
3818.006	4349
3819.638	4285
3821.27	4289
3822.9	4253
3824.532	4241
3826.163	4292
3827.792	4281
3829.423	4267
3831.051	4305
3832.682	4227
3834.311	4304
3835.938	4353
3837.566	4315
3839.193	4360
3840.821	4190
3842.448	4305
3844.075	4229
3845.7	4350
3847.325	4233
3848.951	4194
3850.576	4209
3852.201	4282
3853.825	4182
3855.448	4194
3857.072	4240
3858.694	4253
3860.318	4238
3861.939	4252
3863.562	4227
3865.183	4222
3866.804	4104
3868.426	4295
3870.045	4222
3871.666	4121
3873.285	4224
3874.904	4221
3876.524	4197
3878.142	4156
3879.76	4153
3881.378	4206
3882.995	4160
3884.612	4176
3886.229	4233
3887.845	4101
3889.461	4124
3891.076	4178
3892.691	4170
3894.307	4165
3895.922	4120
3897.536	4076
3899.149	4206
3900.761	4185
3902.374	4070
3903.988	4094
3905.6	4099
3907.212	4160
3908.822	4182
3910.433	4203
3912.045	4204
3913.655	4170
3915.265	4154
3916.875	4121
3918.483	4153
3920.093	4147
3921.702	4128
3923.309	4123
3924.917	4008
3926.523	4065
3928.13	4080
3929.739	4122
3931.344	4125
3932.95	4117
3934.555	4122
3936.159	4122
3937.766	4118
3939.369	4098
3940.974	4066
3942.577	4131
3944.181	4071
3945.783	3980
3947.386	4071
3948.989	4059
3950.59	4060
3952.191	4138
3953.791	3954
3955.394	4082
3956.994	3980
3958.593	4047
3960.192	3971
3961.791	3976
3963.392	4069
3964.99	4050
3966.588	4028
3968.185	3990
3969.782	4098
3971.379	3986
3972.976	4012
3974.572	3985
3976.168	4045
3977.763	3964
3979.358	3988
3980.954	4018
3982.548	4111
3984.142	3999
3985.736	4087
3987.329	3991
3988.922	4021
3990.516	3952
3992.108	3981
3993.698	3977
3995.29	3967
3996.881	3890
3998.473	3964
4000.064	3924
4001.653	3992
4003.242	3957
4004.832	3931
4006.422	3889
4008.01	3851
4009.598	3880
4011.186	3869
4012.773	3916
4014.36	3849
4015.947	3919
4017.534	3955
4019.119	3909
4020.705	3834
4022.291	3888
4023.876	3842
4025.461	3832
4027.044	3879
4028.627	3802
4030.211	3855
4031.795	3816
4033.378	3826
4034.96	3863
4036.542	3861
4038.124	3804
4039.704	3827
4041.286	3817
4042.867	3854
4044.447	3795
4046.026	3791
4047.606	3815
4049.187	3833
4050.765	3821
4052.343	3838
4053.92	3805
4055.498	3741
4057.076	3749
4058.654	3742
4060.23	3767
4061.806	3783
4063.381	3803
4064.957	3773
4066.533	3674
4068.107	3766
4069.682	3786
4071.256	3798
4072.829	3784
4074.404	3706
4075.977	3733
4077.549	3714
4079.121	3770
4080.693	3726
4082.265	3755
4083.836	3705
4085.407	3717
4086.977	3696
4088.547	3773
4090.117	3809
4091.687	3665
4093.256	3662
4094.825	3738
4096.392	3741
4097.96	3700
4099.528	3670
4101.097	3749
4102.663	3680
4104.229	3755
4105.795	3799
4107.361	3726
4108.928	3677
4110.493	3652
4112.058	3760
4113.621	3599
4115.186	3696
4116.75	3662
4118.313	3615
4119.876	3712
4121.438	3631
4123	3685
4124.562	3582
4126.125	3603
4127.686	3612
4129.246	3578
4130.807	3620
4132.367	3464
4133.927	3665
4135.486	3569
4137.046	3617
4138.604	3673
4140.162	3535
4141.72	3569
4143.279	3591
4144.836	3529
4146.393	3553
4147.949	3561
4149.505	3512
4151.062	3552
4152.617	3521
4154.172	3548
4155.727	3520
4157.281	3563
4158.836	3615
4160.39	3544
4161.943	3563
4163.496	3510
4165.048	3528
4166.601	3526
4168.154	3524
4169.706	3498
4171.257	3516
4172.808	3420
4174.358	3439
4175.909	3539
4177.458	3426
4179.008	3436
4180.558	3522
4182.106	3517
4183.655	3522
4185.204	3435
4186.751	3463
4188.298	3440
4189.845	3444
4191.392	3534
4192.939	3442
4194.485	3439
4196.031	3437
4197.576	3406
4199.121	3466
4200.666	3490
4202.211	3398
4203.754	3439
4205.298	3473
4206.84	3467
4208.384	3459
4209.927	3454
4211.47	3346
4213.011	3428
4214.552	3473
4216.094	3316
4217.635	3403
4219.175	3477
4220.716	3421
4222.255	3389
4223.793	3411
4225.335	3380
4226.873	3409
4228.411	3427
4229.948	3346
4231.486	3369
4233.024	3441
4234.562	3387
4236.098	3324
4237.634	3341
4239.169	3286
4240.705	3391
4242.241	3346
4243.776	3363
4245.31	3410
4246.844	3305
4248.378	3410
4249.911	3291
4251.445	3372
4252.978	3313
4254.51	3385
4256.042	3304
4257.574	3381
4259.107	3386
4260.638	3434
4262.169	3330
4263.699	3378
4265.228	3360
4266.759	3384
4268.289	3367
4269.818	3355
4271.345	3329
4272.874	3301
4274.402	3316
4275.931	3280
4277.458	3297
4278.985	3325
4280.512	3288
4282.037	3308
4283.564	3308
4285.089	3317
4286.615	3303
4288.139	3279
4289.664	3298
4291.187	3230
4292.712	3352
4294.235	3243
4295.759	3245
4297.281	3281
4298.804	3287
4300.327	3282
4301.849	3271
4303.37	3270
4304.891	3287
4306.412	3246
4307.933	3297
4309.453	3183
4310.973	3172
4312.492	3242
