398.1873	5095
400.7097	5087
403.2336	5116
405.7547	5035
408.2751	5068
410.7948	5147
413.3138	5127
415.83	5234
418.3497	5311
420.8666	5324
423.3829	5357
425.8985	5312
428.4133	5333
430.9275	5347
433.441	5409
435.9538	5449
438.4639	5330
440.9753	5446
443.4881	5486
445.9982	5535
448.5055	5341
451.0142	5331
453.5201	5509
456.0274	5412
458.5361	5365
461.04	5375
463.5453	5333
466.0478	5392
468.5517	5405
471.0549	5560
473.5574	5439
476.0572	5479
478.5584	5517
481.0568	5541
483.5545	5515
486.0557	5554
488.5521	5633
491.0478	5709
493.5449	5530
496.0392	5537
498.5349	5646
501.0299	5583
503.5222	5615
506.0139	5539
508.5048	5618
510.9991	5553
513.4887	5727
515.9777	5655
518.4659	5646
520.9534	5712
523.4403	5731
525.9306	5605
528.4161	5509
530.9009	5708
533.3851	5660
535.8687	5663
538.3535	5591
540.8356	5525
543.3171	5660
545.7979	5690
548.278	5755
550.7595	5717
553.2383	5695
555.7144	5706
558.1918	5729
560.6685	5688
563.1446	5687
565.6221	5755
568.0968	5850
570.5688	5707
573.0422	5866
575.515	5794
577.989	5925
580.4584	6001
582.9291	5872
585.3991	5823
587.8685	5932
590.3352	5876
592.8052	5937
595.2706	5896
597.7372	5898
600.2033	5897
602.6666	5891
605.1334	5905
607.5953	5843
610.0587	5863
612.5193	5788
614.9814	5833
617.4427	5915
619.9034	5855
622.3615	5825
624.8208	5916
627.2775	5874
629.7335	5820
632.1929	5761
634.6476	5922
637.1016	5931
639.5569	5847
642.0096	5808
644.4637	5950
646.9151	5911
649.3678	5925
651.8179	5910
654.2672	5906
656.7159	5950
659.166	5943
661.6154	5993
664.0622	5871
666.5082	5976
668.9537	6015
671.4005	5948
673.8445	5997
676.288	6108
678.7308	6147
681.1729	6034
683.6163	6019
686.0572	6179
688.4973	5915
690.9368	6147
693.3757	6066
695.8138	6182
698.2534	6151
700.6902	6068
703.1245	6091
705.56	6156
707.9949	6107
710.4311	6105
712.8647	6140
715.2957	6126
717.7279	6083
720.1595	6072
722.5905	6144
725.0208	6254
727.4505	6214
729.8795	6205
732.3058	6232
734.7336	6120
737.1626	6328
739.587	6256
742.0128	6183
744.4359	6368
746.8604	6318
749.2841	6430
751.7073	6393
754.1278	6441
756.5496	6479
758.9688	6400
761.3893	6476
763.8093	6456
766.2285	6461
768.6451	6611
771.0611	6552
773.4784	6457
775.895	6558
778.3091	6498
780.7244	6607
783.1371	6413
785.5493	6469
787.9626	6476
790.3754	6651
792.7856	6507
795.1951	6413
797.6039	6466
800.0121	6507
802.4236	6548
804.8306	6542
807.2369	6484
809.6425	6492
812.0475	6618
814.4538	6477
816.8575	6575
819.2606	6702
821.663	6588
824.0648	6623
826.4659	6595
828.8683	6537
831.2682	6563
833.6674	6693
836.066	6579
838.4639	6707
840.8632	6565
843.2579	6635
845.6539	6627
848.0493	6792
850.444	6795
852.84	6706
855.2315	6681
857.6243	6700
860.0165	6732
862.4081	6718
864.797	6632
867.1892	6682
869.5789	6760
871.9659	6740
874.3542	6741
876.74	6652
879.129	6656
881.5155	6737
883.8994	6802
886.2845	6608
888.6671	6753
891.051	6743
893.4343	6594
895.8169	6797
898.197	6572
900.5783	6533
902.9571	6782
905.3372	6657
907.7167	6678
910.0936	6683
912.4698	6784
914.8474	6962
917.2244	6891
919.5987	6938
921.9744	6883
924.3475	6977
926.72	6939
929.0918	6929
931.4669	6975
933.8375	7000
936.2074	6966
938.5767	7014
940.9454	7045
943.3154	7157
945.6829	7075
948.0497	7422
950.4178	7479
952.7833	7704
955.1483	7927
957.5145	8181
959.8782	8280
962.2412	8323
964.6036	8044
966.9655	7843
969.3266	7646
971.6871	7497
974.0471	7300
976.4064	7097
978.765	7052
981.125	7022
983.4824	6867
985.8373	6984
988.1935	6858
990.549	6866
992.9039	6865
995.2602	7010
997.6119	6885
999.965	6837
1002.317	6995
1004.667	6888
1007.02	6918
1009.371	6907
1011.719	6962
1014.068	6831
1016.415	6961
1018.765	6825
1021.111	6981
1023.458	6877
1025.804	7013
1028.147	7139
1030.49	7057
1032.837	6988
1035.179	6957
1037.522	7175
1039.862	6910
1042.204	7050
1044.546	6966
1046.884	7099
1049.224	7046
1051.562	7039
1053.899	6941
1056.237	7017
1058.575	7096
1060.91	7121
1063.244	7156
1065.58	7154
1067.913	7101
1070.248	7139
1072.579	7159
1074.911	7193
1077.242	7252
1079.572	7155
1081.905	7052
1084.234	7067
1086.562	7077
1088.89	7128
1091.217	7057
1093.544	7133
1095.871	7146
1098.197	7150
1100.521	7100
1102.845	7005
1105.169	7147
1107.491	7161
1109.814	7264
1112.135	6994
1114.456	6946
1116.776	6951
1119.096	7175
1121.415	7107
1123.734	7028
1126.052	7171
1128.369	7013
1130.686	7098
1133.002	7126
1135.318	7178
1137.632	7097
1139.945	7109
1142.258	7038
1144.573	7208
1146.884	7163
1149.196	7142
1151.505	7082
1153.816	7201
1156.124	7286
1158.435	7259
1160.742	7220
1163.051	7106
1165.356	7068
1167.663	7145
1169.97	7147
1172.276	7102
1174.579	7192
1176.881	7186
1179.186	6952
1181.487	7213
1183.79	7134
1186.092	7134
1188.392	7183
1190.691	7112
1192.991	7038
1195.291	7134
1197.588	7199
1199.885	7091
1202.181	7182
1204.479	7125
1206.775	7255
1209.07	7038
1211.363	7129
1213.656	7042
1215.949	7286
1218.241	7159
1220.534	7165
1222.825	7219
1225.115	7320
1227.405	7314
1229.693	7127
1231.984	7312
1234.271	7314
1236.558	7323
1238.845	7401
1241.131	7422
1243.416	7404
1245.703	7338
1247.987	7478
1250.269	7477
1252.552	7304
1254.834	7363
1257.118	7306
1259.399	7368
1261.678	7320
1263.958	7301
1266.237	7345
1268.516	7450
1270.794	7379
1273.072	7316
1275.347	7431
1277.624	7439
1279.899	7336
1282.175	7393
1284.449	7327
1286.722	7412
1288.995	7209
1291.266	7349
1293.54	7403
1295.81	7333
1298.081	7332
1300.35	7202
1302.62	7269
1304.889	7318
1307.156	7255
1309.425	7239
1311.69	7313
1313.957	7333
1316.222	7296
1318.488	7264
1320.751	7334
1323.016	7195
1325.278	7151
1327.54	7270
1329.803	7284
1332.065	7292
1334.325	7255
1336.584	7288
1338.843	7379
1341.101	7333
1343.36	7272
1345.617	7241
1347.876	7188
1350.131	7354
1352.387	7391
1354.643	7282
1356.897	7333
1359.151	7356
1361.403	7330
1363.656	7324
1365.909	7385
1368.16	7452
1370.409	7390
1372.659	7349
1374.909	7429
1377.157	7371
1379.407	7270
1381.655	7395
1383.9	7382
1386.147	7290
1388.393	7410
1390.64	7445
1392.885	7555
1395.127	7316
1397.37	7457
1399.614	7481
1401.854	7513
1404.098	7344
1406.339	7478
1408.578	7419
1410.818	7325
1413.056	7626
1415.297	7554
1417.533	7482
1419.771	7548
1422.006	7584
1424.243	7449
1426.479	7455
1428.715	7508
1430.948	7546
1433.182	7533
1435.414	7503
1437.647	7704
1439.88	7566
1442.11	7564
1444.342	7698
1446.571	7600
1448.799	7652
1451.029	7726
1453.258	7692
1455.485	7704
1457.711	7579
1459.937	7555
1462.164	7644
1464.39	7520
1466.614	7566
1468.838	7594
1471.06	7453
1473.283	7431
1475.506	7582
1477.727	7651
1479.949	7541
1482.169	7343
1484.389	7406
1486.609	7440
1488.828	7457
1491.045	7348
1493.261	7437
1495.477	7444
1497.693	7455
1499.91	7514
1502.125	7467
1504.339	7327
1506.553	7368
1508.766	7366
1510.979	7380
1513.191	7469
1515.402	7405
1517.613	7308
1519.823	7432
1522.033	7538
1524.242	7401
1526.451	7595
1528.657	7297
1530.865	7398
1533.072	7278
1535.278	7360
1537.484	7387
1539.687	7434
1541.892	7450
1544.096	7447
1546.299	7410
1548.502	7463
1550.703	7396
1552.905	7472
1555.104	7469
1557.303	7547
1559.505	7487
1561.703	7397
1563.902	7341
1566.099	7489
1568.295	7525
1570.494	7553
1572.689	7550
1574.883	7729
1577.079	7550
1579.272	7579
1581.467	7469
1583.659	7686
1585.853	7487
1588.044	7505
1590.234	7664
1592.424	7599
1594.615	7626
1596.806	7619
1598.994	7616
1601.182	7636
1603.369	7671
1605.557	7573
1607.744	7588
1609.929	7651
1612.114	7594
1614.298	7751
1616.482	7526
1618.667	7561
1620.85	7708
1623.032	7694
1625.214	7703
1627.395	7667
1629.575	7740
1631.755	7694
1633.935	7686
1636.114	7604
1638.292	7798
1640.471	7667
1642.647	7748
1644.823	7659
1647	7740
1649.175	7878
1651.348	7730
1653.525	7729
1655.698	7697
1657.87	7669
1660.043	7711
1662.213	7884
1664.387	7721
1666.558	7784
1668.727	7743
1670.896	7795
1673.064	7773
1675.233	7797
1677.401	7848
1679.569	7708
1681.735	7772
1683.902	7769
1686.066	7866
1688.233	7688
1690.397	7734
1692.559	7785
1694.723	7807
1696.885	7668
1699.048	7736
1701.21	7822
1703.37	7631
1705.53	7651
1707.689	7694
1709.849	7675
1712.009	7637
1714.166	7591
1716.323	7598
1718.479	7618
1720.634	7618
1722.793	7553
1724.948	7601
1727.102	7633
1729.255	7748
1731.408	7529
1733.562	7723
1735.714	7678
1737.865	7643
1740.016	7670
1742.166	7679
1744.316	7756
1746.467	7570
1748.616	7656
1750.764	7620
1752.911	7674
1755.056	7696
1757.205	7611
1759.35	7700
1761.496	7548
1763.641	7773
1765.785	7761
1767.927	7665
1770.072	7728
1772.214	7645
1774.355	7828
1776.496	7699
1778.637	7710
1780.778	7783
1782.918	7627
1785.057	7674
1787.194	7850
1789.333	7750
1791.472	7795
1793.608	7741
1795.745	7705
1797.879	7736
1800.015	7760
1802.148	7753
1804.284	7895
1806.417	7795
1808.548	7773
1810.682	7622
1812.812	7748
1814.946	7750
1817.075	7750
1819.205	7654
1821.335	7745
1823.463	7741
1825.59	7722
1827.721	7592
1829.847	7666
1831.973	7738
1834.098	7609
1836.223	7688
1838.351	7753
1840.475	7727
1842.598	7683
1844.721	7746
1846.843	7645
1848.966	7619
1851.087	7694
1853.21	7626
1855.33	7613
1857.449	7649
1859.568	7658
1861.688	7582
1863.806	7749
1865.924	7730
1868.039	7692
1870.155	7637
1872.273	7715
1874.388	7664
1876.503	7643
1878.617	7619
1880.73	7733
1882.844	7621
1884.956	7613
1887.068	7733
1889.18	7782
1891.291	7717
1893.4	7631
1895.511	7652
1897.621	7640
1899.73	7680
1901.837	7680
1903.944	7731
1906.053	7766
1908.159	7608
1910.265	7794
1912.369	7626
1914.474	7772
1916.577	7776
1918.683	7820
1920.785	7856
1922.888	7876
1924.989	7751
1927.091	7825
1929.193	7744
1931.294	7858
1933.393	7905
1935.493	7922
1937.59	7792
1939.689	7855
1941.788	7789
1943.884	7632
1945.98	7730
1948.077	7877
1950.171	7904
1952.267	7663
1954.361	7755
1956.455	7815
1958.548	7893
1960.64	7745
1962.733	7835
1964.824	7710
1966.915	7849
1969.005	7776
1971.096	7761
1973.185	7788
1975.275	7651
1977.363	7890
1979.45	7790
1981.537	7681
1983.623	7744
1985.711	7816
1987.796	7757
1989.881	7817
1991.965	7740
1994.047	7723
1996.132	7610
1998.215	7734
2000.297	7750
2002.378	7693
2004.46	7716
2006.54	7743
2008.62	7819
2010.7	7619
2012.779	7622
2014.858	7709
2016.934	7734
2019.013	7634
2021.09	7734
2023.165	7706
2025.241	7777
2027.317	7753
2029.39	7767
2031.466	7773
2033.538	7617
2035.612	7670
2037.683	7720
2039.755	7629
2041.827	7744
2043.898	7721
2045.968	7663
2048.038	7743
2050.106	7693
2052.177	7856
2054.244	7696
2056.313	7725
2058.379	7708
2060.444	7777
2062.511	7703
2064.577	7730
2066.641	7833
2068.705	7735
2070.77	7731
2072.832	7664
2074.896	7777
2076.958	7684
2079.02	7782
2081.081	7719
2083.141	7738
2085.2	7853
2087.261	7717
2089.319	7666
2091.377	7655
2093.435	7681
2095.492	7623
2097.552	7871
2099.607	7800
2101.663	7724
2103.718	7789
2105.771	7731
2107.826	7709
2109.879	7624
2111.932	7684
2113.985	7871
2116.037	7619
2118.088	7788
2120.141	7679
2122.191	7752
2124.239	7733
2126.288	7759
2128.337	7659
2130.387	7789
2132.434	7742
2134.481	7768
2136.528	7783
2138.574	7705
2140.618	7723
2142.665	7698
2144.71	7678
2146.753	7744
2148.797	7723
2150.838	7680
2152.883	7581
2154.923	7764
2156.965	7720
2159.007	7755
2161.046	7614
2163.086	7756
2165.126	7688
2167.163	7625
2169.202	7668
2171.239	7634
2173.277	7536
2175.314	7712
2177.349	7661
2179.385	7729
2181.42	7738
2183.453	7611
2185.49	7540
2187.522	7681
2189.555	7546
2191.586	7640
2193.619	7581
2195.651	7555
2197.682	7534
2199.711	7571
2201.74	7614
2203.769	7607
2205.799	7474
2207.828	7541
2209.855	7567
2211.882	7536
2213.908	7532
2215.934	7571
2217.961	7534
2219.986	7461
2222.01	7435
2224.034	7626
2226.057	7618
2228.08	7547
2230.104	7510
2232.124	7684
2234.145	7500
2236.166	7473
2238.186	7445
2240.207	7456
2242.227	7646
2244.244	7454
2246.262	7456
2248.28	7634
2250.299	7456
2252.314	7589
2254.33	7530
2256.346	7485
2258.36	7607
2260.375	7643
2262.391	7449
2264.403	7559
2266.416	7613
2268.427	7554
2270.44	7697
2272.453	7555
2274.463	7517
2276.474	7575
2278.483	7625
2280.493	7429
2282.501	7534
2284.51	7529
2286.518	7570
2288.524	7501
2290.532	7543
2292.537	7507
2294.544	7457
2296.55	7698
2298.554	7535
2300.557	7498
2302.562	7518
2304.566	7592
2306.568	7595
2308.569	7504
2310.572	7498
2312.573	7542
2314.573	7450
2316.574	7428
2318.573	7396
2320.571	7447
2322.571	7447
2324.569	7347
2326.567	7496
2328.564	7385
2330.56	7478
2332.556	7464
2334.551	7442
2336.546	7298
2338.542	7460
2340.535	7501
2342.529	7373
2344.521	7458
2346.512	7317
2348.505	7317
2350.497	7467
2352.487	7324
2354.478	7303
2356.468	7488
2358.457	7314
2360.446	7294
2362.434	7318
2364.422	7352
2366.408	7455
2368.395	7323
2370.383	7347
2372.369	7309
2374.353	7415
2376.338	7507
2378.321	7323
2380.307	7311
2382.29	7318
2384.272	7322
2386.254	7321
2388.235	7306
2390.218	7476
2392.198	7308
2394.179	7342
2396.157	7265
2398.137	7325
2400.115	7355
2402.095	7309
2404.072	7303
2406.048	7310
2408.026	7225
2410.001	7213
2411.977	7318
2413.953	7340
2415.927	7329
2417.9	7228
2419.875	7252
2421.847	7316
2423.821	7251
2425.792	7362
2427.763	7306
2429.736	7251
2431.706	7359
2433.677	7305
2435.646	7316
2437.615	7237
2439.583	7289
2441.551	7436
2443.519	7229
2445.486	7213
2447.452	7260
2449.418	7098
2451.383	7237
2453.348	7280
2455.314	7331
2457.278	7220
2459.241	7183
2461.205	7270
2463.167	7270
2465.131	7314
2467.091	7230
2469.052	7196
2471.012	7262
2472.972	7286
2474.932	7196
2476.891	7211
2478.85	7187
2480.808	7155
2482.766	7198
2484.722	7190
2486.68	7218
2488.636	7255
2490.591	7044
2492.546	7149
2494.5	7142
2496.456	7156
2498.41	7243
2500.362	7123
2502.315	7147
2504.266	7229
2506.218	7253
2508.169	7074
2510.121	7103
2512.07	7102
2514.019	7127
2515.968	7155
2517.918	7118
2519.866	7138
2521.813	7183
2523.76	7157
2525.707	7109
2527.653	7116
2529.599	7028
2531.543	7073
2533.489	7141
2535.433	7071
2537.376	7095
2539.32	7055
2541.264	7042
2543.205	7109
2545.147	7099
2547.087	7217
2549.029	7194
2550.969	7103
2552.908	7169
2554.847	7091
2556.786	7148
2558.724	7148
2560.663	7163
2562.6	7154
2564.537	7097
2566.473	7192
2568.408	7073
2570.345	7182
2572.28	7137
2574.214	7014
2576.148	7087
2578.081	7084
2580.014	7147
2581.947	7137
2583.879	7095
2585.81	7040
2587.741	7243
2589.67	7211
2591.602	7106
2593.532	7251
2595.461	7036
2597.388	7124
2599.316	7215
2601.244	7185
2603.172	7119
2605.098	7154
2607.023	7169
2608.949	7055
2610.873	7169
2612.8	7121
2614.723	7154
2616.647	7097
2618.569	7180
2620.493	7129
2622.416	7113
2624.338	7014
2626.258	7028
2628.179	7122
2630.099	7241
2632.019	7096
2633.939	7167
2635.857	7085
2637.775	7031
2639.694	7253
2641.61	7250
2643.528	7119
2645.444	7134
2647.361	7169
2649.276	7114
2651.19	7054
2653.105	7130
2655.019	7145
2656.934	7273
2658.846	7126
2660.758	7158
2662.67	7207
2664.583	7097
2666.493	7104
2668.404	7033
2670.313	7034
2672.223	7227
2674.134	7100
2676.042	7084
2677.95	7094
2679.858	7159
2681.765	7121
2683.673	7111
2685.579	7009
2687.483	7107
2689.389	7028
2691.294	7154
2693.198	7022
2695.104	7060
2697.006	7002
2698.909	7068
2700.811	7076
2702.713	7182
2704.615	6984
2706.516	7062
2708.417	6978
2710.316	7064
2712.216	6970
2714.115	7019
2716.014	7065
2717.913	6915
2719.81	7075
2721.707	7015
2723.603	6938
2725.501	7061
2727.396	7031
2729.292	7019
2731.186	7086
2733.081	7151
2734.976	6888
2736.87	6965
2738.762	7017
2740.653	6957
2742.546	6999
2744.437	7023
2746.329	7086
2748.22	6985
2750.11	6978
2751.999	6911
2753.889	6966
2755.778	6905
2757.666	7046
2759.553	6986
2761.44	6992
2763.328	6996
2765.215	6860
2767.101	6969
2768.986	6882
2770.87	7009
2772.754	6805
2774.638	6965
2776.523	6865
2778.405	6959
2780.288	6932
2782.17	6882
2784.051	6834
2785.934	6993
2787.814	7009
2789.694	6974
2791.574	6860
2793.453	7022
2795.332	6867
2797.212	6859
2799.088	6878
2800.966	6970
2802.843	6894
2804.719	6835
2806.597	6935
2808.471	6862
2810.346	6925
2812.221	6840
2814.094	6951
2815.969	6791
2817.843	6803
2819.714	6813
2821.587	6887
2823.459	7007
2825.329	6888
2827.202	6914
2829.072	6833
2830.942	6907
2832.811	6825
2834.68	7047
2836.549	6859
2838.418	6782
2840.284	6925
2842.152	6797
2844.018	6795
2845.885	6916
2847.751	6886
2849.616	6905
2851.482	6895
2853.345	6869
2855.208	6826
2857.074	6867
2858.937	6933
2860.799	6942
2862.66	6976
2864.522	6911
2866.385	6958
2868.245	6949
2870.104	7121
2871.964	7012
2873.824	7068
2875.683	7123
2877.542	7216
2879.4	7241
2881.257	7076
2883.114	7273
2884.97	7217
2886.827	7203
2888.683	7280
2890.537	7316
2892.392	7076
2894.246	7200
2896.1	7254
2897.954	7213
2899.807	7046
2901.66	7108
2903.51	7055
2905.362	7149
2907.214	7237
2909.065	7263
2910.915	7336
2912.765	7196
2914.613	7208
2916.463	7380
2918.311	7375
2920.158	7289
2922.006	7461
2923.853	7447
2925.698	7535
2927.546	7494
2929.392	7573
2931.236	7638
2933.081	7578
2934.924	7727
2936.77	7809
2938.613	7636
2940.455	7753
2942.298	7775
2944.139	7835
2945.982	7793
2947.823	7722
2949.662	7810
2951.503	7714
2953.342	7625
2955.182	7677
2957.021	7644
2958.858	7539
2960.697	7394
2962.534	7535
2964.37	7370
2966.207	7455
2968.044	7422
2969.879	7367
2971.714	7315
2973.548	7290
2975.383	7296
2977.218	7192
2979.051	7277
2980.883	7197
2982.715	7147
2984.547	7074
2986.379	7151
2988.21	7066
2990.04	7005
2991.87	7030
2993.7	6984
2995.53	7113
2997.359	7019
2999.187	6998
3001.015	6905
3002.842	6953
3004.669	6797
3006.497	6874
3008.323	6842
3010.148	6687
3011.974	6812
3013.797	6730
3015.623	6664
3017.447	6724
3019.27	6754
3021.094	6753
3022.915	6595
3024.737	6525
3026.56	6666
3028.38	6575
3030.201	6550
3032.022	6607
3033.84	6502
3035.662	6502
3037.481	6561
3039.298	6485
3041.117	6491
3042.933	6534
3044.752	6432
3046.568	6468
3048.385	6522
3050.2	6576
3052.016	6424
3053.83	6463
3055.646	6492
3057.46	6556
3059.272	6491
3061.086	6403
3062.898	6415
3064.711	6424
3066.524	6391
3068.335	6406
3070.145	6516
3071.956	6382
3073.766	6477
3075.576	6505
3077.385	6332
3079.193	6365
3081.002	6379
3082.81	6364
3084.618	6380
3086.425	6526
3088.231	6445
3090.036	6388
3091.842	6470
3093.648	6351
3095.452	6298
3097.257	6241
3099.06	6319
3100.863	6197
3102.666	6365
3104.47	6460
3106.272	6333
3108.073	6360
3109.875	6228
3111.676	6215
3113.477	6269
3115.277	6189
3117.077	6288
3118.874	6260
3120.673	6276
3122.473	6169
3124.271	6194
3126.066	6140
3127.863	6152
3129.66	6219
3131.456	6228
3133.252	6216
3135.047	6150
3136.842	6212
3138.635	6325
3140.429	6169
3142.223	6227
3144.016	6229
3145.808	6014
3147.6	6172
3149.392	6052
3151.183	6219
3152.975	6120
3154.765	6136
3156.553	6115
3158.344	6024
3160.132	6125
3161.922	6055
3163.71	6082
3165.497	6109
3167.285	6176
3169.071	6042
3170.858	6083
3172.645	6048
3174.429	5997
3176.214	6138
3177.998	6115
3179.783	6107
3181.568	6128
3183.351	5993
3185.133	5984
3186.915	6131
3188.698	6081
3190.481	5950
3192.261	6044
3194.042	6107
3195.822	6122
3197.601	5989
3199.381	6106
3201.161	5977
3202.939	6137
3204.717	5980
3206.495	6068
3208.272	6127
3210.05	5955
3211.826	5961
3213.602	5977
3215.376	6064
3217.151	6054
3218.927	6014
3220.702	5995
3222.476	6008
3224.249	6104
3226.021	6072
3227.793	6106
3229.567	5918
3231.339	5908
3233.109	6088
3234.88	6073
3236.651	5954
3238.421	5989
3240.191	6138
3241.96	6157
3243.728	5991
3245.497	6113
3247.263	6003
3249.033	5983
3250.799	5922
3252.566	6002
3254.331	5945
3256.097	5918
3257.863	6094
3259.628	5988
3261.392	6147
3263.156	6000
3264.919	5988
3266.683	5974
3268.447	5941
3270.208	5866
3271.969	5963
3273.731	5969
3275.492	5988
3277.253	5825
3279.013	5888
3280.773	5909
3282.532	5908
3284.291	5870
3286.05	6008
3287.808	5945
3289.566	6024
3291.323	5929
3293.079	5955
3294.835	5965
3296.593	6079
3298.348	5916
3300.102	5873
3301.857	5917
3303.611	6081
3305.366	6025
3307.119	5899
3308.872	5886
3310.624	5935
3312.376	5839
3314.129	5907
3315.881	6032
3317.631	5982
3319.38	5967
3321.13	5862
3322.88	5876
3324.631	5941
3326.379	5933
3328.126	5924
3329.875	5967
3331.622	5938
3333.371	5900
3335.116	5875
3336.863	5947
3338.609	5976
3340.353	5849
3342.1	5877
3343.845	5838
3345.588	5931
3347.332	5747
3349.074	5859
3350.817	5861
3352.56	5918
3354.303	5873
3356.043	5888
3357.785	5779
3359.525	5875
3361.268	5864
3363.007	5874
3364.745	5788
3366.485	5918
3368.223	5776
3369.962	5882
3371.701	5808
3373.438	5841
3375.174	5876
3376.911	5739
3378.647	5760
3380.384	5890
3382.118	5675
3383.854	5725
3385.588	5710
3387.322	5822
3389.057	5746
3390.79	5798
3392.522	5838
3394.255	5782
3395.987	5611
3397.719	5708
3399.451	5772
3401.181	5761
3402.911	5831
3404.641	5772
3406.371	5655
3408.101	5610
3409.83	5731
3411.558	5605
3413.285	5776
3415.011	5775
3416.739	5805
3418.467	5706
3420.193	5662
3421.919	5621
3423.644	5770
3425.368	5632
3427.094	5679
3428.818	5650
3430.542	5634
3432.264	5686
3433.987	5627
3435.712	5625
3437.434	5628
3439.155	5594
3440.876	5682
3442.596	5663
3444.317	5571
3446.039	5612
3447.757	5582
3449.477	5627
3451.195	5599
3452.914	5555
3454.632	5669
3456.35	5531
3458.067	5484
3459.784	5562
3461.5	5528
3463.216	5574
3464.932	5550
3466.647	5508
3468.362	5497
3470.076	5486
3471.789	5502
3473.505	5574
3475.217	5551
3476.929	5437
3478.641	5455
3480.354	5421
3482.066	5472
3483.777	5461
3485.487	5520
3487.197	5394
3488.908	5481
3490.617	5446
3492.327	5450
3494.035	5491
3495.743	5413
3497.451	5472
3499.158	5326
3500.866	5503
3502.572	5308
3504.278	5416
3505.984	5433
3507.689	5346
3509.396	5472
3511.1	5371
3512.804	5345
3514.508	5483
3516.211	5386
3517.913	5435
3519.616	5289
3521.319	5353
3523.021	5289
3524.722	5241
3526.422	5307
3528.124	5317
3529.824	5402
3531.524	5335
3533.222	5404
3534.921	5260
3536.62	5309
3538.318	5337
3540.016	5312
3541.714	5343
3543.41	5290
3545.107	5171
3546.803	5304
3548.5	5225
3550.194	5357
3551.889	5322
3553.583	5330
3555.279	5257
3556.972	5244
3558.666	5228
3560.358	5315
3562.051	5229
3563.742	5255
3565.435	5317
3567.126	5214
3568.817	5265
3570.507	5222
3572.197	5233
3573.888	5145
3575.577	5142
3577.265	5098
3578.954	5283
3580.642	5179
3582.329	5206
3584.017	5209
3585.704	5180
3587.391	5101
3589.077	5170
3590.762	5098
3592.449	5146
3594.133	5156
3595.817	5092
3597.501	5069
3599.185	5066
3600.869	5035
3602.552	5077
3604.234	5050
3605.916	5096
3607.598	5054
3609.279	5099
3610.961	5138
3612.642	5112
3614.321	5046
3616	5104
3617.68	5068
3619.36	5093
3621.039	4997
3622.716	4985
3624.394	5101
3626.071	5045
3627.748	4949
3629.425	5076
3631.102	5108
3632.778	4919
3634.452	5005
3636.127	4961
3637.803	4952
3639.477	4976
3641.151	4908
3642.823	4935
3644.497	4951
3646.171	4963
3647.842	4876
3649.515	4962
3651.185	4842
3652.857	4928
3654.527	4991
3656.198	4882
3657.868	4883
3659.537	4851
3661.207	4920
3662.875	4913
3664.544	4927
3666.212	4940
3667.879	4930
3669.546	4856
3671.212	4917
3672.88	4853
3674.546	4814
3676.211	4832
3677.875	4887
3679.541	4815
3681.205	4901
3682.87	4893
3684.533	4917
3686.196	4814
3687.859	4903
3689.521	4773
3691.184	4836
3692.845	4854
3694.507	4757
3696.167	4773
3697.827	4806
3699.487	4697
3701.148	4776
3702.808	4916
3704.466	4830
3706.125	4713
3707.783	4750
3709.442	4836
3711.099	4833
3712.757	4773
3714.412	4823
3716.068	4692
3717.725	4862
3719.381	4706
3721.036	4728
3722.689	4768
3724.344	4726
3725.998	4671
3727.652	4752
3729.305	4786
3730.958	4700
3732.61	4787
3734.262	4751
3735.915	4680
3737.565	4723
3739.217	4765
3740.866	4626
3742.516	4683
3744.165	4740
3745.816	4794
3747.464	4653
3749.113	4606
3750.761	4673
3752.409	4624
3754.057	4632
3755.703	4582
3757.35	4709
3758.996	4644
3760.641	4683
3762.289	4637
3763.933	4636
3765.577	4583
3767.222	4775
3768.865	4589
3770.508	4620
3772.152	4591
3773.796	4710
3775.438	4673
3777.079	4619
3778.721	4649
3780.363	4565
3782.003	4627
3783.643	4610
3785.283	4665
3786.923	4608
3788.563	4609
3790.203	4533
3791.841	4587
3793.479	4530
3795.115	4512
3796.753	4585
3798.391	4592
3800.027	4518
3801.664	4544
3803.299	4491
3804.935	4517
3806.571	4599
3808.206	4494
3809.839	4558
3811.473	4540
3813.107	4563
3814.74	4414
3816.375	4512
3818.006	4563
3819.638	4394
3821.27	4581
3822.9	4453
3824.532	4496
3826.163	4606
3827.792	4495
3829.423	4497
3831.051	4444
3832.682	4453
3834.311	4465
3835.938	4539
3837.566	4401
3839.193	4441
3840.821	4448
3842.448	4521
3844.075	4494
3845.7	4477
3847.325	4421
3848.951	4416
3850.576	4374
3852.201	4394
3853.825	4435
3855.448	4417
3857.072	4583
3858.694	4448
3860.318	4404
3861.939	4504
3863.562	4307
3865.183	4454
3866.804	4347
3868.426	4425
3870.045	4348
3871.666	4349
3873.285	4347
3874.904	4458
3876.524	4369
3878.142	4285
3879.76	4380
3881.378	4370
3882.995	4328
3884.612	4432
3886.229	4380
3887.845	4404
3889.461	4278
3891.076	4404
3892.691	4352
3894.307	4344
3895.922	4406
3897.536	4409
3899.149	4354
3900.761	4308
3902.374	4353
3903.988	4355
3905.6	4377
3907.212	4391
3908.822	4330
3910.433	4407
3912.045	4443
3913.655	4262
3915.265	4293
3916.875	4291
3918.483	4295
3920.093	4291
3921.702	4276
3923.309	4236
3924.917	4251
3926.523	4338
3928.13	4370
3929.739	4252
3931.344	4255
3932.95	4300
3934.555	4276
3936.159	4233
3937.766	4190
3939.369	4364
3940.974	4240
3942.577	4221
3944.181	4215
3945.783	4251
3947.386	4228
3948.989	4223
3950.59	4249
3952.191	4234
3953.791	4207
3955.394	4166
3956.994	4242
3958.593	4211
3960.192	4215
3961.791	4370
3963.392	4202
3964.99	4168
3966.588	4216
3968.185	4154
3969.782	4255
3971.379	4270
3972.976	4124
3974.572	4223
3976.168	4182
3977.763	4208
3979.358	4110
3980.954	4128
3982.548	4194
3984.142	4201
3985.736	4218
3987.329	4123
3988.922	4114
3990.516	4124
3992.108	4094
3993.698	4160
3995.29	4133
3996.881	4101
3998.473	4076
4000.064	4055
4001.653	4152
4003.242	4087
4004.832	4144
4006.422	4131
4008.01	4084
4009.598	4140
4011.186	4066
4012.773	3998
4014.36	4044
4015.947	3999
4017.534	4073
4019.119	4103
4020.705	4009
4022.291	4018
4023.876	4049
4025.461	4083
4027.044	4035
4028.627	4017
4030.211	3979
4031.795	3998
4033.378	3977
4034.96	4010
4036.542	3922
4038.124	3999
4039.704	3892
4041.286	3951
4042.867	3992
4044.447	4013
4046.026	3978
4047.606	3921
4049.187	3926
4050.765	3878
4052.343	3907
4053.92	3880
4055.498	3879
4057.076	3916
4058.654	3975
4060.23	3954
4061.806	3985
4063.381	3860
4064.957	3989
4066.533	4041
4068.107	3858
4069.682	3950
4071.256	3873
4072.829	3911
4074.404	3954
4075.977	3907
4077.549	3835
4079.121	3897
4080.693	3825
4082.265	3835
4083.836	3937
4085.407	3863
4086.977	3832
4088.547	3800
4090.117	3842
4091.687	3847
4093.256	3761
4094.825	3838
4096.392	3793
4097.96	3870
4099.528	3777
4101.097	3796
4102.663	3758
4104.229	3750
4105.795	3941
4107.361	3864
4108.928	3857
4110.493	3773
4112.058	3812
4113.621	3814
4115.186	3765
4116.75	3847
4118.313	3820
4119.876	3841
4121.438	3789
4123	3769
4124.562	3771
4126.125	3773
4127.686	3803
4129.246	3837
4130.807	3779
4132.367	3700
4133.927	3757
4135.486	3687
4137.046	3750
4138.604	3787
4140.162	3728
4141.72	3699
4143.279	3695
4144.836	3716
4146.393	3770
4147.949	3635
4149.505	3661
4151.062	3807
4152.617	3672
4154.172	3737
4155.727	3760
4157.281	3678
4158.836	3652
4160.39	3703
4161.943	3728
4163.496	3605
4165.048	3627
4166.601	3701
4168.154	3639
4169.706	3664
4171.257	3643
4172.808	3675
4174.358	3617
4175.909	3657
4177.458	3624
4179.008	3675
4180.558	3584
4182.106	3684
4183.655	3587
4185.204	3669
4186.751	3586
4188.298	3617
4189.845	3555
4191.392	3570
4192.939	3519
4194.485	3549
4196.031	3476
4197.576	3554
4199.121	3585
4200.666	3571
4202.211	3521
4203.754	3596
4205.298	3497
4206.84	3502
4208.384	3506
4209.927	3606
4211.47	3459
4213.011	3529
4214.552	3578
4216.094	3599
4217.635	3525
4219.175	3465
4220.716	3512
4222.255	3583
4223.793	3451
4225.335	3497
4226.873	3504
4228.411	3511
4229.948	3529
4231.486	3483
4233.024	3468
4234.562	3524
4236.098	3491
4237.634	3496
4239.169	3480
4240.705	3534
4242.241	3431
4243.776	3516
4245.31	3464
4246.844	3520
4248.378	3395
4249.911	3549
4251.445	3482
4252.978	3487
4254.51	3464
4256.042	3462
4257.574	3511
4259.107	3489
4260.638	3452
4262.169	3488
4263.699	3400
4265.228	3381
4266.759	3420
4268.289	3398
4269.818	3502
4271.345	3441
4272.874	3440
4274.402	3466
4275.931	3494
4277.458	3415
4278.985	3408
4280.512	3382
4282.037	3403
4283.564	3420
4285.089	3373
4286.615	3399
4288.139	3436
4289.664	3357
4291.187	3357
4292.712	3364
4294.235	3370
4295.759	3397
4297.281	3363
4298.804	3400
4300.327	3469
4301.849	3312
4303.37	3477
4304.891	3328
4306.412	3386
4307.933	3342
4309.453	3352
4310.973	3292
4312.492	3375
