398.1873	2983
400.7097	3004
403.2336	2937
405.7547	3006
408.2751	3015
410.7948	2996
413.3138	3135
415.83	3059
418.3497	3056
420.8666	3074
423.3829	3082
425.8985	3065
428.4133	3159
430.9275	3217
433.441	3124
435.9538	3188
438.4639	3137
440.9753	3214
443.4881	3219
445.9982	3096
448.5055	3113
451.0142	3069
453.5201	3086
456.0274	3215
458.5361	3148
461.04	3188
463.5453	3170
466.0478	3078
468.5517	3160
471.0549	3174
473.5574	3187
476.0572	3123
478.5584	3140
481.0568	3143
483.5545	3242
486.0557	3143
488.5521	3248
491.0478	3234
493.5449	3179
496.0392	3262
498.5349	3227
501.0299	3242
503.5222	3276
506.0139	3325
508.5048	3262
510.9991	3266
513.4887	3163
515.9777	3273
518.4659	3241
520.9534	3283
523.4403	3315
525.9306	3295
528.4161	3231
530.9009	3291
533.3851	3215
535.8687	3275
538.3535	3323
540.8356	3230
543.3171	3267
545.7979	3257
548.278	3279
550.7595	3260
553.2383	3291
555.7144	3220
558.1918	3264
560.6685	3245
563.1446	3282
565.6221	3303
568.0968	3360
570.5688	3329
573.0422	3299
575.515	3425
577.989	3424
580.4584	3364
582.9291	3378
585.3991	3396
587.8685	3465
590.3352	3478
592.8052	3367
595.2706	3393
597.7372	3374
600.2033	3305
602.6666	3355
605.1334	3287
607.5953	3418
610.0587	3390
612.5193	3330
614.9814	3392
617.4427	3280
619.9034	3391
622.3615	3368
624.8208	3467
627.2775	3331
629.7335	3271
632.1929	3385
634.6476	3326
637.1016	3364
639.5569	3317
642.0096	3413
644.4637	3384
646.9151	3396
649.3678	3414
651.8179	3428
654.2672	3414
656.7159	3381
659.166	3475
661.6154	3397
664.0622	3471
666.5082	3405
668.9537	3446
671.4005	3507
673.8445	3426
676.288	3441
678.7308	3481
681.1729	3451
683.6163	3425
686.0572	3399
688.4973	3436
690.9368	3447
693.3757	3451
695.8138	3494
698.2534	3515
700.6902	3443
703.1245	3511
705.56	3510
707.9949	3596
710.4311	3568
712.8647	3536
715.2957	3475
717.7279	3483
720.1595	3584
722.5905	3584
725.0208	3486
727.4505	3603
729.8795	3476
732.3058	3584
734.7336	3478
737.1626	3591
739.587	3556
742.0128	3635
744.4359	3686
746.8604	3604
749.2841	3644
751.7073	3711
754.1278	3719
756.5496	3633
758.9688	3679
761.3893	3635
763.8093	3756
766.2285	3745
768.6451	3647
771.0611	3703
773.4784	3662
775.895	3607
778.3091	3649
780.7244	3713
783.1371	3733
785.5493	3656
787.9626	3720
790.3754	3765
792.7856	3753
795.1951	3672
797.6039	3704
800.0121	3720
802.4236	3821
804.8306	3775
807.2369	3670
809.6425	3777
812.0475	3768
814.4538	3762
816.8575	3770
819.2606	3742
821.663	3737
824.0648	3719
826.4659	3743
828.8683	3750
831.2682	3732
833.6674	3752
836.066	3803
838.4639	3741
840.8632	3786
843.2579	3774
845.6539	3876
848.0493	3831
850.444	3796
852.84	3836
855.2315	3776
857.6243	3812
860.0165	3824
862.4081	3783
864.797	3765
867.1892	3852
869.5789	3812
871.9659	3782
874.3542	3846
876.74	3775
879.129	3777
881.5155	3876
883.8994	3829
886.2845	3819
888.6671	3803
891.051	3849
893.4343	3815
895.8169	3858
898.197	3812
900.5783	3794
902.9571	3797
905.3372	3887
907.7167	3857
910.0936	3856
912.4698	3868
914.8474	3943
917.2244	3880
919.5987	3964
921.9744	3925
924.3475	3955
926.72	3973
929.0918	3990
931.4669	3992
933.8375	4002
936.2074	4018
938.5767	4109
940.9454	4087
943.3154	4149
945.6829	4184
948.0497	4242
950.4178	4303
952.7833	4529
955.1483	4570
957.5145	4710
959.8782	4896
962.2412	4776
964.6036	4647
966.9655	4525
969.3266	4359
971.6871	4285
974.0471	4232
976.4064	4033
978.765	3998
981.125	3934
983.4824	3904
985.8373	3939
988.1935	3900
990.549	3927
992.9039	3941
995.2602	3984
997.6119	3880
999.965	3948
1002.317	3923
1004.667	3954
1007.02	3994
1009.371	3983
1011.719	3958
1014.068	4051
1016.415	3934
1018.765	4023
1021.111	4053
1023.458	4021
1025.804	4055
1028.147	4046
1030.49	4020
1032.837	4019
1035.179	4045
1037.522	4014
1039.862	4044
1042.204	4076
1044.546	4025
1046.884	4080
1049.224	4014
1051.562	3992
1053.899	4109
1056.237	3979
1058.575	4098
1060.91	3976
1063.244	4163
1065.58	4072
1067.913	4102
1070.248	4192
1072.579	4158
1074.911	4115
1077.242	4070
1079.572	4160
1081.905	4106
1084.234	4050
1086.562	3990
1088.89	4027
1091.217	3996
1093.544	4004
1095.871	4120
1098.197	4024
1100.521	4052
1102.845	4099
1105.169	4034
1107.491	4059
1109.814	4099
1112.135	4114
1114.456	4082
1116.776	4099
1119.096	3990
1121.415	3981
1123.734	4118
1126.052	4174
1128.369	3991
1130.686	4095
1133.002	4086
1135.318	4066
1137.632	4060
1139.945	4097
1142.258	4038
1144.573	4088
1146.884	4047
1149.196	4077
1151.505	4049
1153.816	4100
1156.124	4151
1158.435	4143
1160.742	4114
1163.051	3992
1165.356	4074
1167.663	4148
1169.97	4051
1172.276	3999
1174.579	4081
1176.881	4110
1179.186	4089
1181.487	4127
1183.79	4045
1186.092	4086
1188.392	4063
1190.691	4020
1192.991	4045
1195.291	4035
1197.588	4088
1199.885	4073
1202.181	4132
1204.479	4155
1206.775	4143
1209.07	4221
1211.363	4094
1213.656	4154
1215.949	4053
1218.241	4089
1220.534	4094
1222.825	4256
1225.115	4244
1227.405	4133
1229.693	4142
1231.984	4108
1234.271	4179
1236.558	4160
1238.845	4206
1241.131	4291
1243.416	4177
1245.703	4220
1247.987	4268
1250.269	4247
1252.552	4245
1254.834	4245
1257.118	4220
1259.399	4228
1261.678	4291
1263.958	4325
1266.237	4185
1268.516	4278
1270.794	4247
1273.072	4316
1275.347	4239
1277.624	4255
1279.899	4196
1282.175	4225
1284.449	4267
1286.722	4222
1288.995	4142
1291.266	4175
1293.54	4207
1295.81	4235
1298.081	4211
1300.35	4190
1302.62	4234
1304.889	4151
1307.156	4166
1309.425	4153
1311.69	4237
1313.957	4199
1316.222	4236
1318.488	4203
1320.751	4075
1323.016	4224
1325.278	4188
1327.54	4190
1329.803	4307
1332.065	4301
1334.325	4274
1336.584	4309
1338.843	4212
1341.101	4212
1343.36	4291
1345.617	4242
1347.876	4169
1350.131	4207
1352.387	4146
1354.643	4111
1356.897	4241
1359.151	4255
1361.403	4218
1363.656	4213
1365.909	4188
1368.16	4255
1370.409	4204
1372.659	4248
1374.909	4300
1377.157	4208
1379.407	4248
1381.655	4252
1383.9	4343
1386.147	4255
1388.393	4253
1390.64	4328
1392.885	4310
1395.127	4336
1397.37	4362
1399.614	4259
1401.854	4353
1404.098	4343
1406.339	4337
1408.578	4383
1410.818	4290
1413.056	4231
1415.297	4242
1417.533	4311
1419.771	4334
1422.006	4327
1424.243	4379
1426.479	4295
1428.715	4293
1430.948	4428
1433.182	4352
1435.414	4389
1437.647	4317
1439.88	4381
1442.11	4511
1444.342	4402
1446.571	4449
1448.799	4419
1451.029	4483
1453.258	4438
1455.485	4431
1457.711	4455
1459.937	4388
1462.164	4380
1464.39	4392
1466.614	4396
1468.838	4385
1471.06	4365
1473.283	4422
1475.506	4404
1477.727	4277
1479.949	4229
1482.169	4303
1484.389	4342
1486.609	4258
1488.828	4303
1491.045	4248
1493.261	4210
1495.477	4256
1497.693	4309
1499.91	4293
1502.125	4215
1504.339	4238
1506.553	4288
1508.766	4287
1510.979	4263
1513.191	4335
1515.402	4268
1517.613	4249
1519.823	4233
1522.033	4205
1524.242	4338
1526.451	4347
1528.657	4249
1530.865	4266
1533.072	4344
1535.278	4338
1537.484	4311
1539.687	4325
1541.892	4225
1544.096	4338
1546.299	4296
1548.502	4374
1550.703	4396
1552.905	4377
1555.104	4291
1557.303	4387
1559.505	4361
1561.703	4427
1563.902	4353
1566.099	4311
1568.295	4422
1570.494	4334
1572.689	4308
1574.883	4325
1577.079	4342
1579.272	4369
1581.467	4305
1583.659	4441
1585.853	4425
1588.044	4315
1590.234	4380
1592.424	4446
1594.615	4479
1596.806	4362
1598.994	4388
1601.182	4402
1603.369	4432
1605.557	4409
1607.744	4388
1609.929	4392
1612.114	4394
1614.298	4445
1616.482	4564
1618.667	4477
1620.85	4431
1623.032	4468
1625.214	4501
1627.395	4440
1629.575	4516
1631.755	4473
1633.935	4504
1636.114	4482
1638.292	4491
1640.471	4492
1642.647	4452
1644.823	4545
1647	4531
1649.175	4473
1651.348	4508
1653.525	4509
1655.698	4554
1657.87	4512
1660.043	4535
1662.213	4590
1664.387	4489
1666.558	4578
1668.727	4524
1670.896	4592
1673.064	4585
1675.233	4548
1677.401	4466
1679.569	4465
1681.735	4538
1683.902	4500
1686.066	4498
1688.233	4505
1690.397	4455
1692.559	4541
1694.723	4441
1696.885	4498
1699.048	4485
1701.21	4503
1703.37	4372
1705.53	4571
1707.689	4504
1709.849	4499
1712.009	4531
1714.166	4460
1716.323	4451
1718.479	4467
1720.634	4432
1722.793	4435
1724.948	4441
1727.102	4516
1729.255	4376
1731.408	4461
1733.562	4501
1735.714	4477
1737.865	4450
1740.016	4434
1742.166	4520
1744.316	4428
1746.467	4518
1748.616	4572
1750.764	4511
1752.911	4399
1755.056	4552
1757.205	4466
1759.35	4498
1761.496	4495
1763.641	4533
1765.785	4470
1767.927	4475
1770.072	4560
1772.214	4497
1774.355	4452
1776.496	4505
1778.637	4481
1780.778	4474
1782.918	4498
1785.057	4448
1787.194	4567
1789.333	4550
1791.472	4479
1793.608	4582
1795.745	4522
1797.879	4421
1800.015	4509
1802.148	4525
1804.284	4584
1806.417	4574
1808.548	4566
1810.682	4533
1812.812	4611
1814.946	4594
1817.075	4499
1819.205	4578
1821.335	4583
1823.463	4549
1825.59	4488
1827.721	4588
1829.847	4499
1831.973	4503
1834.098	4516
1836.223	4505
1838.351	4508
1840.475	4463
1842.598	4557
1844.721	4483
1846.843	4508
1848.966	4566
1851.087	4489
1853.21	4458
1855.33	4438
1857.449	4533
1859.568	4517
1861.688	4419
1863.806	4522
1865.924	4512
1868.039	4526
1870.155	4377
1872.273	4640
1874.388	4536
1876.503	4605
1878.617	4566
1880.73	4552
1882.844	4577
1884.956	4472
1887.068	4556
1889.18	4553
1891.291	4494
1893.4	4542
1895.511	4608
1897.621	4528
1899.73	4609
1901.837	4526
1903.944	4599
1906.053	4552
1908.159	4622
1910.265	4569
1912.369	4530
1914.474	4634
1916.577	4627
1918.683	4613
1920.785	4427
1922.888	4676
1924.989	4599
1927.091	4631
1929.193	4586
1931.294	4602
1933.393	4633
1935.493	4649
1937.59	4661
1939.689	4594
1941.788	4691
1943.884	4673
1945.98	4666
1948.077	4650
1950.171	4675
1952.267	4665
1954.361	4559
1956.455	4669
1958.548	4676
1960.64	4632
1962.733	4613
1964.824	4636
1966.915	4605
1969.005	4606
1971.096	4653
1973.185	4610
1975.275	4558
1977.363	4603
1979.45	4614
1981.537	4542
1983.623	4603
1985.711	4597
1987.796	4514
1989.881	4630
1991.965	4721
1994.047	4587
1996.132	4567
1998.215	4554
2000.297	4604
2002.378	4660
2004.46	4613
2006.54	4547
2008.62	4646
2010.7	4510
2012.779	4604
2014.858	4523
2016.934	4617
2019.013	4478
2021.09	4570
2023.165	4606
2025.241	4620
2027.317	4583
2029.39	4581
2031.466	4590
2033.538	4556
2035.612	4498
2037.683	4699
2039.755	4523
2041.827	4565
2043.898	4580
2045.968	4608
2048.038	4578
2050.106	4684
2052.177	4664
2054.244	4704
2056.313	4634
2058.379	4618
2060.444	4656
2062.511	4605
2064.577	4666
2066.641	4658
2068.705	4506
2070.77	4668
2072.832	4604
2074.896	4567
2076.958	4634
2079.02	4562
2081.081	4614
2083.141	4665
2085.2	4658
2087.261	4638
2089.319	4630
2091.377	4562
2093.435	4681
2095.492	4657
2097.552	4629
2099.607	4703
2101.663	4628
2103.718	4588
2105.771	4674
2107.826	4677
2109.879	4492
2111.932	4614
2113.985	4627
2116.037	4514
2118.088	4429
2120.141	4573
2122.191	4556
2124.239	4669
2126.288	4670
2128.337	4700
2130.387	4556
2132.434	4674
2134.481	4612
2136.528	4528
2138.574	4666
2140.618	4536
2142.665	4613
2144.71	4553
2146.753	4595
2148.797	4587
2150.838	4672
2152.883	4624
2154.923	4650
2156.965	4525
2159.007	4488
2161.046	4594
2163.086	4647
2165.126	4635
2167.163	4625
2169.202	4606
2171.239	4520
2173.277	4484
2175.314	4567
2177.349	4477
2179.385	4669
2181.42	4658
2183.453	4653
2185.49	4559
2187.522	4561
2189.555	4510
2191.586	4573
2193.619	4600
2195.651	4585
2197.682	4530
2199.711	4482
2201.74	4576
2203.769	4542
2205.799	4537
2207.828	4545
2209.855	4538
2211.882	4466
2213.908	4574
2215.934	4480
2217.961	4581
2219.986	4488
2222.01	4477
2224.034	4605
2226.057	4576
2228.08	4605
2230.104	4471
2232.124	4583
2234.145	4498
2236.166	4593
2238.186	4548
2240.207	4465
2242.227	4542
2244.244	4577
2246.262	4619
2248.28	4506
2250.299	4455
2252.314	4544
2254.33	4632
2256.346	4570
2258.36	4633
2260.375	4644
2262.391	4617
2264.403	4564
2266.416	4524
2268.427	4476
2270.44	4527
2272.453	4475
2274.463	4559
2276.474	4585
2278.483	4670
2280.493	4580
2282.501	4600
2284.51	4554
2286.518	4504
2288.524	4526
2290.532	4628
2292.537	4501
2294.544	4477
2296.55	4466
2298.554	4609
2300.557	4521
2302.562	4598
2304.566	4632
2306.568	4570
2308.569	4506
2310.572	4563
2312.573	4427
2314.573	4544
2316.574	4480
2318.573	4633
2320.571	4530
2322.571	4551
2324.569	4512
2326.567	4534
2328.564	4581
2330.56	4486
2332.556	4507
2334.551	4602
2336.546	4487
2338.542	4501
2340.535	4520
2342.529	4542
2344.521	4418
2346.512	4479
2348.505	4466
2350.497	4501
2352.487	4432
2354.478	4530
2356.468	4418
2358.457	4527
2360.446	4503
2362.434	4499
2364.422	4672
2366.408	4510
2368.395	4474
2370.383	4512
2372.369	4535
2374.353	4544
2376.338	4466
2378.321	4514
2380.307	4532
2382.29	4453
2384.272	4555
2386.254	4477
2388.235	4548
2390.218	4513
2392.198	4443
2394.179	4444
2396.157	4430
2398.137	4472
2400.115	4386
2402.095	4507
2404.072	4377
2406.048	4545
2408.026	4429
2410.001	4397
2411.977	4513
2413.953	4475
2415.927	4465
2417.9	4523
2419.875	4397
2421.847	4358
2423.821	4426
2425.792	4460
2427.763	4479
2429.736	4511
2431.706	4489
2433.677	4478
2435.646	4464
2437.615	4497
2439.583	4495
2441.551	4514
2443.519	4544
2445.486	4412
2447.452	4485
2449.418	4354
2451.383	4466
2453.348	4516
2455.314	4501
2457.278	4511
2459.241	4554
2461.205	4481
2463.167	4367
2465.131	4430
2467.091	4410
2469.052	4471
2471.012	4443
2472.972	4371
2474.932	4372
2476.891	4481
2478.85	4372
2480.808	4478
2482.766	4429
2484.722	4352
2486.68	4458
2488.636	4519
2490.591	4418
2492.546	4467
2494.5	4420
2496.456	4364
2498.41	4408
2500.362	4395
2502.315	4434
2504.266	4420
2506.218	4493
2508.169	4464
2510.121	4401
2512.07	4334
2514.019	4340
2515.968	4472
2517.918	4357
2519.866	4401
2521.813	4413
2523.76	4507
2525.707	4443
2527.653	4374
2529.599	4388
2531.543	4440
2533.489	4394
2535.433	4403
2537.376	4300
2539.32	4420
2541.264	4329
2543.205	4392
2545.147	4400
2547.087	4398
2549.029	4323
2550.969	4430
2552.908	4512
2554.847	4417
2556.786	4362
2558.724	4405
2560.663	4415
2562.6	4409
2564.537	4354
2566.473	4369
2568.408	4416
2570.345	4468
2572.28	4408
2574.214	4497
2576.148	4437
2578.081	4386
2580.014	4481
2581.947	4451
2583.879	4330
2585.81	4402
2587.741	4419
2589.67	4388
2591.602	4383
2593.532	4358
2595.461	4352
2597.388	4485
2599.316	4425
2601.244	4382
2603.172	4454
2605.098	4539
2607.023	4357
2608.949	4455
2610.873	4413
2612.8	4364
2614.723	4483
2616.647	4456
2618.569	4442
2620.493	4372
2622.416	4477
2624.338	4422
2626.258	4399
2628.179	4465
2630.099	4420
2632.019	4449
2633.939	4430
2635.857	4461
2637.775	4448
2639.694	4368
2641.61	4374
2643.528	4438
2645.444	4435
2647.361	4387
2649.276	4372
2651.19	4438
2653.105	4498
2655.019	4523
2656.934	4440
2658.846	4455
2660.758	4415
2662.67	4430
2664.583	4400
2666.493	4460
2668.404	4337
2670.313	4405
2672.223	4423
2674.134	4423
2676.042	4403
2677.95	4330
2679.858	4347
2681.765	4367
2683.673	4415
2685.579	4344
2687.483	4391
2689.389	4376
2691.294	4455
2693.198	4348
2695.104	4463
2697.006	4376
2698.909	4391
2700.811	4443
2702.713	4325
2704.615	4356
2706.516	4288
2708.417	4394
2710.316	4335
2712.216	4447
2714.115	4367
2716.014	4483
2717.913	4371
2719.81	4312
2721.707	4327
2723.603	4369
2725.501	4356
2727.396	4383
2729.292	4290
2731.186	4370
2733.081	4405
2734.976	4375
2736.87	4285
2738.762	4409
2740.653	4289
2742.546	4353
2744.437	4295
2746.329	4360
2748.22	4333
2750.11	4397
2751.999	4336
2753.889	4365
2755.778	4263
2757.666	4366
2759.553	4313
2761.44	4271
2763.328	4299
2765.215	4390
2767.101	4300
2768.986	4369
2770.87	4369
2772.754	4342
2774.638	4391
2776.523	4314
2778.405	4312
2780.288	4389
2782.17	4319
2784.051	4276
2785.934	4435
2787.814	4366
2789.694	4305
2791.574	4382
2793.453	4336
2795.332	4354
2797.212	4472
2799.088	4263
2800.966	4338
2802.843	4266
2804.719	4392
2806.597	4402
2808.471	4403
2810.346	4272
2812.221	4406
2814.094	4357
2815.969	4466
2817.843	4396
2819.714	4414
2821.587	4359
2823.459	4393
2825.329	4399
2827.202	4443
2829.072	4320
2830.942	4326
2832.811	4353
2834.68	4413
2836.549	4389
2838.418	4341
2840.284	4310
2842.152	4370
2844.018	4304
2845.885	4370
2847.751	4392
2849.616	4349
2851.482	4361
2853.345	4411
2855.208	4387
2857.074	4380
2858.937	4440
2860.799	4393
2862.66	4411
2864.522	4462
2866.385	4455
2868.245	4499
2870.104	4474
2871.964	4492
2873.824	4479
2875.683	4548
2877.542	4622
2879.4	4523
2881.257	4616
2883.114	4599
2884.97	4704
2886.827	4692
2888.683	4641
2890.537	4692
2892.392	4614
2894.246	4590
2896.1	4670
2897.954	4628
2899.807	4620
2901.66	4665
2903.51	4675
2905.362	4595
2907.214	4561
2909.065	4651
2910.915	4701
2912.765	4582
2914.613	4666
2916.463	4752
2918.311	4751
2920.158	4702
2922.006	4729
2923.853	4782
2925.698	4817
2927.546	4825
2929.392	4881
2931.236	4963
2933.081	4971
2934.924	4954
2936.77	4960
2938.613	4943
2940.455	5003
2942.298	5056
2944.139	5090
2945.982	5091
2947.823	5148
2949.662	5022
2951.503	5046
2953.342	4925
2955.182	4908
2957.021	4911
2958.858	4930
2960.697	4957
2962.534	5018
2964.37	4904
2966.207	4790
2968.044	4956
2969.879	4725
2971.714	4768
2973.548	4733
2975.383	4676
2977.218	4677
2979.051	4714
2980.883	4669
2982.715	4656
2984.547	4685
2986.379	4584
2988.21	4564
2990.04	4548
2991.87	4477
2993.7	4518
2995.53	4527
2997.359	4559
2999.187	4426
3001.015	4446
3002.842	4352
3004.669	4367
3006.497	4415
3008.323	4380
3010.148	4344
3011.974	4343
3013.797	4385
3015.623	4275
3017.447	4344
3019.27	4169
3021.094	4299
3022.915	4338
3024.737	4294
3026.56	4288
3028.38	4234
3030.201	4129
3032.022	4289
3033.84	4245
3035.662	4136
3037.481	4126
3039.298	4158
3041.117	4202
3042.933	4174
3044.752	4177
3046.568	4229
3048.385	4182
3050.2	4265
3052.016	4195
3053.83	4170
3055.646	4117
3057.46	4206
3059.272	4189
3061.086	4228
3062.898	4180
3064.711	4141
3066.524	4146
3068.335	4118
3070.145	4163
3071.956	4110
3073.766	4115
3075.576	4078
3077.385	4106
3079.193	4130
3081.002	4037
3082.81	4068
3084.618	4111
3086.425	4115
3088.231	4075
3090.036	4052
3091.842	4064
3093.648	4080
3095.452	4035
3097.257	4011
3099.06	4081
3100.863	4085
3102.666	4199
3104.47	4074
3106.272	4133
3108.073	4014
3109.875	4088
3111.676	4045
3113.477	4052
3115.277	4010
3117.077	3951
3118.874	4140
3120.673	4056
3122.473	4034
3124.271	3972
3126.066	4113
3127.863	4057
3129.66	3981
3131.456	4056
3133.252	4128
3135.047	4001
3136.842	3991
3138.635	4022
3140.429	3980
3142.223	3981
3144.016	4025
3145.808	3963
3147.6	4072
3149.392	3991
3151.183	3967
3152.975	3993
3154.765	3983
3156.553	3916
3158.344	3995
3160.132	3908
3161.922	3959
3163.71	3918
3165.497	3944
3167.285	3946
3169.071	3904
3170.858	3960
3172.645	4024
3174.429	3942
3176.214	4079
3177.998	3938
3179.783	3920
3181.568	3954
3183.351	4022
3185.133	3925
3186.915	3882
3188.698	3908
3190.481	4001
3192.261	3890
3194.042	4023
3195.822	3934
3197.601	3919
3199.381	3868
3201.161	3977
3202.939	3955
3204.717	3931
3206.495	3932
3208.272	3899
3210.05	3798
3211.826	3939
3213.602	3958
3215.376	3813
3217.151	4031
3218.927	3917
3220.702	4007
3222.476	3998
3224.249	3872
3226.021	3898
3227.793	3927
3229.567	3981
3231.339	3979
3233.109	3917
3234.88	3978
3236.651	3990
3238.421	3877
3240.191	3979
3241.96	3888
3243.728	3938
3245.497	3849
3247.263	3892
3249.033	3923
3250.799	3891
3252.566	3837
3254.331	3943
3256.097	3914
3257.863	3983
3259.628	3920
3261.392	3932
3263.156	3880
3264.919	3957
3266.683	4012
3268.447	3930
3270.208	3941
3271.969	3940
3273.731	3932
3275.492	3892
3277.253	3865
3279.013	3890
3280.773	3908
3282.532	3903
3284.291	3875
3286.05	3926
3287.808	3928
3289.566	3913
3291.323	3851
3293.079	3979
3294.835	3904
3296.593	3903
3298.348	3902
3300.102	3910
3301.857	3958
3303.611	3859
3305.366	3951
3307.119	3941
3308.872	3942
3310.624	3906
3312.376	3871
3314.129	3896
3315.881	3826
3317.631	3947
3319.38	3950
3321.13	3908
3322.88	3871
3324.631	4035
3326.379	3980
3328.126	3912
3329.875	3898
3331.622	3943
3333.371	3812
3335.116	3802
3336.863	3945
3338.609	3877
3340.353	3876
3342.1	3948
3343.845	3965
3345.588	3923
3347.332	3828
3349.074	3829
3350.817	3810
3352.56	3894
3354.303	3880
3356.043	3881
3357.785	3853
3359.525	3824
3361.268	3751
3363.007	3839
3364.745	3830
3366.485	3789
3368.223	3894
3369.962	3783
3371.701	3885
3373.438	3815
3375.174	3841
3376.911	3824
3378.647	3790
3380.384	3847
3382.118	3828
3383.854	3851
3385.588	3847
3387.322	3824
3389.057	3812
3390.79	3865
3392.522	3725
3394.255	3794
3395.987	3786
3397.719	3794
3399.451	3810
3401.181	3895
3402.911	3799
3404.641	3822
3406.371	3777
3408.101	3819
3409.83	3831
3411.558	3751
3413.285	3825
3415.011	3741
3416.739	3846
3418.467	3777
3420.193	3870
3421.919	3772
3423.644	3730
3425.368	3785
3427.094	3771
3428.818	3773
3430.542	3770
3432.264	3694
3433.987	3781
3435.712	3737
3437.434	3727
3439.155	3669
3440.876	3834
3442.596	3750
3444.317	3689
3446.039	3718
3447.757	3682
3449.477	3730
3451.195	3702
3452.914	3788
3454.632	3715
3456.35	3704
3458.067	3709
3459.784	3664
3461.5	3652
3463.216	3665
3464.932	3655
3466.647	3673
3468.362	3629
3470.076	3671
3471.789	3694
3473.505	3668
3475.217	3725
3476.929	3646
3478.641	3658
3480.354	3580
3482.066	3637
3483.777	3688
3485.487	3527
3487.197	3641
3488.908	3653
3490.617	3661
3492.327	3603
3494.035	3590
3495.743	3719
3497.451	3621
3499.158	3631
3500.866	3578
3502.572	3608
3504.278	3620
3505.984	3598
3507.689	3650
3509.396	3614
3511.1	3551
3512.804	3654
3514.508	3479
3516.211	3581
3517.913	3573
3519.616	3599
3521.319	3490
3523.021	3577
3524.722	3477
3526.422	3564
3528.124	3488
3529.824	3573
3531.524	3525
3533.222	3531
3534.921	3494
3536.62	3553
3538.318	3498
3540.016	3609
3541.714	3564
3543.41	3501
3545.107	3568
3546.803	3467
3548.5	3511
3550.194	3481
3551.889	3533
3553.583	3478
3555.279	3517
3556.972	3523
3558.666	3519
3560.358	3516
3562.051	3540
3563.742	3458
3565.435	3427
3567.126	3529
3568.817	3514
3570.507	3527
3572.197	3448
3573.888	3508
3575.577	3546
3577.265	3489
3578.954	3473
3580.642	3456
3582.329	3478
3584.017	3499
3585.704	3466
3587.391	3497
3589.077	3455
3590.762	3487
3592.449	3515
3594.133	3507
3595.817	3430
3597.501	3416
3599.185	3319
3600.869	3423
3602.552	3384
3604.234	3381
3605.916	3367
3607.598	3383
3609.279	3452
3610.961	3387
3612.642	3435
3614.321	3412
3616	3338
3617.68	3353
3619.36	3345
3621.039	3337
3622.716	3313
3624.394	3320
3626.071	3368
3627.748	3351
3629.425	3398
3631.102	3335
3632.778	3335
3634.452	3307
3636.127	3271
3637.803	3352
3639.477	3364
3641.151	3341
3642.823	3284
3644.497	3274
3646.171	3356
3647.842	3306
3649.515	3259
3651.185	3333
3652.857	3343
3654.527	3302
3656.198	3322
3657.868	3320
3659.537	3327
3661.207	3284
3662.875	3272
3664.544	3319
3666.212	3335
3667.879	3263
3669.546	3350
3671.212	3318
3672.88	3256
3674.546	3273
3676.211	3304
3677.875	3292
3679.541	3286
3681.205	3294
3682.87	3272
3684.533	3246
3686.196	3274
3687.859	3266
3689.521	3273
3691.184	3292
3692.845	3191
3694.507	3215
3696.167	3191
3697.827	3224
3699.487	3288
3701.148	3242
3702.808	3196
3704.466	3264
3706.125	3240
3707.783	3231
3709.442	3252
3711.099	3320
3712.757	3290
3714.412	3307
3716.068	3282
3717.725	3282
3719.381	3226
3721.036	3277
3722.689	3145
3724.344	3215
3725.998	3192
3727.652	3313
3729.305	3265
3730.958	3206
3732.61	3294
3734.262	3168
3735.915	3195
3737.565	3230
3739.217	3295
3740.866	3201
3742.516	3219
3744.165	3231
3745.816	3246
3747.464	3298
3749.113	3201
3750.761	3138
3752.409	3217
3754.057	3192
3755.703	3119
3757.35	3207
3758.996	3212
3760.641	3246
3762.289	3207
3763.933	3136
3765.577	3113
3767.222	3199
3768.865	3160
3770.508	3159
3772.152	3126
3773.796	3158
3775.438	3133
3777.079	3122
3778.721	3155
3780.363	3223
3782.003	3143
3783.643	3181
3785.283	3161
3786.923	3193
3788.563	3120
3790.203	3190
3791.841	3135
3793.479	3122
3795.115	3077
3796.753	3109
3798.391	3038
3800.027	3159
3801.664	3090
3803.299	3159
3804.935	3150
3806.571	3059
3808.206	3061
3809.839	3051
3811.473	3076
3813.107	3036
3814.74	3134
3816.375	3077
3818.006	3059
3819.638	3082
3821.27	3023
3822.9	3071
3824.532	3021
3826.163	3058
3827.792	2991
3829.423	3086
3831.051	3052
3832.682	2994
3834.311	3100
3835.938	3006
3837.566	3069
3839.193	3050
3840.821	3044
3842.448	3032
3844.075	2990
3845.7	3046
3847.325	3053
3848.951	3093
3850.576	3116
3852.201	3010
3853.825	3041
3855.448	3000
3857.072	3011
3858.694	3005
3860.318	2994
3861.939	3040
3863.562	3023
3865.183	3007
3866.804	3043
3868.426	3047
3870.045	2968
3871.666	3009
3873.285	3017
3874.904	3012
3876.524	3050
3878.142	3039
3879.76	3010
3881.378	2993
3882.995	2908
3884.612	2991
3886.229	2946
3887.845	2983
3889.461	2957
3891.076	3049
3892.691	2995
3894.307	2972
3895.922	2981
3897.536	3006
3899.149	3006
3900.761	3008
3902.374	3011
3903.988	2945
3905.6	2927
3907.212	2950
3908.822	3027
3910.433	2942
3912.045	2956
3913.655	2983
3915.265	2973
3916.875	2972
3918.483	2907
3920.093	3017
3921.702	2989
3923.309	2881
3924.917	2885
3926.523	2868
3928.13	2937
3929.739	3017
3931.344	2980
3932.95	2941
3934.555	2887
3936.159	2994
3937.766	2918
3939.369	2862
3940.974	2931
3942.577	2906
3944.181	3013
3945.783	2887
3947.386	2880
3948.989	3060
3950.59	2888
3952.191	2952
3953.791	2985
3955.394	2931
3956.994	2962
3958.593	2934
3960.192	2836
3961.791	2949
3963.392	2967
3964.99	2885
3966.588	2921
3968.185	2864
3969.782	2908
3971.379	2860
3972.976	2875
3974.572	2845
3976.168	2903
3977.763	2816
3979.358	2911
3980.954	2897
3982.548	2883
3984.142	2825
3985.736	2835
3987.329	2791
3988.922	2878
3990.516	2832
3992.108	2842
3993.698	2843
3995.29	2863
3996.881	2887
3998.473	2860
4000.064	2827
4001.653	2843
4003.242	2764
4004.832	2830
4006.422	2761
4008.01	2812
4009.598	2836
4011.186	2789
4012.773	2745
4014.36	2802
4015.947	2811
4017.534	2722
4019.119	2742
4020.705	2813
4022.291	2813
4023.876	2720
4025.461	2744
4027.044	2776
4028.627	2878
4030.211	2728
4031.795	2749
4033.378	2736
4034.96	2742
4036.542	2817
4038.124	2806
4039.704	2666
4041.286	2774
4042.867	2849
4044.447	2746
4046.026	2727
4047.606	2723
4049.187	2726
4050.765	2814
4052.343	2763
4053.92	2767
4055.498	2748
4057.076	2777
4058.654	2708
4060.23	2721
4061.806	2796
4063.381	2753
4064.957	2687
4066.533	2739
4068.107	2742
4069.682	2708
4071.256	2666
4072.829	2696
4074.404	2727
4075.977	2710
4077.549	2703
4079.121	2680
4080.693	2720
4082.265	2716
4083.836	2710
4085.407	2686
4086.977	2701
4088.547	2664
4090.117	2783
4091.687	2722
4093.256	2700
4094.825	2632
4096.392	2743
4097.96	2748
4099.528	2718
4101.097	2643
4102.663	2731
4104.229	2698
4105.795	2694
4107.361	2699
4108.928	2677
4110.493	2726
4112.058	2651
4113.621	2601
4115.186	2645
4116.75	2745
4118.313	2633
4119.876	2642
4121.438	2642
4123	2659
4124.562	2613
4126.125	2618
4127.686	2598
4129.246	2661
4130.807	2634
4132.367	2634
4133.927	2657
4135.486	2665
4137.046	2665
4138.604	2600
4140.162	2599
4141.72	2643
4143.279	2649
4144.836	2566
4146.393	2556
4147.949	2613
4149.505	2523
4151.062	2606
4152.617	2561
4154.172	2622
4155.727	2528
4157.281	2597
4158.836	2573
4160.39	2589
4161.943	2623
4163.496	2524
4165.048	2599
4166.601	2566
4168.154	2565
4169.706	2539
4171.257	2547
4172.808	2603
4174.358	2536
4175.909	2634
4177.458	2593
4179.008	2619
4180.558	2542
4182.106	2549
4183.655	2592
4185.204	2558
4186.751	2510
4188.298	2525
4189.845	2498
4191.392	2487
4192.939	2528
4194.485	2561
4196.031	2586
4197.576	2516
4199.121	2531
4200.666	2563
4202.211	2516
4203.754	2568
4205.298	2394
4206.84	2544
4208.384	2474
4209.927	2486
4211.47	2510
4213.011	2543
4214.552	2497
4216.094	2571
4217.635	2431
4219.175	2539
4220.716	2525
4222.255	2482
4223.793	2548
4225.335	2526
4226.873	2570
4228.411	2497
4229.948	2482
4231.486	2539
4233.024	2465
4234.562	2510
4236.098	2478
4237.634	2503
4239.169	2465
4240.705	2460
4242.241	2473
4243.776	2466
4245.31	2496
4246.844	2462
4248.378	2409
4249.911	2415
4251.445	2470
4252.978	2467
4254.51	2435
4256.042	2485
4257.574	2470
4259.107	2538
4260.638	2510
4262.169	2497
4263.699	2480
4265.228	2416
4266.759	2510
4268.289	2447
4269.818	2406
4271.345	2474
4272.874	2388
4274.402	2474
4275.931	2409
4277.458	2411
4278.985	2404
4280.512	2410
4282.037	2441
4283.564	2370
4285.089	2441
4286.615	2508
4288.139	2384
4289.664	2458
4291.187	2470
4292.712	2458
4294.235	2414
4295.759	2411
4297.281	2397
4298.804	2441
4300.327	2384
4301.849	2454
4303.37	2387
4304.891	2372
4306.412	2422
4307.933	2378
4309.453	2399
4310.973	2370
4312.492	2358
