398.1873	3151
400.7097	3197
403.2336	3216
405.7547	3194
408.2751	3277
410.7948	3270
413.3138	3226
415.83	3314
418.3497	3189
420.8666	3335
423.3829	3281
425.8985	3277
428.4133	3274
430.9275	3325
433.441	3364
435.9538	3363
438.4639	3349
440.9753	3350
443.4881	3411
445.9982	3461
448.5055	3377
451.0142	3422
453.5201	3414
456.0274	3363
458.5361	3391
461.04	3426
463.5453	3407
466.0478	3366
468.5517	3404
471.0549	3482
473.5574	3446
476.0572	3430
478.5584	3447
481.0568	3333
483.5545	3494
486.0557	3467
488.5521	3391
491.0478	3534
493.5449	3534
496.0392	3513
498.5349	3453
501.0299	3471
503.5222	3502
506.0139	3521
508.5048	3529
510.9991	3535
513.4887	3530
515.9777	3604
518.4659	3476
520.9534	3531
523.4403	3579
525.9306	3527
528.4161	3588
530.9009	3577
533.3851	3484
535.8687	3536
538.3535	3541
540.8356	3474
543.3171	3595
545.7979	3539
548.278	3542
550.7595	3510
553.2383	3499
555.7144	3517
558.1918	3578
560.6685	3614
563.1446	3548
565.6221	3614
568.0968	3631
570.5688	3604
573.0422	3604
575.515	3640
577.989	3633
580.4584	3599
582.9291	3593
585.3991	3641
587.8685	3674
590.3352	3578
592.8052	3668
595.2706	3637
597.7372	3693
600.2033	3551
602.6666	3587
605.1334	3630
607.5953	3649
610.0587	3691
612.5193	3588
614.9814	3613
617.4427	3627
619.9034	3680
622.3615	3755
624.8208	3614
627.2775	3736
629.7335	3742
632.1929	3626
634.6476	3691
637.1016	3681
639.5569	3649
642.0096	3603
644.4637	3705
646.9151	3721
649.3678	3731
651.8179	3706
654.2672	3770
656.7159	3670
659.166	3780
661.6154	3751
664.0622	3746
666.5082	3722
668.9537	3806
671.4005	3808
673.8445	3737
676.288	3760
678.7308	3739
681.1729	3752
683.6163	3746
686.0572	3806
688.4973	3720
690.9368	3799
693.3757	3771
695.8138	3774
698.2534	3877
700.6902	3793
703.1245	3912
705.56	3819
707.9949	3879
710.4311	3844
712.8647	3824
715.2957	3831
717.7279	3836
720.1595	3890
722.5905	3945
725.0208	3887
727.4505	3807
729.8795	3830
732.3058	3822
734.7336	3897
737.1626	3952
739.587	3914
742.0128	3890
744.4359	4017
746.8604	4004
749.2841	4026
751.7073	4026
754.1278	3964
756.5496	4040
758.9688	3960
761.3893	3975
763.8093	4039
766.2285	4007
768.6451	4033
771.0611	4035
773.4784	4048
775.895	4063
778.3091	3972
780.7244	4060
783.1371	4070
785.5493	4014
787.9626	4150
790.3754	3939
792.7856	4080
795.1951	4039
797.6039	4046
800.0121	4111
802.4236	4035
804.8306	4079
807.2369	4011
809.6425	4056
812.0475	4013
814.4538	4053
816.8575	4045
819.2606	4119
821.663	4040
824.0648	4073
826.4659	4147
828.8683	4099
831.2682	4055
833.6674	4096
836.066	4122
838.4639	4190
840.8632	4116
843.2579	4163
845.6539	4088
848.0493	4121
850.444	4049
852.84	4138
855.2315	4144
857.6243	4224
860.0165	4139
862.4081	4096
864.797	4167
867.1892	4152
869.5789	3988
871.9659	4129
874.3542	4221
876.74	4116
879.129	4108
881.5155	4168
883.8994	4176
886.2845	4073
888.6671	4078
891.051	4137
893.4343	4137
895.8169	4215
898.197	4163
900.5783	4196
902.9571	4240
905.3372	4171
907.7167	4225
910.0936	4256
912.4698	4154
914.8474	4171
917.2244	4221
919.5987	4246
921.9744	4224
924.3475	4289
926.72	4236
929.0918	4285
931.4669	4261
933.8375	4248
936.2074	4169
938.5767	4327
940.9454	4292
943.3154	4480
945.6829	4457
948.0497	4489
950.4178	4492
952.7833	4525
955.1483	4616
957.5145	4733
959.8782	4818
962.2412	4685
964.6036	4676
966.9655	4668
969.3266	4543
971.6871	4373
974.0471	4330
976.4064	4386
978.765	4311
981.125	4276
983.4824	4276
985.8373	4269
988.1935	4297
990.549	4340
992.9039	4251
995.2602	4201
997.6119	4336
999.965	4293
1002.317	4320
1004.667	4383
1007.02	4289
1009.371	4343
1011.719	4204
1014.068	4246
1016.415	4240
1018.765	4357
1021.111	4249
1023.458	4345
1025.804	4231
1028.147	4246
1030.49	4359
1032.837	4287
1035.179	4327
1037.522	4329
1039.862	4406
1042.204	4343
1044.546	4356
1046.884	4351
1049.224	4408
1051.562	4280
1053.899	4322
1056.237	4358
1058.575	4387
1060.91	4371
1063.244	4386
1065.58	4394
1067.913	4346
1070.248	4355
1072.579	4337
1074.911	4383
1077.242	4363
1079.572	4458
1081.905	4343
1084.234	4398
1086.562	4391
1088.89	4312
1091.217	4490
1093.544	4319
1095.871	4390
1098.197	4348
1100.521	4369
1102.845	4370
1105.169	4444
1107.491	4471
1109.814	4431
1112.135	4476
1114.456	4394
1116.776	4361
1119.096	4461
1121.415	4416
1123.734	4477
1126.052	4463
1128.369	4347
1130.686	4406
1133.002	4381
1135.318	4484
1137.632	4470
1139.945	4465
1142.258	4411
1144.573	4407
1146.884	4541
1149.196	4357
1151.505	4457
1153.816	4522
1156.124	4500
1158.435	4405
1160.742	4403
1163.051	4519
1165.356	4465
1167.663	4477
1169.97	4440
1172.276	4483
1174.579	4407
1176.881	4475
1179.186	4411
1181.487	4433
1183.79	4555
1186.092	4466
1188.392	4461
1190.691	4476
1192.991	4465
1195.291	4528
1197.588	4399
1199.885	4545
1202.181	4418
1204.479	4396
1206.775	4445
1209.07	4412
1211.363	4472
1213.656	4461
1215.949	4444
1218.241	4488
1220.534	4520
1222.825	4509
1225.115	4497
1227.405	4557
1229.693	4615
1231.984	4483
1234.271	4519
1236.558	4590
1238.845	4483
1241.131	4651
1243.416	4542
1245.703	4612
1247.987	4608
1250.269	4637
1252.552	4566
1254.834	4563
1257.118	4603
1259.399	4585
1261.678	4552
1263.958	4619
1266.237	4596
1268.516	4558
1270.794	4565
1273.072	4559
1275.347	4557
1277.624	4581
1279.899	4560
1282.175	4472
1284.449	4624
1286.722	4626
1288.995	4561
1291.266	4520
1293.54	4474
1295.81	4634
1298.081	4502
1300.35	4509
1302.62	4546
1304.889	4583
1307.156	4543
1309.425	4587
1311.69	4558
1313.957	4568
1316.222	4638
1318.488	4538
1320.751	4580
1323.016	4607
1325.278	4603
1327.54	4605
1329.803	4626
1332.065	4685
1334.325	4601
1336.584	4534
1338.843	4588
1341.101	4507
1343.36	4483
1345.617	4576
1347.876	4580
1350.131	4697
1352.387	4600
1354.643	4617
1356.897	4675
1359.151	4644
1361.403	4557
1363.656	4600
1365.909	4556
1368.16	4664
1370.409	4687
1372.659	4565
1374.909	4653
1377.157	4571
1379.407	4584
1381.655	4717
1383.9	4593
1386.147	4669
1388.393	4603
1390.64	4705
1392.885	4728
1395.127	4652
1397.37	4585
1399.614	4623
1401.854	4763
1404.098	4673
1406.339	4624
1408.578	4764
1410.818	4751
1413.056	4745
1415.297	4741
1417.533	4695
1419.771	4724
1422.006	4667
1424.243	4683
1426.479	4724
1428.715	4798
1430.948	4778
1433.182	4770
1435.414	4685
1437.647	4749
1439.88	4754
1442.11	4782
1444.342	4802
1446.571	4735
1448.799	4777
1451.029	4816
1453.258	4858
1455.485	4774
1457.711	4843
1459.937	4876
1462.164	4807
1464.39	4846
1466.614	4762
1468.838	4791
1471.06	4738
1473.283	4747
1475.506	4768
1477.727	4797
1479.949	4694
1482.169	4661
1484.389	4704
1486.609	4728
1488.828	4697
1491.045	4682
1493.261	4632
1495.477	4728
1497.693	4616
1499.91	4619
1502.125	4732
1504.339	4663
1506.553	4638
1508.766	4603
1510.979	4653
1513.191	4628
1515.402	4638
1517.613	4708
1519.823	4731
1522.033	4726
1524.242	4518
1526.451	4695
1528.657	4706
1530.865	4625
1533.072	4710
1535.278	4663
1537.484	4640
1539.687	4707
1541.892	4755
1544.096	4657
1546.299	4677
1548.502	4756
1550.703	4725
1552.905	4743
1555.104	4701
1557.303	4807
1559.505	4772
1561.703	4658
1563.902	4713
1566.099	4860
1568.295	4718
1570.494	4832
1572.689	4825
1574.883	4673
1577.079	4865
1579.272	4701
1581.467	4863
1583.659	4807
1585.853	4900
1588.044	4905
1590.234	4748
1592.424	4785
1594.615	4801
1596.806	4968
1598.994	4836
1601.182	4899
1603.369	4876
1605.557	4843
1607.744	4832
1609.929	5005
1612.114	4784
1614.298	4881
1616.482	4827
1618.667	4979
1620.85	4875
1623.032	4840
1625.214	4933
1627.395	4800
1629.575	4929
1631.755	4947
1633.935	4896
1636.114	4939
1638.292	4919
1640.471	5040
1642.647	4920
1644.823	4889
1647	4911
1649.175	4940
1651.348	4921
1653.525	4903
1655.698	4917
1657.87	4964
1660.043	4842
1662.213	4872
1664.387	4810
1666.558	4900
1668.727	4852
1670.896	5020
1673.064	4906
1675.233	5022
1677.401	4892
1679.569	4950
1681.735	4887
1683.902	4897
1686.066	4893
1688.233	4928
1690.397	4930
1692.559	4827
1694.723	4936
1696.885	4960
1699.048	4863
1701.21	4838
1703.37	4956
1705.53	4904
1707.689	4982
1709.849	4806
1712.009	4997
1714.166	4907
1716.323	4889
1718.479	4948
1720.634	4859
1722.793	5008
1724.948	4972
1727.102	4842
1729.255	4789
1731.408	4938
1733.562	4939
1735.714	4850
1737.865	4960
1740.016	5008
1742.166	5054
1744.316	4967
1746.467	4824
1748.616	4858
1750.764	4844
1752.911	4930
1755.056	4999
1757.205	4900
1759.35	4939
1761.496	4963
1763.641	4885
1765.785	4950
1767.927	4977
1770.072	5017
1772.214	4915
1774.355	4945
1776.496	4980
1778.637	4958
1780.778	4905
1782.918	4960
1785.057	4945
1787.194	4965
1789.333	4930
1791.472	5025
1793.608	5000
1795.745	4986
1797.879	4998
1800.015	4946
1802.148	5060
1804.284	5032
1806.417	4933
1808.548	4938
1810.682	4979
1812.812	5127
1814.946	4986
1817.075	4983
1819.205	4983
1821.335	5004
1823.463	4910
1825.59	5051
1827.721	5004
1829.847	4957
1831.973	5009
1834.098	4940
1836.223	4932
1838.351	4953
1840.475	4993
1842.598	4964
1844.721	4981
1846.843	4903
1848.966	4884
1851.087	4933
1853.21	4931
1855.33	5048
1857.449	4930
1859.568	4953
1861.688	4969
1863.806	4984
1865.924	4912
1868.039	5013
1870.155	4944
1872.273	4936
1874.388	4965
1876.503	4968
1878.617	4984
1880.73	4969
1882.844	5044
1884.956	4933
1887.068	4976
1889.18	4973
1891.291	4938
1893.4	5070
1895.511	5034
1897.621	4953
1899.73	5044
1901.837	5045
1903.944	5065
1906.053	5022
1908.159	4984
1910.265	5045
1912.369	5035
1914.474	5037
1916.577	5065
1918.683	5036
1920.785	5103
1922.888	5050
1924.989	5027
1927.091	5054
1929.193	5007
1931.294	5027
1933.393	5125
1935.493	5051
1937.59	5030
1939.689	5136
1941.788	5028
1943.884	4963
1945.98	5117
1948.077	5007
1950.171	5118
1952.267	5083
1954.361	5104
1956.455	5049
1958.548	5043
1960.64	5140
1962.733	5049
1964.824	4987
1966.915	5136
1969.005	4986
1971.096	5019
1973.185	5069
1975.275	5018
1977.363	5001
1979.45	5051
1981.537	5015
1983.623	5015
1985.711	5130
1987.796	5112
1989.881	5182
1991.965	5079
1994.047	5026
1996.132	5150
1998.215	5083
2000.297	4952
2002.378	5025
2004.46	5036
2006.54	5017
2008.62	5095
2010.7	5103
2012.779	4987
2014.858	5054
2016.934	5053
2019.013	5071
2021.09	4984
2023.165	4956
2025.241	5067
2027.317	5056
2029.39	5135
2031.466	5004
2033.538	4962
2035.612	4976
2037.683	5078
2039.755	5029
2041.827	5049
2043.898	5021
2045.968	5051
2048.038	5047
2050.106	5091
2052.177	5066
2054.244	4968
2056.313	5165
2058.379	5170
2060.444	5069
2062.511	5162
2064.577	5029
2066.641	5089
2068.705	5021
2070.77	5057
2072.832	5017
2074.896	5071
2076.958	5117
2079.02	5043
2081.081	5113
2083.141	5136
2085.2	5189
2087.261	5040
2089.319	5095
2091.377	5087
2093.435	5097
2095.492	5040
2097.552	5031
2099.607	5125
2101.663	5067
2103.718	5083
2105.771	5055
2107.826	5021
2109.879	5106
2111.932	5090
2113.985	5129
2116.037	5135
2118.088	5014
2120.141	5047
2122.191	5106
2124.239	5140
2126.288	5069
2128.337	5097
2130.387	5074
2132.434	5035
2134.481	5014
2136.528	5093
2138.574	5114
2140.618	5127
2142.665	5115
2144.71	5087
2146.753	5090
2148.797	5077
2150.838	5046
2152.883	5133
2154.923	5130
2156.965	5075
2159.007	5043
2161.046	5070
2163.086	5100
2165.126	5092
2167.163	5011
2169.202	5108
2171.239	5045
2173.277	5120
2175.314	5110
2177.349	5032
2179.385	5093
2181.42	4949
2183.453	5109
2185.49	4916
2187.522	4993
2189.555	4982
2191.586	5066
2193.619	5004
2195.651	5042
2197.682	4964
2199.711	4929
2201.74	5007
2203.769	5030
2205.799	4995
2207.828	4931
2209.855	5056
2211.882	4930
2213.908	5008
2215.934	4981
2217.961	4972
2219.986	5042
2222.01	5061
2224.034	4989
2226.057	4977
2228.08	5014
2230.104	4970
2232.124	5005
2234.145	4987
2236.166	4946
2238.186	4979
2240.207	4963
2242.227	5090
2244.244	5005
2246.262	4977
2248.28	5002
2250.299	4994
2252.314	5062
2254.33	5110
2256.346	4935
2258.36	4969
2260.375	5050
2262.391	5028
2264.403	5025
2266.416	4909
2268.427	4942
2270.44	4993
2272.453	4986
2274.463	4980
2276.474	4960
2278.483	4980
2280.493	5073
2282.501	5064
2284.51	5031
2286.518	4956
2288.524	5005
2290.532	5134
2292.537	5041
2294.544	4933
2296.55	5101
2298.554	5052
2300.557	5029
2302.562	4948
2304.566	4978
2306.568	5106
2308.569	4956
2310.572	5046
2312.573	5015
2314.573	4934
2316.574	5006
2318.573	5005
2320.571	5033
2322.571	5043
2324.569	4958
2326.567	4905
2328.564	4933
2330.56	4937
2332.556	5024
2334.551	5022
2336.546	4943
2338.542	5055
2340.535	5008
2342.529	4904
2344.521	4942
2346.512	5020
2348.505	4873
2350.497	4998
2352.487	4912
2354.478	4965
2356.468	4968
2358.457	4975
2360.446	4936
2362.434	4972
2364.422	4919
2366.408	4941
2368.395	4916
2370.383	4921
2372.369	4890
2374.353	4877
2376.338	4927
2378.321	4979
2380.307	4908
2382.29	4895
2384.272	4893
2386.254	4898
2388.235	4813
2390.218	4861
2392.198	4813
2394.179	4906
2396.157	5006
2398.137	4870
2400.115	4878
2402.095	4932
2404.072	4874
2406.048	4864
2408.026	4918
2410.001	4808
2411.977	4867
2413.953	5017
2415.927	4917
2417.9	4906
2419.875	4949
2421.847	4890
2423.821	4911
2425.792	4841
2427.763	4908
2429.736	4937
2431.706	4802
2433.677	4951
2435.646	4872
2437.615	4979
2439.583	4853
2441.551	4908
2443.519	4835
2445.486	4811
2447.452	4877
2449.418	4887
2451.383	4899
2453.348	4833
2455.314	4911
2457.278	4843
2459.241	4888
2461.205	4837
2463.167	4774
2465.131	4877
2467.091	4856
2469.052	4808
2471.012	4822
2472.972	4836
2474.932	4837
2476.891	4778
2478.85	4829
2480.808	4815
2482.766	4884
2484.722	4872
2486.68	4929
2488.636	4826
2490.591	4908
2492.546	4773
2494.5	4843
2496.456	4824
2498.41	4785
2500.362	4819
2502.315	4862
2504.266	4840
2506.218	4869
2508.169	4729
2510.121	4826
2512.07	4773
2514.019	4751
2515.968	4788
2517.918	4795
2519.866	4855
2521.813	4798
2523.76	4841
2525.707	4822
2527.653	4880
2529.599	4795
2531.543	4901
2533.489	4811
2535.433	4874
2537.376	4838
2539.32	4890
2541.264	4862
2543.205	4832
2545.147	4810
2547.087	4799
2549.029	4755
2550.969	4773
2552.908	4896
2554.847	4765
2556.786	4806
2558.724	4826
2560.663	4727
2562.6	4871
2564.537	4846
2566.473	4827
2568.408	4858
2570.345	4899
2572.28	4869
2574.214	4758
2576.148	4841
2578.081	4772
2580.014	4813
2581.947	4846
2583.879	4836
2585.81	4836
2587.741	4812
2589.67	4854
2591.602	4889
2593.532	4837
2595.461	4735
2597.388	4849
2599.316	4819
2601.244	4796
2603.172	4824
2605.098	4833
2607.023	4845
2608.949	4918
2610.873	4812
2612.8	4955
2614.723	4794
2616.647	4815
2618.569	4834
2620.493	4852
2622.416	4789
2624.338	4799
2626.258	4861
2628.179	4842
2630.099	4812
2632.019	4956
2633.939	4884
2635.857	4842
2637.775	4811
2639.694	4867
2641.61	4938
2643.528	4827
2645.444	4790
2647.361	4782
2649.276	4833
2651.19	4822
2653.105	4710
2655.019	4828
2656.934	4858
2658.846	4836
2660.758	4877
2662.67	4853
2664.583	4856
2666.493	4856
2668.404	4867
2670.313	4811
2672.223	4872
2674.134	4830
2676.042	4844
2677.95	4835
2679.858	4864
2681.765	4777
2683.673	4748
2685.579	4767
2687.483	4850
2689.389	4839
2691.294	4851
2693.198	4797
2695.104	4762
2697.006	4866
2698.909	4799
2700.811	4771
2702.713	4807
2704.615	4758
2706.516	4786
2708.417	4924
2710.316	4740
2712.216	4763
2714.115	4760
2716.014	4870
2717.913	4761
2719.81	4755
2721.707	4731
2723.603	4790
2725.501	4797
2727.396	4805
2729.292	4734
2731.186	4791
2733.081	4833
2734.976	4714
2736.87	4793
2738.762	4705
2740.653	4674
2742.546	4728
2744.437	4786
2746.329	4741
2748.22	4743
2750.11	4775
2751.999	4721
2753.889	4824
2755.778	4809
2757.666	4744
2759.553	4721
2761.44	4712
2763.328	4665
2765.215	4783
2767.101	4764
2768.986	4572
2770.87	4727
2772.754	4746
2774.638	4724
2776.523	4755
2778.405	4776
2780.288	4740
2782.17	4757
2784.051	4746
2785.934	4755
2787.814	4704
2789.694	4804
2791.574	4740
2793.453	4811
2795.332	4727
2797.212	4662
2799.088	4755
2800.966	4720
2802.843	4665
2804.719	4714
2806.597	4690
2808.471	4682
2810.346	4687
2812.221	4680
2814.094	4697
2815.969	4751
2817.843	4734
2819.714	4761
2821.587	4605
2823.459	4629
2825.329	4591
2827.202	4689
2829.072	4745
2830.942	4666
2832.811	4680
2834.68	4757
2836.549	4611
2838.418	4637
2840.284	4641
2842.152	4670
2844.018	4617
2845.885	4638
2847.751	4607
2849.616	4729
2851.482	4679
2853.345	4729
2855.208	4743
2857.074	4727
2858.937	4636
2860.799	4710
2862.66	4642
2864.522	4852
2866.385	4650
2868.245	4716
2870.104	4653
2871.964	4687
2873.824	4816
2875.683	4720
2877.542	4822
2879.4	4856
2881.257	4773
2883.114	4866
2884.97	4929
2886.827	4876
2888.683	4868
2890.537	4887
2892.392	4826
2894.246	4842
2896.1	4741
2897.954	4779
2899.807	4800
2901.66	4861
2903.51	4714
2905.362	4823
2907.214	4758
2909.065	4730
2910.915	4923
2912.765	4793
2914.613	4828
2916.463	4851
2918.311	4823
2920.158	4806
2922.006	4840
2923.853	4953
2925.698	4931
2927.546	4889
2929.392	5008
2931.236	4959
2933.081	5058
2934.924	4971
2936.77	4976
2938.613	4991
2940.455	5102
2942.298	5009
2944.139	5057
2945.982	4983
2947.823	5058
2949.662	5003
2951.503	5111
2953.342	4919
2955.182	4965
2957.021	5017
2958.858	4910
2960.697	4940
2962.534	4969
2964.37	4966
2966.207	4810
2968.044	4814
2969.879	4837
2971.714	4768
2973.548	4759
2975.383	4801
2977.218	4681
2979.051	4831
2980.883	4815
2982.715	4705
2984.547	4757
2986.379	4725
2988.21	4632
2990.04	4749
2991.87	4731
2993.7	4748
2995.53	4686
2997.359	4770
2999.187	4654
3001.015	4719
3002.842	4632
3004.669	4706
3006.497	4673
3008.323	4660
3010.148	4641
3011.974	4597
3013.797	4638
3015.623	4637
3017.447	4512
3019.27	4600
3021.094	4609
3022.915	4475
3024.737	4516
3026.56	4526
3028.38	4567
3030.201	4472
3032.022	4572
3033.84	4464
3035.662	4456
3037.481	4569
3039.298	4453
3041.117	4427
3042.933	4538
3044.752	4501
3046.568	4421
3048.385	4428
3050.2	4515
3052.016	4530
3053.83	4400
3055.646	4435
3057.46	4450
3059.272	4460
3061.086	4484
3062.898	4509
3064.711	4448
3066.524	4528
3068.335	4473
3070.145	4458
3071.956	4469
3073.766	4511
3075.576	4387
3077.385	4456
3079.193	4440
3081.002	4401
3082.81	4427
3084.618	4462
3086.425	4401
3088.231	4480
3090.036	4383
3091.842	4446
3093.648	4345
3095.452	4351
3097.257	4296
3099.06	4378
3100.863	4336
3102.666	4409
3104.47	4336
3106.272	4275
3108.073	4285
3109.875	4291
3111.676	4308
3113.477	4383
3115.277	4345
3117.077	4330
3118.874	4349
3120.673	4401
3122.473	4244
3124.271	4413
3126.066	4332
3127.863	4267
3129.66	4278
3131.456	4303
3133.252	4345
3135.047	4303
3136.842	4206
3138.635	4313
3140.429	4240
3142.223	4376
3144.016	4280
3145.808	4314
3147.6	4304
3149.392	4279
3151.183	4308
3152.975	4145
3154.765	4204
3156.553	4333
3158.344	4253
3160.132	4269
3161.922	4284
3163.71	4216
3165.497	4299
3167.285	4265
3169.071	4187
3170.858	4243
3172.645	4284
3174.429	4298
3176.214	4281
3177.998	4198
3179.783	4170
3181.568	4181
3183.351	4212
3185.133	4253
3186.915	4237
3188.698	4287
3190.481	4230
3192.261	4205
3194.042	4242
3195.822	4214
3197.601	4176
3199.381	4213
3201.161	4127
3202.939	4206
3204.717	4192
3206.495	4195
3208.272	4247
3210.05	4158
3211.826	4147
3213.602	4090
3215.376	4102
3217.151	4245
3218.927	4202
3220.702	4131
3222.476	4154
3224.249	4175
3226.021	4236
3227.793	4166
3229.567	4123
3231.339	4211
3233.109	4114
3234.88	4173
3236.651	4201
3238.421	4172
3240.191	4128
3241.96	4152
3243.728	4146
3245.497	4226
3247.263	4218
3249.033	4183
3250.799	4140
3252.566	4103
3254.331	4127
3256.097	4189
3257.863	4184
3259.628	4147
3261.392	4075
3263.156	4102
3264.919	4182
3266.683	4152
3268.447	4170
3270.208	4163
3271.969	4162
3273.731	4092
3275.492	4200
3277.253	4154
3279.013	4122
3280.773	4089
3282.532	4080
3284.291	4122
3286.05	4146
3287.808	4176
3289.566	4139
3291.323	4174
3293.079	4142
3294.835	4154
3296.593	4145
3298.348	4034
3300.102	4151
3301.857	4054
3303.611	4129
3305.366	4091
3307.119	4133
3308.872	4145
3310.624	4235
3312.376	4138
3314.129	4132
3315.881	4118
3317.631	4112
3319.38	4089
3321.13	4130
3322.88	4116
3324.631	4091
3326.379	4159
3328.126	4137
3329.875	4014
3331.622	4111
3333.371	4075
3335.116	4026
3336.863	4060
3338.609	4079
3340.353	4112
3342.1	4004
3343.845	4061
3345.588	4032
3347.332	4047
3349.074	4031
3350.817	4081
3352.56	4082
3354.303	4056
3356.043	4092
3357.785	4087
3359.525	4054
3361.268	3947
3363.007	4025
3364.745	4123
3366.485	4047
3368.223	4100
3369.962	3927
3371.701	4067
3373.438	3993
3375.174	4081
3376.911	4006
3378.647	4010
3380.384	3993
3382.118	3945
3383.854	4049
3385.588	3999
3387.322	3964
3389.057	4037
3390.79	4046
3392.522	4043
3394.255	4053
3395.987	3972
3397.719	3945
3399.451	4050
3401.181	3999
3402.911	4017
3404.641	3998
3406.371	4031
3408.101	4047
3409.83	4014
3411.558	4041
3413.285	4063
3415.011	3975
3416.739	4017
3418.467	3921
3420.193	3960
3421.919	4003
3423.644	3938
3425.368	3964
3427.094	3884
3428.818	4027
3430.542	3998
3432.264	3945
3433.987	3962
3435.712	3942
3437.434	4017
3439.155	4012
3440.876	3926
3442.596	3892
3444.317	3980
3446.039	3886
3447.757	3919
3449.477	3984
3451.195	3880
3452.914	3948
3454.632	3903
3456.35	3875
3458.067	3913
3459.784	3875
3461.5	3943
3463.216	3926
3464.932	3845
3466.647	3887
3468.362	3843
3470.076	3874
3471.789	3852
3473.505	3875
3475.217	3835
3476.929	3872
3478.641	3867
3480.354	3853
3482.066	3833
3483.777	3839
3485.487	3812
3487.197	3795
3488.908	3822
3490.617	3894
3492.327	3822
3494.035	3822
3495.743	3809
3497.451	3777
3499.158	3825
3500.866	3847
3502.572	3842
3504.278	3727
3505.984	3787
3507.689	3853
3509.396	3754
3511.1	3770
3512.804	3795
3514.508	3777
3516.211	3743
3517.913	3807
3519.616	3777
3521.319	3753
3523.021	3772
3524.722	3684
3526.422	3766
3528.124	3773
3529.824	3742
3531.524	3871
3533.222	3761
3534.921	3829
3536.62	3837
3538.318	3717
3540.016	3799
3541.714	3735
3543.41	3834
3545.107	3745
3546.803	3805
3548.5	3777
3550.194	3710
3551.889	3786
3553.583	3737
3555.279	3780
3556.972	3766
3558.666	3790
3560.358	3773
3562.051	3701
3563.742	3701
3565.435	3659
3567.126	3705
3568.817	3708
3570.507	3697
3572.197	3737
3573.888	3743
3575.577	3754
3577.265	3718
3578.954	3679
3580.642	3720
3582.329	3634
3584.017	3685
3585.704	3688
3587.391	3690
3589.077	3608
3590.762	3743
3592.449	3671
3594.133	3737
3595.817	3656
3597.501	3718
3599.185	3647
3600.869	3707
3602.552	3610
3604.234	3575
3605.916	3696
3607.598	3621
3609.279	3585
3610.961	3605
3612.642	3615
3614.321	3622
3616	3595
3617.68	3622
3619.36	3616
3621.039	3491
3622.716	3618
3624.394	3566
3626.071	3617
3627.748	3594
3629.425	3543
3631.102	3570
3632.778	3607
3634.452	3497
3636.127	3535
3637.803	3574
3639.477	3512
3641.151	3523
3642.823	3564
3644.497	3568
3646.171	3618
3647.842	3576
3649.515	3669
3651.185	3573
3652.857	3645
3654.527	3545
3656.198	3518
3657.868	3504
3659.537	3553
3661.207	3566
3662.875	3502
3664.544	3433
3666.212	3506
3667.879	3513
3669.546	3573
3671.212	3493
3672.88	3547
3674.546	3509
3676.211	3527
3677.875	3491
3679.541	3519
3681.205	3521
3682.87	3426
3684.533	3529
3686.196	3526
3687.859	3446
3689.521	3519
3691.184	3571
3692.845	3556
3694.507	3409
3696.167	3532
3697.827	3477
3699.487	3428
3701.148	3475
3702.808	3456
3704.466	3343
3706.125	3419
3707.783	3457
3709.442	3465
3711.099	3430
3712.757	3441
3714.412	3533
3716.068	3383
3717.725	3448
3719.381	3433
3721.036	3484
3722.689	3420
3724.344	3514
3725.998	3428
3727.652	3406
3729.305	3474
3730.958	3380
3732.61	3437
3734.262	3437
3735.915	3420
3737.565	3468
3739.217	3468
3740.866	3532
3742.516	3404
3744.165	3539
3745.816	3488
3747.464	3339
3749.113	3457
3750.761	3402
3752.409	3467
3754.057	3470
3755.703	3400
3757.35	3385
3758.996	3334
3760.641	3452
3762.289	3410
3763.933	3387
3765.577	3399
3767.222	3459
3768.865	3369
3770.508	3441
3772.152	3456
3773.796	3396
3775.438	3308
3777.079	3428
3778.721	3402
3780.363	3332
3782.003	3377
3783.643	3360
3785.283	3423
3786.923	3320
3788.563	3279
3790.203	3323
3791.841	3353
3793.479	3312
3795.115	3414
3796.753	3323
3798.391	3344
3800.027	3324
3801.664	3368
3803.299	3309
3804.935	3402
3806.571	3300
3808.206	3313
3809.839	3235
3811.473	3263
3813.107	3288
3814.74	3270
3816.375	3395
3818.006	3296
3819.638	3318
3821.27	3283
3822.9	3214
3824.532	3318
3826.163	3233
3827.792	3268
3829.423	3263
3831.051	3288
3832.682	3348
3834.311	3262
3835.938	3248
3837.566	3301
3839.193	3278
3840.821	3277
3842.448	3217
3844.075	3260
3845.7	3230
3847.325	3285
3848.951	3273
3850.576	3245
3852.201	3257
3853.825	3287
3855.448	3215
3857.072	3169
3858.694	3212
3860.318	3184
3861.939	3195
3863.562	3242
3865.183	3155
3866.804	3281
3868.426	3192
3870.045	3186
3871.666	3235
3873.285	3227
3874.904	3227
3876.524	3210
3878.142	3176
3879.76	3181
3881.378	3175
3882.995	3177
3884.612	3189
3886.229	3151
3887.845	3182
3889.461	3303
3891.076	3203
3892.691	3229
3894.307	3191
3895.922	3151
3897.536	3158
3899.149	3240
3900.761	3181
3902.374	3211
3903.988	3221
3905.6	3118
3907.212	3181
3908.822	3139
3910.433	3118
3912.045	3157
3913.655	3241
3915.265	3234
3916.875	3227
3918.483	3134
3920.093	3192
3921.702	3190
3923.309	3204
3924.917	3193
3926.523	3236
3928.13	3137
3929.739	3159
3931.344	3099
3932.95	3158
3934.555	3134
3936.159	3096
3937.766	3149
3939.369	3151
3940.974	3234
3942.577	3164
3944.181	3144
3945.783	3137
3947.386	3124
3948.989	3119
3950.59	3183
3952.191	3102
3953.791	3197
3955.394	3183
3956.994	3174
3958.593	3082
3960.192	3130
3961.791	3137
3963.392	3122
3964.99	3097
3966.588	3085
3968.185	3054
3969.782	3066
3971.379	3085
3972.976	3066
3974.572	3092
3976.168	3160
3977.763	3081
3979.358	3053
3980.954	3035
3982.548	3044
3984.142	3074
3985.736	3076
3987.329	3015
3988.922	3105
3990.516	3022
3992.108	2996
3993.698	3022
3995.29	3062
3996.881	3019
3998.473	2987
4000.064	3016
4001.653	3007
4003.242	3023
4004.832	2958
4006.422	3016
4008.01	2967
4009.598	2994
4011.186	2982
4012.773	2920
4014.36	2966
4015.947	2906
4017.534	2998
4019.119	2923
4020.705	2971
4022.291	2962
4023.876	3049
4025.461	3030
4027.044	2933
4028.627	2954
4030.211	2936
4031.795	3002
4033.378	2974
4034.96	2930
4036.542	2952
4038.124	2879
4039.704	2978
4041.286	2976
4042.867	2922
4044.447	2968
4046.026	2903
4047.606	2971
4049.187	2947
4050.765	2925
4052.343	2942
4053.92	2862
4055.498	2878
4057.076	2897
4058.654	2866
4060.23	2965
4061.806	2879
4063.381	2941
4064.957	2964
4066.533	2926
4068.107	2883
4069.682	2865
4071.256	2873
4072.829	2895
4074.404	2913
4075.977	2890
4077.549	2872
4079.121	2827
4080.693	2939
4082.265	2921
4083.836	2831
4085.407	2876
4086.977	2875
4088.547	2837
4090.117	2804
4091.687	2813
4093.256	2907
4094.825	2854
4096.392	2932
4097.96	2814
4099.528	2861
4101.097	2867
4102.663	2821
4104.229	2847
4105.795	2828
4107.361	2884
4108.928	2892
4110.493	2817
4112.058	2778
4113.621	2919
4115.186	2792
4116.75	2857
4118.313	2877
4119.876	2816
4121.438	2888
4123	2801
4124.562	2791
4126.125	2739
4127.686	2830
4129.246	2777
4130.807	2826
4132.367	2865
4133.927	2779
4135.486	2815
4137.046	2796
4138.604	2824
4140.162	2783
4141.72	2699
4143.279	2800
4144.836	2783
4146.393	2809
4147.949	2723
4149.505	2791
4151.062	2706
4152.617	2727
4154.172	2763
4155.727	2716
4157.281	2804
4158.836	2742
4160.39	2754
4161.943	2724
4163.496	2692
4165.048	2831
4166.601	2699
4168.154	2668
4169.706	2789
4171.257	2697
4172.808	2722
4174.358	2727
4175.909	2703
4177.458	2767
4179.008	2663
4180.558	2672
4182.106	2663
4183.655	2729
4185.204	2679
4186.751	2675
4188.298	2639
4189.845	2690
4191.392	2703
4192.939	2654
4194.485	2711
4196.031	2667
4197.576	2702
4199.121	2647
4200.666	2676
4202.211	2632
4203.754	2691
4205.298	2698
4206.84	2707
4208.384	2626
4209.927	2638
4211.47	2653
4213.011	2624
4214.552	2639
4216.094	2594
4217.635	2664
4219.175	2639
4220.716	2592
4222.255	2658
4223.793	2657
4225.335	2673
4226.873	2576
4228.411	2669
4229.948	2652
4231.486	2625
4233.024	2626
4234.562	2646
4236.098	2617
4237.634	2623
4239.169	2595
4240.705	2572
4242.241	2586
4243.776	2620
4245.31	2658
4246.844	2562
4248.378	2595
4249.911	2626
4251.445	2583
4252.978	2674
4254.51	2579
4256.042	2637
4257.574	2663
4259.107	2631
4260.638	2645
4262.169	2669
4263.699	2661
4265.228	2599
4266.759	2622
4268.289	2597
4269.818	2620
4271.345	2596
4272.874	2573
4274.402	2648
4275.931	2553
4277.458	2576
4278.985	2624
4280.512	2541
4282.037	2626
4283.564	2535
4285.089	2538
4286.615	2548
4288.139	2578
4289.664	2567
4291.187	2568
4292.712	2592
4294.235	2471
4295.759	2530
4297.281	2507
4298.804	2553
4300.327	2502
4301.849	2585
4303.37	2476
4304.891	2562
4306.412	2570
4307.933	2524
4309.453	2502
4310.973	2549
4312.492	2532
