398.1873	3248
400.7097	3299
403.2336	3318
405.7547	3183
408.2751	3265
410.7948	3301
413.3138	3275
415.83	3282
418.3497	3350
420.8666	3376
423.3829	3440
425.8985	3455
428.4133	3460
430.9275	3508
433.441	3488
435.9538	3415
438.4639	3422
440.9753	3466
443.4881	3404
445.9982	3458
448.5055	3535
451.0142	3429
453.5201	3517
456.0274	3465
458.5361	3512
461.04	3502
463.5453	3513
466.0478	3430
468.5517	3483
471.0549	3538
473.5574	3539
476.0572	3392
478.5584	3495
481.0568	3445
483.5545	3550
486.0557	3548
488.5521	3527
491.0478	3495
493.5449	3524
496.0392	3548
498.5349	3556
501.0299	3562
503.5222	3516
506.0139	3595
508.5048	3656
510.9991	3575
513.4887	3650
515.9777	3654
518.4659	3678
520.9534	3526
523.4403	3692
525.9306	3681
528.4161	3581
530.9009	3655
533.3851	3602
535.8687	3718
538.3535	3575
540.8356	3562
543.3171	3620
545.7979	3621
548.278	3561
550.7595	3706
553.2383	3625
555.7144	3611
558.1918	3658
560.6685	3630
563.1446	3715
565.6221	3588
568.0968	3715
570.5688	3698
573.0422	3640
575.515	3734
577.989	3648
580.4584	3740
582.9291	3712
585.3991	3687
587.8685	3747
590.3352	3722
592.8052	3768
595.2706	3747
597.7372	3707
600.2033	3718
602.6666	3775
605.1334	3729
607.5953	3693
610.0587	3683
612.5193	3742
614.9814	3671
617.4427	3762
619.9034	3696
622.3615	3724
624.8208	3730
627.2775	3744
629.7335	3732
632.1929	3691
634.6476	3778
637.1016	3699
639.5569	3739
642.0096	3753
644.4637	3616
646.9151	3728
649.3678	3834
651.8179	3739
654.2672	3749
656.7159	3866
659.166	3782
661.6154	3882
664.0622	3877
666.5082	3860
668.9537	3766
671.4005	3826
673.8445	3819
676.288	3803
678.7308	3823
681.1729	3863
683.6163	3822
686.0572	3925
688.4973	3854
690.9368	3846
693.3757	3809
695.8138	3944
698.2534	3864
700.6902	3910
703.1245	3859
705.56	3846
707.9949	3823
710.4311	3917
712.8647	3907
715.2957	3787
717.7279	3916
720.1595	3851
722.5905	3870
725.0208	3928
727.4505	3920
729.8795	3954
732.3058	3991
734.7336	3939
737.1626	4022
739.587	3997
742.0128	4028
744.4359	4039
746.8604	4062
749.2841	4118
751.7073	4057
754.1278	4028
756.5496	4011
758.9688	4059
761.3893	4005
763.8093	4131
766.2285	4078
768.6451	4114
771.0611	4097
773.4784	4163
775.895	4046
778.3091	4135
780.7244	4133
783.1371	4162
785.5493	4022
787.9626	4059
790.3754	4072
792.7856	4108
795.1951	4115
797.6039	4123
800.0121	4168
802.4236	4110
804.8306	4026
807.2369	4124
809.6425	4120
812.0475	4121
814.4538	4143
816.8575	4129
819.2606	4150
821.663	4179
824.0648	4230
826.4659	4196
828.8683	4202
831.2682	4100
833.6674	4211
836.066	4065
838.4639	4232
840.8632	4155
843.2579	4219
845.6539	4289
848.0493	4231
850.444	4192
852.84	4333
855.2315	4222
857.6243	4280
860.0165	4238
862.4081	4335
864.797	4186
867.1892	4238
869.5789	4248
871.9659	4261
874.3542	4239
876.74	4215
879.129	4217
881.5155	4138
883.8994	4260
886.2845	4165
888.6671	4199
891.051	4246
893.4343	4253
895.8169	4170
898.197	4144
900.5783	4296
902.9571	4273
905.3372	4246
907.7167	4252
910.0936	4211
912.4698	4279
914.8474	4344
917.2244	4335
919.5987	4367
921.9744	4480
924.3475	4400
926.72	4354
929.0918	4406
931.4669	4337
933.8375	4450
936.2074	4366
938.5767	4443
940.9454	4473
943.3154	4546
945.6829	4595
948.0497	4569
950.4178	4763
952.7833	4870
955.1483	4967
957.5145	4943
959.8782	5099
962.2412	5056
964.6036	4975
966.9655	4833
969.3266	4701
971.6871	4677
974.0471	4589
976.4064	4456
978.765	4493
981.125	4382
983.4824	4348
985.8373	4407
988.1935	4331
990.549	4375
992.9039	4333
995.2602	4405
997.6119	4334
999.965	4334
1002.317	4369
1004.667	4417
1007.02	4350
1009.371	4362
1011.719	4371
1014.068	4376
1016.415	4468
1018.765	4509
1021.111	4421
1023.458	4447
1025.804	4456
1028.147	4463
1030.49	4443
1032.837	4426
1035.179	4449
1037.522	4415
1039.862	4567
1042.204	4507
1044.546	4479
1046.884	4547
1049.224	4531
1051.562	4410
1053.899	4500
1056.237	4485
1058.575	4465
1060.91	4453
1063.244	4448
1065.58	4536
1067.913	4471
1070.248	4588
1072.579	4608
1074.911	4575
1077.242	4608
1079.572	4617
1081.905	4558
1084.234	4472
1086.562	4568
1088.89	4559
1091.217	4483
1093.544	4524
1095.871	4432
1098.197	4492
1100.521	4472
1102.845	4480
1105.169	4512
1107.491	4552
1109.814	4473
1112.135	4556
1114.456	4584
1116.776	4536
1119.096	4525
1121.415	4469
1123.734	4540
1126.052	4507
1128.369	4545
1130.686	4625
1133.002	4549
1135.318	4620
1137.632	4518
1139.945	4640
1142.258	4522
1144.573	4569
1146.884	4644
1149.196	4578
1151.505	4558
1153.816	4587
1156.124	4611
1158.435	4596
1160.742	4618
1163.051	4509
1165.356	4562
1167.663	4521
1169.97	4555
1172.276	4568
1174.579	4667
1176.881	4546
1179.186	4609
1181.487	4511
1183.79	4633
1186.092	4533
1188.392	4459
1190.691	4658
1192.991	4679
1195.291	4484
1197.588	4515
1199.885	4571
1202.181	4528
1204.479	4615
1206.775	4566
1209.07	4648
1211.363	4555
1213.656	4688
1215.949	4564
1218.241	4559
1220.534	4582
1222.825	4524
1225.115	4715
1227.405	4576
1229.693	4690
1231.984	4617
1234.271	4606
1236.558	4588
1238.845	4666
1241.131	4777
1243.416	4725
1245.703	4713
1247.987	4663
1250.269	4697
1252.552	4807
1254.834	4742
1257.118	4828
1259.399	4802
1261.678	4744
1263.958	4657
1266.237	4776
1268.516	4826
1270.794	4684
1273.072	4702
1275.347	4739
1277.624	4729
1279.899	4733
1282.175	4693
1284.449	4752
1286.722	4807
1288.995	4703
1291.266	4743
1293.54	4621
1295.81	4662
1298.081	4726
1300.35	4717
1302.62	4784
1304.889	4664
1307.156	4754
1309.425	4777
1311.69	4734
1313.957	4622
1316.222	4725
1318.488	4688
1320.751	4735
1323.016	4800
1325.278	4679
1327.54	4672
1329.803	4840
1332.065	4733
1334.325	4770
1336.584	4718
1338.843	4829
1341.101	4791
1343.36	4844
1345.617	4859
1347.876	4766
1350.131	4829
1352.387	4776
1354.643	4820
1356.897	4705
1359.151	4771
1361.403	4850
1363.656	4801
1365.909	4761
1368.16	4769
1370.409	4721
1372.659	4807
1374.909	4822
1377.157	4790
1379.407	4865
1381.655	4841
1383.9	4920
1386.147	4780
1388.393	4806
1390.64	4744
1392.885	4818
1395.127	4846
1397.37	4904
1399.614	4732
1401.854	4787
1404.098	4885
1406.339	4791
1408.578	4861
1410.818	4839
1413.056	4802
1415.297	4809
1417.533	4873
1419.771	4861
1422.006	4894
1424.243	4868
1426.479	4800
1428.715	4904
1430.948	4876
1433.182	4942
1435.414	4956
1437.647	4862
1439.88	4955
1442.11	4954
1444.342	4875
1446.571	5016
1448.799	4937
1451.029	4950
1453.258	4901
1455.485	4976
1457.711	4942
1459.937	4944
1462.164	5043
1464.39	4946
1466.614	5028
1468.838	4921
1471.06	4967
1473.283	4969
1475.506	4949
1477.727	4854
1479.949	4969
1482.169	4917
1484.389	4845
1486.609	4864
1488.828	4874
1491.045	4790
1493.261	4808
1495.477	4841
1497.693	4871
1499.91	4745
1502.125	4825
1504.339	4775
1506.553	4796
1508.766	4823
1510.979	4777
1513.191	4935
1515.402	4867
1517.613	4843
1519.823	4856
1522.033	4874
1524.242	4782
1526.451	4842
1528.657	4791
1530.865	4806
1533.072	4899
1535.278	4840
1537.484	4870
1539.687	4889
1541.892	4816
1544.096	4909
1546.299	4925
1548.502	4894
1550.703	4934
1552.905	5050
1555.104	4792
1557.303	4925
1559.505	4889
1561.703	4932
1563.902	4945
1566.099	4937
1568.295	4919
1570.494	4906
1572.689	4974
1574.883	5000
1577.079	4988
1579.272	5016
1581.467	5023
1583.659	5057
1585.853	5031
1588.044	4972
1590.234	4957
1592.424	4994
1594.615	5020
1596.806	5040
1598.994	4971
1601.182	5057
1603.369	4995
1605.557	5017
1607.744	5097
1609.929	5027
1612.114	5110
1614.298	4978
1616.482	5062
1618.667	5031
1620.85	5105
1623.032	5058
1625.214	5083
1627.395	5043
1629.575	5055
1631.755	5039
1633.935	5050
1636.114	5069
1638.292	4997
1640.471	5106
1642.647	5053
1644.823	5050
1647	5088
1649.175	5135
1651.348	4977
1653.525	5095
1655.698	5073
1657.87	5092
1660.043	5081
1662.213	5064
1664.387	5093
1666.558	5165
1668.727	5101
1670.896	5136
1673.064	5111
1675.233	5058
1677.401	5209
1679.569	5139
1681.735	5226
1683.902	5100
1686.066	5059
1688.233	5070
1690.397	5138
1692.559	5014
1694.723	4957
1696.885	5076
1699.048	4985
1701.21	4999
1703.37	5119
1705.53	5006
1707.689	5064
1709.849	5072
1712.009	5043
1714.166	5013
1716.323	4923
1718.479	5029
1720.634	5071
1722.793	5049
1724.948	5013
1727.102	5012
1729.255	4967
1731.408	4945
1733.562	5027
1735.714	5027
1737.865	5099
1740.016	5000
1742.166	5097
1744.316	5068
1746.467	5018
1748.616	5156
1750.764	5108
1752.911	5032
1755.056	5139
1757.205	5085
1759.35	5143
1761.496	5093
1763.641	5119
1765.785	5129
1767.927	5185
1770.072	5109
1772.214	5047
1774.355	5069
1776.496	5081
1778.637	5103
1780.778	5108
1782.918	5131
1785.057	4992
1787.194	5096
1789.333	5120
1791.472	5127
1793.608	5163
1795.745	5150
1797.879	5086
1800.015	5126
1802.148	5140
1804.284	5122
1806.417	5072
1808.548	5135
1810.682	5066
1812.812	5244
1814.946	5121
1817.075	5155
1819.205	5088
1821.335	5147
1823.463	5168
1825.59	5127
1827.721	5078
1829.847	5071
1831.973	5115
1834.098	5087
1836.223	5138
1838.351	5201
1840.475	5017
1842.598	5197
1844.721	5159
1846.843	5169
1848.966	4995
1851.087	5128
1853.21	5027
1855.33	5019
1857.449	5100
1859.568	5055
1861.688	5006
1863.806	5140
1865.924	5117
1868.039	5135
1870.155	5110
1872.273	5165
1874.388	5193
1876.503	5011
1878.617	5154
1880.73	5139
1882.844	5143
1884.956	5175
1887.068	5063
1889.18	5144
1891.291	5180
1893.4	5133
1895.511	5167
1897.621	5073
1899.73	5068
1901.837	5130
1903.944	5209
1906.053	5133
1908.159	5285
1910.265	5233
1912.369	5220
1914.474	5215
1916.577	5151
1918.683	5244
1920.785	5260
1922.888	5146
1924.989	5193
1927.091	5305
1929.193	5197
1931.294	5218
1933.393	5129
1935.493	5217
1937.59	5315
1939.689	5144
1941.788	5151
1943.884	5227
1945.98	5296
1948.077	5297
1950.171	5286
1952.267	5310
1954.361	5211
1956.455	5206
1958.548	5171
1960.64	5256
1962.733	5292
1964.824	5285
1966.915	5306
1969.005	5214
1971.096	5196
1973.185	5282
1975.275	5193
1977.363	5061
1979.45	5236
1981.537	5280
1983.623	5229
1985.711	5234
1987.796	5218
1989.881	5174
1991.965	5228
1994.047	5242
1996.132	5281
1998.215	5199
2000.297	5212
2002.378	5184
2004.46	5137
2006.54	5207
2008.62	5166
2010.7	5228
2012.779	5224
2014.858	5203
2016.934	5170
2019.013	5211
2021.09	5200
2023.165	5169
2025.241	5286
2027.317	5132
2029.39	5135
2031.466	5307
2033.538	5267
2035.612	5125
2037.683	5175
2039.755	5251
2041.827	5187
2043.898	5090
2045.968	5183
2048.038	5308
2050.106	5212
2052.177	5218
2054.244	5249
2056.313	5210
2058.379	5162
2060.444	5344
2062.511	5231
2064.577	5305
2066.641	5232
2068.705	5147
2070.77	5135
2072.832	5327
2074.896	5193
2076.958	5176
2079.02	5155
2081.081	5220
2083.141	5269
2085.2	5301
2087.261	5257
2089.319	5197
2091.377	5254
2093.435	5236
2095.492	5196
2097.552	5242
2099.607	5212
2101.663	5235
2103.718	5223
2105.771	5170
2107.826	5324
2109.879	5229
2111.932	5303
2113.985	5279
2116.037	5280
2118.088	5224
2120.141	5237
2122.191	5219
2124.239	5267
2126.288	5286
2128.337	5254
2130.387	5302
2132.434	5310
2134.481	5227
2136.528	5303
2138.574	5229
2140.618	5254
2142.665	5296
2144.71	5197
2146.753	5343
2148.797	5309
2150.838	5279
2152.883	5268
2154.923	5288
2156.965	5226
2159.007	5233
2161.046	5199
2163.086	5210
2165.126	5211
2167.163	5256
2169.202	5165
2171.239	5246
2173.277	5292
2175.314	5147
2177.349	5228
2179.385	5313
2181.42	5121
2183.453	5241
2185.49	5218
2187.522	5258
2189.555	5254
2191.586	5259
2193.619	5192
2195.651	5154
2197.682	5069
2199.711	5088
2201.74	5216
2203.769	5167
2205.799	5159
2207.828	5149
2209.855	5151
2211.882	5157
2213.908	5201
2215.934	5158
2217.961	5220
2219.986	5159
2222.01	5136
2224.034	5182
2226.057	5211
2228.08	5230
2230.104	5186
2232.124	5141
2234.145	5086
2236.166	5136
2238.186	5229
2240.207	5202
2242.227	5185
2244.244	5138
2246.262	5188
2248.28	5162
2250.299	5278
2252.314	5256
2254.33	5187
2256.346	5234
2258.36	5131
2260.375	5208
2262.391	5158
2264.403	5167
2266.416	5218
2268.427	5188
2270.44	5168
2272.453	5158
2274.463	5237
2276.474	5154
2278.483	5175
2280.493	5178
2282.501	5244
2284.51	5191
2286.518	5234
2288.524	5221
2290.532	5170
2292.537	5246
2294.544	5138
2296.55	5230
2298.554	5188
2300.557	5158
2302.562	5188
2304.566	5236
2306.568	5106
2308.569	5268
2310.572	5262
2312.573	5190
2314.573	5201
2316.574	5221
2318.573	5207
2320.571	5154
2322.571	5126
2324.569	5196
2326.567	5204
2328.564	5080
2330.56	5075
2332.556	5190
2334.551	5207
2336.546	5142
2338.542	5162
2340.535	5184
2342.529	5215
2344.521	5221
2346.512	5121
2348.505	5177
2350.497	5186
2352.487	5138
2354.478	5089
2356.468	5041
2358.457	5220
2360.446	5117
2362.434	5089
2364.422	5058
2366.408	5173
2368.395	5136
2370.383	5059
2372.369	5057
2374.353	5214
2376.338	5110
2378.321	5121
2380.307	5117
2382.29	5060
2384.272	5088
2386.254	5196
2388.235	5087
2390.218	5104
2392.198	5120
2394.179	4963
2396.157	5131
2398.137	5170
2400.115	5039
2402.095	5125
2404.072	5036
2406.048	5081
2408.026	5124
2410.001	5128
2411.977	5116
2413.953	4984
2415.927	5175
2417.9	5042
2419.875	5103
2421.847	5043
2423.821	5129
2425.792	5159
2427.763	5046
2429.736	5058
2431.706	4999
2433.677	5039
2435.646	5127
2437.615	5038
2439.583	5007
2441.551	5098
2443.519	5116
2445.486	5142
2447.452	5196
2449.418	5037
2451.383	5003
2453.348	5140
2455.314	5037
2457.278	5130
2459.241	5077
2461.205	5082
2463.167	5035
2465.131	5037
2467.091	5078
2469.052	5082
2471.012	5140
2472.972	5068
2474.932	5163
2476.891	5068
2478.85	5090
2480.808	5115
2482.766	5109
2484.722	5050
2486.68	4970
2488.636	5076
2490.591	5014
2492.546	4963
2494.5	5109
2496.456	5077
2498.41	5054
2500.362	5078
2502.315	5014
2504.266	5182
2506.218	4940
2508.169	4971
2510.121	5137
2512.07	5054
2514.019	5020
2515.968	5031
2517.918	5001
2519.866	4953
2521.813	5083
2523.76	5092
2525.707	5036
2527.653	4986
2529.599	4993
2531.543	5031
2533.489	4962
2535.433	4937
2537.376	5003
2539.32	4978
2541.264	5028
2543.205	5056
2545.147	4961
2547.087	4971
2549.029	5046
2550.969	5069
2552.908	5023
2554.847	5080
2556.786	4996
2558.724	5008
2560.663	5064
2562.6	5001
2564.537	5056
2566.473	5011
2568.408	4990
2570.345	5045
2572.28	5109
2574.214	4978
2576.148	4996
2578.081	5008
2580.014	5102
2581.947	5019
2583.879	5024
2585.81	5028
2587.741	5047
2589.67	5026
2591.602	4974
2593.532	5007
2595.461	4986
2597.388	5161
2599.316	5075
2601.244	4967
2603.172	5035
2605.098	5051
2607.023	4949
2608.949	5003
2610.873	5046
2612.8	5052
2614.723	5085
2616.647	5060
2618.569	5046
2620.493	5069
2622.416	5081
2624.338	5105
2626.258	5066
2628.179	5116
2630.099	4983
2632.019	5079
2633.939	5051
2635.857	5100
2637.775	5008
2639.694	5135
2641.61	5003
2643.528	5106
2645.444	5129
2647.361	5050
2649.276	5069
2651.19	5075
2653.105	5044
2655.019	5050
2656.934	5079
2658.846	5034
2660.758	4992
2662.67	5003
2664.583	5111
2666.493	5062
2668.404	5094
2670.313	5027
2672.223	5071
2674.134	4975
2676.042	5099
2677.95	5053
2679.858	5111
2681.765	4983
2683.673	5034
2685.579	5019
2687.483	5094
2689.389	5047
2691.294	4967
2693.198	5094
2695.104	4970
2697.006	5053
2698.909	5137
2700.811	5017
2702.713	4962
2704.615	5003
2706.516	5056
2708.417	5048
2710.316	4957
2712.216	4979
2714.115	4985
2716.014	4902
2717.913	4954
2719.81	4944
2721.707	5072
2723.603	4841
2725.501	5038
2727.396	5081
2729.292	5052
2731.186	4956
2733.081	4970
2734.976	5044
2736.87	5025
2738.762	4935
2740.653	4985
2742.546	5018
2744.437	4923
2746.329	4997
2748.22	4924
2750.11	4990
2751.999	4903
2753.889	5037
2755.778	4956
2757.666	5094
2759.553	4920
2761.44	4839
2763.328	5022
2765.215	5040
2767.101	4931
2768.986	4913
2770.87	4963
2772.754	4867
2774.638	4952
2776.523	4938
2778.405	4980
2780.288	5017
2782.17	4932
2784.051	4927
2785.934	5003
2787.814	5006
2789.694	4919
2791.574	4937
2793.453	4956
2795.332	4985
2797.212	4955
2799.088	4917
2800.966	4847
2802.843	4961
2804.719	4863
2806.597	4974
2808.471	4940
2810.346	5008
2812.221	4963
2814.094	4986
2815.969	4960
2817.843	4902
2819.714	5020
2821.587	4908
2823.459	4948
2825.329	4905
2827.202	4983
2829.072	4910
2830.942	4899
2832.811	5028
2834.68	4848
2836.549	4976
2838.418	4920
2840.284	4979
2842.152	4973
2844.018	4861
2845.885	4969
2847.751	4976
2849.616	4972
2851.482	4979
2853.345	4927
2855.208	4968
2857.074	4996
2858.937	4991
2860.799	5027
2862.66	5064
2864.522	4996
2866.385	5106
2868.245	5109
2870.104	5057
2871.964	5255
2873.824	5128
2875.683	5087
2877.542	5041
2879.4	5156
2881.257	5181
2883.114	5133
2884.97	5211
2886.827	5105
2888.683	5209
2890.537	5186
2892.392	5191
2894.246	5164
2896.1	5219
2897.954	5140
2899.807	5166
2901.66	5100
2903.51	5115
2905.362	5161
2907.214	5178
2909.065	5135
2910.915	5163
2912.765	5222
2914.613	5121
2916.463	5132
2918.311	5323
2920.158	5264
2922.006	5289
2923.853	5198
2925.698	5354
2927.546	5339
2929.392	5269
2931.236	5498
2933.081	5345
2934.924	5525
2936.77	5453
2938.613	5473
2940.455	5401
2942.298	5514
2944.139	5438
2945.982	5492
2947.823	5552
2949.662	5500
2951.503	5444
2953.342	5420
2955.182	5379
2957.021	5387
2958.858	5371
2960.697	5245
2962.534	5321
2964.37	5385
2966.207	5337
2968.044	5317
2969.879	5151
2971.714	5132
2973.548	5121
2975.383	5193
2977.218	5163
2979.051	5199
2980.883	5119
2982.715	5096
2984.547	5042
2986.379	5196
2988.21	5106
2990.04	5154
2991.87	5142
2993.7	5066
2995.53	5048
2997.359	5072
2999.187	5059
3001.015	5053
3002.842	4934
3004.669	4927
3006.497	4919
3008.323	4942
3010.148	4889
3011.974	4919
3013.797	4950
3015.623	4895
3017.447	4789
3019.27	4859
3021.094	4946
3022.915	4704
3024.737	4735
3026.56	4800
3028.38	4770
3030.201	4776
3032.022	4863
3033.84	4658
3035.662	4747
3037.481	4707
3039.298	4698
3041.117	4732
3042.933	4789
3044.752	4759
3046.568	4796
3048.385	4732
3050.2	4697
3052.016	4810
3053.83	4737
3055.646	4750
3057.46	4830
3059.272	4713
3061.086	4649
3062.898	4812
3064.711	4633
3066.524	4802
3068.335	4733
3070.145	4700
3071.956	4684
3073.766	4747
3075.576	4711
3077.385	4835
3079.193	4563
3081.002	4751
3082.81	4674
3084.618	4684
3086.425	4703
3088.231	4699
3090.036	4672
3091.842	4702
3093.648	4634
3095.452	4718
3097.257	4699
3099.06	4603
3100.863	4613
3102.666	4569
3104.47	4620
3106.272	4580
3108.073	4585
3109.875	4628
3111.676	4522
3113.477	4481
3115.277	4598
3117.077	4548
3118.874	4585
3120.673	4575
3122.473	4554
3124.271	4580
3126.066	4651
3127.863	4593
3129.66	4582
3131.456	4565
3133.252	4556
3135.047	4478
3136.842	4547
3138.635	4515
3140.429	4533
3142.223	4471
3144.016	4523
3145.808	4553
3147.6	4592
3149.392	4518
3151.183	4545
3152.975	4579
3154.765	4483
3156.553	4562
3158.344	4533
3160.132	4581
3161.922	4456
3163.71	4478
3165.497	4510
3167.285	4520
3169.071	4479
3170.858	4604
3172.645	4463
3174.429	4466
3176.214	4456
3177.998	4435
3179.783	4448
3181.568	4411
3183.351	4443
3185.133	4538
3186.915	4504
3188.698	4452
3190.481	4475
3192.261	4485
3194.042	4408
3195.822	4428
3197.601	4379
3199.381	4487
3201.161	4510
3202.939	4531
3204.717	4460
3206.495	4501
3208.272	4444
3210.05	4529
3211.826	4523
3213.602	4458
3215.376	4521
3217.151	4482
3218.927	4448
3220.702	4406
3222.476	4351
3224.249	4411
3226.021	4382
3227.793	4349
3229.567	4327
3231.339	4354
3233.109	4453
3234.88	4415
3236.651	4403
3238.421	4465
3240.191	4417
3241.96	4417
3243.728	4434
3245.497	4423
3247.263	4424
3249.033	4432
3250.799	4370
3252.566	4404
3254.331	4410
3256.097	4365
3257.863	4412
3259.628	4407
3261.392	4359
3263.156	4406
3264.919	4376
3266.683	4436
3268.447	4431
3270.208	4429
3271.969	4393
3273.731	4458
3275.492	4420
3277.253	4494
3279.013	4498
3280.773	4544
3282.532	4386
3284.291	4455
3286.05	4388
3287.808	4411
3289.566	4446
3291.323	4412
3293.079	4511
3294.835	4459
3296.593	4381
3298.348	4496
3300.102	4474
3301.857	4399
3303.611	4373
3305.366	4352
3307.119	4376
3308.872	4454
3310.624	4370
3312.376	4394
3314.129	4450
3315.881	4412
3317.631	4448
3319.38	4457
3321.13	4431
3322.88	4359
3324.631	4390
3326.379	4376
3328.126	4536
3329.875	4363
3331.622	4404
3333.371	4396
3335.116	4367
3336.863	4363
3338.609	4402
3340.353	4377
3342.1	4471
3343.845	4415
3345.588	4388
3347.332	4354
3349.074	4392
3350.817	4473
3352.56	4409
3354.303	4345
3356.043	4355
3357.785	4317
3359.525	4358
3361.268	4447
3363.007	4400
3364.745	4345
3366.485	4284
3368.223	4371
3369.962	4276
3371.701	4461
3373.438	4371
3375.174	4336
3376.911	4334
3378.647	4358
3380.384	4263
3382.118	4270
3383.854	4248
3385.588	4389
3387.322	4289
3389.057	4289
3390.79	4293
3392.522	4301
3394.255	4234
3395.987	4307
3397.719	4391
3399.451	4305
3401.181	4301
3402.911	4323
3404.641	4352
3406.371	4306
3408.101	4379
3409.83	4359
3411.558	4339
3413.285	4278
3415.011	4208
3416.739	4296
3418.467	4183
3420.193	4385
3421.919	4344
3423.644	4265
3425.368	4310
3427.094	4187
3428.818	4244
3430.542	4138
3432.264	4208
3433.987	4276
3435.712	4151
3437.434	4246
3439.155	4379
3440.876	4232
3442.596	4211
3444.317	4274
3446.039	4253
3447.757	4116
3449.477	4211
3451.195	4173
3452.914	4248
3454.632	4176
3456.35	4084
3458.067	4116
3459.784	4252
3461.5	4142
3463.216	4220
3464.932	4153
3466.647	4150
3468.362	4211
3470.076	4127
3471.789	4156
3473.505	4200
3475.217	4157
3476.929	4084
3478.641	4124
3480.354	4126
3482.066	4133
3483.777	4063
3485.487	4132
3487.197	4136
3488.908	4167
3490.617	4119
3492.327	4086
3494.035	4198
3495.743	4105
3497.451	4077
3499.158	4098
3500.866	4186
3502.572	4085
3504.278	4116
3505.984	4097
3507.689	4095
3509.396	4180
3511.1	4093
3512.804	4088
3514.508	4128
3516.211	4079
3517.913	4139
3519.616	4026
3521.319	4097
3523.021	4058
3524.722	4106
3526.422	4058
3528.124	4001
3529.824	4063
3531.524	4003
3533.222	4032
3534.921	4042
3536.62	4174
3538.318	4050
3540.016	4062
3541.714	4018
3543.41	4058
3545.107	3963
3546.803	3996
3548.5	4002
3550.194	3976
3551.889	4030
3553.583	4085
3555.279	4068
3556.972	4079
3558.666	4038
3560.358	3950
3562.051	4083
3563.742	3978
3565.435	4072
3567.126	3924
3568.817	4054
3570.507	3992
3572.197	3993
3573.888	4065
3575.577	3992
3577.265	4077
3578.954	3952
3580.642	4012
3582.329	3971
3584.017	3903
3585.704	3971
3587.391	3964
3589.077	3914
3590.762	3994
3592.449	3962
3594.133	3940
3595.817	3952
3597.501	3882
3599.185	3901
3600.869	3987
3602.552	4003
3604.234	3923
3605.916	3991
3607.598	3839
3609.279	3894
3610.961	3863
3612.642	3878
3614.321	3839
3616	3907
3617.68	3918
3619.36	3913
3621.039	3931
3622.716	3768
3624.394	3852
3626.071	3788
3627.748	3839
3629.425	3812
3631.102	3904
3632.778	3897
3634.452	3808
3636.127	3912
3637.803	3798
3639.477	3793
3641.151	3799
3642.823	3862
3644.497	3810
3646.171	3851
3647.842	3906
3649.515	3831
3651.185	3809
3652.857	3793
3654.527	3871
3656.198	3785
3657.868	3743
3659.537	3791
3661.207	3808
3662.875	3760
3664.544	3744
3666.212	3804
3667.879	3753
3669.546	3772
3671.212	3816
3672.88	3777
3674.546	3790
3676.211	3800
3677.875	3815
3679.541	3791
3681.205	3783
3682.87	3806
3684.533	3716
3686.196	3788
3687.859	3712
3689.521	3798
3691.184	3762
3692.845	3804
3694.507	3740
3696.167	3756
3697.827	3738
3699.487	3737
3701.148	3753
3702.808	3769
3704.466	3662
3706.125	3710
3707.783	3725
3709.442	3807
3711.099	3731
3712.757	3770
3714.412	3729
3716.068	3740
3717.725	3734
3719.381	3733
3721.036	3668
3722.689	3714
3724.344	3666
3725.998	3745
3727.652	3715
3729.305	3696
3730.958	3700
3732.61	3792
3734.262	3765
3735.915	3704
3737.565	3735
3739.217	3635
3740.866	3705
3742.516	3674
3744.165	3675
3745.816	3641
3747.464	3711
3749.113	3690
3750.761	3689
3752.409	3642
3754.057	3644
3755.703	3672
3757.35	3670
3758.996	3677
3760.641	3724
3762.289	3716
3763.933	3641
3765.577	3686
3767.222	3615
3768.865	3628
3770.508	3653
3772.152	3587
3773.796	3625
3775.438	3581
3777.079	3624
3778.721	3688
3780.363	3625
3782.003	3614
3783.643	3661
3785.283	3655
3786.923	3621
3788.563	3691
3790.203	3618
3791.841	3606
3793.479	3591
3795.115	3514
3796.753	3548
3798.391	3524
3800.027	3478
3801.664	3529
3803.299	3552
3804.935	3575
3806.571	3541
3808.206	3618
3809.839	3576
3811.473	3569
3813.107	3578
3814.74	3586
3816.375	3587
3818.006	3578
3819.638	3631
3821.27	3565
3822.9	3526
3824.532	3576
3826.163	3580
3827.792	3589
3829.423	3549
3831.051	3471
3832.682	3569
3834.311	3541
3835.938	3564
3837.566	3517
3839.193	3483
3840.821	3514
3842.448	3510
3844.075	3517
3845.7	3529
3847.325	3487
3848.951	3539
3850.576	3484
3852.201	3511
3853.825	3468
3855.448	3485
3857.072	3484
3858.694	3511
3860.318	3462
3861.939	3492
3863.562	3394
3865.183	3504
3866.804	3431
3868.426	3420
3870.045	3492
3871.666	3443
3873.285	3424
3874.904	3450
3876.524	3474
3878.142	3456
3879.76	3544
3881.378	3407
3882.995	3496
3884.612	3517
3886.229	3404
3887.845	3316
3889.461	3475
3891.076	3476
3892.691	3413
3894.307	3374
3895.922	3467
3897.536	3389
3899.149	3415
3900.761	3437
3902.374	3537
3903.988	3450
3905.6	3485
3907.212	3431
3908.822	3395
3910.433	3447
3912.045	3468
3913.655	3390
3915.265	3427
3916.875	3448
3918.483	3432
3920.093	3454
3921.702	3370
3923.309	3365
3924.917	3415
3926.523	3387
3928.13	3490
3929.739	3371
3931.344	3360
3932.95	3391
3934.555	3376
3936.159	3441
3937.766	3442
3939.369	3400
3940.974	3374
3942.577	3369
3944.181	3432
3945.783	3306
3947.386	3357
3948.989	3357
3950.59	3384
3952.191	3459
3953.791	3369
3955.394	3378
3956.994	3351
3958.593	3502
3960.192	3309
3961.791	3311
3963.392	3395
3964.99	3398
3966.588	3371
3968.185	3422
3969.782	3400
3971.379	3393
3972.976	3354
3974.572	3318
3976.168	3282
3977.763	3305
3979.358	3312
3980.954	3293
3982.548	3350
3984.142	3266
3985.736	3337
3987.329	3296
3988.922	3292
3990.516	3259
3992.108	3201
3993.698	3279
3995.29	3377
3996.881	3203
3998.473	3279
4000.064	3270
4001.653	3284
4003.242	3275
4004.832	3223
4006.422	3275
4008.01	3263
4009.598	3264
4011.186	3252
4012.773	3174
4014.36	3270
4015.947	3189
4017.534	3212
4019.119	3172
4020.705	3278
4022.291	3209
4023.876	3194
4025.461	3190
4027.044	3249
4028.627	3263
4030.211	3204
4031.795	3226
4033.378	3222
4034.96	3214
4036.542	3168
4038.124	3165
4039.704	3136
4041.286	3180
4042.867	3183
4044.447	3165
4046.026	3111
4047.606	3214
4049.187	3148
4050.765	3162
4052.343	3165
4053.92	3180
4055.498	3203
4057.076	3139
4058.654	3120
4060.23	3159
4061.806	3119
4063.381	3123
4064.957	3223
4066.533	3127
4068.107	3108
4069.682	3200
4071.256	3187
4072.829	3115
4074.404	3052
4075.977	3127
4077.549	3164
4079.121	3158
4080.693	3156
4082.265	3110
4083.836	3148
4085.407	3096
4086.977	3076
4088.547	3156
4090.117	3127
4091.687	3109
4093.256	3148
4094.825	3044
4096.392	3098
4097.96	3118
4099.528	3144
4101.097	3065
4102.663	3069
4104.229	3128
4105.795	3164
4107.361	3096
4108.928	3146
4110.493	3132
4112.058	3050
4113.621	3095
4115.186	3108
4116.75	3040
4118.313	3057
4119.876	3080
4121.438	3045
4123	2998
4124.562	3013
4126.125	2987
4127.686	3109
4129.246	3066
4130.807	3003
4132.367	3117
4133.927	3009
4135.486	3014
4137.046	2972
4138.604	2971
4140.162	3025
4141.72	3044
4143.279	3020
4144.836	2951
4146.393	3067
4147.949	2946
4149.505	2994
4151.062	2976
4152.617	3045
4154.172	3010
4155.727	2969
4157.281	2983
4158.836	2999
4160.39	2950
4161.943	2968
4163.496	2963
4165.048	3007
4166.601	3008
4168.154	2916
4169.706	2927
4171.257	2959
4172.808	2986
4174.358	2970
4175.909	2935
4177.458	2969
4179.008	2911
4180.558	2882
4182.106	2916
4183.655	2910
4185.204	2884
4186.751	2991
4188.298	2871
4189.845	2949
4191.392	2913
4192.939	2906
4194.485	2952
4196.031	2909
4197.576	2900
4199.121	2866
4200.666	2896
4202.211	2904
4203.754	2869
4205.298	2926
4206.84	2894
4208.384	2920
4209.927	2901
4211.47	2925
4213.011	2849
4214.552	2917
4216.094	2944
4217.635	2937
4219.175	2900
4220.716	2837
4222.255	2897
4223.793	2954
4225.335	2846
4226.873	2917
4228.411	2877
4229.948	2897
4231.486	2933
4233.024	2893
4234.562	2857
4236.098	2874
4237.634	2908
4239.169	2815
4240.705	2851
4242.241	2883
4243.776	2877
4245.31	2900
4246.844	2830
4248.378	2806
4249.911	2825
4251.445	2915
4252.978	2814
4254.51	2812
4256.042	2862
4257.574	2846
4259.107	2830
4260.638	2909
4262.169	2816
4263.699	2827
4265.228	2823
4266.759	2878
4268.289	2829
4269.818	2772
4271.345	2801
4272.874	2833
4274.402	2785
4275.931	2817
4277.458	2864
4278.985	2791
4280.512	2790
4282.037	2836
4283.564	2810
4285.089	2773
4286.615	2761
4288.139	2893
4289.664	2859
4291.187	2777
4292.712	2794
4294.235	2788
4295.759	2774
4297.281	2719
4298.804	2758
4300.327	2768
4301.849	2772
4303.37	2734
4304.891	2805
4306.412	2770
4307.933	2736
4309.453	2765
4310.973	2746
4312.492	2744
