398.1873	6838
400.7097	6815
403.2336	6790
405.7547	6940
408.2751	6961
410.7948	6857
413.3138	6904
415.83	7034
418.3497	7005
420.8666	7075
423.3829	7039
425.8985	7201
428.4133	7198
430.9275	7254
433.441	7158
435.9538	7209
438.4639	7307
440.9753	7372
443.4881	7264
445.9982	7295
448.5055	7212
451.0142	7375
453.5201	7304
456.0274	7233
458.5361	7242
461.04	7213
463.5453	7347
466.0478	7235
468.5517	7320
471.0549	7333
473.5574	7424
476.0572	7424
478.5584	7320
481.0568	7446
483.5545	7497
486.0557	7369
488.5521	7452
491.0478	7559
493.5449	7456
496.0392	7610
498.5349	7522
501.0299	7678
503.5222	7546
506.0139	7569
508.5048	7716
510.9991	7413
513.4887	7587
515.9777	7676
518.4659	7695
520.9534	7617
523.4403	7665
525.9306	7622
528.4161	7691
530.9009	7645
533.3851	7651
535.8687	7641
538.3535	7669
540.8356	7728
543.3171	7802
545.7979	7739
548.278	7619
550.7595	7678
553.2383	7742
555.7144	7587
558.1918	7751
560.6685	7764
563.1446	7773
565.6221	7745
568.0968	7879
570.5688	7703
573.0422	7742
575.515	7811
577.989	7883
580.4584	7956
582.9291	7982
585.3991	7952
587.8685	8001
590.3352	7970
592.8052	7856
595.2706	7988
597.7372	7965
600.2033	7936
602.6666	8030
605.1334	7887
607.5953	7794
610.0587	8003
612.5193	8014
614.9814	8014
617.4427	7943
619.9034	7922
622.3615	7886
624.8208	7945
627.2775	7882
629.7335	8038
632.1929	7935
634.6476	7917
637.1016	7993
639.5569	7973
642.0096	7959
644.4637	8068
646.9151	8099
649.3678	8102
651.8179	8024
654.2672	8027
656.7159	8122
659.166	8033
661.6154	8078
664.0622	8066
666.5082	8163
668.9537	8183
671.4005	8249
673.8445	8153
676.288	8162
678.7308	8308
681.1729	8129
683.6163	8237
686.0572	8257
688.4973	8171
690.9368	8098
693.3757	8185
695.8138	8349
698.2534	8312
700.6902	8233
703.1245	8459
705.56	8190
707.9949	8277
710.4311	8471
712.8647	8444
715.2957	8364
717.7279	8370
720.1595	8357
722.5905	8389
725.0208	8471
727.4505	8492
729.8795	8346
732.3058	8650
734.7336	8558
737.1626	8478
739.587	8568
742.0128	8596
744.4359	8751
746.8604	8532
749.2841	8795
751.7073	8660
754.1278	8790
756.5496	8744
758.9688	8639
761.3893	8842
763.8093	8753
766.2285	8800
768.6451	8814
771.0611	8745
773.4784	8811
775.895	8667
778.3091	9004
780.7244	8894
783.1371	8849
785.5493	8857
787.9626	8751
790.3754	8850
792.7856	8934
795.1951	8791
797.6039	8777
800.0121	8827
802.4236	8765
804.8306	8933
807.2369	8816
809.6425	8984
812.0475	8742
814.4538	8888
816.8575	8866
819.2606	8892
821.663	8965
824.0648	9000
826.4659	9048
828.8683	8873
831.2682	8926
833.6674	8998
836.066	9050
838.4639	8933
840.8632	8964
843.2579	8861
845.6539	9056
848.0493	9033
850.444	8973
852.84	9154
855.2315	8971
857.6243	9052
860.0165	9150
862.4081	9008
864.797	8894
867.1892	9146
869.5789	9141
871.9659	8914
874.3542	9173
876.74	8987
879.129	8980
881.5155	9114
883.8994	8954
886.2845	9056
888.6671	9084
891.051	8992
893.4343	9082
895.8169	8958
898.197	9056
900.5783	9027
902.9571	9090
905.3372	8868
907.7167	9129
910.0936	8962
912.4698	9238
914.8474	9151
917.2244	9132
919.5987	9303
921.9744	9297
924.3475	9226
926.72	9379
929.0918	9369
931.4669	9425
933.8375	9245
936.2074	9382
938.5767	9405
940.9454	9564
943.3154	9549
945.6829	9736
948.0497	9728
950.4178	9990
952.7833	10211
955.1483	10195
957.5145	10457
959.8782	10513
962.2412	10569
964.6036	10341
966.9655	10261
969.3266	9864
971.6871	9677
974.0471	9602
976.4064	9383
978.765	9403
981.125	9294
983.4824	9369
985.8373	9487
988.1935	9347
990.549	9242
992.9039	9311
995.2602	9349
997.6119	9380
999.965	9363
1002.317	9162
1004.667	9418
1007.02	9426
1009.371	9377
1011.719	9298
1014.068	9335
1016.415	9425
1018.765	9311
1021.111	9446
1023.458	9480
1025.804	9370
1028.147	9332
1030.49	9431
1032.837	9525
1035.179	9450
1037.522	9393
1039.862	9481
1042.204	9432
1044.546	9547
1046.884	9495
1049.224	9501
1051.562	9494
1053.899	9393
1056.237	9430
1058.575	9502
1060.91	9557
1063.244	9564
1065.58	9589
1067.913	9713
1070.248	9729
1072.579	9660
1074.911	9659
1077.242	9552
1079.572	9552
1081.905	9583
1084.234	9649
1086.562	9677
1088.89	9621
1091.217	9544
1093.544	9708
1095.871	9574
1098.197	9633
1100.521	9482
1102.845	9643
1105.169	9544
1107.491	9573
1109.814	9501
1112.135	9685
1114.456	9507
1116.776	9637
1119.096	9708
1121.415	9822
1123.734	9695
1126.052	9818
1128.369	9676
1130.686	9685
1133.002	9764
1135.318	9618
1137.632	9613
1139.945	9639
1142.258	9695
1144.573	9572
1146.884	9699
1149.196	9677
1151.505	9750
1153.816	9703
1156.124	9745
1158.435	9775
1160.742	9759
1163.051	9705
1165.356	9798
1167.663	9784
1169.97	9715
1172.276	9885
1174.579	9679
1176.881	9678
1179.186	9555
1181.487	9751
1183.79	9665
1186.092	9502
1188.392	9738
1190.691	9691
1192.991	9699
1195.291	9636
1197.588	9590
1199.885	9756
1202.181	9679
1204.479	9844
1206.775	9726
1209.07	9687
1211.363	9685
1213.656	9769
1215.949	9659
1218.241	9711
1220.534	9647
1222.825	9807
1225.115	9657
1227.405	9798
1229.693	9829
1231.984	9898
1234.271	9936
1236.558	9936
1238.845	10049
1241.131	9965
1243.416	10165
1245.703	10053
1247.987	10209
1250.269	9992
1252.552	10122
1254.834	10112
1257.118	10073
1259.399	10051
1261.678	9971
1263.958	10078
1266.237	9961
1268.516	10015
1270.794	9940
1273.072	10082
1275.347	10193
1277.624	10019
1279.899	9922
1282.175	9978
1284.449	9974
1286.722	9989
1288.995	9859
1291.266	9971
1293.54	9943
1295.81	9947
1298.081	9961
1300.35	9928
1302.62	9971
1304.889	10058
1307.156	9814
1309.425	9978
1311.69	9922
1313.957	9903
1316.222	9790
1318.488	9978
1320.751	9927
1323.016	10014
1325.278	9975
1327.54	10107
1329.803	9788
1332.065	10072
1334.325	10030
1336.584	10005
1338.843	10066
1341.101	9801
1343.36	9911
1345.617	10099
1347.876	9988
1350.131	10065
1352.387	9881
1354.643	9932
1356.897	9910
1359.151	10021
1361.403	9842
1363.656	9973
1365.909	10043
1368.16	10091
1370.409	10009
1372.659	9893
1374.909	10204
1377.157	10045
1379.407	10100
1381.655	10091
1383.9	10140
1386.147	10023
1388.393	10263
1390.64	9997
1392.885	10139
1395.127	10199
1397.37	10023
1399.614	10159
1401.854	10275
1404.098	10137
1406.339	10182
1408.578	10178
1410.818	10307
1413.056	10147
1415.297	10129
1417.533	10201
1419.771	10167
1422.006	10190
1424.243	10338
1426.479	10287
1428.715	10236
1430.948	10309
1433.182	10326
1435.414	10199
1437.647	10346
1439.88	10530
1442.11	10307
1444.342	10347
1446.571	10464
1448.799	10293
1451.029	10495
1453.258	10425
1455.485	10430
1457.711	10377
1459.937	10412
1462.164	10386
1464.39	10497
1466.614	10322
1468.838	10257
1471.06	10290
1473.283	10326
1475.506	10292
1477.727	10236
1479.949	10221
1482.169	10272
1484.389	10158
1486.609	10315
1488.828	10197
1491.045	10152
1493.261	10180
1495.477	10210
1497.693	10253
1499.91	10162
1502.125	10171
1504.339	10176
1506.553	10157
1508.766	10103
1510.979	10100
1513.191	10091
1515.402	10174
1517.613	10091
1519.823	10111
1522.033	10136
1524.242	10158
1526.451	10021
1528.657	10140
1530.865	10103
1533.072	10138
1535.278	10138
1537.484	10128
1539.687	10074
1541.892	10204
1544.096	10071
1546.299	10157
1548.502	10356
1550.703	10237
1552.905	10283
1555.104	10114
1557.303	10434
1559.505	10260
1561.703	10328
1563.902	10248
1566.099	10348
1568.295	10332
1570.494	10347
1572.689	10423
1574.883	10493
1577.079	10288
1579.272	10427
1581.467	10539
1583.659	10511
1585.853	10590
1588.044	10422
1590.234	10373
1592.424	10247
1594.615	10351
1596.806	10385
1598.994	10420
1601.182	10508
1603.369	10479
1605.557	10395
1607.744	10505
1609.929	10478
1612.114	10503
1614.298	10404
1616.482	10435
1618.667	10504
1620.85	10550
1623.032	10388
1625.214	10467
1627.395	10608
1629.575	10601
1631.755	10709
1633.935	10462
1636.114	10600
1638.292	10529
1640.471	10447
1642.647	10563
1644.823	10520
1647	10529
1649.175	10522
1651.348	10564
1653.525	10473
1655.698	10413
1657.87	10603
1660.043	10690
1662.213	10489
1664.387	10620
1666.558	10722
1668.727	10737
1670.896	10568
1673.064	10703
1675.233	10579
1677.401	10476
1679.569	10667
1681.735	10634
1683.902	10564
1686.066	10535
1688.233	10555
1690.397	10677
1692.559	10546
1694.723	10648
1696.885	10451
1699.048	10538
1701.21	10664
1703.37	10448
1705.53	10534
1707.689	10437
1709.849	10683
1712.009	10419
1714.166	10641
1716.323	10499
1718.479	10579
1720.634	10516
1722.793	10563
1724.948	10501
1727.102	10369
1729.255	10620
1731.408	10525
1733.562	10571
1735.714	10467
1737.865	10447
1740.016	10560
1742.166	10558
1744.316	10542
1746.467	10376
1748.616	10482
1750.764	10537
1752.911	10676
1755.056	10610
1757.205	10544
1759.35	10564
1761.496	10481
1763.641	10675
1765.785	10567
1767.927	10568
1770.072	10720
1772.214	10465
1774.355	10559
1776.496	10751
1778.637	10745
1780.778	10706
1782.918	10720
1785.057	10628
1787.194	10716
1789.333	10726
1791.472	10623
1793.608	10577
1795.745	10755
1797.879	10832
1800.015	10715
1802.148	10570
1804.284	10580
1806.417	10705
1808.548	10610
1810.682	10712
1812.812	10761
1814.946	10577
1817.075	10689
1819.205	10591
1821.335	10615
1823.463	10673
1825.59	10614
1827.721	10654
1829.847	10736
1831.973	10644
1834.098	10557
1836.223	10578
1838.351	10515
1840.475	10525
1842.598	10541
1844.721	10722
1846.843	10492
1848.966	10606
1851.087	10509
1853.21	10529
1855.33	10673
1857.449	10503
1859.568	10391
1861.688	10618
1863.806	10338
1865.924	10601
1868.039	10629
1870.155	10641
1872.273	10542
1874.388	10554
1876.503	10618
1878.617	10484
1880.73	10458
1882.844	10589
1884.956	10566
1887.068	10591
1889.18	10567
1891.291	10576
1893.4	10464
1895.511	10700
1897.621	10566
1899.73	10533
1901.837	10619
1903.944	10669
1906.053	10702
1908.159	10497
1910.265	10792
1912.369	10680
1914.474	10731
1916.577	10811
1918.683	10783
1920.785	10896
1922.888	10839
1924.989	10772
1927.091	10631
1929.193	10827
1931.294	10695
1933.393	10803
1935.493	10697
1937.59	10840
1939.689	10815
1941.788	10743
1943.884	10739
1945.98	10719
1948.077	10807
1950.171	10671
1952.267	10607
1954.361	10577
1956.455	10706
1958.548	10657
1960.64	10799
1962.733	10684
1964.824	10708
1966.915	10664
1969.005	10653
1971.096	10822
1973.185	10716
1975.275	10688
1977.363	10729
1979.45	10633
1981.537	10662
1983.623	10761
1985.711	10784
1987.796	10641
1989.881	10704
1991.965	10585
1994.047	10796
1996.132	10775
1998.215	10658
2000.297	10651
2002.378	10858
2004.46	10599
2006.54	10528
2008.62	10690
2010.7	10723
2012.779	10600
2014.858	10476
2016.934	10501
2019.013	10542
2021.09	10653
2023.165	10789
2025.241	10705
2027.317	10703
2029.39	10620
2031.466	10668
2033.538	10699
2035.612	10639
2037.683	10603
2039.755	10775
2041.827	10593
2043.898	10662
2045.968	10673
2048.038	10503
2050.106	10660
2052.177	10655
2054.244	10619
2056.313	10737
2058.379	10459
2060.444	10590
2062.511	10697
2064.577	10677
2066.641	10665
2068.705	10597
2070.77	10560
2072.832	10753
2074.896	10756
2076.958	10724
2079.02	10596
2081.081	10653
2083.141	10830
2085.2	10757
2087.261	10608
2089.319	10641
2091.377	10601
2093.435	10747
2095.492	10811
2097.552	10720
2099.607	10727
2101.663	10771
2103.718	10755
2105.771	10716
2107.826	10636
2109.879	10547
2111.932	10657
2113.985	10641
2116.037	10706
2118.088	10633
2120.141	10604
2122.191	10601
2124.239	10636
2126.288	10728
2128.337	10690
2130.387	10565
2132.434	10532
2134.481	10655
2136.528	10732
2138.574	10706
2140.618	10661
2142.665	10640
2144.71	10648
2146.753	10728
2148.797	10597
2150.838	10661
2152.883	10717
2154.923	10651
2156.965	10624
2159.007	10594
2161.046	10619
2163.086	10743
2165.126	10528
2167.163	10662
2169.202	10630
2171.239	10593
2173.277	10569
2175.314	10589
2177.349	10471
2179.385	10754
2181.42	10487
2183.453	10677
2185.49	10539
2187.522	10430
2189.555	10611
2191.586	10641
2193.619	10405
2195.651	10385
2197.682	10494
2199.711	10349
2201.74	10485
2203.769	10364
2205.799	10535
2207.828	10486
2209.855	10471
2211.882	10370
2213.908	10523
2215.934	10385
2217.961	10482
2219.986	10398
2222.01	10386
2224.034	10511
2226.057	10465
2228.08	10387
2230.104	10434
2232.124	10486
2234.145	10424
2236.166	10466
2238.186	10355
2240.207	10380
2242.227	10488
2244.244	10393
2246.262	10309
2248.28	10451
2250.299	10229
2252.314	10409
2254.33	10320
2256.346	10373
2258.36	10483
2260.375	10439
2262.391	10381
2264.403	10423
2266.416	10451
2268.427	10418
2270.44	10489
2272.453	10453
2274.463	10447
2276.474	10393
2278.483	10433
2280.493	10364
2282.501	10397
2284.51	10528
2286.518	10410
2288.524	10388
2290.532	10486
2292.537	10415
2294.544	10336
2296.55	10519
2298.554	10518
2300.557	10470
2302.562	10579
2304.566	10433
2306.568	10476
2308.569	10454
2310.572	10443
2312.573	10482
2314.573	10410
2316.574	10469
2318.573	10279
2320.571	10315
2322.571	10354
2324.569	10369
2326.567	10433
2328.564	10237
2330.56	10363
2332.556	10319
2334.551	10420
2336.546	10326
2338.542	10240
2340.535	10291
2342.529	10285
2344.521	10370
2346.512	10337
2348.505	10216
2350.497	10322
2352.487	10316
2354.478	10265
2356.468	10282
2358.457	10254
2360.446	10239
2362.434	10261
2364.422	10325
2366.408	10104
2368.395	10262
2370.383	10245
2372.369	10088
2374.353	10258
2376.338	10207
2378.321	10091
2380.307	10241
2382.29	10329
2384.272	10090
2386.254	10271
2388.235	10225
2390.218	10146
2392.198	10216
2394.179	10198
2396.157	10245
2398.137	10155
2400.115	10021
2402.095	10207
2404.072	10104
2406.048	10084
2408.026	10042
2410.001	10149
2411.977	10220
2413.953	10047
2415.927	10070
2417.9	10207
2419.875	10114
2421.847	10060
2423.821	10063
2425.792	10037
2427.763	10168
2429.736	10111
2431.706	10173
2433.677	10238
2435.646	9958
2437.615	10214
2439.583	10062
2441.551	10072
2443.519	10093
2445.486	10047
2447.452	10051
2449.418	10083
2451.383	10122
2453.348	9848
2455.314	10143
2457.278	10028
2459.241	10072
2461.205	10047
2463.167	10092
2465.131	10085
2467.091	10091
2469.052	10068
2471.012	10005
2472.972	9908
2474.932	9859
2476.891	9834
2478.85	9861
2480.808	10017
2482.766	10077
2484.722	10025
2486.68	9886
2488.636	10069
2490.591	9936
2492.546	10011
2494.5	10163
2496.456	9958
2498.41	9980
2500.362	10050
2502.315	10065
2504.266	10073
2506.218	9871
2508.169	9916
2510.121	9929
2512.07	9879
2514.019	9924
2515.968	9979
2517.918	9927
2519.866	9870
2521.813	10093
2523.76	10012
2525.707	9893
2527.653	10005
2529.599	9859
2531.543	10010
2533.489	9875
2535.433	9871
2537.376	9989
2539.32	9951
2541.264	9928
2543.205	9943
2545.147	9974
2547.087	10078
2549.029	9836
2550.969	9885
2552.908	9878
2554.847	9898
2556.786	9927
2558.724	9833
2560.663	9870
2562.6	9976
2564.537	9848
2566.473	9880
2568.408	9945
2570.345	9992
2572.28	9993
2574.214	9913
2576.148	10000
2578.081	9955
2580.014	9871
2581.947	10003
2583.879	9969
2585.81	9901
2587.741	9983
2589.67	9929
2591.602	10060
2593.532	9882
2595.461	10047
2597.388	10032
2599.316	10028
2601.244	9812
2603.172	9909
2605.098	10067
2607.023	9974
2608.949	9917
2610.873	9997
2612.8	9906
2614.723	9998
2616.647	9926
2618.569	9939
2620.493	9883
2622.416	9920
2624.338	9890
2626.258	9928
2628.179	9960
2630.099	9882
2632.019	10103
2633.939	9906
2635.857	9912
2637.775	10110
2639.694	9913
2641.61	10139
2643.528	9996
2645.444	9993
2647.361	9861
2649.276	9941
2651.19	10052
2653.105	9844
2655.019	10031
2656.934	10086
2658.846	10092
2660.758	10021
2662.67	9967
2664.583	10006
2666.493	9987
2668.404	9882
2670.313	9991
2672.223	9829
2674.134	9910
2676.042	9942
2677.95	9808
2679.858	9842
2681.765	9954
2683.673	9971
2685.579	9930
2687.483	9909
2689.389	9868
2691.294	10004
2693.198	9810
2695.104	9975
2697.006	9772
2698.909	9773
2700.811	9840
2702.713	9769
2704.615	9832
2706.516	9868
2708.417	9922
2710.316	9854
2712.216	9790
2714.115	9862
2716.014	9866
2717.913	9775
2719.81	9804
2721.707	9749
2723.603	9986
2725.501	9785
2727.396	9875
2729.292	9758
2731.186	9827
2733.081	9830
2734.976	9846
2736.87	9802
2738.762	9799
2740.653	9834
2742.546	9782
2744.437	9835
2746.329	9742
2748.22	9867
2750.11	9754
2751.999	9749
2753.889	9774
2755.778	9698
2757.666	9755
2759.553	9830
2761.44	9632
2763.328	9809
2765.215	9733
2767.101	9854
2768.986	9802
2770.87	9848
2772.754	9638
2774.638	9564
2776.523	9780
2778.405	9715
2780.288	9625
2782.17	9696
2784.051	9654
2785.934	9777
2787.814	9690
2789.694	9665
2791.574	9634
2793.453	9568
2795.332	9649
2797.212	9629
2799.088	9654
2800.966	9636
2802.843	9761
2804.719	9637
2806.597	9682
2808.471	9637
2810.346	9683
2812.221	9592
2814.094	9472
2815.969	9697
2817.843	9686
2819.714	9716
2821.587	9666
2823.459	9709
2825.329	9595
2827.202	9741
2829.072	9686
2830.942	9663
2832.811	9802
2834.68	9656
2836.549	9611
2838.418	9779
2840.284	9744
2842.152	9660
2844.018	9638
2845.885	9646
2847.751	9682
2849.616	9769
2851.482	9713
2853.345	9738
2855.208	9763
2857.074	9735
2858.937	9572
2860.799	9750
2862.66	9725
2864.522	9749
2866.385	9806
2868.245	9927
2870.104	9963
2871.964	9646
2873.824	9971
2875.683	10013
2877.542	9927
2879.4	10010
2881.257	10014
2883.114	10154
2884.97	10078
2886.827	10021
2888.683	10095
2890.537	10098
2892.392	10158
2894.246	10001
2896.1	10004
2897.954	10074
2899.807	10036
2901.66	10039
2903.51	10067
2905.362	10072
2907.214	10102
2909.065	9987
2910.915	9892
2912.765	10042
2914.613	10005
2916.463	10095
2918.311	10226
2920.158	10224
2922.006	10222
2923.853	10386
2925.698	10346
2927.546	10270
2929.392	10352
2931.236	10350
2933.081	10307
2934.924	10559
2936.77	10440
2938.613	10437
2940.455	10567
2942.298	10625
2944.139	10625
2945.982	10653
2947.823	10623
2949.662	10484
2951.503	10705
2953.342	10507
2955.182	10479
2957.021	10343
2958.858	10435
2960.697	10254
2962.534	10329
2964.37	10285
2966.207	10273
2968.044	10133
2969.879	10104
2971.714	10057
2973.548	9904
2975.383	10086
2977.218	10053
2979.051	9992
2980.883	9957
2982.715	9844
2984.547	9938
2986.379	9949
2988.21	9912
2990.04	9828
2991.87	9727
2993.7	9817
2995.53	9773
2997.359	9627
2999.187	9563
3001.015	9705
3002.842	9666
3004.669	9548
3006.497	9666
3008.323	9546
3010.148	9486
3011.974	9360
3013.797	9501
3015.623	9422
3017.447	9369
3019.27	9355
3021.094	9340
3022.915	9383
3024.737	9229
3026.56	9229
3028.38	9268
3030.201	9379
3032.022	9355
3033.84	9237
3035.662	9299
3037.481	9244
3039.298	9265
3041.117	9233
3042.933	9369
3044.752	9111
3046.568	9148
3048.385	9260
3050.2	9127
3052.016	9058
3053.83	9143
3055.646	9082
3057.46	9110
3059.272	9104
3061.086	9097
3062.898	9177
3064.711	9006
3066.524	9031
3068.335	9142
3070.145	9213
3071.956	9163
3073.766	9249
3075.576	9158
3077.385	9041
3079.193	8904
3081.002	9104
3082.81	9014
3084.618	9009
3086.425	8964
3088.231	9066
3090.036	9051
3091.842	9063
3093.648	8957
3095.452	9054
3097.257	8897
3099.06	8946
3100.863	9070
3102.666	8850
3104.47	8914
3106.272	8927
3108.073	8921
3109.875	8915
3111.676	9029
3113.477	8831
3115.277	8977
3117.077	8889
3118.874	8859
3120.673	8857
3122.473	8830
3124.271	8809
3126.066	8880
3127.863	8839
3129.66	8880
3131.456	8792
3133.252	8771
3135.047	8868
3136.842	8801
3138.635	8739
3140.429	8918
3142.223	8759
3144.016	8815
3145.808	8763
3147.6	8768
3149.392	8844
3151.183	8595
3152.975	8694
3154.765	8698
3156.553	8832
3158.344	8811
3160.132	8694
3161.922	8757
3163.71	8692
3165.497	8745
3167.285	8741
3169.071	8748
3170.858	8666
3172.645	8711
3174.429	8595
3176.214	8774
3177.998	8622
3179.783	8614
3181.568	8728
3183.351	8659
3185.133	8644
3186.915	8569
3188.698	8746
3190.481	8626
3192.261	8624
3194.042	8587
3195.822	8690
3197.601	8657
3199.381	8575
3201.161	8495
3202.939	8551
3204.717	8582
3206.495	8718
3208.272	8673
3210.05	8626
3211.826	8614
3213.602	8548
3215.376	8488
3217.151	8681
3218.927	8643
3220.702	8590
3222.476	8576
3224.249	8499
3226.021	8570
3227.793	8503
3229.567	8562
3231.339	8484
3233.109	8574
3234.88	8557
3236.651	8604
3238.421	8380
3240.191	8530
3241.96	8497
3243.728	8661
3245.497	8547
3247.263	8568
3249.033	8488
3250.799	8469
3252.566	8636
3254.331	8510
3256.097	8497
3257.863	8621
3259.628	8579
3261.392	8576
3263.156	8456
3264.919	8474
3266.683	8385
3268.447	8427
3270.208	8417
3271.969	8597
3273.731	8539
3275.492	8524
3277.253	8411
3279.013	8620
3280.773	8597
3282.532	8580
3284.291	8562
3286.05	8472
3287.808	8543
3289.566	8550
3291.323	8528
3293.079	8548
3294.835	8353
3296.593	8415
3298.348	8602
3300.102	8608
3301.857	8559
3303.611	8532
3305.366	8418
3307.119	8504
3308.872	8469
3310.624	8383
3312.376	8490
3314.129	8413
3315.881	8407
3317.631	8489
3319.38	8477
3321.13	8605
3322.88	8480
3324.631	8398
3326.379	8463
3328.126	8513
3329.875	8375
3331.622	8461
3333.371	8478
3335.116	8273
3336.863	8360
3338.609	8401
3340.353	8492
3342.1	8517
3343.845	8465
3345.588	8267
3347.332	8442
3349.074	8454
3350.817	8392
3352.56	8363
3354.303	8402
3356.043	8296
3357.785	8372
3359.525	8275
3361.268	8312
3363.007	8404
3364.745	8297
3366.485	8383
3368.223	8318
3369.962	8243
3371.701	8367
3373.438	8194
3375.174	8274
3376.911	8253
3378.647	8288
3380.384	8312
3382.118	8303
3383.854	8288
3385.588	8263
3387.322	8255
3389.057	8358
3390.79	8353
3392.522	8255
3394.255	8373
3395.987	8390
3397.719	8222
3399.451	8264
3401.181	8235
3402.911	8186
3404.641	8128
3406.371	8212
3408.101	8178
3409.83	8397
3411.558	8196
3413.285	8345
3415.011	8149
3416.739	8230
3418.467	8122
3420.193	8231
3421.919	8188
3423.644	8312
3425.368	8200
3427.094	8154
3428.818	8152
3430.542	8080
3432.264	8179
3433.987	8113
3435.712	8213
3437.434	8041
3439.155	8195
3440.876	8109
3442.596	7897
3444.317	8058
3446.039	8167
3447.757	7917
3449.477	8100
3451.195	8073
3452.914	8110
3454.632	8039
3456.35	8024
3458.067	7845
3459.784	7934
3461.5	8060
3463.216	7988
3464.932	7989
3466.647	8039
3468.362	7942
3470.076	7988
3471.789	8011
3473.505	8045
3475.217	7958
3476.929	8005
3478.641	7893
3480.354	8063
3482.066	7958
3483.777	7948
3485.487	7954
3487.197	7923
3488.908	7900
3490.617	7837
3492.327	7816
3494.035	7876
3495.743	7861
3497.451	7989
3499.158	7800
3500.866	7862
3502.572	7879
3504.278	7885
3505.984	7796
3507.689	7868
3509.396	7930
3511.1	7827
3512.804	7713
3514.508	7764
3516.211	7740
3517.913	7705
3519.616	7817
3521.319	7802
3523.021	7837
3524.722	7707
3526.422	7813
3528.124	7834
3529.824	7766
3531.524	7779
3533.222	7715
3534.921	7640
3536.62	7846
3538.318	7559
3540.016	7697
3541.714	7762
3543.41	7789
3545.107	7673
3546.803	7764
3548.5	7606
3550.194	7687
3551.889	7684
3553.583	7719
3555.279	7727
3556.972	7843
3558.666	7687
3560.358	7618
3562.051	7666
3563.742	7706
3565.435	7600
3567.126	7498
3568.817	7738
3570.507	7672
3572.197	7653
3573.888	7507
3575.577	7614
3577.265	7683
3578.954	7648
3580.642	7701
3582.329	7630
3584.017	7592
3585.704	7655
3587.391	7560
3589.077	7618
3590.762	7612
3592.449	7537
3594.133	7443
3595.817	7397
3597.501	7598
3599.185	7516
3600.869	7534
3602.552	7510
3604.234	7460
3605.916	7612
3607.598	7557
3609.279	7487
3610.961	7488
3612.642	7540
3614.321	7533
3616	7318
3617.68	7452
3619.36	7433
3621.039	7324
3622.716	7504
3624.394	7349
3626.071	7394
3627.748	7436
3629.425	7376
3631.102	7259
3632.778	7382
3634.452	7401
3636.127	7334
3637.803	7486
3639.477	7350
3641.151	7317
3642.823	7216
3644.497	7381
3646.171	7204
3647.842	7276
3649.515	7316
3651.185	7263
3652.857	7432
3654.527	7217
3656.198	7318
3657.868	7304
3659.537	7226
3661.207	7283
3662.875	7218
3664.544	7282
3666.212	7261
3667.879	7226
3669.546	7199
3671.212	7262
3672.88	7272
3674.546	7173
3676.211	7241
3677.875	7154
3679.541	7321
3681.205	7260
3682.87	7230
3684.533	7301
3686.196	7187
3687.859	7230
3689.521	7194
3691.184	7102
3692.845	7365
3694.507	7181
3696.167	7271
3697.827	7195
3699.487	7280
3701.148	7226
3702.808	7203
3704.466	7272
3706.125	7107
3707.783	7108
3709.442	7235
3711.099	7187
3712.757	7163
3714.412	7095
3716.068	7053
3717.725	7161
3719.381	7077
3721.036	7122
3722.689	7199
3724.344	7222
3725.998	7107
3727.652	7072
3729.305	7211
3730.958	7027
3732.61	7121
3734.262	7073
3735.915	7108
3737.565	7245
3739.217	7138
3740.866	7020
3742.516	7111
3744.165	7136
3745.816	7066
3747.464	7086
3749.113	7046
3750.761	7106
3752.409	7148
3754.057	7079
3755.703	7072
3757.35	7043
3758.996	7127
3760.641	7024
3762.289	7030
3763.933	6941
3765.577	7037
3767.222	7012
3768.865	7003
3770.508	6945
3772.152	7090
3773.796	7006
3775.438	7042
3777.079	6931
3778.721	7047
3780.363	7034
3782.003	6970
3783.643	6889
3785.283	7084
3786.923	6962
3788.563	7048
3790.203	6993
3791.841	6889
3793.479	6956
3795.115	7065
3796.753	6890
3798.391	6920
3800.027	6926
3801.664	6879
3803.299	6879
3804.935	6962
3806.571	6842
3808.206	6831
3809.839	6781
3811.473	6872
3813.107	6878
3814.74	6835
3816.375	6820
3818.006	6947
3819.638	6989
3821.27	6924
3822.9	6806
3824.532	6838
3826.163	6882
3827.792	6784
3829.423	6819
3831.051	6866
3832.682	6685
3834.311	6781
3835.938	6869
3837.566	6901
3839.193	6840
3840.821	6741
3842.448	6756
3844.075	6810
3845.7	6713
3847.325	6833
3848.951	6729
3850.576	6714
3852.201	6758
3853.825	6688
3855.448	6744
3857.072	6713
3858.694	6651
3860.318	6706
3861.939	6782
3863.562	6771
3865.183	6791
3866.804	6679
3868.426	6609
3870.045	6747
3871.666	6697
3873.285	6753
3874.904	6671
3876.524	6680
3878.142	6658
3879.76	6668
3881.378	6681
3882.995	6720
3884.612	6626
3886.229	6640
3887.845	6643
3889.461	6630
3891.076	6609
3892.691	6613
3894.307	6604
3895.922	6637
3897.536	6676
3899.149	6674
3900.761	6619
3902.374	6682
3903.988	6683
3905.6	6678
3907.212	6804
3908.822	6512
3910.433	6637
3912.045	6650
3913.655	6536
3915.265	6719
3916.875	6685
3918.483	6622
3920.093	6597
3921.702	6672
3923.309	6577
3924.917	6648
3926.523	6711
3928.13	6654
3929.739	6639
3931.344	6603
3932.95	6703
3934.555	6643
3936.159	6638
3937.766	6539
3939.369	6664
3940.974	6689
3942.577	6612
3944.181	6549
3945.783	6516
3947.386	6493
3948.989	6587
3950.59	6550
3952.191	6599
3953.791	6612
3955.394	6588
3956.994	6578
3958.593	6551
3960.192	6483
3961.791	6454
3963.392	6559
3964.99	6427
3966.588	6555
3968.185	6476
3969.782	6511
3971.379	6480
3972.976	6461
3974.572	6495
3976.168	6512
3977.763	6473
3979.358	6482
3980.954	6462
3982.548	6495
3984.142	6422
3985.736	6446
3987.329	6441
3988.922	6528
3990.516	6400
3992.108	6432
3993.698	6513
3995.29	6458
3996.881	6325
3998.473	6418
4000.064	6403
4001.653	6371
4003.242	6334
4004.832	6384
4006.422	6324
4008.01	6280
4009.598	6439
4011.186	6380
4012.773	6363
4014.36	6298
4015.947	6224
4017.534	6296
4019.119	6328
4020.705	6319
4022.291	6266
4023.876	6302
4025.461	6310
4027.044	6297
4028.627	6218
4030.211	6239
4031.795	6287
4033.378	6186
4034.96	6256
4036.542	6311
4038.124	6294
4039.704	6100
4041.286	6232
4042.867	6274
4044.447	6186
4046.026	6162
4047.606	6162
4049.187	6246
4050.765	6156
4052.343	6193
4053.92	6217
4055.498	6147
4057.076	6268
4058.654	6205
4060.23	6115
4061.806	6012
4063.381	6293
4064.957	6186
4066.533	6208
4068.107	6005
4069.682	6191
4071.256	6080
4072.829	6185
4074.404	6246
4075.977	6082
4077.549	6096
4079.121	6126
4080.693	6151
4082.265	6204
4083.836	6091
4085.407	6162
4086.977	6092
4088.547	6034
4090.117	6064
4091.687	6080
4093.256	6172
4094.825	6073
4096.392	6058
4097.96	6160
4099.528	6220
4101.097	6128
4102.663	6099
4104.229	6028
4105.795	6081
4107.361	5928
4108.928	6146
4110.493	6119
4112.058	6076
4113.621	5991
4115.186	6136
4116.75	6079
4118.313	5984
4119.876	6120
4121.438	5948
4123	6006
4124.562	6055
4126.125	5971
4127.686	5983
4129.246	5996
4130.807	6032
4132.367	5990
4133.927	5931
4135.486	5956
4137.046	5888
4138.604	5931
4140.162	5910
4141.72	5995
4143.279	5874
4144.836	5926
4146.393	6036
4147.949	5920
4149.505	6029
4151.062	5909
4152.617	5949
4154.172	5902
4155.727	5928
4157.281	6009
4158.836	5861
4160.39	5762
4161.943	5743
4163.496	5834
4165.048	5742
4166.601	5862
4168.154	5965
4169.706	5771
4171.257	5801
4172.808	5857
4174.358	5768
4175.909	5881
4177.458	5837
4179.008	5870
4180.558	5802
4182.106	5876
4183.655	5815
4185.204	5706
4186.751	5745
4188.298	5805
4189.845	5701
4191.392	5722
4192.939	5751
4194.485	5801
4196.031	5833
4197.576	5690
4199.121	5768
4200.666	5777
4202.211	5756
4203.754	5756
4205.298	5728
4206.84	5676
4208.384	5693
4209.927	5673
4211.47	5741
4213.011	5771
4214.552	5644
4216.094	5661
4217.635	5669
4219.175	5782
4220.716	5646
4222.255	5721
4223.793	5734
4225.335	5624
4226.873	5693
4228.411	5776
4229.948	5620
4231.486	5721
4233.024	5683
4234.562	5648
4236.098	5665
4237.634	5736
4239.169	5574
4240.705	5669
4242.241	5662
4243.776	5624
4245.31	5593
4246.844	5652
4248.378	5618
4249.911	5668
4251.445	5676
4252.978	5639
4254.51	5556
4256.042	5706
4257.574	5648
4259.107	5644
4260.638	5501
4262.169	5603
4263.699	5608
4265.228	5605
4266.759	5564
4268.289	5609
4269.818	5543
4271.345	5508
4272.874	5675
4274.402	5695
4275.931	5589
4277.458	5607
4278.985	5574
4280.512	5542
4282.037	5560
4283.564	5564
4285.089	5622
4286.615	5561
4288.139	5652
4289.664	5404
4291.187	5544
4292.712	5484
4294.235	5429
4295.759	5647
4297.281	5475
4298.804	5511
4300.327	5495
4301.849	5459
4303.37	5613
4304.891	5501
4306.412	5509
4307.933	5601
4309.453	5506
4310.973	5568
4312.492	5482
