398.1873	3301
400.7097	3310
403.2336	3381
405.7547	3297
408.2751	3414
410.7948	3366
413.3138	3344
415.83	3377
418.3497	3351
420.8666	3432
423.3829	3438
425.8985	3522
428.4133	3529
430.9275	3472
433.441	3482
435.9538	3503
438.4639	3520
440.9753	3575
443.4881	3562
445.9982	3475
448.5055	3512
451.0142	3521
453.5201	3488
456.0274	3488
458.5361	3540
461.04	3567
463.5453	3536
466.0478	3439
468.5517	3540
471.0549	3508
473.5574	3555
476.0572	3644
478.5584	3542
481.0568	3574
483.5545	3623
486.0557	3609
488.5521	3596
491.0478	3620
493.5449	3599
496.0392	3700
498.5349	3613
501.0299	3585
503.5222	3702
506.0139	3634
508.5048	3689
510.9991	3565
513.4887	3567
515.9777	3600
518.4659	3625
520.9534	3602
523.4403	3666
525.9306	3675
528.4161	3669
530.9009	3719
533.3851	3677
535.8687	3626
538.3535	3682
540.8356	3699
543.3171	3617
545.7979	3710
548.278	3696
550.7595	3680
553.2383	3723
555.7144	3727
558.1918	3699
560.6685	3663
563.1446	3741
565.6221	3705
568.0968	3721
570.5688	3720
573.0422	3729
575.515	3780
577.989	3799
580.4584	3771
582.9291	3806
585.3991	3788
587.8685	3799
590.3352	3763
592.8052	3838
595.2706	3826
597.7372	3884
600.2033	3802
602.6666	3790
605.1334	3694
607.5953	3772
610.0587	3750
612.5193	3755
614.9814	3804
617.4427	3795
619.9034	3759
622.3615	3853
624.8208	3767
627.2775	3774
629.7335	3753
632.1929	3781
634.6476	3701
637.1016	3746
639.5569	3823
642.0096	3818
644.4637	3814
646.9151	3749
649.3678	3781
651.8179	3826
654.2672	3898
656.7159	3775
659.166	3895
661.6154	3831
664.0622	3802
666.5082	3815
668.9537	3961
671.4005	3889
673.8445	3853
676.288	3906
678.7308	3895
681.1729	3943
683.6163	3904
686.0572	3853
688.4973	3900
690.9368	3860
693.3757	3885
695.8138	4031
698.2534	4008
700.6902	3854
703.1245	3954
705.56	3981
707.9949	3921
710.4311	3982
712.8647	3989
715.2957	3899
717.7279	3983
720.1595	3902
722.5905	3969
725.0208	4021
727.4505	3965
729.8795	3943
732.3058	3964
734.7336	4007
737.1626	4079
739.587	3980
742.0128	4140
744.4359	4101
746.8604	4174
749.2841	4151
751.7073	4121
754.1278	4141
756.5496	4159
758.9688	4109
761.3893	4201
763.8093	4245
766.2285	4159
768.6451	4127
771.0611	4213
773.4784	4177
775.895	4135
778.3091	4223
780.7244	4242
783.1371	4237
785.5493	4214
787.9626	4186
790.3754	4174
792.7856	4237
795.1951	4163
797.6039	4204
800.0121	4172
802.4236	4186
804.8306	4363
807.2369	4252
809.6425	4142
812.0475	4296
814.4538	4273
816.8575	4195
819.2606	4230
821.663	4315
824.0648	4283
826.4659	4276
828.8683	4244
831.2682	4250
833.6674	4273
836.066	4245
838.4639	4373
840.8632	4327
843.2579	4276
845.6539	4322
848.0493	4312
850.444	4302
852.84	4382
855.2315	4403
857.6243	4325
860.0165	4308
862.4081	4247
864.797	4274
867.1892	4317
869.5789	4231
871.9659	4224
874.3542	4349
876.74	4232
879.129	4272
881.5155	4207
883.8994	4250
886.2845	4301
888.6671	4297
891.051	4321
893.4343	4355
895.8169	4267
898.197	4373
900.5783	4371
902.9571	4235
905.3372	4327
907.7167	4398
910.0936	4371
912.4698	4429
914.8474	4365
917.2244	4303
919.5987	4455
921.9744	4388
924.3475	4496
926.72	4422
929.0918	4512
931.4669	4352
933.8375	4504
936.2074	4489
938.5767	4539
940.9454	4585
943.3154	4576
945.6829	4602
948.0497	4655
950.4178	4978
952.7833	4964
955.1483	5143
957.5145	5158
959.8782	5202
962.2412	5194
964.6036	5235
966.9655	5089
969.3266	4976
971.6871	4785
974.0471	4655
976.4064	4654
978.765	4523
981.125	4549
983.4824	4432
985.8373	4486
988.1935	4433
990.549	4470
992.9039	4529
995.2602	4483
997.6119	4350
999.965	4427
1002.317	4463
1004.667	4475
1007.02	4443
1009.371	4454
1011.719	4482
1014.068	4457
1016.415	4506
1018.765	4506
1021.111	4498
1023.458	4456
1025.804	4503
1028.147	4574
1030.49	4525
1032.837	4573
1035.179	4457
1037.522	4599
1039.862	4595
1042.204	4597
1044.546	4561
1046.884	4625
1049.224	4572
1051.562	4546
1053.899	4632
1056.237	4578
1058.575	4605
1060.91	4572
1063.244	4532
1065.58	4587
1067.913	4664
1070.248	4646
1072.579	4638
1074.911	4616
1077.242	4666
1079.572	4612
1081.905	4603
1084.234	4601
1086.562	4681
1088.89	4617
1091.217	4584
1093.544	4596
1095.871	4648
1098.197	4599
1100.521	4611
1102.845	4567
1105.169	4559
1107.491	4562
1109.814	4660
1112.135	4594
1114.456	4567
1116.776	4657
1119.096	4558
1121.415	4674
1123.734	4648
1126.052	4718
1128.369	4526
1130.686	4563
1133.002	4630
1135.318	4718
1137.632	4654
1139.945	4700
1142.258	4609
1144.573	4678
1146.884	4614
1149.196	4626
1151.505	4657
1153.816	4638
1156.124	4596
1158.435	4642
1160.742	4682
1163.051	4622
1165.356	4572
1167.663	4667
1169.97	4627
1172.276	4711
1174.579	4593
1176.881	4624
1179.186	4640
1181.487	4670
1183.79	4674
1186.092	4596
1188.392	4589
1190.691	4648
1192.991	4576
1195.291	4671
1197.588	4716
1199.885	4578
1202.181	4612
1204.479	4650
1206.775	4669
1209.07	4668
1211.363	4590
1213.656	4683
1215.949	4686
1218.241	4641
1220.534	4698
1222.825	4620
1225.115	4715
1227.405	4880
1229.693	4567
1231.984	4746
1234.271	4742
1236.558	4831
1238.845	4835
1241.131	4811
1243.416	4864
1245.703	4823
1247.987	4784
1250.269	4785
1252.552	4797
1254.834	4846
1257.118	4789
1259.399	4846
1261.678	4704
1263.958	4739
1266.237	4714
1268.516	4939
1270.794	4759
1273.072	4864
1275.347	4622
1277.624	4820
1279.899	4705
1282.175	4799
1284.449	4784
1286.722	4817
1288.995	4628
1291.266	4731
1293.54	4758
1295.81	4770
1298.081	4751
1300.35	4850
1302.62	4770
1304.889	4801
1307.156	4711
1309.425	4813
1311.69	4778
1313.957	4722
1316.222	4720
1318.488	4806
1320.751	4705
1323.016	4799
1325.278	4752
1327.54	4775
1329.803	4755
1332.065	4912
1334.325	4777
1336.584	4771
1338.843	4937
1341.101	4723
1343.36	4881
1345.617	4813
1347.876	4772
1350.131	4778
1352.387	4838
1354.643	4758
1356.897	4825
1359.151	4763
1361.403	4755
1363.656	4804
1365.909	4739
1368.16	4694
1370.409	4738
1372.659	4849
1374.909	4809
1377.157	4786
1379.407	4768
1381.655	4774
1383.9	4871
1386.147	4890
1388.393	4906
1390.64	4868
1392.885	4984
1395.127	4878
1397.37	4863
1399.614	4899
1401.854	4921
1404.098	4927
1406.339	4861
1408.578	4877
1410.818	4949
1413.056	4876
1415.297	5046
1417.533	4916
1419.771	4889
1422.006	4921
1424.243	4933
1426.479	4904
1428.715	4938
1430.948	4885
1433.182	4812
1435.414	4994
1437.647	4985
1439.88	4951
1442.11	4995
1444.342	4998
1446.571	4991
1448.799	4917
1451.029	4959
1453.258	4947
1455.485	5059
1457.711	4959
1459.937	5048
1462.164	4936
1464.39	5064
1466.614	5045
1468.838	4933
1471.06	4923
1473.283	4994
1475.506	4912
1477.727	4952
1479.949	4848
1482.169	4942
1484.389	4962
1486.609	4827
1488.828	4859
1491.045	4897
1493.261	4884
1495.477	4894
1497.693	4890
1499.91	4817
1502.125	4765
1504.339	4782
1506.553	4824
1508.766	4826
1510.979	4813
1513.191	4792
1515.402	4889
1517.613	4819
1519.823	4851
1522.033	4820
1524.242	4775
1526.451	4839
1528.657	4897
1530.865	4885
1533.072	4982
1535.278	4845
1537.484	4852
1539.687	4833
1541.892	4861
1544.096	4961
1546.299	4822
1548.502	4875
1550.703	4956
1552.905	4935
1555.104	4855
1557.303	4980
1559.505	4928
1561.703	5006
1563.902	5021
1566.099	4889
1568.295	4890
1570.494	4920
1572.689	5038
1574.883	4862
1577.079	5004
1579.272	4884
1581.467	4978
1583.659	4980
1585.853	5064
1588.044	5050
1590.234	4946
1592.424	4941
1594.615	4984
1596.806	4998
1598.994	5041
1601.182	4973
1603.369	5113
1605.557	5011
1607.744	5064
1609.929	5055
1612.114	4980
1614.298	5050
1616.482	5043
1618.667	5114
1620.85	4980
1623.032	5151
1625.214	4961
1627.395	5087
1629.575	5092
1631.755	5149
1633.935	5044
1636.114	5101
1638.292	4991
1640.471	5097
1642.647	5091
1644.823	5107
1647	5052
1649.175	5136
1651.348	5058
1653.525	5060
1655.698	5190
1657.87	5177
1660.043	4987
1662.213	5256
1664.387	5193
1666.558	5012
1668.727	5124
1670.896	5093
1673.064	5060
1675.233	5130
1677.401	5150
1679.569	5169
1681.735	5105
1683.902	5173
1686.066	5080
1688.233	5230
1690.397	5050
1692.559	5131
1694.723	5166
1696.885	5042
1699.048	5040
1701.21	5100
1703.37	5025
1705.53	5039
1707.689	5039
1709.849	4951
1712.009	5006
1714.166	5159
1716.323	5111
1718.479	5050
1720.634	5064
1722.793	5159
1724.948	4955
1727.102	5118
1729.255	5136
1731.408	5011
1733.562	5107
1735.714	5036
1737.865	5120
1740.016	5088
1742.166	5050
1744.316	5093
1746.467	5113
1748.616	5069
1750.764	5031
1752.911	5062
1755.056	5032
1757.205	5118
1759.35	5146
1761.496	5100
1763.641	5139
1765.785	5057
1767.927	5210
1770.072	5136
1772.214	5125
1774.355	5114
1776.496	5189
1778.637	5092
1780.778	5173
1782.918	5178
1785.057	5170
1787.194	5107
1789.333	5162
1791.472	5142
1793.608	5123
1795.745	5145
1797.879	5111
1800.015	5094
1802.148	5136
1804.284	5137
1806.417	5141
1808.548	5208
1810.682	5185
1812.812	5219
1814.946	5231
1817.075	5201
1819.205	5122
1821.335	5165
1823.463	5178
1825.59	5158
1827.721	5224
1829.847	5079
1831.973	5070
1834.098	5109
1836.223	5101
1838.351	5136
1840.475	5118
1842.598	5163
1844.721	5096
1846.843	5103
1848.966	5024
1851.087	5163
1853.21	5130
1855.33	5117
1857.449	5063
1859.568	5157
1861.688	5154
1863.806	5187
1865.924	5140
1868.039	5130
1870.155	5156
1872.273	5115
1874.388	5093
1876.503	5146
1878.617	5153
1880.73	5070
1882.844	5141
1884.956	5202
1887.068	5171
1889.18	5255
1891.291	5191
1893.4	5233
1895.511	5142
1897.621	5130
1899.73	5087
1901.837	5217
1903.944	5224
1906.053	5172
1908.159	5169
1910.265	5217
1912.369	5157
1914.474	5254
1916.577	5243
1918.683	5218
1920.785	5160
1922.888	5216
1924.989	5298
1927.091	5238
1929.193	5244
1931.294	5248
1933.393	5206
1935.493	5259
1937.59	5190
1939.689	5232
1941.788	5275
1943.884	5241
1945.98	5347
1948.077	5276
1950.171	5201
1952.267	5158
1954.361	5230
1956.455	5226
1958.548	5212
1960.64	5216
1962.733	5192
1964.824	5261
1966.915	5252
1969.005	5248
1971.096	5270
1973.185	5173
1975.275	5288
1977.363	5248
1979.45	5231
1981.537	5208
1983.623	5213
1985.711	5232
1987.796	5271
1989.881	5288
1991.965	5183
1994.047	5298
1996.132	5118
1998.215	5165
2000.297	5147
2002.378	5239
2004.46	5226
2006.54	5205
2008.62	5304
2010.7	5218
2012.779	5252
2014.858	5186
2016.934	5248
2019.013	5209
2021.09	5145
2023.165	5238
2025.241	5204
2027.317	5221
2029.39	5128
2031.466	5186
2033.538	5236
2035.612	5197
2037.683	5202
2039.755	5150
2041.827	5245
2043.898	5227
2045.968	5245
2048.038	5192
2050.106	5271
2052.177	5195
2054.244	5249
2056.313	5297
2058.379	5246
2060.444	5222
2062.511	5247
2064.577	5240
2066.641	5292
2068.705	5133
2070.77	5228
2072.832	5335
2074.896	5251
2076.958	5213
2079.02	5332
2081.081	5280
2083.141	5256
2085.2	5280
2087.261	5242
2089.319	5211
2091.377	5251
2093.435	5313
2095.492	5182
2097.552	5264
2099.607	5207
2101.663	5265
2103.718	5242
2105.771	5298
2107.826	5222
2109.879	5261
2111.932	5225
2113.985	5214
2116.037	5180
2118.088	5216
2120.141	5250
2122.191	5232
2124.239	5151
2126.288	5274
2128.337	5230
2130.387	5218
2132.434	5221
2134.481	5226
2136.528	5262
2138.574	5200
2140.618	5325
2142.665	5112
2144.71	5265
2146.753	5318
2148.797	5193
2150.838	5213
2152.883	5270
2154.923	5290
2156.965	5253
2159.007	5242
2161.046	5223
2163.086	5295
2165.126	5282
2167.163	5152
2169.202	5167
2171.239	5169
2173.277	5272
2175.314	5151
2177.349	5240
2179.385	5263
2181.42	5257
2183.453	5237
2185.49	5094
2187.522	5184
2189.555	5291
2191.586	5234
2193.619	5239
2195.651	5252
2197.682	5165
2199.711	5155
2201.74	5105
2203.769	5192
2205.799	5149
2207.828	5254
2209.855	5159
2211.882	5217
2213.908	5153
2215.934	5177
2217.961	5184
2219.986	5158
2222.01	5176
2224.034	5159
2226.057	5230
2228.08	5220
2230.104	5149
2232.124	5135
2234.145	5089
2236.166	5130
2238.186	5114
2240.207	5106
2242.227	5093
2244.244	5035
2246.262	5152
2248.28	5105
2250.299	5070
2252.314	5213
2254.33	5063
2256.346	5227
2258.36	5183
2260.375	5138
2262.391	5238
2264.403	5113
2266.416	5149
2268.427	5142
2270.44	5164
2272.453	5209
2274.463	5208
2276.474	5177
2278.483	5231
2280.493	5247
2282.501	5187
2284.51	5215
2286.518	5225
2288.524	5218
2290.532	5285
2292.537	5122
2294.544	5177
2296.55	5229
2298.554	5145
2300.557	5247
2302.562	5152
2304.566	5171
2306.568	5065
2308.569	5200
2310.572	5185
2312.573	5120
2314.573	5103
2316.574	5195
2318.573	5122
2320.571	5166
2322.571	5227
2324.569	5140
2326.567	5156
2328.564	5207
2330.56	5146
2332.556	5160
2334.551	5159
2336.546	5155
2338.542	5098
2340.535	5107
2342.529	5178
2344.521	5113
2346.512	5140
2348.505	5100
2350.497	5117
2352.487	5012
2354.478	5058
2356.468	5109
2358.457	5096
2360.446	5163
2362.434	5095
2364.422	5032
2366.408	5147
2368.395	5121
2370.383	5148
2372.369	5145
2374.353	5152
2376.338	5023
2378.321	5137
2380.307	5137
2382.29	5142
2384.272	5110
2386.254	5068
2388.235	5030
2390.218	5111
2392.198	5082
2394.179	5025
2396.157	5063
2398.137	5050
2400.115	5081
2402.095	5082
2404.072	5115
2406.048	5144
2408.026	5216
2410.001	5039
2411.977	4983
2413.953	5084
2415.927	5063
2417.9	5028
2419.875	5038
2421.847	5008
2423.821	5197
2425.792	4996
2427.763	5104
2429.736	5147
2431.706	5052
2433.677	5004
2435.646	5087
2437.615	5122
2439.583	5137
2441.551	5163
2443.519	5013
2445.486	5052
2447.452	5109
2449.418	5077
2451.383	4933
2453.348	4979
2455.314	5120
2457.278	5059
2459.241	5054
2461.205	5063
2463.167	5056
2465.131	5042
2467.091	5050
2469.052	5091
2471.012	5071
2472.972	4997
2474.932	4952
2476.891	5056
2478.85	5000
2480.808	5002
2482.766	5082
2484.722	4963
2486.68	5053
2488.636	5005
2490.591	4971
2492.546	5006
2494.5	5066
2496.456	4998
2498.41	4963
2500.362	5010
2502.315	5066
2504.266	5015
2506.218	5071
2508.169	4943
2510.121	4960
2512.07	4978
2514.019	5041
2515.968	4995
2517.918	5022
2519.866	5034
2521.813	5042
2523.76	5033
2525.707	4977
2527.653	4924
2529.599	4947
2531.543	4989
2533.489	5000
2535.433	5038
2537.376	5039
2539.32	4926
2541.264	5043
2543.205	5132
2545.147	5070
2547.087	4969
2549.029	4995
2550.969	4904
2552.908	5050
2554.847	5026
2556.786	5005
2558.724	5066
2560.663	4967
2562.6	4989
2564.537	5038
2566.473	5038
2568.408	5006
2570.345	5084
2572.28	5025
2574.214	4944
2576.148	5038
2578.081	5050
2580.014	4970
2581.947	5025
2583.879	5083
2585.81	4980
2587.741	5016
2589.67	4980
2591.602	5059
2593.532	5086
2595.461	4943
2597.388	4996
2599.316	5045
2601.244	5009
2603.172	5058
2605.098	5062
2607.023	5048
2608.949	4976
2610.873	5069
2612.8	5002
2614.723	5050
2616.647	5001
2618.569	5004
2620.493	5087
2622.416	5029
2624.338	5154
2626.258	5067
2628.179	5056
2630.099	5068
2632.019	5099
2633.939	5052
2635.857	5040
2637.775	5026
2639.694	5047
2641.61	4994
2643.528	5104
2645.444	5043
2647.361	4956
2649.276	5092
2651.19	4973
2653.105	5026
2655.019	5032
2656.934	5113
2658.846	5033
2660.758	5025
2662.67	5076
2664.583	5055
2666.493	5013
2668.404	5077
2670.313	5071
2672.223	4998
2674.134	4941
2676.042	5052
2677.95	5073
2679.858	5053
2681.765	5102
2683.673	5094
2685.579	5003
2687.483	4996
2689.389	5050
2691.294	4977
2693.198	5029
2695.104	5068
2697.006	5073
2698.909	5035
2700.811	4894
2702.713	5074
2704.615	5056
2706.516	4962
2708.417	4985
2710.316	5000
2712.216	5001
2714.115	4957
2716.014	5095
2717.913	5068
2719.81	5040
2721.707	5011
2723.603	5077
2725.501	5027
2727.396	5104
2729.292	5031
2731.186	4955
2733.081	5056
2734.976	4937
2736.87	4918
2738.762	4990
2740.653	4878
2742.546	5017
2744.437	5002
2746.329	4949
2748.22	5029
2750.11	4923
2751.999	5002
2753.889	5111
2755.778	5009
2757.666	4886
2759.553	4998
2761.44	4940
2763.328	4826
2765.215	4997
2767.101	4936
2768.986	4963
2770.87	4908
2772.754	4937
2774.638	4913
2776.523	4955
2778.405	4970
2780.288	4932
2782.17	4961
2784.051	4976
2785.934	4986
2787.814	4912
2789.694	4931
2791.574	4989
2793.453	4994
2795.332	4909
2797.212	4946
2799.088	4896
2800.966	4924
2802.843	4836
2804.719	4898
2806.597	4937
2808.471	4930
2810.346	4963
2812.221	4865
2814.094	4954
2815.969	4958
2817.843	4932
2819.714	5011
2821.587	4871
2823.459	4921
2825.329	4825
2827.202	5009
2829.072	4947
2830.942	4948
2832.811	4857
2834.68	4871
2836.549	4912
2838.418	4938
2840.284	5024
2842.152	4926
2844.018	4885
2845.885	4918
2847.751	4926
2849.616	4912
2851.482	4926
2853.345	4923
2855.208	5027
2857.074	4961
2858.937	5017
2860.799	4896
2862.66	5062
2864.522	4950
2866.385	5069
2868.245	5014
2870.104	5105
2871.964	5044
2873.824	5137
2875.683	5086
2877.542	5229
2879.4	5203
2881.257	5119
2883.114	5140
2884.97	5126
2886.827	5239
2888.683	5288
2890.537	5266
2892.392	5118
2894.246	5248
2896.1	5225
2897.954	5127
2899.807	5122
2901.66	5173
2903.51	5138
2905.362	5104
2907.214	5241
2909.065	5231
2910.915	5251
2912.765	5296
2914.613	5213
2916.463	5238
2918.311	5279
2920.158	5256
2922.006	5347
2923.853	5247
2925.698	5415
2927.546	5362
2929.392	5370
2931.236	5535
2933.081	5523
2934.924	5452
2936.77	5395
2938.613	5498
2940.455	5611
2942.298	5669
2944.139	5494
2945.982	5557
2947.823	5535
2949.662	5610
2951.503	5577
2953.342	5514
2955.182	5503
2957.021	5515
2958.858	5417
2960.697	5526
2962.534	5393
2964.37	5394
2966.207	5325
2968.044	5352
2969.879	5283
2971.714	5150
2973.548	5264
2975.383	5214
2977.218	5165
2979.051	5236
2980.883	5117
2982.715	5187
2984.547	5191
2986.379	5178
2988.21	5168
2990.04	5147
2991.87	5149
2993.7	5069
2995.53	5155
2997.359	5026
2999.187	5070
3001.015	4963
3002.842	4979
3004.669	5010
3006.497	4940
3008.323	4892
3010.148	4970
3011.974	4785
3013.797	4848
3015.623	4853
3017.447	4821
3019.27	4844
3021.094	4862
3022.915	4780
3024.737	4851
3026.56	4778
3028.38	4732
3030.201	4886
3032.022	4711
3033.84	4790
3035.662	4725
3037.481	4808
3039.298	4775
3041.117	4769
3042.933	4799
3044.752	4759
3046.568	4785
3048.385	4841
3050.2	4746
3052.016	4690
3053.83	4766
3055.646	4796
3057.46	4739
3059.272	4739
3061.086	4736
3062.898	4743
3064.711	4738
3066.524	4729
3068.335	4673
3070.145	4698
3071.956	4729
3073.766	4688
3075.576	4571
3077.385	4662
3079.193	4768
3081.002	4700
3082.81	4691
3084.618	4625
3086.425	4701
3088.231	4620
3090.036	4611
3091.842	4634
3093.648	4652
3095.452	4650
3097.257	4645
3099.06	4575
3100.863	4606
3102.666	4589
3104.47	4578
3106.272	4615
3108.073	4683
3109.875	4537
3111.676	4557
3113.477	4606
3115.277	4631
3117.077	4616
3118.874	4571
3120.673	4580
3122.473	4597
3124.271	4516
3126.066	4682
3127.863	4577
3129.66	4612
3131.456	4455
3133.252	4593
3135.047	4480
3136.842	4455
3138.635	4470
3140.429	4478
3142.223	4534
3144.016	4589
3145.808	4546
3147.6	4567
3149.392	4455
3151.183	4514
3152.975	4383
3154.765	4454
3156.553	4572
3158.344	4560
3160.132	4448
3161.922	4503
3163.71	4492
3165.497	4455
3167.285	4601
3169.071	4490
3170.858	4432
3172.645	4519
3174.429	4498
3176.214	4437
3177.998	4557
3179.783	4503
3181.568	4412
3183.351	4388
3185.133	4406
3186.915	4409
3188.698	4472
3190.481	4518
3192.261	4513
3194.042	4508
3195.822	4448
3197.601	4508
3199.381	4414
3201.161	4481
3202.939	4475
3204.717	4492
3206.495	4498
3208.272	4545
3210.05	4387
3211.826	4453
3213.602	4460
3215.376	4376
3217.151	4459
3218.927	4464
3220.702	4385
3222.476	4430
3224.249	4421
3226.021	4440
3227.793	4429
3229.567	4473
3231.339	4428
3233.109	4446
3234.88	4467
3236.651	4413
3238.421	4346
3240.191	4407
3241.96	4392
3243.728	4465
3245.497	4440
3247.263	4492
3249.033	4407
3250.799	4441
3252.566	4504
3254.331	4363
3256.097	4454
3257.863	4403
3259.628	4408
3261.392	4450
3263.156	4335
3264.919	4522
3266.683	4377
3268.447	4329
3270.208	4415
3271.969	4453
3273.731	4514
3275.492	4434
3277.253	4417
3279.013	4397
3280.773	4413
3282.532	4381
3284.291	4428
3286.05	4471
3287.808	4345
3289.566	4423
3291.323	4320
3293.079	4376
3294.835	4439
3296.593	4452
3298.348	4383
3300.102	4435
3301.857	4432
3303.611	4385
3305.366	4365
3307.119	4484
3308.872	4429
3310.624	4479
3312.376	4482
3314.129	4401
3315.881	4428
3317.631	4429
3319.38	4503
3321.13	4434
3322.88	4405
3324.631	4395
3326.379	4364
3328.126	4468
3329.875	4377
3331.622	4360
3333.371	4392
3335.116	4311
3336.863	4404
3338.609	4385
3340.353	4345
3342.1	4473
3343.845	4455
3345.588	4423
3347.332	4353
3349.074	4346
3350.817	4373
3352.56	4335
3354.303	4328
3356.043	4449
3357.785	4363
3359.525	4283
3361.268	4301
3363.007	4296
3364.745	4328
3366.485	4350
3368.223	4351
3369.962	4302
3371.701	4362
3373.438	4313
3375.174	4425
3376.911	4237
3378.647	4236
3380.384	4263
3382.118	4320
3383.854	4260
3385.588	4251
3387.322	4291
3389.057	4311
3390.79	4299
3392.522	4250
3394.255	4275
3395.987	4357
3397.719	4262
3399.451	4373
3401.181	4294
3402.911	4310
3404.641	4263
3406.371	4291
3408.101	4264
3409.83	4271
3411.558	4432
3413.285	4315
3415.011	4220
3416.739	4352
3418.467	4269
3420.193	4248
3421.919	4241
3423.644	4252
3425.368	4232
3427.094	4215
3428.818	4203
3430.542	4239
3432.264	4180
3433.987	4171
3435.712	4180
3437.434	4167
3439.155	4206
3440.876	4207
3442.596	4175
3444.317	4189
3446.039	4263
3447.757	4120
3449.477	4084
3451.195	4309
3452.914	4198
3454.632	4165
3456.35	4166
3458.067	4146
3459.784	4107
3461.5	4249
3463.216	4152
3464.932	4052
3466.647	4238
3468.362	4156
3470.076	4167
3471.789	4114
3473.505	4230
3475.217	4117
3476.929	4102
3478.641	4126
3480.354	4105
3482.066	4256
3483.777	4104
3485.487	4112
3487.197	4119
3488.908	3995
3490.617	4144
3492.327	4205
3494.035	4083
3495.743	4103
3497.451	4060
3499.158	4063
3500.866	3990
3502.572	4059
3504.278	4004
3505.984	4035
3507.689	4042
3509.396	4069
3511.1	4074
3512.804	4060
3514.508	4037
3516.211	4031
3517.913	4045
3519.616	3959
3521.319	4091
3523.021	4019
3524.722	4055
3526.422	3996
3528.124	4050
3529.824	3941
3531.524	4022
3533.222	3882
3534.921	3954
3536.62	4042
3538.318	4017
3540.016	3984
3541.714	3971
3543.41	3975
3545.107	3940
3546.803	3969
3548.5	3977
3550.194	3945
3551.889	3952
3553.583	3968
3555.279	3960
3556.972	3996
3558.666	3936
3560.358	3978
3562.051	4018
3563.742	4029
3565.435	3908
3567.126	3997
3568.817	3915
3570.507	3985
3572.197	3958
3573.888	3922
3575.577	3935
3577.265	3917
3578.954	3951
3580.642	3978
3582.329	3934
3584.017	3935
3585.704	3947
3587.391	3907
3589.077	3868
3590.762	3886
3592.449	3898
3594.133	3880
3595.817	3926
3597.501	3967
3599.185	3867
3600.869	3838
3602.552	3807
3604.234	3809
3605.916	3857
3607.598	3790
3609.279	3799
3610.961	3935
3612.642	3897
3614.321	3762
3616	3833
3617.68	3760
3619.36	3831
3621.039	3878
3622.716	3854
3624.394	3779
3626.071	3777
3627.748	3748
3629.425	3771
3631.102	3765
3632.778	3859
3634.452	3767
3636.127	3825
3637.803	3803
3639.477	3757
3641.151	3766
3642.823	3819
3644.497	3711
3646.171	3824
3647.842	3789
3649.515	3732
3651.185	3741
3652.857	3825
3654.527	3765
3656.198	3734
3657.868	3755
3659.537	3742
3661.207	3749
3662.875	3690
3664.544	3725
3666.212	3732
3667.879	3707
3669.546	3734
3671.212	3743
3672.88	3663
3674.546	3739
3676.211	3780
3677.875	3749
3679.541	3729
3681.205	3645
3682.87	3668
3684.533	3643
3686.196	3720
3687.859	3712
3689.521	3750
3691.184	3747
3692.845	3647
3694.507	3726
3696.167	3713
3697.827	3688
3699.487	3717
3701.148	3730
3702.808	3626
3704.466	3651
3706.125	3686
3707.783	3682
3709.442	3689
3711.099	3717
3712.757	3660
3714.412	3612
3716.068	3673
3717.725	3623
3719.381	3687
3721.036	3630
3722.689	3680
3724.344	3673
3725.998	3649
3727.652	3620
3729.305	3654
3730.958	3657
3732.61	3725
3734.262	3615
3735.915	3669
3737.565	3625
3739.217	3571
3740.866	3654
3742.516	3644
3744.165	3592
3745.816	3665
3747.464	3635
3749.113	3555
3750.761	3634
3752.409	3656
3754.057	3583
3755.703	3667
3757.35	3542
3758.996	3609
3760.641	3579
3762.289	3569
3763.933	3544
3765.577	3633
3767.222	3573
3768.865	3549
3770.508	3573
3772.152	3578
3773.796	3591
3775.438	3547
3777.079	3566
3778.721	3573
3780.363	3655
3782.003	3547
3783.643	3586
3785.283	3625
3786.923	3523
3788.563	3462
3790.203	3581
3791.841	3518
3793.479	3615
3795.115	3586
3796.753	3611
3798.391	3486
3800.027	3613
3801.664	3489
3803.299	3521
3804.935	3501
3806.571	3434
3808.206	3584
3809.839	3510
3811.473	3537
3813.107	3542
3814.74	3504
3816.375	3516
3818.006	3506
3819.638	3475
3821.27	3443
3822.9	3491
3824.532	3481
3826.163	3498
3827.792	3442
3829.423	3437
3831.051	3478
3832.682	3455
3834.311	3464
3835.938	3479
3837.566	3500
3839.193	3448
3840.821	3429
3842.448	3504
3844.075	3477
3845.7	3479
3847.325	3487
3848.951	3427
3850.576	3416
3852.201	3388
3853.825	3438
3855.448	3418
3857.072	3487
3858.694	3469
3860.318	3371
3861.939	3460
3863.562	3330
3865.183	3398
3866.804	3452
3868.426	3387
3870.045	3376
3871.666	3353
3873.285	3393
3874.904	3418
3876.524	3398
3878.142	3383
3879.76	3417
3881.378	3348
3882.995	3486
3884.612	3425
3886.229	3453
3887.845	3357
3889.461	3476
3891.076	3348
3892.691	3322
3894.307	3417
3895.922	3363
3897.536	3332
3899.149	3350
3900.761	3332
3902.374	3389
3903.988	3412
3905.6	3397
3907.212	3424
3908.822	3270
3910.433	3389
3912.045	3345
3913.655	3341
3915.265	3413
3916.875	3289
3918.483	3389
3920.093	3352
3921.702	3345
3923.309	3325
3924.917	3339
3926.523	3452
3928.13	3342
3929.739	3374
3931.344	3301
3932.95	3353
3934.555	3394
3936.159	3332
3937.766	3338
3939.369	3231
3940.974	3343
3942.577	3305
3944.181	3377
3945.783	3270
3947.386	3362
3948.989	3356
3950.59	3301
3952.191	3279
3953.791	3312
3955.394	3362
3956.994	3298
3958.593	3300
3960.192	3320
3961.791	3265
3963.392	3304
3964.99	3300
3966.588	3257
3968.185	3375
3969.782	3276
3971.379	3286
3972.976	3267
3974.572	3290
3976.168	3237
3977.763	3284
3979.358	3232
3980.954	3285
3982.548	3203
3984.142	3204
3985.736	3294
3987.329	3298
3988.922	3317
3990.516	3166
3992.108	3196
3993.698	3255
3995.29	3258
3996.881	3194
3998.473	3218
4000.064	3232
4001.653	3242
4003.242	3193
4004.832	3223
4006.422	3149
4008.01	3248
4009.598	3200
4011.186	3170
4012.773	3187
4014.36	3207
4015.947	3193
4017.534	3197
4019.119	3168
4020.705	3187
4022.291	3120
4023.876	3199
4025.461	3115
4027.044	3159
4028.627	3176
4030.211	3147
4031.795	3211
4033.378	3153
4034.96	3119
4036.542	3191
4038.124	3173
4039.704	3115
4041.286	3170
4042.867	3084
4044.447	3144
4046.026	3147
4047.606	3102
4049.187	3172
4050.765	3088
4052.343	3080
4053.92	3118
4055.498	3165
4057.076	3085
4058.654	3128
4060.23	3034
4061.806	3166
4063.381	3115
4064.957	3114
4066.533	3049
4068.107	3108
4069.682	3122
4071.256	3090
4072.829	3125
4074.404	3039
4075.977	3055
4077.549	3048
4079.121	3127
4080.693	2983
4082.265	3095
4083.836	3003
4085.407	3053
4086.977	3101
4088.547	3053
4090.117	3119
4091.687	3074
4093.256	3054
4094.825	3030
4096.392	3026
4097.96	3063
4099.528	2984
4101.097	3061
4102.663	3046
4104.229	3017
4105.795	3014
4107.361	3032
4108.928	2964
4110.493	3008
4112.058	2998
4113.621	3009
4115.186	3001
4116.75	3059
4118.313	3006
4119.876	3051
4121.438	3000
4123	2987
4124.562	2948
4126.125	3003
4127.686	3012
4129.246	2896
4130.807	3003
4132.367	2968
4133.927	2990
4135.486	2966
4137.046	2936
4138.604	3020
4140.162	2908
4141.72	2958
4143.279	3008
4144.836	2947
4146.393	2940
4147.949	2920
4149.505	2873
4151.062	2946
4152.617	2898
4154.172	2983
4155.727	2913
4157.281	2917
4158.836	2919
4160.39	2860
4161.943	2940
4163.496	2954
4165.048	2902
4166.601	2888
4168.154	2919
4169.706	2924
4171.257	2885
4172.808	2862
4174.358	2895
4175.909	2945
4177.458	2858
4179.008	2863
4180.558	2796
4182.106	2952
4183.655	2892
4185.204	2900
4186.751	2879
4188.298	2883
4189.845	2827
4191.392	2893
4192.939	2850
4194.485	2911
4196.031	2865
4197.576	2829
4199.121	2794
4200.666	2905
4202.211	2835
4203.754	2905
4205.298	2823
4206.84	2851
4208.384	2872
4209.927	2838
4211.47	2833
4213.011	2820
4214.552	2844
4216.094	2794
4217.635	2826
4219.175	2785
4220.716	2844
4222.255	2780
4223.793	2885
4225.335	2794
4226.873	2852
4228.411	2813
4229.948	2784
4231.486	2752
4233.024	2758
4234.562	2838
4236.098	2884
4237.634	2781
4239.169	2818
4240.705	2815
4242.241	2825
4243.776	2779
4245.31	2853
4246.844	2781
4248.378	2814
4249.911	2817
4251.445	2779
4252.978	2762
4254.51	2845
4256.042	2759
4257.574	2803
4259.107	2803
4260.638	2773
4262.169	2778
4263.699	2773
4265.228	2705
4266.759	2770
4268.289	2755
4269.818	2749
4271.345	2732
4272.874	2642
4274.402	2790
4275.931	2724
4277.458	2738
4278.985	2813
4280.512	2746
4282.037	2702
4283.564	2765
4285.089	2727
4286.615	2737
4288.139	2752
4289.664	2722
4291.187	2735
4292.712	2734
4294.235	2730
4295.759	2766
4297.281	2698
4298.804	2674
4300.327	2689
4301.849	2719
4303.37	2700
4304.891	2671
4306.412	2663
4307.933	2643
4309.453	2672
4310.973	2678
4312.492	2685
