398.1873	8834
400.7097	8935
403.2336	8919
405.7547	9131
408.2751	9082
410.7948	9055
413.3138	9184
415.83	9128
418.3497	9252
420.8666	9365
423.3829	9496
425.8985	9425
428.4133	9453
430.9275	9555
433.441	9455
435.9538	9574
438.4639	9504
440.9753	9598
443.4881	9624
445.9982	9759
448.5055	9505
451.0142	9747
453.5201	9552
456.0274	9609
458.5361	9523
461.04	9637
463.5453	9802
466.0478	9713
468.5517	9607
471.0549	9729
473.5574	9774
476.0572	9863
478.5584	9826
481.0568	9826
483.5545	10056
486.0557	9882
488.5521	10057
491.0478	9871
493.5449	10048
496.0392	9971
498.5349	10061
501.0299	10193
503.5222	10061
506.0139	10034
508.5048	10076
510.9991	10200
513.4887	10138
515.9777	10216
518.4659	10090
520.9534	10231
523.4403	10193
525.9306	10174
528.4161	10219
530.9009	10191
533.3851	10107
535.8687	10238
538.3535	10298
540.8356	10107
543.3171	10033
545.7979	10344
548.278	10135
550.7595	10130
553.2383	10428
555.7144	10340
558.1918	10406
560.6685	10263
563.1446	10322
565.6221	10277
568.0968	10331
570.5688	10465
573.0422	10391
575.515	10431
577.989	10436
580.4584	10523
582.9291	10505
585.3991	10469
587.8685	10556
590.3352	10490
592.8052	10554
595.2706	10693
597.7372	10558
600.2033	10592
602.6666	10657
605.1334	10527
607.5953	10548
610.0587	10658
612.5193	10594
614.9814	10479
617.4427	10585
619.9034	10519
622.3615	10510
624.8208	10636
627.2775	10567
629.7335	10472
632.1929	10516
634.6476	10490
637.1016	10468
639.5569	10677
642.0096	10712
644.4637	10742
646.9151	10719
649.3678	10699
651.8179	10675
654.2672	10754
656.7159	10789
659.166	10757
661.6154	10862
664.0622	10646
666.5082	10697
668.9537	10843
671.4005	10864
673.8445	10918
676.288	10947
678.7308	10993
681.1729	10887
683.6163	10911
686.0572	10928
688.4973	11114
690.9368	10883
693.3757	10927
695.8138	11011
698.2534	11015
700.6902	10989
703.1245	11073
705.56	11156
707.9949	11137
710.4311	11141
712.8647	11066
715.2957	11198
717.7279	11179
720.1595	11302
722.5905	11129
725.0208	11273
727.4505	11176
729.8795	11303
732.3058	11375
734.7336	11218
737.1626	11423
739.587	11412
742.0128	11449
744.4359	11409
746.8604	11501
749.2841	11691
751.7073	11556
754.1278	11691
756.5496	11692
758.9688	11613
761.3893	11695
763.8093	11665
766.2285	11755
768.6451	11670
771.0611	11699
773.4784	11810
775.895	11744
778.3091	11887
780.7244	11799
783.1371	11710
785.5493	11882
787.9626	11901
790.3754	11701
792.7856	11700
795.1951	11873
797.6039	11931
800.0121	11873
802.4236	11930
804.8306	11905
807.2369	11824
809.6425	12054
812.0475	12011
814.4538	11725
816.8575	11924
819.2606	11951
821.663	11831
824.0648	12035
826.4659	12101
828.8683	11934
831.2682	12125
833.6674	12098
836.066	11998
838.4639	11957
840.8632	12014
843.2579	11922
845.6539	12085
848.0493	11877
850.444	12056
852.84	12139
855.2315	12025
857.6243	12109
860.0165	12057
862.4081	12078
864.797	11959
867.1892	12018
869.5789	12074
871.9659	11965
874.3542	12244
876.74	12047
879.129	11919
881.5155	11981
883.8994	11975
886.2845	12115
888.6671	12037
891.051	12069
893.4343	12062
895.8169	12172
898.197	11964
900.5783	12209
902.9571	12276
905.3372	12163
907.7167	12197
910.0936	12189
912.4698	12255
914.8474	12151
917.2244	12216
919.5987	12384
921.9744	12439
924.3475	12485
926.72	12373
929.0918	12306
931.4669	12514
933.8375	12419
936.2074	12603
938.5767	12510
940.9454	12875
943.3154	12903
945.6829	12887
948.0497	13042
950.4178	13325
952.7833	13529
955.1483	13603
957.5145	14017
959.8782	14030
962.2412	13735
964.6036	13612
966.9655	13383
969.3266	13149
971.6871	12881
974.0471	12706
976.4064	12591
978.765	12526
981.125	12555
983.4824	12534
985.8373	12439
988.1935	12428
990.549	12521
992.9039	12480
995.2602	12616
997.6119	12505
999.965	12578
1002.317	12433
1004.667	12488
1007.02	12388
1009.371	12419
1011.719	12598
1014.068	12501
1016.415	12574
1018.765	12566
1021.111	12571
1023.458	12782
1025.804	12634
1028.147	12670
1030.49	12609
1032.837	12696
1035.179	12857
1037.522	12730
1039.862	12689
1042.204	12763
1044.546	12479
1046.884	12795
1049.224	12718
1051.562	12682
1053.899	12810
1056.237	12766
1058.575	12719
1060.91	12770
1063.244	12828
1065.58	12678
1067.913	12842
1070.248	12909
1072.579	12893
1074.911	12874
1077.242	13003
1079.572	12895
1081.905	12859
1084.234	13019
1086.562	12762
1088.89	12787
1091.217	12966
1093.544	12832
1095.871	12987
1098.197	12928
1100.521	12747
1102.845	12778
1105.169	12881
1107.491	12904
1109.814	12958
1112.135	12892
1114.456	12925
1116.776	12789
1119.096	12949
1121.415	12967
1123.734	12965
1126.052	13036
1128.369	13070
1130.686	12967
1133.002	13067
1135.318	13022
1137.632	12854
1139.945	13059
1142.258	12908
1144.573	12998
1146.884	12975
1149.196	13038
1151.505	13072
1153.816	13089
1156.124	13072
1158.435	13054
1160.742	13105
1163.051	13074
1165.356	12994
1167.663	13096
1169.97	12929
1172.276	13059
1174.579	12822
1176.881	13005
1179.186	13033
1181.487	13181
1183.79	12855
1186.092	12976
1188.392	12882
1190.691	12972
1192.991	13007
1195.291	13008
1197.588	12868
1199.885	13085
1202.181	12990
1204.479	13032
1206.775	13250
1209.07	13153
1211.363	13094
1213.656	12995
1215.949	13145
1218.241	13289
1220.534	13243
1222.825	13094
1225.115	13271
1227.405	13356
1229.693	13200
1231.984	13206
1234.271	13358
1236.558	13198
1238.845	13383
1241.131	13451
1243.416	13461
1245.703	13374
1247.987	13390
1250.269	13443
1252.552	13392
1254.834	13560
1257.118	13352
1259.399	13422
1261.678	13363
1263.958	13439
1266.237	13410
1268.516	13221
1270.794	13362
1273.072	13467
1275.347	13288
1277.624	13410
1279.899	13362
1282.175	13415
1284.449	13626
1286.722	13218
1288.995	13334
1291.266	13486
1293.54	13222
1295.81	13508
1298.081	13222
1300.35	13308
1302.62	13173
1304.889	13201
1307.156	13333
1309.425	13301
1311.69	13408
1313.957	13408
1316.222	13343
1318.488	13288
1320.751	13321
1323.016	13434
1325.278	13393
1327.54	13336
1329.803	13546
1332.065	13407
1334.325	13355
1336.584	13586
1338.843	13351
1341.101	13383
1343.36	13393
1345.617	13520
1347.876	13531
1350.131	13438
1352.387	13401
1354.643	13254
1356.897	13585
1359.151	13633
1361.403	13355
1363.656	13459
1365.909	13694
1368.16	13578
1370.409	13382
1372.659	13481
1374.909	13683
1377.157	13469
1379.407	13491
1381.655	13525
1383.9	13643
1386.147	13651
1388.393	13760
1390.64	13590
1392.885	13572
1395.127	13555
1397.37	13577
1399.614	13679
1401.854	13657
1404.098	13535
1406.339	13689
1408.578	13743
1410.818	13677
1413.056	13715
1415.297	13530
1417.533	13656
1419.771	13610
1422.006	13887
1424.243	13835
1426.479	13611
1428.715	13855
1430.948	13731
1433.182	13815
1435.414	13961
1437.647	13852
1439.88	13922
1442.11	13958
1444.342	13725
1446.571	13860
1448.799	13868
1451.029	14143
1453.258	14071
1455.485	14017
1457.711	14019
1459.937	13879
1462.164	14044
1464.39	14042
1466.614	14000
1468.838	13860
1471.06	13948
1473.283	13831
1475.506	13936
1477.727	13808
1479.949	13637
1482.169	13796
1484.389	13661
1486.609	13791
1488.828	13710
1491.045	13737
1493.261	13689
1495.477	13638
1497.693	13675
1499.91	13767
1502.125	13531
1504.339	13683
1506.553	13637
1508.766	13930
1510.979	13576
1513.191	13640
1515.402	13466
1517.613	13770
1519.823	13566
1522.033	13725
1524.242	13587
1526.451	13477
1528.657	13542
1530.865	13602
1533.072	13732
1535.278	13656
1537.484	13667
1539.687	13669
1541.892	13673
1544.096	13689
1546.299	13564
1548.502	13678
1550.703	13798
1552.905	13655
1555.104	13764
1557.303	13800
1559.505	13964
1561.703	13765
1563.902	13777
1566.099	14145
1568.295	14037
1570.494	13905
1572.689	14119
1574.883	13968
1577.079	13942
1579.272	14094
1581.467	14170
1583.659	13981
1585.853	14079
1588.044	13990
1590.234	14038
1592.424	13948
1594.615	14203
1596.806	14135
1598.994	14048
1601.182	14053
1603.369	14192
1605.557	14121
1607.744	14077
1609.929	13950
1612.114	14254
1614.298	14136
1616.482	14245
1618.667	13983
1620.85	14311
1623.032	14233
1625.214	14076
1627.395	14100
1629.575	14237
1631.755	14210
1633.935	14060
1636.114	14071
1638.292	13960
1640.471	14185
1642.647	14245
1644.823	14269
1647	14143
1649.175	14018
1651.348	14275
1653.525	14161
1655.698	14144
1657.87	14107
1660.043	14174
1662.213	14216
1664.387	14133
1666.558	14120
1668.727	14190
1670.896	14219
1673.064	14162
1675.233	14377
1677.401	13967
1679.569	14078
1681.735	14136
1683.902	14181
1686.066	14100
1688.233	14185
1690.397	14034
1692.559	14087
1694.723	14177
1696.885	14239
1699.048	13994
1701.21	14103
1703.37	14205
1705.53	14001
1707.689	14024
1709.849	14081
1712.009	14120
1714.166	14178
1716.323	14155
1718.479	14149
1720.634	14205
1722.793	14147
1724.948	13986
1727.102	14092
1729.255	14204
1731.408	14092
1733.562	14064
1735.714	14065
1737.865	14055
1740.016	14111
1742.166	14132
1744.316	14139
1746.467	14033
1748.616	14253
1750.764	14051
1752.911	14164
1755.056	14116
1757.205	13999
1759.35	14082
1761.496	14188
1763.641	14292
1765.785	14214
1767.927	14229
1770.072	14257
1772.214	14032
1774.355	14303
1776.496	14467
1778.637	14376
1780.778	14284
1782.918	14278
1785.057	14273
1787.194	14316
1789.333	14209
1791.472	14308
1793.608	14433
1795.745	14282
1797.879	14255
1800.015	14141
1802.148	14184
1804.284	14308
1806.417	14374
1808.548	14253
1810.682	14282
1812.812	14428
1814.946	14289
1817.075	14098
1819.205	14056
1821.335	14372
1823.463	14223
1825.59	14213
1827.721	14120
1829.847	14297
1831.973	14086
1834.098	14131
1836.223	14072
1838.351	14285
1840.475	14004
1842.598	14378
1844.721	14227
1846.843	13977
1848.966	14320
1851.087	14177
1853.21	14008
1855.33	14222
1857.449	14183
1859.568	14227
1861.688	14054
1863.806	14062
1865.924	14107
1868.039	14010
1870.155	14079
1872.273	14118
1874.388	14160
1876.503	13984
1878.617	14141
1880.73	14081
1882.844	13880
1884.956	14069
1887.068	14057
1889.18	14193
1891.291	14363
1893.4	14144
1895.511	14003
1897.621	14137
1899.73	14117
1901.837	14247
1903.944	14520
1906.053	14345
1908.159	14231
1910.265	14214
1912.369	14415
1914.474	14480
1916.577	14267
1918.683	14315
1920.785	14384
1922.888	14172
1924.989	14324
1927.091	14413
1929.193	14323
1931.294	14377
1933.393	14350
1935.493	14534
1937.59	14347
1939.689	14418
1941.788	14412
1943.884	14291
1945.98	14434
1948.077	14514
1950.171	14253
1952.267	14530
1954.361	14490
1956.455	14323
1958.548	14383
1960.64	14341
1962.733	14387
1964.824	14287
1966.915	14458
1969.005	14285
1971.096	14307
1973.185	14308
1975.275	14235
1977.363	14254
1979.45	14288
1981.537	14243
1983.623	14352
1985.711	14302
1987.796	14198
1989.881	14197
1991.965	14279
1994.047	14116
1996.132	14279
1998.215	14314
2000.297	14105
2002.378	14336
2004.46	14139
2006.54	14260
2008.62	14349
2010.7	14132
2012.779	14206
2014.858	14235
2016.934	14226
2019.013	14080
2021.09	14213
2023.165	14006
2025.241	14254
2027.317	14251
2029.39	14214
2031.466	14202
2033.538	14315
2035.612	14215
2037.683	14328
2039.755	14218
2041.827	14233
2043.898	14230
2045.968	14186
2048.038	14189
2050.106	14108
2052.177	14106
2054.244	14300
2056.313	14267
2058.379	14289
2060.444	14126
2062.511	14181
2064.577	14478
2066.641	14144
2068.705	14446
2070.77	14328
2072.832	14215
2074.896	14090
2076.958	14188
2079.02	13970
2081.081	14221
2083.141	14325
2085.2	14325
2087.261	14339
2089.319	14332
2091.377	14406
2093.435	14293
2095.492	14296
2097.552	14241
2099.607	14283
2101.663	14256
2103.718	14202
2105.771	14187
2107.826	14303
2109.879	14240
2111.932	14283
2113.985	14131
2116.037	14283
2118.088	14243
2120.141	14187
2122.191	14412
2124.239	14173
2126.288	14149
2128.337	14235
2130.387	14056
2132.434	14312
2134.481	14469
2136.528	14255
2138.574	14345
2140.618	14254
2142.665	14239
2144.71	14174
2146.753	14184
2148.797	14098
2150.838	14112
2152.883	14185
2154.923	14167
2156.965	14057
2159.007	14009
2161.046	14117
2163.086	14072
2165.126	14137
2167.163	13953
2169.202	14282
2171.239	14035
2173.277	14058
2175.314	14145
2177.349	13877
2179.385	14200
2181.42	14000
2183.453	13833
2185.49	13974
2187.522	14020
2189.555	14116
2191.586	14022
2193.619	13900
2195.651	13824
2197.682	13912
2199.711	13771
2201.74	13945
2203.769	13891
2205.799	13882
2207.828	13810
2209.855	13807
2211.882	13719
2213.908	13680
2215.934	13776
2217.961	13869
2219.986	13880
2222.01	13775
2224.034	13803
2226.057	13926
2228.08	13828
2230.104	13886
2232.124	14010
2234.145	13860
2236.166	13827
2238.186	13866
2240.207	13828
2242.227	13909
2244.244	13846
2246.262	13772
2248.28	13724
2250.299	13722
2252.314	13624
2254.33	13802
2256.346	13825
2258.36	13859
2260.375	13863
2262.391	13767
2264.403	13692
2266.416	13918
2268.427	13809
2270.44	13857
2272.453	13812
2274.463	13827
2276.474	13871
2278.483	13910
2280.493	13842
2282.501	13972
2284.51	13875
2286.518	13808
2288.524	13851
2290.532	13978
2292.537	13868
2294.544	13867
2296.55	13837
2298.554	13701
2300.557	13918
2302.562	13863
2304.566	13708
2306.568	13704
2308.569	13747
2310.572	13791
2312.573	13780
2314.573	13582
2316.574	13714
2318.573	13695
2320.571	13874
2322.571	13885
2324.569	13665
2326.567	13649
2328.564	13672
2330.56	13603
2332.556	13688
2334.551	13622
2336.546	13571
2338.542	13591
2340.535	13621
2342.529	13608
2344.521	13809
2346.512	13647
2348.505	13624
2350.497	13350
2352.487	13509
2354.478	13479
2356.468	13427
2358.457	13449
2360.446	13661
2362.434	13558
2364.422	13559
2366.408	13611
2368.395	13322
2370.383	13551
2372.369	13517
2374.353	13493
2376.338	13332
2378.321	13504
2380.307	13514
2382.29	13496
2384.272	13479
2386.254	13395
2388.235	13386
2390.218	13470
2392.198	13355
2394.179	13342
2396.157	13339
2398.137	13335
2400.115	13241
2402.095	13275
2404.072	13227
2406.048	13473
2408.026	13327
2410.001	13257
2411.977	13408
2413.953	13303
2415.927	13357
2417.9	13434
2419.875	13252
2421.847	13280
2423.821	13446
2425.792	13338
2427.763	13369
2429.736	13498
2431.706	13238
2433.677	13419
2435.646	13336
2437.615	13469
2439.583	13159
2441.551	13248
2443.519	13346
2445.486	13226
2447.452	13406
2449.418	13231
2451.383	13259
2453.348	13317
2455.314	13247
2457.278	13166
2459.241	13208
2461.205	13180
2463.167	13384
2465.131	13236
2467.091	13200
2469.052	13124
2471.012	13339
2472.972	13276
2474.932	13182
2476.891	13111
2478.85	13365
2480.808	13078
2482.766	13284
2484.722	13078
2486.68	13181
2488.636	13037
2490.591	13132
2492.546	13142
2494.5	13141
2496.456	13171
2498.41	13082
2500.362	13163
2502.315	13054
2504.266	13084
2506.218	13124
2508.169	12889
2510.121	13144
2512.07	13105
2514.019	13189
2515.968	13121
2517.918	12982
2519.866	13121
2521.813	13029
2523.76	13081
2525.707	13169
2527.653	12915
2529.599	13096
2531.543	13106
2533.489	13125
2535.433	12993
2537.376	12903
2539.32	13211
2541.264	13179
2543.205	13036
2545.147	13066
2547.087	12996
2549.029	12969
2550.969	12984
2552.908	13057
2554.847	13062
2556.786	13074
2558.724	13117
2560.663	13094
2562.6	13033
2564.537	13001
2566.473	13013
2568.408	12967
2570.345	13054
2572.28	13160
2574.214	13109
2576.148	13078
2578.081	13035
2580.014	13127
2581.947	12998
2583.879	13049
2585.81	13066
2587.741	13197
2589.67	13066
2591.602	13059
2593.532	13023
2595.461	13037
2597.388	13000
2599.316	13028
2601.244	12885
2603.172	12879
2605.098	13012
2607.023	13028
2608.949	12999
2610.873	13001
2612.8	13156
2614.723	13012
2616.647	13067
2618.569	13244
2620.493	13098
2622.416	13108
2624.338	12983
2626.258	13034
2628.179	13082
2630.099	13181
2632.019	13227
2633.939	13001
2635.857	12969
2637.775	13211
2639.694	13209
2641.61	13182
2643.528	13183
2645.444	13163
2647.361	13244
2649.276	13026
2651.19	13181
2653.105	13012
2655.019	13101
2656.934	13138
2658.846	12998
2660.758	12938
2662.67	13073
2664.583	12999
2666.493	13029
2668.404	13004
2670.313	13148
2672.223	13095
2674.134	13091
2676.042	13000
2677.95	13065
2679.858	12935
2681.765	12876
2683.673	13000
2685.579	12906
2687.483	12993
2689.389	13009
2691.294	12845
2693.198	12984
2695.104	12922
2697.006	13144
2698.909	12743
2700.811	12966
2702.713	12946
2704.615	12846
2706.516	12751
2708.417	12963
2710.316	13040
2712.216	12844
2714.115	12973
2716.014	12932
2717.913	12836
2719.81	12904
2721.707	12795
2723.603	12925
2725.501	12834
2727.396	12851
2729.292	12656
2731.186	12839
2733.081	12851
2734.976	12796
2736.87	12821
2738.762	12953
2740.653	12824
2742.546	12767
2744.437	12746
2746.329	12687
2748.22	12741
2750.11	12830
2751.999	12650
2753.889	12910
2755.778	13024
2757.666	12728
2759.553	12630
2761.44	12809
2763.328	12707
2765.215	12699
2767.101	12759
2768.986	12643
2770.87	12794
2772.754	12815
2774.638	12751
2776.523	12826
2778.405	12622
2780.288	12659
2782.17	12711
2784.051	12590
2785.934	12765
2787.814	12695
2789.694	12763
2791.574	12635
2793.453	12439
2795.332	12753
2797.212	12629
2799.088	12751
2800.966	12633
2802.843	12660
2804.719	12622
2806.597	12676
2808.471	12749
2810.346	12679
2812.221	12613
2814.094	12586
2815.969	12540
2817.843	12574
2819.714	12378
2821.587	12505
2823.459	12640
2825.329	12409
2827.202	12550
2829.072	12438
2830.942	12551
2832.811	12447
2834.68	12531
2836.549	12555
2838.418	12415
2840.284	12585
2842.152	12516
2844.018	12521
2845.885	12491
2847.751	12444
2849.616	12599
2851.482	12493
2853.345	12615
2855.208	12407
2857.074	12554
2858.937	12535
2860.799	12466
2862.66	12684
2864.522	12669
2866.385	12452
2868.245	12726
2870.104	12835
2871.964	12692
2873.824	12702
2875.683	12721
2877.542	12911
2879.4	12800
2881.257	12804
2883.114	12947
2884.97	12730
2886.827	12728
2888.683	12875
2890.537	12839
2892.392	12878
2894.246	12851
2896.1	12782
2897.954	12766
2899.807	12581
2901.66	12791
2903.51	12746
2905.362	12812
2907.214	12663
2909.065	12827
2910.915	12761
2912.765	12809
2914.613	12695
2916.463	12939
2918.311	12842
2920.158	13046
2922.006	12973
2923.853	12939
2925.698	12941
2927.546	13005
2929.392	12977
2931.236	13175
2933.081	13186
2934.924	12893
2936.77	13035
2938.613	13104
2940.455	13398
2942.298	13122
2944.139	13244
2945.982	13221
2947.823	13224
2949.662	13013
2951.503	13164
2953.342	13048
2955.182	13042
2957.021	13035
2958.858	13125
2960.697	13029
2962.534	13082
2964.37	13037
2966.207	12782
2968.044	12740
2969.879	12684
2971.714	12811
2973.548	12821
2975.383	12630
2977.218	12476
2979.051	12705
2980.883	12419
2982.715	12437
2984.547	12536
2986.379	12631
2988.21	12522
2990.04	12335
2991.87	12514
2993.7	12434
2995.53	12423
2997.359	12187
2999.187	12303
3001.015	12328
3002.842	12276
3004.669	12102
3006.497	12069
3008.323	12097
3010.148	12167
3011.974	12007
3013.797	11976
3015.623	12164
3017.447	11961
3019.27	11925
3021.094	12027
3022.915	11980
3024.737	12101
3026.56	11825
3028.38	11996
3030.201	11767
3032.022	11843
3033.84	11854
3035.662	11814
3037.481	11848
3039.298	11826
3041.117	11795
3042.933	11877
3044.752	11732
3046.568	11856
3048.385	11780
3050.2	11803
3052.016	11905
3053.83	11826
3055.646	11799
3057.46	11796
3059.272	11835
3061.086	11634
3062.898	11898
3064.711	11717
3066.524	11841
3068.335	11747
3070.145	11513
3071.956	11519
3073.766	11672
3075.576	11668
3077.385	11599
3079.193	11749
3081.002	11570
3082.81	11444
3084.618	11519
3086.425	11638
3088.231	11720
3090.036	11479
3091.842	11524
3093.648	11650
3095.452	11524
3097.257	11638
3099.06	11530
3100.863	11380
3102.666	11518
3104.47	11501
3106.272	11449
3108.073	11492
3109.875	11362
3111.676	11450
3113.477	11366
3115.277	11407
3117.077	11369
3118.874	11383
3120.673	11334
3122.473	11240
3124.271	11356
3126.066	11232
3127.863	11327
3129.66	11443
3131.456	11278
3133.252	11199
3135.047	11336
3136.842	11304
3138.635	11230
3140.429	11224
3142.223	11236
3144.016	11307
3145.808	11369
3147.6	11146
3149.392	11144
3151.183	11136
3152.975	11204
3154.765	11074
3156.553	11101
3158.344	11145
3160.132	11052
3161.922	11080
3163.71	11048
3165.497	11167
3167.285	11177
3169.071	11050
3170.858	11157
3172.645	11148
3174.429	11165
3176.214	11055
3177.998	11030
3179.783	11065
3181.568	10968
3183.351	11023
3185.133	10911
3186.915	10940
3188.698	10884
3190.481	10986
3192.261	11049
3194.042	10986
3195.822	10875
3197.601	11011
3199.381	10984
3201.161	11057
3202.939	10868
3204.717	10991
3206.495	10867
3208.272	10915
3210.05	10978
3211.826	10951
3213.602	10975
3215.376	10723
3217.151	10882
3218.927	10764
3220.702	10700
3222.476	10883
3224.249	10838
3226.021	10861
3227.793	10810
3229.567	10724
3231.339	10806
3233.109	10784
3234.88	10852
3236.651	10930
3238.421	10820
3240.191	10834
3241.96	10778
3243.728	10856
3245.497	10611
3247.263	10812
3249.033	10721
3250.799	10751
3252.566	10669
3254.331	10755
3256.097	10726
3257.863	10761
3259.628	10744
3261.392	10595
3263.156	10806
3264.919	10714
3266.683	10847
3268.447	10671
3270.208	10736
3271.969	10750
3273.731	10640
3275.492	10760
3277.253	10672
3279.013	10703
3280.773	10704
3282.532	10929
3284.291	10763
3286.05	10664
3287.808	10596
3289.566	10815
3291.323	10724
3293.079	10509
3294.835	10669
3296.593	10646
3298.348	10590
3300.102	10766
3301.857	10542
3303.611	10698
3305.366	10562
3307.119	10672
3308.872	10571
3310.624	10679
3312.376	10609
3314.129	10518
3315.881	10607
3317.631	10458
3319.38	10683
3321.13	10461
3322.88	10607
3324.631	10564
3326.379	10592
3328.126	10677
3329.875	10592
3331.622	10628
3333.371	10472
3335.116	10626
3336.863	10545
3338.609	10559
3340.353	10357
3342.1	10574
3343.845	10420
3345.588	10480
3347.332	10388
3349.074	10375
3350.817	10548
3352.56	10499
3354.303	10572
3356.043	10418
3357.785	10485
3359.525	10410
3361.268	10343
3363.007	10353
3364.745	10393
3366.485	10388
3368.223	10437
3369.962	10322
3371.701	10444
3373.438	10339
3375.174	10414
3376.911	10298
3378.647	10510
3380.384	10306
3382.118	10251
3383.854	10232
3385.588	10380
3387.322	10296
3389.057	10233
3390.79	10227
3392.522	10311
3394.255	10311
3395.987	10290
3397.719	10151
3399.451	10210
3401.181	10284
3402.911	10314
3404.641	10175
3406.371	10089
3408.101	10290
3409.83	10140
3411.558	10111
3413.285	10146
3415.011	10215
3416.739	10361
3418.467	10078
3420.193	10243
3421.919	10188
3423.644	10188
3425.368	10167
3427.094	10155
3428.818	10178
3430.542	10045
3432.264	10086
3433.987	10232
3435.712	10181
3437.434	10235
3439.155	9999
3440.876	10143
3442.596	9894
3444.317	9968
3446.039	10035
3447.757	9929
3449.477	9895
3451.195	9945
3452.914	10087
3454.632	10002
3456.35	9874
3458.067	9841
3459.784	9944
3461.5	10051
3463.216	9919
3464.932	9767
3466.647	9858
3468.362	9867
3470.076	9952
3471.789	9794
3473.505	9801
3475.217	9888
3476.929	9717
3478.641	9861
3480.354	9832
3482.066	9756
3483.777	9848
3485.487	9783
3487.197	9817
3488.908	9735
3490.617	9753
3492.327	9794
3494.035	9733
3495.743	9781
3497.451	9627
3499.158	9757
3500.866	9692
3502.572	9632
3504.278	9764
3505.984	9801
3507.689	9671
3509.396	9664
3511.1	9713
3512.804	9742
3514.508	9486
3516.211	9732
3517.913	9771
3519.616	9661
3521.319	9683
3523.021	9674
3524.722	9561
3526.422	9512
3528.124	9728
3529.824	9483
3531.524	9545
3533.222	9591
3534.921	9716
3536.62	9674
3538.318	9557
3540.016	9553
3541.714	9668
3543.41	9660
3545.107	9696
3546.803	9507
3548.5	9350
3550.194	9496
3551.889	9540
3553.583	9588
3555.279	9292
3556.972	9473
3558.666	9401
3560.358	9412
3562.051	9471
3563.742	9626
3565.435	9573
3567.126	9332
3568.817	9481
3570.507	9353
3572.197	9398
3573.888	9377
3575.577	9509
3577.265	9265
3578.954	9423
3580.642	9349
3582.329	9378
3584.017	9302
3585.704	9498
3587.391	9316
3589.077	9397
3590.762	9389
3592.449	9354
3594.133	9456
3595.817	9197
3597.501	9270
3599.185	9265
3600.869	9155
3602.552	9202
3604.234	9253
3605.916	9118
3607.598	9180
3609.279	9099
3610.961	9092
3612.642	9173
3614.321	9210
3616	9000
3617.68	9154
3619.36	9228
3621.039	9041
3622.716	9170
3624.394	8865
3626.071	9049
3627.748	9083
3629.425	9162
3631.102	9131
3632.778	9008
3634.452	9039
3636.127	8897
3637.803	8927
3639.477	9035
3641.151	8920
3642.823	8972
3644.497	9023
3646.171	8954
3647.842	9121
3649.515	8861
3651.185	8766
3652.857	8927
3654.527	9014
3656.198	8900
3657.868	9064
3659.537	8828
3661.207	8806
3662.875	8804
3664.544	8914
3666.212	8765
3667.879	8781
3669.546	8741
3671.212	8864
3672.88	8920
3674.546	8778
3676.211	8864
3677.875	8782
3679.541	8719
3681.205	8751
3682.87	8772
3684.533	8789
3686.196	8814
3687.859	8777
3689.521	8779
3691.184	8752
3692.845	8774
3694.507	8906
3696.167	8815
3697.827	8909
3699.487	8763
3701.148	8784
3702.808	8828
3704.466	8740
3706.125	8732
3707.783	8682
3709.442	8759
3711.099	8682
3712.757	8662
3714.412	8654
3716.068	8797
3717.725	8538
3719.381	8629
3721.036	8621
3722.689	8724
3724.344	8652
3725.998	8728
3727.652	8708
3729.305	8547
3730.958	8696
3732.61	8674
3734.262	8693
3735.915	8505
3737.565	8582
3739.217	8560
3740.866	8540
3742.516	8639
3744.165	8636
3745.816	8548
3747.464	8619
3749.113	8568
3750.761	8558
3752.409	8437
3754.057	8506
3755.703	8474
3757.35	8509
3758.996	8505
3760.641	8525
3762.289	8356
3763.933	8596
3765.577	8665
3767.222	8351
3768.865	8517
3770.508	8472
3772.152	8436
3773.796	8536
3775.438	8317
3777.079	8545
3778.721	8372
3780.363	8406
3782.003	8358
3783.643	8274
3785.283	8272
3786.923	8384
3788.563	8361
3790.203	8272
3791.841	8431
3793.479	8279
3795.115	8397
3796.753	8332
3798.391	8341
3800.027	8244
3801.664	8344
3803.299	8203
3804.935	8437
3806.571	8396
3808.206	8198
3809.839	8167
3811.473	8196
3813.107	8185
3814.74	8110
3816.375	8240
3818.006	8185
3819.638	8270
3821.27	8189
3822.9	8273
3824.532	8230
3826.163	8310
3827.792	8156
3829.423	8152
3831.051	8138
3832.682	8191
3834.311	8193
3835.938	8137
3837.566	8124
3839.193	8007
3840.821	8149
3842.448	8198
3844.075	8120
3845.7	8053
3847.325	8052
3848.951	8136
3850.576	8078
3852.201	7984
3853.825	8037
3855.448	8012
3857.072	7996
3858.694	8011
3860.318	8148
3861.939	8267
3863.562	8100
3865.183	7974
3866.804	7969
3868.426	8003
3870.045	7884
3871.666	8010
3873.285	7972
3874.904	7922
3876.524	7969
3878.142	8019
3879.76	7938
3881.378	8073
3882.995	7988
3884.612	7818
3886.229	7953
3887.845	7918
3889.461	7979
3891.076	7931
3892.691	7915
3894.307	7898
3895.922	7838
3897.536	7876
3899.149	7877
3900.761	7937
3902.374	7853
3903.988	7883
3905.6	7936
3907.212	7997
3908.822	7740
3910.433	7957
3912.045	7818
3913.655	7826
3915.265	7805
3916.875	7809
3918.483	7944
3920.093	7810
3921.702	7794
3923.309	7860
3924.917	7858
3926.523	7946
3928.13	7818
3929.739	7803
3931.344	7905
3932.95	7761
3934.555	7905
3936.159	7784
3937.766	7869
3939.369	7760
3940.974	7803
3942.577	7772
3944.181	7659
3945.783	7885
3947.386	7699
3948.989	7802
3950.59	7746
3952.191	7754
3953.791	7794
3955.394	7835
3956.994	7764
3958.593	7754
3960.192	7681
3961.791	7631
3963.392	7659
3964.99	7619
3966.588	7698
3968.185	7623
3969.782	7732
3971.379	7648
3972.976	7697
3974.572	7628
3976.168	7674
3977.763	7603
3979.358	7596
3980.954	7621
3982.548	7520
3984.142	7530
3985.736	7659
3987.329	7514
3988.922	7550
3990.516	7508
3992.108	7494
3993.698	7422
3995.29	7471
3996.881	7503
3998.473	7500
4000.064	7561
4001.653	7422
4003.242	7460
4004.832	7422
4006.422	7433
4008.01	7435
4009.598	7333
4011.186	7248
4012.773	7398
4014.36	7299
4015.947	7284
4017.534	7391
4019.119	7367
4020.705	7313
4022.291	7262
4023.876	7199
4025.461	7323
4027.044	7293
4028.627	7295
4030.211	7176
4031.795	7228
4033.378	7149
4034.96	7154
4036.542	7232
4038.124	7298
4039.704	7249
4041.286	7261
4042.867	7152
4044.447	7147
4046.026	7217
4047.606	7179
4049.187	7174
4050.765	7281
4052.343	7113
4053.92	7095
4055.498	7176
4057.076	7202
4058.654	7087
4060.23	7101
4061.806	7175
4063.381	7087
4064.957	7113
4066.533	6939
4068.107	7150
4069.682	7084
4071.256	7095
4072.829	7046
4074.404	7211
4075.977	7087
4077.549	7045
4079.121	7140
4080.693	7090
4082.265	7157
4083.836	7082
4085.407	6977
4086.977	6981
4088.547	7058
4090.117	6951
4091.687	7007
4093.256	7125
4094.825	7010
4096.392	6953
4097.96	6967
4099.528	7001
4101.097	6928
4102.663	6867
4104.229	6880
4105.795	6944
4107.361	6906
4108.928	6976
4110.493	6916
4112.058	7025
4113.621	6864
4115.186	6827
4116.75	6899
4118.313	6905
4119.876	6838
4121.438	7019
4123	6934
4124.562	6925
4126.125	6869
4127.686	6835
4129.246	6932
4130.807	6857
4132.367	6858
4133.927	6817
4135.486	6856
4137.046	6939
4138.604	6842
4140.162	6746
4141.72	6792
4143.279	6785
4144.836	6776
4146.393	6711
4147.949	6753
4149.505	6731
4151.062	6658
4152.617	6718
4154.172	6760
4155.727	6731
4157.281	6724
4158.836	6699
4160.39	6781
4161.943	6678
4163.496	6648
4165.048	6638
4166.601	6646
4168.154	6654
4169.706	6746
4171.257	6536
4172.808	6580
4174.358	6753
4175.909	6558
4177.458	6515
4179.008	6542
4180.558	6528
4182.106	6676
4183.655	6605
4185.204	6516
4186.751	6750
4188.298	6443
4189.845	6592
4191.392	6485
4192.939	6524
4194.485	6501
4196.031	6464
4197.576	6415
4199.121	6423
4200.666	6435
4202.211	6553
4203.754	6463
4205.298	6408
4206.84	6453
4208.384	6578
4209.927	6490
4211.47	6335
4213.011	6480
4214.552	6386
4216.094	6384
4217.635	6367
4219.175	6378
4220.716	6427
4222.255	6477
4223.793	6381
4225.335	6516
4226.873	6473
4228.411	6425
4229.948	6374
4231.486	6338
4233.024	6368
4234.562	6411
4236.098	6323
4237.634	6410
4239.169	6307
4240.705	6452
4242.241	6352
4243.776	6422
4245.31	6361
4246.844	6304
4248.378	6292
4249.911	6362
4251.445	6208
4252.978	6333
4254.51	6236
4256.042	6326
4257.574	6292
4259.107	6297
4260.638	6378
4262.169	6336
4263.699	6278
4265.228	6298
4266.759	6320
4268.289	6162
4269.818	6280
4271.345	6190
4272.874	6254
4274.402	6344
4275.931	6165
4277.458	6226
4278.985	6260
4280.512	6271
4282.037	6184
4283.564	6177
4285.089	6160
4286.615	6044
4288.139	6253
4289.664	6090
4291.187	6255
4292.712	6115
4294.235	6018
4295.759	6158
4297.281	6114
4298.804	6149
4300.327	6108
4301.849	6015
4303.37	6065
4304.891	6035
4306.412	6118
4307.933	6034
4309.453	6124
4310.973	5980
4312.492	6050
