398.1873	3982
400.7097	3979
403.2336	3991
405.7547	4044
408.2751	4019
410.7948	3991
413.3138	3951
415.83	4137
418.3497	4036
420.8666	4092
423.3829	4177
425.8985	4141
428.4133	4202
430.9275	4367
433.441	4203
435.9538	4203
438.4639	4269
440.9753	4325
443.4881	4184
445.9982	4202
448.5055	4236
451.0142	4326
453.5201	4262
456.0274	4250
458.5361	4201
461.04	4239
463.5453	4237
466.0478	4151
468.5517	4244
471.0549	4256
473.5574	4321
476.0572	4252
478.5584	4270
481.0568	4299
483.5545	4242
486.0557	4287
488.5521	4354
491.0478	4310
493.5449	4385
496.0392	4319
498.5349	4439
501.0299	4340
503.5222	4418
506.0139	4271
508.5048	4426
510.9991	4447
513.4887	4495
515.9777	4330
518.4659	4281
520.9534	4428
523.4403	4400
525.9306	4407
528.4161	4417
530.9009	4443
533.3851	4429
535.8687	4440
538.3535	4423
540.8356	4461
543.3171	4432
545.7979	4403
548.278	4344
550.7595	4485
553.2383	4396
555.7144	4515
558.1918	4418
560.6685	4444
563.1446	4418
565.6221	4459
568.0968	4544
570.5688	4525
573.0422	4526
575.515	4567
577.989	4594
580.4584	4600
582.9291	4629
585.3991	4671
587.8685	4671
590.3352	4659
592.8052	4585
595.2706	4607
597.7372	4531
600.2033	4536
602.6666	4481
605.1334	4588
607.5953	4484
610.0587	4628
612.5193	4516
614.9814	4522
617.4427	4506
619.9034	4502
622.3615	4576
624.8208	4561
627.2775	4555
629.7335	4526
632.1929	4580
634.6476	4526
637.1016	4559
639.5569	4602
642.0096	4539
644.4637	4576
646.9151	4649
649.3678	4571
651.8179	4617
654.2672	4640
656.7159	4579
659.166	4653
661.6154	4615
664.0622	4746
666.5082	4620
668.9537	4717
671.4005	4636
673.8445	4743
676.288	4671
678.7308	4635
681.1729	4714
683.6163	4735
686.0572	4702
688.4973	4826
690.9368	4729
693.3757	4803
695.8138	4746
698.2534	4782
700.6902	4867
703.1245	4755
705.56	4767
707.9949	4718
710.4311	4766
712.8647	4788
715.2957	4790
717.7279	4775
720.1595	4800
722.5905	4893
725.0208	4904
727.4505	4761
729.8795	4870
732.3058	4790
734.7336	4864
737.1626	4899
739.587	4878
742.0128	4951
744.4359	4910
746.8604	4957
749.2841	4951
751.7073	5015
754.1278	5071
756.5496	4934
758.9688	4995
761.3893	5054
763.8093	5001
766.2285	4968
768.6451	5004
771.0611	5070
773.4784	5083
775.895	5081
778.3091	4870
780.7244	5059
783.1371	5101
785.5493	5063
787.9626	5025
790.3754	4965
792.7856	5078
795.1951	5065
797.6039	4987
800.0121	4988
802.4236	5011
804.8306	5039
807.2369	5100
809.6425	5149
812.0475	4993
814.4538	5125
816.8575	5001
819.2606	5158
821.663	5095
824.0648	5058
826.4659	5047
828.8683	5135
831.2682	5162
833.6674	5095
836.066	5121
838.4639	5181
840.8632	5155
843.2579	5151
845.6539	5236
848.0493	5210
850.444	5269
852.84	5202
855.2315	5222
857.6243	5160
860.0165	5149
862.4081	5222
864.797	5131
867.1892	5219
869.5789	5201
871.9659	5189
874.3542	5329
876.74	5233
879.129	5127
881.5155	5148
883.8994	5199
886.2845	5216
888.6671	5247
891.051	5188
893.4343	5129
895.8169	5159
898.197	5175
900.5783	5235
902.9571	5272
905.3372	5229
907.7167	5302
910.0936	5184
912.4698	5318
914.8474	5289
917.2244	5279
919.5987	5334
921.9744	5417
924.3475	5274
926.72	5327
929.0918	5432
931.4669	5416
933.8375	5466
936.2074	5329
938.5767	5592
940.9454	5451
943.3154	5662
945.6829	5674
948.0497	5676
950.4178	5796
952.7833	6102
955.1483	6211
957.5145	6380
959.8782	6536
962.2412	6426
964.6036	6392
966.9655	6184
969.3266	5990
971.6871	5675
974.0471	5758
976.4064	5546
978.765	5451
981.125	5446
983.4824	5374
985.8373	5366
988.1935	5377
990.549	5314
992.9039	5387
995.2602	5378
997.6119	5399
999.965	5391
1002.317	5424
1004.667	5401
1007.02	5406
1009.371	5469
1011.719	5317
1014.068	5383
1016.415	5494
1018.765	5335
1021.111	5515
1023.458	5441
1025.804	5369
1028.147	5492
1030.49	5552
1032.837	5431
1035.179	5438
1037.522	5543
1039.862	5399
1042.204	5548
1044.546	5403
1046.884	5488
1049.224	5506
1051.562	5460
1053.899	5506
1056.237	5486
1058.575	5516
1060.91	5529
1063.244	5474
1065.58	5382
1067.913	5572
1070.248	5604
1072.579	5620
1074.911	5615
1077.242	5589
1079.572	5510
1081.905	5725
1084.234	5511
1086.562	5533
1088.89	5614
1091.217	5516
1093.544	5552
1095.871	5516
1098.197	5614
1100.521	5571
1102.845	5551
1105.169	5552
1107.491	5444
1109.814	5540
1112.135	5484
1114.456	5464
1116.776	5567
1119.096	5465
1121.415	5505
1123.734	5505
1126.052	5650
1128.369	5613
1130.686	5446
1133.002	5537
1135.318	5644
1137.632	5522
1139.945	5568
1142.258	5548
1144.573	5598
1146.884	5417
1149.196	5590
1151.505	5542
1153.816	5508
1156.124	5562
1158.435	5463
1160.742	5536
1163.051	5486
1165.356	5606
1167.663	5533
1169.97	5573
1172.276	5438
1174.579	5559
1176.881	5494
1179.186	5607
1181.487	5469
1183.79	5493
1186.092	5632
1188.392	5486
1190.691	5494
1192.991	5617
1195.291	5604
1197.588	5542
1199.885	5533
1202.181	5575
1204.479	5555
1206.775	5493
1209.07	5549
1211.363	5594
1213.656	5450
1215.949	5565
1218.241	5591
1220.534	5582
1222.825	5596
1225.115	5703
1227.405	5617
1229.693	5676
1231.984	5636
1234.271	5719
1236.558	5721
1238.845	5776
1241.131	5886
1243.416	5778
1245.703	5732
1247.987	5671
1250.269	5721
1252.552	5826
1254.834	5669
1257.118	5760
1259.399	5798
1261.678	5817
1263.958	5816
1266.237	5661
1268.516	5684
1270.794	5720
1273.072	5862
1275.347	5733
1277.624	5782
1279.899	5765
1282.175	5669
1284.449	5729
1286.722	5735
1288.995	5752
1291.266	5723
1293.54	5638
1295.81	5808
1298.081	5681
1300.35	5648
1302.62	5657
1304.889	5750
1307.156	5700
1309.425	5846
1311.69	5650
1313.957	5672
1316.222	5748
1318.488	5710
1320.751	5697
1323.016	5716
1325.278	5712
1327.54	5717
1329.803	5738
1332.065	5847
1334.325	5725
1336.584	5721
1338.843	5634
1341.101	5637
1343.36	5779
1345.617	5703
1347.876	5625
1350.131	5709
1352.387	5647
1354.643	5774
1356.897	5714
1359.151	5692
1361.403	5730
1363.656	5646
1365.909	5755
1368.16	5772
1370.409	5708
1372.659	5699
1374.909	5757
1377.157	5805
1379.407	5704
1381.655	5746
1383.9	5818
1386.147	5655
1388.393	5768
1390.64	5776
1392.885	5917
1395.127	5827
1397.37	5768
1399.614	5866
1401.854	5951
1404.098	5886
1406.339	5797
1408.578	5833
1410.818	5935
1413.056	5708
1415.297	5774
1417.533	5818
1419.771	5807
1422.006	5873
1424.243	5914
1426.479	5993
1428.715	5859
1430.948	5948
1433.182	5843
1435.414	5854
1437.647	5993
1439.88	5929
1442.11	5981
1444.342	5953
1446.571	5950
1448.799	5850
1451.029	6016
1453.258	6075
1455.485	6057
1457.711	5915
1459.937	5999
1462.164	6071
1464.39	5956
1466.614	5960
1468.838	5896
1471.06	5997
1473.283	5878
1475.506	5982
1477.727	5986
1479.949	5780
1482.169	5853
1484.389	5829
1486.609	5788
1488.828	5747
1491.045	5748
1493.261	5765
1495.477	5762
1497.693	5829
1499.91	5782
1502.125	5721
1504.339	5814
1506.553	5728
1508.766	5891
1510.979	5733
1513.191	5690
1515.402	5817
1517.613	5804
1519.823	5715
1522.033	5795
1524.242	5662
1526.451	5740
1528.657	5804
1530.865	5720
1533.072	5809
1535.278	5834
1537.484	5867
1539.687	5778
1541.892	5789
1544.096	5788
1546.299	5783
1548.502	5800
1550.703	5802
1552.905	5824
1555.104	5791
1557.303	5856
1559.505	5847
1561.703	5796
1563.902	5816
1566.099	5837
1568.295	5994
1570.494	5892
1572.689	5906
1574.883	5960
1577.079	5816
1579.272	5832
1581.467	5918
1583.659	5939
1585.853	5982
1588.044	5841
1590.234	5999
1592.424	5967
1594.615	5868
1596.806	5906
1598.994	5921
1601.182	6041
1603.369	6041
1605.557	6059
1607.744	5864
1609.929	6126
1612.114	6063
1614.298	6062
1616.482	5959
1618.667	6039
1620.85	6049
1623.032	6055
1625.214	5984
1627.395	6132
1629.575	6049
1631.755	5980
1633.935	6115
1636.114	6037
1638.292	6006
1640.471	6128
1642.647	6002
1644.823	6117
1647	6034
1649.175	6179
1651.348	6128
1653.525	6045
1655.698	6183
1657.87	6125
1660.043	6114
1662.213	6248
1664.387	5987
1666.558	6092
1668.727	6220
1670.896	6229
1673.064	6113
1675.233	6138
1677.401	6130
1679.569	6104
1681.735	6119
1683.902	6110
1686.066	6098
1688.233	6184
1690.397	6029
1692.559	6059
1694.723	5924
1696.885	6108
1699.048	6029
1701.21	6155
1703.37	6027
1705.53	6118
1707.689	6051
1709.849	5953
1712.009	6002
1714.166	5969
1716.323	6076
1718.479	5931
1720.634	6032
1722.793	6040
1724.948	5967
1727.102	5951
1729.255	6018
1731.408	6022
1733.562	6023
1735.714	5968
1737.865	5998
1740.016	6058
1742.166	6040
1744.316	6067
1746.467	6036
1748.616	6095
1750.764	6060
1752.911	6080
1755.056	6049
1757.205	6112
1759.35	6017
1761.496	6166
1763.641	6199
1765.785	5981
1767.927	5986
1770.072	6184
1772.214	5988
1774.355	6032
1776.496	6069
1778.637	6127
1780.778	6024
1782.918	6020
1785.057	6109
1787.194	6066
1789.333	6091
1791.472	6018
1793.608	6141
1795.745	5978
1797.879	6221
1800.015	6123
1802.148	6099
1804.284	6023
1806.417	6110
1808.548	6067
1810.682	6196
1812.812	6079
1814.946	6103
1817.075	6084
1819.205	6065
1821.335	6145
1823.463	5991
1825.59	6086
1827.721	6024
1829.847	6175
1831.973	6109
1834.098	6163
1836.223	6022
1838.351	6074
1840.475	5996
1842.598	6084
1844.721	6092
1846.843	6127
1848.966	6086
1851.087	6058
1853.21	5980
1855.33	6043
1857.449	5971
1859.568	6044
1861.688	6123
1863.806	5998
1865.924	6019
1868.039	6048
1870.155	6001
1872.273	5976
1874.388	5954
1876.503	6072
1878.617	6068
1880.73	6015
1882.844	5991
1884.956	6117
1887.068	6069
1889.18	6067
1891.291	6060
1893.4	6121
1895.511	6114
1897.621	6072
1899.73	6130
1901.837	6156
1903.944	6180
1906.053	6091
1908.159	6022
1910.265	6124
1912.369	6144
1914.474	6237
1916.577	6105
1918.683	6234
1920.785	6146
1922.888	6294
1924.989	6186
1927.091	6256
1929.193	6058
1931.294	6225
1933.393	6240
1935.493	6118
1937.59	6248
1939.689	6112
1941.788	6219
1943.884	6129
1945.98	6226
1948.077	6136
1950.171	6130
1952.267	6055
1954.361	6200
1956.455	6260
1958.548	6095
1960.64	6207
1962.733	6134
1964.824	6161
1966.915	6183
1969.005	6175
1971.096	6124
1973.185	6216
1975.275	6139
1977.363	6153
1979.45	6160
1981.537	6196
1983.623	6030
1985.711	6158
1987.796	6156
1989.881	6085
1991.965	6230
1994.047	6149
1996.132	6129
1998.215	6062
2000.297	6183
2002.378	6223
2004.46	6153
2006.54	6071
2008.62	6065
2010.7	6134
2012.779	6103
2014.858	6117
2016.934	6220
2019.013	6024
2021.09	6157
2023.165	6103
2025.241	6106
2027.317	6164
2029.39	6094
2031.466	6109
2033.538	6265
2035.612	6141
2037.683	6197
2039.755	6185
2041.827	6009
2043.898	6089
2045.968	6237
2048.038	6141
2050.106	6192
2052.177	6150
2054.244	6216
2056.313	6168
2058.379	6263
2060.444	6204
2062.511	6173
2064.577	6208
2066.641	6210
2068.705	6251
2070.77	6099
2072.832	6150
2074.896	6058
2076.958	6110
2079.02	6191
2081.081	6228
2083.141	6233
2085.2	6182
2087.261	6134
2089.319	6155
2091.377	6129
2093.435	6237
2095.492	6185
2097.552	6136
2099.607	6143
2101.663	6124
2103.718	6095
2105.771	6096
2107.826	6225
2109.879	6100
2111.932	6215
2113.985	6147
2116.037	6148
2118.088	6142
2120.141	6198
2122.191	6146
2124.239	6150
2126.288	6090
2128.337	6199
2130.387	6125
2132.434	6274
2134.481	6068
2136.528	6159
2138.574	6254
2140.618	6143
2142.665	6167
2144.71	6149
2146.753	6109
2148.797	6188
2150.838	6173
2152.883	6053
2154.923	6140
2156.965	6146
2159.007	6067
2161.046	6168
2163.086	6152
2165.126	6152
2167.163	6033
2169.202	6102
2171.239	6067
2173.277	6125
2175.314	6133
2177.349	6016
2179.385	6105
2181.42	6000
2183.453	6097
2185.49	6016
2187.522	6030
2189.555	6030
2191.586	6093
2193.619	5974
2195.651	6110
2197.682	6040
2199.711	6126
2201.74	6041
2203.769	6004
2205.799	6123
2207.828	6015
2209.855	6048
2211.882	5949
2213.908	6012
2215.934	5812
2217.961	5954
2219.986	5966
2222.01	6003
2224.034	5947
2226.057	5985
2228.08	5934
2230.104	5969
2232.124	6021
2234.145	6028
2236.166	5915
2238.186	5981
2240.207	6048
2242.227	6127
2244.244	5895
2246.262	6065
2248.28	6073
2250.299	6056
2252.314	5967
2254.33	6007
2256.346	6012
2258.36	5978
2260.375	6029
2262.391	6015
2264.403	6099
2266.416	6073
2268.427	5969
2270.44	6008
2272.453	6005
2274.463	5970
2276.474	6120
2278.483	6027
2280.493	6057
2282.501	5958
2284.51	6057
2286.518	6026
2288.524	6093
2290.532	6060
2292.537	6055
2294.544	6041
2296.55	5886
2298.554	5938
2300.557	6070
2302.562	6085
2304.566	6021
2306.568	6090
2308.569	6070
2310.572	5990
2312.573	6083
2314.573	6054
2316.574	6045
2318.573	6003
2320.571	5946
2322.571	6006
2324.569	6101
2326.567	5946
2328.564	5975
2330.56	5981
2332.556	5925
2334.551	6026
2336.546	5926
2338.542	6038
2340.535	5985
2342.529	5911
2344.521	5985
2346.512	5927
2348.505	5915
2350.497	5994
2352.487	6001
2354.478	5888
2356.468	5887
2358.457	6013
2360.446	5880
2362.434	5928
2364.422	5895
2366.408	5925
2368.395	5825
2370.383	5923
2372.369	5975
2374.353	5946
2376.338	5961
2378.321	5923
2380.307	5822
2382.29	5869
2384.272	5976
2386.254	5717
2388.235	5924
2390.218	5876
2392.198	5692
2394.179	5893
2396.157	5890
2398.137	5939
2400.115	5898
2402.095	5752
2404.072	5915
2406.048	5815
2408.026	5828
2410.001	5817
2411.977	5873
2413.953	5864
2415.927	5899
2417.9	5912
2419.875	5866
2421.847	5877
2423.821	5758
2425.792	5847
2427.763	5974
2429.736	5833
2431.706	5879
2433.677	5846
2435.646	5938
2437.615	5937
2439.583	5848
2441.551	5966
2443.519	5909
2445.486	5921
2447.452	5928
2449.418	5814
2451.383	5747
2453.348	5865
2455.314	5907
2457.278	5847
2459.241	5857
2461.205	5828
2463.167	5778
2465.131	5852
2467.091	5858
2469.052	5778
2471.012	5792
2472.972	5784
2474.932	5781
2476.891	5819
2478.85	5712
2480.808	5834
2482.766	5837
2484.722	5808
2486.68	5757
2488.636	5806
2490.591	5769
2492.546	5804
2494.5	5921
2496.456	5897
2498.41	5756
2500.362	5788
2502.315	5873
2504.266	5783
2506.218	5729
2508.169	5793
2510.121	5781
2512.07	5786
2514.019	5737
2515.968	5810
2517.918	5759
2519.866	5792
2521.813	5800
2523.76	5792
2525.707	5823
2527.653	5639
2529.599	5716
2531.543	5827
2533.489	5749
2535.433	5762
2537.376	5834
2539.32	5701
2541.264	5786
2543.205	5754
2545.147	5771
2547.087	5791
2549.029	5709
2550.969	5748
2552.908	5690
2554.847	5757
2556.786	5838
2558.724	5776
2560.663	5726
2562.6	5755
2564.537	5663
2566.473	5794
2568.408	5782
2570.345	5788
2572.28	5840
2574.214	5782
2576.148	5905
2578.081	5645
2580.014	5775
2581.947	5692
2583.879	5819
2585.81	5774
2587.741	5937
2589.67	5780
2591.602	5821
2593.532	5671
2595.461	5612
2597.388	5896
2599.316	5819
2601.244	5738
2603.172	5752
2605.098	5717
2607.023	5876
2608.949	5862
2610.873	5828
2612.8	5751
2614.723	5747
2616.647	5862
2618.569	5772
2620.493	5715
2622.416	5809
2624.338	5754
2626.258	5754
2628.179	5799
2630.099	5835
2632.019	5806
2633.939	5817
2635.857	5827
2637.775	5852
2639.694	5766
2641.61	5803
2643.528	5762
2645.444	5774
2647.361	5839
2649.276	5801
2651.19	5763
2653.105	5776
2655.019	5824
2656.934	5763
2658.846	5747
2660.758	5701
2662.67	5750
2664.583	5923
2666.493	5805
2668.404	5854
2670.313	5755
2672.223	5755
2674.134	5778
2676.042	5812
2677.95	5716
2679.858	5729
2681.765	5686
2683.673	5737
2685.579	5820
2687.483	5780
2689.389	5706
2691.294	5822
2693.198	5759
2695.104	5730
2697.006	5804
2698.909	5783
2700.811	5769
2702.713	5757
2704.615	5630
2706.516	5670
2708.417	5790
2710.316	5686
2712.216	5672
2714.115	5714
2716.014	5753
2717.913	5605
2719.81	5748
2721.707	5807
2723.603	5780
2725.501	5642
2727.396	5706
2729.292	5587
2731.186	5761
2733.081	5834
2734.976	5720
2736.87	5637
2738.762	5721
2740.653	5627
2742.546	5726
2744.437	5787
2746.329	5680
2748.22	5661
2750.11	5725
2751.999	5629
2753.889	5629
2755.778	5639
2757.666	5663
2759.553	5618
2761.44	5674
2763.328	5664
2765.215	5568
2767.101	5698
2768.986	5519
2770.87	5664
2772.754	5655
2774.638	5564
2776.523	5651
2778.405	5600
2780.288	5644
2782.17	5684
2784.051	5681
2785.934	5766
2787.814	5633
2789.694	5608
2791.574	5651
2793.453	5601
2795.332	5723
2797.212	5646
2799.088	5554
2800.966	5595
2802.843	5586
2804.719	5582
2806.597	5687
2808.471	5618
2810.346	5607
2812.221	5625
2814.094	5715
2815.969	5672
2817.843	5637
2819.714	5608
2821.587	5635
2823.459	5598
2825.329	5645
2827.202	5615
2829.072	5672
2830.942	5605
2832.811	5611
2834.68	5523
2836.549	5634
2838.418	5563
2840.284	5675
2842.152	5657
2844.018	5805
2845.885	5760
2847.751	5644
2849.616	5648
2851.482	5721
2853.345	5742
2855.208	5699
2857.074	5718
2858.937	5723
2860.799	5710
2862.66	5830
2864.522	5813
2866.385	5740
2868.245	5870
2870.104	5866
2871.964	5877
2873.824	5858
2875.683	6007
2877.542	5999
2879.4	5946
2881.257	6012
2883.114	6040
2884.97	5992
2886.827	5952
2888.683	6083
2890.537	6083
2892.392	6073
2894.246	6068
2896.1	6086
2897.954	6046
2899.807	5868
2901.66	5991
2903.51	6006
2905.362	5961
2907.214	5973
2909.065	5946
2910.915	5981
2912.765	6184
2914.613	6066
2916.463	6176
2918.311	6176
2920.158	6231
2922.006	6267
2923.853	6213
2925.698	6373
2927.546	6394
2929.392	6388
2931.236	6470
2933.081	6330
2934.924	6487
2936.77	6492
2938.613	6438
2940.455	6564
2942.298	6670
2944.139	6638
2945.982	6649
2947.823	6520
2949.662	6545
2951.503	6536
2953.342	6562
2955.182	6451
2957.021	6500
2958.858	6467
2960.697	6406
2962.534	6455
2964.37	6384
2966.207	6230
2968.044	6202
2969.879	6141
2971.714	6170
2973.548	6153
2975.383	6184
2977.218	6079
2979.051	6072
2980.883	6072
2982.715	6053
2984.547	5932
2986.379	6025
2988.21	5956
2990.04	5947
2991.87	5837
2993.7	5919
2995.53	5843
2997.359	5822
2999.187	5753
3001.015	5761
3002.842	5700
3004.669	5653
3006.497	5652
3008.323	5600
3010.148	5663
3011.974	5556
3013.797	5625
3015.623	5531
3017.447	5425
3019.27	5443
3021.094	5497
3022.915	5439
3024.737	5424
3026.56	5409
3028.38	5494
3030.201	5354
3032.022	5454
3033.84	5431
3035.662	5415
3037.481	5429
3039.298	5412
3041.117	5317
3042.933	5323
3044.752	5262
3046.568	5339
3048.385	5352
3050.2	5427
3052.016	5371
3053.83	5408
3055.646	5357
3057.46	5383
3059.272	5453
3061.086	5350
3062.898	5436
3064.711	5338
3066.524	5288
3068.335	5382
3070.145	5307
3071.956	5375
3073.766	5237
3075.576	5272
3077.385	5283
3079.193	5281
3081.002	5371
3082.81	5292
3084.618	5229
3086.425	5345
3088.231	5239
3090.036	5286
3091.842	5285
3093.648	5263
3095.452	5273
3097.257	5248
3099.06	5220
3100.863	5282
3102.666	5190
3104.47	5333
3106.272	5317
3108.073	5264
3109.875	5218
3111.676	5214
3113.477	5316
3115.277	5249
3117.077	5223
3118.874	5175
3120.673	5113
3122.473	5095
3124.271	5286
3126.066	5246
3127.863	5102
3129.66	5258
3131.456	5218
3133.252	5194
3135.047	5102
3136.842	5233
3138.635	5189
3140.429	5117
3142.223	5172
3144.016	5124
3145.808	5147
3147.6	5101
3149.392	5194
3151.183	5153
3152.975	5105
3154.765	5132
3156.553	5084
3158.344	5059
3160.132	5137
3161.922	5065
3163.71	5150
3165.497	5085
3167.285	5156
3169.071	5047
3170.858	5113
3172.645	5116
3174.429	5079
3176.214	5114
3177.998	5037
3179.783	5079
3181.568	5118
3183.351	5083
3185.133	5145
3186.915	5060
3188.698	5047
3190.481	5080
3192.261	5137
3194.042	5047
3195.822	5099
3197.601	5011
3199.381	5071
3201.161	5020
3202.939	5033
3204.717	5096
3206.495	5022
3208.272	4996
3210.05	5088
3211.826	5170
3213.602	5039
3215.376	4957
3217.151	5016
3218.927	5029
3220.702	4935
3222.476	5030
3224.249	4976
3226.021	4974
3227.793	4965
3229.567	5013
3231.339	5023
3233.109	5013
3234.88	5027
3236.651	5048
3238.421	4935
3240.191	5068
3241.96	4954
3243.728	4949
3245.497	5071
3247.263	5052
3249.033	4989
3250.799	5030
3252.566	4919
3254.331	5020
3256.097	5020
3257.863	5034
3259.628	4988
3261.392	5086
3263.156	4943
3264.919	5027
3266.683	5033
3268.447	4942
3270.208	4972
3271.969	5050
3273.731	4988
3275.492	5062
3277.253	4999
3279.013	5017
3280.773	5027
3282.532	4996
3284.291	4944
3286.05	5068
3287.808	4992
3289.566	4988
3291.323	5027
3293.079	5021
3294.835	4987
3296.593	4873
3298.348	4919
3300.102	4986
3301.857	5009
3303.611	5039
3305.366	4964
3307.119	5029
3308.872	4967
3310.624	4994
3312.376	5040
3314.129	4969
3315.881	5078
3317.631	5037
3319.38	4868
3321.13	5060
3322.88	5017
3324.631	4948
3326.379	4911
3328.126	4946
3329.875	5021
3331.622	4976
3333.371	4921
3335.116	4962
3336.863	5009
3338.609	4957
3340.353	4977
3342.1	4939
3343.845	5010
3345.588	4926
3347.332	4907
3349.074	4968
3350.817	4977
3352.56	5035
3354.303	4921
3356.043	4812
3357.785	4937
3359.525	4861
3361.268	4861
3363.007	4906
3364.745	4891
3366.485	4814
3368.223	4949
3369.962	4876
3371.701	5005
3373.438	4870
3375.174	4965
3376.911	4848
3378.647	4899
3380.384	4833
3382.118	4831
3383.854	4926
3385.588	4834
3387.322	4863
3389.057	4865
3390.79	4893
3392.522	4734
3394.255	4935
3395.987	4898
3397.719	4847
3399.451	4874
3401.181	4872
3402.911	4889
3404.641	4929
3406.371	4821
3408.101	4938
3409.83	4817
3411.558	4936
3413.285	4894
3415.011	4839
3416.739	4722
3418.467	4788
3420.193	4824
3421.919	4722
3423.644	4750
3425.368	4850
3427.094	4751
3428.818	4684
3430.542	4756
3432.264	4776
3433.987	4831
3435.712	4815
3437.434	4774
3439.155	4815
3440.876	4741
3442.596	4713
3444.317	4699
3446.039	4705
3447.757	4726
3449.477	4783
3451.195	4585
3452.914	4752
3454.632	4728
3456.35	4720
3458.067	4665
3459.784	4646
3461.5	4747
3463.216	4768
3464.932	4630
3466.647	4736
3468.362	4625
3470.076	4633
3471.789	4632
3473.505	4655
3475.217	4552
3476.929	4685
3478.641	4668
3480.354	4616
3482.066	4726
3483.777	4570
3485.487	4659
3487.197	4604
3488.908	4624
3490.617	4703
3492.327	4492
3494.035	4566
3495.743	4528
3497.451	4566
3499.158	4510
3500.866	4624
3502.572	4539
3504.278	4503
3505.984	4555
3507.689	4606
3509.396	4555
3511.1	4500
3512.804	4595
3514.508	4595
3516.211	4562
3517.913	4512
3519.616	4422
3521.319	4518
3523.021	4537
3524.722	4432
3526.422	4541
3528.124	4455
3529.824	4535
3531.524	4550
3533.222	4440
3534.921	4530
3536.62	4487
3538.318	4526
3540.016	4450
3541.714	4577
3543.41	4536
3545.107	4478
3546.803	4387
3548.5	4409
3550.194	4397
3551.889	4376
3553.583	4443
3555.279	4364
3556.972	4458
3558.666	4472
3560.358	4432
3562.051	4458
3563.742	4382
3565.435	4400
3567.126	4510
3568.817	4327
3570.507	4435
3572.197	4419
3573.888	4472
3575.577	4435
3577.265	4343
3578.954	4432
3580.642	4445
3582.329	4411
3584.017	4308
3585.704	4442
3587.391	4367
3589.077	4357
3590.762	4334
3592.449	4418
3594.133	4400
3595.817	4445
3597.501	4295
3599.185	4348
3600.869	4308
3602.552	4321
3604.234	4275
3605.916	4323
3607.598	4292
3609.279	4242
3610.961	4312
3612.642	4345
3614.321	4172
3616	4225
3617.68	4205
3619.36	4256
3621.039	4311
3622.716	4228
3624.394	4271
3626.071	4257
3627.748	4259
3629.425	4197
3631.102	4170
3632.778	4162
3634.452	4128
3636.127	4179
3637.803	4143
3639.477	4236
3641.151	4170
3642.823	4190
3644.497	4126
3646.171	4150
3647.842	4194
3649.515	4150
3651.185	4105
3652.857	4088
3654.527	4106
3656.198	4091
3657.868	4179
3659.537	4167
3661.207	4265
3662.875	4097
3664.544	4138
3666.212	4177
3667.879	4185
3669.546	4191
3671.212	4157
3672.88	4133
3674.546	4085
3676.211	4133
3677.875	4090
3679.541	4136
3681.205	4139
3682.87	4104
3684.533	4138
3686.196	4188
3687.859	4083
3689.521	4122
3691.184	4060
3692.845	4126
3694.507	4104
3696.167	4145
3697.827	4136
3699.487	4075
3701.148	4146
3702.808	3978
3704.466	4087
3706.125	4053
3707.783	4036
3709.442	4070
3711.099	4085
3712.757	4014
3714.412	4054
3716.068	3951
3717.725	4079
3719.381	4075
3721.036	4066
3722.689	4015
3724.344	3988
3725.998	4021
3727.652	4016
3729.305	4012
3730.958	3947
3732.61	4087
3734.262	3903
3735.915	4079
3737.565	4030
3739.217	3930
3740.866	3979
3742.516	3903
3744.165	4003
3745.816	3926
3747.464	4014
3749.113	4033
3750.761	3894
3752.409	3926
3754.057	4008
3755.703	3912
3757.35	3893
3758.996	4161
3760.641	3903
3762.289	3959
3763.933	3972
3765.577	3960
3767.222	3926
3768.865	3933
3770.508	3992
3772.152	3955
3773.796	3909
3775.438	3929
3777.079	3898
3778.721	3926
3780.363	4020
3782.003	3932
3783.643	3919
3785.283	3910
3786.923	3932
3788.563	3888
3790.203	3858
3791.841	3907
3793.479	3867
3795.115	3924
3796.753	3906
3798.391	3884
3800.027	3887
3801.664	3879
3803.299	3856
3804.935	3837
3806.571	3853
3808.206	3852
3809.839	3829
3811.473	3830
3813.107	3888
3814.74	3789
3816.375	3826
3818.006	3941
3819.638	3790
3821.27	3833
3822.9	3762
3824.532	3850
3826.163	3794
3827.792	3887
3829.423	3830
3831.051	3831
3832.682	3830
3834.311	3870
3835.938	3874
3837.566	3799
3839.193	3754
3840.821	3803
3842.448	3750
3844.075	3767
3845.7	3793
3847.325	3691
3848.951	3773
3850.576	3817
3852.201	3753
3853.825	3702
3855.448	3776
3857.072	3823
3858.694	3772
3860.318	3765
3861.939	3730
3863.562	3772
3865.183	3748
3866.804	3756
3868.426	3816
3870.045	3793
3871.666	3785
3873.285	3679
3874.904	3748
3876.524	3682
3878.142	3749
3879.76	3738
3881.378	3690
3882.995	3725
3884.612	3702
3886.229	3756
3887.845	3715
3889.461	3701
3891.076	3658
3892.691	3723
3894.307	3774
3895.922	3684
3897.536	3657
3899.149	3736
3900.761	3662
3902.374	3682
3903.988	3766
3905.6	3728
3907.212	3683
3908.822	3661
3910.433	3692
3912.045	3757
3913.655	3683
3915.265	3680
3916.875	3721
3918.483	3717
3920.093	3643
3921.702	3622
3923.309	3697
3924.917	3713
3926.523	3654
3928.13	3658
3929.739	3629
3931.344	3670
3932.95	3697
3934.555	3615
3936.159	3621
3937.766	3621
3939.369	3642
3940.974	3653
3942.577	3609
3944.181	3700
3945.783	3634
3947.386	3657
3948.989	3628
3950.59	3557
3952.191	3557
3953.791	3631
3955.394	3651
3956.994	3641
3958.593	3587
3960.192	3580
3961.791	3620
3963.392	3593
3964.99	3518
3966.588	3622
3968.185	3623
3969.782	3456
3971.379	3571
3972.976	3628
3974.572	3613
3976.168	3508
3977.763	3579
3979.358	3629
3980.954	3567
3982.548	3590
3984.142	3538
3985.736	3550
3987.329	3463
3988.922	3536
3990.516	3456
3992.108	3511
3993.698	3543
3995.29	3524
3996.881	3559
3998.473	3575
4000.064	3510
4001.653	3441
4003.242	3565
4004.832	3553
4006.422	3429
4008.01	3466
4009.598	3585
4011.186	3423
4012.773	3446
4014.36	3469
4015.947	3452
4017.534	3494
4019.119	3412
4020.705	3391
4022.291	3463
4023.876	3504
4025.461	3363
4027.044	3398
4028.627	3440
4030.211	3406
4031.795	3427
4033.378	3410
4034.96	3441
4036.542	3409
4038.124	3316
4039.704	3420
4041.286	3509
4042.867	3411
4044.447	3378
4046.026	3435
4047.606	3401
4049.187	3359
4050.765	3373
4052.343	3433
4053.92	3281
4055.498	3373
4057.076	3394
4058.654	3367
4060.23	3369
4061.806	3404
4063.381	3346
4064.957	3332
4066.533	3444
4068.107	3341
4069.682	3369
4071.256	3307
4072.829	3377
4074.404	3391
4075.977	3296
4077.549	3300
4079.121	3315
4080.693	3317
4082.265	3286
4083.836	3319
4085.407	3312
4086.977	3320
4088.547	3393
4090.117	3261
4091.687	3302
4093.256	3323
4094.825	3323
4096.392	3304
4097.96	3318
4099.528	3344
4101.097	3304
4102.663	3372
4104.229	3286
4105.795	3309
4107.361	3313
4108.928	3369
4110.493	3251
4112.058	3287
4113.621	3325
4115.186	3264
4116.75	3225
4118.313	3313
4119.876	3253
4121.438	3257
4123	3258
4124.562	3224
4126.125	3334
4127.686	3212
4129.246	3234
4130.807	3234
4132.367	3271
4133.927	3343
4135.486	3210
4137.046	3181
4138.604	3250
4140.162	3214
4141.72	3181
4143.279	3272
4144.836	3195
4146.393	3226
4147.949	3145
4149.505	3192
4151.062	3218
4152.617	3149
4154.172	3138
4155.727	3112
4157.281	3143
4158.836	3235
4160.39	3178
4161.943	3158
4163.496	3122
4165.048	3148
4166.601	3137
4168.154	3198
4169.706	3192
4171.257	3135
4172.808	3175
4174.358	3177
4175.909	3094
4177.458	3208
4179.008	3122
4180.558	3132
4182.106	3078
4183.655	3089
4185.204	3123
4186.751	3116
4188.298	3133
4189.845	3092
4191.392	3145
4192.939	3053
4194.485	3068
4196.031	3091
4197.576	3134
4199.121	3103
4200.666	3088
4202.211	3069
4203.754	3076
4205.298	3099
4206.84	3123
4208.384	3026
4209.927	3151
4211.47	3033
4213.011	3009
4214.552	3129
4216.094	3114
4217.635	3030
4219.175	3032
4220.716	3071
4222.255	3022
4223.793	3066
4225.335	3081
4226.873	3093
4228.411	3085
4229.948	3058
4231.486	2976
4233.024	3015
4234.562	3053
4236.098	3076
4237.634	3048
4239.169	3054
4240.705	2960
4242.241	2967
4243.776	3125
4245.31	2993
4246.844	3075
4248.378	2999
4249.911	3021
4251.445	3023
4252.978	3023
4254.51	3023
4256.042	3058
4257.574	2986
4259.107	2984
4260.638	2972
4262.169	2956
4263.699	3014
4265.228	2993
4266.759	3043
4268.289	3007
4269.818	3013
4271.345	2916
4272.874	2964
4274.402	3002
4275.931	2999
4277.458	3063
4278.985	3002
4280.512	2952
4282.037	3021
4283.564	2968
4285.089	2912
4286.615	2980
4288.139	2959
4289.664	3007
4291.187	2884
4292.712	2933
4294.235	2962
4295.759	2868
4297.281	2998
4298.804	2977
4300.327	3040
4301.849	2939
4303.37	3004
4304.891	2883
4306.412	2872
4307.933	2947
4309.453	2873
4310.973	2905
4312.492	2831
