398.1873	4790
400.7097	4820
403.2336	4835
405.7547	4885
408.2751	4794
410.7948	5007
413.3138	4814
415.83	4967
418.3497	5014
420.8666	5056
423.3829	5018
425.8985	5202
428.4133	5118
430.9275	5165
433.441	5205
435.9538	5186
438.4639	5197
440.9753	5229
443.4881	5235
445.9982	5175
448.5055	5164
451.0142	5058
453.5201	5152
456.0274	5141
458.5361	5175
461.04	5197
463.5453	5141
466.0478	5198
468.5517	5112
471.0549	5110
473.5574	5221
476.0572	5169
478.5584	5144
481.0568	5262
483.5545	5211
486.0557	5243
488.5521	5197
491.0478	5304
493.5449	5302
496.0392	5221
498.5349	5213
501.0299	5286
503.5222	5298
506.0139	5325
508.5048	5350
510.9991	5262
513.4887	5367
515.9777	5374
518.4659	5407
520.9534	5334
523.4403	5403
525.9306	5470
528.4161	5345
530.9009	5483
533.3851	5387
535.8687	5377
538.3535	5434
540.8356	5378
543.3171	5399
545.7979	5469
548.278	5445
550.7595	5391
553.2383	5409
555.7144	5445
558.1918	5446
560.6685	5493
563.1446	5474
565.6221	5443
568.0968	5529
570.5688	5478
573.0422	5578
575.515	5464
577.989	5663
580.4584	5626
582.9291	5633
585.3991	5622
587.8685	5662
590.3352	5667
592.8052	5546
595.2706	5556
597.7372	5497
600.2033	5603
602.6666	5619
605.1334	5562
607.5953	5565
610.0587	5529
612.5193	5570
614.9814	5641
617.4427	5576
619.9034	5523
622.3615	5530
624.8208	5457
627.2775	5567
629.7335	5563
632.1929	5463
634.6476	5480
637.1016	5641
639.5569	5570
642.0096	5517
644.4637	5667
646.9151	5627
649.3678	5691
651.8179	5674
654.2672	5686
656.7159	5578
659.166	5661
661.6154	5618
664.0622	5567
666.5082	5675
668.9537	5718
671.4005	5726
673.8445	5745
676.288	5677
678.7308	5738
681.1729	5647
683.6163	5723
686.0572	5751
688.4973	5715
690.9368	5622
693.3757	5790
695.8138	5737
698.2534	5783
700.6902	5761
703.1245	5793
705.56	5838
707.9949	5800
710.4311	5760
712.8647	5821
715.2957	5869
717.7279	5772
720.1595	5771
722.5905	5887
725.0208	5941
727.4505	5905
729.8795	5947
732.3058	5844
734.7336	5880
737.1626	5833
739.587	5928
742.0128	5958
744.4359	6050
746.8604	5861
749.2841	6147
751.7073	6026
754.1278	6060
756.5496	6112
758.9688	6112
761.3893	6073
763.8093	6183
766.2285	6089
768.6451	6218
771.0611	6173
773.4784	6199
775.895	6136
778.3091	6144
780.7244	6023
783.1371	6145
785.5493	6178
787.9626	6162
790.3754	6130
792.7856	6135
795.1951	6099
797.6039	6207
800.0121	6225
802.4236	6221
804.8306	6225
807.2369	6032
809.6425	6300
812.0475	6278
814.4538	6212
816.8575	6201
819.2606	6276
821.663	6242
824.0648	6347
826.4659	6220
828.8683	6241
831.2682	6221
833.6674	6161
836.066	6281
838.4639	6260
840.8632	6338
843.2579	6295
845.6539	6221
848.0493	6492
850.444	6386
852.84	6355
855.2315	6329
857.6243	6422
860.0165	6357
862.4081	6307
864.797	6361
867.1892	6378
869.5789	6341
871.9659	6399
874.3542	6427
876.74	6401
879.129	6414
881.5155	6215
883.8994	6364
886.2845	6348
888.6671	6305
891.051	6240
893.4343	6340
895.8169	6257
898.197	6264
900.5783	6337
902.9571	6443
905.3372	6329
907.7167	6403
910.0936	6512
912.4698	6350
914.8474	6498
917.2244	6551
919.5987	6428
921.9744	6573
924.3475	6606
926.72	6511
929.0918	6674
931.4669	6649
933.8375	6663
936.2074	6580
938.5767	6694
940.9454	6849
943.3154	6876
945.6829	6979
948.0497	7033
950.4178	7305
952.7833	7404
955.1483	7591
957.5145	7892
959.8782	8000
962.2412	8109
964.6036	7858
966.9655	7472
969.3266	7407
971.6871	7067
974.0471	6959
976.4064	6840
978.765	6732
981.125	6594
983.4824	6510
985.8373	6579
988.1935	6581
990.549	6607
992.9039	6566
995.2602	6578
997.6119	6563
999.965	6640
1002.317	6624
1004.667	6513
1007.02	6504
1009.371	6743
1011.719	6585
1014.068	6637
1016.415	6644
1018.765	6486
1021.111	6671
1023.458	6654
1025.804	6769
1028.147	6726
1030.49	6714
1032.837	6778
1035.179	6633
1037.522	6704
1039.862	6697
1042.204	6757
1044.546	6708
1046.884	6656
1049.224	6771
1051.562	6731
1053.899	6772
1056.237	6675
1058.575	6789
1060.91	6745
1063.244	6732
1065.58	6864
1067.913	6851
1070.248	6890
1072.579	6933
1074.911	6956
1077.242	6972
1079.572	6819
1081.905	6879
1084.234	6811
1086.562	6737
1088.89	6697
1091.217	6669
1093.544	6744
1095.871	6699
1098.197	6809
1100.521	6832
1102.845	6775
1105.169	6817
1107.491	6711
1109.814	6645
1112.135	6793
1114.456	6657
1116.776	6642
1119.096	6607
1121.415	6713
1123.734	6732
1126.052	6711
1128.369	6814
1130.686	6801
1133.002	6727
1135.318	6720
1137.632	6729
1139.945	6649
1142.258	6759
1144.573	6852
1146.884	6855
1149.196	6754
1151.505	6697
1153.816	6781
1156.124	6659
1158.435	6895
1160.742	6824
1163.051	6830
1165.356	6706
1167.663	6736
1169.97	6977
1172.276	6789
1174.579	6692
1176.881	6704
1179.186	6783
1181.487	6734
1183.79	6752
1186.092	6730
1188.392	6697
1190.691	6700
1192.991	6661
1195.291	6795
1197.588	6726
1199.885	6757
1202.181	6783
1204.479	6765
1206.775	6799
1209.07	6747
1211.363	6755
1213.656	6808
1215.949	6831
1218.241	6793
1220.534	6919
1222.825	6847
1225.115	6930
1227.405	6844
1229.693	6870
1231.984	6847
1234.271	7005
1236.558	6892
1238.845	6944
1241.131	6873
1243.416	7038
1245.703	6994
1247.987	7053
1250.269	7041
1252.552	7053
1254.834	6961
1257.118	7023
1259.399	7018
1261.678	7080
1263.958	7135
1266.237	7011
1268.516	7211
1270.794	7076
1273.072	7016
1275.347	7128
1277.624	7121
1279.899	6903
1282.175	7104
1284.449	6985
1286.722	6955
1288.995	6931
1291.266	6898
1293.54	6958
1295.81	6954
1298.081	6941
1300.35	6850
1302.62	6904
1304.889	6913
1307.156	6860
1309.425	6756
1311.69	6911
1313.957	7058
1316.222	6906
1318.488	6868
1320.751	6898
1323.016	6835
1325.278	6899
1327.54	6905
1329.803	6942
1332.065	6858
1334.325	6865
1336.584	6931
1338.843	6919
1341.101	6854
1343.36	6935
1345.617	6894
1347.876	7015
1350.131	6972
1352.387	6945
1354.643	6979
1356.897	6896
1359.151	6949
1361.403	6977
1363.656	6983
1365.909	6948
1368.16	6999
1370.409	6978
1372.659	6937
1374.909	7110
1377.157	6935
1379.407	6997
1381.655	7008
1383.9	7108
1386.147	7204
1388.393	6984
1390.64	6890
1392.885	7157
1395.127	7045
1397.37	6998
1399.614	7101
1401.854	7146
1404.098	7088
1406.339	7223
1408.578	7033
1410.818	7191
1413.056	7101
1415.297	7110
1417.533	7136
1419.771	7145
1422.006	7153
1424.243	7243
1426.479	7135
1428.715	7235
1430.948	7181
1433.182	7286
1435.414	7291
1437.647	7268
1439.88	7180
1442.11	7200
1444.342	7216
1446.571	7273
1448.799	7311
1451.029	7325
1453.258	7403
1455.485	7520
1457.711	7257
1459.937	7341
1462.164	7242
1464.39	7255
1466.614	7363
1468.838	7306
1471.06	7105
1473.283	7217
1475.506	7134
1477.727	7053
1479.949	7022
1482.169	7186
1484.389	7129
1486.609	6982
1488.828	7153
1491.045	7062
1493.261	7041
1495.477	7134
1497.693	7016
1499.91	7111
1502.125	6996
1504.339	7014
1506.553	7094
1508.766	7012
1510.979	7078
1513.191	6941
1515.402	6968
1517.613	6956
1519.823	7114
1522.033	7055
1524.242	6962
1526.451	6909
1528.657	6960
1530.865	7020
1533.072	7040
1535.278	7038
1537.484	7062
1539.687	6941
1541.892	7026
1544.096	7018
1546.299	7047
1548.502	7126
1550.703	6988
1552.905	7051
1555.104	7195
1557.303	7148
1559.505	7238
1561.703	7045
1563.902	6989
1566.099	7228
1568.295	7247
1570.494	7206
1572.689	7156
1574.883	7134
1577.079	7140
1579.272	7242
1581.467	7153
1583.659	7207
1585.853	7232
1588.044	7308
1590.234	7160
1592.424	7277
1594.615	7234
1596.806	7163
1598.994	7250
1601.182	7402
1603.369	7406
1605.557	7278
1607.744	7392
1609.929	7227
1612.114	7326
1614.298	7204
1616.482	7233
1618.667	7266
1620.85	7362
1623.032	7277
1625.214	7242
1627.395	7351
1629.575	7299
1631.755	7311
1633.935	7375
1636.114	7428
1638.292	7392
1640.471	7285
1642.647	7321
1644.823	7342
1647	7303
1649.175	7361
1651.348	7361
1653.525	7425
1655.698	7487
1657.87	7490
1660.043	7532
1662.213	7468
1664.387	7489
1666.558	7520
1668.727	7375
1670.896	7422
1673.064	7404
1675.233	7402
1677.401	7331
1679.569	7484
1681.735	7444
1683.902	7462
1686.066	7390
1688.233	7439
1690.397	7284
1692.559	7371
1694.723	7371
1696.885	7314
1699.048	7371
1701.21	7354
1703.37	7185
1705.53	7416
1707.689	7298
1709.849	7228
1712.009	7344
1714.166	7370
1716.323	7336
1718.479	7289
1720.634	7379
1722.793	7141
1724.948	7219
1727.102	7155
1729.255	7261
1731.408	7342
1733.562	7392
1735.714	7276
1737.865	7364
1740.016	7252
1742.166	7273
1744.316	7247
1746.467	7233
1748.616	7315
1750.764	7283
1752.911	7362
1755.056	7353
1757.205	7289
1759.35	7384
1761.496	7273
1763.641	7419
1765.785	7269
1767.927	7407
1770.072	7393
1772.214	7437
1774.355	7432
1776.496	7450
1778.637	7226
1780.778	7438
1782.918	7272
1785.057	7405
1787.194	7308
1789.333	7438
1791.472	7366
1793.608	7381
1795.745	7316
1797.879	7418
1800.015	7407
1802.148	7463
1804.284	7366
1806.417	7376
1808.548	7326
1810.682	7403
1812.812	7440
1814.946	7418
1817.075	7318
1819.205	7294
1821.335	7451
1823.463	7360
1825.59	7349
1827.721	7381
1829.847	7312
1831.973	7410
1834.098	7311
1836.223	7303
1838.351	7396
1840.475	7385
1842.598	7300
1844.721	7422
1846.843	7338
1848.966	7318
1851.087	7315
1853.21	7343
1855.33	7277
1857.449	7342
1859.568	7275
1861.688	7380
1863.806	7243
1865.924	7305
1868.039	7435
1870.155	7343
1872.273	7361
1874.388	7303
1876.503	7325
1878.617	7454
1880.73	7435
1882.844	7310
1884.956	7302
1887.068	7289
1889.18	7370
1891.291	7356
1893.4	7372
1895.511	7427
1897.621	7399
1899.73	7345
1901.837	7328
1903.944	7341
1906.053	7325
1908.159	7277
1910.265	7419
1912.369	7465
1914.474	7337
1916.577	7507
1918.683	7336
1920.785	7486
1922.888	7415
1924.989	7442
1927.091	7440
1929.193	7341
1931.294	7443
1933.393	7494
1935.493	7382
1937.59	7485
1939.689	7503
1941.788	7579
1943.884	7417
1945.98	7412
1948.077	7544
1950.171	7365
1952.267	7414
1954.361	7400
1956.455	7576
1958.548	7585
1960.64	7448
1962.733	7492
1964.824	7386
1966.915	7439
1969.005	7374
1971.096	7478
1973.185	7472
1975.275	7489
1977.363	7467
1979.45	7357
1981.537	7360
1983.623	7273
1985.711	7420
1987.796	7478
1989.881	7289
1991.965	7402
1994.047	7428
1996.132	7314
1998.215	7364
2000.297	7445
2002.378	7477
2004.46	7442
2006.54	7406
2008.62	7454
2010.7	7443
2012.779	7397
2014.858	7381
2016.934	7382
2019.013	7415
2021.09	7347
2023.165	7357
2025.241	7456
2027.317	7320
2029.39	7423
2031.466	7385
2033.538	7342
2035.612	7357
2037.683	7382
2039.755	7361
2041.827	7461
2043.898	7370
2045.968	7404
2048.038	7358
2050.106	7437
2052.177	7262
2054.244	7469
2056.313	7398
2058.379	7388
2060.444	7453
2062.511	7423
2064.577	7376
2066.641	7428
2068.705	7330
2070.77	7447
2072.832	7328
2074.896	7440
2076.958	7408
2079.02	7263
2081.081	7382
2083.141	7503
2085.2	7436
2087.261	7361
2089.319	7347
2091.377	7316
2093.435	7445
2095.492	7502
2097.552	7368
2099.607	7388
2101.663	7473
2103.718	7401
2105.771	7420
2107.826	7526
2109.879	7420
2111.932	7397
2113.985	7428
2116.037	7456
2118.088	7397
2120.141	7499
2122.191	7533
2124.239	7491
2126.288	7330
2128.337	7387
2130.387	7380
2132.434	7371
2134.481	7420
2136.528	7405
2138.574	7481
2140.618	7476
2142.665	7311
2144.71	7333
2146.753	7364
2148.797	7454
2150.838	7429
2152.883	7370
2154.923	7403
2156.965	7363
2159.007	7395
2161.046	7515
2163.086	7356
2165.126	7335
2167.163	7370
2169.202	7260
2171.239	7322
2173.277	7444
2175.314	7327
2177.349	7316
2179.385	7460
2181.42	7456
2183.453	7309
2185.49	7214
2187.522	7222
2189.555	7450
2191.586	7344
2193.619	7336
2195.651	7327
2197.682	7253
2199.711	7207
2201.74	7215
2203.769	7344
2205.799	7235
2207.828	7317
2209.855	7331
2211.882	7207
2213.908	7203
2215.934	7212
2217.961	7230
2219.986	7154
2222.01	7197
2224.034	7255
2226.057	7336
2228.08	7193
2230.104	7136
2232.124	7252
2234.145	7284
2236.166	7187
2238.186	7242
2240.207	7224
2242.227	7186
2244.244	7259
2246.262	7251
2248.28	7328
2250.299	7182
2252.314	7184
2254.33	7347
2256.346	7246
2258.36	7248
2260.375	7272
2262.391	7343
2264.403	7275
2266.416	7376
2268.427	7233
2270.44	7136
2272.453	7272
2274.463	7288
2276.474	7243
2278.483	7230
2280.493	7203
2282.501	7387
2284.51	7286
2286.518	7292
2288.524	7202
2290.532	7302
2292.537	7152
2294.544	7128
2296.55	7328
2298.554	7254
2300.557	7094
2302.562	7229
2304.566	7259
2306.568	7154
2308.569	7255
2310.572	7206
2312.573	7183
2314.573	7213
2316.574	7180
2318.573	7239
2320.571	7204
2322.571	7197
2324.569	7188
2326.567	7313
2328.564	7194
2330.56	7096
2332.556	7244
2334.551	7117
2336.546	7124
2338.542	7101
2340.535	7224
2342.529	7108
2344.521	7240
2346.512	7107
2348.505	6980
2350.497	7125
2352.487	7106
2354.478	7192
2356.468	7156
2358.457	7062
2360.446	7076
2362.434	7064
2364.422	7009
2366.408	7113
2368.395	7230
2370.383	7226
2372.369	7241
2374.353	7114
2376.338	7039
2378.321	7204
2380.307	7188
2382.29	7037
2384.272	7066
2386.254	7016
2388.235	7001
2390.218	7055
2392.198	7085
2394.179	7026
2396.157	7083
2398.137	7068
2400.115	6867
2402.095	7247
2404.072	6974
2406.048	7133
2408.026	7049
2410.001	7017
2411.977	7166
2413.953	6888
2415.927	7094
2417.9	7082
2419.875	7056
2421.847	7035
2423.821	7070
2425.792	7178
2427.763	7097
2429.736	7016
2431.706	7140
2433.677	6818
2435.646	7081
2437.615	6992
2439.583	7074
2441.551	6997
2443.519	7044
2445.486	6982
2447.452	7006
2449.418	7110
2451.383	7049
2453.348	7157
2455.314	7039
2457.278	6976
2459.241	7003
2461.205	7004
2463.167	7097
2465.131	6920
2467.091	7057
2469.052	6960
2471.012	6992
2472.972	7083
2474.932	6931
2476.891	6964
2478.85	7030
2480.808	6983
2482.766	6905
2484.722	6887
2486.68	6958
2488.636	6851
2490.591	6899
2492.546	6898
2494.5	6873
2496.456	7035
2498.41	6933
2500.362	6967
2502.315	7109
2504.266	6938
2506.218	6816
2508.169	6944
2510.121	6961
2512.07	6970
2514.019	6946
2515.968	6892
2517.918	6896
2519.866	6898
2521.813	6914
2523.76	6847
2525.707	6900
2527.653	6885
2529.599	6793
2531.543	7015
2533.489	6908
2535.433	6850
2537.376	7006
2539.32	6963
2541.264	6893
2543.205	6943
2545.147	6886
2547.087	6875
2549.029	6965
2550.969	6972
2552.908	6951
2554.847	6928
2556.786	6927
2558.724	6996
2560.663	6831
2562.6	6995
2564.537	6865
2566.473	6969
2568.408	6959
2570.345	6977
2572.28	6881
2574.214	6859
2576.148	6909
2578.081	6846
2580.014	6986
2581.947	6904
2583.879	6958
2585.81	6841
2587.741	6944
2589.67	6854
2591.602	6919
2593.532	6801
2595.461	7061
2597.388	6926
2599.316	6899
2601.244	6869
2603.172	6935
2605.098	6877
2607.023	6950
2608.949	6988
2610.873	6885
2612.8	7056
2614.723	6888
2616.647	6937
2618.569	7010
2620.493	7012
2622.416	6884
2624.338	6848
2626.258	6999
2628.179	6881
2630.099	6942
2632.019	6963
2633.939	6909
2635.857	6978
2637.775	6941
2639.694	7025
2641.61	6890
2643.528	7019
2645.444	6985
2647.361	6994
2649.276	6828
2651.19	6864
2653.105	7054
2655.019	6810
2656.934	6975
2658.846	6830
2660.758	6973
2662.67	6863
2664.583	6943
2666.493	6888
2668.404	6981
2670.313	6803
2672.223	6892
2674.134	6901
2676.042	6921
2677.95	6900
2679.858	6877
2681.765	6855
2683.673	6841
2685.579	6974
2687.483	6843
2689.389	6767
2691.294	6865
2693.198	6926
2695.104	6789
2697.006	6942
2698.909	6986
2700.811	6896
2702.713	6870
2704.615	6783
2706.516	6832
2708.417	6861
2710.316	6849
2712.216	6837
2714.115	6829
2716.014	6857
2717.913	6937
2719.81	6866
2721.707	6781
2723.603	6744
2725.501	6763
2727.396	6724
2729.292	6884
2731.186	6854
2733.081	6826
2734.976	6809
2736.87	6865
2738.762	6756
2740.653	6872
2742.546	6825
2744.437	6859
2746.329	6875
2748.22	6736
2750.11	6845
2751.999	6737
2753.889	6810
2755.778	6800
2757.666	6809
2759.553	6736
2761.44	6817
2763.328	6742
2765.215	6849
2767.101	6809
2768.986	6737
2770.87	6679
2772.754	6792
2774.638	6715
2776.523	6730
2778.405	6795
2780.288	6719
2782.17	6773
2784.051	6691
2785.934	6744
2787.814	6803
2789.694	6728
2791.574	6774
2793.453	6828
2795.332	6771
2797.212	6838
2799.088	6676
2800.966	6753
2802.843	6774
2804.719	6629
2806.597	6775
2808.471	6627
2810.346	6742
2812.221	6711
2814.094	6831
2815.969	6753
2817.843	6644
2819.714	6831
2821.587	6768
2823.459	6713
2825.329	6757
2827.202	6712
2829.072	6743
2830.942	6702
2832.811	6678
2834.68	6640
2836.549	6768
2838.418	6719
2840.284	6759
2842.152	6739
2844.018	6790
2845.885	6699
2847.751	6713
2849.616	6801
2851.482	6823
2853.345	6830
2855.208	6767
2857.074	6747
2858.937	6879
2860.799	6826
2862.66	6806
2864.522	6953
2866.385	6953
2868.245	6932
2870.104	6945
2871.964	6939
2873.824	7056
2875.683	7114
2877.542	7122
2879.4	7091
2881.257	7203
2883.114	7144
2884.97	7338
2886.827	7043
2888.683	7265
2890.537	7196
2892.392	7057
2894.246	7187
2896.1	7254
2897.954	7221
2899.807	7085
2901.66	7249
2903.51	7155
2905.362	7144
2907.214	7253
2909.065	7225
2910.915	7265
2912.765	7334
2914.613	7229
2916.463	7314
2918.311	7247
2920.158	7465
2922.006	7359
2923.853	7440
2925.698	7621
2927.546	7641
2929.392	7801
2931.236	7723
2933.081	7811
2934.924	7805
2936.77	7906
2938.613	7849
2940.455	7884
2942.298	7976
2944.139	7909
2945.982	7988
2947.823	7855
2949.662	7908
2951.503	7941
2953.342	7881
2955.182	7775
2957.021	7819
2958.858	7699
2960.697	7639
2962.534	7604
2964.37	7592
2966.207	7411
2968.044	7430
2969.879	7542
2971.714	7292
2973.548	7328
2975.383	7419
2977.218	7247
2979.051	7246
2980.883	7300
2982.715	7349
2984.547	7291
2986.379	7181
2988.21	7254
2990.04	7085
2991.87	7105
2993.7	7017
2995.53	6917
2997.359	7006
2999.187	6976
3001.015	7004
3002.842	6832
3004.669	6827
3006.497	6768
3008.323	6841
3010.148	6692
3011.974	6704
3013.797	6576
3015.623	6575
3017.447	6563
3019.27	6558
3021.094	6623
3022.915	6486
3024.737	6530
3026.56	6498
3028.38	6446
3030.201	6517
3032.022	6428
3033.84	6420
3035.662	6505
3037.481	6605
3039.298	6446
3041.117	6423
3042.933	6331
3044.752	6347
3046.568	6511
3048.385	6323
3050.2	6488
3052.016	6479
3053.83	6453
3055.646	6406
3057.46	6431
3059.272	6502
3061.086	6461
3062.898	6398
3064.711	6492
3066.524	6405
3068.335	6309
3070.145	6297
3071.956	6453
3073.766	6366
3075.576	6366
3077.385	6261
3079.193	6347
3081.002	6333
3082.81	6246
3084.618	6301
3086.425	6304
3088.231	6370
3090.036	6324
3091.842	6336
3093.648	6202
3095.452	6231
3097.257	6267
3099.06	6240
3100.863	6303
3102.666	6207
3104.47	6162
3106.272	6159
3108.073	6254
3109.875	6227
3111.676	6267
3113.477	6196
3115.277	6083
3117.077	6173
3118.874	6170
3120.673	6166
3122.473	5990
3124.271	6162
3126.066	6170
3127.863	6120
3129.66	6149
3131.456	6064
3133.252	6099
3135.047	6127
3136.842	6080
3138.635	6164
3140.429	6100
3142.223	6183
3144.016	6175
3145.808	6037
3147.6	6103
3149.392	6163
3151.183	6039
3152.975	6058
3154.765	6152
3156.553	6060
3158.344	6049
3160.132	6098
3161.922	6006
3163.71	6009
3165.497	5978
3167.285	5990
3169.071	6023
3170.858	6067
3172.645	6084
3174.429	6104
3176.214	6026
3177.998	6059
3179.783	6014
3181.568	5967
3183.351	6085
3185.133	6112
3186.915	5935
3188.698	6053
3190.481	5933
3192.261	6139
3194.042	6005
3195.822	6014
3197.601	6197
3199.381	5953
3201.161	6067
3202.939	6047
3204.717	6003
3206.495	5971
3208.272	6065
3210.05	5920
3211.826	5946
3213.602	6005
3215.376	5948
3217.151	5987
3218.927	5916
3220.702	5859
3222.476	5980
3224.249	6007
3226.021	5909
3227.793	6029
3229.567	6023
3231.339	6019
3233.109	6044
3234.88	5907
3236.651	5966
3238.421	5939
3240.191	6034
3241.96	5896
3243.728	6022
3245.497	5904
3247.263	6011
3249.033	5997
3250.799	5920
3252.566	5945
3254.331	6019
3256.097	5940
3257.863	6030
3259.628	5948
3261.392	5948
3263.156	6047
3264.919	5987
3266.683	5908
3268.447	6106
3270.208	5882
3271.969	5999
3273.731	5965
3275.492	6000
3277.253	6040
3279.013	5954
3280.773	5986
3282.532	5883
3284.291	6023
3286.05	5907
3287.808	5994
3289.566	5998
3291.323	5916
3293.079	5846
3294.835	5978
3296.593	5941
3298.348	5974
3300.102	5943
3301.857	5916
3303.611	5996
3305.366	5927
3307.119	5956
3308.872	5871
3310.624	5994
3312.376	5946
3314.129	6052
3315.881	5970
3317.631	5891
3319.38	5911
3321.13	5995
3322.88	5905
3324.631	5997
3326.379	5911
3328.126	5968
3329.875	5996
3331.622	5799
3333.371	5886
3335.116	5918
3336.863	5983
3338.609	5959
3340.353	5968
3342.1	5903
3343.845	5915
3345.588	5819
3347.332	5868
3349.074	5927
3350.817	5894
3352.56	5820
3354.303	5888
3356.043	5845
3357.785	5823
3359.525	5862
3361.268	5854
3363.007	5839
3364.745	5819
3366.485	5846
3368.223	5856
3369.962	5782
3371.701	5911
3373.438	5714
3375.174	5805
3376.911	5826
3378.647	5879
3380.384	5922
3382.118	5801
3383.854	5809
3385.588	5834
3387.322	5722
3389.057	5742
3390.79	5806
3392.522	5729
3394.255	5861
3395.987	5828
3397.719	5803
3399.451	5792
3401.181	5787
3402.911	5698
3404.641	5812
3406.371	5682
3408.101	5770
3409.83	5709
3411.558	5679
3413.285	5684
3415.011	5714
3416.739	5746
3418.467	5707
3420.193	5603
3421.919	5662
3423.644	5654
3425.368	5706
3427.094	5541
3428.818	5577
3430.542	5646
3432.264	5758
3433.987	5727
3435.712	5588
3437.434	5647
3439.155	5579
3440.876	5679
3442.596	5574
3444.317	5682
3446.039	5713
3447.757	5631
3449.477	5564
3451.195	5579
3452.914	5518
3454.632	5608
3456.35	5544
3458.067	5582
3459.784	5554
3461.5	5587
3463.216	5611
3464.932	5505
3466.647	5457
3468.362	5560
3470.076	5553
3471.789	5505
3473.505	5570
3475.217	5618
3476.929	5418
3478.641	5492
3480.354	5458
3482.066	5458
3483.777	5500
3485.487	5487
3487.197	5586
3488.908	5439
3490.617	5459
3492.327	5363
3494.035	5532
3495.743	5359
3497.451	5389
3499.158	5493
3500.866	5469
3502.572	5439
3504.278	5467
3505.984	5423
3507.689	5277
3509.396	5485
3511.1	5281
3512.804	5373
3514.508	5326
3516.211	5459
3517.913	5432
3519.616	5389
3521.319	5378
3523.021	5417
3524.722	5365
3526.422	5334
3528.124	5438
3529.824	5393
3531.524	5224
3533.222	5349
3534.921	5213
3536.62	5374
3538.318	5371
3540.016	5310
3541.714	5337
3543.41	5403
3545.107	5267
3546.803	5246
3548.5	5219
3550.194	5312
3551.889	5283
3553.583	5319
3555.279	5221
3556.972	5318
3558.666	5248
3560.358	5179
3562.051	5230
3563.742	5226
3565.435	5224
3567.126	5232
3568.817	5207
3570.507	5314
3572.197	5215
3573.888	5211
3575.577	5206
3577.265	5166
3578.954	5200
3580.642	5151
3582.329	5212
3584.017	5144
3585.704	5190
3587.391	5012
3589.077	5119
3590.762	5128
3592.449	5104
3594.133	5227
3595.817	5043
3597.501	5107
3599.185	5148
3600.869	5095
3602.552	5064
3604.234	5041
3605.916	5044
3607.598	4860
3609.279	5113
3610.961	5062
3612.642	5111
3614.321	5152
3616	5046
3617.68	4937
3619.36	5060
3621.039	4946
3622.716	5063
3624.394	4970
3626.071	5079
3627.748	5079
3629.425	5009
3631.102	4980
3632.778	5033
3634.452	4954
3636.127	4980
3637.803	4969
3639.477	5004
3641.151	5012
3642.823	5056
3644.497	4945
3646.171	4965
3647.842	4991
3649.515	4993
3651.185	4978
3652.857	4838
3654.527	4845
3656.198	4845
3657.868	4939
3659.537	4844
3661.207	4892
3662.875	4864
3664.544	4886
3666.212	4976
3667.879	4944
3669.546	4898
3671.212	4914
3672.88	4812
3674.546	4840
3676.211	4888
3677.875	4885
3679.541	4940
3681.205	4757
3682.87	4900
3684.533	4814
3686.196	4829
3687.859	4792
3689.521	4739
3691.184	4746
3692.845	4769
3694.507	4787
3696.167	4847
3697.827	4865
3699.487	4769
3701.148	4781
3702.808	4767
3704.466	4758
3706.125	4913
3707.783	4704
3709.442	4900
3711.099	4819
3712.757	4845
3714.412	4859
3716.068	4708
3717.725	4820
3719.381	4877
3721.036	4805
3722.689	4737
3724.344	4784
3725.998	4798
3727.652	4791
3729.305	4836
3730.958	4728
3732.61	4753
3734.262	4724
3735.915	4712
3737.565	4814
3739.217	4758
3740.866	4691
3742.516	4778
3744.165	4731
3745.816	4748
3747.464	4729
3749.113	4856
3750.761	4730
3752.409	4719
3754.057	4688
3755.703	4618
3757.35	4735
3758.996	4629
3760.641	4692
3762.289	4768
3763.933	4673
3765.577	4809
3767.222	4695
3768.865	4670
3770.508	4722
3772.152	4566
3773.796	4789
3775.438	4614
3777.079	4649
3778.721	4701
3780.363	4620
3782.003	4654
3783.643	4575
3785.283	4610
3786.923	4560
3788.563	4648
3790.203	4567
3791.841	4586
3793.479	4576
3795.115	4560
3796.753	4642
3798.391	4601
3800.027	4521
3801.664	4524
3803.299	4568
3804.935	4604
3806.571	4596
3808.206	4545
3809.839	4502
3811.473	4514
3813.107	4523
3814.74	4517
3816.375	4522
3818.006	4542
3819.638	4501
3821.27	4504
3822.9	4436
3824.532	4471
3826.163	4455
3827.792	4488
3829.423	4527
3831.051	4505
3832.682	4506
3834.311	4514
3835.938	4482
3837.566	4454
3839.193	4528
3840.821	4420
3842.448	4490
3844.075	4445
3845.7	4492
3847.325	4415
3848.951	4444
3850.576	4445
3852.201	4405
3853.825	4471
3855.448	4370
3857.072	4535
3858.694	4376
3860.318	4365
3861.939	4489
3863.562	4353
3865.183	4434
3866.804	4325
3868.426	4381
3870.045	4376
3871.666	4455
3873.285	4405
3874.904	4445
3876.524	4337
3878.142	4384
3879.76	4353
3881.378	4401
3882.995	4407
3884.612	4361
3886.229	4327
3887.845	4393
3889.461	4315
3891.076	4375
3892.691	4296
3894.307	4392
3895.922	4346
3897.536	4363
3899.149	4322
3900.761	4423
3902.374	4334
3903.988	4369
3905.6	4364
3907.212	4405
3908.822	4344
3910.433	4263
3912.045	4387
3913.655	4303
3915.265	4324
3916.875	4288
3918.483	4289
3920.093	4352
3921.702	4222
3923.309	4334
3924.917	4343
3926.523	4306
3928.13	4318
3929.739	4267
3931.344	4294
3932.95	4422
3934.555	4312
3936.159	4173
3937.766	4351
3939.369	4283
3940.974	4274
3942.577	4352
3944.181	4287
3945.783	4288
3947.386	4319
3948.989	4251
3950.59	4293
3952.191	4337
3953.791	4231
3955.394	4245
3956.994	4191
3958.593	4240
3960.192	4226
3961.791	4135
3963.392	4213
3964.99	4232
3966.588	4227
3968.185	4297
3969.782	4246
3971.379	4191
3972.976	4159
3974.572	4211
3976.168	4263
3977.763	4230
3979.358	4178
3980.954	4265
3982.548	4153
3984.142	4210
3985.736	4191
3987.329	4147
3988.922	4145
3990.516	4118
3992.108	4019
3993.698	4133
3995.29	4217
3996.881	4106
3998.473	4143
4000.064	4104
4001.653	4097
4003.242	4093
4004.832	4067
4006.422	4053
4008.01	4092
4009.598	4078
4011.186	4093
4012.773	4114
4014.36	4125
4015.947	4031
4017.534	4103
4019.119	4096
4020.705	4074
4022.291	4055
4023.876	4057
4025.461	4107
4027.044	4066
4028.627	4049
4030.211	4066
4031.795	4105
4033.378	3959
4034.96	3978
4036.542	4072
4038.124	4048
4039.704	4049
4041.286	4017
4042.867	3956
4044.447	3960
4046.026	4024
4047.606	3954
4049.187	3890
4050.765	3986
4052.343	4013
4053.92	3948
4055.498	3938
4057.076	4007
4058.654	4012
4060.23	3959
4061.806	3949
4063.381	3883
4064.957	3869
4066.533	3940
4068.107	3969
4069.682	3924
4071.256	3946
4072.829	4040
4074.404	3920
4075.977	3882
4077.549	3943
4079.121	3960
4080.693	3855
4082.265	3901
4083.836	3879
4085.407	3989
4086.977	3942
4088.547	3915
4090.117	3894
4091.687	3961
4093.256	3855
4094.825	3897
4096.392	3882
4097.96	3836
4099.528	3882
4101.097	3953
4102.663	3892
4104.229	3968
4105.795	3897
4107.361	3901
4108.928	3850
4110.493	3815
4112.058	3926
4113.621	3935
4115.186	3851
4116.75	3797
4118.313	3762
4119.876	3815
4121.438	3761
4123	3844
4124.562	3905
4126.125	3770
4127.686	3737
4129.246	3843
4130.807	3766
4132.367	3812
4133.927	3842
4135.486	3827
4137.046	3845
4138.604	3799
4140.162	3759
4141.72	3793
4143.279	3753
4144.836	3727
4146.393	3800
4147.949	3708
4149.505	3796
4151.062	3756
4152.617	3777
4154.172	3690
4155.727	3649
4157.281	3666
4158.836	3742
4160.39	3694
4161.943	3702
4163.496	3758
4165.048	3697
4166.601	3719
4168.154	3765
4169.706	3751
4171.257	3622
4172.808	3733
4174.358	3676
4175.909	3679
4177.458	3674
4179.008	3694
4180.558	3707
4182.106	3683
4183.655	3626
4185.204	3669
4186.751	3608
4188.298	3617
4189.845	3633
4191.392	3715
4192.939	3607
4194.485	3670
4196.031	3606
4197.576	3613
4199.121	3631
4200.666	3711
4202.211	3645
4203.754	3640
4205.298	3611
4206.84	3579
4208.384	3534
4209.927	3613
4211.47	3634
4213.011	3581
4214.552	3624
4216.094	3526
4217.635	3606
4219.175	3590
4220.716	3610
4222.255	3592
4223.793	3532
4225.335	3597
4226.873	3568
4228.411	3557
4229.948	3566
4231.486	3570
4233.024	3624
4234.562	3564
4236.098	3587
4237.634	3522
4239.169	3566
4240.705	3648
4242.241	3576
4243.776	3563
4245.31	3536
4246.844	3418
4248.378	3504
4249.911	3559
4251.445	3491
4252.978	3550
4254.51	3547
4256.042	3482
4257.574	3486
4259.107	3505
4260.638	3547
4262.169	3586
4263.699	3506
4265.228	3524
4266.759	3508
4268.289	3488
4269.818	3522
4271.345	3422
4272.874	3517
4274.402	3473
4275.931	3497
4277.458	3527
4278.985	3479
4280.512	3602
4282.037	3546
4283.564	3461
4285.089	3490
4286.615	3469
4288.139	3515
4289.664	3473
4291.187	3458
4292.712	3367
4294.235	3436
4295.759	3468
4297.281	3462
4298.804	3404
4300.327	3388
4301.849	3433
4303.37	3412
4304.891	3473
4306.412	3464
4307.933	3390
4309.453	3407
4310.973	3435
4312.492	3325
