398.1873	3043
400.7097	3047
403.2336	3006
405.7547	2963
408.2751	3049
410.7948	2981
413.3138	3071
415.83	3057
418.3497	3044
420.8666	3052
423.3829	3131
425.8985	3064
428.4133	3148
430.9275	3203
433.441	3171
435.9538	3165
438.4639	3181
440.9753	3168
443.4881	3137
445.9982	3181
448.5055	3232
451.0142	3184
453.5201	3171
456.0274	3194
458.5361	3129
461.04	3209
463.5453	3148
466.0478	3232
468.5517	3125
471.0549	3177
473.5574	3197
476.0572	3251
478.5584	3215
481.0568	3234
483.5545	3176
486.0557	3200
488.5521	3181
491.0478	3279
493.5449	3274
496.0392	3218
498.5349	3258
501.0299	3298
503.5222	3209
506.0139	3283
508.5048	3279
510.9991	3268
513.4887	3324
515.9777	3258
518.4659	3272
520.9534	3255
523.4403	3291
525.9306	3324
528.4161	3312
530.9009	3291
533.3851	3275
535.8687	3273
538.3535	3322
540.8356	3300
543.3171	3279
545.7979	3314
548.278	3193
550.7595	3307
553.2383	3304
555.7144	3209
558.1918	3304
560.6685	3421
563.1446	3293
565.6221	3323
568.0968	3366
570.5688	3394
573.0422	3370
575.515	3321
577.989	3437
580.4584	3424
582.9291	3337
585.3991	3455
587.8685	3317
590.3352	3499
592.8052	3362
595.2706	3366
597.7372	3469
600.2033	3452
602.6666	3350
605.1334	3458
607.5953	3439
610.0587	3443
612.5193	3394
614.9814	3406
617.4427	3423
619.9034	3466
622.3615	3399
624.8208	3340
627.2775	3370
629.7335	3330
632.1929	3323
634.6476	3332
637.1016	3331
639.5569	3350
642.0096	3330
644.4637	3416
646.9151	3395
649.3678	3400
651.8179	3335
654.2672	3447
656.7159	3434
659.166	3404
661.6154	3389
664.0622	3502
666.5082	3428
668.9537	3536
671.4005	3371
673.8445	3461
676.288	3428
678.7308	3482
681.1729	3483
683.6163	3567
686.0572	3526
688.4973	3543
690.9368	3499
693.3757	3481
695.8138	3495
698.2534	3438
700.6902	3488
703.1245	3493
705.56	3512
707.9949	3508
710.4311	3583
712.8647	3564
715.2957	3555
717.7279	3609
720.1595	3551
722.5905	3516
725.0208	3593
727.4505	3606
729.8795	3541
732.3058	3617
734.7336	3646
737.1626	3647
739.587	3639
742.0128	3696
744.4359	3607
746.8604	3657
749.2841	3609
751.7073	3627
754.1278	3714
756.5496	3706
758.9688	3730
761.3893	3619
763.8093	3701
766.2285	3767
768.6451	3663
771.0611	3777
773.4784	3663
775.895	3786
778.3091	3739
780.7244	3774
783.1371	3682
785.5493	3697
787.9626	3677
790.3754	3708
792.7856	3764
795.1951	3732
797.6039	3741
800.0121	3661
802.4236	3720
804.8306	3809
807.2369	3791
809.6425	3721
812.0475	3783
814.4538	3808
816.8575	3716
819.2606	3807
821.663	3687
824.0648	3816
826.4659	3753
828.8683	3732
831.2682	3823
833.6674	3800
836.066	3779
838.4639	3799
840.8632	3866
843.2579	3843
845.6539	3849
848.0493	3859
850.444	3836
852.84	3875
855.2315	3792
857.6243	3809
860.0165	3877
862.4081	3888
864.797	3861
867.1892	3875
869.5789	3905
871.9659	3807
874.3542	3859
876.74	3814
879.129	3739
881.5155	3847
883.8994	3823
886.2845	3935
888.6671	3814
891.051	3784
893.4343	3840
895.8169	3844
898.197	3845
900.5783	3859
902.9571	3781
905.3372	3871
907.7167	3888
910.0936	3835
912.4698	3878
914.8474	3863
917.2244	4008
919.5987	3874
921.9744	3984
924.3475	3904
926.72	3907
929.0918	3947
931.4669	3936
933.8375	4029
936.2074	4051
938.5767	4068
940.9454	4026
943.3154	4129
945.6829	4228
948.0497	4257
950.4178	4483
952.7833	4547
955.1483	4692
957.5145	4822
959.8782	4786
962.2412	4816
964.6036	4754
966.9655	4622
969.3266	4463
971.6871	4323
974.0471	4200
976.4064	4082
978.765	4064
981.125	4010
983.4824	3953
985.8373	3969
988.1935	3943
990.549	3959
992.9039	3953
995.2602	4013
997.6119	3979
999.965	4018
1002.317	4006
1004.667	4113
1007.02	3969
1009.371	4006
1011.719	3967
1014.068	3998
1016.415	4004
1018.765	4039
1021.111	4056
1023.458	4056
1025.804	4023
1028.147	4045
1030.49	4013
1032.837	4012
1035.179	4064
1037.522	4058
1039.862	3935
1042.204	3997
1044.546	3985
1046.884	4091
1049.224	4093
1051.562	4072
1053.899	4095
1056.237	4206
1058.575	4142
1060.91	4109
1063.244	4055
1065.58	4143
1067.913	4106
1070.248	4140
1072.579	4141
1074.911	4246
1077.242	4202
1079.572	4202
1081.905	4088
1084.234	4149
1086.562	4203
1088.89	4092
1091.217	4083
1093.544	4153
1095.871	3985
1098.197	4053
1100.521	4115
1102.845	4107
1105.169	4151
1107.491	4039
1109.814	4073
1112.135	4129
1114.456	4151
1116.776	4083
1119.096	4182
1121.415	4005
1123.734	4125
1126.052	4102
1128.369	4152
1130.686	4126
1133.002	4078
1135.318	4130
1137.632	4079
1139.945	4087
1142.258	4137
1144.573	4187
1146.884	4138
1149.196	4184
1151.505	4142
1153.816	4079
1156.124	4094
1158.435	4163
1160.742	4118
1163.051	4027
1165.356	4250
1167.663	4123
1169.97	4135
1172.276	4076
1174.579	4079
1176.881	4100
1179.186	4130
1181.487	4060
1183.79	4097
1186.092	4106
1188.392	4087
1190.691	4123
1192.991	4141
1195.291	4063
1197.588	4107
1199.885	4158
1202.181	4104
1204.479	4135
1206.775	4138
1209.07	4159
1211.363	4121
1213.656	4164
1215.949	4068
1218.241	4149
1220.534	4180
1222.825	4194
1225.115	4216
1227.405	4220
1229.693	4209
1231.984	4254
1234.271	4222
1236.558	4216
1238.845	4306
1241.131	4271
1243.416	4276
1245.703	4194
1247.987	4271
1250.269	4305
1252.552	4319
1254.834	4242
1257.118	4251
1259.399	4230
1261.678	4238
1263.958	4263
1266.237	4248
1268.516	4370
1270.794	4312
1273.072	4337
1275.347	4297
1277.624	4267
1279.899	4284
1282.175	4233
1284.449	4162
1286.722	4297
1288.995	4214
1291.266	4197
1293.54	4239
1295.81	4348
1298.081	4248
1300.35	4213
1302.62	4336
1304.889	4233
1307.156	4207
1309.425	4255
1311.69	4222
1313.957	4247
1316.222	4212
1318.488	4176
1320.751	4194
1323.016	4175
1325.278	4233
1327.54	4223
1329.803	4332
1332.065	4195
1334.325	4248
1336.584	4290
1338.843	4275
1341.101	4178
1343.36	4278
1345.617	4214
1347.876	4274
1350.131	4280
1352.387	4270
1354.643	4248
1356.897	4171
1359.151	4270
1361.403	4321
1363.656	4181
1365.909	4244
1368.16	4191
1370.409	4290
1372.659	4240
1374.909	4245
1377.157	4296
1379.407	4263
1381.655	4255
1383.9	4346
1386.147	4305
1388.393	4296
1390.64	4376
1392.885	4336
1395.127	4348
1397.37	4402
1399.614	4371
1401.854	4399
1404.098	4380
1406.339	4375
1408.578	4365
1410.818	4327
1413.056	4382
1415.297	4433
1417.533	4311
1419.771	4377
1422.006	4395
1424.243	4391
1426.479	4419
1428.715	4354
1430.948	4471
1433.182	4379
1435.414	4443
1437.647	4497
1439.88	4455
1442.11	4418
1444.342	4386
1446.571	4494
1448.799	4419
1451.029	4555
1453.258	4398
1455.485	4578
1457.711	4470
1459.937	4487
1462.164	4393
1464.39	4552
1466.614	4414
1468.838	4441
1471.06	4310
1473.283	4421
1475.506	4377
1477.727	4334
1479.949	4343
1482.169	4362
1484.389	4320
1486.609	4291
1488.828	4384
1491.045	4398
1493.261	4294
1495.477	4347
1497.693	4367
1499.91	4423
1502.125	4331
1504.339	4314
1506.553	4391
1508.766	4278
1510.979	4332
1513.191	4161
1515.402	4265
1517.613	4246
1519.823	4297
1522.033	4200
1524.242	4312
1526.451	4357
1528.657	4347
1530.865	4342
1533.072	4303
1535.278	4321
1537.484	4315
1539.687	4308
1541.892	4304
1544.096	4312
1546.299	4369
1548.502	4401
1550.703	4305
1552.905	4325
1555.104	4277
1557.303	4337
1559.505	4326
1561.703	4385
1563.902	4328
1566.099	4383
1568.295	4395
1570.494	4473
1572.689	4376
1574.883	4487
1577.079	4385
1579.272	4479
1581.467	4388
1583.659	4545
1585.853	4449
1588.044	4561
1590.234	4440
1592.424	4427
1594.615	4429
1596.806	4527
1598.994	4446
1601.182	4417
1603.369	4479
1605.557	4435
1607.744	4523
1609.929	4562
1612.114	4502
1614.298	4495
1616.482	4390
1618.667	4409
1620.85	4424
1623.032	4511
1625.214	4515
1627.395	4542
1629.575	4477
1631.755	4583
1633.935	4521
1636.114	4522
1638.292	4605
1640.471	4601
1642.647	4546
1644.823	4558
1647	4512
1649.175	4522
1651.348	4482
1653.525	4592
1655.698	4539
1657.87	4595
1660.043	4514
1662.213	4513
1664.387	4669
1666.558	4544
1668.727	4626
1670.896	4578
1673.064	4520
1675.233	4618
1677.401	4605
1679.569	4527
1681.735	4561
1683.902	4592
1686.066	4559
1688.233	4596
1690.397	4552
1692.559	4580
1694.723	4518
1696.885	4509
1699.048	4548
1701.21	4399
1703.37	4464
1705.53	4483
1707.689	4584
1709.849	4449
1712.009	4493
1714.166	4550
1716.323	4544
1718.479	4486
1720.634	4480
1722.793	4520
1724.948	4500
1727.102	4528
1729.255	4506
1731.408	4437
1733.562	4598
1735.714	4476
1737.865	4499
1740.016	4588
1742.166	4559
1744.316	4508
1746.467	4415
1748.616	4566
1750.764	4496
1752.911	4543
1755.056	4564
1757.205	4532
1759.35	4529
1761.496	4482
1763.641	4582
1765.785	4535
1767.927	4559
1770.072	4513
1772.214	4604
1774.355	4540
1776.496	4575
1778.637	4547
1780.778	4509
1782.918	4598
1785.057	4665
1787.194	4576
1789.333	4601
1791.472	4569
1793.608	4499
1795.745	4567
1797.879	4514
1800.015	4504
1802.148	4593
1804.284	4581
1806.417	4565
1808.548	4592
1810.682	4559
1812.812	4561
1814.946	4604
1817.075	4551
1819.205	4556
1821.335	4590
1823.463	4632
1825.59	4561
1827.721	4606
1829.847	4646
1831.973	4575
1834.098	4560
1836.223	4563
1838.351	4606
1840.475	4483
1842.598	4657
1844.721	4528
1846.843	4560
1848.966	4536
1851.087	4566
1853.21	4650
1855.33	4551
1857.449	4569
1859.568	4468
1861.688	4457
1863.806	4555
1865.924	4626
1868.039	4543
1870.155	4467
1872.273	4578
1874.388	4593
1876.503	4612
1878.617	4590
1880.73	4612
1882.844	4511
1884.956	4591
1887.068	4557
1889.18	4541
1891.291	4615
1893.4	4547
1895.511	4649
1897.621	4579
1899.73	4566
1901.837	4693
1903.944	4637
1906.053	4640
1908.159	4641
1910.265	4555
1912.369	4664
1914.474	4617
1916.577	4670
1918.683	4686
1920.785	4700
1922.888	4748
1924.989	4595
1927.091	4642
1929.193	4626
1931.294	4657
1933.393	4678
1935.493	4595
1937.59	4719
1939.689	4708
1941.788	4727
1943.884	4700
1945.98	4712
1948.077	4673
1950.171	4641
1952.267	4654
1954.361	4667
1956.455	4643
1958.548	4586
1960.64	4684
1962.733	4643
1964.824	4659
1966.915	4672
1969.005	4684
1971.096	4736
1973.185	4547
1975.275	4663
1977.363	4608
1979.45	4627
1981.537	4673
1983.623	4619
1985.711	4594
1987.796	4621
1989.881	4658
1991.965	4662
1994.047	4721
1996.132	4658
1998.215	4676
2000.297	4649
2002.378	4560
2004.46	4592
2006.54	4596
2008.62	4665
2010.7	4577
2012.779	4671
2014.858	4680
2016.934	4616
2019.013	4718
2021.09	4652
2023.165	4580
2025.241	4726
2027.317	4634
2029.39	4609
2031.466	4713
2033.538	4562
2035.612	4590
2037.683	4711
2039.755	4672
2041.827	4645
2043.898	4615
2045.968	4691
2048.038	4623
2050.106	4523
2052.177	4685
2054.244	4645
2056.313	4630
2058.379	4693
2060.444	4593
2062.511	4658
2064.577	4693
2066.641	4680
2068.705	4639
2070.77	4675
2072.832	4679
2074.896	4728
2076.958	4678
2079.02	4767
2081.081	4745
2083.141	4589
2085.2	4636
2087.261	4630
2089.319	4756
2091.377	4721
2093.435	4597
2095.492	4669
2097.552	4689
2099.607	4630
2101.663	4690
2103.718	4674
2105.771	4660
2107.826	4675
2109.879	4754
2111.932	4708
2113.985	4725
2116.037	4579
2118.088	4629
2120.141	4672
2122.191	4702
2124.239	4663
2126.288	4624
2128.337	4617
2130.387	4645
2132.434	4672
2134.481	4639
2136.528	4788
2138.574	4717
2140.618	4645
2142.665	4758
2144.71	4618
2146.753	4636
2148.797	4731
2150.838	4730
2152.883	4618
2154.923	4678
2156.965	4666
2159.007	4682
2161.046	4643
2163.086	4646
2165.126	4629
2167.163	4597
2169.202	4634
2171.239	4663
2173.277	4620
2175.314	4680
2177.349	4710
2179.385	4651
2181.42	4730
2183.453	4717
2185.49	4633
2187.522	4729
2189.555	4649
2191.586	4664
2193.619	4657
2195.651	4607
2197.682	4552
2199.711	4600
2201.74	4659
2203.769	4619
2205.799	4531
2207.828	4676
2209.855	4670
2211.882	4557
2213.908	4566
2215.934	4571
2217.961	4590
2219.986	4668
2222.01	4536
2224.034	4565
2226.057	4571
2228.08	4576
2230.104	4524
2232.124	4579
2234.145	4623
2236.166	4573
2238.186	4582
2240.207	4608
2242.227	4618
2244.244	4639
2246.262	4538
2248.28	4675
2250.299	4593
2252.314	4588
2254.33	4508
2256.346	4653
2258.36	4589
2260.375	4614
2262.391	4598
2264.403	4579
2266.416	4610
2268.427	4531
2270.44	4671
2272.453	4588
2274.463	4632
2276.474	4564
2278.483	4611
2280.493	4509
2282.501	4691
2284.51	4679
2286.518	4549
2288.524	4711
2290.532	4635
2292.537	4618
2294.544	4592
2296.55	4600
2298.554	4582
2300.557	4587
2302.562	4685
2304.566	4593
2306.568	4696
2308.569	4603
2310.572	4591
2312.573	4582
2314.573	4579
2316.574	4590
2318.573	4610
2320.571	4527
2322.571	4592
2324.569	4591
2326.567	4605
2328.564	4634
2330.56	4623
2332.556	4582
2334.551	4586
2336.546	4621
2338.542	4582
2340.535	4558
2342.529	4617
2344.521	4582
2346.512	4495
2348.505	4602
2350.497	4543
2352.487	4526
2354.478	4539
2356.468	4515
2358.457	4611
2360.446	4575
2362.434	4557
2364.422	4532
2366.408	4517
2368.395	4670
2370.383	4556
2372.369	4502
2374.353	4574
2376.338	4536
2378.321	4475
2380.307	4559
2382.29	4573
2384.272	4475
2386.254	4491
2388.235	4586
2390.218	4532
2392.198	4569
2394.179	4574
2396.157	4537
2398.137	4576
2400.115	4461
2402.095	4506
2404.072	4516
2406.048	4484
2408.026	4497
2410.001	4518
2411.977	4521
2413.953	4491
2415.927	4559
2417.9	4556
2419.875	4539
2421.847	4552
2423.821	4537
2425.792	4563
2427.763	4499
2429.736	4571
2431.706	4513
2433.677	4485
2435.646	4525
2437.615	4619
2439.583	4511
2441.551	4495
2443.519	4549
2445.486	4535
2447.452	4603
2449.418	4559
2451.383	4532
2453.348	4484
2455.314	4478
2457.278	4495
2459.241	4535
2461.205	4579
2463.167	4644
2465.131	4498
2467.091	4497
2469.052	4483
2471.012	4499
2472.972	4605
2474.932	4389
2476.891	4531
2478.85	4505
2480.808	4542
2482.766	4527
2484.722	4516
2486.68	4546
2488.636	4515
2490.591	4435
2492.546	4440
2494.5	4492
2496.456	4498
2498.41	4379
2500.362	4456
2502.315	4431
2504.266	4454
2506.218	4483
2508.169	4426
2510.121	4545
2512.07	4469
2514.019	4456
2515.968	4405
2517.918	4564
2519.866	4474
2521.813	4462
2523.76	4456
2525.707	4439
2527.653	4483
2529.599	4462
2531.543	4466
2533.489	4499
2535.433	4326
2537.376	4484
2539.32	4564
2541.264	4497
2543.205	4482
2545.147	4538
2547.087	4383
2549.029	4461
2550.969	4457
2552.908	4567
2554.847	4530
2556.786	4521
2558.724	4506
2560.663	4432
2562.6	4543
2564.537	4482
2566.473	4524
2568.408	4526
2570.345	4417
2572.28	4565
2574.214	4503
2576.148	4470
2578.081	4516
2580.014	4401
2581.947	4359
2583.879	4449
2585.81	4475
2587.741	4532
2589.67	4463
2591.602	4549
2593.532	4563
2595.461	4450
2597.388	4470
2599.316	4490
2601.244	4443
2603.172	4462
2605.098	4479
2607.023	4484
2608.949	4509
2610.873	4502
2612.8	4566
2614.723	4455
2616.647	4519
2618.569	4553
2620.493	4536
2622.416	4511
2624.338	4479
2626.258	4586
2628.179	4495
2630.099	4567
2632.019	4477
2633.939	4517
2635.857	4552
2637.775	4594
2639.694	4545
2641.61	4531
2643.528	4589
2645.444	4574
2647.361	4420
2649.276	4485
2651.19	4525
2653.105	4497
2655.019	4573
2656.934	4505
2658.846	4396
2660.758	4579
2662.67	4595
2664.583	4467
2666.493	4523
2668.404	4493
2670.313	4520
2672.223	4537
2674.134	4505
2676.042	4549
2677.95	4504
2679.858	4496
2681.765	4468
2683.673	4441
2685.579	4519
2687.483	4479
2689.389	4490
2691.294	4396
2693.198	4441
2695.104	4421
2697.006	4509
2698.909	4611
2700.811	4340
2702.713	4522
2704.615	4425
2706.516	4535
2708.417	4520
2710.316	4562
2712.216	4535
2714.115	4492
2716.014	4390
2717.913	4381
2719.81	4467
2721.707	4479
2723.603	4516
2725.501	4448
2727.396	4435
2729.292	4337
2731.186	4561
2733.081	4454
2734.976	4450
2736.87	4489
2738.762	4452
2740.653	4423
2742.546	4472
2744.437	4423
2746.329	4412
2748.22	4434
2750.11	4383
2751.999	4435
2753.889	4344
2755.778	4439
2757.666	4429
2759.553	4459
2761.44	4465
2763.328	4476
2765.215	4423
2767.101	4448
2768.986	4427
2770.87	4481
2772.754	4401
2774.638	4465
2776.523	4455
2778.405	4402
2780.288	4448
2782.17	4407
2784.051	4427
2785.934	4366
2787.814	4444
2789.694	4446
2791.574	4376
2793.453	4409
2795.332	4413
2797.212	4328
2799.088	4400
2800.966	4314
2802.843	4390
2804.719	4369
2806.597	4418
2808.471	4427
2810.346	4338
2812.221	4346
2814.094	4365
2815.969	4478
2817.843	4352
2819.714	4405
2821.587	4385
2823.459	4371
2825.329	4403
2827.202	4445
2829.072	4458
2830.942	4365
2832.811	4371
2834.68	4497
2836.549	4472
2838.418	4405
2840.284	4394
2842.152	4414
2844.018	4366
2845.885	4336
2847.751	4401
2849.616	4490
2851.482	4497
2853.345	4439
2855.208	4450
2857.074	4444
2858.937	4505
2860.799	4469
2862.66	4477
2864.522	4513
2866.385	4508
2868.245	4539
2870.104	4647
2871.964	4601
2873.824	4507
2875.683	4667
2877.542	4599
2879.4	4684
2881.257	4664
2883.114	4737
2884.97	4648
2886.827	4711
2888.683	4654
2890.537	4773
2892.392	4704
2894.246	4727
2896.1	4683
2897.954	4665
2899.807	4675
2901.66	4634
2903.51	4643
2905.362	4721
2907.214	4666
2909.065	4683
2910.915	4794
2912.765	4738
2914.613	4686
2916.463	4778
2918.311	4773
2920.158	4750
2922.006	4903
2923.853	4858
2925.698	4842
2927.546	4842
2929.392	4996
2931.236	4935
2933.081	5110
2934.924	4924
2936.77	5116
2938.613	5009
2940.455	5116
2942.298	5169
2944.139	4975
2945.982	5133
2947.823	5114
2949.662	5035
2951.503	5029
2953.342	5001
2955.182	4929
2957.021	4977
2958.858	4980
2960.697	4900
2962.534	4956
2964.37	4913
2966.207	4889
2968.044	4754
2969.879	4709
2971.714	4798
2973.548	4741
2975.383	4814
2977.218	4702
2979.051	4670
2980.883	4743
2982.715	4728
2984.547	4841
2986.379	4656
2988.21	4716
2990.04	4588
2991.87	4557
2993.7	4670
2995.53	4641
2997.359	4518
2999.187	4524
3001.015	4496
3002.842	4525
3004.669	4506
3006.497	4509
3008.323	4365
3010.148	4493
3011.974	4388
3013.797	4339
3015.623	4325
3017.447	4265
3019.27	4305
3021.094	4352
3022.915	4281
3024.737	4415
3026.56	4205
3028.38	4269
3030.201	4210
3032.022	4362
3033.84	4332
3035.662	4275
3037.481	4375
3039.298	4226
3041.117	4256
3042.933	4261
3044.752	4314
3046.568	4201
3048.385	4126
3050.2	4311
3052.016	4252
3053.83	4250
3055.646	4288
3057.46	4289
3059.272	4198
3061.086	4180
3062.898	4300
3064.711	4164
3066.524	4225
3068.335	4269
3070.145	4283
3071.956	4261
3073.766	4166
3075.576	4125
3077.385	4202
3079.193	4265
3081.002	4224
3082.81	4193
3084.618	4258
3086.425	4183
3088.231	4144
3090.036	4136
3091.842	4119
3093.648	4173
3095.452	4166
3097.257	4224
3099.06	4187
3100.863	4139
3102.666	4144
3104.47	4142
3106.272	4026
3108.073	4178
3109.875	4064
3111.676	4149
3113.477	4116
3115.277	4139
3117.077	4090
3118.874	4085
3120.673	4096
3122.473	4057
3124.271	4124
3126.066	4114
3127.863	4054
3129.66	4194
3131.456	4026
3133.252	4149
3135.047	4091
3136.842	4107
3138.635	4111
3140.429	4038
3142.223	4036
3144.016	4097
3145.808	4145
3147.6	4071
3149.392	4026
3151.183	4074
3152.975	4102
3154.765	4039
3156.553	4047
3158.344	4105
3160.132	4024
3161.922	3972
3163.71	4037
3165.497	4099
3167.285	4092
3169.071	3983
3170.858	4038
3172.645	4105
3174.429	4017
3176.214	4029
3177.998	4047
3179.783	4015
3181.568	4032
3183.351	4085
3185.133	4036
3186.915	4017
3188.698	3995
3190.481	3941
3192.261	4064
3194.042	3979
3195.822	3991
3197.601	3989
3199.381	4072
3201.161	4028
3202.939	4145
3204.717	4004
3206.495	4037
3208.272	3923
3210.05	4045
3211.826	3987
3213.602	3946
3215.376	3989
3217.151	3981
3218.927	4028
3220.702	4023
3222.476	4071
3224.249	3988
3226.021	3893
3227.793	3989
3229.567	4052
3231.339	4028
3233.109	3969
3234.88	4020
3236.651	4051
3238.421	3966
3240.191	3935
3241.96	4056
3243.728	4097
3245.497	3955
3247.263	4014
3249.033	3960
3250.799	4030
3252.566	3963
3254.331	3923
3256.097	4013
3257.863	3983
3259.628	3926
3261.392	3934
3263.156	3995
3264.919	3860
3266.683	3992
3268.447	3882
3270.208	3951
3271.969	3889
3273.731	4020
3275.492	3924
3277.253	3972
3279.013	4034
3280.773	3980
3282.532	4028
3284.291	4016
3286.05	4019
3287.808	3985
3289.566	3934
3291.323	3975
3293.079	3933
3294.835	4053
3296.593	3967
3298.348	4002
3300.102	3996
3301.857	3992
3303.611	4054
3305.366	3898
3307.119	3978
3308.872	3984
3310.624	3915
3312.376	4071
3314.129	4010
3315.881	3958
3317.631	3961
3319.38	3945
3321.13	3974
3322.88	3917
3324.631	4001
3326.379	3953
3328.126	4042
3329.875	3980
3331.622	3995
3333.371	3983
3335.116	3965
3336.863	4070
3338.609	3983
3340.353	3983
3342.1	3961
3343.845	4016
3345.588	3930
3347.332	3972
3349.074	3972
3350.817	3865
3352.56	3893
3354.303	3937
3356.043	3943
3357.785	3965
3359.525	3978
3361.268	3876
3363.007	3961
3364.745	3904
3366.485	3955
3368.223	3897
3369.962	3879
3371.701	3975
3373.438	3841
3375.174	3915
3376.911	3972
3378.647	3874
3380.384	3878
3382.118	3900
3383.854	3940
3385.588	3919
3387.322	3886
3389.057	3823
3390.79	3912
3392.522	3927
3394.255	3811
3395.987	3839
3397.719	3957
3399.451	3842
3401.181	3854
3402.911	3825
3404.641	3877
3406.371	3889
3408.101	3820
3409.83	3840
3411.558	3832
3413.285	3884
3415.011	3808
3416.739	3930
3418.467	3819
3420.193	3901
3421.919	3838
3423.644	3811
3425.368	3789
3427.094	3884
3428.818	3845
3430.542	3849
3432.264	3857
3433.987	3807
3435.712	3777
3437.434	3883
3439.155	3745
3440.876	3836
3442.596	3781
3444.317	3802
3446.039	3816
3447.757	3749
3449.477	3765
3451.195	3869
3452.914	3839
3454.632	3721
3456.35	3820
3458.067	3784
3459.784	3654
3461.5	3812
3463.216	3737
3464.932	3782
3466.647	3822
3468.362	3749
3470.076	3695
3471.789	3644
3473.505	3771
3475.217	3644
3476.929	3709
3478.641	3702
3480.354	3715
3482.066	3675
3483.777	3687
3485.487	3740
3487.197	3683
3488.908	3709
3490.617	3735
3492.327	3670
3494.035	3797
3495.743	3650
3497.451	3750
3499.158	3716
3500.866	3646
3502.572	3668
3504.278	3639
3505.984	3736
3507.689	3703
3509.396	3698
3511.1	3659
3512.804	3655
3514.508	3731
3516.211	3618
3517.913	3637
3519.616	3609
3521.319	3583
3523.021	3783
3524.722	3666
3526.422	3726
3528.124	3644
3529.824	3664
3531.524	3662
3533.222	3635
3534.921	3586
3536.62	3616
3538.318	3647
3540.016	3542
3541.714	3579
3543.41	3600
3545.107	3586
3546.803	3599
3548.5	3562
3550.194	3582
3551.889	3617
3553.583	3596
3555.279	3648
3556.972	3635
3558.666	3604
3560.358	3573
3562.051	3586
3563.742	3622
3565.435	3600
3567.126	3627
3568.817	3572
3570.507	3621
3572.197	3579
3573.888	3543
3575.577	3594
3577.265	3584
3578.954	3603
3580.642	3562
3582.329	3508
3584.017	3500
3585.704	3504
3587.391	3496
3589.077	3558
3590.762	3471
3592.449	3504
3594.133	3492
3595.817	3469
3597.501	3485
3599.185	3487
3600.869	3437
3602.552	3419
3604.234	3523
3605.916	3525
3607.598	3482
3609.279	3446
3610.961	3539
3612.642	3470
3614.321	3447
3616	3415
3617.68	3522
3619.36	3550
3621.039	3385
3622.716	3480
3624.394	3480
3626.071	3448
3627.748	3532
3629.425	3414
3631.102	3421
3632.778	3520
3634.452	3456
3636.127	3341
3637.803	3417
3639.477	3423
3641.151	3422
3642.823	3321
3644.497	3387
3646.171	3405
3647.842	3390
3649.515	3378
3651.185	3422
3652.857	3402
3654.527	3334
3656.198	3414
3657.868	3438
3659.537	3368
3661.207	3345
3662.875	3390
3664.544	3392
3666.212	3317
3667.879	3367
3669.546	3355
3671.212	3363
3672.88	3351
3674.546	3241
3676.211	3423
3677.875	3303
3679.541	3359
3681.205	3303
3682.87	3337
3684.533	3354
3686.196	3384
3687.859	3331
3689.521	3343
3691.184	3325
3692.845	3352
3694.507	3386
3696.167	3317
3697.827	3325
3699.487	3337
3701.148	3279
3702.808	3327
3704.466	3281
3706.125	3288
3707.783	3312
3709.442	3273
3711.099	3331
3712.757	3304
3714.412	3321
3716.068	3283
3717.725	3341
3719.381	3292
3721.036	3301
3722.689	3287
3724.344	3352
3725.998	3239
3727.652	3345
3729.305	3250
3730.958	3301
3732.61	3308
3734.262	3317
3735.915	3284
3737.565	3294
3739.217	3258
3740.866	3262
3742.516	3252
3744.165	3266
3745.816	3274
3747.464	3223
3749.113	3251
3750.761	3273
3752.409	3267
3754.057	3256
3755.703	3192
3757.35	3287
3758.996	3261
3760.641	3310
3762.289	3226
3763.933	3268
3765.577	3254
3767.222	3254
3768.865	3189
3770.508	3204
3772.152	3164
3773.796	3315
3775.438	3219
3777.079	3218
3778.721	3298
3780.363	3211
3782.003	3201
3783.643	3209
3785.283	3174
3786.923	3166
3788.563	3245
3790.203	3159
3791.841	3307
3793.479	3133
3795.115	3172
3796.753	3232
3798.391	3158
3800.027	3177
3801.664	3173
3803.299	3146
3804.935	3189
3806.571	3107
3808.206	3175
3809.839	3075
3811.473	3163
3813.107	3145
3814.74	3118
3816.375	3129
3818.006	3125
3819.638	3189
3821.27	3103
3822.9	3163
3824.532	3199
3826.163	3173
3827.792	3143
3829.423	3162
3831.051	3122
3832.682	3108
3834.311	3123
3835.938	3124
3837.566	3031
3839.193	3070
3840.821	3081
3842.448	3133
3844.075	3094
3845.7	3046
3847.325	3109
3848.951	3108
3850.576	3086
3852.201	3077
3853.825	3163
3855.448	3144
3857.072	3173
3858.694	3053
3860.318	3072
3861.939	3100
3863.562	3021
3865.183	3087
3866.804	3061
3868.426	3054
3870.045	3053
3871.666	3070
3873.285	3058
3874.904	3083
3876.524	3034
3878.142	3057
3879.76	3038
3881.378	3041
3882.995	3091
3884.612	3010
3886.229	3092
3887.845	2991
3889.461	3075
3891.076	3007
3892.691	3089
3894.307	3109
3895.922	3047
3897.536	3006
3899.149	3040
3900.761	3092
3902.374	3051
3903.988	3037
3905.6	3013
3907.212	3017
3908.822	3043
3910.433	3102
3912.045	2997
3913.655	2986
3915.265	3018
3916.875	3088
3918.483	3041
3920.093	3032
3921.702	2966
3923.309	3027
3924.917	2964
3926.523	3085
3928.13	2946
3929.739	3007
3931.344	2995
3932.95	3062
3934.555	3024
3936.159	2968
3937.766	3083
3939.369	3015
3940.974	3051
3942.577	3065
3944.181	3031
3945.783	2952
3947.386	3020
3948.989	2995
3950.59	3031
3952.191	2968
3953.791	3020
3955.394	2937
3956.994	3003
3958.593	2957
3960.192	3018
3961.791	2980
3963.392	2991
3964.99	2985
3966.588	2994
3968.185	2953
3969.782	2942
3971.379	2935
3972.976	2960
3974.572	2884
3976.168	2932
3977.763	2909
3979.358	2946
3980.954	3020
3982.548	2940
3984.142	2909
3985.736	3023
3987.329	2827
3988.922	2954
3990.516	2904
3992.108	2891
3993.698	2879
3995.29	2876
3996.881	2904
3998.473	2917
4000.064	2957
4001.653	2894
4003.242	2954
4004.832	2835
4006.422	2904
4008.01	2751
4009.598	2835
4011.186	2862
4012.773	2842
4014.36	2920
4015.947	2878
4017.534	2857
4019.119	2892
4020.705	2881
4022.291	2937
4023.876	2829
4025.461	2905
4027.044	2860
4028.627	2857
4030.211	2832
4031.795	2815
4033.378	2784
4034.96	2832
4036.542	2848
4038.124	2784
4039.704	2850
4041.286	2820
4042.867	2811
4044.447	2805
4046.026	2853
4047.606	2762
4049.187	2741
4050.765	2788
4052.343	2766
4053.92	2764
4055.498	2781
4057.076	2760
4058.654	2849
4060.23	2794
4061.806	2763
4063.381	2864
4064.957	2837
4066.533	2817
4068.107	2838
4069.682	2844
4071.256	2785
4072.829	2816
4074.404	2788
4075.977	2797
4077.549	2874
4079.121	2788
4080.693	2801
4082.265	2809
4083.836	2786
4085.407	2759
4086.977	2756
4088.547	2739
4090.117	2754
4091.687	2753
4093.256	2735
4094.825	2761
4096.392	2762
4097.96	2682
4099.528	2756
4101.097	2754
4102.663	2671
4104.229	2758
4105.795	2731
4107.361	2771
4108.928	2725
4110.493	2688
4112.058	2720
4113.621	2629
4115.186	2693
4116.75	2765
4118.313	2707
4119.876	2749
4121.438	2661
4123	2715
4124.562	2688
4126.125	2702
4127.686	2651
4129.246	2645
4130.807	2717
4132.367	2667
4133.927	2633
4135.486	2628
4137.046	2671
4138.604	2731
4140.162	2711
4141.72	2662
4143.279	2739
4144.836	2647
4146.393	2652
4147.949	2630
4149.505	2689
4151.062	2618
4152.617	2688
4154.172	2607
4155.727	2668
4157.281	2663
4158.836	2663
4160.39	2638
4161.943	2668
4163.496	2607
4165.048	2648
4166.601	2631
4168.154	2646
4169.706	2726
4171.257	2638
4172.808	2554
4174.358	2584
4175.909	2678
4177.458	2640
4179.008	2586
4180.558	2635
4182.106	2579
4183.655	2631
4185.204	2566
4186.751	2535
4188.298	2533
4189.845	2538
4191.392	2633
4192.939	2648
4194.485	2648
4196.031	2543
4197.576	2552
4199.121	2604
4200.666	2496
4202.211	2542
4203.754	2624
4205.298	2530
4206.84	2616
4208.384	2545
4209.927	2659
4211.47	2570
4213.011	2497
4214.552	2593
4216.094	2547
4217.635	2604
4219.175	2497
4220.716	2582
4222.255	2521
4223.793	2570
4225.335	2567
4226.873	2585
4228.411	2554
4229.948	2518
4231.486	2532
4233.024	2579
4234.562	2583
4236.098	2587
4237.634	2535
4239.169	2517
4240.705	2558
4242.241	2591
4243.776	2433
4245.31	2490
4246.844	2489
4248.378	2491
4249.911	2524
4251.445	2503
4252.978	2492
4254.51	2552
4256.042	2517
4257.574	2551
4259.107	2571
4260.638	2480
4262.169	2586
4263.699	2532
4265.228	2537
4266.759	2517
4268.289	2477
4269.818	2462
4271.345	2522
4272.874	2526
4274.402	2502
4275.931	2496
4277.458	2472
4278.985	2510
4280.512	2511
4282.037	2537
4283.564	2490
4285.089	2421
4286.615	2432
4288.139	2479
4289.664	2480
4291.187	2472
4292.712	2498
4294.235	2446
4295.759	2498
4297.281	2507
4298.804	2497
4300.327	2449
4301.849	2466
4303.37	2435
4304.891	2487
4306.412	2434
4307.933	2435
4309.453	2490
4310.973	2448
4312.492	2418
