398.1873	3038
400.7097	2957
403.2336	3043
405.7547	3050
408.2751	3057
410.7948	3056
413.3138	2993
415.83	3112
418.3497	3079
420.8666	3144
423.3829	3207
425.8985	3168
428.4133	3187
430.9275	3203
433.441	3270
435.9538	3268
438.4639	3190
440.9753	3181
443.4881	3221
445.9982	3181
448.5055	3352
451.0142	3169
453.5201	3249
456.0274	3265
458.5361	3179
461.04	3238
463.5453	3273
466.0478	3217
468.5517	3198
471.0549	3184
473.5574	3250
476.0572	3263
478.5584	3199
481.0568	3192
483.5545	3238
486.0557	3238
488.5521	3229
491.0478	3337
493.5449	3339
496.0392	3337
498.5349	3321
501.0299	3379
503.5222	3227
506.0139	3295
508.5048	3301
510.9991	3357
513.4887	3251
515.9777	3301
518.4659	3248
520.9534	3281
523.4403	3316
525.9306	3367
528.4161	3306
530.9009	3315
533.3851	3371
535.8687	3272
538.3535	3371
540.8356	3339
543.3171	3307
545.7979	3348
548.278	3327
550.7595	3383
553.2383	3348
555.7144	3346
558.1918	3338
560.6685	3388
563.1446	3406
565.6221	3372
568.0968	3339
570.5688	3415
573.0422	3434
575.515	3473
577.989	3458
580.4584	3506
582.9291	3526
585.3991	3526
587.8685	3499
590.3352	3545
592.8052	3447
595.2706	3504
597.7372	3537
600.2033	3486
602.6666	3466
605.1334	3495
607.5953	3444
610.0587	3409
612.5193	3368
614.9814	3442
617.4427	3459
619.9034	3545
622.3615	3448
624.8208	3479
627.2775	3367
629.7335	3412
632.1929	3444
634.6476	3415
637.1016	3408
639.5569	3395
642.0096	3471
644.4637	3445
646.9151	3476
649.3678	3551
651.8179	3436
654.2672	3505
656.7159	3474
659.166	3485
661.6154	3488
664.0622	3495
666.5082	3471
668.9537	3573
671.4005	3546
673.8445	3591
676.288	3491
678.7308	3539
681.1729	3535
683.6163	3520
686.0572	3522
688.4973	3541
690.9368	3427
693.3757	3491
695.8138	3528
698.2534	3620
700.6902	3531
703.1245	3634
705.56	3541
707.9949	3569
710.4311	3592
712.8647	3546
715.2957	3591
717.7279	3603
720.1595	3634
722.5905	3601
725.0208	3677
727.4505	3623
729.8795	3763
732.3058	3682
734.7336	3705
737.1626	3644
739.587	3688
742.0128	3701
744.4359	3697
746.8604	3685
749.2841	3759
751.7073	3702
754.1278	3731
756.5496	3753
758.9688	3780
761.3893	3779
763.8093	3718
766.2285	3793
768.6451	3797
771.0611	3868
773.4784	3837
775.895	3821
778.3091	3763
780.7244	3836
783.1371	3743
785.5493	3782
787.9626	3821
790.3754	3838
792.7856	3807
795.1951	3756
797.6039	3795
800.0121	3841
802.4236	3742
804.8306	3759
807.2369	3768
809.6425	3787
812.0475	3846
814.4538	3856
816.8575	3826
819.2606	3903
821.663	3804
824.0648	3806
826.4659	3833
828.8683	3767
831.2682	3818
833.6674	3819
836.066	3808
838.4639	3823
840.8632	3909
843.2579	3838
845.6539	3854
848.0493	3849
850.444	3940
852.84	3885
855.2315	3888
857.6243	3942
860.0165	3912
862.4081	3873
864.797	3934
867.1892	3857
869.5789	3809
871.9659	3912
874.3542	3840
876.74	3936
879.129	3921
881.5155	3914
883.8994	3909
886.2845	3876
888.6671	3934
891.051	3919
893.4343	3852
895.8169	3917
898.197	3937
900.5783	3854
902.9571	3969
905.3372	3922
907.7167	3909
910.0936	3899
912.4698	3957
914.8474	3992
917.2244	3957
919.5987	3986
921.9744	4013
924.3475	4061
926.72	4052
929.0918	3999
931.4669	4119
933.8375	4143
936.2074	4085
938.5767	4156
940.9454	4089
943.3154	4241
945.6829	4232
948.0497	4410
950.4178	4461
952.7833	4626
955.1483	4690
957.5145	4832
959.8782	4935
962.2412	4878
964.6036	4769
966.9655	4608
969.3266	4533
971.6871	4385
974.0471	4229
976.4064	4143
978.765	4085
981.125	4143
983.4824	4090
985.8373	4027
988.1935	4046
990.549	3978
992.9039	4032
995.2602	3980
997.6119	4057
999.965	4115
1002.317	4024
1004.667	4069
1007.02	4102
1009.371	4023
1011.719	4061
1014.068	4102
1016.415	3997
1018.765	4088
1021.111	4086
1023.458	4112
1025.804	4127
1028.147	4154
1030.49	4067
1032.837	4121
1035.179	4136
1037.522	4155
1039.862	4158
1042.204	4055
1044.546	4117
1046.884	4092
1049.224	4166
1051.562	4176
1053.899	4194
1056.237	4188
1058.575	4113
1060.91	4084
1063.244	4188
1065.58	4160
1067.913	4258
1070.248	4228
1072.579	4181
1074.911	4237
1077.242	4197
1079.572	4260
1081.905	4188
1084.234	4061
1086.562	4117
1088.89	4153
1091.217	4156
1093.544	4166
1095.871	4137
1098.197	4141
1100.521	4123
1102.845	4197
1105.169	4189
1107.491	4110
1109.814	4137
1112.135	4130
1114.456	4073
1116.776	4128
1119.096	4175
1121.415	4141
1123.734	4153
1126.052	4185
1128.369	4172
1130.686	4147
1133.002	4150
1135.318	4099
1137.632	4179
1139.945	4106
1142.258	4151
1144.573	4084
1146.884	4171
1149.196	4210
1151.505	4240
1153.816	4135
1156.124	4111
1158.435	4155
1160.742	4168
1163.051	4210
1165.356	4251
1167.663	4067
1169.97	4271
1172.276	4200
1174.579	4152
1176.881	4156
1179.186	4245
1181.487	4197
1183.79	4228
1186.092	4190
1188.392	4184
1190.691	4179
1192.991	4287
1195.291	4143
1197.588	4192
1199.885	4195
1202.181	4190
1204.479	4248
1206.775	4214
1209.07	4156
1211.363	4222
1213.656	4169
1215.949	4208
1218.241	4163
1220.534	4260
1222.825	4209
1225.115	4272
1227.405	4236
1229.693	4250
1231.984	4309
1234.271	4326
1236.558	4290
1238.845	4260
1241.131	4302
1243.416	4371
1245.703	4274
1247.987	4387
1250.269	4406
1252.552	4426
1254.834	4458
1257.118	4351
1259.399	4394
1261.678	4438
1263.958	4314
1266.237	4336
1268.516	4294
1270.794	4349
1273.072	4413
1275.347	4327
1277.624	4348
1279.899	4292
1282.175	4335
1284.449	4390
1286.722	4325
1288.995	4293
1291.266	4303
1293.54	4279
1295.81	4266
1298.081	4345
1300.35	4192
1302.62	4361
1304.889	4259
1307.156	4281
1309.425	4274
1311.69	4305
1313.957	4304
1316.222	4279
1318.488	4314
1320.751	4303
1323.016	4300
1325.278	4226
1327.54	4370
1329.803	4282
1332.065	4369
1334.325	4333
1336.584	4420
1338.843	4337
1341.101	4362
1343.36	4275
1345.617	4315
1347.876	4273
1350.131	4328
1352.387	4208
1354.643	4299
1356.897	4311
1359.151	4263
1361.403	4260
1363.656	4304
1365.909	4358
1368.16	4266
1370.409	4314
1372.659	4331
1374.909	4340
1377.157	4368
1379.407	4377
1381.655	4368
1383.9	4361
1386.147	4398
1388.393	4372
1390.64	4380
1392.885	4374
1395.127	4427
1397.37	4355
1399.614	4408
1401.854	4415
1404.098	4458
1406.339	4356
1408.578	4408
1410.818	4440
1413.056	4494
1415.297	4449
1417.533	4392
1419.771	4439
1422.006	4486
1424.243	4580
1426.479	4502
1428.715	4503
1430.948	4475
1433.182	4550
1435.414	4454
1437.647	4503
1439.88	4534
1442.11	4567
1444.342	4492
1446.571	4504
1448.799	4553
1451.029	4530
1453.258	4468
1455.485	4622
1457.711	4510
1459.937	4505
1462.164	4481
1464.39	4510
1466.614	4472
1468.838	4521
1471.06	4484
1473.283	4410
1475.506	4502
1477.727	4458
1479.949	4509
1482.169	4472
1484.389	4420
1486.609	4400
1488.828	4353
1491.045	4415
1493.261	4451
1495.477	4443
1497.693	4422
1499.91	4433
1502.125	4372
1504.339	4361
1506.553	4330
1508.766	4363
1510.979	4363
1513.191	4381
1515.402	4440
1517.613	4396
1519.823	4356
1522.033	4432
1524.242	4437
1526.451	4356
1528.657	4332
1530.865	4366
1533.072	4484
1535.278	4381
1537.484	4353
1539.687	4401
1541.892	4432
1544.096	4337
1546.299	4393
1548.502	4370
1550.703	4383
1552.905	4426
1555.104	4377
1557.303	4464
1559.505	4548
1561.703	4482
1563.902	4453
1566.099	4495
1568.295	4513
1570.494	4523
1572.689	4436
1574.883	4487
1577.079	4520
1579.272	4524
1581.467	4495
1583.659	4483
1585.853	4489
1588.044	4515
1590.234	4453
1592.424	4560
1594.615	4542
1596.806	4552
1598.994	4597
1601.182	4524
1603.369	4648
1605.557	4592
1607.744	4526
1609.929	4626
1612.114	4519
1614.298	4640
1616.482	4598
1618.667	4517
1620.85	4570
1623.032	4555
1625.214	4542
1627.395	4578
1629.575	4664
1631.755	4639
1633.935	4579
1636.114	4570
1638.292	4616
1640.471	4625
1642.647	4571
1644.823	4688
1647	4591
1649.175	4737
1651.348	4719
1653.525	4525
1655.698	4669
1657.87	4687
1660.043	4614
1662.213	4687
1664.387	4639
1666.558	4657
1668.727	4746
1670.896	4648
1673.064	4599
1675.233	4605
1677.401	4527
1679.569	4654
1681.735	4703
1683.902	4669
1686.066	4706
1688.233	4626
1690.397	4587
1692.559	4558
1694.723	4579
1696.885	4643
1699.048	4597
1701.21	4623
1703.37	4575
1705.53	4653
1707.689	4620
1709.849	4502
1712.009	4657
1714.166	4571
1716.323	4639
1718.479	4666
1720.634	4517
1722.793	4619
1724.948	4575
1727.102	4560
1729.255	4548
1731.408	4523
1733.562	4663
1735.714	4590
1737.865	4566
1740.016	4633
1742.166	4639
1744.316	4651
1746.467	4539
1748.616	4572
1750.764	4618
1752.911	4671
1755.056	4658
1757.205	4580
1759.35	4619
1761.496	4699
1763.641	4644
1765.785	4626
1767.927	4671
1770.072	4699
1772.214	4742
1774.355	4682
1776.496	4588
1778.637	4670
1780.778	4693
1782.918	4687
1785.057	4754
1787.194	4730
1789.333	4624
1791.472	4643
1793.608	4652
1795.745	4670
1797.879	4638
1800.015	4682
1802.148	4615
1804.284	4806
1806.417	4689
1808.548	4705
1810.682	4632
1812.812	4730
1814.946	4717
1817.075	4583
1819.205	4782
1821.335	4634
1823.463	4626
1825.59	4573
1827.721	4622
1829.847	4657
1831.973	4691
1834.098	4608
1836.223	4629
1838.351	4713
1840.475	4635
1842.598	4689
1844.721	4532
1846.843	4618
1848.966	4759
1851.087	4720
1853.21	4671
1855.33	4622
1857.449	4573
1859.568	4713
1861.688	4658
1863.806	4639
1865.924	4736
1868.039	4617
1870.155	4701
1872.273	4610
1874.388	4634
1876.503	4612
1878.617	4628
1880.73	4598
1882.844	4640
1884.956	4711
1887.068	4669
1889.18	4592
1891.291	4680
1893.4	4655
1895.511	4688
1897.621	4645
1899.73	4619
1901.837	4624
1903.944	4682
1906.053	4648
1908.159	4647
1910.265	4703
1912.369	4725
1914.474	4772
1916.577	4802
1918.683	4705
1920.785	4713
1922.888	4729
1924.989	4792
1927.091	4706
1929.193	4699
1931.294	4627
1933.393	4753
1935.493	4747
1937.59	4749
1939.689	4780
1941.788	4793
1943.884	4743
1945.98	4771
1948.077	4736
1950.171	4719
1952.267	4727
1954.361	4729
1956.455	4771
1958.548	4795
1960.64	4770
1962.733	4752
1964.824	4780
1966.915	4848
1969.005	4694
1971.096	4756
1973.185	4751
1975.275	4701
1977.363	4795
1979.45	4833
1981.537	4797
1983.623	4821
1985.711	4816
1987.796	4733
1989.881	4744
1991.965	4738
1994.047	4700
1996.132	4747
1998.215	4745
2000.297	4843
2002.378	4668
2004.46	4759
2006.54	4731
2008.62	4767
2010.7	4711
2012.779	4709
2014.858	4643
2016.934	4679
2019.013	4709
2021.09	4747
2023.165	4794
2025.241	4754
2027.317	4747
2029.39	4695
2031.466	4779
2033.538	4721
2035.612	4757
2037.683	4863
2039.755	4680
2041.827	4745
2043.898	4786
2045.968	4753
2048.038	4712
2050.106	4726
2052.177	4767
2054.244	4739
2056.313	4864
2058.379	4707
2060.444	4792
2062.511	4732
2064.577	4829
2066.641	4751
2068.705	4781
2070.77	4690
2072.832	4738
2074.896	4721
2076.958	4745
2079.02	4717
2081.081	4796
2083.141	4748
2085.2	4832
2087.261	4799
2089.319	4668
2091.377	4859
2093.435	4811
2095.492	4713
2097.552	4837
2099.607	4790
2101.663	4589
2103.718	4698
2105.771	4750
2107.826	4745
2109.879	4736
2111.932	4778
2113.985	4783
2116.037	4715
2118.088	4803
2120.141	4796
2122.191	4821
2124.239	4799
2126.288	4929
2128.337	4785
2130.387	4772
2132.434	4780
2134.481	4759
2136.528	4824
2138.574	4743
2140.618	4832
2142.665	4722
2144.71	4804
2146.753	4708
2148.797	4824
2150.838	4800
2152.883	4754
2154.923	4616
2156.965	4712
2159.007	4749
2161.046	4759
2163.086	4644
2165.126	4745
2167.163	4714
2169.202	4757
2171.239	4785
2173.277	4708
2175.314	4728
2177.349	4734
2179.385	4729
2181.42	4671
2183.453	4718
2185.49	4648
2187.522	4664
2189.555	4728
2191.586	4838
2193.619	4703
2195.651	4672
2197.682	4695
2199.711	4690
2201.74	4746
2203.769	4777
2205.799	4614
2207.828	4745
2209.855	4692
2211.882	4776
2213.908	4742
2215.934	4746
2217.961	4665
2219.986	4703
2222.01	4659
2224.034	4692
2226.057	4658
2228.08	4681
2230.104	4604
2232.124	4659
2234.145	4622
2236.166	4725
2238.186	4738
2240.207	4624
2242.227	4659
2244.244	4677
2246.262	4709
2248.28	4684
2250.299	4577
2252.314	4788
2254.33	4670
2256.346	4709
2258.36	4703
2260.375	4657
2262.391	4741
2264.403	4622
2266.416	4686
2268.427	4752
2270.44	4743
2272.453	4724
2274.463	4721
2276.474	4682
2278.483	4823
2280.493	4744
2282.501	4738
2284.51	4700
2286.518	4648
2288.524	4727
2290.532	4676
2292.537	4635
2294.544	4721
2296.55	4724
2298.554	4699
2300.557	4796
2302.562	4737
2304.566	4691
2306.568	4672
2308.569	4753
2310.572	4616
2312.573	4593
2314.573	4720
2316.574	4618
2318.573	4717
2320.571	4724
2322.571	4651
2324.569	4688
2326.567	4517
2328.564	4724
2330.56	4678
2332.556	4694
2334.551	4676
2336.546	4658
2338.542	4717
2340.535	4642
2342.529	4674
2344.521	4624
2346.512	4685
2348.505	4744
2350.497	4612
2352.487	4571
2354.478	4588
2356.468	4620
2358.457	4567
2360.446	4545
2362.434	4586
2364.422	4683
2366.408	4611
2368.395	4617
2370.383	4610
2372.369	4570
2374.353	4694
2376.338	4686
2378.321	4540
2380.307	4614
2382.29	4568
2384.272	4616
2386.254	4517
2388.235	4602
2390.218	4595
2392.198	4605
2394.179	4517
2396.157	4576
2398.137	4573
2400.115	4542
2402.095	4643
2404.072	4640
2406.048	4578
2408.026	4574
2410.001	4585
2411.977	4547
2413.953	4546
2415.927	4547
2417.9	4606
2419.875	4606
2421.847	4559
2423.821	4558
2425.792	4657
2427.763	4670
2429.736	4647
2431.706	4697
2433.677	4546
2435.646	4649
2437.615	4618
2439.583	4585
2441.551	4631
2443.519	4678
2445.486	4654
2447.452	4673
2449.418	4546
2451.383	4574
2453.348	4549
2455.314	4531
2457.278	4521
2459.241	4574
2461.205	4668
2463.167	4657
2465.131	4701
2467.091	4587
2469.052	4524
2471.012	4594
2472.972	4555
2474.932	4550
2476.891	4523
2478.85	4612
2480.808	4591
2482.766	4646
2484.722	4577
2486.68	4641
2488.636	4519
2490.591	4556
2492.546	4563
2494.5	4554
2496.456	4590
2498.41	4477
2500.362	4505
2502.315	4537
2504.266	4593
2506.218	4565
2508.169	4598
2510.121	4551
2512.07	4614
2514.019	4513
2515.968	4574
2517.918	4553
2519.866	4640
2521.813	4565
2523.76	4538
2525.707	4574
2527.653	4588
2529.599	4535
2531.543	4639
2533.489	4570
2535.433	4481
2537.376	4476
2539.32	4569
2541.264	4568
2543.205	4560
2545.147	4576
2547.087	4540
2549.029	4439
2550.969	4529
2552.908	4510
2554.847	4517
2556.786	4632
2558.724	4545
2560.663	4517
2562.6	4552
2564.537	4558
2566.473	4538
2568.408	4569
2570.345	4535
2572.28	4481
2574.214	4528
2576.148	4532
2578.081	4587
2580.014	4553
2581.947	4605
2583.879	4568
2585.81	4613
2587.741	4567
2589.67	4505
2591.602	4574
2593.532	4522
2595.461	4571
2597.388	4486
2599.316	4588
2601.244	4623
2603.172	4610
2605.098	4577
2607.023	4618
2608.949	4667
2610.873	4589
2612.8	4610
2614.723	4506
2616.647	4627
2618.569	4609
2620.493	4645
2622.416	4643
2624.338	4553
2626.258	4563
2628.179	4653
2630.099	4512
2632.019	4533
2633.939	4613
2635.857	4615
2637.775	4522
2639.694	4625
2641.61	4579
2643.528	4571
2645.444	4501
2647.361	4589
2649.276	4548
2651.19	4494
2653.105	4614
2655.019	4570
2656.934	4624
2658.846	4597
2660.758	4599
2662.67	4536
2664.583	4613
2666.493	4551
2668.404	4627
2670.313	4513
2672.223	4622
2674.134	4550
2676.042	4572
2677.95	4702
2679.858	4624
2681.765	4598
2683.673	4524
2685.579	4504
2687.483	4609
2689.389	4578
2691.294	4533
2693.198	4536
2695.104	4569
2697.006	4574
2698.909	4628
2700.811	4489
2702.713	4587
2704.615	4578
2706.516	4464
2708.417	4611
2710.316	4547
2712.216	4489
2714.115	4555
2716.014	4550
2717.913	4389
2719.81	4470
2721.707	4505
2723.603	4575
2725.501	4513
2727.396	4549
2729.292	4516
2731.186	4482
2733.081	4585
2734.976	4508
2736.87	4551
2738.762	4553
2740.653	4548
2742.546	4502
2744.437	4493
2746.329	4512
2748.22	4500
2750.11	4462
2751.999	4495
2753.889	4517
2755.778	4547
2757.666	4442
2759.553	4505
2761.44	4494
2763.328	4442
2765.215	4488
2767.101	4479
2768.986	4510
2770.87	4459
2772.754	4511
2774.638	4506
2776.523	4506
2778.405	4519
2780.288	4480
2782.17	4534
2784.051	4558
2785.934	4443
2787.814	4507
2789.694	4440
2791.574	4525
2793.453	4475
2795.332	4494
2797.212	4488
2799.088	4458
2800.966	4539
2802.843	4439
2804.719	4440
2806.597	4524
2808.471	4443
2810.346	4408
2812.221	4473
2814.094	4531
2815.969	4466
2817.843	4509
2819.714	4580
2821.587	4508
2823.459	4614
2825.329	4469
2827.202	4552
2829.072	4491
2830.942	4418
2832.811	4542
2834.68	4463
2836.549	4472
2838.418	4524
2840.284	4558
2842.152	4485
2844.018	4484
2845.885	4531
2847.751	4526
2849.616	4592
2851.482	4436
2853.345	4578
2855.208	4554
2857.074	4491
2858.937	4630
2860.799	4430
2862.66	4506
2864.522	4505
2866.385	4608
2868.245	4662
2870.104	4642
2871.964	4658
2873.824	4673
2875.683	4729
2877.542	4647
2879.4	4763
2881.257	4694
2883.114	4813
2884.97	4807
2886.827	4717
2888.683	4740
2890.537	4788
2892.392	4751
2894.246	4749
2896.1	4766
2897.954	4773
2899.807	4773
2901.66	4744
2903.51	4692
2905.362	4841
2907.214	4751
2909.065	4726
2910.915	4707
2912.765	4800
2914.613	4809
2916.463	4866
2918.311	4927
2920.158	4812
2922.006	4935
2923.853	4906
2925.698	4949
2927.546	5026
2929.392	5001
2931.236	5075
2933.081	5125
2934.924	5121
2936.77	5139
2938.613	5116
2940.455	5150
2942.298	5124
2944.139	5231
2945.982	5197
2947.823	5107
2949.662	5108
2951.503	5052
2953.342	5088
2955.182	5048
2957.021	5042
2958.858	4966
2960.697	4969
2962.534	5033
2964.37	5039
2966.207	4922
2968.044	4880
2969.879	4928
2971.714	4930
2973.548	4860
2975.383	4819
2977.218	4791
2979.051	4713
2980.883	4735
2982.715	4829
2984.547	4780
2986.379	4732
2988.21	4767
2990.04	4607
2991.87	4657
2993.7	4773
2995.53	4758
2997.359	4673
2999.187	4597
3001.015	4578
3002.842	4670
3004.669	4517
3006.497	4529
3008.323	4391
3010.148	4557
3011.974	4387
3013.797	4487
3015.623	4468
3017.447	4404
3019.27	4372
3021.094	4320
3022.915	4414
3024.737	4404
3026.56	4400
3028.38	4303
3030.201	4358
3032.022	4376
3033.84	4379
3035.662	4377
3037.481	4365
3039.298	4367
3041.117	4240
3042.933	4365
3044.752	4204
3046.568	4374
3048.385	4270
3050.2	4303
3052.016	4325
3053.83	4250
3055.646	4314
3057.46	4295
3059.272	4297
3061.086	4283
3062.898	4334
3064.711	4271
3066.524	4312
3068.335	4379
3070.145	4289
3071.956	4349
3073.766	4294
3075.576	4313
3077.385	4263
3079.193	4309
3081.002	4306
3082.81	4197
3084.618	4222
3086.425	4287
3088.231	4170
3090.036	4214
3091.842	4306
3093.648	4179
3095.452	4276
3097.257	4298
3099.06	4251
3100.863	4139
3102.666	4205
3104.47	4238
3106.272	4258
3108.073	4227
3109.875	4222
3111.676	4094
3113.477	4148
3115.277	4139
3117.077	4235
3118.874	4243
3120.673	4078
3122.473	4152
3124.271	4249
3126.066	4124
3127.863	4175
3129.66	4195
3131.456	4094
3133.252	4130
3135.047	4057
3136.842	4169
3138.635	4133
3140.429	4073
3142.223	4124
3144.016	4132
3145.808	4197
3147.6	4108
3149.392	4136
3151.183	4240
3152.975	4132
3154.765	4101
3156.553	4178
3158.344	4150
3160.132	4151
3161.922	4082
3163.71	4162
3165.497	4191
3167.285	4180
3169.071	4151
3170.858	4018
3172.645	4017
3174.429	4157
3176.214	4094
3177.998	4136
3179.783	4131
3181.568	4074
3183.351	4084
3185.133	4135
3186.915	4168
3188.698	4051
3190.481	4125
3192.261	4132
3194.042	4055
3195.822	4093
3197.601	4019
3199.381	4087
3201.161	4063
3202.939	4036
3204.717	4017
3206.495	4056
3208.272	4041
3210.05	4016
3211.826	4013
3213.602	4040
3215.376	4034
3217.151	4015
3218.927	4072
3220.702	4087
3222.476	4006
3224.249	4091
3226.021	3980
3227.793	4023
3229.567	4038
3231.339	4072
3233.109	4104
3234.88	4033
3236.651	4085
3238.421	4033
3240.191	4086
3241.96	4108
3243.728	4110
3245.497	4115
3247.263	4055
3249.033	4101
3250.799	4020
3252.566	4068
3254.331	4190
3256.097	4091
3257.863	3965
3259.628	4084
3261.392	4088
3263.156	4051
3264.919	4054
3266.683	4057
3268.447	4004
3270.208	4099
3271.969	3973
3273.731	4050
3275.492	4028
3277.253	4097
3279.013	4001
3280.773	4056
3282.532	4061
3284.291	4027
3286.05	4021
3287.808	4072
3289.566	4070
3291.323	3991
3293.079	4036
3294.835	4008
3296.593	4024
3298.348	4075
3300.102	4140
3301.857	4049
3303.611	4102
3305.366	4092
3307.119	4036
3308.872	4086
3310.624	4015
3312.376	4027
3314.129	4085
3315.881	4043
3317.631	4077
3319.38	4162
3321.13	4104
3322.88	4090
3324.631	4042
3326.379	4005
3328.126	4119
3329.875	3991
3331.622	4148
3333.371	3911
3335.116	4008
3336.863	4082
3338.609	4037
3340.353	4024
3342.1	4016
3343.845	4052
3345.588	4036
3347.332	4003
3349.074	3964
3350.817	4072
3352.56	3976
3354.303	3949
3356.043	4009
3357.785	4060
3359.525	3983
3361.268	3995
3363.007	3910
3364.745	3933
3366.485	4013
3368.223	4019
3369.962	3893
3371.701	4001
3373.438	3972
3375.174	3995
3376.911	3936
3378.647	4083
3380.384	3955
3382.118	4029
3383.854	3891
3385.588	4029
3387.322	4051
3389.057	3950
3390.79	3922
3392.522	3903
3394.255	3990
3395.987	3992
3397.719	3971
3399.451	3932
3401.181	4033
3402.911	3889
3404.641	3875
3406.371	3951
3408.101	3923
3409.83	3918
3411.558	3919
3413.285	3908
3415.011	3952
3416.739	3909
3418.467	3894
3420.193	3930
3421.919	3894
3423.644	3936
3425.368	3982
3427.094	3918
3428.818	3888
3430.542	3929
3432.264	3923
3433.987	3903
3435.712	3935
3437.434	3897
3439.155	3852
3440.876	3921
3442.596	3864
3444.317	3881
3446.039	3870
3447.757	3798
3449.477	3836
3451.195	3850
3452.914	3871
3454.632	3853
3456.35	3830
3458.067	3866
3459.784	3800
3461.5	3879
3463.216	3894
3464.932	3770
3466.647	3861
3468.362	3788
3470.076	3808
3471.789	3728
3473.505	3796
3475.217	3749
3476.929	3826
3478.641	3791
3480.354	3830
3482.066	3819
3483.777	3840
3485.487	3835
3487.197	3813
3488.908	3736
3490.617	3803
3492.327	3705
3494.035	3742
3495.743	3744
3497.451	3843
3499.158	3733
3500.866	3757
3502.572	3706
3504.278	3677
3505.984	3819
3507.689	3723
3509.396	3730
3511.1	3707
3512.804	3727
3514.508	3788
3516.211	3761
3517.913	3742
3519.616	3686
3521.319	3725
3523.021	3722
3524.722	3715
3526.422	3603
3528.124	3726
3529.824	3750
3531.524	3706
3533.222	3752
3534.921	3690
3536.62	3694
3538.318	3649
3540.016	3790
3541.714	3616
3543.41	3721
3545.107	3718
3546.803	3728
3548.5	3642
3550.194	3746
3551.889	3645
3553.583	3636
3555.279	3616
3556.972	3600
3558.666	3626
3560.358	3582
3562.051	3668
3563.742	3706
3565.435	3689
3567.126	3689
3568.817	3566
3570.507	3658
3572.197	3630
3573.888	3685
3575.577	3699
3577.265	3594
3578.954	3618
3580.642	3668
3582.329	3703
3584.017	3553
3585.704	3539
3587.391	3589
3589.077	3634
3590.762	3618
3592.449	3575
3594.133	3562
3595.817	3579
3597.501	3548
3599.185	3661
3600.869	3565
3602.552	3528
3604.234	3528
3605.916	3540
3607.598	3565
3609.279	3590
3610.961	3516
3612.642	3615
3614.321	3484
3616	3510
3617.68	3444
3619.36	3600
3621.039	3527
3622.716	3483
3624.394	3489
3626.071	3442
3627.748	3475
3629.425	3503
3631.102	3550
3632.778	3558
3634.452	3489
3636.127	3495
3637.803	3585
3639.477	3439
3641.151	3484
3642.823	3435
3644.497	3468
3646.171	3438
3647.842	3504
3649.515	3449
3651.185	3430
3652.857	3416
3654.527	3472
3656.198	3468
3657.868	3480
3659.537	3409
3661.207	3465
3662.875	3442
3664.544	3472
3666.212	3411
3667.879	3412
3669.546	3406
3671.212	3442
3672.88	3372
3674.546	3389
3676.211	3363
3677.875	3377
3679.541	3454
3681.205	3349
3682.87	3385
3684.533	3423
3686.196	3349
3687.859	3417
3689.521	3348
3691.184	3409
3692.845	3359
3694.507	3346
3696.167	3477
3697.827	3383
3699.487	3385
3701.148	3388
3702.808	3407
3704.466	3319
3706.125	3393
3707.783	3332
3709.442	3437
3711.099	3448
3712.757	3321
3714.412	3441
3716.068	3456
3717.725	3363
3719.381	3335
3721.036	3409
3722.689	3343
3724.344	3377
3725.998	3389
3727.652	3361
3729.305	3344
3730.958	3310
3732.61	3315
3734.262	3369
3735.915	3336
3737.565	3278
3739.217	3284
3740.866	3373
3742.516	3347
3744.165	3363
3745.816	3342
3747.464	3321
3749.113	3281
3750.761	3300
3752.409	3365
3754.057	3302
3755.703	3356
3757.35	3303
3758.996	3380
3760.641	3396
3762.289	3250
3763.933	3336
3765.577	3243
3767.222	3342
3768.865	3327
3770.508	3264
3772.152	3242
3773.796	3220
3775.438	3256
3777.079	3226
3778.721	3272
3780.363	3262
3782.003	3331
3783.643	3288
3785.283	3245
3786.923	3220
3788.563	3221
3790.203	3285
3791.841	3241
3793.479	3260
3795.115	3285
3796.753	3292
3798.391	3164
3800.027	3248
3801.664	3200
3803.299	3219
3804.935	3213
3806.571	3198
3808.206	3202
3809.839	3216
3811.473	3145
3813.107	3262
3814.74	3190
3816.375	3222
3818.006	3177
3819.638	3206
3821.27	3161
3822.9	3233
3824.532	3190
3826.163	3172
3827.792	3236
3829.423	3200
3831.051	3128
3832.682	3221
3834.311	3123
3835.938	3267
3837.566	3170
3839.193	3170
3840.821	3156
3842.448	3196
3844.075	3158
3845.7	3197
3847.325	3162
3848.951	3187
3850.576	3155
3852.201	3214
3853.825	3073
3855.448	3143
3857.072	3139
3858.694	3117
3860.318	3199
3861.939	3175
3863.562	3124
3865.183	3109
3866.804	3148
3868.426	3144
3870.045	3098
3871.666	3153
3873.285	3070
3874.904	3211
3876.524	3040
3878.142	3177
3879.76	3208
3881.378	3095
3882.995	3173
3884.612	3061
3886.229	3114
3887.845	3134
3889.461	3185
3891.076	3089
3892.691	3171
3894.307	3078
3895.922	3136
3897.536	3122
3899.149	3078
3900.761	3111
3902.374	3145
3903.988	3098
3905.6	3151
3907.212	3112
3908.822	3076
3910.433	3203
3912.045	3113
3913.655	3060
3915.265	3081
3916.875	2986
3918.483	3119
3920.093	2995
3921.702	3073
3923.309	3133
3924.917	3051
3926.523	3090
3928.13	3054
3929.739	3062
3931.344	3163
3932.95	3128
3934.555	3061
3936.159	3079
3937.766	3097
3939.369	3071
3940.974	3055
3942.577	3076
3944.181	3063
3945.783	3006
3947.386	3093
3948.989	2985
3950.59	3120
3952.191	3002
3953.791	3011
3955.394	3009
3956.994	3031
3958.593	3132
3960.192	2977
3961.791	3076
3963.392	3068
3964.99	3113
3966.588	3029
3968.185	3003
3969.782	3097
3971.379	3047
3972.976	3062
3974.572	2999
3976.168	3042
3977.763	3032
3979.358	3014
3980.954	2991
3982.548	3020
3984.142	2977
3985.736	2987
3987.329	2947
3988.922	2951
3990.516	2936
3992.108	2913
3993.698	2927
3995.29	2969
3996.881	2987
3998.473	2949
4000.064	2923
4001.653	2935
4003.242	2915
4004.832	2931
4006.422	2952
4008.01	2979
4009.598	2870
4011.186	2936
4012.773	2984
4014.36	2891
4015.947	2913
4017.534	2930
4019.119	2898
4020.705	2855
4022.291	2907
4023.876	2909
4025.461	2923
4027.044	2919
4028.627	2870
4030.211	2966
4031.795	2971
4033.378	2855
4034.96	2909
4036.542	2902
4038.124	2932
4039.704	2810
4041.286	2947
4042.867	2869
4044.447	2842
4046.026	2853
4047.606	2919
4049.187	2854
4050.765	2856
4052.343	2843
4053.92	2866
4055.498	2858
4057.076	2889
4058.654	2827
4060.23	2852
4061.806	2855
4063.381	2897
4064.957	2907
4066.533	2812
4068.107	2879
4069.682	2839
4071.256	2771
4072.829	2845
4074.404	2888
4075.977	2873
4077.549	2817
4079.121	2846
4080.693	2854
4082.265	2851
4083.836	2867
4085.407	2850
4086.977	2870
4088.547	2857
4090.117	2785
4091.687	2811
4093.256	2825
4094.825	2841
4096.392	2796
4097.96	2817
4099.528	2897
4101.097	2757
4102.663	2746
4104.229	2790
4105.795	2805
4107.361	2837
4108.928	2774
4110.493	2760
4112.058	2759
4113.621	2747
4115.186	2743
4116.75	2738
4118.313	2726
4119.876	2732
4121.438	2742
4123	2703
4124.562	2713
4126.125	2742
4127.686	2765
4129.246	2771
4130.807	2753
4132.367	2738
4133.927	2734
4135.486	2669
4137.046	2698
4138.604	2809
4140.162	2750
4141.72	2749
4143.279	2727
4144.836	2707
4146.393	2771
4147.949	2737
4149.505	2746
4151.062	2726
4152.617	2699
4154.172	2662
4155.727	2702
4157.281	2764
4158.836	2659
4160.39	2767
4161.943	2717
4163.496	2628
4165.048	2683
4166.601	2614
4168.154	2677
4169.706	2683
4171.257	2649
4172.808	2692
4174.358	2652
4175.909	2709
4177.458	2664
4179.008	2674
4180.558	2623
4182.106	2620
4183.655	2622
4185.204	2702
4186.751	2715
4188.298	2675
4189.845	2684
4191.392	2659
4192.939	2703
4194.485	2623
4196.031	2711
4197.576	2582
4199.121	2648
4200.666	2695
4202.211	2665
4203.754	2620
4205.298	2587
4206.84	2614
4208.384	2660
4209.927	2603
4211.47	2619
4213.011	2644
4214.552	2582
4216.094	2631
4217.635	2652
4219.175	2597
4220.716	2691
4222.255	2616
4223.793	2627
4225.335	2665
4226.873	2561
4228.411	2561
4229.948	2576
4231.486	2640
4233.024	2591
4234.562	2582
4236.098	2575
4237.634	2584
4239.169	2577
4240.705	2549
4242.241	2510
4243.776	2579
4245.31	2614
4246.844	2650
4248.378	2609
4249.911	2596
4251.445	2612
4252.978	2562
4254.51	2584
4256.042	2544
4257.574	2656
4259.107	2574
4260.638	2580
4262.169	2591
4263.699	2539
4265.228	2542
4266.759	2522
4268.289	2573
4269.818	2620
4271.345	2563
4272.874	2533
4274.402	2591
4275.931	2518
4277.458	2561
4278.985	2554
4280.512	2497
4282.037	2527
4283.564	2547
4285.089	2566
4286.615	2489
4288.139	2490
4289.664	2542
4291.187	2544
4292.712	2546
4294.235	2491
4295.759	2540
4297.281	2547
4298.804	2471
4300.327	2512
4301.849	2506
4303.37	2506
4304.891	2535
4306.412	2441
4307.933	2568
4309.453	2506
4310.973	2545
4312.492	2540
