398.1873	3015
400.7097	3001
403.2336	3010
405.7547	3019
408.2751	3002
410.7948	2975
413.3138	3065
415.83	3017
418.3497	3030
420.8666	3084
423.3829	3145
425.8985	3132
428.4133	3150
430.9275	3196
433.441	3096
435.9538	3147
438.4639	3159
440.9753	3163
443.4881	3144
445.9982	3198
448.5055	3114
451.0142	3110
453.5201	3211
456.0274	3193
458.5361	3158
461.04	3151
463.5453	3217
466.0478	3157
468.5517	3148
471.0549	3230
473.5574	3201
476.0572	3101
478.5584	3178
481.0568	3169
483.5545	3192
486.0557	3263
488.5521	3217
491.0478	3247
493.5449	3275
496.0392	3201
498.5349	3289
501.0299	3215
503.5222	3309
506.0139	3253
508.5048	3302
510.9991	3281
513.4887	3339
515.9777	3282
518.4659	3357
520.9534	3288
523.4403	3234
525.9306	3337
528.4161	3329
530.9009	3261
533.3851	3208
535.8687	3345
538.3535	3272
540.8356	3287
543.3171	3221
545.7979	3274
548.278	3342
550.7595	3286
553.2383	3273
555.7144	3288
558.1918	3256
560.6685	3294
563.1446	3382
565.6221	3275
568.0968	3365
570.5688	3427
573.0422	3412
575.515	3371
577.989	3371
580.4584	3423
582.9291	3441
585.3991	3448
587.8685	3410
590.3352	3350
592.8052	3361
595.2706	3506
597.7372	3442
600.2033	3361
602.6666	3394
605.1334	3486
607.5953	3435
610.0587	3374
612.5193	3368
614.9814	3419
617.4427	3361
619.9034	3396
622.3615	3397
624.8208	3447
627.2775	3321
629.7335	3439
632.1929	3340
634.6476	3360
637.1016	3449
639.5569	3454
642.0096	3409
644.4637	3395
646.9151	3436
649.3678	3424
651.8179	3393
654.2672	3465
656.7159	3480
659.166	3508
661.6154	3428
664.0622	3502
666.5082	3452
668.9537	3490
671.4005	3463
673.8445	3532
676.288	3498
678.7308	3480
681.1729	3522
683.6163	3520
686.0572	3557
688.4973	3484
690.9368	3547
693.3757	3584
695.8138	3568
698.2534	3534
700.6902	3485
703.1245	3553
705.56	3636
707.9949	3561
710.4311	3484
712.8647	3600
715.2957	3540
717.7279	3587
720.1595	3544
722.5905	3567
725.0208	3554
727.4505	3625
729.8795	3534
732.3058	3688
734.7336	3609
737.1626	3638
739.587	3621
742.0128	3620
744.4359	3706
746.8604	3687
749.2841	3691
751.7073	3707
754.1278	3696
756.5496	3789
758.9688	3642
761.3893	3770
763.8093	3738
766.2285	3716
768.6451	3716
771.0611	3793
773.4784	3763
775.895	3785
778.3091	3691
780.7244	3766
783.1371	3777
785.5493	3740
787.9626	3798
790.3754	3698
792.7856	3792
795.1951	3789
797.6039	3847
800.0121	3768
802.4236	3844
804.8306	3824
807.2369	3721
809.6425	3797
812.0475	3740
814.4538	3849
816.8575	3802
819.2606	3826
821.663	3777
824.0648	3795
826.4659	3844
828.8683	3845
831.2682	3853
833.6674	3656
836.066	3776
838.4639	3709
840.8632	3874
843.2579	3867
845.6539	3807
848.0493	3845
850.444	3863
852.84	3856
855.2315	3810
857.6243	3853
860.0165	3824
862.4081	3853
864.797	3839
867.1892	3835
869.5789	3907
871.9659	3897
874.3542	3877
876.74	3860
879.129	3870
881.5155	3834
883.8994	3897
886.2845	3906
888.6671	3810
891.051	3864
893.4343	3847
895.8169	3844
898.197	3776
900.5783	3841
902.9571	3855
905.3372	3837
907.7167	3970
910.0936	3886
912.4698	3919
914.8474	4000
917.2244	3937
919.5987	3926
921.9744	3993
924.3475	4033
926.72	3972
929.0918	3965
931.4669	3960
933.8375	4042
936.2074	3982
938.5767	4161
940.9454	4166
943.3154	4061
945.6829	4142
948.0497	4275
950.4178	4317
952.7833	4453
955.1483	4619
957.5145	4641
959.8782	4718
962.2412	4643
964.6036	4532
966.9655	4414
969.3266	4409
971.6871	4297
974.0471	4187
976.4064	4058
978.765	4063
981.125	4038
983.4824	3966
985.8373	4033
988.1935	3929
990.549	3994
992.9039	4026
995.2602	4019
997.6119	4024
999.965	3908
1002.317	3974
1004.667	4031
1007.02	3999
1009.371	4008
1011.719	4029
1014.068	3915
1016.415	4033
1018.765	4011
1021.111	4058
1023.458	3996
1025.804	4144
1028.147	4070
1030.49	4046
1032.837	4073
1035.179	4118
1037.522	4093
1039.862	4066
1042.204	4127
1044.546	4095
1046.884	4066
1049.224	4073
1051.562	4155
1053.899	4166
1056.237	4123
1058.575	4050
1060.91	4219
1063.244	4178
1065.58	4130
1067.913	4076
1070.248	4103
1072.579	4117
1074.911	4161
1077.242	4070
1079.572	4007
1081.905	4118
1084.234	4179
1086.562	4070
1088.89	4168
1091.217	4157
1093.544	4029
1095.871	4061
1098.197	4157
1100.521	4097
1102.845	4155
1105.169	4079
1107.491	4104
1109.814	4108
1112.135	4032
1114.456	4140
1116.776	4116
1119.096	4106
1121.415	4080
1123.734	4059
1126.052	4176
1128.369	4152
1130.686	4183
1133.002	4150
1135.318	4139
1137.632	4152
1139.945	4183
1142.258	4102
1144.573	4107
1146.884	4107
1149.196	4203
1151.505	4201
1153.816	4068
1156.124	4190
1158.435	4177
1160.742	4155
1163.051	4106
1165.356	4154
1167.663	4141
1169.97	4096
1172.276	4251
1174.579	4081
1176.881	4171
1179.186	4072
1181.487	4166
1183.79	4108
1186.092	4210
1188.392	4158
1190.691	4078
1192.991	4156
1195.291	4143
1197.588	4090
1199.885	4125
1202.181	4201
1204.479	4187
1206.775	4041
1209.07	4235
1211.363	4110
1213.656	4103
1215.949	4258
1218.241	4163
1220.534	4251
1222.825	4157
1225.115	4283
1227.405	4203
1229.693	4200
1231.984	4229
1234.271	4215
1236.558	4252
1238.845	4262
1241.131	4270
1243.416	4264
1245.703	4376
1247.987	4326
1250.269	4288
1252.552	4218
1254.834	4234
1257.118	4241
1259.399	4356
1261.678	4339
1263.958	4261
1266.237	4258
1268.516	4285
1270.794	4355
1273.072	4274
1275.347	4252
1277.624	4340
1279.899	4339
1282.175	4320
1284.449	4305
1286.722	4255
1288.995	4289
1291.266	4254
1293.54	4311
1295.81	4332
1298.081	4257
1300.35	4193
1302.62	4246
1304.889	4329
1307.156	4241
1309.425	4326
1311.69	4248
1313.957	4328
1316.222	4293
1318.488	4178
1320.751	4308
1323.016	4210
1325.278	4232
1327.54	4277
1329.803	4216
1332.065	4233
1334.325	4280
1336.584	4308
1338.843	4296
1341.101	4298
1343.36	4260
1345.617	4251
1347.876	4326
1350.131	4242
1352.387	4296
1354.643	4240
1356.897	4247
1359.151	4184
1361.403	4208
1363.656	4267
1365.909	4304
1368.16	4271
1370.409	4412
1372.659	4193
1374.909	4315
1377.157	4355
1379.407	4306
1381.655	4383
1383.9	4355
1386.147	4364
1388.393	4359
1390.64	4304
1392.885	4281
1395.127	4388
1397.37	4425
1399.614	4348
1401.854	4367
1404.098	4351
1406.339	4258
1408.578	4350
1410.818	4378
1413.056	4316
1415.297	4347
1417.533	4381
1419.771	4430
1422.006	4366
1424.243	4402
1426.479	4415
1428.715	4280
1430.948	4363
1433.182	4400
1435.414	4358
1437.647	4415
1439.88	4424
1442.11	4447
1444.342	4413
1446.571	4398
1448.799	4425
1451.029	4411
1453.258	4459
1455.485	4437
1457.711	4304
1459.937	4449
1462.164	4430
1464.39	4485
1466.614	4436
1468.838	4452
1471.06	4451
1473.283	4389
1475.506	4453
1477.727	4387
1479.949	4369
1482.169	4429
1484.389	4273
1486.609	4440
1488.828	4461
1491.045	4344
1493.261	4340
1495.477	4352
1497.693	4398
1499.91	4324
1502.125	4348
1504.339	4351
1506.553	4296
1508.766	4395
1510.979	4366
1513.191	4383
1515.402	4342
1517.613	4284
1519.823	4348
1522.033	4278
1524.242	4343
1526.451	4275
1528.657	4244
1530.865	4375
1533.072	4349
1535.278	4376
1537.484	4450
1539.687	4382
1541.892	4382
1544.096	4411
1546.299	4492
1548.502	4355
1550.703	4328
1552.905	4448
1555.104	4464
1557.303	4408
1559.505	4427
1561.703	4473
1563.902	4455
1566.099	4383
1568.295	4469
1570.494	4461
1572.689	4458
1574.883	4429
1577.079	4513
1579.272	4443
1581.467	4439
1583.659	4544
1585.853	4495
1588.044	4581
1590.234	4440
1592.424	4392
1594.615	4489
1596.806	4440
1598.994	4573
1601.182	4420
1603.369	4516
1605.557	4499
1607.744	4453
1609.929	4438
1612.114	4566
1614.298	4503
1616.482	4534
1618.667	4541
1620.85	4476
1623.032	4477
1625.214	4495
1627.395	4585
1629.575	4468
1631.755	4524
1633.935	4554
1636.114	4553
1638.292	4542
1640.471	4574
1642.647	4574
1644.823	4586
1647	4500
1649.175	4694
1651.348	4580
1653.525	4605
1655.698	4586
1657.87	4598
1660.043	4481
1662.213	4622
1664.387	4548
1666.558	4638
1668.727	4637
1670.896	4626
1673.064	4547
1675.233	4601
1677.401	4594
1679.569	4553
1681.735	4611
1683.902	4551
1686.066	4694
1688.233	4620
1690.397	4547
1692.559	4660
1694.723	4484
1696.885	4599
1699.048	4549
1701.21	4567
1703.37	4502
1705.53	4533
1707.689	4519
1709.849	4603
1712.009	4658
1714.166	4521
1716.323	4506
1718.479	4461
1720.634	4494
1722.793	4633
1724.948	4487
1727.102	4586
1729.255	4456
1731.408	4539
1733.562	4652
1735.714	4563
1737.865	4527
1740.016	4627
1742.166	4585
1744.316	4519
1746.467	4554
1748.616	4600
1750.764	4493
1752.911	4624
1755.056	4665
1757.205	4527
1759.35	4636
1761.496	4609
1763.641	4559
1765.785	4555
1767.927	4586
1770.072	4526
1772.214	4633
1774.355	4655
1776.496	4625
1778.637	4583
1780.778	4575
1782.918	4637
1785.057	4628
1787.194	4541
1789.333	4593
1791.472	4635
1793.608	4635
1795.745	4611
1797.879	4629
1800.015	4605
1802.148	4709
1804.284	4534
1806.417	4613
1808.548	4638
1810.682	4620
1812.812	4595
1814.946	4584
1817.075	4595
1819.205	4616
1821.335	4591
1823.463	4644
1825.59	4719
1827.721	4573
1829.847	4531
1831.973	4650
1834.098	4612
1836.223	4561
1838.351	4651
1840.475	4718
1842.598	4563
1844.721	4668
1846.843	4621
1848.966	4556
1851.087	4620
1853.21	4520
1855.33	4629
1857.449	4586
1859.568	4657
1861.688	4627
1863.806	4609
1865.924	4567
1868.039	4616
1870.155	4554
1872.273	4527
1874.388	4633
1876.503	4694
1878.617	4611
1880.73	4619
1882.844	4497
1884.956	4648
1887.068	4576
1889.18	4647
1891.291	4545
1893.4	4663
1895.511	4690
1897.621	4574
1899.73	4644
1901.837	4564
1903.944	4670
1906.053	4592
1908.159	4678
1910.265	4599
1912.369	4652
1914.474	4636
1916.577	4698
1918.683	4608
1920.785	4616
1922.888	4674
1924.989	4620
1927.091	4697
1929.193	4647
1931.294	4703
1933.393	4654
1935.493	4605
1937.59	4755
1939.689	4647
1941.788	4677
1943.884	4630
1945.98	4639
1948.077	4691
1950.171	4709
1952.267	4707
1954.361	4652
1956.455	4690
1958.548	4628
1960.64	4760
1962.733	4680
1964.824	4761
1966.915	4725
1969.005	4686
1971.096	4762
1973.185	4722
1975.275	4698
1977.363	4690
1979.45	4649
1981.537	4685
1983.623	4722
1985.711	4717
1987.796	4734
1989.881	4629
1991.965	4745
1994.047	4705
1996.132	4552
1998.215	4703
2000.297	4610
2002.378	4667
2004.46	4492
2006.54	4715
2008.62	4679
2010.7	4709
2012.779	4685
2014.858	4672
2016.934	4643
2019.013	4716
2021.09	4679
2023.165	4581
2025.241	4665
2027.317	4658
2029.39	4668
2031.466	4586
2033.538	4628
2035.612	4693
2037.683	4673
2039.755	4656
2041.827	4665
2043.898	4668
2045.968	4594
2048.038	4622
2050.106	4732
2052.177	4707
2054.244	4773
2056.313	4747
2058.379	4673
2060.444	4694
2062.511	4588
2064.577	4670
2066.641	4797
2068.705	4777
2070.77	4666
2072.832	4813
2074.896	4683
2076.958	4718
2079.02	4608
2081.081	4709
2083.141	4660
2085.2	4729
2087.261	4685
2089.319	4748
2091.377	4629
2093.435	4778
2095.492	4742
2097.552	4639
2099.607	4590
2101.663	4732
2103.718	4784
2105.771	4624
2107.826	4733
2109.879	4649
2111.932	4676
2113.985	4732
2116.037	4661
2118.088	4692
2120.141	4735
2122.191	4748
2124.239	4632
2126.288	4669
2128.337	4728
2130.387	4608
2132.434	4752
2134.481	4712
2136.528	4733
2138.574	4632
2140.618	4569
2142.665	4594
2144.71	4688
2146.753	4681
2148.797	4767
2150.838	4728
2152.883	4624
2154.923	4758
2156.965	4672
2159.007	4574
2161.046	4694
2163.086	4661
2165.126	4663
2167.163	4679
2169.202	4682
2171.239	4645
2173.277	4655
2175.314	4734
2177.349	4671
2179.385	4679
2181.42	4687
2183.453	4647
2185.49	4601
2187.522	4702
2189.555	4617
2191.586	4660
2193.619	4619
2195.651	4667
2197.682	4676
2199.711	4609
2201.74	4590
2203.769	4665
2205.799	4612
2207.828	4601
2209.855	4640
2211.882	4671
2213.908	4684
2215.934	4657
2217.961	4601
2219.986	4605
2222.01	4659
2224.034	4569
2226.057	4630
2228.08	4576
2230.104	4509
2232.124	4587
2234.145	4634
2236.166	4643
2238.186	4584
2240.207	4591
2242.227	4626
2244.244	4643
2246.262	4651
2248.28	4603
2250.299	4582
2252.314	4630
2254.33	4676
2256.346	4574
2258.36	4653
2260.375	4703
2262.391	4631
2264.403	4633
2266.416	4570
2268.427	4724
2270.44	4584
2272.453	4675
2274.463	4612
2276.474	4639
2278.483	4643
2280.493	4622
2282.501	4685
2284.51	4589
2286.518	4598
2288.524	4600
2290.532	4632
2292.537	4602
2294.544	4692
2296.55	4559
2298.554	4657
2300.557	4690
2302.562	4659
2304.566	4642
2306.568	4689
2308.569	4546
2310.572	4700
2312.573	4629
2314.573	4633
2316.574	4588
2318.573	4618
2320.571	4587
2322.571	4667
2324.569	4604
2326.567	4574
2328.564	4613
2330.56	4594
2332.556	4581
2334.551	4659
2336.546	4589
2338.542	4553
2340.535	4616
2342.529	4613
2344.521	4628
2346.512	4647
2348.505	4555
2350.497	4630
2352.487	4628
2354.478	4586
2356.468	4493
2358.457	4583
2360.446	4499
2362.434	4627
2364.422	4592
2366.408	4597
2368.395	4515
2370.383	4549
2372.369	4548
2374.353	4572
2376.338	4632
2378.321	4566
2380.307	4554
2382.29	4579
2384.272	4573
2386.254	4534
2388.235	4448
2390.218	4607
2392.198	4479
2394.179	4501
2396.157	4524
2398.137	4545
2400.115	4412
2402.095	4547
2404.072	4501
2406.048	4602
2408.026	4437
2410.001	4437
2411.977	4498
2413.953	4481
2415.927	4604
2417.9	4608
2419.875	4538
2421.847	4469
2423.821	4517
2425.792	4446
2427.763	4556
2429.736	4464
2431.706	4569
2433.677	4537
2435.646	4457
2437.615	4517
2439.583	4501
2441.551	4479
2443.519	4542
2445.486	4497
2447.452	4478
2449.418	4584
2451.383	4486
2453.348	4542
2455.314	4517
2457.278	4490
2459.241	4537
2461.205	4563
2463.167	4434
2465.131	4484
2467.091	4595
2469.052	4539
2471.012	4520
2472.972	4621
2474.932	4491
2476.891	4492
2478.85	4577
2480.808	4488
2482.766	4450
2484.722	4570
2486.68	4418
2488.636	4573
2490.591	4500
2492.546	4437
2494.5	4471
2496.456	4540
2498.41	4401
2500.362	4460
2502.315	4406
2504.266	4457
2506.218	4479
2508.169	4554
2510.121	4428
2512.07	4544
2514.019	4400
2515.968	4402
2517.918	4488
2519.866	4494
2521.813	4487
2523.76	4494
2525.707	4488
2527.653	4450
2529.599	4470
2531.543	4595
2533.489	4563
2535.433	4495
2537.376	4472
2539.32	4475
2541.264	4550
2543.205	4489
2545.147	4522
2547.087	4464
2549.029	4454
2550.969	4501
2552.908	4541
2554.847	4423
2556.786	4439
2558.724	4454
2560.663	4418
2562.6	4556
2564.537	4392
2566.473	4450
2568.408	4575
2570.345	4499
2572.28	4500
2574.214	4427
2576.148	4504
2578.081	4495
2580.014	4377
2581.947	4589
2583.879	4395
2585.81	4457
2587.741	4404
2589.67	4363
2591.602	4575
2593.532	4411
2595.461	4483
2597.388	4530
2599.316	4571
2601.244	4447
2603.172	4527
2605.098	4495
2607.023	4537
2608.949	4589
2610.873	4471
2612.8	4564
2614.723	4522
2616.647	4461
2618.569	4504
2620.493	4502
2622.416	4527
2624.338	4474
2626.258	4518
2628.179	4495
2630.099	4502
2632.019	4502
2633.939	4540
2635.857	4449
2637.775	4468
2639.694	4511
2641.61	4558
2643.528	4513
2645.444	4462
2647.361	4524
2649.276	4537
2651.19	4467
2653.105	4553
2655.019	4494
2656.934	4600
2658.846	4419
2660.758	4511
2662.67	4477
2664.583	4511
2666.493	4532
2668.404	4535
2670.313	4379
2672.223	4462
2674.134	4596
2676.042	4474
2677.95	4511
2679.858	4536
2681.765	4441
2683.673	4388
2685.579	4463
2687.483	4512
2689.389	4460
2691.294	4409
2693.198	4365
2695.104	4490
2697.006	4456
2698.909	4426
2700.811	4345
2702.713	4421
2704.615	4545
2706.516	4357
2708.417	4456
2710.316	4506
2712.216	4389
2714.115	4506
2716.014	4522
2717.913	4469
2719.81	4408
2721.707	4442
2723.603	4461
2725.501	4459
2727.396	4465
2729.292	4495
2731.186	4430
2733.081	4423
2734.976	4492
2736.87	4350
2738.762	4424
2740.653	4356
2742.546	4400
2744.437	4383
2746.329	4391
2748.22	4481
2750.11	4410
2751.999	4420
2753.889	4438
2755.778	4453
2757.666	4498
2759.553	4318
2761.44	4419
2763.328	4478
2765.215	4408
2767.101	4391
2768.986	4433
2770.87	4426
2772.754	4418
2774.638	4470
2776.523	4397
2778.405	4431
2780.288	4333
2782.17	4365
2784.051	4380
2785.934	4361
2787.814	4369
2789.694	4337
2791.574	4470
2793.453	4376
2795.332	4384
2797.212	4372
2799.088	4443
2800.966	4394
2802.843	4349
2804.719	4437
2806.597	4378
2808.471	4386
2810.346	4474
2812.221	4446
2814.094	4391
2815.969	4330
2817.843	4424
2819.714	4434
2821.587	4447
2823.459	4355
2825.329	4355
2827.202	4416
2829.072	4479
2830.942	4430
2832.811	4411
2834.68	4383
2836.549	4439
2838.418	4464
2840.284	4430
2842.152	4373
2844.018	4451
2845.885	4352
2847.751	4411
2849.616	4389
2851.482	4371
2853.345	4281
2855.208	4348
2857.074	4487
2858.937	4420
2860.799	4474
2862.66	4446
2864.522	4516
2866.385	4432
2868.245	4494
2870.104	4521
2871.964	4463
2873.824	4514
2875.683	4491
2877.542	4578
2879.4	4591
2881.257	4604
2883.114	4629
2884.97	4593
2886.827	4546
2888.683	4536
2890.537	4564
2892.392	4577
2894.246	4627
2896.1	4629
2897.954	4606
2899.807	4613
2901.66	4555
2903.51	4574
2905.362	4509
2907.214	4523
2909.065	4600
2910.915	4637
2912.765	4639
2914.613	4590
2916.463	4661
2918.311	4674
2920.158	4616
2922.006	4736
2923.853	4813
2925.698	4767
2927.546	4726
2929.392	4705
2931.236	4850
2933.081	4998
2934.924	4882
2936.77	4858
2938.613	4899
2940.455	4981
2942.298	4980
2944.139	4980
2945.982	4958
2947.823	4925
2949.662	4938
2951.503	4869
2953.342	4817
2955.182	4901
2957.021	4811
2958.858	4867
2960.697	4720
2962.534	4864
2964.37	4843
2966.207	4640
2968.044	4637
2969.879	4728
2971.714	4620
2973.548	4546
2975.383	4613
2977.218	4594
2979.051	4585
2980.883	4646
2982.715	4599
2984.547	4523
2986.379	4600
2988.21	4560
2990.04	4429
2991.87	4508
2993.7	4403
2995.53	4537
2997.359	4521
2999.187	4436
3001.015	4431
3002.842	4414
3004.669	4368
3006.497	4347
3008.323	4383
3010.148	4328
3011.974	4386
3013.797	4307
3015.623	4293
3017.447	4365
3019.27	4243
3021.094	4264
3022.915	4240
3024.737	4222
3026.56	4276
3028.38	4237
3030.201	4158
3032.022	4275
3033.84	4246
3035.662	4243
3037.481	4202
3039.298	4245
3041.117	4215
3042.933	4202
3044.752	4223
3046.568	4242
3048.385	4212
3050.2	4239
3052.016	4171
3053.83	4157
3055.646	4216
3057.46	4237
3059.272	4223
3061.086	4224
3062.898	4113
3064.711	4120
3066.524	4246
3068.335	4197
3070.145	4207
3071.956	4115
3073.766	4110
3075.576	4126
3077.385	4237
3079.193	4218
3081.002	4072
3082.81	4134
3084.618	4156
3086.425	4100
3088.231	4130
3090.036	4077
3091.842	4121
3093.648	4109
3095.452	4117
3097.257	4200
3099.06	4057
3100.863	4151
3102.666	4037
3104.47	4175
3106.272	4137
3108.073	4094
3109.875	4101
3111.676	4088
3113.477	4113
3115.277	4061
3117.077	4067
3118.874	4019
3120.673	4061
3122.473	4055
3124.271	4024
3126.066	4069
3127.863	4065
3129.66	4128
3131.456	4053
3133.252	4075
3135.047	4046
3136.842	4020
3138.635	3962
3140.429	4035
3142.223	4042
3144.016	3945
3145.808	4099
3147.6	4089
3149.392	4081
3151.183	4008
3152.975	4085
3154.765	4074
3156.553	3985
3158.344	4069
3160.132	4127
3161.922	4010
3163.71	3927
3165.497	3988
3167.285	3989
3169.071	4028
3170.858	3940
3172.645	3949
3174.429	3992
3176.214	4011
3177.998	4013
3179.783	3985
3181.568	4019
3183.351	3901
3185.133	4058
3186.915	3902
3188.698	4008
3190.481	3997
3192.261	3961
3194.042	3963
3195.822	3950
3197.601	3981
3199.381	3897
3201.161	3969
3202.939	3961
3204.717	3985
3206.495	4017
3208.272	3923
3210.05	4003
3211.826	4070
3213.602	3920
3215.376	3940
3217.151	4022
3218.927	3885
3220.702	4029
3222.476	4006
3224.249	3975
3226.021	4001
3227.793	3871
3229.567	3935
3231.339	3968
3233.109	3928
3234.88	3864
3236.651	3925
3238.421	3914
3240.191	3934
3241.96	3906
3243.728	3990
3245.497	3917
3247.263	4052
3249.033	3935
3250.799	3874
3252.566	3975
3254.331	3961
3256.097	3920
3257.863	3854
3259.628	3852
3261.392	3947
3263.156	3851
3264.919	4006
3266.683	3904
3268.447	3913
3270.208	4040
3271.969	3948
3273.731	3892
3275.492	3893
3277.253	3938
3279.013	3918
3280.773	4035
3282.532	3990
3284.291	3914
3286.05	4036
3287.808	3909
3289.566	3909
3291.323	3860
3293.079	3877
3294.835	3916
3296.593	3928
3298.348	3940
3300.102	3885
3301.857	3921
3303.611	3923
3305.366	3968
3307.119	3974
3308.872	3874
3310.624	3984
3312.376	3944
3314.129	3912
3315.881	3913
3317.631	3891
3319.38	3831
3321.13	3858
3322.88	3868
3324.631	3897
3326.379	3950
3328.126	3929
3329.875	3951
3331.622	3871
3333.371	3900
3335.116	3931
3336.863	3908
3338.609	3917
3340.353	3867
3342.1	3898
3343.845	3828
3345.588	3862
3347.332	3764
3349.074	3827
3350.817	3850
3352.56	3915
3354.303	3838
3356.043	3891
3357.785	3846
3359.525	3842
3361.268	3937
3363.007	3896
3364.745	3874
3366.485	3863
3368.223	3864
3369.962	3841
3371.701	3834
3373.438	3756
3375.174	3936
3376.911	3803
3378.647	3894
3380.384	3832
3382.118	3859
3383.854	3861
3385.588	3868
3387.322	3933
3389.057	3804
3390.79	3919
3392.522	3828
3394.255	3802
3395.987	3791
3397.719	3772
3399.451	3842
3401.181	3792
3402.911	3864
3404.641	3806
3406.371	3753
3408.101	3856
3409.83	3812
3411.558	3796
3413.285	3756
3415.011	3893
3416.739	3796
3418.467	3825
3420.193	3835
3421.919	3830
3423.644	3699
3425.368	3739
3427.094	3726
3428.818	3803
3430.542	3745
3432.264	3855
3433.987	3770
3435.712	3735
3437.434	3744
3439.155	3826
3440.876	3754
3442.596	3702
3444.317	3792
3446.039	3739
3447.757	3732
3449.477	3769
3451.195	3729
3452.914	3741
3454.632	3700
3456.35	3685
3458.067	3697
3459.784	3742
3461.5	3635
3463.216	3637
3464.932	3642
3466.647	3692
3468.362	3688
3470.076	3767
3471.789	3651
3473.505	3726
3475.217	3670
3476.929	3662
3478.641	3685
3480.354	3620
3482.066	3646
3483.777	3729
3485.487	3661
3487.197	3684
3488.908	3614
3490.617	3639
3492.327	3595
3494.035	3728
3495.743	3624
3497.451	3593
3499.158	3654
3500.866	3643
3502.572	3620
3504.278	3655
3505.984	3624
3507.689	3595
3509.396	3671
3511.1	3521
3512.804	3567
3514.508	3558
3516.211	3644
3517.913	3676
3519.616	3538
3521.319	3658
3523.021	3570
3524.722	3587
3526.422	3713
3528.124	3572
3529.824	3649
3531.524	3589
3533.222	3563
3534.921	3504
3536.62	3606
3538.318	3486
3540.016	3550
3541.714	3585
3543.41	3556
3545.107	3578
3546.803	3605
3548.5	3557
3550.194	3556
3551.889	3582
3553.583	3431
3555.279	3592
3556.972	3575
3558.666	3505
3560.358	3588
3562.051	3463
3563.742	3560
3565.435	3499
3567.126	3556
3568.817	3519
3570.507	3501
3572.197	3511
3573.888	3536
3575.577	3524
3577.265	3504
3578.954	3458
3580.642	3467
3582.329	3435
3584.017	3455
3585.704	3510
3587.391	3402
3589.077	3455
3590.762	3478
3592.449	3461
3594.133	3511
3595.817	3515
3597.501	3453
3599.185	3413
3600.869	3429
3602.552	3496
3604.234	3476
3605.916	3531
3607.598	3395
3609.279	3432
3610.961	3372
3612.642	3505
3614.321	3445
3616	3438
3617.68	3447
3619.36	3412
3621.039	3441
3622.716	3423
3624.394	3406
3626.071	3365
3627.748	3288
3629.425	3413
3631.102	3422
3632.778	3369
3634.452	3393
3636.127	3332
3637.803	3395
3639.477	3365
3641.151	3390
3642.823	3328
3644.497	3287
3646.171	3446
3647.842	3323
3649.515	3431
3651.185	3302
3652.857	3320
3654.527	3407
3656.198	3389
3657.868	3362
3659.537	3371
3661.207	3315
3662.875	3335
3664.544	3313
3666.212	3317
3667.879	3334
3669.546	3237
3671.212	3255
3672.88	3445
3674.546	3325
3676.211	3377
3677.875	3289
3679.541	3333
3681.205	3333
3682.87	3313
3684.533	3238
3686.196	3297
3687.859	3386
3689.521	3341
3691.184	3257
3692.845	3251
3694.507	3316
3696.167	3338
3697.827	3305
3699.487	3267
3701.148	3260
3702.808	3322
3704.466	3301
3706.125	3274
3707.783	3251
3709.442	3235
3711.099	3192
3712.757	3312
3714.412	3238
3716.068	3275
3717.725	3186
3719.381	3250
3721.036	3302
3722.689	3208
3724.344	3214
3725.998	3202
3727.652	3253
3729.305	3262
3730.958	3329
3732.61	3236
3734.262	3262
3735.915	3228
3737.565	3227
3739.217	3164
3740.866	3268
3742.516	3204
3744.165	3239
3745.816	3235
3747.464	3183
3749.113	3223
3750.761	3165
3752.409	3236
3754.057	3283
3755.703	3232
3757.35	3129
3758.996	3223
3760.641	3180
3762.289	3236
3763.933	3150
3765.577	3227
3767.222	3237
3768.865	3142
3770.508	3265
3772.152	3179
3773.796	3170
3775.438	3198
3777.079	3133
3778.721	3251
3780.363	3126
3782.003	3142
3783.643	3123
3785.283	3210
3786.923	3230
3788.563	3181
3790.203	3116
3791.841	3095
3793.479	3183
3795.115	3078
3796.753	3191
3798.391	3152
3800.027	3159
3801.664	3149
3803.299	3145
3804.935	3163
3806.571	3129
3808.206	3063
3809.839	3082
3811.473	3178
3813.107	3210
3814.74	3094
3816.375	3141
3818.006	3155
3819.638	3166
3821.27	3136
3822.9	3149
3824.532	3079
3826.163	3160
3827.792	3088
3829.423	3080
3831.051	3116
3832.682	3112
3834.311	3104
3835.938	2999
3837.566	3117
3839.193	3026
3840.821	3099
3842.448	3130
3844.075	3059
3845.7	3070
3847.325	3092
3848.951	3141
3850.576	3027
3852.201	3039
3853.825	3053
3855.448	3044
3857.072	3087
3858.694	3042
3860.318	3020
3861.939	3047
3863.562	3130
3865.183	2973
3866.804	3046
3868.426	3068
3870.045	3055
3871.666	3012
3873.285	3046
3874.904	2979
3876.524	2999
3878.142	2938
3879.76	3072
3881.378	3065
3882.995	3003
3884.612	3045
3886.229	3033
3887.845	3028
3889.461	2970
3891.076	2970
3892.691	3023
3894.307	2950
3895.922	3057
3897.536	3006
3899.149	3044
3900.761	3012
3902.374	3019
3903.988	2994
3905.6	3025
3907.212	2948
3908.822	2964
3910.433	3003
3912.045	3031
3913.655	3054
3915.265	2978
3916.875	3067
3918.483	3002
3920.093	2923
3921.702	3031
3923.309	2969
3924.917	2963
3926.523	2982
3928.13	2980
3929.739	3014
3931.344	3009
3932.95	2957
3934.555	2982
3936.159	3006
3937.766	2975
3939.369	2951
3940.974	3018
3942.577	2927
3944.181	2952
3945.783	2978
3947.386	2947
3948.989	2971
3950.59	2954
3952.191	2899
3953.791	2995
3955.394	2962
3956.994	2889
3958.593	2959
3960.192	2979
3961.791	2954
3963.392	2942
3964.99	2859
3966.588	2955
3968.185	2938
3969.782	2892
3971.379	2880
3972.976	2980
3974.572	2918
3976.168	2934
3977.763	2945
3979.358	2887
3980.954	2919
3982.548	2836
3984.142	2894
3985.736	2971
3987.329	2840
3988.922	2881
3990.516	2889
3992.108	2894
3993.698	2810
3995.29	2844
3996.881	2912
3998.473	2889
4000.064	2910
4001.653	2851
4003.242	2806
4004.832	2883
4006.422	2825
4008.01	2864
4009.598	2913
4011.186	2818
4012.773	2832
4014.36	2916
4015.947	2749
4017.534	2800
4019.119	2842
4020.705	2816
4022.291	2844
4023.876	2806
4025.461	2803
4027.044	2772
4028.627	2823
4030.211	2741
4031.795	2779
4033.378	2796
4034.96	2854
4036.542	2865
4038.124	2832
4039.704	2756
4041.286	2768
4042.867	2809
4044.447	2751
4046.026	2761
4047.606	2793
4049.187	2762
4050.765	2801
4052.343	2771
4053.92	2789
4055.498	2723
4057.076	2782
4058.654	2791
4060.23	2874
4061.806	2753
4063.381	2743
4064.957	2726
4066.533	2734
4068.107	2787
4069.682	2775
4071.256	2761
4072.829	2740
4074.404	2797
4075.977	2672
4077.549	2730
4079.121	2769
4080.693	2742
4082.265	2750
4083.836	2802
4085.407	2797
4086.977	2715
4088.547	2735
4090.117	2745
4091.687	2697
4093.256	2739
4094.825	2649
4096.392	2757
4097.96	2692
4099.528	2764
4101.097	2699
4102.663	2843
4104.229	2747
4105.795	2739
4107.361	2704
4108.928	2689
4110.493	2618
4112.058	2709
4113.621	2716
4115.186	2719
4116.75	2685
4118.313	2670
4119.876	2641
4121.438	2725
4123	2707
4124.562	2691
4126.125	2591
4127.686	2678
4129.246	2687
4130.807	2649
4132.367	2675
4133.927	2665
4135.486	2720
4137.046	2643
4138.604	2629
4140.162	2583
4141.72	2634
4143.279	2597
4144.836	2630
4146.393	2624
4147.949	2671
4149.505	2636
4151.062	2656
4152.617	2653
4154.172	2623
4155.727	2621
4157.281	2615
4158.836	2603
4160.39	2638
4161.943	2565
4163.496	2637
4165.048	2657
4166.601	2643
4168.154	2577
4169.706	2589
4171.257	2582
4172.808	2579
4174.358	2612
4175.909	2584
4177.458	2558
4179.008	2567
4180.558	2627
4182.106	2549
4183.655	2572
4185.204	2525
4186.751	2591
4188.298	2603
4189.845	2590
4191.392	2552
4192.939	2570
4194.485	2631
4196.031	2566
4197.576	2562
4199.121	2522
4200.666	2605
4202.211	2556
4203.754	2495
4205.298	2531
4206.84	2589
4208.384	2505
4209.927	2566
4211.47	2573
4213.011	2561
4214.552	2582
4216.094	2549
4217.635	2547
4219.175	2459
4220.716	2582
4222.255	2569
4223.793	2487
4225.335	2496
4226.873	2580
4228.411	2464
4229.948	2496
4231.486	2523
4233.024	2481
4234.562	2505
4236.098	2488
4237.634	2536
4239.169	2560
4240.705	2481
4242.241	2558
4243.776	2526
4245.31	2528
4246.844	2495
4248.378	2493
4249.911	2456
4251.445	2531
4252.978	2475
4254.51	2472
4256.042	2539
4257.574	2487
4259.107	2543
4260.638	2493
4262.169	2450
4263.699	2491
4265.228	2474
4266.759	2458
4268.289	2539
4269.818	2476
4271.345	2504
4272.874	2447
4274.402	2449
4275.931	2529
4277.458	2447
4278.985	2473
4280.512	2450
4282.037	2514
4283.564	2475
4285.089	2398
4286.615	2494
4288.139	2467
4289.664	2439
4291.187	2467
4292.712	2424
4294.235	2458
4295.759	2386
4297.281	2444
4298.804	2415
4300.327	2398
4301.849	2398
4303.37	2509
4304.891	2357
4306.412	2491
4307.933	2445
4309.453	2459
4310.973	2422
4312.492	2382
