398.1873	6606
400.7097	6563
403.2336	6568
405.7547	6558
408.2751	6601
410.7948	6612
413.3138	6575
415.83	6726
418.3497	6800
420.8666	6684
423.3829	6809
425.8985	6927
428.4133	6769
430.9275	6828
433.441	6862
435.9538	6834
438.4639	6905
440.9753	6959
443.4881	6949
445.9982	7061
448.5055	6982
451.0142	7021
453.5201	7096
456.0274	6940
458.5361	6969
461.04	7069
463.5453	7063
466.0478	7050
468.5517	6931
471.0549	7025
473.5574	7167
476.0572	7099
478.5584	6909
481.0568	7158
483.5545	7031
486.0557	7142
488.5521	7119
491.0478	7136
493.5449	7143
496.0392	7138
498.5349	7223
501.0299	7253
503.5222	7380
506.0139	7315
508.5048	7347
510.9991	7162
513.4887	7396
515.9777	7301
518.4659	7392
520.9534	7422
523.4403	7271
525.9306	7310
528.4161	7249
530.9009	7366
533.3851	7316
535.8687	7308
538.3535	7410
540.8356	7412
543.3171	7403
545.7979	7255
548.278	7412
550.7595	7305
553.2383	7340
555.7144	7317
558.1918	7333
560.6685	7405
563.1446	7348
565.6221	7532
568.0968	7468
570.5688	7569
573.0422	7583
575.515	7583
577.989	7588
580.4584	7659
582.9291	7498
585.3991	7611
587.8685	7702
590.3352	7669
592.8052	7669
595.2706	7462
597.7372	7719
600.2033	7587
602.6666	7500
605.1334	7557
607.5953	7634
610.0587	7595
612.5193	7497
614.9814	7713
617.4427	7656
619.9034	7665
622.3615	7503
624.8208	7541
627.2775	7542
629.7335	7523
632.1929	7708
634.6476	7570
637.1016	7645
639.5569	7683
642.0096	7537
644.4637	7671
646.9151	7758
649.3678	7683
651.8179	7801
654.2672	7623
656.7159	7690
659.166	7818
661.6154	7728
664.0622	7676
666.5082	7742
668.9537	7890
671.4005	7659
673.8445	7834
676.288	7926
678.7308	7869
681.1729	7892
683.6163	7871
686.0572	7831
688.4973	7915
690.9368	7943
693.3757	7972
695.8138	7866
698.2534	7823
700.6902	7993
703.1245	7917
705.56	7889
707.9949	8057
710.4311	8075
712.8647	8021
715.2957	7889
717.7279	8092
720.1595	8026
722.5905	8046
725.0208	7936
727.4505	8082
729.8795	8033
732.3058	8154
734.7336	8242
737.1626	8087
739.587	8250
742.0128	8206
744.4359	8199
746.8604	8277
749.2841	8367
751.7073	8298
754.1278	8393
756.5496	8361
758.9688	8449
761.3893	8337
763.8093	8322
766.2285	8472
768.6451	8428
771.0611	8554
773.4784	8401
775.895	8437
778.3091	8519
780.7244	8493
783.1371	8411
785.5493	8390
787.9626	8446
790.3754	8646
792.7856	8486
795.1951	8380
797.6039	8441
800.0121	8343
802.4236	8526
804.8306	8586
807.2369	8606
809.6425	8527
812.0475	8623
814.4538	8414
816.8575	8500
819.2606	8654
821.663	8528
824.0648	8644
826.4659	8638
828.8683	8615
831.2682	8529
833.6674	8552
836.066	8568
838.4639	8662
840.8632	8605
843.2579	8644
845.6539	8607
848.0493	8671
850.444	8625
852.84	8671
855.2315	8724
857.6243	8824
860.0165	8636
862.4081	8644
864.797	8681
867.1892	8563
869.5789	8609
871.9659	8595
874.3542	8706
876.74	8685
879.129	8665
881.5155	8646
883.8994	8585
886.2845	8742
888.6671	8574
891.051	8643
893.4343	8740
895.8169	8668
898.197	8704
900.5783	8627
902.9571	8616
905.3372	8695
907.7167	8772
910.0936	8736
912.4698	8767
914.8474	8794
917.2244	8765
919.5987	8945
921.9744	8782
924.3475	8852
926.72	8949
929.0918	8911
931.4669	8977
933.8375	9056
936.2074	8978
938.5767	9115
940.9454	9192
943.3154	9156
945.6829	9179
948.0497	9265
950.4178	9545
952.7833	9579
955.1483	9878
957.5145	10072
959.8782	10164
962.2412	10144
964.6036	10006
966.9655	9890
969.3266	9709
971.6871	9416
974.0471	9268
976.4064	9097
978.765	9010
981.125	8955
983.4824	9061
985.8373	9074
988.1935	8985
990.549	9015
992.9039	8928
995.2602	8976
997.6119	8970
999.965	9058
1002.317	9058
1004.667	8871
1007.02	8913
1009.371	8950
1011.719	8989
1014.068	8973
1016.415	9066
1018.765	9022
1021.111	9022
1023.458	9156
1025.804	9085
1028.147	9010
1030.49	9155
1032.837	9013
1035.179	9123
1037.522	9065
1039.862	9166
1042.204	8990
1044.546	9198
1046.884	9094
1049.224	9091
1051.562	9135
1053.899	9203
1056.237	9106
1058.575	9099
1060.91	9006
1063.244	9248
1065.58	9196
1067.913	9403
1070.248	9249
1072.579	9303
1074.911	9174
1077.242	9331
1079.572	9321
1081.905	9196
1084.234	9218
1086.562	9236
1088.89	9082
1091.217	9153
1093.544	9192
1095.871	9199
1098.197	9141
1100.521	9203
1102.845	9148
1105.169	9106
1107.491	9269
1109.814	9111
1112.135	9306
1114.456	9211
1116.776	9224
1119.096	9358
1121.415	9157
1123.734	9254
1126.052	9221
1128.369	9299
1130.686	9219
1133.002	9357
1135.318	9161
1137.632	9177
1139.945	9280
1142.258	9340
1144.573	9300
1146.884	9251
1149.196	9192
1151.505	9432
1153.816	9175
1156.124	9195
1158.435	9312
1160.742	9339
1163.051	9295
1165.356	9378
1167.663	9250
1169.97	9270
1172.276	9336
1174.579	9376
1176.881	9394
1179.186	9432
1181.487	9373
1183.79	9282
1186.092	9395
1188.392	9179
1190.691	9241
1192.991	9414
1195.291	9302
1197.588	9389
1199.885	9275
1202.181	9357
1204.479	9438
1206.775	9415
1209.07	9439
1211.363	9334
1213.656	9314
1215.949	9421
1218.241	9504
1220.534	9433
1222.825	9367
1225.115	9489
1227.405	9372
1229.693	9434
1231.984	9537
1234.271	9518
1236.558	9529
1238.845	9477
1241.131	9637
1243.416	9492
1245.703	9642
1247.987	9560
1250.269	9613
1252.552	9472
1254.834	9530
1257.118	9568
1259.399	9696
1261.678	9648
1263.958	9524
1266.237	9559
1268.516	9554
1270.794	9635
1273.072	9573
1275.347	9605
1277.624	9660
1279.899	9547
1282.175	9459
1284.449	9521
1286.722	9608
1288.995	9502
1291.266	9653
1293.54	9632
1295.81	9421
1298.081	9517
1300.35	9505
1302.62	9521
1304.889	9572
1307.156	9504
1309.425	9528
1311.69	9645
1313.957	9505
1316.222	9618
1318.488	9606
1320.751	9672
1323.016	9622
1325.278	9481
1327.54	9595
1329.803	9547
1332.065	9613
1334.325	9577
1336.584	9663
1338.843	9563
1341.101	9568
1343.36	9659
1345.617	9678
1347.876	9594
1350.131	9628
1352.387	9551
1354.643	9558
1356.897	9534
1359.151	9784
1361.403	9592
1363.656	9637
1365.909	9665
1368.16	9656
1370.409	9558
1372.659	9647
1374.909	9709
1377.157	9611
1379.407	9714
1381.655	9640
1383.9	9664
1386.147	9601
1388.393	9676
1390.64	9704
1392.885	9743
1395.127	9892
1397.37	9744
1399.614	9860
1401.854	9775
1404.098	9827
1406.339	9666
1408.578	9705
1410.818	9817
1413.056	9763
1415.297	9836
1417.533	9832
1419.771	9853
1422.006	9783
1424.243	9802
1426.479	9791
1428.715	9887
1430.948	9971
1433.182	9931
1435.414	9786
1437.647	9832
1439.88	9949
1442.11	9945
1444.342	10066
1446.571	9965
1448.799	9944
1451.029	10077
1453.258	10082
1455.485	10024
1457.711	9943
1459.937	9976
1462.164	9873
1464.39	9982
1466.614	9849
1468.838	9922
1471.06	9964
1473.283	9854
1475.506	9956
1477.727	9889
1479.949	9860
1482.169	9838
1484.389	9813
1486.609	9735
1488.828	9891
1491.045	9794
1493.261	9729
1495.477	9807
1497.693	9808
1499.91	9761
1502.125	9572
1504.339	9668
1506.553	9515
1508.766	9753
1510.979	9712
1513.191	9644
1515.402	9624
1517.613	9716
1519.823	9644
1522.033	9817
1524.242	9799
1526.451	9740
1528.657	9673
1530.865	9616
1533.072	9763
1535.278	9656
1537.484	9793
1539.687	9747
1541.892	9744
1544.096	9724
1546.299	9774
1548.502	9796
1550.703	9843
1552.905	9749
1555.104	9703
1557.303	9848
1559.505	9924
1561.703	9927
1563.902	9836
1566.099	9902
1568.295	10084
1570.494	9915
1572.689	9910
1574.883	9931
1577.079	10007
1579.272	9963
1581.467	9879
1583.659	9957
1585.853	10181
1588.044	10010
1590.234	9992
1592.424	10099
1594.615	10014
1596.806	10102
1598.994	10098
1601.182	10008
1603.369	10167
1605.557	10077
1607.744	10054
1609.929	10080
1612.114	9966
1614.298	10100
1616.482	10104
1618.667	10106
1620.85	10063
1623.032	10065
1625.214	10049
1627.395	10115
1629.575	9995
1631.755	10217
1633.935	10001
1636.114	10102
1638.292	10100
1640.471	10281
1642.647	10220
1644.823	10114
1647	10087
1649.175	10139
1651.348	10011
1653.525	10202
1655.698	10326
1657.87	10116
1660.043	10124
1662.213	10119
1664.387	10159
1666.558	10092
1668.727	10170
1670.896	10153
1673.064	10133
1675.233	10078
1677.401	10179
1679.569	10072
1681.735	10104
1683.902	10218
1686.066	10122
1688.233	10219
1690.397	10073
1692.559	10062
1694.723	10079
1696.885	10059
1699.048	10159
1701.21	9985
1703.37	10064
1705.53	10068
1707.689	10107
1709.849	10051
1712.009	10130
1714.166	10082
1716.323	10184
1718.479	10129
1720.634	9925
1722.793	10109
1724.948	10088
1727.102	10088
1729.255	10006
1731.408	10118
1733.562	10161
1735.714	10097
1737.865	10216
1740.016	10101
1742.166	10106
1744.316	10179
1746.467	9978
1748.616	10105
1750.764	10158
1752.911	10159
1755.056	10232
1757.205	10190
1759.35	10112
1761.496	10076
1763.641	10131
1765.785	10115
1767.927	10249
1770.072	10160
1772.214	10239
1774.355	10143
1776.496	10287
1778.637	10308
1780.778	10003
1782.918	10195
1785.057	10202
1787.194	10264
1789.333	10271
1791.472	10337
1793.608	10301
1795.745	10216
1797.879	10194
1800.015	10255
1802.148	10257
1804.284	10164
1806.417	10283
1808.548	10167
1810.682	10160
1812.812	10386
1814.946	10186
1817.075	10289
1819.205	10225
1821.335	10272
1823.463	10401
1825.59	10037
1827.721	10183
1829.847	10107
1831.973	10184
1834.098	10303
1836.223	10170
1838.351	10268
1840.475	10124
1842.598	10033
1844.721	10290
1846.843	10145
1848.966	10132
1851.087	10104
1853.21	10138
1855.33	10238
1857.449	10225
1859.568	10028
1861.688	10149
1863.806	10073
1865.924	10115
1868.039	10184
1870.155	10141
1872.273	10180
1874.388	10104
1876.503	10211
1878.617	10174
1880.73	10223
1882.844	10180
1884.956	10241
1887.068	10140
1889.18	10193
1891.291	10262
1893.4	10127
1895.511	10173
1897.621	10067
1899.73	10279
1901.837	10240
1903.944	10343
1906.053	10270
1908.159	10198
1910.265	10325
1912.369	10319
1914.474	10198
1916.577	10200
1918.683	10264
1920.785	10267
1922.888	10380
1924.989	10370
1927.091	10387
1929.193	10221
1931.294	10335
1933.393	10300
1935.493	10509
1937.59	10473
1939.689	10375
1941.788	10461
1943.884	10462
1945.98	10207
1948.077	10381
1950.171	10321
1952.267	10341
1954.361	10258
1956.455	10353
1958.548	10346
1960.64	10358
1962.733	10426
1964.824	10304
1966.915	10276
1969.005	10296
1971.096	10111
1973.185	10299
1975.275	10280
1977.363	10306
1979.45	10374
1981.537	10155
1983.623	10324
1985.711	10365
1987.796	10387
1989.881	10379
1991.965	10249
1994.047	10255
1996.132	10353
1998.215	10169
2000.297	10301
2002.378	10273
2004.46	10279
2006.54	10255
2008.62	10352
2010.7	10249
2012.779	10304
2014.858	10277
2016.934	10262
2019.013	10274
2021.09	10306
2023.165	10301
2025.241	10290
2027.317	10096
2029.39	10293
2031.466	10108
2033.538	10252
2035.612	10225
2037.683	10273
2039.755	10310
2041.827	10227
2043.898	10188
2045.968	10285
2048.038	10271
2050.106	10353
2052.177	10304
2054.244	10308
2056.313	10299
2058.379	10395
2060.444	10249
2062.511	10294
2064.577	10365
2066.641	10262
2068.705	10166
2070.77	10272
2072.832	10214
2074.896	10399
2076.958	10385
2079.02	10267
2081.081	10225
2083.141	10317
2085.2	10243
2087.261	10242
2089.319	10235
2091.377	10404
2093.435	10313
2095.492	10195
2097.552	10247
2099.607	10256
2101.663	10346
2103.718	10292
2105.771	10361
2107.826	10371
2109.879	10257
2111.932	10300
2113.985	10308
2116.037	10275
2118.088	10184
2120.141	10298
2122.191	10337
2124.239	10277
2126.288	10284
2128.337	10384
2130.387	10231
2132.434	10284
2134.481	10341
2136.528	10268
2138.574	10268
2140.618	10252
2142.665	10479
2144.71	10248
2146.753	10443
2148.797	10364
2150.838	10290
2152.883	10267
2154.923	10156
2156.965	10337
2159.007	10117
2161.046	10345
2163.086	10207
2165.126	10300
2167.163	10100
2169.202	10291
2171.239	10193
2173.277	10271
2175.314	10294
2177.349	10152
2179.385	10210
2181.42	10076
2183.453	10152
2185.49	10124
2187.522	10260
2189.555	10199
2191.586	10249
2193.619	10246
2195.651	10125
2197.682	10044
2199.711	10060
2201.74	10202
2203.769	10226
2205.799	9972
2207.828	10130
2209.855	10108
2211.882	10037
2213.908	10134
2215.934	10105
2217.961	9984
2219.986	10171
2222.01	10043
2224.034	10143
2226.057	9983
2228.08	10097
2230.104	10000
2232.124	10272
2234.145	10031
2236.166	10074
2238.186	10115
2240.207	10001
2242.227	10204
2244.244	9968
2246.262	10124
2248.28	9944
2250.299	10028
2252.314	10027
2254.33	10105
2256.346	9965
2258.36	10093
2260.375	10137
2262.391	10165
2264.403	10105
2266.416	10167
2268.427	10098
2270.44	10154
2272.453	10097
2274.463	9979
2276.474	10027
2278.483	10163
2280.493	10049
2282.501	10236
2284.51	9985
2286.518	10094
2288.524	10055
2290.532	10121
2292.537	10088
2294.544	10133
2296.55	10125
2298.554	10129
2300.557	10028
2302.562	10072
2304.566	9994
2306.568	10105
2308.569	10106
2310.572	10226
2312.573	9948
2314.573	10106
2316.574	10095
2318.573	10097
2320.571	9915
2322.571	10021
2324.569	9909
2326.567	10016
2328.564	10010
2330.56	9816
2332.556	10103
2334.551	9972
2336.546	9898
2338.542	9903
2340.535	9985
2342.529	9983
2344.521	9881
2346.512	9918
2348.505	9987
2350.497	9844
2352.487	10089
2354.478	9702
2356.468	9700
2358.457	9928
2360.446	9844
2362.434	9972
2364.422	10028
2366.408	9934
2368.395	9906
2370.383	9997
2372.369	9880
2374.353	9947
2376.338	9878
2378.321	9857
2380.307	9880
2382.29	9843
2384.272	9862
2386.254	9743
2388.235	9829
2390.218	9887
2392.198	9792
2394.179	9780
2396.157	9864
2398.137	9777
2400.115	9737
2402.095	9783
2404.072	9709
2406.048	9774
2408.026	9823
2410.001	9833
2411.977	9736
2413.953	9684
2415.927	9823
2417.9	9892
2419.875	9756
2421.847	9907
2423.821	9873
2425.792	9686
2427.763	9844
2429.736	9818
2431.706	9729
2433.677	9816
2435.646	9824
2437.615	9788
2439.583	9794
2441.551	9774
2443.519	9775
2445.486	9678
2447.452	9792
2449.418	9730
2451.383	9757
2453.348	9684
2455.314	9684
2457.278	9667
2459.241	9803
2461.205	9781
2463.167	9742
2465.131	9708
2467.091	9822
2469.052	9728
2471.012	9686
2472.972	9706
2474.932	9694
2476.891	9579
2478.85	9700
2480.808	9611
2482.766	9680
2484.722	9657
2486.68	9728
2488.636	9611
2490.591	9723
2492.546	9633
2494.5	9754
2496.456	9610
2498.41	9507
2500.362	9703
2502.315	9543
2504.266	9609
2506.218	9729
2508.169	9646
2510.121	9581
2512.07	9551
2514.019	9507
2515.968	9717
2517.918	9542
2519.866	9663
2521.813	9624
2523.76	9565
2525.707	9615
2527.653	9690
2529.599	9584
2531.543	9495
2533.489	9665
2535.433	9548
2537.376	9636
2539.32	9548
2541.264	9654
2543.205	9715
2545.147	9536
2547.087	9494
2549.029	9561
2550.969	9650
2552.908	9552
2554.847	9578
2556.786	9536
2558.724	9634
2560.663	9694
2562.6	9646
2564.537	9602
2566.473	9618
2568.408	9502
2570.345	9577
2572.28	9697
2574.214	9429
2576.148	9608
2578.081	9450
2580.014	9650
2581.947	9617
2583.879	9622
2585.81	9646
2587.741	9581
2589.67	9506
2591.602	9654
2593.532	9568
2595.461	9575
2597.388	9527
2599.316	9577
2601.244	9645
2603.172	9584
2605.098	9737
2607.023	9631
2608.949	9509
2610.873	9502
2612.8	9770
2614.723	9649
2616.647	9673
2618.569	9616
2620.493	9735
2622.416	9642
2624.338	9619
2626.258	9606
2628.179	9567
2630.099	9722
2632.019	9694
2633.939	9601
2635.857	9575
2637.775	9642
2639.694	9810
2641.61	9619
2643.528	9666
2645.444	9610
2647.361	9611
2649.276	9678
2651.19	9669
2653.105	9685
2655.019	9651
2656.934	9630
2658.846	9572
2660.758	9716
2662.67	9598
2664.583	9633
2666.493	9619
2668.404	9623
2670.313	9626
2672.223	9607
2674.134	9600
2676.042	9610
2677.95	9605
2679.858	9524
2681.765	9561
2683.673	9521
2685.579	9519
2687.483	9572
2689.389	9476
2691.294	9629
2693.198	9473
2695.104	9487
2697.006	9583
2698.909	9518
2700.811	9556
2702.713	9554
2704.615	9634
2706.516	9539
2708.417	9425
2710.316	9381
2712.216	9525
2714.115	9555
2716.014	9434
2717.913	9514
2719.81	9395
2721.707	9475
2723.603	9584
2725.501	9510
2727.396	9367
2729.292	9324
2731.186	9392
2733.081	9604
2734.976	9432
2736.87	9357
2738.762	9509
2740.653	9360
2742.546	9521
2744.437	9407
2746.329	9373
2748.22	9484
2750.11	9367
2751.999	9483
2753.889	9478
2755.778	9508
2757.666	9344
2759.553	9523
2761.44	9463
2763.328	9470
2765.215	9355
2767.101	9306
2768.986	9398
2770.87	9300
2772.754	9386
2774.638	9543
2776.523	9252
2778.405	9333
2780.288	9432
2782.17	9432
2784.051	9297
2785.934	9341
2787.814	9492
2789.694	9443
2791.574	9264
2793.453	9427
2795.332	9437
2797.212	9453
2799.088	9255
2800.966	9247
2802.843	9318
2804.719	9205
2806.597	9442
2808.471	9254
2810.346	9356
2812.221	9271
2814.094	9301
2815.969	9409
2817.843	9299
2819.714	9352
2821.587	9302
2823.459	9304
2825.329	9178
2827.202	9317
2829.072	9258
2830.942	9123
2832.811	9318
2834.68	9219
2836.549	9392
2838.418	9371
2840.284	9272
2842.152	9319
2844.018	9369
2845.885	9362
2847.751	9346
2849.616	9325
2851.482	9379
2853.345	9435
2855.208	9408
2857.074	9415
2858.937	9373
2860.799	9352
2862.66	9618
2864.522	9401
2866.385	9382
2868.245	9370
2870.104	9522
2871.964	9473
2873.824	9528
2875.683	9529
2877.542	9635
2879.4	9466
2881.257	9457
2883.114	9722
2884.97	9703
2886.827	9697
2888.683	9785
2890.537	9579
2892.392	9677
2894.246	9601
2896.1	9711
2897.954	9625
2899.807	9600
2901.66	9671
2903.51	9644
2905.362	9646
2907.214	9530
2909.065	9594
2910.915	9757
2912.765	9719
2914.613	9634
2916.463	9616
2918.311	9745
2920.158	9669
2922.006	9870
2923.853	9800
2925.698	9822
2927.546	9829
2929.392	10076
2931.236	9843
2933.081	10062
2934.924	10215
2936.77	10183
2938.613	9992
2940.455	10036
2942.298	10185
2944.139	10105
2945.982	10216
2947.823	10307
2949.662	10063
2951.503	10233
2953.342	9885
2955.182	9972
2957.021	9979
2958.858	10058
2960.697	10000
2962.534	10026
2964.37	9917
2966.207	9783
2968.044	9715
2969.879	9778
2971.714	9635
2973.548	9619
2975.383	9505
2977.218	9585
2979.051	9576
2980.883	9417
2982.715	9569
2984.547	9526
2986.379	9460
2988.21	9449
2990.04	9277
2991.87	9351
2993.7	9315
2995.53	9330
2997.359	9245
2999.187	9189
3001.015	9300
3002.842	9167
3004.669	9081
3006.497	9098
3008.323	8926
3010.148	9168
3011.974	8943
3013.797	8972
3015.623	8984
3017.447	8886
3019.27	8973
3021.094	9131
3022.915	8949
3024.737	9027
3026.56	8822
3028.38	8974
3030.201	8819
3032.022	8885
3033.84	8755
3035.662	8804
3037.481	8757
3039.298	8849
3041.117	8761
3042.933	8777
3044.752	8967
3046.568	8833
3048.385	8689
3050.2	8810
3052.016	8838
3053.83	8713
3055.646	8780
3057.46	8727
3059.272	8769
3061.086	8756
3062.898	8845
3064.711	8803
3066.524	8806
3068.335	8792
3070.145	8816
3071.956	8659
3073.766	8746
3075.576	8802
3077.385	8792
3079.193	8598
3081.002	8708
3082.81	8742
3084.618	8777
3086.425	8634
3088.231	8792
3090.036	8719
3091.842	8725
3093.648	8629
3095.452	8598
3097.257	8675
3099.06	8506
3100.863	8525
3102.666	8625
3104.47	8694
3106.272	8372
3108.073	8534
3109.875	8591
3111.676	8744
3113.477	8581
3115.277	8425
3117.077	8473
3118.874	8514
3120.673	8438
3122.473	8438
3124.271	8540
3126.066	8384
3127.863	8505
3129.66	8582
3131.456	8322
3133.252	8402
3135.047	8383
3136.842	8495
3138.635	8373
3140.429	8303
3142.223	8367
3144.016	8455
3145.808	8421
3147.6	8332
3149.392	8319
3151.183	8427
3152.975	8341
3154.765	8294
3156.553	8257
3158.344	8325
3160.132	8247
3161.922	8343
3163.71	8334
3165.497	8289
3167.285	8279
3169.071	8235
3170.858	8214
3172.645	8193
3174.429	8329
3176.214	8271
3177.998	8321
3179.783	8319
3181.568	8295
3183.351	8212
3185.133	8159
3186.915	8283
3188.698	8230
3190.481	8279
3192.261	8107
3194.042	8203
3195.822	8173
3197.601	8266
3199.381	8236
3201.161	8291
3202.939	8167
3204.717	8294
3206.495	8164
3208.272	8268
3210.05	8099
3211.826	8031
3213.602	8214
3215.376	8144
3217.151	8138
3218.927	8135
3220.702	8162
3222.476	8025
3224.249	8212
3226.021	8046
3227.793	8079
3229.567	8191
3231.339	8158
3233.109	8053
3234.88	8166
3236.651	7985
3238.421	8113
3240.191	8135
3241.96	8069
3243.728	8200
3245.497	8011
3247.263	8098
3249.033	8067
3250.799	8259
3252.566	8106
3254.331	7952
3256.097	8055
3257.863	8171
3259.628	8105
3261.392	8215
3263.156	8090
3264.919	7964
3266.683	8036
3268.447	8177
3270.208	8034
3271.969	8051
3273.731	8132
3275.492	8112
3277.253	7966
3279.013	8075
3280.773	8015
3282.532	8117
3284.291	8196
3286.05	8216
3287.808	8057
3289.566	8106
3291.323	8101
3293.079	8059
3294.835	8040
3296.593	8018
3298.348	8120
3300.102	8030
3301.857	8028
3303.611	8127
3305.366	8100
3307.119	8072
3308.872	7996
3310.624	8066
3312.376	8108
3314.129	8077
3315.881	8146
3317.631	8072
3319.38	8056
3321.13	8097
3322.88	7980
3324.631	7896
3326.379	7990
3328.126	8021
3329.875	8026
3331.622	8063
3333.371	7991
3335.116	7982
3336.863	7993
3338.609	7906
3340.353	8019
3342.1	8043
3343.845	7911
3345.588	7824
3347.332	7912
3349.074	7951
3350.817	8081
3352.56	7759
3354.303	8060
3356.043	7976
3357.785	7893
3359.525	7943
3361.268	7964
3363.007	8010
3364.745	7844
3366.485	7830
3368.223	7974
3369.962	7730
3371.701	7931
3373.438	7893
3375.174	7846
3376.911	7950
3378.647	7973
3380.384	7767
3382.118	7820
3383.854	7754
3385.588	7811
3387.322	7793
3389.057	7858
3390.79	7815
3392.522	7734
3394.255	7782
3395.987	7816
3397.719	7753
3399.451	7770
3401.181	7852
3402.911	7788
3404.641	7702
3406.371	7712
3408.101	7757
3409.83	7851
3411.558	7723
3413.285	7672
3415.011	7764
3416.739	7831
3418.467	7682
3420.193	7600
3421.919	7694
3423.644	7695
3425.368	7698
3427.094	7826
3428.818	7610
3430.542	7754
3432.264	7714
3433.987	7723
3435.712	7752
3437.434	7790
3439.155	7684
3440.876	7738
3442.596	7624
3444.317	7712
3446.039	7612
3447.757	7535
3449.477	7747
3451.195	7599
3452.914	7641
3454.632	7654
3456.35	7476
3458.067	7494
3459.784	7557
3461.5	7656
3463.216	7582
3464.932	7558
3466.647	7504
3468.362	7522
3470.076	7484
3471.789	7570
3473.505	7533
3475.217	7414
3476.929	7629
3478.641	7430
3480.354	7423
3482.066	7366
3483.777	7477
3485.487	7594
3487.197	7466
3488.908	7341
3490.617	7426
3492.327	7447
3494.035	7376
3495.743	7415
3497.451	7436
3499.158	7309
3500.866	7495
3502.572	7393
3504.278	7334
3505.984	7396
3507.689	7236
3509.396	7291
3511.1	7337
3512.804	7264
3514.508	7259
3516.211	7304
3517.913	7425
3519.616	7304
3521.319	7320
3523.021	7343
3524.722	7219
3526.422	7272
3528.124	7336
3529.824	7340
3531.524	7413
3533.222	7293
3534.921	7301
3536.62	7276
3538.318	7227
3540.016	7191
3541.714	7206
3543.41	7196
3545.107	7221
3546.803	7205
3548.5	7256
3550.194	7163
3551.889	7245
3553.583	7140
3555.279	7113
3556.972	7239
3558.666	7103
3560.358	7246
3562.051	7330
3563.742	7210
3565.435	7176
3567.126	7109
3568.817	7167
3570.507	7102
3572.197	7050
3573.888	7148
3575.577	7100
3577.265	7187
3578.954	7094
3580.642	7137
3582.329	7178
3584.017	7050
3585.704	7250
3587.391	7125
3589.077	7043
3590.762	7170
3592.449	7045
3594.133	7156
3595.817	7058
3597.501	7069
3599.185	6972
3600.869	6952
3602.552	7011
3604.234	6963
3605.916	7026
3607.598	6936
3609.279	6809
3610.961	7047
3612.642	6996
3614.321	6996
3616	6813
3617.68	6945
3619.36	6882
3621.039	6753
3622.716	6846
3624.394	6799
3626.071	6873
3627.748	6798
3629.425	6948
3631.102	6934
3632.778	6840
3634.452	6880
3636.127	6842
3637.803	6836
3639.477	6903
3641.151	6829
3642.823	6869
3644.497	6801
3646.171	6701
3647.842	6821
3649.515	6789
3651.185	6632
3652.857	6783
3654.527	6768
3656.198	6745
3657.868	6659
3659.537	6787
3661.207	6806
3662.875	6792
3664.544	6783
3666.212	6727
3667.879	6726
3669.546	6773
3671.212	6752
3672.88	6753
3674.546	6718
3676.211	6623
3677.875	6740
3679.541	6728
3681.205	6742
3682.87	6562
3684.533	6743
3686.196	6671
3687.859	6738
3689.521	6819
3691.184	6779
3692.845	6686
3694.507	6696
3696.167	6718
3697.827	6668
3699.487	6518
3701.148	6624
3702.808	6677
3704.466	6612
3706.125	6650
3707.783	6527
3709.442	6713
3711.099	6668
3712.757	6612
3714.412	6621
3716.068	6662
3717.725	6580
3719.381	6568
3721.036	6579
3722.689	6442
3724.344	6541
3725.998	6563
3727.652	6527
3729.305	6561
3730.958	6585
3732.61	6561
3734.262	6591
3735.915	6534
3737.565	6538
3739.217	6472
3740.866	6551
3742.516	6568
3744.165	6548
3745.816	6483
3747.464	6489
3749.113	6439
3750.761	6536
3752.409	6487
3754.057	6553
3755.703	6371
3757.35	6293
3758.996	6539
3760.641	6416
3762.289	6514
3763.933	6456
3765.577	6429
3767.222	6478
3768.865	6428
3770.508	6374
3772.152	6617
3773.796	6393
3775.438	6446
3777.079	6416
3778.721	6356
3780.363	6431
3782.003	6393
3783.643	6465
3785.283	6347
3786.923	6448
3788.563	6316
3790.203	6482
3791.841	6302
3793.479	6342
3795.115	6310
3796.753	6308
3798.391	6355
3800.027	6370
3801.664	6398
3803.299	6324
3804.935	6398
3806.571	6247
3808.206	6254
3809.839	6290
3811.473	6304
3813.107	6354
3814.74	6276
3816.375	6261
3818.006	6264
3819.638	6263
3821.27	6220
3822.9	6204
3824.532	6177
3826.163	6227
3827.792	6044
3829.423	6178
3831.051	6257
3832.682	6312
3834.311	6279
3835.938	6249
3837.566	6216
3839.193	6261
3840.821	6185
3842.448	6205
3844.075	6143
3845.7	6209
3847.325	6138
3848.951	6096
3850.576	6050
3852.201	6195
3853.825	6177
3855.448	6079
3857.072	6090
3858.694	6104
3860.318	5932
3861.939	6043
3863.562	6089
3865.183	6135
3866.804	6010
3868.426	6029
3870.045	6108
3871.666	6145
3873.285	6073
3874.904	5966
3876.524	6121
3878.142	6031
3879.76	6054
3881.378	6121
3882.995	5967
3884.612	6029
3886.229	5902
3887.845	6099
3889.461	6102
3891.076	6032
3892.691	6045
3894.307	6076
3895.922	6012
3897.536	6076
3899.149	6061
3900.761	6006
3902.374	6003
3903.988	6055
3905.6	5956
3907.212	6058
3908.822	6011
3910.433	5883
3912.045	5978
3913.655	5924
3915.265	6042
3916.875	6088
3918.483	5990
3920.093	5983
3921.702	5982
3923.309	5961
3924.917	5959
3926.523	5908
3928.13	5821
3929.739	5981
3931.344	5986
3932.95	5857
3934.555	5849
3936.159	5913
3937.766	5961
3939.369	5939
3940.974	5913
3942.577	5921
3944.181	5846
3945.783	5914
3947.386	5938
3948.989	5880
3950.59	5926
3952.191	5817
3953.791	5849
3955.394	5951
3956.994	5775
3958.593	5884
3960.192	5824
3961.791	5836
3963.392	5781
3964.99	5768
3966.588	5818
3968.185	5808
3969.782	5834
3971.379	5784
3972.976	5830
3974.572	5706
3976.168	5713
3977.763	5719
3979.358	5708
3980.954	5813
3982.548	5778
3984.142	5849
3985.736	5780
3987.329	5762
3988.922	5744
3990.516	5623
3992.108	5679
3993.698	5761
3995.29	5713
3996.881	5712
3998.473	5724
4000.064	5547
4001.653	5682
4003.242	5558
4004.832	5642
4006.422	5600
4008.01	5679
4009.598	5639
4011.186	5574
4012.773	5625
4014.36	5638
4015.947	5455
4017.534	5691
4019.119	5601
4020.705	5451
4022.291	5592
4023.876	5663
4025.461	5473
4027.044	5555
4028.627	5546
4030.211	5511
4031.795	5504
4033.378	5538
4034.96	5581
4036.542	5466
4038.124	5492
4039.704	5436
4041.286	5464
4042.867	5528
4044.447	5476
4046.026	5519
4047.606	5487
4049.187	5465
4050.765	5492
4052.343	5446
4053.92	5297
4055.498	5448
4057.076	5507
4058.654	5443
4060.23	5389
4061.806	5394
4063.381	5501
4064.957	5430
4066.533	5411
4068.107	5400
4069.682	5475
4071.256	5345
4072.829	5364
4074.404	5390
4075.977	5487
4077.549	5272
4079.121	5438
4080.693	5361
4082.265	5375
4083.836	5353
4085.407	5323
4086.977	5348
4088.547	5356
4090.117	5402
4091.687	5383
4093.256	5313
4094.825	5336
4096.392	5408
4097.96	5262
4099.528	5323
4101.097	5299
4102.663	5306
4104.229	5228
4105.795	5296
4107.361	5232
4108.928	5284
4110.493	5304
4112.058	5177
4113.621	5294
4115.186	5282
4116.75	5247
4118.313	5228
4119.876	5087
4121.438	5304
4123	5331
4124.562	5309
4126.125	5165
4127.686	5269
4129.246	5200
4130.807	5113
4132.367	5186
4133.927	5191
4135.486	5129
4137.046	5164
4138.604	5176
4140.162	5174
4141.72	5175
4143.279	5166
4144.836	5224
4146.393	5179
4147.949	5072
4149.505	5140
4151.062	5095
4152.617	5177
4154.172	5193
4155.727	5087
4157.281	5105
4158.836	4955
4160.39	5095
4161.943	5126
4163.496	5115
4165.048	5031
4166.601	5105
4168.154	5065
4169.706	5080
4171.257	5002
4172.808	5098
4174.358	5002
4175.909	4973
4177.458	5061
4179.008	5037
4180.558	4921
4182.106	5047
4183.655	4988
4185.204	5034
4186.751	4935
4188.298	5003
4189.845	5030
4191.392	4913
4192.939	4986
4194.485	4959
4196.031	4980
4197.576	5038
4199.121	5001
4200.666	4969
4202.211	5007
4203.754	4863
4205.298	4884
4206.84	4964
4208.384	4946
4209.927	4956
4211.47	4911
4213.011	5009
4214.552	4950
4216.094	4991
4217.635	4951
4219.175	4907
4220.716	5008
4222.255	4835
4223.793	4851
4225.335	4970
4226.873	4895
4228.411	5017
4229.948	4840
4231.486	4957
4233.024	4835
4234.562	4847
4236.098	4771
4237.634	4815
4239.169	4809
4240.705	4751
4242.241	4890
4243.776	4798
4245.31	4835
4246.844	4865
4248.378	4772
4249.911	4740
4251.445	4872
4252.978	4818
4254.51	4765
4256.042	4892
4257.574	4838
4259.107	4731
4260.638	4746
4262.169	4661
4263.699	4780
4265.228	4883
4266.759	4788
4268.289	4806
4269.818	4713
4271.345	4802
4272.874	4757
4274.402	4920
4275.931	4776
4277.458	4653
4278.985	4788
4280.512	4784
4282.037	4719
4283.564	4749
4285.089	4727
4286.615	4693
4288.139	4730
4289.664	4669
4291.187	4773
4292.712	4735
4294.235	4713
4295.759	4614
4297.281	4671
4298.804	4587
4300.327	4643
4301.849	4606
4303.37	4609
4304.891	4589
4306.412	4709
4307.933	4628
4309.453	4592
4310.973	4636
4312.492	4575
