398.1873	2954
400.7097	2951
403.2336	2956
405.7547	2999
408.2751	2972
410.7948	2985
413.3138	3050
415.83	3015
418.3497	3004
420.8666	3058
423.3829	3081
425.8985	3106
428.4133	3135
430.9275	3047
433.441	3136
435.9538	3073
438.4639	3108
440.9753	3122
443.4881	3134
445.9982	3094
448.5055	3199
451.0142	3175
453.5201	3143
456.0274	3162
458.5361	3139
461.04	3080
463.5453	3178
466.0478	3160
468.5517	3140
471.0549	3146
473.5574	3186
476.0572	3116
478.5584	3108
481.0568	3123
483.5545	3171
486.0557	3157
488.5521	3221
491.0478	3213
493.5449	3220
496.0392	3165
498.5349	3202
501.0299	3185
503.5222	3149
506.0139	3179
508.5048	3221
510.9991	3218
513.4887	3259
515.9777	3235
518.4659	3339
520.9534	3220
523.4403	3352
525.9306	3268
528.4161	3247
530.9009	3229
533.3851	3240
535.8687	3283
538.3535	3279
540.8356	3254
543.3171	3297
545.7979	3361
548.278	3312
550.7595	3240
553.2383	3314
555.7144	3274
558.1918	3301
560.6685	3336
563.1446	3286
565.6221	3313
568.0968	3325
570.5688	3335
573.0422	3342
575.515	3335
577.989	3430
580.4584	3406
582.9291	3395
585.3991	3363
587.8685	3483
590.3352	3433
592.8052	3387
595.2706	3387
597.7372	3327
600.2033	3337
602.6666	3388
605.1334	3376
607.5953	3354
610.0587	3351
612.5193	3381
614.9814	3318
617.4427	3358
619.9034	3391
622.3615	3373
624.8208	3291
627.2775	3373
629.7335	3362
632.1929	3288
634.6476	3337
637.1016	3394
639.5569	3418
642.0096	3372
644.4637	3388
646.9151	3278
649.3678	3420
651.8179	3399
654.2672	3368
656.7159	3428
659.166	3423
661.6154	3381
664.0622	3395
666.5082	3362
668.9537	3416
671.4005	3405
673.8445	3365
676.288	3458
678.7308	3454
681.1729	3415
683.6163	3437
686.0572	3362
688.4973	3485
690.9368	3407
693.3757	3469
695.8138	3489
698.2534	3455
700.6902	3454
703.1245	3436
705.56	3488
707.9949	3585
710.4311	3490
712.8647	3433
715.2957	3550
717.7279	3568
720.1595	3487
722.5905	3535
725.0208	3660
727.4505	3552
729.8795	3573
732.3058	3605
734.7336	3622
737.1626	3587
739.587	3630
742.0128	3645
744.4359	3563
746.8604	3590
749.2841	3653
751.7073	3687
754.1278	3657
756.5496	3674
758.9688	3630
761.3893	3634
763.8093	3739
766.2285	3702
768.6451	3639
771.0611	3708
773.4784	3674
775.895	3670
778.3091	3660
780.7244	3733
783.1371	3758
785.5493	3734
787.9626	3756
790.3754	3661
792.7856	3707
795.1951	3709
797.6039	3718
800.0121	3681
802.4236	3682
804.8306	3729
807.2369	3702
809.6425	3715
812.0475	3742
814.4538	3750
816.8575	3809
819.2606	3758
821.663	3710
824.0648	3773
826.4659	3709
828.8683	3804
831.2682	3778
833.6674	3754
836.066	3745
838.4639	3756
840.8632	3787
843.2579	3823
845.6539	3826
848.0493	3803
850.444	3956
852.84	3809
855.2315	3783
857.6243	3780
860.0165	3854
862.4081	3796
864.797	3781
867.1892	3803
869.5789	3827
871.9659	3786
874.3542	3826
876.74	3862
879.129	3750
881.5155	3838
883.8994	3854
886.2845	3832
888.6671	3722
891.051	3755
893.4343	3790
895.8169	3780
898.197	3816
900.5783	3802
902.9571	3775
905.3372	3839
907.7167	3820
910.0936	3816
912.4698	3905
914.8474	3925
917.2244	3910
919.5987	3984
921.9744	3947
924.3475	3982
926.72	3962
929.0918	3987
931.4669	4029
933.8375	4040
936.2074	4008
938.5767	4051
940.9454	4075
943.3154	4100
945.6829	4225
948.0497	4169
950.4178	4322
952.7833	4428
955.1483	4654
957.5145	4721
959.8782	4783
962.2412	4731
964.6036	4667
966.9655	4498
969.3266	4328
971.6871	4276
974.0471	4154
976.4064	4193
978.765	4041
981.125	4012
983.4824	3935
985.8373	3928
988.1935	3935
990.549	3975
992.9039	3913
995.2602	3993
997.6119	3956
999.965	3914
1002.317	4026
1004.667	3923
1007.02	3950
1009.371	3959
1011.719	3940
1014.068	3982
1016.415	3970
1018.765	3951
1021.111	4028
1023.458	4050
1025.804	4019
1028.147	3995
1030.49	4009
1032.837	4037
1035.179	4114
1037.522	3956
1039.862	4061
1042.204	4065
1044.546	4007
1046.884	4044
1049.224	4061
1051.562	3995
1053.899	3957
1056.237	3976
1058.575	4037
1060.91	4067
1063.244	4035
1065.58	4010
1067.913	4093
1070.248	4054
1072.579	4077
1074.911	4157
1077.242	4103
1079.572	4121
1081.905	4077
1084.234	4156
1086.562	4099
1088.89	4061
1091.217	4037
1093.544	4028
1095.871	4018
1098.197	4041
1100.521	4091
1102.845	4056
1105.169	4049
1107.491	4033
1109.814	4025
1112.135	4073
1114.456	4125
1116.776	4064
1119.096	4066
1121.415	4079
1123.734	3992
1126.052	4097
1128.369	4085
1130.686	4024
1133.002	4062
1135.318	4065
1137.632	4126
1139.945	4102
1142.258	4144
1144.573	4155
1146.884	4130
1149.196	4057
1151.505	4058
1153.816	4126
1156.124	3955
1158.435	4083
1160.742	4105
1163.051	4146
1165.356	4020
1167.663	4088
1169.97	4068
1172.276	4024
1174.579	4038
1176.881	4147
1179.186	4084
1181.487	4076
1183.79	4067
1186.092	4094
1188.392	4041
1190.691	4104
1192.991	4043
1195.291	4051
1197.588	4168
1199.885	4091
1202.181	4080
1204.479	4116
1206.775	4070
1209.07	4072
1211.363	4200
1213.656	4091
1215.949	4137
1218.241	4169
1220.534	4135
1222.825	4142
1225.115	4118
1227.405	4184
1229.693	4238
1231.984	4122
1234.271	4150
1236.558	4235
1238.845	4213
1241.131	4192
1243.416	4292
1245.703	4272
1247.987	4303
1250.269	4306
1252.552	4311
1254.834	4209
1257.118	4214
1259.399	4207
1261.678	4195
1263.958	4180
1266.237	4132
1268.516	4262
1270.794	4277
1273.072	4230
1275.347	4211
1277.624	4252
1279.899	4268
1282.175	4226
1284.449	4212
1286.722	4162
1288.995	4199
1291.266	4271
1293.54	4296
1295.81	4300
1298.081	4180
1300.35	4258
1302.62	4106
1304.889	4186
1307.156	4237
1309.425	4200
1311.69	4214
1313.957	4260
1316.222	4207
1318.488	4166
1320.751	4218
1323.016	4203
1325.278	4244
1327.54	4159
1329.803	4228
1332.065	4247
1334.325	4237
1336.584	4194
1338.843	4264
1341.101	4177
1343.36	4265
1345.617	4260
1347.876	4268
1350.131	4151
1352.387	4329
1354.643	4252
1356.897	4323
1359.151	4225
1361.403	4207
1363.656	4273
1365.909	4312
1368.16	4252
1370.409	4196
1372.659	4210
1374.909	4230
1377.157	4223
1379.407	4210
1381.655	4372
1383.9	4242
1386.147	4206
1388.393	4243
1390.64	4341
1392.885	4420
1395.127	4293
1397.37	4267
1399.614	4288
1401.854	4364
1404.098	4351
1406.339	4236
1408.578	4365
1410.818	4317
1413.056	4302
1415.297	4410
1417.533	4405
1419.771	4282
1422.006	4373
1424.243	4379
1426.479	4323
1428.715	4356
1430.948	4334
1433.182	4374
1435.414	4336
1437.647	4285
1439.88	4501
1442.11	4374
1444.342	4370
1446.571	4395
1448.799	4358
1451.029	4548
1453.258	4421
1455.485	4434
1457.711	4367
1459.937	4440
1462.164	4406
1464.39	4453
1466.614	4425
1468.838	4411
1471.06	4409
1473.283	4403
1475.506	4427
1477.727	4335
1479.949	4372
1482.169	4306
1484.389	4290
1486.609	4305
1488.828	4407
1491.045	4228
1493.261	4352
1495.477	4318
1497.693	4278
1499.91	4267
1502.125	4207
1504.339	4290
1506.553	4256
1508.766	4370
1510.979	4340
1513.191	4222
1515.402	4259
1517.613	4349
1519.823	4244
1522.033	4322
1524.242	4229
1526.451	4258
1528.657	4332
1530.865	4308
1533.072	4304
1535.278	4238
1537.484	4304
1539.687	4314
1541.892	4375
1544.096	4365
1546.299	4237
1548.502	4406
1550.703	4315
1552.905	4343
1555.104	4362
1557.303	4382
1559.505	4373
1561.703	4344
1563.902	4377
1566.099	4335
1568.295	4366
1570.494	4334
1572.689	4374
1574.883	4386
1577.079	4431
1579.272	4457
1581.467	4397
1583.659	4402
1585.853	4418
1588.044	4404
1590.234	4531
1592.424	4472
1594.615	4371
1596.806	4400
1598.994	4469
1601.182	4433
1603.369	4415
1605.557	4443
1607.744	4541
1609.929	4463
1612.114	4441
1614.298	4432
1616.482	4506
1618.667	4512
1620.85	4464
1623.032	4496
1625.214	4444
1627.395	4534
1629.575	4518
1631.755	4551
1633.935	4495
1636.114	4467
1638.292	4509
1640.471	4477
1642.647	4574
1644.823	4445
1647	4528
1649.175	4537
1651.348	4486
1653.525	4562
1655.698	4488
1657.87	4531
1660.043	4518
1662.213	4489
1664.387	4507
1666.558	4600
1668.727	4455
1670.896	4601
1673.064	4628
1675.233	4653
1677.401	4598
1679.569	4540
1681.735	4572
1683.902	4593
1686.066	4545
1688.233	4551
1690.397	4577
1692.559	4521
1694.723	4488
1696.885	4558
1699.048	4487
1701.21	4525
1703.37	4548
1705.53	4488
1707.689	4515
1709.849	4433
1712.009	4515
1714.166	4479
1716.323	4587
1718.479	4441
1720.634	4464
1722.793	4428
1724.948	4496
1727.102	4544
1729.255	4560
1731.408	4511
1733.562	4503
1735.714	4390
1737.865	4550
1740.016	4442
1742.166	4536
1744.316	4475
1746.467	4549
1748.616	4496
1750.764	4507
1752.911	4459
1755.056	4538
1757.205	4535
1759.35	4533
1761.496	4577
1763.641	4550
1765.785	4515
1767.927	4565
1770.072	4487
1772.214	4457
1774.355	4525
1776.496	4544
1778.637	4629
1780.778	4556
1782.918	4628
1785.057	4462
1787.194	4514
1789.333	4556
1791.472	4644
1793.608	4510
1795.745	4606
1797.879	4521
1800.015	4557
1802.148	4586
1804.284	4511
1806.417	4625
1808.548	4560
1810.682	4579
1812.812	4530
1814.946	4565
1817.075	4609
1819.205	4455
1821.335	4569
1823.463	4576
1825.59	4510
1827.721	4458
1829.847	4583
1831.973	4540
1834.098	4656
1836.223	4552
1838.351	4563
1840.475	4523
1842.598	4542
1844.721	4637
1846.843	4593
1848.966	4673
1851.087	4526
1853.21	4569
1855.33	4499
1857.449	4591
1859.568	4492
1861.688	4477
1863.806	4579
1865.924	4578
1868.039	4540
1870.155	4485
1872.273	4517
1874.388	4525
1876.503	4480
1878.617	4562
1880.73	4509
1882.844	4541
1884.956	4654
1887.068	4563
1889.18	4530
1891.291	4566
1893.4	4474
1895.511	4673
1897.621	4462
1899.73	4682
1901.837	4497
1903.944	4629
1906.053	4656
1908.159	4556
1910.265	4574
1912.369	4647
1914.474	4633
1916.577	4513
1918.683	4646
1920.785	4624
1922.888	4654
1924.989	4650
1927.091	4565
1929.193	4699
1931.294	4677
1933.393	4648
1935.493	4635
1937.59	4625
1939.689	4664
1941.788	4698
1943.884	4769
1945.98	4725
1948.077	4630
1950.171	4623
1952.267	4629
1954.361	4696
1956.455	4620
1958.548	4583
1960.64	4611
1962.733	4696
1964.824	4592
1966.915	4619
1969.005	4671
1971.096	4594
1973.185	4695
1975.275	4647
1977.363	4578
1979.45	4628
1981.537	4665
1983.623	4588
1985.711	4707
1987.796	4566
1989.881	4482
1991.965	4693
1994.047	4673
1996.132	4595
1998.215	4622
2000.297	4616
2002.378	4620
2004.46	4602
2006.54	4579
2008.62	4639
2010.7	4573
2012.779	4543
2014.858	4633
2016.934	4600
2019.013	4554
2021.09	4539
2023.165	4673
2025.241	4628
2027.317	4631
2029.39	4600
2031.466	4610
2033.538	4685
2035.612	4653
2037.683	4656
2039.755	4684
2041.827	4697
2043.898	4680
2045.968	4625
2048.038	4596
2050.106	4680
2052.177	4693
2054.244	4630
2056.313	4696
2058.379	4609
2060.444	4627
2062.511	4703
2064.577	4642
2066.641	4642
2068.705	4646
2070.77	4631
2072.832	4668
2074.896	4598
2076.958	4593
2079.02	4573
2081.081	4748
2083.141	4646
2085.2	4487
2087.261	4672
2089.319	4688
2091.377	4726
2093.435	4729
2095.492	4634
2097.552	4669
2099.607	4614
2101.663	4604
2103.718	4688
2105.771	4667
2107.826	4689
2109.879	4726
2111.932	4736
2113.985	4713
2116.037	4759
2118.088	4667
2120.141	4673
2122.191	4732
2124.239	4714
2126.288	4608
2128.337	4696
2130.387	4677
2132.434	4706
2134.481	4748
2136.528	4755
2138.574	4695
2140.618	4578
2142.665	4729
2144.71	4658
2146.753	4662
2148.797	4688
2150.838	4704
2152.883	4659
2154.923	4651
2156.965	4572
2159.007	4667
2161.046	4650
2163.086	4691
2165.126	4608
2167.163	4636
2169.202	4702
2171.239	4639
2173.277	4612
2175.314	4565
2177.349	4597
2179.385	4615
2181.42	4564
2183.453	4619
2185.49	4651
2187.522	4637
2189.555	4556
2191.586	4684
2193.619	4645
2195.651	4630
2197.682	4605
2199.711	4599
2201.74	4548
2203.769	4513
2205.799	4512
2207.828	4623
2209.855	4631
2211.882	4568
2213.908	4606
2215.934	4711
2217.961	4541
2219.986	4598
2222.01	4578
2224.034	4594
2226.057	4645
2228.08	4620
2230.104	4703
2232.124	4505
2234.145	4644
2236.166	4525
2238.186	4574
2240.207	4643
2242.227	4655
2244.244	4517
2246.262	4581
2248.28	4583
2250.299	4639
2252.314	4617
2254.33	4569
2256.346	4589
2258.36	4607
2260.375	4579
2262.391	4653
2264.403	4644
2266.416	4634
2268.427	4559
2270.44	4488
2272.453	4630
2274.463	4553
2276.474	4655
2278.483	4674
2280.493	4553
2282.501	4582
2284.51	4634
2286.518	4634
2288.524	4556
2290.532	4710
2292.537	4562
2294.544	4660
2296.55	4758
2298.554	4508
2300.557	4628
2302.562	4608
2304.566	4634
2306.568	4583
2308.569	4567
2310.572	4584
2312.573	4629
2314.573	4595
2316.574	4632
2318.573	4610
2320.571	4601
2322.571	4596
2324.569	4467
2326.567	4637
2328.564	4540
2330.56	4521
2332.556	4564
2334.551	4606
2336.546	4576
2338.542	4535
2340.535	4518
2342.529	4540
2344.521	4616
2346.512	4511
2348.505	4472
2350.497	4593
2352.487	4650
2354.478	4622
2356.468	4525
2358.457	4540
2360.446	4486
2362.434	4486
2364.422	4536
2366.408	4568
2368.395	4560
2370.383	4438
2372.369	4528
2374.353	4653
2376.338	4589
2378.321	4591
2380.307	4534
2382.29	4423
2384.272	4551
2386.254	4512
2388.235	4467
2390.218	4634
2392.198	4484
2394.179	4536
2396.157	4524
2398.137	4493
2400.115	4479
2402.095	4485
2404.072	4532
2406.048	4516
2408.026	4383
2410.001	4441
2411.977	4499
2413.953	4556
2415.927	4502
2417.9	4534
2419.875	4538
2421.847	4497
2423.821	4458
2425.792	4406
2427.763	4575
2429.736	4537
2431.706	4523
2433.677	4407
2435.646	4489
2437.615	4546
2439.583	4505
2441.551	4507
2443.519	4453
2445.486	4501
2447.452	4492
2449.418	4431
2451.383	4555
2453.348	4414
2455.314	4540
2457.278	4505
2459.241	4480
2461.205	4538
2463.167	4406
2465.131	4483
2467.091	4406
2469.052	4499
2471.012	4433
2472.972	4451
2474.932	4489
2476.891	4489
2478.85	4505
2480.808	4458
2482.766	4470
2484.722	4460
2486.68	4504
2488.636	4407
2490.591	4467
2492.546	4455
2494.5	4403
2496.456	4417
2498.41	4415
2500.362	4417
2502.315	4338
2504.266	4454
2506.218	4470
2508.169	4456
2510.121	4492
2512.07	4460
2514.019	4417
2515.968	4422
2517.918	4392
2519.866	4397
2521.813	4479
2523.76	4424
2525.707	4416
2527.653	4569
2529.599	4428
2531.543	4417
2533.489	4511
2535.433	4441
2537.376	4546
2539.32	4393
2541.264	4509
2543.205	4532
2545.147	4466
2547.087	4459
2549.029	4432
2550.969	4474
2552.908	4417
2554.847	4367
2556.786	4444
2558.724	4445
2560.663	4433
2562.6	4467
2564.537	4444
2566.473	4494
2568.408	4551
2570.345	4404
2572.28	4454
2574.214	4559
2576.148	4396
2578.081	4424
2580.014	4407
2581.947	4489
2583.879	4500
2585.81	4523
2587.741	4525
2589.67	4476
2591.602	4533
2593.532	4540
2595.461	4469
2597.388	4478
2599.316	4439
2601.244	4479
2603.172	4513
2605.098	4540
2607.023	4366
2608.949	4460
2610.873	4531
2612.8	4479
2614.723	4526
2616.647	4464
2618.569	4453
2620.493	4445
2622.416	4522
2624.338	4501
2626.258	4538
2628.179	4446
2630.099	4483
2632.019	4412
2633.939	4431
2635.857	4490
2637.775	4406
2639.694	4486
2641.61	4551
2643.528	4513
2645.444	4458
2647.361	4542
2649.276	4425
2651.19	4569
2653.105	4556
2655.019	4589
2656.934	4442
2658.846	4467
2660.758	4595
2662.67	4466
2664.583	4470
2666.493	4454
2668.404	4471
2670.313	4558
2672.223	4439
2674.134	4473
2676.042	4459
2677.95	4440
2679.858	4530
2681.765	4551
2683.673	4387
2685.579	4464
2687.483	4363
2689.389	4400
2691.294	4480
2693.198	4491
2695.104	4438
2697.006	4474
2698.909	4515
2700.811	4490
2702.713	4467
2704.615	4423
2706.516	4381
2708.417	4406
2710.316	4518
2712.216	4324
2714.115	4457
2716.014	4492
2717.913	4473
2719.81	4417
2721.707	4405
2723.603	4465
2725.501	4379
2727.396	4433
2729.292	4443
2731.186	4287
2733.081	4415
2734.976	4401
2736.87	4462
2738.762	4500
2740.653	4319
2742.546	4431
2744.437	4375
2746.329	4433
2748.22	4378
2750.11	4495
2751.999	4361
2753.889	4398
2755.778	4380
2757.666	4379
2759.553	4402
2761.44	4448
2763.328	4468
2765.215	4449
2767.101	4410
2768.986	4486
2770.87	4338
2772.754	4363
2774.638	4425
2776.523	4373
2778.405	4434
2780.288	4450
2782.17	4403
2784.051	4332
2785.934	4379
2787.814	4400
2789.694	4323
2791.574	4403
2793.453	4405
2795.332	4379
2797.212	4402
2799.088	4318
2800.966	4379
2802.843	4415
2804.719	4311
2806.597	4450
2808.471	4339
2810.346	4304
2812.221	4406
2814.094	4385
2815.969	4407
2817.843	4415
2819.714	4342
2821.587	4407
2823.459	4373
2825.329	4465
2827.202	4451
2829.072	4419
2830.942	4339
2832.811	4372
2834.68	4448
2836.549	4370
2838.418	4370
2840.284	4330
2842.152	4426
2844.018	4298
2845.885	4375
2847.751	4438
2849.616	4455
2851.482	4441
2853.345	4450
2855.208	4474
2857.074	4393
2858.937	4509
2860.799	4435
2862.66	4410
2864.522	4455
2866.385	4490
2868.245	4415
2870.104	4507
2871.964	4515
2873.824	4557
2875.683	4610
2877.542	4583
2879.4	4620
2881.257	4588
2883.114	4696
2884.97	4634
2886.827	4634
2888.683	4658
2890.537	4618
2892.392	4643
2894.246	4510
2896.1	4536
2897.954	4667
2899.807	4724
2901.66	4540
2903.51	4656
2905.362	4606
2907.214	4579
2909.065	4555
2910.915	4650
2912.765	4644
2914.613	4636
2916.463	4751
2918.311	4700
2920.158	4694
2922.006	4805
2923.853	4815
2925.698	4862
2927.546	4866
2929.392	4914
2931.236	4779
2933.081	4901
2934.924	4942
2936.77	4925
2938.613	4831
2940.455	5070
2942.298	5058
2944.139	5032
2945.982	4987
2947.823	4983
2949.662	4993
2951.503	5043
2953.342	4851
2955.182	4959
2957.021	4982
2958.858	4902
2960.697	4869
2962.534	4837
2964.37	4826
2966.207	4751
2968.044	4710
2969.879	4724
2971.714	4797
2973.548	4648
2975.383	4668
2977.218	4600
2979.051	4676
2980.883	4500
2982.715	4689
2984.547	4600
2986.379	4667
2988.21	4613
2990.04	4636
2991.87	4425
2993.7	4541
2995.53	4575
2997.359	4478
2999.187	4485
3001.015	4505
3002.842	4464
3004.669	4376
3006.497	4392
3008.323	4446
3010.148	4274
3011.974	4379
3013.797	4384
3015.623	4286
3017.447	4316
3019.27	4308
3021.094	4279
3022.915	4291
3024.737	4307
3026.56	4243
3028.38	4275
3030.201	4177
3032.022	4270
3033.84	4288
3035.662	4208
3037.481	4261
3039.298	4235
3041.117	4321
3042.933	4267
3044.752	4202
3046.568	4281
3048.385	4143
3050.2	4230
3052.016	4279
3053.83	4193
3055.646	4245
3057.46	4280
3059.272	4186
3061.086	4202
3062.898	4163
3064.711	4248
3066.524	4206
3068.335	4180
3070.145	4183
3071.956	4269
3073.766	4191
3075.576	4243
3077.385	4120
3079.193	4158
3081.002	4119
3082.81	4135
3084.618	4179
3086.425	4123
3088.231	4159
3090.036	4119
3091.842	4087
3093.648	4056
3095.452	4109
3097.257	4153
3099.06	4080
3100.863	3995
3102.666	4268
3104.47	4003
3106.272	4076
3108.073	4150
3109.875	4067
3111.676	4189
3113.477	4064
3115.277	4077
3117.077	4117
3118.874	4121
3120.673	4062
3122.473	4038
3124.271	4069
3126.066	4093
3127.863	4044
3129.66	4147
3131.456	4038
3133.252	4091
3135.047	4045
3136.842	4112
3138.635	4074
3140.429	4102
3142.223	4000
3144.016	4054
3145.808	4068
3147.6	3950
3149.392	4052
3151.183	3997
3152.975	4080
3154.765	4087
3156.553	3988
3158.344	4128
3160.132	4007
3161.922	4047
3163.71	4046
3165.497	4100
3167.285	3975
3169.071	4050
3170.858	3975
3172.645	4063
3174.429	3971
3176.214	4003
3177.998	3949
3179.783	3942
3181.568	4009
3183.351	4063
3185.133	3939
3186.915	4032
3188.698	3977
3190.481	3963
3192.261	3953
3194.042	3978
3195.822	4044
3197.601	3927
3199.381	3923
3201.161	4022
3202.939	3981
3204.717	3965
3206.495	4019
3208.272	3892
3210.05	4029
3211.826	3989
3213.602	4006
3215.376	3928
3217.151	4001
3218.927	3918
3220.702	3972
3222.476	3918
3224.249	3989
3226.021	3978
3227.793	3907
3229.567	4001
3231.339	3947
3233.109	3974
3234.88	3995
3236.651	4034
3238.421	3914
3240.191	3975
3241.96	3994
3243.728	3960
3245.497	3921
3247.263	3981
3249.033	3972
3250.799	3927
3252.566	3942
3254.331	3947
3256.097	4065
3257.863	3931
3259.628	3989
3261.392	3962
3263.156	4013
3264.919	3947
3266.683	3937
3268.447	3980
3270.208	4024
3271.969	3944
3273.731	4006
3275.492	3920
3277.253	3973
3279.013	4002
3280.773	3979
3282.532	3955
3284.291	3954
3286.05	3942
3287.808	4027
3289.566	4052
3291.323	4056
3293.079	3917
3294.835	3992
3296.593	3937
3298.348	3887
3300.102	3966
3301.857	3975
3303.611	3947
3305.366	4034
3307.119	4014
3308.872	3910
3310.624	3970
3312.376	3975
3314.129	3921
3315.881	3958
3317.631	3888
3319.38	4022
3321.13	3905
3322.88	3975
3324.631	4023
3326.379	3935
3328.126	4042
3329.875	3938
3331.622	3961
3333.371	3976
3335.116	3938
3336.863	3986
3338.609	3867
3340.353	3930
3342.1	3936
3343.845	3930
3345.588	3930
3347.332	3944
3349.074	3916
3350.817	3857
3352.56	3884
3354.303	3886
3356.043	3939
3357.785	3879
3359.525	3933
3361.268	3949
3363.007	3963
3364.745	3868
3366.485	3897
3368.223	3897
3369.962	3990
3371.701	3847
3373.438	3941
3375.174	3871
3376.911	3891
3378.647	3896
3380.384	3866
3382.118	3906
3383.854	3886
3385.588	3924
3387.322	3919
3389.057	3796
3390.79	3867
3392.522	3842
3394.255	3804
3395.987	3883
3397.719	3884
3399.451	3855
3401.181	3828
3402.911	3807
3404.641	3887
3406.371	3833
3408.101	3793
3409.83	3740
3411.558	3731
3413.285	3822
3415.011	3821
3416.739	3799
3418.467	3831
3420.193	3860
3421.919	3828
3423.644	3821
3425.368	3780
3427.094	3811
3428.818	3785
3430.542	3837
3432.264	3835
3433.987	3701
3435.712	3720
3437.434	3802
3439.155	3839
3440.876	3763
3442.596	3800
3444.317	3743
3446.039	3716
3447.757	3827
3449.477	3740
3451.195	3696
3452.914	3830
3454.632	3721
3456.35	3779
3458.067	3786
3459.784	3784
3461.5	3803
3463.216	3702
3464.932	3703
3466.647	3727
3468.362	3710
3470.076	3719
3471.789	3700
3473.505	3719
3475.217	3742
3476.929	3731
3478.641	3627
3480.354	3696
3482.066	3661
3483.777	3736
3485.487	3738
3487.197	3664
3488.908	3613
3490.617	3711
3492.327	3605
3494.035	3667
3495.743	3633
3497.451	3637
3499.158	3722
3500.866	3605
3502.572	3634
3504.278	3647
3505.984	3643
3507.689	3642
3509.396	3671
3511.1	3599
3512.804	3632
3514.508	3647
3516.211	3665
3517.913	3623
3519.616	3607
3521.319	3437
3523.021	3670
3524.722	3639
3526.422	3517
3528.124	3638
3529.824	3556
3531.524	3630
3533.222	3535
3534.921	3596
3536.62	3597
3538.318	3576
3540.016	3554
3541.714	3531
3543.41	3591
3545.107	3512
3546.803	3517
3548.5	3554
3550.194	3601
3551.889	3552
3553.583	3557
3555.279	3485
3556.972	3471
3558.666	3562
3560.358	3518
3562.051	3532
3563.742	3526
3565.435	3528
3567.126	3596
3568.817	3489
3570.507	3531
3572.197	3528
3573.888	3528
3575.577	3534
3577.265	3639
3578.954	3536
3580.642	3532
3582.329	3479
3584.017	3515
3585.704	3533
3587.391	3522
3589.077	3452
3590.762	3494
3592.449	3514
3594.133	3475
3595.817	3442
3597.501	3496
3599.185	3519
3600.869	3469
3602.552	3417
3604.234	3452
3605.916	3552
3607.598	3501
3609.279	3458
3610.961	3370
3612.642	3373
3614.321	3457
3616	3350
3617.68	3477
3619.36	3522
3621.039	3448
3622.716	3341
3624.394	3447
3626.071	3488
3627.748	3398
3629.425	3493
3631.102	3437
3632.778	3420
3634.452	3358
3636.127	3366
3637.803	3366
3639.477	3409
3641.151	3389
3642.823	3352
3644.497	3327
3646.171	3347
3647.842	3396
3649.515	3295
3651.185	3324
3652.857	3323
3654.527	3305
3656.198	3423
3657.868	3390
3659.537	3368
3661.207	3374
3662.875	3419
3664.544	3394
3666.212	3351
3667.879	3376
3669.546	3326
3671.212	3258
3672.88	3312
3674.546	3344
3676.211	3390
3677.875	3360
3679.541	3326
3681.205	3276
3682.87	3367
3684.533	3363
3686.196	3275
3687.859	3326
3689.521	3379
3691.184	3331
3692.845	3315
3694.507	3303
3696.167	3323
3697.827	3301
3699.487	3299
3701.148	3327
3702.808	3223
3704.466	3309
3706.125	3277
3707.783	3358
3709.442	3352
3711.099	3381
3712.757	3340
3714.412	3267
3716.068	3333
3717.725	3244
3719.381	3265
3721.036	3235
3722.689	3253
3724.344	3327
3725.998	3308
3727.652	3176
3729.305	3255
3730.958	3263
3732.61	3271
3734.262	3265
3735.915	3209
3737.565	3207
3739.217	3273
3740.866	3246
3742.516	3270
3744.165	3247
3745.816	3263
3747.464	3273
3749.113	3236
3750.761	3252
3752.409	3258
3754.057	3221
3755.703	3211
3757.35	3239
3758.996	3341
3760.641	3199
3762.289	3283
3763.933	3188
3765.577	3251
3767.222	3208
3768.865	3251
3770.508	3222
3772.152	3188
3773.796	3275
3775.438	3158
3777.079	3143
3778.721	3223
3780.363	3166
3782.003	3177
3783.643	3180
3785.283	3129
3786.923	3241
3788.563	3168
3790.203	3260
3791.841	3139
3793.479	3146
3795.115	3116
3796.753	3168
3798.391	3131
3800.027	3219
3801.664	3195
3803.299	3232
3804.935	3150
3806.571	3142
3808.206	3161
3809.839	3155
3811.473	3192
3813.107	3160
3814.74	3087
3816.375	3086
3818.006	3113
3819.638	3168
3821.27	3097
3822.9	3096
3824.532	3173
3826.163	3072
3827.792	3171
3829.423	3065
3831.051	3128
3832.682	3133
3834.311	3143
3835.938	3058
3837.566	3145
3839.193	3147
3840.821	3075
3842.448	3048
3844.075	3025
3845.7	3144
3847.325	3097
3848.951	3091
3850.576	3151
3852.201	3120
3853.825	3107
3855.448	3036
3857.072	3023
3858.694	2982
3860.318	3058
3861.939	3088
3863.562	3073
3865.183	3108
3866.804	3075
3868.426	3049
3870.045	3138
3871.666	2972
3873.285	2987
3874.904	3116
3876.524	3023
3878.142	3054
3879.76	2992
3881.378	3033
3882.995	3020
3884.612	3060
3886.229	3027
3887.845	2998
3889.461	3067
3891.076	3131
3892.691	3048
3894.307	3014
3895.922	3045
3897.536	2990
3899.149	3010
3900.761	3069
3902.374	3019
3903.988	3056
3905.6	3004
3907.212	3057
3908.822	3034
3910.433	2982
3912.045	3061
3913.655	3040
3915.265	3006
3916.875	3019
3918.483	3036
3920.093	3042
3921.702	3010
3923.309	3069
3924.917	3063
3926.523	2971
3928.13	3010
3929.739	2973
3931.344	2927
3932.95	3018
3934.555	3048
3936.159	2939
3937.766	3016
3939.369	2897
3940.974	2979
3942.577	2930
3944.181	3050
3945.783	2949
3947.386	3020
3948.989	2941
3950.59	2974
3952.191	3007
3953.791	2913
3955.394	2981
3956.994	2964
3958.593	2933
3960.192	2981
3961.791	2968
3963.392	3052
3964.99	2956
3966.588	2940
3968.185	2960
3969.782	2930
3971.379	2985
3972.976	2925
3974.572	2977
3976.168	2925
3977.763	2877
3979.358	2915
3980.954	2916
3982.548	2926
3984.142	2878
3985.736	2959
3987.329	2918
3988.922	2930
3990.516	2937
3992.108	2894
3993.698	2869
3995.29	2870
3996.881	2906
3998.473	2927
4000.064	2908
4001.653	2929
4003.242	2884
4004.832	2902
4006.422	2846
4008.01	2920
4009.598	2836
4011.186	2867
4012.773	2862
4014.36	2836
4015.947	2810
4017.534	2875
4019.119	2754
4020.705	2808
4022.291	2834
4023.876	2765
4025.461	2886
4027.044	2888
4028.627	2852
4030.211	2804
4031.795	2837
4033.378	2748
4034.96	2829
4036.542	2815
4038.124	2841
4039.704	2711
4041.286	2815
4042.867	2812
4044.447	2865
4046.026	2838
4047.606	2796
4049.187	2762
4050.765	2751
4052.343	2801
4053.92	2770
4055.498	2738
4057.076	2799
4058.654	2803
4060.23	2775
4061.806	2757
4063.381	2822
4064.957	2795
4066.533	2717
4068.107	2750
4069.682	2750
4071.256	2796
4072.829	2733
4074.404	2739
4075.977	2791
4077.549	2792
4079.121	2710
4080.693	2719
4082.265	2793
4083.836	2809
4085.407	2724
4086.977	2775
4088.547	2703
4090.117	2711
4091.687	2776
4093.256	2760
4094.825	2715
4096.392	2762
4097.96	2673
4099.528	2761
4101.097	2786
4102.663	2663
4104.229	2764
4105.795	2712
4107.361	2712
4108.928	2803
4110.493	2720
4112.058	2715
4113.621	2721
4115.186	2753
4116.75	2696
4118.313	2635
4119.876	2709
4121.438	2729
4123	2659
4124.562	2661
4126.125	2604
4127.686	2688
4129.246	2726
4130.807	2703
4132.367	2743
4133.927	2686
4135.486	2694
4137.046	2685
4138.604	2694
4140.162	2747
4141.72	2689
4143.279	2641
4144.836	2639
4146.393	2696
4147.949	2678
4149.505	2633
4151.062	2588
4152.617	2712
4154.172	2624
4155.727	2656
4157.281	2664
4158.836	2649
4160.39	2549
4161.943	2560
4163.496	2592
4165.048	2605
4166.601	2669
4168.154	2663
4169.706	2627
4171.257	2596
4172.808	2668
4174.358	2544
4175.909	2655
4177.458	2576
4179.008	2575
4180.558	2640
4182.106	2556
4183.655	2624
4185.204	2567
4186.751	2606
4188.298	2621
4189.845	2575
4191.392	2612
4192.939	2538
4194.485	2604
4196.031	2609
4197.576	2586
4199.121	2513
4200.666	2616
4202.211	2574
4203.754	2562
4205.298	2533
4206.84	2574
4208.384	2568
4209.927	2558
4211.47	2548
4213.011	2590
4214.552	2514
4216.094	2488
4217.635	2604
4219.175	2556
4220.716	2539
4222.255	2583
4223.793	2516
4225.335	2504
4226.873	2553
4228.411	2542
4229.948	2517
4231.486	2516
4233.024	2527
4234.562	2512
4236.098	2540
4237.634	2474
4239.169	2555
4240.705	2570
4242.241	2532
4243.776	2557
4245.31	2527
4246.844	2499
4248.378	2518
4249.911	2585
4251.445	2512
4252.978	2468
4254.51	2479
4256.042	2454
4257.574	2483
4259.107	2545
4260.638	2515
4262.169	2462
4263.699	2483
4265.228	2514
4266.759	2499
4268.289	2439
4269.818	2488
4271.345	2480
4272.874	2446
4274.402	2483
4275.931	2504
4277.458	2463
4278.985	2489
4280.512	2484
4282.037	2473
4283.564	2448
4285.089	2473
4286.615	2427
4288.139	2470
4289.664	2460
4291.187	2408
4292.712	2458
4294.235	2422
4295.759	2435
4297.281	2493
4298.804	2475
4300.327	2468
4301.849	2465
4303.37	2442
4304.891	2450
4306.412	2459
4307.933	2388
4309.453	2435
4310.973	2414
4312.492	2487
