398.1873	9017
400.7097	9105
403.2336	9001
405.7547	9112
408.2751	9150
410.7948	9194
413.3138	9244
415.83	9282
418.3497	9345
420.8666	9271
423.3829	9503
425.8985	9340
428.4133	9578
430.9275	9483
433.441	9494
435.9538	9741
438.4639	9544
440.9753	9727
443.4881	9576
445.9982	9918
448.5055	9764
451.0142	9663
453.5201	9848
456.0274	9789
458.5361	9689
461.04	9694
463.5453	9677
466.0478	9885
468.5517	9847
471.0549	9979
473.5574	9820
476.0572	9899
478.5584	9916
481.0568	10024
483.5545	9999
486.0557	10075
488.5521	9893
491.0478	10019
493.5449	10160
496.0392	10028
498.5349	10211
501.0299	10285
503.5222	10243
506.0139	10073
508.5048	10139
510.9991	10140
513.4887	10217
515.9777	10252
518.4659	10124
520.9534	10194
523.4403	10339
525.9306	10229
528.4161	10166
530.9009	10224
533.3851	10299
535.8687	10175
538.3535	10351
540.8356	10019
543.3171	10313
545.7979	10294
548.278	10367
550.7595	10467
553.2383	10315
555.7144	10357
558.1918	10287
560.6685	10307
563.1446	10347
565.6221	10363
568.0968	10357
570.5688	10438
573.0422	10464
575.515	10472
577.989	10570
580.4584	10742
582.9291	10498
585.3991	10610
587.8685	10586
590.3352	10706
592.8052	10722
595.2706	10667
597.7372	10546
600.2033	10648
602.6666	10780
605.1334	10635
607.5953	10607
610.0587	10789
612.5193	10703
614.9814	10702
617.4427	10656
619.9034	10467
622.3615	10602
624.8208	10695
627.2775	10576
629.7335	10604
632.1929	10706
634.6476	10620
637.1016	10781
639.5569	10740
642.0096	10619
644.4637	10667
646.9151	10581
649.3678	10667
651.8179	10854
654.2672	10890
656.7159	10785
659.166	11010
661.6154	10869
664.0622	10858
666.5082	10920
668.9537	10913
671.4005	10890
673.8445	10876
676.288	11087
678.7308	11013
681.1729	10963
683.6163	10850
686.0572	11040
688.4973	10898
690.9368	11076
693.3757	10991
695.8138	11099
698.2534	11020
700.6902	11110
703.1245	11183
705.56	11172
707.9949	11303
710.4311	11232
712.8647	11288
715.2957	11153
717.7279	11237
720.1595	11285
722.5905	11383
725.0208	11468
727.4505	11406
729.8795	11384
732.3058	11477
734.7336	11596
737.1626	11589
739.587	11462
742.0128	11479
744.4359	11577
746.8604	11586
749.2841	11797
751.7073	11739
754.1278	11694
756.5496	11710
758.9688	11744
761.3893	11926
763.8093	11891
766.2285	11793
768.6451	11851
771.0611	11999
773.4784	11944
775.895	11852
778.3091	11957
780.7244	11783
783.1371	11819
785.5493	11818
787.9626	11744
790.3754	11868
792.7856	11807
795.1951	11955
797.6039	11982
800.0121	11755
802.4236	12044
804.8306	12025
807.2369	11925
809.6425	11881
812.0475	11986
814.4538	12000
816.8575	11980
819.2606	12139
821.663	12016
824.0648	12131
826.4659	12080
828.8683	12008
831.2682	12077
833.6674	12017
836.066	12095
838.4639	11972
840.8632	12197
843.2579	12189
845.6539	12172
848.0493	12160
850.444	12120
852.84	12288
855.2315	12101
857.6243	12325
860.0165	12255
862.4081	12196
864.797	12102
867.1892	12234
869.5789	12258
871.9659	12195
874.3542	12173
876.74	12284
879.129	12146
881.5155	12061
883.8994	12186
886.2845	12174
888.6671	12186
891.051	12211
893.4343	12138
895.8169	12175
898.197	12187
900.5783	12136
902.9571	12261
905.3372	12109
907.7167	12327
910.0936	12328
912.4698	12430
914.8474	12493
917.2244	12448
919.5987	12387
921.9744	12516
924.3475	12584
926.72	12497
929.0918	12602
931.4669	12703
933.8375	12739
936.2074	12545
938.5767	12756
940.9454	12745
943.3154	12713
945.6829	13034
948.0497	13152
950.4178	13375
952.7833	13480
955.1483	13628
957.5145	13971
959.8782	14167
962.2412	14190
964.6036	14233
966.9655	13779
969.3266	13513
971.6871	13070
974.0471	13059
976.4064	12845
978.765	12875
981.125	12620
983.4824	12576
985.8373	12611
988.1935	12468
990.549	12634
992.9039	12553
995.2602	12620
997.6119	12502
999.965	12666
1002.317	12723
1004.667	12848
1007.02	12592
1009.371	12725
1011.719	12496
1014.068	12670
1016.415	12573
1018.765	12734
1021.111	12479
1023.458	12792
1025.804	12737
1028.147	12853
1030.49	12894
1032.837	12786
1035.179	12843
1037.522	12937
1039.862	12833
1042.204	12853
1044.546	12725
1046.884	12888
1049.224	12935
1051.562	12808
1053.899	12925
1056.237	12847
1058.575	12933
1060.91	12867
1063.244	13068
1065.58	13032
1067.913	13212
1070.248	13065
1072.579	13089
1074.911	13015
1077.242	13007
1079.572	12941
1081.905	12955
1084.234	13002
1086.562	13029
1088.89	12994
1091.217	12973
1093.544	13134
1095.871	13073
1098.197	13080
1100.521	12890
1102.845	12987
1105.169	13033
1107.491	13063
1109.814	13032
1112.135	12996
1114.456	13123
1116.776	13141
1119.096	13158
1121.415	13221
1123.734	13202
1126.052	13249
1128.369	13253
1130.686	13053
1133.002	13008
1135.318	13152
1137.632	13263
1139.945	12955
1142.258	13417
1144.573	13108
1146.884	13262
1149.196	13177
1151.505	13243
1153.816	13248
1156.124	13360
1158.435	13086
1160.742	13131
1163.051	13134
1165.356	13161
1167.663	13206
1169.97	13160
1172.276	13309
1174.579	13152
1176.881	13249
1179.186	13254
1181.487	13201
1183.79	13155
1186.092	13123
1188.392	13108
1190.691	13001
1192.991	13240
1195.291	13192
1197.588	13114
1199.885	13415
1202.181	13146
1204.479	13227
1206.775	13171
1209.07	13403
1211.363	13256
1213.656	13462
1215.949	13232
1218.241	13346
1220.534	13362
1222.825	13364
1225.115	13342
1227.405	13314
1229.693	13547
1231.984	13408
1234.271	13650
1236.558	13451
1238.845	13551
1241.131	13683
1243.416	13787
1245.703	13680
1247.987	13520
1250.269	13688
1252.552	13715
1254.834	13615
1257.118	13769
1259.399	13646
1261.678	13670
1263.958	13624
1266.237	13779
1268.516	13615
1270.794	13634
1273.072	13886
1275.347	13758
1277.624	13668
1279.899	13663
1282.175	13683
1284.449	13531
1286.722	13639
1288.995	13521
1291.266	13723
1293.54	13628
1295.81	13569
1298.081	13588
1300.35	13467
1302.62	13500
1304.889	13581
1307.156	13420
1309.425	13655
1311.69	13505
1313.957	13569
1316.222	13689
1318.488	13557
1320.751	13582
1323.016	13639
1325.278	13550
1327.54	13828
1329.803	13660
1332.065	13635
1334.325	13579
1336.584	13817
1338.843	13715
1341.101	13576
1343.36	13789
1345.617	13795
1347.876	13731
1350.131	13691
1352.387	13682
1354.643	13819
1356.897	13662
1359.151	13904
1361.403	13835
1363.656	13592
1365.909	13689
1368.16	13787
1370.409	13799
1372.659	13782
1374.909	13868
1377.157	13672
1379.407	13847
1381.655	13925
1383.9	13935
1386.147	13848
1388.393	13824
1390.64	13867
1392.885	14071
1395.127	14019
1397.37	14038
1399.614	13896
1401.854	13793
1404.098	13898
1406.339	13863
1408.578	13947
1410.818	13877
1413.056	13948
1415.297	14054
1417.533	13882
1419.771	14152
1422.006	14095
1424.243	14096
1426.479	14065
1428.715	14180
1430.948	14172
1433.182	14148
1435.414	14123
1437.647	14176
1439.88	14338
1442.11	14363
1444.342	14272
1446.571	14042
1448.799	14168
1451.029	14196
1453.258	14401
1455.485	14127
1457.711	14163
1459.937	14278
1462.164	14254
1464.39	14355
1466.614	14271
1468.838	14232
1471.06	14115
1473.283	14014
1475.506	14014
1477.727	14175
1479.949	13974
1482.169	14071
1484.389	13958
1486.609	14033
1488.828	14127
1491.045	13966
1493.261	13962
1495.477	14101
1497.693	13961
1499.91	13960
1502.125	13910
1504.339	13844
1506.553	13870
1508.766	13808
1510.979	13953
1513.191	14035
1515.402	14042
1517.613	13958
1519.823	13939
1522.033	14036
1524.242	13901
1526.451	13865
1528.657	14017
1530.865	13914
1533.072	13894
1535.278	14070
1537.484	14186
1539.687	13984
1541.892	14171
1544.096	13972
1546.299	14069
1548.502	14276
1550.703	14070
1552.905	14144
1555.104	14129
1557.303	14257
1559.505	14352
1561.703	14106
1563.902	14222
1566.099	14284
1568.295	14502
1570.494	14105
1572.689	14389
1574.883	14383
1577.079	14414
1579.272	14389
1581.467	14277
1583.659	14467
1585.853	14344
1588.044	14419
1590.234	14612
1592.424	14330
1594.615	14611
1596.806	14618
1598.994	14463
1601.182	14347
1603.369	14435
1605.557	14491
1607.744	14520
1609.929	14449
1612.114	14430
1614.298	14503
1616.482	14548
1618.667	14393
1620.85	14405
1623.032	14494
1625.214	14430
1627.395	14366
1629.575	14525
1631.755	14417
1633.935	14434
1636.114	14470
1638.292	14393
1640.471	14343
1642.647	14603
1644.823	14398
1647	14271
1649.175	14444
1651.348	14491
1653.525	14528
1655.698	14419
1657.87	14738
1660.043	14480
1662.213	14619
1664.387	14426
1666.558	14456
1668.727	14537
1670.896	14539
1673.064	14662
1675.233	14560
1677.401	14478
1679.569	14508
1681.735	14459
1683.902	14561
1686.066	14474
1688.233	14570
1690.397	14539
1692.559	14468
1694.723	14394
1696.885	14271
1699.048	14587
1701.21	14377
1703.37	14379
1705.53	14445
1707.689	14474
1709.849	14402
1712.009	14355
1714.166	14427
1716.323	14369
1718.479	14284
1720.634	14440
1722.793	14584
1724.948	14493
1727.102	14352
1729.255	14589
1731.408	14509
1733.562	14412
1735.714	14249
1737.865	14468
1740.016	14553
1742.166	14393
1744.316	14568
1746.467	14341
1748.616	14461
1750.764	14408
1752.911	14386
1755.056	14700
1757.205	14439
1759.35	14727
1761.496	14522
1763.641	14574
1765.785	14338
1767.927	14432
1770.072	14584
1772.214	14586
1774.355	14479
1776.496	14694
1778.637	14564
1780.778	14780
1782.918	14620
1785.057	14764
1787.194	14574
1789.333	14660
1791.472	14737
1793.608	14804
1795.745	14552
1797.879	14733
1800.015	14526
1802.148	14702
1804.284	14576
1806.417	14579
1808.548	14543
1810.682	14689
1812.812	14547
1814.946	14818
1817.075	14665
1819.205	14668
1821.335	14555
1823.463	14682
1825.59	14523
1827.721	14661
1829.847	14622
1831.973	14475
1834.098	14604
1836.223	14519
1838.351	14567
1840.475	14449
1842.598	14742
1844.721	14545
1846.843	14500
1848.966	14476
1851.087	14348
1853.21	14627
1855.33	14646
1857.449	14536
1859.568	14551
1861.688	14450
1863.806	14505
1865.924	14501
1868.039	14437
1870.155	14432
1872.273	14541
1874.388	14543
1876.503	14383
1878.617	14783
1880.73	14615
1882.844	14430
1884.956	14389
1887.068	14377
1889.18	14620
1891.291	14525
1893.4	14593
1895.511	14525
1897.621	14511
1899.73	14644
1901.837	14482
1903.944	14686
1906.053	14754
1908.159	14803
1910.265	14564
1912.369	14731
1914.474	14784
1916.577	14592
1918.683	14762
1920.785	14682
1922.888	14530
1924.989	14594
1927.091	14682
1929.193	14742
1931.294	14748
1933.393	14810
1935.493	14699
1937.59	14737
1939.689	14851
1941.788	14779
1943.884	14895
1945.98	14811
1948.077	14893
1950.171	14920
1952.267	14780
1954.361	14711
1956.455	14732
1958.548	14810
1960.64	14759
1962.733	14687
1964.824	14827
1966.915	14639
1969.005	14612
1971.096	14847
1973.185	14656
1975.275	14820
1977.363	14789
1979.45	14565
1981.537	14564
1983.623	14602
1985.711	14715
1987.796	14734
1989.881	14775
1991.965	14743
1994.047	14544
1996.132	14700
1998.215	14594
2000.297	14644
2002.378	14713
2004.46	14530
2006.54	14445
2008.62	14601
2010.7	14654
2012.779	14566
2014.858	14420
2016.934	14602
2019.013	14539
2021.09	14630
2023.165	14599
2025.241	14600
2027.317	14522
2029.39	14696
2031.466	14568
2033.538	14720
2035.612	14611
2037.683	14757
2039.755	14691
2041.827	14573
2043.898	14565
2045.968	14584
2048.038	14624
2050.106	14514
2052.177	14684
2054.244	14686
2056.313	14656
2058.379	14651
2060.444	14678
2062.511	14672
2064.577	14671
2066.641	14701
2068.705	14598
2070.77	14663
2072.832	14651
2074.896	14570
2076.958	14660
2079.02	14771
2081.081	14622
2083.141	14692
2085.2	14549
2087.261	14726
2089.319	14530
2091.377	14769
2093.435	14830
2095.492	14674
2097.552	14693
2099.607	14682
2101.663	14667
2103.718	14772
2105.771	14679
2107.826	14670
2109.879	14485
2111.932	14824
2113.985	14798
2116.037	14567
2118.088	14585
2120.141	14703
2122.191	14802
2124.239	14601
2126.288	14687
2128.337	14717
2130.387	14576
2132.434	14802
2134.481	14532
2136.528	14631
2138.574	14664
2140.618	14679
2142.665	14574
2144.71	14415
2146.753	14777
2148.797	14326
2150.838	14564
2152.883	14562
2154.923	14838
2156.965	14392
2159.007	14543
2161.046	14679
2163.086	14480
2165.126	14568
2167.163	14372
2169.202	14428
2171.239	14591
2173.277	14718
2175.314	14517
2177.349	14467
2179.385	14595
2181.42	14314
2183.453	14593
2185.49	14454
2187.522	14276
2189.555	14482
2191.586	14554
2193.619	14422
2195.651	14375
2197.682	14361
2199.711	14297
2201.74	14307
2203.769	14428
2205.799	14360
2207.828	14504
2209.855	14303
2211.882	14430
2213.908	14310
2215.934	14254
2217.961	14362
2219.986	14285
2222.01	14227
2224.034	14203
2226.057	14521
2228.08	14278
2230.104	14363
2232.124	14187
2234.145	14206
2236.166	14329
2238.186	14193
2240.207	14234
2242.227	14486
2244.244	14317
2246.262	14278
2248.28	14266
2250.299	14271
2252.314	14268
2254.33	14358
2256.346	14426
2258.36	14455
2260.375	14261
2262.391	14227
2264.403	14314
2266.416	14366
2268.427	14262
2270.44	14451
2272.453	14340
2274.463	14402
2276.474	14395
2278.483	14184
2280.493	14293
2282.501	14344
2284.51	14140
2286.518	14435
2288.524	14334
2290.532	14460
2292.537	14343
2294.544	14462
2296.55	14470
2298.554	14421
2300.557	14319
2302.562	14206
2304.566	14238
2306.568	14360
2308.569	14128
2310.572	14368
2312.573	14286
2314.573	14287
2316.574	14203
2318.573	14292
2320.571	14185
2322.571	14213
2324.569	14178
2326.567	14236
2328.564	14333
2330.56	14020
2332.556	14185
2334.551	14410
2336.546	14150
2338.542	14061
2340.535	14155
2342.529	14187
2344.521	14131
2346.512	14060
2348.505	14121
2350.497	14080
2352.487	13968
2354.478	14086
2356.468	13991
2358.457	14014
2360.446	14089
2362.434	13960
2364.422	13922
2366.408	14114
2368.395	13928
2370.383	13972
2372.369	14124
2374.353	13974
2376.338	14017
2378.321	14011
2380.307	14064
2382.29	14024
2384.272	13958
2386.254	14186
2388.235	13935
2390.218	14068
2392.198	13977
2394.179	13919
2396.157	13913
2398.137	13699
2400.115	13893
2402.095	13843
2404.072	13901
2406.048	13846
2408.026	13810
2410.001	14002
2411.977	13971
2413.953	14095
2415.927	13768
2417.9	13914
2419.875	13876
2421.847	13777
2423.821	13753
2425.792	13920
2427.763	14084
2429.736	13992
2431.706	14032
2433.677	13825
2435.646	13847
2437.615	13928
2439.583	13766
2441.551	13756
2443.519	14027
2445.486	13686
2447.452	13957
2449.418	13850
2451.383	13892
2453.348	13900
2455.314	13749
2457.278	13765
2459.241	13766
2461.205	13681
2463.167	13712
2465.131	13776
2467.091	13960
2469.052	13792
2471.012	13775
2472.972	13818
2474.932	13617
2476.891	14038
2478.85	13856
2480.808	13508
2482.766	13730
2484.722	13691
2486.68	13772
2488.636	13786
2490.591	13650
2492.546	13643
2494.5	13750
2496.456	13798
2498.41	13716
2500.362	13631
2502.315	13479
2504.266	13802
2506.218	13745
2508.169	13693
2510.121	13624
2512.07	13768
2514.019	13530
2515.968	13623
2517.918	13788
2519.866	13796
2521.813	13613
2523.76	13668
2525.707	13843
2527.653	13578
2529.599	13500
2531.543	13719
2533.489	13696
2535.433	13655
2537.376	13576
2539.32	13701
2541.264	13554
2543.205	13680
2545.147	13670
2547.087	13757
2549.029	13532
2550.969	13687
2552.908	13553
2554.847	13460
2556.786	13557
2558.724	13581
2560.663	13632
2562.6	13612
2564.537	13748
2566.473	13568
2568.408	13837
2570.345	13714
2572.28	13792
2574.214	13678
2576.148	13689
2578.081	13528
2580.014	13867
2581.947	13703
2583.879	13699
2585.81	13513
2587.741	13648
2589.67	13688
2591.602	13675
2593.532	13767
2595.461	13669
2597.388	13684
2599.316	13825
2601.244	13566
2603.172	13619
2605.098	13711
2607.023	13830
2608.949	13706
2610.873	13810
2612.8	13815
2614.723	13688
2616.647	13764
2618.569	13754
2620.493	13825
2622.416	13747
2624.338	13733
2626.258	13753
2628.179	13892
2630.099	13699
2632.019	13687
2633.939	13835
2635.857	13733
2637.775	13768
2639.694	13678
2641.61	13849
2643.528	13902
2645.444	13773
2647.361	13838
2649.276	13826
2651.19	13916
2653.105	13879
2655.019	13771
2656.934	13752
2658.846	13735
2660.758	13692
2662.67	13686
2664.583	13719
2666.493	13837
2668.404	13649
2670.313	13598
2672.223	13636
2674.134	13566
2676.042	13675
2677.95	13677
2679.858	13569
2681.765	13644
2683.673	13707
2685.579	13569
2687.483	13682
2689.389	13811
2691.294	13575
2693.198	13520
2695.104	13524
2697.006	13754
2698.909	13712
2700.811	13642
2702.713	13578
2704.615	13609
2706.516	13313
2708.417	13467
2710.316	13642
2712.216	13409
2714.115	13624
2716.014	13568
2717.913	13593
2719.81	13353
2721.707	13465
2723.603	13675
2725.501	13599
2727.396	13449
2729.292	13460
2731.186	13549
2733.081	13526
2734.976	13379
2736.87	13515
2738.762	13487
2740.653	13492
2742.546	13455
2744.437	13374
2746.329	13336
2748.22	13452
2750.11	13534
2751.999	13339
2753.889	13472
2755.778	13388
2757.666	13430
2759.553	13461
2761.44	13256
2763.328	13471
2765.215	13361
2767.101	13363
2768.986	13245
2770.87	13438
2772.754	13541
2774.638	13460
2776.523	13494
2778.405	13342
2780.288	13448
2782.17	13419
2784.051	13456
2785.934	13362
2787.814	13353
2789.694	13352
2791.574	13359
2793.453	13338
2795.332	13469
2797.212	13201
2799.088	13232
2800.966	13299
2802.843	13263
2804.719	13311
2806.597	13411
2808.471	13348
2810.346	13282
2812.221	13272
2814.094	13295
2815.969	13201
2817.843	13380
2819.714	13334
2821.587	13132
2823.459	13385
2825.329	13175
2827.202	13211
2829.072	13246
2830.942	13277
2832.811	13294
2834.68	13300
2836.549	13386
2838.418	13272
2840.284	13363
2842.152	13270
2844.018	13235
2845.885	13298
2847.751	13368
2849.616	13357
2851.482	13285
2853.345	13335
2855.208	13351
2857.074	13300
2858.937	13314
2860.799	13312
2862.66	13348
2864.522	13409
2866.385	13351
2868.245	13320
2870.104	13540
2871.964	13497
2873.824	13557
2875.683	13473
2877.542	13660
2879.4	13571
2881.257	13582
2883.114	13508
2884.97	13634
2886.827	13444
2888.683	13711
2890.537	13621
2892.392	13541
2894.246	13646
2896.1	13741
2897.954	13607
2899.807	13682
2901.66	13684
2903.51	13428
2905.362	13652
2907.214	13577
2909.065	13487
2910.915	13758
2912.765	13570
2914.613	13504
2916.463	13548
2918.311	13710
2920.158	13847
2922.006	13562
2923.853	13728
2925.698	13842
2927.546	13942
2929.392	13956
2931.236	14022
2933.081	13921
2934.924	13864
2936.77	14001
2938.613	13996
2940.455	13955
2942.298	14165
2944.139	14091
2945.982	14130
2947.823	13862
2949.662	14100
2951.503	14028
2953.342	14013
2955.182	13834
2957.021	13833
2958.858	13944
2960.697	13889
2962.534	13814
2964.37	13884
2966.207	13700
2968.044	13570
2969.879	13656
2971.714	13488
2973.548	13361
2975.383	13541
2977.218	13443
2979.051	13573
2980.883	13302
2982.715	13443
2984.547	13361
2986.379	13408
2988.21	13279
2990.04	13264
2991.87	13326
2993.7	13334
2995.53	12933
2997.359	13297
2999.187	13026
3001.015	12942
3002.842	12970
3004.669	12996
3006.497	12862
3008.323	12860
3010.148	12834
3011.974	13049
3013.797	12928
3015.623	12789
3017.447	12887
3019.27	12677
3021.094	12679
3022.915	12589
3024.737	12508
3026.56	12715
3028.38	12728
3030.201	12622
3032.022	12703
3033.84	12512
3035.662	12658
3037.481	12807
3039.298	12734
3041.117	12576
3042.933	12566
3044.752	12611
3046.568	12648
3048.385	12426
3050.2	12673
3052.016	12499
3053.83	12556
3055.646	12702
3057.46	12500
3059.272	12597
3061.086	12534
3062.898	12510
3064.711	12604
3066.524	12551
3068.335	12416
3070.145	12452
3071.956	12445
3073.766	12517
3075.576	12346
3077.385	12613
3079.193	12501
3081.002	12511
3082.81	12359
3084.618	12364
3086.425	12429
3088.231	12672
3090.036	12403
3091.842	12237
3093.648	12311
3095.452	12311
3097.257	12413
3099.06	12205
3100.863	12330
3102.666	12296
3104.47	12269
3106.272	12209
3108.073	12210
3109.875	12084
3111.676	12182
3113.477	12251
3115.277	12058
3117.077	12159
3118.874	12144
3120.673	12163
3122.473	12126
3124.271	12024
3126.066	12203
3127.863	12042
3129.66	12090
3131.456	12197
3133.252	11998
3135.047	12215
3136.842	12178
3138.635	11892
3140.429	12113
3142.223	12012
3144.016	12120
3145.808	12015
3147.6	11831
3149.392	11924
3151.183	11999
3152.975	11872
3154.765	11711
3156.553	11926
3158.344	11936
3160.132	11900
3161.922	11912
3163.71	11830
3165.497	11802
3167.285	11728
3169.071	11827
3170.858	11847
3172.645	11847
3174.429	11867
3176.214	11815
3177.998	11769
3179.783	11854
3181.568	11675
3183.351	11754
3185.133	11799
3186.915	11600
3188.698	11833
3190.481	11927
3192.261	11747
3194.042	11777
3195.822	11587
3197.601	11751
3199.381	11794
3201.161	11905
3202.939	11610
3204.717	11608
3206.495	11746
3208.272	11709
3210.05	11753
3211.826	11794
3213.602	11646
3215.376	11632
3217.151	11565
3218.927	11594
3220.702	11478
3222.476	11574
3224.249	11601
3226.021	11611
3227.793	11626
3229.567	11631
3231.339	11628
3233.109	11616
3234.88	11698
3236.651	11575
3238.421	11402
3240.191	11598
3241.96	11538
3243.728	11541
3245.497	11427
3247.263	11620
3249.033	11474
3250.799	11712
3252.566	11600
3254.331	11420
3256.097	11457
3257.863	11405
3259.628	11620
3261.392	11577
3263.156	11375
3264.919	11507
3266.683	11553
3268.447	11571
3270.208	11568
3271.969	11601
3273.731	11529
3275.492	11556
3277.253	11442
3279.013	11446
3280.773	11418
3282.532	11424
3284.291	11448
3286.05	11580
3287.808	11462
3289.566	11549
3291.323	11665
3293.079	11405
3294.835	11576
3296.593	11416
3298.348	11477
3300.102	11539
3301.857	11486
3303.611	11605
3305.366	11485
3307.119	11377
3308.872	11563
3310.624	11492
3312.376	11637
3314.129	11446
3315.881	11526
3317.631	11386
3319.38	11476
3321.13	11453
3322.88	11333
3324.631	11669
3326.379	11167
3328.126	11401
3329.875	11391
3331.622	11433
3333.371	11383
3335.116	11396
3336.863	11337
3338.609	11433
3340.353	11346
3342.1	11444
3343.845	11471
3345.588	11466
3347.332	11258
3349.074	11280
3350.817	11192
3352.56	11220
3354.303	11355
3356.043	11301
3357.785	11159
3359.525	11178
3361.268	11110
3363.007	11400
3364.745	11353
3366.485	11169
3368.223	11250
3369.962	11153
3371.701	11307
3373.438	11194
3375.174	11151
3376.911	11269
3378.647	11242
3380.384	11176
3382.118	11234
3383.854	11168
3385.588	11149
3387.322	11296
3389.057	11065
3390.79	11247
3392.522	11075
3394.255	11148
3395.987	11204
3397.719	11144
3399.451	10985
3401.181	10962
3402.911	11176
3404.641	11105
3406.371	11160
3408.101	11064
3409.83	11149
3411.558	11086
3413.285	11062
3415.011	11018
3416.739	11141
3418.467	10989
3420.193	11108
3421.919	11137
3423.644	11010
3425.368	11003
3427.094	11015
3428.818	10995
3430.542	11042
3432.264	11106
3433.987	10975
3435.712	11010
3437.434	10913
3439.155	10856
3440.876	10987
3442.596	10828
3444.317	10861
3446.039	11038
3447.757	10824
3449.477	10746
3451.195	10866
3452.914	10663
3454.632	10800
3456.35	10798
3458.067	10632
3459.784	10822
3461.5	10741
3463.216	10810
3464.932	10594
3466.647	10690
3468.362	10884
3470.076	10695
3471.789	10694
3473.505	10600
3475.217	10660
3476.929	10659
3478.641	10615
3480.354	10633
3482.066	10616
3483.777	10630
3485.487	10548
3487.197	10605
3488.908	10624
3490.617	10549
3492.327	10631
3494.035	10461
3495.743	10780
3497.451	10587
3499.158	10479
3500.866	10598
3502.572	10633
3504.278	10470
3505.984	10559
3507.689	10439
3509.396	10497
3511.1	10429
3512.804	10425
3514.508	10423
3516.211	10394
3517.913	10359
3519.616	10545
3521.319	10438
3523.021	10424
3524.722	10514
3526.422	10333
3528.124	10341
3529.824	10446
3531.524	10479
3533.222	10444
3534.921	10403
3536.62	10480
3538.318	10386
3540.016	10296
3541.714	10337
3543.41	10479
3545.107	10405
3546.803	10356
3548.5	10499
3550.194	10371
3551.889	10178
3553.583	10300
3555.279	10261
3556.972	10355
3558.666	10268
3560.358	10207
3562.051	10178
3563.742	10310
3565.435	10188
3567.126	10116
3568.817	10206
3570.507	10176
3572.197	10288
3573.888	10327
3575.577	10197
3577.265	10164
3578.954	10020
3580.642	10270
3582.329	10093
3584.017	10148
3585.704	10155
3587.391	10193
3589.077	10161
3590.762	10179
3592.449	10097
3594.133	10260
3595.817	10129
3597.501	10143
3599.185	10057
3600.869	10026
3602.552	9906
3604.234	10149
3605.916	10053
3607.598	10128
3609.279	10133
3610.961	10040
3612.642	10034
3614.321	9961
3616	10020
3617.68	9848
3619.36	9929
3621.039	10003
3622.716	9831
3624.394	9934
3626.071	10051
3627.748	9724
3629.425	9982
3631.102	9920
3632.778	9870
3634.452	9687
3636.127	9881
3637.803	9908
3639.477	9841
3641.151	9827
3642.823	9888
3644.497	9822
3646.171	9909
3647.842	9731
3649.515	9766
3651.185	9706
3652.857	9776
3654.527	9800
3656.198	9669
3657.868	9770
3659.537	9869
3661.207	9738
3662.875	9706
3664.544	9856
3666.212	9634
3667.879	9577
3669.546	9624
3671.212	9698
3672.88	9650
3674.546	9615
3676.211	9787
3677.875	9701
3679.541	9583
3681.205	9600
3682.87	9572
3684.533	9694
3686.196	9632
3687.859	9798
3689.521	9740
3691.184	9630
3692.845	9636
3694.507	9690
3696.167	9629
3697.827	9623
3699.487	9574
3701.148	9668
3702.808	9528
3704.466	9634
3706.125	9716
3707.783	9513
3709.442	9584
3711.099	9494
3712.757	9521
3714.412	9620
3716.068	9596
3717.725	9500
3719.381	9610
3721.036	9464
3722.689	9494
3724.344	9621
3725.998	9496
3727.652	9592
3729.305	9517
3730.958	9381
3732.61	9556
3734.262	9440
3735.915	9584
3737.565	9501
3739.217	9400
3740.866	9483
3742.516	9492
3744.165	9414
3745.816	9362
3747.464	9483
3749.113	9597
3750.761	9588
3752.409	9434
3754.057	9351
3755.703	9275
3757.35	9329
3758.996	9253
3760.641	9407
3762.289	9372
3763.933	9425
3765.577	9361
3767.222	9358
3768.865	9253
3770.508	9264
3772.152	9361
3773.796	9296
3775.438	9274
3777.079	9258
3778.721	9286
3780.363	9281
3782.003	9265
3783.643	9282
3785.283	9185
3786.923	9148
3788.563	9182
3790.203	9356
3791.841	9185
3793.479	9125
3795.115	9162
3796.753	9128
3798.391	9193
3800.027	9267
3801.664	9087
3803.299	9139
3804.935	9159
3806.571	9130
3808.206	9109
3809.839	9065
3811.473	9206
3813.107	9153
3814.74	8966
3816.375	9037
3818.006	8977
3819.638	9076
3821.27	9077
3822.9	9069
3824.532	8978
3826.163	9014
3827.792	9004
3829.423	8966
3831.051	9088
3832.682	8841
3834.311	8988
3835.938	8997
3837.566	9071
3839.193	8952
3840.821	8831
3842.448	8931
3844.075	9007
3845.7	8964
3847.325	8935
3848.951	9007
3850.576	8719
3852.201	8951
3853.825	8992
3855.448	8976
3857.072	8864
3858.694	8974
3860.318	8829
3861.939	9013
3863.562	8862
3865.183	8817
3866.804	8908
3868.426	8830
3870.045	8809
3871.666	8934
3873.285	8856
3874.904	8771
3876.524	8734
3878.142	8799
3879.76	8751
3881.378	8846
3882.995	8793
3884.612	8837
3886.229	8830
3887.845	8623
3889.461	8750
3891.076	8657
3892.691	8753
3894.307	8633
3895.922	8783
3897.536	8742
3899.149	8860
3900.761	8679
3902.374	8881
3903.988	8852
3905.6	8804
3907.212	8708
3908.822	8604
3910.433	8770
3912.045	8702
3913.655	8552
3915.265	8675
3916.875	8762
3918.483	8838
3920.093	8704
3921.702	8642
3923.309	8605
3924.917	8681
3926.523	8610
3928.13	8773
3929.739	8672
3931.344	8608
3932.95	8628
3934.555	8653
3936.159	8570
3937.766	8570
3939.369	8615
3940.974	8814
3942.577	8666
3944.181	8616
3945.783	8584
3947.386	8657
3948.989	8555
3950.59	8547
3952.191	8479
3953.791	8573
3955.394	8554
3956.994	8504
3958.593	8586
3960.192	8570
3961.791	8547
3963.392	8495
3964.99	8600
3966.588	8402
3968.185	8496
3969.782	8377
3971.379	8470
3972.976	8516
3974.572	8469
3976.168	8419
3977.763	8383
3979.358	8420
3980.954	8363
3982.548	8398
3984.142	8398
3985.736	8316
3987.329	8313
3988.922	8479
3990.516	8391
3992.108	8216
3993.698	8312
3995.29	8303
3996.881	8338
3998.473	8171
4000.064	8296
4001.653	8223
4003.242	8234
4004.832	8319
4006.422	8145
4008.01	8174
4009.598	8140
4011.186	8244
4012.773	8097
4014.36	8261
4015.947	8213
4017.534	8155
4019.119	8155
4020.705	8140
4022.291	8207
4023.876	8148
4025.461	8147
4027.044	8044
4028.627	8016
4030.211	8087
4031.795	7999
4033.378	8093
4034.96	7992
4036.542	8074
4038.124	7945
4039.704	7991
4041.286	7937
4042.867	8094
4044.447	8039
4046.026	7998
4047.606	8090
4049.187	7959
4050.765	8078
4052.343	7925
4053.92	7909
4055.498	7999
4057.076	7924
4058.654	7958
4060.23	7980
4061.806	8079
4063.381	8006
4064.957	8043
4066.533	7925
4068.107	8079
4069.682	7860
4071.256	7896
4072.829	8017
4074.404	7937
4075.977	7807
4077.549	7944
4079.121	7916
4080.693	7913
4082.265	7817
4083.836	7958
4085.407	7954
4086.977	7819
4088.547	7864
4090.117	7827
4091.687	7789
4093.256	7824
4094.825	7795
4096.392	7870
4097.96	7684
4099.528	7924
4101.097	7837
4102.663	7770
4104.229	7703
4105.795	7925
4107.361	7758
4108.928	7696
4110.493	7731
4112.058	7742
4113.621	7824
4115.186	7749
4116.75	7752
4118.313	7748
4119.876	7661
4121.438	7584
4123	7638
4124.562	7691
4126.125	7568
4127.686	7581
4129.246	7582
4130.807	7684
4132.367	7614
4133.927	7723
4135.486	7558
4137.046	7639
4138.604	7612
4140.162	7636
4141.72	7476
4143.279	7554
4144.836	7676
4146.393	7522
4147.949	7429
4149.505	7574
4151.062	7503
4152.617	7576
4154.172	7518
4155.727	7443
4157.281	7581
4158.836	7463
4160.39	7556
4161.943	7446
4163.496	7426
4165.048	7459
4166.601	7430
4168.154	7413
4169.706	7383
4171.257	7423
4172.808	7459
4174.358	7357
4175.909	7403
4177.458	7380
4179.008	7264
4180.558	7406
4182.106	7507
4183.655	7314
4185.204	7402
4186.751	7388
4188.298	7320
4189.845	7346
4191.392	7308
4192.939	7469
4194.485	7234
4196.031	7300
4197.576	7365
4199.121	7316
4200.666	7280
4202.211	7365
4203.754	7371
4205.298	7127
4206.84	7391
4208.384	7169
4209.927	7189
4211.47	7266
4213.011	7116
4214.552	7263
4216.094	7263
4217.635	7207
4219.175	7233
4220.716	7267
4222.255	7187
4223.793	7146
4225.335	7395
4226.873	7090
4228.411	7216
4229.948	7306
4231.486	7152
4233.024	7202
4234.562	7268
4236.098	7232
4237.634	7011
4239.169	7186
4240.705	7177
4242.241	7167
4243.776	7069
4245.31	7101
4246.844	7174
4248.378	7065
4249.911	7114
4251.445	6969
4252.978	7099
4254.51	7086
4256.042	6936
4257.574	7060
4259.107	7176
4260.638	6973
4262.169	7110
4263.699	7104
4265.228	7149
4266.759	7104
4268.289	7094
4269.818	6994
4271.345	7069
4272.874	6989
4274.402	6975
4275.931	6941
4277.458	7037
4278.985	6974
4280.512	6969
4282.037	6920
4283.564	6982
4285.089	7012
4286.615	6931
4288.139	6995
4289.664	7019
4291.187	7053
4292.712	6954
4294.235	6982
4295.759	6844
4297.281	6856
4298.804	6927
4300.327	6828
4301.849	6874
4303.37	6846
4304.891	6946
4306.412	6879
4307.933	6915
4309.453	6909
4310.973	6869
4312.492	6854
