398.1873	4795
400.7097	4840
403.2336	4830
405.7547	4810
408.2751	4802
410.7948	4873
413.3138	4764
415.83	4839
418.3497	4938
420.8666	4968
423.3829	4989
425.8985	5066
428.4133	5058
430.9275	5231
433.441	5108
435.9538	5126
438.4639	5140
440.9753	5104
443.4881	5146
445.9982	5133
448.5055	5129
451.0142	5111
453.5201	5141
456.0274	5072
458.5361	5098
461.04	5124
463.5453	5192
466.0478	5088
468.5517	5195
471.0549	5117
473.5574	5147
476.0572	5095
478.5584	5039
481.0568	5113
483.5545	5207
486.0557	5246
488.5521	5172
491.0478	5219
493.5449	5261
496.0392	5246
498.5349	5324
501.0299	5218
503.5222	5248
506.0139	5105
508.5048	5277
510.9991	5297
513.4887	5382
515.9777	5289
518.4659	5333
520.9534	5213
523.4403	5307
525.9306	5311
528.4161	5279
530.9009	5329
533.3851	5441
535.8687	5349
538.3535	5244
540.8356	5222
543.3171	5261
545.7979	5254
548.278	5301
550.7595	5415
553.2383	5266
555.7144	5388
558.1918	5255
560.6685	5361
563.1446	5360
565.6221	5412
568.0968	5413
570.5688	5547
573.0422	5570
575.515	5522
577.989	5545
580.4584	5517
582.9291	5598
585.3991	5571
587.8685	5610
590.3352	5514
592.8052	5458
595.2706	5519
597.7372	5516
600.2033	5540
602.6666	5417
605.1334	5608
607.5953	5549
610.0587	5512
612.5193	5507
614.9814	5466
617.4427	5484
619.9034	5528
622.3615	5441
624.8208	5531
627.2775	5475
629.7335	5499
632.1929	5445
634.6476	5480
637.1016	5486
639.5569	5430
642.0096	5568
644.4637	5496
646.9151	5575
649.3678	5571
651.8179	5484
654.2672	5519
656.7159	5518
659.166	5553
661.6154	5558
664.0622	5485
666.5082	5613
668.9537	5595
671.4005	5707
673.8445	5615
676.288	5674
678.7308	5636
681.1729	5659
683.6163	5677
686.0572	5591
688.4973	5697
690.9368	5530
693.3757	5656
695.8138	5509
698.2534	5656
700.6902	5653
703.1245	5719
705.56	5728
707.9949	5707
710.4311	5611
712.8647	5618
715.2957	5760
717.7279	5755
720.1595	5732
722.5905	5763
725.0208	5751
727.4505	5853
729.8795	5850
732.3058	5845
734.7336	5824
737.1626	5843
739.587	5989
742.0128	5836
744.4359	6005
746.8604	5971
749.2841	5927
751.7073	5962
754.1278	6040
756.5496	6026
758.9688	6013
761.3893	6014
763.8093	6061
766.2285	6135
768.6451	5980
771.0611	6071
773.4784	6014
775.895	6064
778.3091	6050
780.7244	6098
783.1371	5902
785.5493	6155
787.9626	6008
790.3754	6095
792.7856	6040
795.1951	6029
797.6039	6026
800.0121	6031
802.4236	6181
804.8306	6067
807.2369	6073
809.6425	6074
812.0475	5991
814.4538	6210
816.8575	6139
819.2606	6190
821.663	6130
824.0648	6248
826.4659	6070
828.8683	6123
831.2682	6212
833.6674	6099
836.066	6127
838.4639	6216
840.8632	6242
843.2579	6201
845.6539	6256
848.0493	6293
850.444	6331
852.84	6289
855.2315	6322
857.6243	6222
860.0165	6233
862.4081	6297
864.797	6343
867.1892	6222
869.5789	6275
871.9659	6272
874.3542	6227
876.74	6257
879.129	6171
881.5155	6317
883.8994	6290
886.2845	6362
888.6671	6177
891.051	6284
893.4343	6286
895.8169	6305
898.197	6243
900.5783	6319
902.9571	6200
905.3372	6283
907.7167	6292
910.0936	6277
912.4698	6328
914.8474	6435
917.2244	6461
919.5987	6288
921.9744	6492
924.3475	6468
926.72	6525
929.0918	6563
931.4669	6578
933.8375	6554
936.2074	6577
938.5767	6798
940.9454	6680
943.3154	6899
945.6829	6966
948.0497	7166
950.4178	7397
952.7833	7658
955.1483	7826
957.5145	8196
959.8782	8465
962.2412	8278
964.6036	8092
966.9655	7787
969.3266	7347
971.6871	7127
974.0471	6804
976.4064	6555
978.765	6598
981.125	6581
983.4824	6449
985.8373	6515
988.1935	6499
990.549	6447
992.9039	6469
995.2602	6537
997.6119	6421
999.965	6505
1002.317	6521
1004.667	6403
1007.02	6502
1009.371	6463
1011.719	6587
1014.068	6498
1016.415	6550
1018.765	6451
1021.111	6516
1023.458	6683
1025.804	6604
1028.147	6601
1030.49	6635
1032.837	6607
1035.179	6597
1037.522	6724
1039.862	6587
1042.204	6624
1044.546	6562
1046.884	6697
1049.224	6584
1051.562	6715
1053.899	6643
1056.237	6668
1058.575	6696
1060.91	6803
1063.244	6793
1065.58	6625
1067.913	6912
1070.248	6874
1072.579	6847
1074.911	6744
1077.242	6684
1079.572	6810
1081.905	6735
1084.234	6705
1086.562	6743
1088.89	6638
1091.217	6614
1093.544	6561
1095.871	6700
1098.197	6822
1100.521	6610
1102.845	6717
1105.169	6766
1107.491	6740
1109.814	6593
1112.135	6613
1114.456	6594
1116.776	6605
1119.096	6638
1121.415	6690
1123.734	6624
1126.052	6583
1128.369	6583
1130.686	6658
1133.002	6584
1135.318	6668
1137.632	6743
1139.945	6668
1142.258	6691
1144.573	6640
1146.884	6671
1149.196	6629
1151.505	6596
1153.816	6631
1156.124	6778
1158.435	6730
1160.742	6619
1163.051	6672
1165.356	6805
1167.663	6655
1169.97	6724
1172.276	6716
1174.579	6671
1176.881	6703
1179.186	6660
1181.487	6696
1183.79	6670
1186.092	6616
1188.392	6623
1190.691	6624
1192.991	6665
1195.291	6513
1197.588	6784
1199.885	6761
1202.181	6668
1204.479	6742
1206.775	6703
1209.07	6708
1211.363	6761
1213.656	6651
1215.949	6881
1218.241	6674
1220.534	6774
1222.825	6699
1225.115	6774
1227.405	6778
1229.693	6838
1231.984	7053
1234.271	6824
1236.558	6951
1238.845	6941
1241.131	6928
1243.416	7042
1245.703	6859
1247.987	7072
1250.269	6958
1252.552	6943
1254.834	6927
1257.118	6946
1259.399	7050
1261.678	6912
1263.958	6892
1266.237	6961
1268.516	6851
1270.794	6967
1273.072	6993
1275.347	6917
1277.624	6940
1279.899	6796
1282.175	6906
1284.449	6894
1286.722	6972
1288.995	7002
1291.266	6887
1293.54	6822
1295.81	6902
1298.081	6943
1300.35	7070
1302.62	6893
1304.889	6784
1307.156	6860
1309.425	6823
1311.69	6875
1313.957	6834
1316.222	6804
1318.488	6754
1320.751	6721
1323.016	6904
1325.278	6806
1327.54	6818
1329.803	6798
1332.065	6910
1334.325	6779
1336.584	6863
1338.843	6815
1341.101	6932
1343.36	6869
1345.617	6888
1347.876	6976
1350.131	6803
1352.387	6851
1354.643	6767
1356.897	6890
1359.151	6874
1361.403	6773
1363.656	6816
1365.909	6880
1368.16	6859
1370.409	7013
1372.659	6824
1374.909	7002
1377.157	6968
1379.407	6974
1381.655	6987
1383.9	6886
1386.147	6763
1388.393	6972
1390.64	6934
1392.885	6946
1395.127	6953
1397.37	6940
1399.614	6950
1401.854	7013
1404.098	7077
1406.339	7008
1408.578	7040
1410.818	7129
1413.056	7033
1415.297	6965
1417.533	7174
1419.771	7061
1422.006	7155
1424.243	7041
1426.479	7107
1428.715	7031
1430.948	7096
1433.182	7213
1435.414	7232
1437.647	7120
1439.88	7109
1442.11	7158
1444.342	7142
1446.571	7203
1448.799	7239
1451.029	7214
1453.258	7256
1455.485	7271
1457.711	7289
1459.937	7325
1462.164	7266
1464.39	7291
1466.614	7242
1468.838	7174
1471.06	6991
1473.283	7117
1475.506	7115
1477.727	7096
1479.949	7075
1482.169	7058
1484.389	6940
1486.609	7024
1488.828	6950
1491.045	6943
1493.261	6930
1495.477	6924
1497.693	6901
1499.91	6955
1502.125	6883
1504.339	6943
1506.553	6970
1508.766	7010
1510.979	6939
1513.191	6852
1515.402	6946
1517.613	6905
1519.823	6886
1522.033	6973
1524.242	6857
1526.451	6953
1528.657	6974
1530.865	7025
1533.072	6951
1535.278	6825
1537.484	6996
1539.687	6943
1541.892	7015
1544.096	7052
1546.299	6926
1548.502	6996
1550.703	6993
1552.905	6992
1555.104	7047
1557.303	6992
1559.505	7056
1561.703	7018
1563.902	7046
1566.099	7123
1568.295	7168
1570.494	7121
1572.689	7179
1574.883	7199
1577.079	7221
1579.272	7178
1581.467	7226
1583.659	7168
1585.853	7287
1588.044	7283
1590.234	7032
1592.424	7157
1594.615	7222
1596.806	7216
1598.994	7204
1601.182	7232
1603.369	7169
1605.557	7181
1607.744	7152
1609.929	7216
1612.114	7181
1614.298	7216
1616.482	7299
1618.667	7217
1620.85	7271
1623.032	7230
1625.214	7295
1627.395	7234
1629.575	7189
1631.755	7253
1633.935	7378
1636.114	7328
1638.292	7288
1640.471	7414
1642.647	7399
1644.823	7292
1647	7316
1649.175	7417
1651.348	7332
1653.525	7236
1655.698	7261
1657.87	7304
1660.043	7369
1662.213	7399
1664.387	7281
1666.558	7397
1668.727	7381
1670.896	7450
1673.064	7328
1675.233	7415
1677.401	7422
1679.569	7390
1681.735	7354
1683.902	7368
1686.066	7345
1688.233	7398
1690.397	7472
1692.559	7292
1694.723	7256
1696.885	7235
1699.048	7328
1701.21	7238
1703.37	7217
1705.53	7273
1707.689	7225
1709.849	7194
1712.009	7205
1714.166	7232
1716.323	7320
1718.479	7163
1720.634	7315
1722.793	7261
1724.948	7168
1727.102	7214
1729.255	7258
1731.408	7281
1733.562	7159
1735.714	7257
1737.865	7248
1740.016	7196
1742.166	7210
1744.316	7235
1746.467	7166
1748.616	7297
1750.764	7193
1752.911	7247
1755.056	7203
1757.205	7203
1759.35	7284
1761.496	7298
1763.641	7312
1765.785	7279
1767.927	7178
1770.072	7252
1772.214	7321
1774.355	7274
1776.496	7395
1778.637	7327
1780.778	7339
1782.918	7240
1785.057	7274
1787.194	7414
1789.333	7365
1791.472	7339
1793.608	7305
1795.745	7469
1797.879	7414
1800.015	7372
1802.148	7235
1804.284	7301
1806.417	7295
1808.548	7304
1810.682	7310
1812.812	7441
1814.946	7275
1817.075	7421
1819.205	7252
1821.335	7344
1823.463	7437
1825.59	7266
1827.721	7296
1829.847	7338
1831.973	7289
1834.098	7428
1836.223	7259
1838.351	7317
1840.475	7232
1842.598	7380
1844.721	7327
1846.843	7299
1848.966	7182
1851.087	7327
1853.21	7290
1855.33	7390
1857.449	7257
1859.568	7218
1861.688	7189
1863.806	7255
1865.924	7243
1868.039	7277
1870.155	7134
1872.273	7249
1874.388	7280
1876.503	7331
1878.617	7226
1880.73	7332
1882.844	7293
1884.956	7301
1887.068	7344
1889.18	7288
1891.291	7244
1893.4	7350
1895.511	7302
1897.621	7247
1899.73	7367
1901.837	7392
1903.944	7459
1906.053	7369
1908.159	7463
1910.265	7275
1912.369	7352
1914.474	7302
1916.577	7449
1918.683	7450
1920.785	7412
1922.888	7429
1924.989	7445
1927.091	7382
1929.193	7522
1931.294	7371
1933.393	7510
1935.493	7382
1937.59	7548
1939.689	7510
1941.788	7433
1943.884	7366
1945.98	7401
1948.077	7532
1950.171	7421
1952.267	7369
1954.361	7512
1956.455	7514
1958.548	7584
1960.64	7539
1962.733	7358
1964.824	7427
1966.915	7328
1969.005	7415
1971.096	7427
1973.185	7438
1975.275	7595
1977.363	7436
1979.45	7387
1981.537	7409
1983.623	7426
1985.711	7391
1987.796	7480
1989.881	7411
1991.965	7400
1994.047	7400
1996.132	7424
1998.215	7328
2000.297	7443
2002.378	7399
2004.46	7238
2006.54	7370
2008.62	7340
2010.7	7459
2012.779	7385
2014.858	7373
2016.934	7519
2019.013	7322
2021.09	7396
2023.165	7359
2025.241	7419
2027.317	7346
2029.39	7247
2031.466	7362
2033.538	7377
2035.612	7286
2037.683	7556
2039.755	7398
2041.827	7449
2043.898	7451
2045.968	7288
2048.038	7229
2050.106	7404
2052.177	7316
2054.244	7407
2056.313	7502
2058.379	7273
2060.444	7433
2062.511	7388
2064.577	7395
2066.641	7505
2068.705	7380
2070.77	7408
2072.832	7411
2074.896	7537
2076.958	7366
2079.02	7498
2081.081	7468
2083.141	7513
2085.2	7440
2087.261	7398
2089.319	7445
2091.377	7399
2093.435	7544
2095.492	7352
2097.552	7380
2099.607	7479
2101.663	7448
2103.718	7443
2105.771	7403
2107.826	7340
2109.879	7501
2111.932	7473
2113.985	7355
2116.037	7463
2118.088	7526
2120.141	7443
2122.191	7425
2124.239	7366
2126.288	7520
2128.337	7358
2130.387	7479
2132.434	7352
2134.481	7477
2136.528	7519
2138.574	7511
2140.618	7546
2142.665	7407
2144.71	7349
2146.753	7415
2148.797	7420
2150.838	7419
2152.883	7493
2154.923	7400
2156.965	7400
2159.007	7266
2161.046	7431
2163.086	7360
2165.126	7387
2167.163	7304
2169.202	7438
2171.239	7353
2173.277	7328
2175.314	7412
2177.349	7313
2179.385	7350
2181.42	7271
2183.453	7322
2185.49	7267
2187.522	7327
2189.555	7320
2191.586	7351
2193.619	7375
2195.651	7398
2197.682	7256
2199.711	7290
2201.74	7386
2203.769	7458
2205.799	7294
2207.828	7298
2209.855	7318
2211.882	7248
2213.908	7259
2215.934	7233
2217.961	7351
2219.986	7342
2222.01	7276
2224.034	7260
2226.057	7248
2228.08	7213
2230.104	7424
2232.124	7307
2234.145	7271
2236.166	7197
2238.186	7332
2240.207	7269
2242.227	7278
2244.244	7280
2246.262	7275
2248.28	7372
2250.299	7256
2252.314	7255
2254.33	7246
2256.346	7299
2258.36	7277
2260.375	7387
2262.391	7117
2264.403	7266
2266.416	7224
2268.427	7272
2270.44	7276
2272.453	7270
2274.463	7380
2276.474	7198
2278.483	7206
2280.493	7304
2282.501	7231
2284.51	7283
2286.518	7280
2288.524	7167
2290.532	7310
2292.537	7194
2294.544	7402
2296.55	7343
2298.554	7273
2300.557	7256
2302.562	7275
2304.566	7424
2306.568	7350
2308.569	7306
2310.572	7368
2312.573	7227
2314.573	7337
2316.574	7170
2318.573	7198
2320.571	7265
2322.571	7228
2324.569	7276
2326.567	7234
2328.564	7225
2330.56	7299
2332.556	7334
2334.551	7312
2336.546	7220
2338.542	7279
2340.535	7146
2342.529	7231
2344.521	7208
2346.512	7147
2348.505	7280
2350.497	7272
2352.487	7206
2354.478	7100
2356.468	7237
2358.457	7250
2360.446	7192
2362.434	7312
2364.422	7221
2366.408	7388
2368.395	7210
2370.383	7223
2372.369	7212
2374.353	7186
2376.338	7173
2378.321	7193
2380.307	7217
2382.29	7215
2384.272	7183
2386.254	7172
2388.235	7191
2390.218	7113
2392.198	7117
2394.179	7074
2396.157	7148
2398.137	7204
2400.115	7137
2402.095	7210
2404.072	7195
2406.048	7179
2408.026	7014
2410.001	7102
2411.977	7106
2413.953	7101
2415.927	7055
2417.9	7162
2419.875	7084
2421.847	7062
2423.821	7057
2425.792	7183
2427.763	7119
2429.736	7147
2431.706	7137
2433.677	7224
2435.646	7112
2437.615	7169
2439.583	7069
2441.551	7155
2443.519	7024
2445.486	7074
2447.452	7119
2449.418	6961
2451.383	7131
2453.348	7006
2455.314	7160
2457.278	7003
2459.241	7147
2461.205	7173
2463.167	6986
2465.131	7007
2467.091	7127
2469.052	7043
2471.012	6995
2472.972	7228
2474.932	7113
2476.891	7035
2478.85	7048
2480.808	7105
2482.766	6996
2484.722	7065
2486.68	7065
2488.636	7089
2490.591	6940
2492.546	6863
2494.5	7112
2496.456	7041
2498.41	7013
2500.362	6939
2502.315	7017
2504.266	6988
2506.218	7072
2508.169	6930
2510.121	7114
2512.07	7054
2514.019	6979
2515.968	6971
2517.918	7055
2519.866	6943
2521.813	6983
2523.76	6976
2525.707	7018
2527.653	6943
2529.599	7060
2531.543	7025
2533.489	6992
2535.433	7045
2537.376	6971
2539.32	7053
2541.264	6949
2543.205	7072
2545.147	7117
2547.087	7077
2549.029	6986
2550.969	7034
2552.908	6961
2554.847	7018
2556.786	7000
2558.724	6943
2560.663	6877
2562.6	7024
2564.537	7079
2566.473	7057
2568.408	6964
2570.345	6974
2572.28	7015
2574.214	6957
2576.148	6971
2578.081	6931
2580.014	7017
2581.947	6900
2583.879	7040
2585.81	7019
2587.741	7079
2589.67	6899
2591.602	7022
2593.532	7104
2595.461	7040
2597.388	6919
2599.316	7051
2601.244	7011
2603.172	7070
2605.098	7123
2607.023	7154
2608.949	7000
2610.873	7101
2612.8	7048
2614.723	7065
2616.647	7015
2618.569	7111
2620.493	7053
2622.416	7203
2624.338	7037
2626.258	7048
2628.179	7090
2630.099	7131
2632.019	7028
2633.939	6920
2635.857	7129
2637.775	7084
2639.694	7060
2641.61	7044
2643.528	6979
2645.444	7187
2647.361	7042
2649.276	6994
2651.19	7035
2653.105	7129
2655.019	7095
2656.934	7034
2658.846	7090
2660.758	6975
2662.67	6901
2664.583	6963
2666.493	7062
2668.404	6994
2670.313	6985
2672.223	7112
2674.134	6956
2676.042	7088
2677.95	6999
2679.858	7080
2681.765	6977
2683.673	6989
2685.579	7131
2687.483	7028
2689.389	7063
2691.294	7011
2693.198	7056
2695.104	6939
2697.006	7008
2698.909	6967
2700.811	7025
2702.713	6973
2704.615	7108
2706.516	6986
2708.417	7150
2710.316	6979
2712.216	6856
2714.115	6953
2716.014	6955
2717.913	7054
2719.81	6860
2721.707	6927
2723.603	6934
2725.501	6982
2727.396	7014
2729.292	6889
2731.186	6901
2733.081	6939
2734.976	6986
2736.87	6881
2738.762	6965
2740.653	6896
2742.546	6999
2744.437	6865
2746.329	6904
2748.22	6841
2750.11	6954
2751.999	6665
2753.889	6936
2755.778	6893
2757.666	6963
2759.553	6880
2761.44	6857
2763.328	6845
2765.215	7026
2767.101	6805
2768.986	6911
2770.87	6916
2772.754	6959
2774.638	6903
2776.523	6964
2778.405	6732
2780.288	7055
2782.17	7023
2784.051	6887
2785.934	6873
2787.814	6881
2789.694	6964
2791.574	6816
2793.453	6856
2795.332	6939
2797.212	6881
2799.088	6833
2800.966	6823
2802.843	6723
2804.719	6771
2806.597	6937
2808.471	6799
2810.346	6876
2812.221	6774
2814.094	6827
2815.969	6914
2817.843	6932
2819.714	6820
2821.587	6863
2823.459	6810
2825.329	6786
2827.202	6827
2829.072	6892
2830.942	6909
2832.811	6868
2834.68	6740
2836.549	6957
2838.418	6848
2840.284	6829
2842.152	6864
2844.018	6805
2845.885	6856
2847.751	6827
2849.616	6906
2851.482	6897
2853.345	6900
2855.208	6844
2857.074	6870
2858.937	6920
2860.799	6857
2862.66	6929
2864.522	6946
2866.385	6880
2868.245	6963
2870.104	7168
2871.964	7073
2873.824	7138
2875.683	7286
2877.542	7321
2879.4	7357
2881.257	7200
2883.114	7394
2884.97	7350
2886.827	7276
2888.683	7355
2890.537	7381
2892.392	7246
2894.246	7315
2896.1	7308
2897.954	7340
2899.807	7291
2901.66	7338
2903.51	7236
2905.362	7231
2907.214	7204
2909.065	7278
2910.915	7310
2912.765	7333
2914.613	7424
2916.463	7593
2918.311	7438
2920.158	7476
2922.006	7583
2923.853	7634
2925.698	7785
2927.546	7737
2929.392	7737
2931.236	7809
2933.081	7991
2934.924	7988
2936.77	8032
2938.613	7957
2940.455	8030
2942.298	8128
2944.139	8057
2945.982	8091
2947.823	7914
2949.662	7966
2951.503	8042
2953.342	7690
2955.182	7854
2957.021	7636
2958.858	7687
2960.697	7581
2962.534	7569
2964.37	7519
2966.207	7521
2968.044	7511
2969.879	7479
2971.714	7434
2973.548	7319
2975.383	7425
2977.218	7328
2979.051	7528
2980.883	7381
2982.715	7388
2984.547	7423
2986.379	7313
2988.21	7281
2990.04	7216
2991.87	7295
2993.7	7269
2995.53	7190
2997.359	7116
2999.187	7120
3001.015	7026
3002.842	7137
3004.669	7038
3006.497	6928
3008.323	6890
3010.148	6873
3011.974	6760
3013.797	6818
3015.623	6805
3017.447	6748
3019.27	6744
3021.094	6702
3022.915	6649
3024.737	6671
3026.56	6689
3028.38	6729
3030.201	6667
3032.022	6592
3033.84	6656
3035.662	6506
3037.481	6513
3039.298	6772
3041.117	6545
3042.933	6542
3044.752	6531
3046.568	6414
3048.385	6576
3050.2	6545
3052.016	6615
3053.83	6494
3055.646	6578
3057.46	6499
3059.272	6555
3061.086	6466
3062.898	6452
3064.711	6564
3066.524	6622
3068.335	6409
3070.145	6593
3071.956	6481
3073.766	6498
3075.576	6513
3077.385	6531
3079.193	6517
3081.002	6415
3082.81	6475
3084.618	6442
3086.425	6417
3088.231	6576
3090.036	6431
3091.842	6389
3093.648	6474
3095.452	6360
3097.257	6291
3099.06	6401
3100.863	6226
3102.666	6414
3104.47	6436
3106.272	6384
3108.073	6432
3109.875	6264
3111.676	6329
3113.477	6434
3115.277	6282
3117.077	6303
3118.874	6366
3120.673	6264
3122.473	6410
3124.271	6325
3126.066	6341
3127.863	6322
3129.66	6307
3131.456	6314
3133.252	6244
3135.047	6335
3136.842	6308
3138.635	6292
3140.429	6258
3142.223	6314
3144.016	6263
3145.808	6322
3147.6	6255
3149.392	6280
3151.183	6284
3152.975	6262
3154.765	6135
3156.553	6153
3158.344	6321
3160.132	6236
3161.922	6288
3163.71	6274
3165.497	6256
3167.285	6250
3169.071	6265
3170.858	6184
3172.645	6232
3174.429	6204
3176.214	6180
3177.998	6066
3179.783	6277
3181.568	6070
3183.351	6222
3185.133	6151
3186.915	6186
3188.698	6242
3190.481	6112
3192.261	6113
3194.042	6145
3195.822	6258
3197.601	6146
3199.381	6210
3201.161	6233
3202.939	6214
3204.717	6026
3206.495	6230
3208.272	6167
3210.05	6095
3211.826	6193
3213.602	6181
3215.376	6132
3217.151	6120
3218.927	6010
3220.702	6149
3222.476	6093
3224.249	6181
3226.021	6104
3227.793	6085
3229.567	6189
3231.339	6122
3233.109	6181
3234.88	6081
3236.651	6064
3238.421	6129
3240.191	6182
3241.96	6017
3243.728	6105
3245.497	6046
3247.263	6126
3249.033	6061
3250.799	6172
3252.566	6147
3254.331	6128
3256.097	6110
3257.863	6060
3259.628	6125
3261.392	6139
3263.156	6057
3264.919	6057
3266.683	6045
3268.447	6094
3270.208	6214
3271.969	6184
3273.731	6086
3275.492	6166
3277.253	6116
3279.013	6053
3280.773	6183
3282.532	6162
3284.291	6145
3286.05	6136
3287.808	6069
3289.566	6072
3291.323	6119
3293.079	6153
3294.835	6123
3296.593	6144
3298.348	6118
3300.102	6104
3301.857	6188
3303.611	6194
3305.366	6158
3307.119	6176
3308.872	6079
3310.624	6085
3312.376	6079
3314.129	6045
3315.881	6166
3317.631	6067
3319.38	6094
3321.13	6061
3322.88	6120
3324.631	6088
3326.379	6140
3328.126	6114
3329.875	6073
3331.622	6110
3333.371	6072
3335.116	6194
3336.863	6018
3338.609	6109
3340.353	6099
3342.1	6087
3343.845	6038
3345.588	5993
3347.332	6107
3349.074	6071
3350.817	6082
3352.56	6050
3354.303	6062
3356.043	5961
3357.785	5921
3359.525	6012
3361.268	6022
3363.007	6040
3364.745	6003
3366.485	5858
3368.223	5965
3369.962	6018
3371.701	6001
3373.438	5962
3375.174	6002
3376.911	5919
3378.647	6014
3380.384	5817
3382.118	5982
3383.854	5969
3385.588	5938
3387.322	5898
3389.057	5878
3390.79	6057
3392.522	5845
3394.255	5966
3395.987	5805
3397.719	5971
3399.451	5983
3401.181	5942
3402.911	5860
3404.641	5823
3406.371	5936
3408.101	5904
3409.83	6009
3411.558	5814
3413.285	5960
3415.011	5945
3416.739	5806
3418.467	5820
3420.193	5939
3421.919	5970
3423.644	5919
3425.368	5878
3427.094	5902
3428.818	5847
3430.542	5914
3432.264	5901
3433.987	5895
3435.712	5747
3437.434	5821
3439.155	5943
3440.876	5779
3442.596	5799
3444.317	5716
3446.039	5772
3447.757	5918
3449.477	5767
3451.195	5689
3452.914	5791
3454.632	5862
3456.35	5673
3458.067	5769
3459.784	5743
3461.5	5825
3463.216	5746
3464.932	5779
3466.647	5745
3468.362	5688
3470.076	5728
3471.789	5742
3473.505	5587
3475.217	5776
3476.929	5666
3478.641	5687
3480.354	5713
3482.066	5634
3483.777	5632
3485.487	5670
3487.197	5670
3488.908	5552
3490.617	5617
3492.327	5532
3494.035	5650
3495.743	5564
3497.451	5560
3499.158	5555
3500.866	5512
3502.572	5613
3504.278	5586
3505.984	5569
3507.689	5527
3509.396	5713
3511.1	5577
3512.804	5648
3514.508	5519
3516.211	5510
3517.913	5542
3519.616	5513
3521.319	5627
3523.021	5504
3524.722	5565
3526.422	5491
3528.124	5512
3529.824	5523
3531.524	5523
3533.222	5440
3534.921	5425
3536.62	5514
3538.318	5465
3540.016	5485
3541.714	5445
3543.41	5546
3545.107	5402
3546.803	5473
3548.5	5496
3550.194	5506
3551.889	5363
3553.583	5485
3555.279	5378
3556.972	5517
3558.666	5460
3560.358	5356
3562.051	5374
3563.742	5498
3565.435	5372
3567.126	5476
3568.817	5434
3570.507	5441
3572.197	5352
3573.888	5357
3575.577	5394
3577.265	5400
3578.954	5460
3580.642	5394
3582.329	5303
3584.017	5449
3585.704	5303
3587.391	5267
3589.077	5302
3590.762	5312
3592.449	5396
3594.133	5373
3595.817	5255
3597.501	5354
3599.185	5277
3600.869	5355
3602.552	5188
3604.234	5260
3605.916	5277
3607.598	5326
3609.279	5283
3610.961	5277
3612.642	5277
3614.321	5243
3616	5177
3617.68	5202
3619.36	5281
3621.039	5140
3622.716	5180
3624.394	5195
3626.071	5158
3627.748	5221
3629.425	5102
3631.102	5177
3632.778	5229
3634.452	5221
3636.127	5186
3637.803	5174
3639.477	5141
3641.151	5206
3642.823	5131
3644.497	5133
3646.171	5102
3647.842	5150
3649.515	5003
3651.185	5028
3652.857	5059
3654.527	5064
3656.198	5127
3657.868	5078
3659.537	5193
3661.207	5071
3662.875	5010
3664.544	5118
3666.212	5086
3667.879	5037
3669.546	5038
3671.212	5109
3672.88	5046
3674.546	5053
3676.211	5025
3677.875	5148
3679.541	5027
3681.205	5006
3682.87	5060
3684.533	5013
3686.196	4975
3687.859	5051
3689.521	4956
3691.184	5086
3692.845	5022
3694.507	5009
3696.167	4988
3697.827	5039
3699.487	5016
3701.148	4999
3702.808	4920
3704.466	5001
3706.125	5028
3707.783	5033
3709.442	4961
3711.099	4926
3712.757	4959
3714.412	4920
3716.068	4948
3717.725	4893
3719.381	5027
3721.036	5067
3722.689	4969
3724.344	5049
3725.998	4938
3727.652	5054
3729.305	5058
3730.958	4968
3732.61	4978
3734.262	4881
3735.915	5013
3737.565	4921
3739.217	4882
3740.866	4958
3742.516	5041
3744.165	4971
3745.816	4871
3747.464	4901
3749.113	4937
3750.761	4906
3752.409	4942
3754.057	4823
3755.703	4914
3757.35	4860
3758.996	4768
3760.641	4882
3762.289	4912
3763.933	4795
3765.577	4817
3767.222	4844
3768.865	4896
3770.508	4809
3772.152	4845
3773.796	4872
3775.438	4905
3777.079	4862
3778.721	4878
3780.363	4908
3782.003	4830
3783.643	4739
3785.283	4771
3786.923	4840
3788.563	4754
3790.203	4754
3791.841	4754
3793.479	4823
3795.115	4769
3796.753	4804
3798.391	4687
3800.027	4744
3801.664	4823
3803.299	4734
3804.935	4701
3806.571	4762
3808.206	4781
3809.839	4652
3811.473	4700
3813.107	4689
3814.74	4644
3816.375	4728
3818.006	4749
3819.638	4728
3821.27	4785
3822.9	4628
3824.532	4686
3826.163	4714
3827.792	4707
3829.423	4564
3831.051	4708
3832.682	4621
3834.311	4699
3835.938	4741
3837.566	4723
3839.193	4710
3840.821	4670
3842.448	4686
3844.075	4636
3845.7	4596
3847.325	4698
3848.951	4657
3850.576	4627
3852.201	4639
3853.825	4645
3855.448	4754
3857.072	4664
3858.694	4661
3860.318	4595
3861.939	4625
3863.562	4669
3865.183	4610
3866.804	4657
3868.426	4646
3870.045	4560
3871.666	4662
3873.285	4620
3874.904	4619
3876.524	4656
3878.142	4650
3879.76	4587
3881.378	4537
3882.995	4524
3884.612	4543
3886.229	4585
3887.845	4562
3889.461	4667
3891.076	4646
3892.691	4629
3894.307	4556
3895.922	4487
3897.536	4524
3899.149	4570
3900.761	4602
3902.374	4589
3903.988	4589
3905.6	4568
3907.212	4533
3908.822	4549
3910.433	4593
3912.045	4538
3913.655	4492
3915.265	4434
3916.875	4480
3918.483	4493
3920.093	4502
3921.702	4490
3923.309	4365
3924.917	4446
3926.523	4513
3928.13	4529
3929.739	4498
3931.344	4561
3932.95	4504
3934.555	4444
3936.159	4474
3937.766	4496
3939.369	4480
3940.974	4578
3942.577	4425
3944.181	4466
3945.783	4450
3947.386	4507
3948.989	4559
3950.59	4490
3952.191	4549
3953.791	4478
3955.394	4511
3956.994	4338
3958.593	4370
3960.192	4416
3961.791	4465
3963.392	4487
3964.99	4396
3966.588	4412
3968.185	4391
3969.782	4409
3971.379	4411
3972.976	4384
3974.572	4422
3976.168	4390
3977.763	4410
3979.358	4404
3980.954	4429
3982.548	4324
3984.142	4397
3985.736	4297
3987.329	4307
3988.922	4299
3990.516	4308
3992.108	4415
3993.698	4482
3995.29	4308
3996.881	4385
3998.473	4294
4000.064	4287
4001.653	4322
4003.242	4287
4004.832	4312
4006.422	4329
4008.01	4208
4009.598	4229
4011.186	4219
4012.773	4288
4014.36	4279
4015.947	4214
4017.534	4177
4019.119	4281
4020.705	4196
4022.291	4256
4023.876	4283
4025.461	4204
4027.044	4146
4028.627	4207
4030.211	4241
4031.795	4207
4033.378	4330
4034.96	4303
4036.542	4231
4038.124	4227
4039.704	4184
4041.286	4258
4042.867	4208
4044.447	4166
4046.026	4191
4047.606	4160
4049.187	4151
4050.765	4126
4052.343	4155
4053.92	4118
4055.498	4062
4057.076	4108
4058.654	4196
4060.23	4137
4061.806	4140
4063.381	4201
4064.957	4064
4066.533	4136
4068.107	4139
4069.682	4108
4071.256	4109
4072.829	4074
4074.404	4035
4075.977	4130
4077.549	4130
4079.121	4166
4080.693	4055
4082.265	4104
4083.836	4126
4085.407	4150
4086.977	4101
4088.547	4014
4090.117	4100
4091.687	4119
4093.256	4073
4094.825	4122
4096.392	4015
4097.96	4019
4099.528	4027
4101.097	4073
4102.663	4058
4104.229	4034
4105.795	4067
4107.361	4060
4108.928	4069
4110.493	4038
4112.058	4017
4113.621	3983
4115.186	4080
4116.75	3962
4118.313	4044
4119.876	4076
4121.438	4010
4123	4105
4124.562	4001
4126.125	4078
4127.686	4046
4129.246	4026
4130.807	4025
4132.367	3937
4133.927	4041
4135.486	3948
4137.046	3941
4138.604	3933
4140.162	3931
4141.72	3985
4143.279	3973
4144.836	4011
4146.393	3923
4147.949	3886
4149.505	3969
4151.062	3949
4152.617	3875
4154.172	3892
4155.727	3925
4157.281	3904
4158.836	3915
4160.39	3866
4161.943	3896
4163.496	3923
4165.048	3881
4166.601	3820
4168.154	3892
4169.706	3842
4171.257	3769
4172.808	3915
4174.358	3877
4175.909	3900
4177.458	3853
4179.008	3806
4180.558	3840
4182.106	3827
4183.655	3840
4185.204	3872
4186.751	3818
4188.298	3759
4189.845	3780
4191.392	3834
4192.939	3906
4194.485	3765
4196.031	3785
4197.576	3838
4199.121	3751
4200.666	3723
4202.211	3839
4203.754	3775
4205.298	3815
4206.84	3767
4208.384	3814
4209.927	3795
4211.47	3754
4213.011	3757
4214.552	3714
4216.094	3783
4217.635	3690
4219.175	3674
4220.716	3763
4222.255	3775
4223.793	3761
4225.335	3716
4226.873	3741
4228.411	3698
4229.948	3735
4231.486	3762
4233.024	3655
4234.562	3750
4236.098	3812
4237.634	3658
4239.169	3704
4240.705	3712
4242.241	3694
4243.776	3743
4245.31	3718
4246.844	3715
4248.378	3710
4249.911	3715
4251.445	3703
4252.978	3753
4254.51	3703
4256.042	3708
4257.574	3692
4259.107	3605
4260.638	3694
4262.169	3677
4263.699	3654
4265.228	3714
4266.759	3679
4268.289	3683
4269.818	3731
4271.345	3723
4272.874	3624
4274.402	3652
4275.931	3671
4277.458	3624
4278.985	3592
4280.512	3619
4282.037	3653
4283.564	3670
4285.089	3571
4286.615	3610
4288.139	3649
4289.664	3691
4291.187	3686
4292.712	3660
4294.235	3527
4295.759	3609
4297.281	3613
4298.804	3608
4300.327	3640
4301.849	3598
4303.37	3560
4304.891	3580
4306.412	3561
4307.933	3506
4309.453	3586
4310.973	3564
4312.492	3504
