398.1873	4569
400.7097	4605
403.2336	4544
405.7547	4644
408.2751	4549
410.7948	4620
413.3138	4614
415.83	4716
418.3497	4775
420.8666	4686
423.3829	4767
425.8985	4808
428.4133	4892
430.9275	4892
433.441	4815
435.9538	4810
438.4639	4831
440.9753	4855
443.4881	4870
445.9982	4888
448.5055	4923
451.0142	4908
453.5201	4797
456.0274	4876
458.5361	4903
461.04	4809
463.5453	4886
466.0478	4921
468.5517	4928
471.0549	4782
473.5574	4957
476.0572	4873
478.5584	4933
481.0568	5038
483.5545	5009
486.0557	4991
488.5521	4980
491.0478	4953
493.5449	4899
496.0392	4937
498.5349	5082
501.0299	5155
503.5222	5070
506.0139	4972
508.5048	5178
510.9991	5174
513.4887	5030
515.9777	5119
518.4659	5117
520.9534	5124
523.4403	5003
525.9306	5046
528.4161	5014
530.9009	5147
533.3851	5095
535.8687	5153
538.3535	5070
540.8356	5068
543.3171	4974
545.7979	5141
548.278	5160
550.7595	5191
553.2383	5094
555.7144	5127
558.1918	5200
560.6685	5047
563.1446	5196
565.6221	5165
568.0968	5205
570.5688	5239
573.0422	5326
575.515	5305
577.989	5322
580.4584	5354
582.9291	5202
585.3991	5244
587.8685	5329
590.3352	5329
592.8052	5263
595.2706	5382
597.7372	5351
600.2033	5314
602.6666	5219
605.1334	5275
607.5953	5302
610.0587	5241
612.5193	5321
614.9814	5322
617.4427	5206
619.9034	5245
622.3615	5223
624.8208	5201
627.2775	5194
629.7335	5265
632.1929	5310
634.6476	5191
637.1016	5416
639.5569	5330
642.0096	5298
644.4637	5255
646.9151	5263
649.3678	5269
651.8179	5283
654.2672	5306
656.7159	5328
659.166	5395
661.6154	5419
664.0622	5294
666.5082	5358
668.9537	5391
671.4005	5362
673.8445	5279
676.288	5449
678.7308	5398
681.1729	5432
683.6163	5311
686.0572	5523
688.4973	5522
690.9368	5299
693.3757	5385
695.8138	5440
698.2534	5461
700.6902	5401
703.1245	5488
705.56	5559
707.9949	5416
710.4311	5485
712.8647	5572
715.2957	5521
717.7279	5647
720.1595	5587
722.5905	5577
725.0208	5656
727.4505	5625
729.8795	5579
732.3058	5549
734.7336	5622
737.1626	5686
739.587	5622
742.0128	5741
744.4359	5750
746.8604	5715
749.2841	5744
751.7073	5683
754.1278	5713
756.5496	5874
758.9688	5703
761.3893	5800
763.8093	5832
766.2285	5757
768.6451	5857
771.0611	5860
773.4784	5924
775.895	5909
778.3091	5858
780.7244	5863
783.1371	5816
785.5493	5850
787.9626	5753
790.3754	5720
792.7856	5786
795.1951	5883
797.6039	5742
800.0121	5831
802.4236	5790
804.8306	5779
807.2369	5830
809.6425	5851
812.0475	5871
814.4538	5863
816.8575	5839
819.2606	6002
821.663	6005
824.0648	6026
826.4659	6004
828.8683	5855
831.2682	5950
833.6674	5990
836.066	5990
838.4639	5890
840.8632	5893
843.2579	5902
845.6539	5961
848.0493	5992
850.444	6011
852.84	6026
855.2315	5992
857.6243	5905
860.0165	5871
862.4081	5986
864.797	6059
867.1892	5917
869.5789	6037
871.9659	6030
874.3542	6014
876.74	6083
879.129	6046
881.5155	5977
883.8994	5952
886.2845	6045
888.6671	6025
891.051	5967
893.4343	5919
895.8169	6032
898.197	5981
900.5783	6035
902.9571	5966
905.3372	5965
907.7167	6053
910.0936	5932
912.4698	6139
914.8474	6111
917.2244	6082
919.5987	6199
921.9744	6237
924.3475	6205
926.72	6269
929.0918	6165
931.4669	6197
933.8375	6328
936.2074	6253
938.5767	6366
940.9454	6378
943.3154	6421
945.6829	6592
948.0497	6628
950.4178	6775
952.7833	6954
955.1483	7119
957.5145	7163
959.8782	7386
962.2412	7329
964.6036	7303
966.9655	7073
969.3266	6765
971.6871	6653
974.0471	6426
976.4064	6460
978.765	6355
981.125	6327
983.4824	6173
985.8373	6166
988.1935	6131
990.549	6230
992.9039	6235
995.2602	6153
997.6119	6080
999.965	6300
1002.317	6311
1004.667	6315
1007.02	6344
1009.371	6245
1011.719	6188
1014.068	6241
1016.415	6296
1018.765	6203
1021.111	6324
1023.458	6203
1025.804	6198
1028.147	6328
1030.49	6344
1032.837	6435
1035.179	6281
1037.522	6357
1039.862	6268
1042.204	6415
1044.546	6214
1046.884	6284
1049.224	6364
1051.562	6385
1053.899	6433
1056.237	6315
1058.575	6332
1060.91	6350
1063.244	6402
1065.58	6470
1067.913	6498
1070.248	6343
1072.579	6377
1074.911	6594
1077.242	6339
1079.572	6461
1081.905	6421
1084.234	6415
1086.562	6375
1088.89	6303
1091.217	6358
1093.544	6359
1095.871	6440
1098.197	6369
1100.521	6346
1102.845	6376
1105.169	6427
1107.491	6375
1109.814	6334
1112.135	6337
1114.456	6314
1116.776	6355
1119.096	6370
1121.415	6497
1123.734	6326
1126.052	6634
1128.369	6469
1130.686	6508
1133.002	6324
1135.318	6451
1137.632	6455
1139.945	6555
1142.258	6377
1144.573	6317
1146.884	6418
1149.196	6418
1151.505	6431
1153.816	6381
1156.124	6416
1158.435	6453
1160.742	6386
1163.051	6503
1165.356	6470
1167.663	6460
1169.97	6420
1172.276	6399
1174.579	6543
1176.881	6405
1179.186	6540
1181.487	6517
1183.79	6311
1186.092	6423
1188.392	6315
1190.691	6375
1192.991	6431
1195.291	6361
1197.588	6504
1199.885	6420
1202.181	6509
1204.479	6423
1206.775	6304
1209.07	6543
1211.363	6478
1213.656	6450
1215.949	6459
1218.241	6561
1220.534	6482
1222.825	6479
1225.115	6424
1227.405	6484
1229.693	6515
1231.984	6707
1234.271	6619
1236.558	6668
1238.845	6619
1241.131	6595
1243.416	6573
1245.703	6557
1247.987	6634
1250.269	6769
1252.552	6727
1254.834	6747
1257.118	6599
1259.399	6644
1261.678	6733
1263.958	6627
1266.237	6571
1268.516	6696
1270.794	6672
1273.072	6726
1275.347	6666
1277.624	6656
1279.899	6727
1282.175	6660
1284.449	6716
1286.722	6700
1288.995	6570
1291.266	6638
1293.54	6635
1295.81	6581
1298.081	6587
1300.35	6508
1302.62	6563
1304.889	6687
1307.156	6580
1309.425	6619
1311.69	6484
1313.957	6584
1316.222	6716
1318.488	6577
1320.751	6596
1323.016	6591
1325.278	6598
1327.54	6653
1329.803	6662
1332.065	6606
1334.325	6674
1336.584	6595
1338.843	6627
1341.101	6571
1343.36	6557
1345.617	6730
1347.876	6558
1350.131	6733
1352.387	6585
1354.643	6647
1356.897	6614
1359.151	6547
1361.403	6580
1363.656	6652
1365.909	6653
1368.16	6762
1370.409	6666
1372.659	6719
1374.909	6672
1377.157	6744
1379.407	6655
1381.655	6666
1383.9	6660
1386.147	6704
1388.393	6719
1390.64	6804
1392.885	6787
1395.127	6682
1397.37	6774
1399.614	6759
1401.854	6828
1404.098	6787
1406.339	6740
1408.578	6884
1410.818	6813
1413.056	6852
1415.297	6732
1417.533	6911
1419.771	6894
1422.006	6838
1424.243	6752
1426.479	6832
1428.715	6922
1430.948	6883
1433.182	6840
1435.414	6982
1437.647	6915
1439.88	6984
1442.11	6852
1444.342	6917
1446.571	6925
1448.799	6962
1451.029	6925
1453.258	7006
1455.485	6927
1457.711	6989
1459.937	6929
1462.164	6979
1464.39	6989
1466.614	6957
1468.838	6774
1471.06	6837
1473.283	6839
1475.506	6925
1477.727	6821
1479.949	6789
1482.169	6819
1484.389	6855
1486.609	6719
1488.828	6828
1491.045	6760
1493.261	6688
1495.477	6729
1497.693	6845
1499.91	6659
1502.125	6794
1504.339	6775
1506.553	6737
1508.766	6743
1510.979	6655
1513.191	6704
1515.402	6652
1517.613	6690
1519.823	6705
1522.033	6710
1524.242	6719
1526.451	6760
1528.657	6735
1530.865	6633
1533.072	6877
1535.278	6743
1537.484	6751
1539.687	6722
1541.892	6763
1544.096	6742
1546.299	6704
1548.502	6799
1550.703	6740
1552.905	6827
1555.104	6706
1557.303	6894
1559.505	6877
1561.703	6823
1563.902	6974
1566.099	6672
1568.295	6813
1570.494	6793
1572.689	6841
1574.883	6934
1577.079	6968
1579.272	6978
1581.467	6921
1583.659	6883
1585.853	7002
1588.044	6936
1590.234	6999
1592.424	6935
1594.615	6994
1596.806	6951
1598.994	6976
1601.182	6788
1603.369	6895
1605.557	6972
1607.744	7039
1609.929	6906
1612.114	6946
1614.298	6985
1616.482	6997
1618.667	7001
1620.85	7096
1623.032	7072
1625.214	6881
1627.395	6939
1629.575	6935
1631.755	6982
1633.935	6943
1636.114	7034
1638.292	7013
1640.471	7052
1642.647	7101
1644.823	6934
1647	7000
1649.175	7024
1651.348	7055
1653.525	7077
1655.698	7054
1657.87	7146
1660.043	7104
1662.213	7076
1664.387	7120
1666.558	7029
1668.727	7144
1670.896	7200
1673.064	7220
1675.233	7296
1677.401	7123
1679.569	6979
1681.735	7144
1683.902	7172
1686.066	7078
1688.233	7173
1690.397	7118
1692.559	7200
1694.723	7056
1696.885	6968
1699.048	7002
1701.21	7016
1703.37	7055
1705.53	6896
1707.689	6944
1709.849	7036
1712.009	7009
1714.166	7034
1716.323	6892
1718.479	7008
1720.634	6885
1722.793	7036
1724.948	6909
1727.102	6988
1729.255	6854
1731.408	6952
1733.562	7085
1735.714	6948
1737.865	7077
1740.016	7068
1742.166	6925
1744.316	6986
1746.467	7034
1748.616	6998
1750.764	6976
1752.911	7095
1755.056	7018
1757.205	7060
1759.35	6852
1761.496	7035
1763.641	7069
1765.785	7051
1767.927	7089
1770.072	7013
1772.214	7116
1774.355	7148
1776.496	7090
1778.637	7052
1780.778	7078
1782.918	7197
1785.057	7003
1787.194	7014
1789.333	7054
1791.472	7217
1793.608	6988
1795.745	6960
1797.879	7171
1800.015	7061
1802.148	7102
1804.284	7169
1806.417	7091
1808.548	7112
1810.682	7055
1812.812	7100
1814.946	7168
1817.075	7110
1819.205	7072
1821.335	7156
1823.463	7187
1825.59	7019
1827.721	7006
1829.847	7052
1831.973	7129
1834.098	7090
1836.223	6962
1838.351	6952
1840.475	7052
1842.598	7063
1844.721	7081
1846.843	6953
1848.966	7030
1851.087	6931
1853.21	7009
1855.33	6956
1857.449	6982
1859.568	7014
1861.688	6995
1863.806	7011
1865.924	7158
1868.039	7022
1870.155	6899
1872.273	7135
1874.388	7138
1876.503	7057
1878.617	7061
1880.73	7055
1882.844	7064
1884.956	7095
1887.068	7002
1889.18	7042
1891.291	7105
1893.4	7086
1895.511	7056
1897.621	7065
1899.73	7111
1901.837	7083
1903.944	7080
1906.053	7142
1908.159	7189
1910.265	7115
1912.369	7134
1914.474	7208
1916.577	7172
1918.683	7125
1920.785	7167
1922.888	7201
1924.989	7221
1927.091	7263
1929.193	7171
1931.294	7179
1933.393	7202
1935.493	7174
1937.59	7219
1939.689	7178
1941.788	7233
1943.884	7109
1945.98	7191
1948.077	7263
1950.171	7224
1952.267	7182
1954.361	7285
1956.455	7144
1958.548	7048
1960.64	7187
1962.733	7220
1964.824	7155
1966.915	7228
1969.005	7141
1971.096	7129
1973.185	7218
1975.275	7139
1977.363	7153
1979.45	7244
1981.537	7190
1983.623	7233
1985.711	7381
1987.796	7148
1989.881	7184
1991.965	7194
1994.047	7212
1996.132	7096
1998.215	7293
2000.297	7119
2002.378	7192
2004.46	7153
2006.54	7122
2008.62	7031
2010.7	7222
2012.779	7082
2014.858	7069
2016.934	7168
2019.013	7181
2021.09	7165
2023.165	7115
2025.241	7026
2027.317	7143
2029.39	7160
2031.466	7125
2033.538	7077
2035.612	7115
2037.683	7103
2039.755	7164
2041.827	7197
2043.898	7121
2045.968	7155
2048.038	7043
2050.106	7122
2052.177	7208
2054.244	7242
2056.313	7207
2058.379	7050
2060.444	7112
2062.511	7138
2064.577	7256
2066.641	7228
2068.705	7205
2070.77	7295
2072.832	7263
2074.896	7199
2076.958	7246
2079.02	7241
2081.081	7181
2083.141	7317
2085.2	7195
2087.261	7106
2089.319	7160
2091.377	7148
2093.435	7220
2095.492	7227
2097.552	7097
2099.607	7304
2101.663	7218
2103.718	7196
2105.771	7191
2107.826	7105
2109.879	7134
2111.932	7209
2113.985	7071
2116.037	7072
2118.088	7093
2120.141	7200
2122.191	7216
2124.239	7194
2126.288	7263
2128.337	7209
2130.387	7230
2132.434	7301
2134.481	7222
2136.528	7091
2138.574	7143
2140.618	7187
2142.665	7116
2144.71	7134
2146.753	7257
2148.797	7154
2150.838	7141
2152.883	7192
2154.923	7176
2156.965	7048
2159.007	7118
2161.046	7210
2163.086	7187
2165.126	7222
2167.163	7067
2169.202	7046
2171.239	7064
2173.277	7127
2175.314	7204
2177.349	7104
2179.385	7075
2181.42	7142
2183.453	7300
2185.49	7073
2187.522	7048
2189.555	7029
2191.586	7076
2193.619	6994
2195.651	6924
2197.682	7033
2199.711	6984
2201.74	7147
2203.769	7137
2205.799	7141
2207.828	7065
2209.855	7064
2211.882	7029
2213.908	6990
2215.934	7104
2217.961	7066
2219.986	7134
2222.01	7099
2224.034	6954
2226.057	7020
2228.08	6996
2230.104	6980
2232.124	7048
2234.145	7057
2236.166	6927
2238.186	6976
2240.207	6997
2242.227	7121
2244.244	6900
2246.262	7084
2248.28	7043
2250.299	6951
2252.314	7062
2254.33	7079
2256.346	7101
2258.36	6989
2260.375	7100
2262.391	6970
2264.403	6971
2266.416	7026
2268.427	6972
2270.44	6966
2272.453	7049
2274.463	6961
2276.474	6917
2278.483	7126
2280.493	7038
2282.501	7001
2284.51	7002
2286.518	7056
2288.524	7070
2290.532	7158
2292.537	6988
2294.544	7039
2296.55	7007
2298.554	7044
2300.557	7033
2302.562	7074
2304.566	7149
2306.568	7049
2308.569	6975
2310.572	6972
2312.573	6954
2314.573	6952
2316.574	6954
2318.573	7059
2320.571	6979
2322.571	7042
2324.569	6891
2326.567	6958
2328.564	7028
2330.56	7051
2332.556	6935
2334.551	6998
2336.546	7041
2338.542	7055
2340.535	6989
2342.529	6898
2344.521	7098
2346.512	6905
2348.505	6946
2350.497	7043
2352.487	6994
2354.478	6900
2356.468	7052
2358.457	6923
2360.446	6820
2362.434	7035
2364.422	6791
2366.408	6958
2368.395	6893
2370.383	6929
2372.369	6840
2374.353	6837
2376.338	6963
2378.321	6877
2380.307	6962
2382.29	6877
2384.272	6886
2386.254	6913
2388.235	6857
2390.218	6984
2392.198	6890
2394.179	6909
2396.157	6936
2398.137	6934
2400.115	6756
2402.095	6815
2404.072	6821
2406.048	6870
2408.026	6826
2410.001	6931
2411.977	6809
2413.953	6904
2415.927	6857
2417.9	6923
2419.875	6902
2421.847	6874
2423.821	6887
2425.792	6719
2427.763	6865
2429.736	6890
2431.706	6909
2433.677	6875
2435.646	6840
2437.615	6958
2439.583	6763
2441.551	6897
2443.519	6849
2445.486	6825
2447.452	6912
2449.418	6875
2451.383	6928
2453.348	6877
2455.314	6823
2457.278	6886
2459.241	6780
2461.205	6965
2463.167	6848
2465.131	6772
2467.091	6680
2469.052	6785
2471.012	6833
2472.972	6768
2474.932	6784
2476.891	6903
2478.85	6709
2480.808	6901
2482.766	6758
2484.722	6852
2486.68	6835
2488.636	6808
2490.591	6839
2492.546	6825
2494.5	6716
2496.456	6856
2498.41	6841
2500.362	6796
2502.315	6649
2504.266	6841
2506.218	6745
2508.169	6681
2510.121	6827
2512.07	6739
2514.019	6723
2515.968	6766
2517.918	6740
2519.866	6740
2521.813	6795
2523.76	6753
2525.707	6852
2527.653	6817
2529.599	6792
2531.543	6785
2533.489	6840
2535.433	6676
2537.376	6759
2539.32	6731
2541.264	6817
2543.205	6693
2545.147	6720
2547.087	6703
2549.029	6701
2550.969	6768
2552.908	6790
2554.847	6723
2556.786	6783
2558.724	6777
2560.663	6677
2562.6	6703
2564.537	6618
2566.473	6694
2568.408	6690
2570.345	6726
2572.28	6796
2574.214	6669
2576.148	6795
2578.081	6813
2580.014	6776
2581.947	6760
2583.879	6778
2585.81	6745
2587.741	6742
2589.67	6722
2591.602	6822
2593.532	6706
2595.461	6665
2597.388	6692
2599.316	6717
2601.244	6651
2603.172	6860
2605.098	6659
2607.023	6834
2608.949	6740
2610.873	6729
2612.8	6687
2614.723	6820
2616.647	6802
2618.569	6842
2620.493	6834
2622.416	6812
2624.338	6807
2626.258	6733
2628.179	6809
2630.099	6815
2632.019	6880
2633.939	6860
2635.857	6709
2637.775	6882
2639.694	6866
2641.61	6841
2643.528	6674
2645.444	6878
2647.361	6732
2649.276	6687
2651.19	6792
2653.105	6859
2655.019	6672
2656.934	6914
2658.846	6783
2660.758	6764
2662.67	6715
2664.583	6862
2666.493	6722
2668.404	6731
2670.313	6689
2672.223	6795
2674.134	6611
2676.042	6732
2677.95	6745
2679.858	6767
2681.765	6692
2683.673	6763
2685.579	6799
2687.483	6744
2689.389	6808
2691.294	6779
2693.198	6792
2695.104	6751
2697.006	6661
2698.909	6828
2700.811	6812
2702.713	6730
2704.615	6719
2706.516	6659
2708.417	6871
2710.316	6741
2712.216	6655
2714.115	6624
2716.014	6527
2717.913	6678
2719.81	6680
2721.707	6717
2723.603	6760
2725.501	6669
2727.396	6665
2729.292	6673
2731.186	6702
2733.081	6730
2734.976	6677
2736.87	6701
2738.762	6654
2740.653	6715
2742.546	6798
2744.437	6659
2746.329	6693
2748.22	6740
2750.11	6643
2751.999	6692
2753.889	6769
2755.778	6780
2757.666	6531
2759.553	6664
2761.44	6714
2763.328	6759
2765.215	6739
2767.101	6708
2768.986	6746
2770.87	6694
2772.754	6628
2774.638	6718
2776.523	6593
2778.405	6671
2780.288	6662
2782.17	6686
2784.051	6535
2785.934	6719
2787.814	6669
2789.694	6534
2791.574	6525
2793.453	6629
2795.332	6694
2797.212	6558
2799.088	6520
2800.966	6440
2802.843	6567
2804.719	6580
2806.597	6553
2808.471	6616
2810.346	6667
2812.221	6654
2814.094	6516
2815.969	6736
2817.843	6583
2819.714	6657
2821.587	6549
2823.459	6694
2825.329	6575
2827.202	6596
2829.072	6638
2830.942	6586
2832.811	6590
2834.68	6644
2836.549	6567
2838.418	6588
2840.284	6551
2842.152	6553
2844.018	6546
2845.885	6509
2847.751	6674
2849.616	6771
2851.482	6648
2853.345	6585
2855.208	6644
2857.074	6717
2858.937	6715
2860.799	6705
2862.66	6718
2864.522	6686
2866.385	6721
2868.245	6776
2870.104	6819
2871.964	6869
2873.824	6881
2875.683	6835
2877.542	6839
2879.4	6892
2881.257	6955
2883.114	6982
2884.97	7168
2886.827	7066
2888.683	6989
2890.537	7017
2892.392	7085
2894.246	6997
2896.1	7017
2897.954	6932
2899.807	7002
2901.66	6936
2903.51	6945
2905.362	7036
2907.214	7023
2909.065	6912
2910.915	7086
2912.765	7059
2914.613	7099
2916.463	7050
2918.311	7136
2920.158	7250
2922.006	7205
2923.853	7165
2925.698	7282
2927.546	7392
2929.392	7325
2931.236	7380
2933.081	7358
2934.924	7450
2936.77	7411
2938.613	7445
2940.455	7589
2942.298	7567
2944.139	7495
2945.982	7682
2947.823	7606
2949.662	7514
2951.503	7527
2953.342	7368
2955.182	7491
2957.021	7320
2958.858	7412
2960.697	7313
2962.534	7329
2964.37	7406
2966.207	7126
2968.044	7182
2969.879	7051
2971.714	7022
2973.548	7023
2975.383	7205
2977.218	7013
2979.051	6938
2980.883	6878
2982.715	7076
2984.547	6849
2986.379	7061
2988.21	6934
2990.04	6898
2991.87	6725
2993.7	6766
2995.53	6848
2997.359	6799
2999.187	6645
3001.015	6785
3002.842	6674
3004.669	6766
3006.497	6655
3008.323	6586
3010.148	6480
3011.974	6617
3013.797	6503
3015.623	6592
3017.447	6417
3019.27	6480
3021.094	6450
3022.915	6374
3024.737	6310
3026.56	6390
3028.38	6468
3030.201	6320
3032.022	6422
3033.84	6463
3035.662	6454
3037.481	6371
3039.298	6314
3041.117	6348
3042.933	6446
3044.752	6380
3046.568	6245
3048.385	6299
3050.2	6334
3052.016	6327
3053.83	6395
3055.646	6196
3057.46	6364
3059.272	6313
3061.086	6331
3062.898	6338
3064.711	6283
3066.524	6339
3068.335	6297
3070.145	6260
3071.956	6225
3073.766	6194
3075.576	6325
3077.385	6205
3079.193	6258
3081.002	6119
3082.81	6109
3084.618	6267
3086.425	6187
3088.231	6238
3090.036	6152
3091.842	6190
3093.648	6076
3095.452	6180
3097.257	6157
3099.06	6113
3100.863	6208
3102.666	6183
3104.47	6208
3106.272	6153
3108.073	6087
3109.875	6134
3111.676	6019
3113.477	6099
3115.277	6106
3117.077	6101
3118.874	6088
3120.673	6130
3122.473	5931
3124.271	6107
3126.066	6123
3127.863	6040
3129.66	6018
3131.456	6022
3133.252	6002
3135.047	6056
3136.842	5951
3138.635	5957
3140.429	5992
3142.223	5976
3144.016	6063
3145.808	5970
3147.6	5989
3149.392	6107
3151.183	5949
3152.975	5940
3154.765	6009
3156.553	6047
3158.344	5998
3160.132	5976
3161.922	5889
3163.71	5925
3165.497	5907
3167.285	6084
3169.071	5923
3170.858	5964
3172.645	5950
3174.429	5878
3176.214	6039
3177.998	6030
3179.783	5879
3181.568	5846
3183.351	5906
3185.133	5767
3186.915	5926
3188.698	5882
3190.481	5938
3192.261	5964
3194.042	5919
3195.822	5988
3197.601	5846
3199.381	5953
3201.161	5869
3202.939	5947
3204.717	5877
3206.495	5847
3208.272	5906
3210.05	5870
3211.826	5971
3213.602	5828
3215.376	5813
3217.151	6013
3218.927	5784
3220.702	5915
3222.476	5856
3224.249	5956
3226.021	5754
3227.793	5917
3229.567	5881
3231.339	5902
3233.109	5911
3234.88	5973
3236.651	5847
3238.421	5906
3240.191	5845
3241.96	5826
3243.728	5858
3245.497	5865
3247.263	5842
3249.033	5918
3250.799	5879
3252.566	5863
3254.331	5852
3256.097	5792
3257.863	5812
3259.628	5794
3261.392	5926
3263.156	5784
3264.919	5893
3266.683	5807
3268.447	5833
3270.208	5806
3271.969	5765
3273.731	5780
3275.492	5870
3277.253	5837
3279.013	5850
3280.773	5892
3282.532	5877
3284.291	5865
3286.05	5931
3287.808	5823
3289.566	5910
3291.323	5765
3293.079	5841
3294.835	5856
3296.593	5799
3298.348	5866
3300.102	5927
3301.857	5835
3303.611	5896
3305.366	5911
3307.119	5781
3308.872	5857
3310.624	5832
3312.376	5963
3314.129	5828
3315.881	5785
3317.631	5926
3319.38	5722
3321.13	5805
3322.88	5876
3324.631	5855
3326.379	5737
3328.126	5917
3329.875	5826
3331.622	5952
3333.371	5808
3335.116	5745
3336.863	5776
3338.609	5842
3340.353	5813
3342.1	5821
3343.845	5762
3345.588	5840
3347.332	5748
3349.074	5901
3350.817	5810
3352.56	5753
3354.303	5769
3356.043	5657
3357.785	5793
3359.525	5764
3361.268	5912
3363.007	5868
3364.745	5764
3366.485	5681
3368.223	5841
3369.962	5694
3371.701	5733
3373.438	5677
3375.174	5677
3376.911	5722
3378.647	5781
3380.384	5620
3382.118	5722
3383.854	5702
3385.588	5685
3387.322	5818
3389.057	5737
3390.79	5730
3392.522	5730
3394.255	5687
3395.987	5709
3397.719	5719
3399.451	5544
3401.181	5723
3402.911	5612
3404.641	5706
3406.371	5609
3408.101	5717
3409.83	5674
3411.558	5632
3413.285	5629
3415.011	5662
3416.739	5697
3418.467	5642
3420.193	5625
3421.919	5641
3423.644	5576
3425.368	5673
3427.094	5775
3428.818	5522
3430.542	5583
3432.264	5495
3433.987	5595
3435.712	5467
3437.434	5629
3439.155	5521
3440.876	5595
3442.596	5518
3444.317	5560
3446.039	5552
3447.757	5620
3449.477	5506
3451.195	5456
3452.914	5569
3454.632	5554
3456.35	5497
3458.067	5454
3459.784	5486
3461.5	5464
3463.216	5474
3464.932	5516
3466.647	5495
3468.362	5481
3470.076	5446
3471.789	5493
3473.505	5447
3475.217	5394
3476.929	5444
3478.641	5361
3480.354	5499
3482.066	5389
3483.777	5476
3485.487	5360
3487.197	5396
3488.908	5385
3490.617	5414
3492.327	5400
3494.035	5411
3495.743	5409
3497.451	5427
3499.158	5289
3500.866	5408
3502.572	5387
3504.278	5433
3505.984	5363
3507.689	5319
3509.396	5383
3511.1	5261
3512.804	5241
3514.508	5324
3516.211	5306
3517.913	5325
3519.616	5433
3521.319	5349
3523.021	5301
3524.722	5184
3526.422	5355
3528.124	5325
3529.824	5272
3531.524	5274
3533.222	5194
3534.921	5268
3536.62	5298
3538.318	5325
3540.016	5274
3541.714	5279
3543.41	5313
3545.107	5228
3546.803	5230
3548.5	5172
3550.194	5226
3551.889	5224
3553.583	5254
3555.279	5220
3556.972	5220
3558.666	5172
3560.358	5168
3562.051	5169
3563.742	5191
3565.435	5231
3567.126	5185
3568.817	5139
3570.507	5214
3572.197	5191
3573.888	5244
3575.577	5213
3577.265	5110
3578.954	5260
3580.642	5180
3582.329	5191
3584.017	5212
3585.704	5181
3587.391	5161
3589.077	5035
3590.762	5067
3592.449	5195
3594.133	5085
3595.817	5103
3597.501	5107
3599.185	5097
3600.869	5141
3602.552	5144
3604.234	5089
3605.916	5087
3607.598	5145
3609.279	5064
3610.961	5027
3612.642	5041
3614.321	4987
3616	5004
3617.68	5021
3619.36	4989
3621.039	5044
3622.716	4885
3624.394	4928
3626.071	4908
3627.748	4943
3629.425	5079
3631.102	4957
3632.778	5029
3634.452	5001
3636.127	4974
3637.803	5040
3639.477	4968
3641.151	4970
3642.823	4925
3644.497	4915
3646.171	4987
3647.842	4952
3649.515	4894
3651.185	4974
3652.857	4848
3654.527	4907
3656.198	4982
3657.868	4902
3659.537	4954
3661.207	4952
3662.875	4930
3664.544	4937
3666.212	4802
3667.879	4878
3669.546	4749
3671.212	4846
3672.88	4898
3674.546	4825
3676.211	4729
3677.875	4829
3679.541	4949
3681.205	4855
3682.87	4808
3684.533	4777
3686.196	4852
3687.859	4942
3689.521	4865
3691.184	4976
3692.845	4901
3694.507	4822
3696.167	4716
3697.827	4824
3699.487	4847
3701.148	4854
3702.808	4844
3704.466	4850
3706.125	4889
3707.783	4922
3709.442	4861
3711.099	4863
3712.757	4826
3714.412	4825
3716.068	4767
3717.725	4735
3719.381	4772
3721.036	4777
3722.689	4819
3724.344	4780
3725.998	4710
3727.652	4805
3729.305	4784
3730.958	4803
3732.61	4740
3734.262	4810
3735.915	4827
3737.565	4781
3739.217	4779
3740.866	4733
3742.516	4683
3744.165	4686
3745.816	4635
3747.464	4751
3749.113	4702
3750.761	4661
3752.409	4691
3754.057	4777
3755.703	4719
3757.35	4655
3758.996	4685
3760.641	4650
3762.289	4693
3763.933	4754
3765.577	4668
3767.222	4695
3768.865	4673
3770.508	4638
3772.152	4696
3773.796	4739
3775.438	4571
3777.079	4725
3778.721	4668
3780.363	4668
3782.003	4743
3783.643	4663
3785.283	4595
3786.923	4675
3788.563	4622
3790.203	4627
3791.841	4668
3793.479	4558
3795.115	4621
3796.753	4660
3798.391	4586
3800.027	4604
3801.664	4476
3803.299	4630
3804.935	4685
3806.571	4562
3808.206	4581
3809.839	4589
3811.473	4589
3813.107	4580
3814.74	4560
3816.375	4499
3818.006	4657
3819.638	4535
3821.27	4522
3822.9	4523
3824.532	4584
3826.163	4453
3827.792	4514
3829.423	4568
3831.051	4561
3832.682	4496
3834.311	4545
3835.938	4628
3837.566	4442
3839.193	4557
3840.821	4444
3842.448	4599
3844.075	4492
3845.7	4532
3847.325	4450
3848.951	4507
3850.576	4385
3852.201	4445
3853.825	4380
3855.448	4446
3857.072	4525
3858.694	4493
3860.318	4451
3861.939	4464
3863.562	4458
3865.183	4498
3866.804	4419
3868.426	4516
3870.045	4511
3871.666	4436
3873.285	4511
3874.904	4465
3876.524	4406
3878.142	4406
3879.76	4441
3881.378	4361
3882.995	4387
3884.612	4426
3886.229	4393
3887.845	4349
3889.461	4472
3891.076	4432
3892.691	4466
3894.307	4455
3895.922	4367
3897.536	4393
3899.149	4407
3900.761	4295
3902.374	4424
3903.988	4451
3905.6	4468
3907.212	4281
3908.822	4376
3910.433	4406
3912.045	4357
3913.655	4416
3915.265	4405
3916.875	4263
3918.483	4415
3920.093	4368
3921.702	4412
3923.309	4330
3924.917	4433
3926.523	4408
3928.13	4289
3929.739	4228
3931.344	4307
3932.95	4358
3934.555	4375
3936.159	4250
3937.766	4321
3939.369	4318
3940.974	4320
3942.577	4325
3944.181	4391
3945.783	4326
3947.386	4291
3948.989	4313
3950.59	4288
3952.191	4226
3953.791	4363
3955.394	4256
3956.994	4313
3958.593	4245
3960.192	4272
3961.791	4230
3963.392	4251
3964.99	4246
3966.588	4311
3968.185	4223
3969.782	4328
3971.379	4232
3972.976	4277
3974.572	4251
3976.168	4207
3977.763	4208
3979.358	4262
3980.954	4191
3982.548	4194
3984.142	4177
3985.736	4224
3987.329	4136
3988.922	4229
3990.516	4195
3992.108	4230
3993.698	4130
3995.29	4139
3996.881	4124
3998.473	4124
4000.064	4153
4001.653	4168
4003.242	4169
4004.832	4146
4006.422	4118
4008.01	4165
4009.598	4143
4011.186	4125
4012.773	4132
4014.36	4152
4015.947	4015
4017.534	4231
4019.119	4173
4020.705	4050
4022.291	4093
4023.876	4100
4025.461	4115
4027.044	4023
4028.627	4125
4030.211	4152
4031.795	3974
4033.378	4024
4034.96	3987
4036.542	4046
4038.124	4034
4039.704	4018
4041.286	4035
4042.867	3981
4044.447	4016
4046.026	4106
4047.606	4090
4049.187	3990
4050.765	3950
4052.343	3979
4053.92	4017
4055.498	3962
4057.076	3914
4058.654	4081
4060.23	3980
4061.806	4047
4063.381	3976
4064.957	4011
4066.533	4048
4068.107	4032
4069.682	3961
4071.256	3949
4072.829	3964
4074.404	3982
4075.977	3899
4077.549	4006
4079.121	3926
4080.693	3957
4082.265	3958
4083.836	3980
4085.407	3946
4086.977	4010
4088.547	4001
4090.117	3963
4091.687	3918
4093.256	3935
4094.825	3924
4096.392	3918
4097.96	3852
4099.528	3918
4101.097	3835
4102.663	3920
4104.229	3886
4105.795	3937
4107.361	3875
4108.928	3924
4110.493	3857
4112.058	3880
4113.621	3964
4115.186	3888
4116.75	3901
4118.313	3972
4119.876	3926
4121.438	3825
4123	3881
4124.562	3906
4126.125	3858
4127.686	3834
4129.246	3917
4130.807	3813
4132.367	3802
4133.927	3864
4135.486	3857
4137.046	3726
4138.604	3856
4140.162	3825
4141.72	3903
4143.279	3771
4144.836	3886
4146.393	3780
4147.949	3807
4149.505	3780
4151.062	3726
4152.617	3766
4154.172	3769
4155.727	3725
4157.281	3801
4158.836	3783
4160.39	3777
4161.943	3693
4163.496	3705
4165.048	3647
4166.601	3787
4168.154	3773
4169.706	3725
4171.257	3661
4172.808	3765
4174.358	3745
4175.909	3769
4177.458	3701
4179.008	3697
4180.558	3692
4182.106	3736
4183.655	3716
4185.204	3658
4186.751	3617
4188.298	3718
4189.845	3701
4191.392	3687
4192.939	3669
4194.485	3692
4196.031	3652
4197.576	3693
4199.121	3660
4200.666	3660
4202.211	3645
4203.754	3753
4205.298	3587
4206.84	3618
4208.384	3643
4209.927	3597
4211.47	3660
4213.011	3604
4214.552	3609
4216.094	3677
4217.635	3634
4219.175	3640
4220.716	3636
4222.255	3654
4223.793	3647
4225.335	3626
4226.873	3609
4228.411	3657
4229.948	3611
4231.486	3613
4233.024	3585
4234.562	3545
4236.098	3637
4237.634	3648
4239.169	3632
4240.705	3612
4242.241	3525
4243.776	3581
4245.31	3611
4246.844	3535
4248.378	3513
4249.911	3599
4251.445	3600
4252.978	3683
4254.51	3506
4256.042	3543
4257.574	3547
4259.107	3549
4260.638	3516
4262.169	3484
4263.699	3584
4265.228	3529
4266.759	3596
4268.289	3565
4269.818	3533
4271.345	3544
4272.874	3527
4274.402	3522
4275.931	3576
4277.458	3509
4278.985	3519
4280.512	3482
4282.037	3491
4283.564	3516
4285.089	3493
4286.615	3591
4288.139	3502
4289.664	3515
4291.187	3535
4292.712	3446
4294.235	3470
4295.759	3552
4297.281	3498
4298.804	3540
4300.327	3416
4301.849	3457
4303.37	3456
4304.891	3450
4306.412	3381
4307.933	3403
4309.453	3527
4310.973	3451
4312.492	3389
