398.1873	3526
400.7097	3690
403.2336	3698
405.7547	3739
408.2751	3676
410.7948	3812
413.3138	3723
415.83	3831
418.3497	3756
420.8666	3776
423.3829	3905
425.8985	3872
428.4133	3968
430.9275	3944
433.441	3955
435.9538	4004
438.4639	4017
440.9753	3971
443.4881	3969
445.9982	4016
448.5055	3851
451.0142	3925
453.5201	3968
456.0274	3914
458.5361	3995
461.04	3856
463.5453	3893
466.0478	3860
468.5517	3975
471.0549	3968
473.5574	3978
476.0572	3955
478.5584	3893
481.0568	3999
483.5545	4003
486.0557	3932
488.5521	3913
491.0478	3881
493.5449	3936
496.0392	4069
498.5349	3940
501.0299	3955
503.5222	3941
506.0139	3967
508.5048	3988
510.9991	3980
513.4887	4045
515.9777	3975
518.4659	4014
520.9534	4006
523.4403	4049
525.9306	4056
528.4161	4010
530.9009	4022
533.3851	3949
535.8687	4117
538.3535	4040
540.8356	4020
543.3171	3920
545.7979	4054
548.278	4083
550.7595	4068
553.2383	4128
555.7144	4108
558.1918	4058
560.6685	4076
563.1446	4167
565.6221	4063
568.0968	4087
570.5688	4180
573.0422	4170
575.515	4131
577.989	4167
580.4584	4172
582.9291	4236
585.3991	4284
587.8685	4314
590.3352	4282
592.8052	4255
595.2706	4252
597.7372	4258
600.2033	4144
602.6666	4204
605.1334	4223
607.5953	4247
610.0587	4242
612.5193	4206
614.9814	4168
617.4427	4232
619.9034	4200
622.3615	4154
624.8208	4165
627.2775	4172
629.7335	4198
632.1929	4212
634.6476	4212
637.1016	4135
639.5569	4192
642.0096	4130
644.4637	4133
646.9151	4173
649.3678	4161
651.8179	4214
654.2672	4202
656.7159	4207
659.166	4277
661.6154	4205
664.0622	4238
666.5082	4175
668.9537	4103
671.4005	4216
673.8445	4255
676.288	4209
678.7308	4339
681.1729	4264
683.6163	4313
686.0572	4331
688.4973	4407
690.9368	4363
693.3757	4332
695.8138	4283
698.2534	4427
700.6902	4280
703.1245	4343
705.56	4369
707.9949	4342
710.4311	4418
712.8647	4346
715.2957	4393
717.7279	4359
720.1595	4419
722.5905	4376
725.0208	4429
727.4505	4462
729.8795	4382
732.3058	4437
734.7336	4391
737.1626	4467
739.587	4503
742.0128	4480
744.4359	4464
746.8604	4584
749.2841	4447
751.7073	4482
754.1278	4585
756.5496	4584
758.9688	4556
761.3893	4669
763.8093	4527
766.2285	4528
768.6451	4575
771.0611	4615
773.4784	4599
775.895	4585
778.3091	4559
780.7244	4592
783.1371	4584
785.5493	4641
787.9626	4592
790.3754	4663
792.7856	4602
795.1951	4681
797.6039	4510
800.0121	4617
802.4236	4645
804.8306	4608
807.2369	4588
809.6425	4601
812.0475	4707
814.4538	4662
816.8575	4673
819.2606	4667
821.663	4642
824.0648	4597
826.4659	4695
828.8683	4638
831.2682	4702
833.6674	4646
836.066	4755
838.4639	4619
840.8632	4676
843.2579	4663
845.6539	4655
848.0493	4762
850.444	4790
852.84	4810
855.2315	4726
857.6243	4808
860.0165	4764
862.4081	4890
864.797	4773
867.1892	4798
869.5789	4737
871.9659	4820
874.3542	4732
876.74	4808
879.129	4697
881.5155	4786
883.8994	4748
886.2845	4758
888.6671	4711
891.051	4734
893.4343	4686
895.8169	4854
898.197	4706
900.5783	4750
902.9571	4662
905.3372	4714
907.7167	4824
910.0936	4746
912.4698	4862
914.8474	4838
917.2244	4808
919.5987	4843
921.9744	4876
924.3475	4929
926.72	5048
929.0918	5130
931.4669	5037
933.8375	4961
936.2074	5048
938.5767	5143
940.9454	5104
943.3154	5266
945.6829	5325
948.0497	5548
950.4178	5697
952.7833	5865
955.1483	6147
957.5145	6492
959.8782	6458
962.2412	6523
964.6036	6317
966.9655	6043
969.3266	5865
971.6871	5466
974.0471	5343
976.4064	5172
978.765	4996
981.125	4971
983.4824	4946
985.8373	4848
988.1935	5032
990.549	4925
992.9039	4885
995.2602	4890
997.6119	4958
999.965	4973
1002.317	4943
1004.667	4998
1007.02	4880
1009.371	4902
1011.719	4913
1014.068	4904
1016.415	4895
1018.765	5023
1021.111	5023
1023.458	4978
1025.804	4950
1028.147	5018
1030.49	5091
1032.837	5014
1035.179	5107
1037.522	4972
1039.862	5068
1042.204	5018
1044.546	5050
1046.884	5088
1049.224	5022
1051.562	5033
1053.899	5073
1056.237	5109
1058.575	5020
1060.91	5163
1063.244	5132
1065.58	5157
1067.913	5101
1070.248	5148
1072.579	5154
1074.911	5318
1077.242	5187
1079.572	5182
1081.905	5182
1084.234	5145
1086.562	5135
1088.89	4997
1091.217	5082
1093.544	5020
1095.871	4946
1098.197	5072
1100.521	5110
1102.845	4996
1105.169	5058
1107.491	5065
1109.814	5018
1112.135	4974
1114.456	5004
1116.776	5093
1119.096	5086
1121.415	5096
1123.734	5046
1126.052	5077
1128.369	5016
1130.686	5010
1133.002	5164
1135.318	5060
1137.632	5028
1139.945	5082
1142.258	4992
1144.573	5061
1146.884	5017
1149.196	4986
1151.505	5098
1153.816	5062
1156.124	5025
1158.435	5091
1160.742	5148
1163.051	4992
1165.356	5115
1167.663	5138
1169.97	5029
1172.276	5083
1174.579	5015
1176.881	5039
1179.186	4966
1181.487	5159
1183.79	4953
1186.092	5090
1188.392	4990
1190.691	5129
1192.991	5094
1195.291	4968
1197.588	5056
1199.885	5078
1202.181	5034
1204.479	5072
1206.775	5114
1209.07	5115
1211.363	5105
1213.656	5047
1215.949	5164
1218.241	4992
1220.534	5142
1222.825	5094
1225.115	5091
1227.405	5066
1229.693	5241
1231.984	5178
1234.271	5163
1236.558	5258
1238.845	5330
1241.131	5310
1243.416	5251
1245.703	5301
1247.987	5267
1250.269	5258
1252.552	5224
1254.834	5261
1257.118	5295
1259.399	5153
1261.678	5287
1263.958	5275
1266.237	5308
1268.516	5324
1270.794	5300
1273.072	5270
1275.347	5342
1277.624	5208
1279.899	5216
1282.175	5238
1284.449	5170
1286.722	5312
1288.995	5190
1291.266	5154
1293.54	5217
1295.81	5279
1298.081	5218
1300.35	5215
1302.62	5277
1304.889	5201
1307.156	5204
1309.425	5212
1311.69	5149
1313.957	5278
1316.222	5243
1318.488	5281
1320.751	5164
1323.016	5156
1325.278	5242
1327.54	5222
1329.803	5240
1332.065	5188
1334.325	5185
1336.584	5250
1338.843	5237
1341.101	5178
1343.36	5161
1345.617	5323
1347.876	5246
1350.131	5196
1352.387	5198
1354.643	5303
1356.897	5184
1359.151	5215
1361.403	5317
1363.656	5181
1365.909	5188
1368.16	5240
1370.409	5244
1372.659	5210
1374.909	5243
1377.157	5245
1379.407	5321
1381.655	5322
1383.9	5232
1386.147	5255
1388.393	5208
1390.64	5273
1392.885	5267
1395.127	5299
1397.37	5248
1399.614	5352
1401.854	5217
1404.098	5334
1406.339	5364
1408.578	5311
1410.818	5314
1413.056	5292
1415.297	5322
1417.533	5475
1419.771	5379
1422.006	5366
1424.243	5361
1426.479	5434
1428.715	5420
1430.948	5401
1433.182	5455
1435.414	5425
1437.647	5492
1439.88	5569
1442.11	5405
1444.342	5541
1446.571	5458
1448.799	5502
1451.029	5550
1453.258	5379
1455.485	5652
1457.711	5517
1459.937	5500
1462.164	5439
1464.39	5436
1466.614	5462
1468.838	5342
1471.06	5472
1473.283	5376
1475.506	5414
1477.727	5320
1479.949	5331
1482.169	5269
1484.389	5382
1486.609	5384
1488.828	5254
1491.045	5319
1493.261	5226
1495.477	5239
1497.693	5249
1499.91	5346
1502.125	5266
1504.339	5240
1506.553	5162
1508.766	5312
1510.979	5216
1513.191	5224
1515.402	5279
1517.613	5309
1519.823	5321
1522.033	5264
1524.242	5286
1526.451	5248
1528.657	5372
1530.865	5191
1533.072	5279
1535.278	5247
1537.484	5233
1539.687	5155
1541.892	5321
1544.096	5242
1546.299	5292
1548.502	5286
1550.703	5310
1552.905	5444
1555.104	5229
1557.303	5365
1559.505	5346
1561.703	5360
1563.902	5429
1566.099	5304
1568.295	5425
1570.494	5305
1572.689	5361
1574.883	5258
1577.079	5482
1579.272	5388
1581.467	5414
1583.659	5448
1585.853	5485
1588.044	5438
1590.234	5359
1592.424	5453
1594.615	5406
1596.806	5395
1598.994	5385
1601.182	5400
1603.369	5548
1605.557	5444
1607.744	5513
1609.929	5487
1612.114	5458
1614.298	5452
1616.482	5444
1618.667	5460
1620.85	5457
1623.032	5372
1625.214	5509
1627.395	5534
1629.575	5509
1631.755	5566
1633.935	5452
1636.114	5569
1638.292	5574
1640.471	5512
1642.647	5549
1644.823	5604
1647	5550
1649.175	5578
1651.348	5517
1653.525	5583
1655.698	5550
1657.87	5715
1660.043	5469
1662.213	5683
1664.387	5652
1666.558	5672
1668.727	5589
1670.896	5737
1673.064	5590
1675.233	5576
1677.401	5632
1679.569	5601
1681.735	5550
1683.902	5655
1686.066	5602
1688.233	5580
1690.397	5580
1692.559	5516
1694.723	5490
1696.885	5584
1699.048	5470
1701.21	5498
1703.37	5428
1705.53	5542
1707.689	5488
1709.849	5475
1712.009	5470
1714.166	5366
1716.323	5467
1718.479	5519
1720.634	5579
1722.793	5512
1724.948	5454
1727.102	5485
1729.255	5408
1731.408	5503
1733.562	5476
1735.714	5493
1737.865	5481
1740.016	5552
1742.166	5427
1744.316	5515
1746.467	5508
1748.616	5517
1750.764	5469
1752.911	5609
1755.056	5576
1757.205	5412
1759.35	5564
1761.496	5468
1763.641	5605
1765.785	5438
1767.927	5540
1770.072	5596
1772.214	5449
1774.355	5516
1776.496	5499
1778.637	5555
1780.778	5523
1782.918	5490
1785.057	5498
1787.194	5485
1789.333	5502
1791.472	5515
1793.608	5626
1795.745	5550
1797.879	5576
1800.015	5622
1802.148	5440
1804.284	5510
1806.417	5557
1808.548	5600
1810.682	5558
1812.812	5654
1814.946	5397
1817.075	5498
1819.205	5526
1821.335	5508
1823.463	5542
1825.59	5576
1827.721	5593
1829.847	5599
1831.973	5503
1834.098	5539
1836.223	5622
1838.351	5559
1840.475	5551
1842.598	5573
1844.721	5589
1846.843	5472
1848.966	5517
1851.087	5482
1853.21	5468
1855.33	5573
1857.449	5473
1859.568	5564
1861.688	5472
1863.806	5511
1865.924	5539
1868.039	5551
1870.155	5544
1872.273	5469
1874.388	5445
1876.503	5437
1878.617	5441
1880.73	5484
1882.844	5452
1884.956	5470
1887.068	5534
1889.18	5480
1891.291	5546
1893.4	5502
1895.511	5557
1897.621	5505
1899.73	5587
1901.837	5503
1903.944	5519
1906.053	5629
1908.159	5532
1910.265	5473
1912.369	5584
1914.474	5537
1916.577	5590
1918.683	5647
1920.785	5508
1922.888	5626
1924.989	5588
1927.091	5578
1929.193	5645
1931.294	5559
1933.393	5598
1935.493	5639
1937.59	5634
1939.689	5708
1941.788	5649
1943.884	5772
1945.98	5574
1948.077	5679
1950.171	5635
1952.267	5612
1954.361	5750
1956.455	5622
1958.548	5665
1960.64	5574
1962.733	5592
1964.824	5552
1966.915	5559
1969.005	5547
1971.096	5621
1973.185	5680
1975.275	5527
1977.363	5556
1979.45	5660
1981.537	5685
1983.623	5648
1985.711	5545
1987.796	5566
1989.881	5617
1991.965	5604
1994.047	5517
1996.132	5666
1998.215	5540
2000.297	5542
2002.378	5577
2004.46	5599
2006.54	5517
2008.62	5486
2010.7	5619
2012.779	5564
2014.858	5569
2016.934	5635
2019.013	5595
2021.09	5482
2023.165	5626
2025.241	5489
2027.317	5650
2029.39	5504
2031.466	5579
2033.538	5546
2035.612	5611
2037.683	5622
2039.755	5675
2041.827	5591
2043.898	5519
2045.968	5522
2048.038	5472
2050.106	5637
2052.177	5600
2054.244	5571
2056.313	5608
2058.379	5535
2060.444	5647
2062.511	5524
2064.577	5542
2066.641	5554
2068.705	5529
2070.77	5617
2072.832	5567
2074.896	5623
2076.958	5634
2079.02	5667
2081.081	5521
2083.141	5609
2085.2	5618
2087.261	5679
2089.319	5528
2091.377	5555
2093.435	5610
2095.492	5689
2097.552	5692
2099.607	5653
2101.663	5718
2103.718	5593
2105.771	5636
2107.826	5598
2109.879	5563
2111.932	5665
2113.985	5631
2116.037	5586
2118.088	5589
2120.141	5639
2122.191	5691
2124.239	5624
2126.288	5609
2128.337	5658
2130.387	5495
2132.434	5631
2134.481	5652
2136.528	5571
2138.574	5668
2140.618	5608
2142.665	5580
2144.71	5711
2146.753	5621
2148.797	5541
2150.838	5621
2152.883	5506
2154.923	5564
2156.965	5549
2159.007	5611
2161.046	5632
2163.086	5615
2165.126	5564
2167.163	5603
2169.202	5721
2171.239	5538
2173.277	5605
2175.314	5542
2177.349	5505
2179.385	5590
2181.42	5617
2183.453	5600
2185.49	5559
2187.522	5585
2189.555	5546
2191.586	5486
2193.619	5473
2195.651	5531
2197.682	5572
2199.711	5542
2201.74	5491
2203.769	5625
2205.799	5402
2207.828	5403
2209.855	5583
2211.882	5447
2213.908	5551
2215.934	5508
2217.961	5560
2219.986	5579
2222.01	5524
2224.034	5600
2226.057	5577
2228.08	5540
2230.104	5455
2232.124	5560
2234.145	5564
2236.166	5525
2238.186	5407
2240.207	5494
2242.227	5589
2244.244	5563
2246.262	5492
2248.28	5500
2250.299	5499
2252.314	5454
2254.33	5581
2256.346	5530
2258.36	5411
2260.375	5565
2262.391	5505
2264.403	5544
2266.416	5519
2268.427	5636
2270.44	5525
2272.453	5514
2274.463	5599
2276.474	5568
2278.483	5624
2280.493	5461
2282.501	5573
2284.51	5481
2286.518	5524
2288.524	5542
2290.532	5539
2292.537	5564
2294.544	5401
2296.55	5454
2298.554	5522
2300.557	5543
2302.562	5504
2304.566	5572
2306.568	5444
2308.569	5447
2310.572	5526
2312.573	5605
2314.573	5517
2316.574	5556
2318.573	5382
2320.571	5492
2322.571	5581
2324.569	5453
2326.567	5456
2328.564	5468
2330.56	5482
2332.556	5455
2334.551	5490
2336.546	5397
2338.542	5442
2340.535	5410
2342.529	5371
2344.521	5549
2346.512	5373
2348.505	5446
2350.497	5300
2352.487	5494
2354.478	5465
2356.468	5431
2358.457	5407
2360.446	5379
2362.434	5409
2364.422	5366
2366.408	5451
2368.395	5372
2370.383	5448
2372.369	5427
2374.353	5494
2376.338	5406
2378.321	5341
2380.307	5409
2382.29	5496
2384.272	5377
2386.254	5452
2388.235	5359
2390.218	5461
2392.198	5349
2394.179	5358
2396.157	5397
2398.137	5382
2400.115	5341
2402.095	5290
2404.072	5306
2406.048	5479
2408.026	5424
2410.001	5452
2411.977	5453
2413.953	5317
2415.927	5343
2417.9	5385
2419.875	5474
2421.847	5394
2423.821	5466
2425.792	5405
2427.763	5449
2429.736	5292
2431.706	5496
2433.677	5425
2435.646	5414
2437.615	5388
2439.583	5450
2441.551	5483
2443.519	5410
2445.486	5475
2447.452	5368
2449.418	5298
2451.383	5349
2453.348	5404
2455.314	5398
2457.278	5413
2459.241	5322
2461.205	5399
2463.167	5382
2465.131	5340
2467.091	5310
2469.052	5271
2471.012	5300
2472.972	5362
2474.932	5367
2476.891	5360
2478.85	5487
2480.808	5291
2482.766	5397
2484.722	5256
2486.68	5328
2488.636	5403
2490.591	5315
2492.546	5443
2494.5	5260
2496.456	5400
2498.41	5379
2500.362	5215
2502.315	5260
2504.266	5368
2506.218	5310
2508.169	5298
2510.121	5288
2512.07	5338
2514.019	5382
2515.968	5315
2517.918	5378
2519.866	5343
2521.813	5188
2523.76	5423
2525.707	5287
2527.653	5407
2529.599	5375
2531.543	5348
2533.489	5315
2535.433	5297
2537.376	5253
2539.32	5370
2541.264	5471
2543.205	5257
2545.147	5315
2547.087	5291
2549.029	5242
2550.969	5387
2552.908	5391
2554.847	5304
2556.786	5308
2558.724	5389
2560.663	5295
2562.6	5249
2564.537	5269
2566.473	5327
2568.408	5349
2570.345	5310
2572.28	5406
2574.214	5215
2576.148	5298
2578.081	5281
2580.014	5173
2581.947	5201
2583.879	5262
2585.81	5239
2587.741	5363
2589.67	5322
2591.602	5264
2593.532	5264
2595.461	5315
2597.388	5334
2599.316	5372
2601.244	5309
2603.172	5272
2605.098	5354
2607.023	5292
2608.949	5376
2610.873	5341
2612.8	5393
2614.723	5245
2616.647	5382
2618.569	5333
2620.493	5427
2622.416	5407
2624.338	5351
2626.258	5335
2628.179	5452
2630.099	5350
2632.019	5371
2633.939	5183
2635.857	5437
2637.775	5405
2639.694	5378
2641.61	5461
2643.528	5264
2645.444	5285
2647.361	5300
2649.276	5345
2651.19	5361
2653.105	5326
2655.019	5337
2656.934	5353
2658.846	5349
2660.758	5436
2662.67	5300
2664.583	5369
2666.493	5411
2668.404	5359
2670.313	5216
2672.223	5373
2674.134	5343
2676.042	5352
2677.95	5345
2679.858	5378
2681.765	5370
2683.673	5332
2685.579	5391
2687.483	5471
2689.389	5369
2691.294	5245
2693.198	5387
2695.104	5338
2697.006	5314
2698.909	5341
2700.811	5283
2702.713	5369
2704.615	5241
2706.516	5403
2708.417	5267
2710.316	5197
2712.216	5294
2714.115	5225
2716.014	5309
2717.913	5308
2719.81	5266
2721.707	5199
2723.603	5364
2725.501	5359
2727.396	5348
2729.292	5256
2731.186	5324
2733.081	5311
2734.976	5253
2736.87	5306
2738.762	5384
2740.653	5261
2742.546	5326
2744.437	5234
2746.329	5359
2748.22	5286
2750.11	5301
2751.999	5316
2753.889	5228
2755.778	5303
2757.666	5231
2759.553	5229
2761.44	5209
2763.328	5270
2765.215	5252
2767.101	5274
2768.986	5328
2770.87	5256
2772.754	5213
2774.638	5219
2776.523	5204
2778.405	5227
2780.288	5335
2782.17	5301
2784.051	5157
2785.934	5284
2787.814	5119
2789.694	5208
2791.574	5235
2793.453	5141
2795.332	5262
2797.212	5242
2799.088	5272
2800.966	5182
2802.843	5263
2804.719	5265
2806.597	5175
2808.471	5124
2810.346	5170
2812.221	5135
2814.094	5304
2815.969	5231
2817.843	5226
2819.714	5191
2821.587	5246
2823.459	5169
2825.329	5114
2827.202	5189
2829.072	5307
2830.942	5223
2832.811	5278
2834.68	5265
2836.549	5187
2838.418	5229
2840.284	5267
2842.152	5334
2844.018	5284
2845.885	5285
2847.751	5241
2849.616	5282
2851.482	5275
2853.345	5415
2855.208	5276
2857.074	5285
2858.937	5239
2860.799	5343
2862.66	5287
2864.522	5344
2866.385	5354
2868.245	5463
2870.104	5469
2871.964	5544
2873.824	5487
2875.683	5586
2877.542	5538
2879.4	5612
2881.257	5685
2883.114	5651
2884.97	5679
2886.827	5570
2888.683	5626
2890.537	5669
2892.392	5600
2894.246	5676
2896.1	5630
2897.954	5594
2899.807	5608
2901.66	5657
2903.51	5677
2905.362	5689
2907.214	5668
2909.065	5641
2910.915	5728
2912.765	5740
2914.613	5742
2916.463	5837
2918.311	5913
2920.158	5869
2922.006	5977
2923.853	5976
2925.698	6017
2927.546	6059
2929.392	6221
2931.236	6154
2933.081	6160
2934.924	6148
2936.77	6249
2938.613	6323
2940.455	6296
2942.298	6329
2944.139	6408
2945.982	6381
2947.823	6310
2949.662	6243
2951.503	6217
2953.342	6240
2955.182	6119
2957.021	6177
2958.858	6081
2960.697	6034
2962.534	5936
2964.37	6068
2966.207	5896
2968.044	5728
2969.879	5893
2971.714	5858
2973.548	5930
2975.383	5739
2977.218	5762
2979.051	5872
2980.883	5693
2982.715	5826
2984.547	5694
2986.379	5700
2988.21	5759
2990.04	5564
2991.87	5629
2993.7	5576
2995.53	5623
2997.359	5560
2999.187	5421
3001.015	5451
3002.842	5435
3004.669	5460
3006.497	5394
3008.323	5221
3010.148	5293
3011.974	5265
3013.797	5206
3015.623	5152
3017.447	5207
3019.27	5214
3021.094	5193
3022.915	5122
3024.737	5136
3026.56	5228
3028.38	5117
3030.201	5062
3032.022	5050
3033.84	5106
3035.662	4933
3037.481	4994
3039.298	5040
3041.117	5039
3042.933	4956
3044.752	5058
3046.568	5075
3048.385	5042
3050.2	4984
3052.016	5077
3053.83	5099
3055.646	5148
3057.46	5078
3059.272	4948
3061.086	4982
3062.898	5103
3064.711	5031
3066.524	5075
3068.335	4906
3070.145	4957
3071.956	5029
3073.766	4923
3075.576	4962
3077.385	4947
3079.193	4893
3081.002	4853
3082.81	5020
3084.618	4904
3086.425	4900
3088.231	5018
3090.036	4933
3091.842	4905
3093.648	4990
3095.452	4894
3097.257	4953
3099.06	4847
3100.863	4815
3102.666	4923
3104.47	4916
3106.272	4877
3108.073	4882
3109.875	4838
3111.676	4956
3113.477	4838
3115.277	4786
3117.077	4856
3118.874	4876
3120.673	4840
3122.473	4804
3124.271	4875
3126.066	4889
3127.863	4745
3129.66	4863
3131.456	4778
3133.252	4828
3135.047	4755
3136.842	4862
3138.635	4754
3140.429	4823
3142.223	4822
3144.016	4850
3145.808	4853
3147.6	4760
3149.392	4801
3151.183	4747
3152.975	4787
3154.765	4789
3156.553	4743
3158.344	4779
3160.132	4736
3161.922	4745
3163.71	4693
3165.497	4690
3167.285	4726
3169.071	4797
3170.858	4748
3172.645	4805
3174.429	4823
3176.214	4711
3177.998	4639
3179.783	4730
3181.568	4797
3183.351	4684
3185.133	4798
3186.915	4722
3188.698	4767
3190.481	4752
3192.261	4689
3194.042	4729
3195.822	4707
3197.601	4776
3199.381	4679
3201.161	4648
3202.939	4724
3204.717	4739
3206.495	4679
3208.272	4712
3210.05	4642
3211.826	4698
3213.602	4677
3215.376	4619
3217.151	4732
3218.927	4713
3220.702	4677
3222.476	4669
3224.249	4633
3226.021	4602
3227.793	4724
3229.567	4719
3231.339	4752
3233.109	4695
3234.88	4722
3236.651	4660
3238.421	4596
3240.191	4727
3241.96	4636
3243.728	4681
3245.497	4724
3247.263	4667
3249.033	4722
3250.799	4621
3252.566	4712
3254.331	4744
3256.097	4652
3257.863	4695
3259.628	4694
3261.392	4819
3263.156	4642
3264.919	4715
3266.683	4695
3268.447	4606
3270.208	4718
3271.969	4715
3273.731	4737
3275.492	4731
3277.253	4735
3279.013	4693
3280.773	4795
3282.532	4700
3284.291	4636
3286.05	4698
3287.808	4680
3289.566	4703
3291.323	4652
3293.079	4693
3294.835	4693
3296.593	4723
3298.348	4716
3300.102	4732
3301.857	4742
3303.611	4810
3305.366	4774
3307.119	4661
3308.872	4627
3310.624	4678
3312.376	4721
3314.129	4766
3315.881	4718
3317.631	4685
3319.38	4762
3321.13	4749
3322.88	4747
3324.631	4597
3326.379	4745
3328.126	4771
3329.875	4672
3331.622	4743
3333.371	4691
3335.116	4550
3336.863	4709
3338.609	4694
3340.353	4773
3342.1	4717
3343.845	4669
3345.588	4647
3347.332	4569
3349.074	4613
3350.817	4593
3352.56	4722
3354.303	4585
3356.043	4636
3357.785	4605
3359.525	4697
3361.268	4587
3363.007	4682
3364.745	4640
3366.485	4626
3368.223	4659
3369.962	4710
3371.701	4667
3373.438	4677
3375.174	4598
3376.911	4635
3378.647	4687
3380.384	4619
3382.118	4669
3383.854	4555
3385.588	4638
3387.322	4568
3389.057	4618
3390.79	4601
3392.522	4574
3394.255	4540
3395.987	4555
3397.719	4515
3399.451	4612
3401.181	4479
3402.911	4620
3404.641	4621
3406.371	4525
3408.101	4485
3409.83	4565
3411.558	4517
3413.285	4510
3415.011	4525
3416.739	4579
3418.467	4549
3420.193	4562
3421.919	4526
3423.644	4590
3425.368	4439
3427.094	4519
3428.818	4573
3430.542	4506
3432.264	4552
3433.987	4550
3435.712	4468
3437.434	4473
3439.155	4400
3440.876	4523
3442.596	4496
3444.317	4460
3446.039	4530
3447.757	4474
3449.477	4420
3451.195	4433
3452.914	4488
3454.632	4515
3456.35	4439
3458.067	4357
3459.784	4396
3461.5	4374
3463.216	4443
3464.932	4411
3466.647	4306
3468.362	4452
3470.076	4437
3471.789	4344
3473.505	4446
3475.217	4351
3476.929	4406
3478.641	4383
3480.354	4349
3482.066	4419
3483.777	4241
3485.487	4330
3487.197	4397
3488.908	4387
3490.617	4345
3492.327	4387
3494.035	4343
3495.743	4290
3497.451	4305
3499.158	4398
3500.866	4365
3502.572	4250
3504.278	4255
3505.984	4355
3507.689	4282
3509.396	4279
3511.1	4283
3512.804	4350
3514.508	4292
3516.211	4227
3517.913	4265
3519.616	4229
3521.319	4216
3523.021	4287
3524.722	4229
3526.422	4146
3528.124	4273
3529.824	4232
3531.524	4213
3533.222	4181
3534.921	4327
3536.62	4186
3538.318	4301
3540.016	4197
3541.714	4117
3543.41	4200
3545.107	4312
3546.803	4166
3548.5	4215
3550.194	4105
3551.889	4178
3553.583	4154
3555.279	4130
3556.972	4132
3558.666	4132
3560.358	4210
3562.051	4159
3563.742	4126
3565.435	4201
3567.126	4204
3568.817	4149
3570.507	4136
3572.197	4215
3573.888	4235
3575.577	4221
3577.265	4166
3578.954	4039
3580.642	4134
3582.329	4202
3584.017	4078
3585.704	4115
3587.391	4088
3589.077	4032
3590.762	4089
3592.449	4062
3594.133	4054
3595.817	4073
3597.501	4081
3599.185	3943
3600.869	4135
3602.552	3998
3604.234	4036
3605.916	4011
3607.598	4038
3609.279	4044
3610.961	3961
3612.642	3995
3614.321	4105
3616	4009
3617.68	3940
3619.36	4018
3621.039	3891
3622.716	3943
3624.394	3997
3626.071	3943
3627.748	3957
3629.425	3896
3631.102	3942
3632.778	3949
3634.452	3915
3636.127	3954
3637.803	3920
3639.477	3950
3641.151	3849
3642.823	3965
3644.497	3961
3646.171	3953
3647.842	3985
3649.515	3947
3651.185	3925
3652.857	3857
3654.527	3875
3656.198	3850
3657.868	3833
3659.537	3839
3661.207	3884
3662.875	3881
3664.544	3807
3666.212	3972
3667.879	3847
3669.546	3921
3671.212	3826
3672.88	3877
3674.546	3822
3676.211	3849
3677.875	3869
3679.541	3847
3681.205	3898
3682.87	3830
3684.533	3852
3686.196	3817
3687.859	3880
3689.521	3891
3691.184	3771
3692.845	3882
3694.507	3818
3696.167	3908
3697.827	3756
3699.487	3793
3701.148	3775
3702.808	3709
3704.466	3891
3706.125	3803
3707.783	3808
3709.442	3844
3711.099	3742
3712.757	3855
3714.412	3839
3716.068	3770
3717.725	3847
3719.381	3802
3721.036	3748
3722.689	3810
3724.344	3741
3725.998	3785
3727.652	3736
3729.305	3743
3730.958	3704
3732.61	3678
3734.262	3741
3735.915	3745
3737.565	3756
3739.217	3756
3740.866	3785
3742.516	3759
3744.165	3824
3745.816	3717
3747.464	3755
3749.113	3849
3750.761	3772
3752.409	3737
3754.057	3810
3755.703	3703
3757.35	3789
3758.996	3787
3760.641	3661
3762.289	3763
3763.933	3701
3765.577	3782
3767.222	3710
3768.865	3786
3770.508	3738
3772.152	3627
3773.796	3619
3775.438	3675
3777.079	3685
3778.721	3709
3780.363	3711
3782.003	3677
3783.643	3701
3785.283	3630
3786.923	3702
3788.563	3698
3790.203	3614
3791.841	3631
3793.479	3632
3795.115	3700
3796.753	3561
3798.391	3673
3800.027	3549
3801.664	3720
3803.299	3656
3804.935	3650
3806.571	3640
3808.206	3583
3809.839	3677
3811.473	3698
3813.107	3569
3814.74	3618
3816.375	3560
3818.006	3652
3819.638	3575
3821.27	3654
3822.9	3562
3824.532	3627
3826.163	3586
3827.792	3611
3829.423	3580
3831.051	3613
3832.682	3541
3834.311	3561
3835.938	3580
3837.566	3517
3839.193	3540
3840.821	3650
3842.448	3583
3844.075	3532
3845.7	3539
3847.325	3517
3848.951	3567
3850.576	3605
3852.201	3554
3853.825	3542
3855.448	3501
3857.072	3600
3858.694	3609
3860.318	3535
3861.939	3533
3863.562	3547
3865.183	3468
3866.804	3510
3868.426	3471
3870.045	3445
3871.666	3448
3873.285	3500
3874.904	3512
3876.524	3468
3878.142	3573
3879.76	3482
3881.378	3598
3882.995	3506
3884.612	3492
3886.229	3484
3887.845	3464
3889.461	3578
3891.076	3469
3892.691	3462
3894.307	3484
3895.922	3597
3897.536	3503
3899.149	3435
3900.761	3449
3902.374	3451
3903.988	3486
3905.6	3386
3907.212	3456
3908.822	3451
3910.433	3518
3912.045	3466
3913.655	3509
3915.265	3390
3916.875	3477
3918.483	3462
3920.093	3462
3921.702	3448
3923.309	3456
3924.917	3468
3926.523	3529
3928.13	3448
3929.739	3423
3931.344	3475
3932.95	3487
3934.555	3477
3936.159	3445
3937.766	3451
3939.369	3425
3940.974	3390
3942.577	3427
3944.181	3393
3945.783	3435
3947.386	3401
3948.989	3433
3950.59	3400
3952.191	3417
3953.791	3362
3955.394	3423
3956.994	3398
3958.593	3418
3960.192	3376
3961.791	3346
3963.392	3400
3964.99	3251
3966.588	3462
3968.185	3374
3969.782	3344
3971.379	3328
3972.976	3388
3974.572	3400
3976.168	3346
3977.763	3415
3979.358	3338
3980.954	3243
3982.548	3338
3984.142	3356
3985.736	3337
3987.329	3324
3988.922	3335
3990.516	3318
3992.108	3276
3993.698	3252
3995.29	3284
3996.881	3297
3998.473	3318
4000.064	3327
4001.653	3258
4003.242	3328
4004.832	3337
4006.422	3276
4008.01	3306
4009.598	3327
4011.186	3232
4012.773	3336
4014.36	3260
4015.947	3178
4017.534	3246
4019.119	3334
4020.705	3233
4022.291	3279
4023.876	3223
4025.461	3202
4027.044	3252
4028.627	3232
4030.211	3275
4031.795	3233
4033.378	3200
4034.96	3276
4036.542	3283
4038.124	3160
4039.704	3137
4041.286	3213
4042.867	3157
4044.447	3166
4046.026	3217
4047.606	3222
4049.187	3223
4050.765	3262
4052.343	3172
4053.92	3238
4055.498	3140
4057.076	3131
4058.654	3194
4060.23	3146
4061.806	3154
4063.381	3181
4064.957	3200
4066.533	3115
4068.107	3154
4069.682	3205
4071.256	3211
4072.829	3144
4074.404	3156
4075.977	3155
4077.549	3151
4079.121	3207
4080.693	3183
4082.265	3126
4083.836	3136
4085.407	3130
4086.977	3164
4088.547	3177
4090.117	3140
4091.687	3142
4093.256	3148
4094.825	3161
4096.392	3111
4097.96	3144
4099.528	3070
4101.097	3059
4102.663	3084
4104.229	3064
4105.795	3081
4107.361	3123
4108.928	3099
4110.493	3143
4112.058	3134
4113.621	3098
4115.186	3023
4116.75	3099
4118.313	3098
4119.876	3049
4121.438	3036
4123	3047
4124.562	3013
4126.125	3037
4127.686	3086
4129.246	2979
4130.807	2989
4132.367	3093
4133.927	3097
4135.486	3036
4137.046	3055
4138.604	3147
4140.162	3060
4141.72	3045
4143.279	3058
4144.836	2977
4146.393	2981
4147.949	2961
4149.505	3021
4151.062	3069
4152.617	2983
4154.172	2980
4155.727	3064
4157.281	2952
4158.836	3031
4160.39	3048
4161.943	3060
4163.496	2989
4165.048	2974
4166.601	2986
4168.154	3019
4169.706	2959
4171.257	3029
4172.808	2898
4174.358	2987
4175.909	2924
4177.458	2983
4179.008	2970
4180.558	3010
4182.106	2893
4183.655	2934
4185.204	2957
4186.751	2992
4188.298	2994
4189.845	2835
4191.392	2931
4192.939	2874
4194.485	2937
4196.031	2895
4197.576	2889
4199.121	2911
4200.666	2982
4202.211	2924
4203.754	2951
4205.298	2917
4206.84	2897
4208.384	2901
4209.927	2887
4211.47	2892
4213.011	2824
4214.552	2959
4216.094	2805
4217.635	2895
4219.175	2878
4220.716	2917
4222.255	2966
4223.793	2892
4225.335	2887
4226.873	2984
4228.411	2871
4229.948	2916
4231.486	2877
4233.024	2924
4234.562	2895
4236.098	2886
4237.634	2892
4239.169	2886
4240.705	2844
4242.241	2846
4243.776	2887
4245.31	2753
4246.844	2901
4248.378	2857
4249.911	2798
4251.445	2809
4252.978	2810
4254.51	2906
4256.042	2752
4257.574	2822
4259.107	2822
4260.638	2782
4262.169	2812
4263.699	2843
4265.228	2780
4266.759	2888
4268.289	2813
4269.818	2798
4271.345	2778
4272.874	2823
4274.402	2870
4275.931	2803
4277.458	2758
4278.985	2796
4280.512	2842
4282.037	2812
4283.564	2801
4285.089	2782
4286.615	2877
4288.139	2828
4289.664	2784
4291.187	2796
4292.712	2765
4294.235	2805
4295.759	2852
4297.281	2793
4298.804	2805
4300.327	2795
4301.849	2743
4303.37	2765
4304.891	2758
4306.412	2825
4307.933	2730
4309.453	2709
4310.973	2690
4312.492	2734
