398.1873	5632
400.7097	5686
403.2336	5689
405.7547	5752
408.2751	5664
410.7948	5742
413.3138	5695
415.83	5793
418.3497	5870
420.8666	6055
423.3829	5978
425.8985	5987
428.4133	6062
430.9275	6073
433.441	6139
435.9538	6100
438.4639	6262
440.9753	6110
443.4881	6221
445.9982	6063
448.5055	6191
451.0142	6101
453.5201	6010
456.0274	6068
458.5361	6015
461.04	6076
463.5453	6169
466.0478	6143
468.5517	6278
471.0549	6074
473.5574	6219
476.0572	6158
478.5584	6220
481.0568	6157
483.5545	6252
486.0557	6177
488.5521	6216
491.0478	6330
493.5449	6335
496.0392	6216
498.5349	6185
501.0299	6340
503.5222	6344
506.0139	6286
508.5048	6353
510.9991	6312
513.4887	6345
515.9777	6332
518.4659	6341
520.9534	6364
523.4403	6427
525.9306	6291
528.4161	6360
530.9009	6278
533.3851	6485
535.8687	6409
538.3535	6436
540.8356	6416
543.3171	6271
545.7979	6412
548.278	6477
550.7595	6328
553.2383	6357
555.7144	6429
558.1918	6495
560.6685	6434
563.1446	6486
565.6221	6473
568.0968	6546
570.5688	6496
573.0422	6515
575.515	6618
577.989	6616
580.4584	6656
582.9291	6657
585.3991	6587
587.8685	6769
590.3352	6687
592.8052	6657
595.2706	6680
597.7372	6530
600.2033	6586
602.6666	6562
605.1334	6559
607.5953	6568
610.0587	6583
612.5193	6658
614.9814	6678
617.4427	6624
619.9034	6586
622.3615	6627
624.8208	6546
627.2775	6500
629.7335	6649
632.1929	6534
634.6476	6667
637.1016	6636
639.5569	6614
642.0096	6623
644.4637	6674
646.9151	6646
649.3678	6723
651.8179	6551
654.2672	6651
656.7159	6734
659.166	6687
661.6154	6726
664.0622	6777
666.5082	6818
668.9537	6698
671.4005	6810
673.8445	6788
676.288	6856
678.7308	6815
681.1729	6785
683.6163	6833
686.0572	6954
688.4973	6863
690.9368	6890
693.3757	6777
695.8138	6803
698.2534	6866
700.6902	6945
703.1245	6889
705.56	6868
707.9949	6899
710.4311	6818
712.8647	6948
715.2957	6908
717.7279	7060
720.1595	6923
722.5905	7008
725.0208	7075
727.4505	7058
729.8795	7044
732.3058	7109
734.7336	7014
737.1626	7140
739.587	7180
742.0128	7086
744.4359	7089
746.8604	7136
749.2841	7251
751.7073	7258
754.1278	7319
756.5496	7256
758.9688	7284
761.3893	7339
763.8093	7271
766.2285	7440
768.6451	7297
771.0611	7313
773.4784	7411
775.895	7318
778.3091	7436
780.7244	7415
783.1371	7258
785.5493	7428
787.9626	7371
790.3754	7363
792.7856	7325
795.1951	7405
797.6039	7336
800.0121	7359
802.4236	7327
804.8306	7366
807.2369	7362
809.6425	7413
812.0475	7336
814.4538	7365
816.8575	7394
819.2606	7517
821.663	7413
824.0648	7310
826.4659	7454
828.8683	7440
831.2682	7440
833.6674	7504
836.066	7409
838.4639	7448
840.8632	7458
843.2579	7615
845.6539	7502
848.0493	7575
850.444	7484
852.84	7524
855.2315	7668
857.6243	7546
860.0165	7585
862.4081	7525
864.797	7562
867.1892	7595
869.5789	7480
871.9659	7504
874.3542	7585
876.74	7644
879.129	7464
881.5155	7511
883.8994	7469
886.2845	7549
888.6671	7559
891.051	7522
893.4343	7505
895.8169	7593
898.197	7570
900.5783	7571
902.9571	7659
905.3372	7570
907.7167	7567
910.0936	7678
912.4698	7643
914.8474	7662
917.2244	7657
919.5987	7679
921.9744	7656
924.3475	7857
926.72	7840
929.0918	7748
931.4669	7841
933.8375	7967
936.2074	7876
938.5767	8019
940.9454	8022
943.3154	7947
945.6829	8009
948.0497	8277
950.4178	8433
952.7833	8607
955.1483	8858
957.5145	9174
959.8782	9087
962.2412	9288
964.6036	8895
966.9655	8719
969.3266	8503
971.6871	8213
974.0471	8090
976.4064	7898
978.765	7892
981.125	7878
983.4824	7828
985.8373	7841
988.1935	7851
990.549	7684
992.9039	7787
995.2602	7728
997.6119	7748
999.965	7805
1002.317	7879
1004.667	7883
1007.02	7786
1009.371	7750
1011.719	7717
1014.068	7790
1016.415	7879
1018.765	7766
1021.111	7884
1023.458	7845
1025.804	7976
1028.147	7927
1030.49	8032
1032.837	7877
1035.179	7854
1037.522	7860
1039.862	7948
1042.204	7919
1044.546	8027
1046.884	7970
1049.224	8081
1051.562	7903
1053.899	7932
1056.237	7905
1058.575	7959
1060.91	7938
1063.244	8006
1065.58	7931
1067.913	8083
1070.248	8077
1072.579	8122
1074.911	8099
1077.242	8063
1079.572	8026
1081.905	8035
1084.234	8077
1086.562	8016
1088.89	7936
1091.217	7980
1093.544	8014
1095.871	8077
1098.197	8074
1100.521	8039
1102.845	8040
1105.169	7957
1107.491	7996
1109.814	7970
1112.135	8020
1114.456	7957
1116.776	8053
1119.096	8054
1121.415	8046
1123.734	7976
1126.052	7938
1128.369	7975
1130.686	8039
1133.002	7928
1135.318	7987
1137.632	8005
1139.945	8114
1142.258	7982
1144.573	8029
1146.884	8013
1149.196	8079
1151.505	8047
1153.816	7944
1156.124	8047
1158.435	8054
1160.742	8159
1163.051	7997
1165.356	7967
1167.663	8104
1169.97	7999
1172.276	7981
1174.579	8008
1176.881	8138
1179.186	7954
1181.487	8039
1183.79	7926
1186.092	8050
1188.392	8074
1190.691	8055
1192.991	7966
1195.291	8159
1197.588	8109
1199.885	8082
1202.181	8049
1204.479	8063
1206.775	8087
1209.07	8117
1211.363	8004
1213.656	8002
1215.949	8019
1218.241	8036
1220.534	8116
1222.825	8161
1225.115	8194
1227.405	8054
1229.693	8238
1231.984	8255
1234.271	8205
1236.558	8305
1238.845	8337
1241.131	8425
1243.416	8206
1245.703	8447
1247.987	8187
1250.269	8377
1252.552	8246
1254.834	8360
1257.118	8272
1259.399	8331
1261.678	8222
1263.958	8316
1266.237	8236
1268.516	8364
1270.794	8262
1273.072	8305
1275.347	8306
1277.624	8317
1279.899	8201
1282.175	8052
1284.449	8269
1286.722	8421
1288.995	8128
1291.266	8129
1293.54	8349
1295.81	8313
1298.081	8078
1300.35	8187
1302.62	8214
1304.889	8335
1307.156	8256
1309.425	8175
1311.69	8272
1313.957	8267
1316.222	8175
1318.488	8364
1320.751	8279
1323.016	8303
1325.278	8262
1327.54	8223
1329.803	8185
1332.065	8242
1334.325	8262
1336.584	8390
1338.843	8279
1341.101	8176
1343.36	8314
1345.617	8296
1347.876	8043
1350.131	8233
1352.387	8396
1354.643	8354
1356.897	8208
1359.151	8380
1361.403	8216
1363.656	8217
1365.909	8231
1368.16	8320
1370.409	8217
1372.659	8420
1374.909	8219
1377.157	8340
1379.407	8256
1381.655	8458
1383.9	8404
1386.147	8329
1388.393	8355
1390.64	8365
1392.885	8507
1395.127	8329
1397.37	8468
1399.614	8378
1401.854	8362
1404.098	8415
1406.339	8378
1408.578	8330
1410.818	8493
1413.056	8491
1415.297	8418
1417.533	8353
1419.771	8357
1422.006	8372
1424.243	8494
1426.479	8492
1428.715	8483
1430.948	8407
1433.182	8563
1435.414	8463
1437.647	8542
1439.88	8566
1442.11	8441
1444.342	8555
1446.571	8394
1448.799	8603
1451.029	8701
1453.258	8605
1455.485	8690
1457.711	8605
1459.937	8547
1462.164	8598
1464.39	8621
1466.614	8489
1468.838	8598
1471.06	8424
1473.283	8531
1475.506	8463
1477.727	8484
1479.949	8454
1482.169	8448
1484.389	8320
1486.609	8426
1488.828	8269
1491.045	8313
1493.261	8438
1495.477	8323
1497.693	8387
1499.91	8308
1502.125	8372
1504.339	8309
1506.553	8322
1508.766	8247
1510.979	8393
1513.191	8417
1515.402	8279
1517.613	8230
1519.823	8272
1522.033	8419
1524.242	8273
1526.451	8327
1528.657	8324
1530.865	8292
1533.072	8234
1535.278	8203
1537.484	8459
1539.687	8369
1541.892	8278
1544.096	8528
1546.299	8430
1548.502	8399
1550.703	8320
1552.905	8441
1555.104	8377
1557.303	8452
1559.505	8491
1561.703	8395
1563.902	8521
1566.099	8519
1568.295	8509
1570.494	8428
1572.689	8569
1574.883	8482
1577.079	8471
1579.272	8556
1581.467	8621
1583.659	8551
1585.853	8424
1588.044	8650
1590.234	8680
1592.424	8515
1594.615	8687
1596.806	8536
1598.994	8728
1601.182	8747
1603.369	8701
1605.557	8672
1607.744	8674
1609.929	8626
1612.114	8668
1614.298	8599
1616.482	8616
1618.667	8581
1620.85	8580
1623.032	8587
1625.214	8678
1627.395	8694
1629.575	8715
1631.755	8639
1633.935	8731
1636.114	8712
1638.292	8663
1640.471	8762
1642.647	8630
1644.823	8642
1647	8714
1649.175	8764
1651.348	8694
1653.525	8747
1655.698	8727
1657.87	8808
1660.043	8755
1662.213	8778
1664.387	8791
1666.558	8743
1668.727	8834
1670.896	8759
1673.064	8776
1675.233	8744
1677.401	8844
1679.569	8676
1681.735	8740
1683.902	8805
1686.066	8775
1688.233	8890
1690.397	8791
1692.559	8629
1694.723	8685
1696.885	8696
1699.048	8645
1701.21	8605
1703.37	8699
1705.53	8772
1707.689	8543
1709.849	8488
1712.009	8573
1714.166	8657
1716.323	8617
1718.479	8699
1720.634	8640
1722.793	8652
1724.948	8594
1727.102	8487
1729.255	8735
1731.408	8510
1733.562	8439
1735.714	8587
1737.865	8628
1740.016	8625
1742.166	8693
1744.316	8784
1746.467	8530
1748.616	8544
1750.764	8761
1752.911	8695
1755.056	8601
1757.205	8516
1759.35	8586
1761.496	8669
1763.641	8745
1765.785	8644
1767.927	8662
1770.072	8715
1772.214	8739
1774.355	8570
1776.496	8680
1778.637	8774
1780.778	8698
1782.918	8631
1785.057	8639
1787.194	8785
1789.333	8785
1791.472	8763
1793.608	8724
1795.745	8687
1797.879	8829
1800.015	8751
1802.148	8654
1804.284	8705
1806.417	8781
1808.548	8747
1810.682	8830
1812.812	8726
1814.946	8635
1817.075	8702
1819.205	8578
1821.335	8754
1823.463	8758
1825.59	8850
1827.721	8625
1829.847	8705
1831.973	8668
1834.098	8623
1836.223	8775
1838.351	8669
1840.475	8546
1842.598	8569
1844.721	8692
1846.843	8676
1848.966	8741
1851.087	8654
1853.21	8655
1855.33	8683
1857.449	8683
1859.568	8657
1861.688	8585
1863.806	8709
1865.924	8639
1868.039	8657
1870.155	8482
1872.273	8499
1874.388	8689
1876.503	8643
1878.617	8539
1880.73	8580
1882.844	8624
1884.956	8625
1887.068	8522
1889.18	8595
1891.291	8686
1893.4	8836
1895.511	8686
1897.621	8727
1899.73	8653
1901.837	8530
1903.944	8707
1906.053	8776
1908.159	8751
1910.265	8815
1912.369	8760
1914.474	8743
1916.577	8979
1918.683	8787
1920.785	8909
1922.888	8809
1924.989	8901
1927.091	8869
1929.193	8896
1931.294	8785
1933.393	8824
1935.493	8698
1937.59	8780
1939.689	8794
1941.788	8767
1943.884	8753
1945.98	8769
1948.077	8783
1950.171	8888
1952.267	8809
1954.361	8658
1956.455	8721
1958.548	8967
1960.64	8717
1962.733	8906
1964.824	8743
1966.915	8831
1969.005	8846
1971.096	8700
1973.185	8752
1975.275	8661
1977.363	8672
1979.45	8680
1981.537	8730
1983.623	8777
1985.711	8846
1987.796	8723
1989.881	8659
1991.965	8834
1994.047	8765
1996.132	8658
1998.215	8700
2000.297	8609
2002.378	8702
2004.46	8557
2006.54	8678
2008.62	8665
2010.7	8690
2012.779	8775
2014.858	8757
2016.934	8723
2019.013	8573
2021.09	8768
2023.165	8652
2025.241	8717
2027.317	8759
2029.39	8662
2031.466	8633
2033.538	8690
2035.612	8837
2037.683	8681
2039.755	8644
2041.827	8785
2043.898	8683
2045.968	8713
2048.038	8658
2050.106	8771
2052.177	8706
2054.244	8748
2056.313	8627
2058.379	8683
2060.444	8659
2062.511	8498
2064.577	8691
2066.641	8771
2068.705	8647
2070.77	8641
2072.832	8679
2074.896	8584
2076.958	8857
2079.02	8686
2081.081	8740
2083.141	8701
2085.2	8797
2087.261	8748
2089.319	8684
2091.377	8649
2093.435	8708
2095.492	8654
2097.552	8665
2099.607	8716
2101.663	8738
2103.718	8788
2105.771	8715
2107.826	8792
2109.879	8782
2111.932	8790
2113.985	8787
2116.037	8689
2118.088	8671
2120.141	8827
2122.191	8817
2124.239	8709
2126.288	8698
2128.337	8681
2130.387	8737
2132.434	8797
2134.481	8588
2136.528	8693
2138.574	8744
2140.618	8631
2142.665	8680
2144.71	8705
2146.753	8625
2148.797	8718
2150.838	8659
2152.883	8552
2154.923	8601
2156.965	8808
2159.007	8648
2161.046	8589
2163.086	8730
2165.126	8706
2167.163	8378
2169.202	8608
2171.239	8599
2173.277	8579
2175.314	8615
2177.349	8607
2179.385	8658
2181.42	8557
2183.453	8501
2185.49	8660
2187.522	8554
2189.555	8617
2191.586	8559
2193.619	8518
2195.651	8652
2197.682	8496
2199.711	8718
2201.74	8397
2203.769	8492
2205.799	8441
2207.828	8455
2209.855	8541
2211.882	8535
2213.908	8467
2215.934	8551
2217.961	8496
2219.986	8535
2222.01	8625
2224.034	8556
2226.057	8489
2228.08	8576
2230.104	8436
2232.124	8590
2234.145	8479
2236.166	8415
2238.186	8391
2240.207	8529
2242.227	8495
2244.244	8546
2246.262	8430
2248.28	8548
2250.299	8403
2252.314	8574
2254.33	8425
2256.346	8595
2258.36	8413
2260.375	8503
2262.391	8536
2264.403	8480
2266.416	8426
2268.427	8611
2270.44	8509
2272.453	8490
2274.463	8442
2276.474	8365
2278.483	8497
2280.493	8497
2282.501	8476
2284.51	8472
2286.518	8544
2288.524	8468
2290.532	8482
2292.537	8480
2294.544	8528
2296.55	8466
2298.554	8356
2300.557	8453
2302.562	8435
2304.566	8457
2306.568	8350
2308.569	8382
2310.572	8450
2312.573	8380
2314.573	8315
2316.574	8574
2318.573	8373
2320.571	8310
2322.571	8425
2324.569	8429
2326.567	8425
2328.564	8485
2330.56	8258
2332.556	8392
2334.551	8352
2336.546	8304
2338.542	8398
2340.535	8401
2342.529	8315
2344.521	8293
2346.512	8279
2348.505	8338
2350.497	8373
2352.487	8271
2354.478	8419
2356.468	8276
2358.457	8337
2360.446	8321
2362.434	8400
2364.422	8321
2366.408	8315
2368.395	8327
2370.383	8443
2372.369	8242
2374.353	8468
2376.338	8256
2378.321	8199
2380.307	8384
2382.29	8300
2384.272	8295
2386.254	8196
2388.235	8249
2390.218	8180
2392.198	8199
2394.179	8277
2396.157	8176
2398.137	8243
2400.115	8157
2402.095	8216
2404.072	8113
2406.048	8223
2408.026	8178
2410.001	8304
2411.977	8211
2413.953	8315
2415.927	8175
2417.9	8210
2419.875	8210
2421.847	8236
2423.821	8167
2425.792	8067
2427.763	8187
2429.736	8133
2431.706	8385
2433.677	8179
2435.646	8146
2437.615	8124
2439.583	8328
2441.551	8117
2443.519	8248
2445.486	8120
2447.452	8328
2449.418	8100
2451.383	8074
2453.348	8222
2455.314	8118
2457.278	8192
2459.241	8176
2461.205	8074
2463.167	8076
2465.131	8195
2467.091	8176
2469.052	8033
2471.012	8160
2472.972	8081
2474.932	8095
2476.891	8189
2478.85	8056
2480.808	8066
2482.766	8170
2484.722	8165
2486.68	8256
2488.636	8083
2490.591	8080
2492.546	8122
2494.5	8161
2496.456	8001
2498.41	8086
2500.362	8044
2502.315	8070
2504.266	8168
2506.218	7971
2508.169	7956
2510.121	8097
2512.07	8158
2514.019	8066
2515.968	8127
2517.918	8061
2519.866	8019
2521.813	7978
2523.76	8067
2525.707	8029
2527.653	8038
2529.599	8150
2531.543	8043
2533.489	8110
2535.433	8078
2537.376	7892
2539.32	7942
2541.264	8093
2543.205	8086
2545.147	8108
2547.087	8043
2549.029	7845
2550.969	7916
2552.908	8129
2554.847	7894
2556.786	7928
2558.724	8056
2560.663	7945
2562.6	7903
2564.537	8092
2566.473	7979
2568.408	8101
2570.345	8026
2572.28	8214
2574.214	7905
2576.148	8057
2578.081	7983
2580.014	7938
2581.947	7923
2583.879	8069
2585.81	8040
2587.741	8018
2589.67	7985
2591.602	8098
2593.532	8060
2595.461	7888
2597.388	7984
2599.316	8010
2601.244	7999
2603.172	8026
2605.098	8047
2607.023	8071
2608.949	8076
2610.873	7870
2612.8	8119
2614.723	8080
2616.647	7976
2618.569	8111
2620.493	8122
2622.416	7977
2624.338	7966
2626.258	8164
2628.179	8091
2630.099	8074
2632.019	8120
2633.939	7958
2635.857	7949
2637.775	8174
2639.694	7990
2641.61	8056
2643.528	8076
2645.444	7984
2647.361	7967
2649.276	8175
2651.19	8088
2653.105	7988
2655.019	8033
2656.934	7993
2658.846	8128
2660.758	7977
2662.67	7991
2664.583	7996
2666.493	8009
2668.404	8025
2670.313	7968
2672.223	7941
2674.134	8063
2676.042	7989
2677.95	7865
2679.858	7935
2681.765	7985
2683.673	7772
2685.579	8023
2687.483	7854
2689.389	7922
2691.294	7881
2693.198	7844
2695.104	8007
2697.006	7929
2698.909	7849
2700.811	7971
2702.713	7913
2704.615	7985
2706.516	7866
2708.417	7882
2710.316	7926
2712.216	7914
2714.115	7949
2716.014	7941
2717.913	7858
2719.81	7835
2721.707	8057
2723.603	7926
2725.501	7852
2727.396	7802
2729.292	7900
2731.186	7765
2733.081	7922
2734.976	7948
2736.87	7909
2738.762	7886
2740.653	7767
2742.546	7884
2744.437	7878
2746.329	7826
2748.22	7903
2750.11	7820
2751.999	7859
2753.889	7753
2755.778	7725
2757.666	7825
2759.553	7879
2761.44	7751
2763.328	7886
2765.215	7870
2767.101	7720
2768.986	7784
2770.87	7760
2772.754	7821
2774.638	7820
2776.523	7778
2778.405	7818
2780.288	7833
2782.17	7822
2784.051	7613
2785.934	7738
2787.814	7901
2789.694	7854
2791.574	7780
2793.453	7751
2795.332	7821
2797.212	7856
2799.088	7679
2800.966	7736
2802.843	7689
2804.719	7751
2806.597	7731
2808.471	7703
2810.346	7774
2812.221	7694
2814.094	7828
2815.969	7811
2817.843	7727
2819.714	7729
2821.587	7728
2823.459	7769
2825.329	7696
2827.202	7715
2829.072	7683
2830.942	7757
2832.811	7716
2834.68	7662
2836.549	7818
2838.418	7573
2840.284	7668
2842.152	7748
2844.018	7791
2845.885	7677
2847.751	7808
2849.616	7728
2851.482	7625
2853.345	7703
2855.208	7808
2857.074	7781
2858.937	7684
2860.799	7817
2862.66	7821
2864.522	7862
2866.385	7820
2868.245	7865
2870.104	7873
2871.964	7898
2873.824	7847
2875.683	8165
2877.542	7960
2879.4	8104
2881.257	8021
2883.114	8256
2884.97	8200
2886.827	8089
2888.683	8257
2890.537	8233
2892.392	8043
2894.246	8079
2896.1	8123
2897.954	8057
2899.807	8085
2901.66	8242
2903.51	8130
2905.362	8147
2907.214	8022
2909.065	7939
2910.915	8098
2912.765	8123
2914.613	8228
2916.463	8180
2918.311	8362
2920.158	8292
2922.006	8231
2923.853	8453
2925.698	8551
2927.546	8533
2929.392	8531
2931.236	8536
2933.081	8512
2934.924	8574
2936.77	8750
2938.613	8616
2940.455	8701
2942.298	8651
2944.139	8847
2945.982	8702
2947.823	8536
2949.662	8693
2951.503	8737
2953.342	8530
2955.182	8541
2957.021	8477
2958.858	8482
2960.697	8432
2962.534	8396
2964.37	8279
2966.207	8231
2968.044	8289
2969.879	8239
2971.714	8192
2973.548	8129
2975.383	8195
2977.218	8113
2979.051	8087
2980.883	8011
2982.715	8112
2984.547	7986
2986.379	7983
2988.21	7934
2990.04	7905
2991.87	7964
2993.7	7965
2995.53	7954
2997.359	7911
2999.187	7763
3001.015	7784
3002.842	7863
3004.669	7613
3006.497	7637
3008.323	7511
3010.148	7558
3011.974	7583
3013.797	7471
3015.623	7433
3017.447	7536
3019.27	7498
3021.094	7353
3022.915	7459
3024.737	7415
3026.56	7485
3028.38	7476
3030.201	7428
3032.022	7315
3033.84	7463
3035.662	7262
3037.481	7414
3039.298	7335
3041.117	7269
3042.933	7429
3044.752	7336
3046.568	7234
3048.385	7379
3050.2	7299
3052.016	7238
3053.83	7220
3055.646	7416
3057.46	7290
3059.272	7278
3061.086	7205
3062.898	7343
3064.711	7247
3066.524	7300
3068.335	7254
3070.145	7218
3071.956	7083
3073.766	7203
3075.576	7306
3077.385	7109
3079.193	7212
3081.002	7176
3082.81	7101
3084.618	7151
3086.425	7195
3088.231	7294
3090.036	7208
3091.842	7145
3093.648	7060
3095.452	7216
3097.257	7179
3099.06	7177
3100.863	7015
3102.666	7051
3104.47	7007
3106.272	7120
3108.073	7046
3109.875	7075
3111.676	7113
3113.477	7016
3115.277	7032
3117.077	7028
3118.874	7107
3120.673	7089
3122.473	7028
3124.271	6946
3126.066	7018
3127.863	6855
3129.66	6953
3131.456	6956
3133.252	6988
3135.047	6976
3136.842	7035
3138.635	6848
3140.429	6938
3142.223	6964
3144.016	7046
3145.808	6889
3147.6	6929
3149.392	6862
3151.183	6923
3152.975	6929
3154.765	6887
3156.553	6975
3158.344	7059
3160.132	6788
3161.922	6923
3163.71	6839
3165.497	6909
3167.285	6834
3169.071	6827
3170.858	6837
3172.645	6744
3174.429	6880
3176.214	6863
3177.998	6790
3179.783	6819
3181.568	6837
3183.351	6742
3185.133	6684
3186.915	6768
3188.698	6881
3190.481	6668
3192.261	6741
3194.042	6812
3195.822	6775
3197.601	6730
3199.381	6769
3201.161	6732
3202.939	6941
3204.717	6816
3206.495	6793
3208.272	6824
3210.05	6777
3211.826	6843
3213.602	6758
3215.376	6725
3217.151	6862
3218.927	6755
3220.702	6740
3222.476	6749
3224.249	6802
3226.021	6748
3227.793	6852
3229.567	6709
3231.339	6733
3233.109	6683
3234.88	6802
3236.651	6714
3238.421	6878
3240.191	6656
3241.96	6715
3243.728	6786
3245.497	6664
3247.263	6793
3249.033	6773
3250.799	6682
3252.566	6636
3254.331	6697
3256.097	6743
3257.863	6713
3259.628	6697
3261.392	6648
3263.156	6642
3264.919	6674
3266.683	6761
3268.447	6748
3270.208	6688
3271.969	6685
3273.731	6592
3275.492	6718
3277.253	6728
3279.013	6700
3280.773	6637
3282.532	6620
3284.291	6691
3286.05	6755
3287.808	6647
3289.566	6777
3291.323	6804
3293.079	6657
3294.835	6695
3296.593	6652
3298.348	6688
3300.102	6611
3301.857	6570
3303.611	6670
3305.366	6799
3307.119	6691
3308.872	6673
3310.624	6651
3312.376	6658
3314.129	6598
3315.881	6716
3317.631	6550
3319.38	6625
3321.13	6639
3322.88	6682
3324.631	6697
3326.379	6569
3328.126	6679
3329.875	6708
3331.622	6677
3333.371	6595
3335.116	6615
3336.863	6626
3338.609	6629
3340.353	6532
3342.1	6549
3343.845	6670
3345.588	6579
3347.332	6608
3349.074	6508
3350.817	6494
3352.56	6613
3354.303	6569
3356.043	6574
3357.785	6691
3359.525	6472
3361.268	6557
3363.007	6568
3364.745	6521
3366.485	6560
3368.223	6515
3369.962	6432
3371.701	6501
3373.438	6543
3375.174	6522
3376.911	6501
3378.647	6478
3380.384	6480
3382.118	6531
3383.854	6459
3385.588	6436
3387.322	6490
3389.057	6342
3390.79	6481
3392.522	6436
3394.255	6408
3395.987	6443
3397.719	6413
3399.451	6382
3401.181	6549
3402.911	6410
3404.641	6451
3406.371	6330
3408.101	6416
3409.83	6389
3411.558	6364
3413.285	6453
3415.011	6342
3416.739	6354
3418.467	6351
3420.193	6333
3421.919	6344
3423.644	6428
3425.368	6354
3427.094	6377
3428.818	6283
3430.542	6222
3432.264	6224
3433.987	6307
3435.712	6475
3437.434	6280
3439.155	6329
3440.876	6242
3442.596	6238
3444.317	6327
3446.039	6224
3447.757	6259
3449.477	6257
3451.195	6287
3452.914	6283
3454.632	6150
3456.35	6180
3458.067	6170
3459.784	6204
3461.5	6185
3463.216	6143
3464.932	6201
3466.647	6223
3468.362	6250
3470.076	6210
3471.789	6198
3473.505	6228
3475.217	6131
3476.929	6121
3478.641	6206
3480.354	6176
3482.066	6082
3483.777	6049
3485.487	6173
3487.197	6139
3488.908	6125
3490.617	6104
3492.327	6049
3494.035	6157
3495.743	6193
3497.451	6041
3499.158	6083
3500.866	6073
3502.572	6018
3504.278	6005
3505.984	5976
3507.689	5973
3509.396	6021
3511.1	6040
3512.804	5896
3514.508	6052
3516.211	6054
3517.913	6034
3519.616	6021
3521.319	5990
3523.021	6043
3524.722	5952
3526.422	6012
3528.124	5894
3529.824	5962
3531.524	6031
3533.222	5953
3534.921	5987
3536.62	6032
3538.318	5968
3540.016	5981
3541.714	5858
3543.41	5903
3545.107	5984
3546.803	5813
3548.5	5854
3550.194	5970
3551.889	5887
3553.583	5853
3555.279	5979
3556.972	5946
3558.666	5916
3560.358	5880
3562.051	5879
3563.742	5854
3565.435	5790
3567.126	5878
3568.817	5806
3570.507	5857
3572.197	5832
3573.888	5782
3575.577	5859
3577.265	5775
3578.954	5776
3580.642	5790
3582.329	5846
3584.017	5751
3585.704	5814
3587.391	5809
3589.077	5711
3590.762	5793
3592.449	5733
3594.133	5831
3595.817	5826
3597.501	5741
3599.185	5629
3600.869	5802
3602.552	5651
3604.234	5727
3605.916	5704
3607.598	5689
3609.279	5644
3610.961	5645
3612.642	5666
3614.321	5643
3616	5571
3617.68	5580
3619.36	5670
3621.039	5623
3622.716	5522
3624.394	5593
3626.071	5578
3627.748	5523
3629.425	5629
3631.102	5627
3632.778	5522
3634.452	5530
3636.127	5550
3637.803	5438
3639.477	5568
3641.151	5526
3642.823	5465
3644.497	5599
3646.171	5599
3647.842	5519
3649.515	5505
3651.185	5507
3652.857	5491
3654.527	5436
3656.198	5513
3657.868	5596
3659.537	5513
3661.207	5456
3662.875	5501
3664.544	5493
3666.212	5394
3667.879	5489
3669.546	5503
3671.212	5449
3672.88	5483
3674.546	5372
3676.211	5414
3677.875	5383
3679.541	5443
3681.205	5376
3682.87	5562
3684.533	5435
3686.196	5353
3687.859	5436
3689.521	5374
3691.184	5459
3692.845	5457
3694.507	5473
3696.167	5435
3697.827	5421
3699.487	5351
3701.148	5345
3702.808	5497
3704.466	5332
3706.125	5378
3707.783	5429
3709.442	5390
3711.099	5386
3712.757	5425
3714.412	5303
3716.068	5395
3717.725	5356
3719.381	5212
3721.036	5216
3722.689	5252
3724.344	5287
3725.998	5440
3727.652	5376
3729.305	5399
3730.958	5318
3732.61	5282
3734.262	5341
3735.915	5239
3737.565	5328
3739.217	5323
3740.866	5282
3742.516	5350
3744.165	5165
3745.816	5312
3747.464	5254
3749.113	5328
3750.761	5171
3752.409	5263
3754.057	5229
3755.703	5288
3757.35	5259
3758.996	5206
3760.641	5171
3762.289	5253
3763.933	5251
3765.577	5257
3767.222	5241
3768.865	5252
3770.508	5184
3772.152	5208
3773.796	5180
3775.438	5156
3777.079	5172
3778.721	5194
3780.363	5193
3782.003	5156
3783.643	5179
3785.283	5208
3786.923	5155
3788.563	5071
3790.203	5144
3791.841	5111
3793.479	5115
3795.115	5172
3796.753	5004
3798.391	5240
3800.027	5190
3801.664	5188
3803.299	5072
3804.935	5105
3806.571	5205
3808.206	5148
3809.839	5082
3811.473	5128
3813.107	5110
3814.74	5131
3816.375	5083
3818.006	5037
3819.638	5044
3821.27	5193
3822.9	4974
3824.532	5078
3826.163	5018
3827.792	5029
3829.423	5040
3831.051	5086
3832.682	4962
3834.311	4994
3835.938	5028
3837.566	4951
3839.193	5070
3840.821	5003
3842.448	5072
3844.075	4927
3845.7	4914
3847.325	4982
3848.951	5040
3850.576	4894
3852.201	4976
3853.825	4974
3855.448	4853
3857.072	4922
3858.694	4903
3860.318	5003
3861.939	4990
3863.562	5004
3865.183	4850
3866.804	4901
3868.426	5036
3870.045	4862
3871.666	4921
3873.285	4826
3874.904	4904
3876.524	4898
3878.142	4852
3879.76	4799
3881.378	4880
3882.995	4871
3884.612	4859
3886.229	4925
3887.845	4870
3889.461	4780
3891.076	4937
3892.691	4816
3894.307	4898
3895.922	4860
3897.536	4812
3899.149	4852
3900.761	4927
3902.374	4799
3903.988	4800
3905.6	4884
3907.212	4833
3908.822	4820
3910.433	4826
3912.045	4875
3913.655	4883
3915.265	4843
3916.875	4856
3918.483	4857
3920.093	4784
3921.702	4813
3923.309	4818
3924.917	4839
3926.523	4850
3928.13	4728
3929.739	4799
3931.344	4735
3932.95	4735
3934.555	4800
3936.159	4683
3937.766	4836
3939.369	4787
3940.974	4765
3942.577	4765
3944.181	4789
3945.783	4711
3947.386	4719
3948.989	4825
3950.59	4749
3952.191	4708
3953.791	4676
3955.394	4736
3956.994	4744
3958.593	4721
3960.192	4733
3961.791	4646
3963.392	4771
3964.99	4677
3966.588	4708
3968.185	4601
3969.782	4667
3971.379	4684
3972.976	4697
3974.572	4625
3976.168	4684
3977.763	4551
3979.358	4656
3980.954	4638
3982.548	4673
3984.142	4603
3985.736	4565
3987.329	4688
3988.922	4581
3990.516	4607
3992.108	4630
3993.698	4574
3995.29	4581
3996.881	4629
3998.473	4700
4000.064	4552
4001.653	4666
4003.242	4448
4004.832	4527
4006.422	4593
4008.01	4485
4009.598	4557
4011.186	4428
4012.773	4612
4014.36	4453
4015.947	4423
4017.534	4514
4019.119	4534
4020.705	4463
4022.291	4427
4023.876	4393
4025.461	4406
4027.044	4521
4028.627	4507
4030.211	4539
4031.795	4487
4033.378	4355
4034.96	4512
4036.542	4451
4038.124	4500
4039.704	4446
4041.286	4426
4042.867	4481
4044.447	4439
4046.026	4451
4047.606	4406
4049.187	4474
4050.765	4521
4052.343	4401
4053.92	4381
4055.498	4443
4057.076	4413
4058.654	4375
4060.23	4416
4061.806	4335
4063.381	4338
4064.957	4379
4066.533	4362
4068.107	4442
4069.682	4358
4071.256	4343
4072.829	4326
4074.404	4365
4075.977	4413
4077.549	4362
4079.121	4302
4080.693	4377
4082.265	4367
4083.836	4289
4085.407	4450
4086.977	4433
4088.547	4329
4090.117	4332
4091.687	4298
4093.256	4321
4094.825	4203
4096.392	4367
4097.96	4315
4099.528	4336
4101.097	4261
4102.663	4211
4104.229	4262
4105.795	4259
4107.361	4267
4108.928	4268
4110.493	4315
4112.058	4356
4113.621	4314
4115.186	4358
4116.75	4283
4118.313	4229
4119.876	4204
4121.438	4279
4123	4173
4124.562	4224
4126.125	4265
4127.686	4259
4129.246	4152
4130.807	4185
4132.367	4160
4133.927	4119
4135.486	4173
4137.046	4123
4138.604	4140
4140.162	4216
4141.72	4114
4143.279	4250
4144.836	4036
4146.393	4169
4147.949	4145
4149.505	4128
4151.062	4105
4152.617	4189
4154.172	4105
4155.727	4077
4157.281	4073
4158.836	4095
4160.39	4115
4161.943	4117
4163.496	4201
4165.048	4078
4166.601	4139
4168.154	4047
4169.706	4134
4171.257	4026
4172.808	3956
4174.358	3979
4175.909	4041
4177.458	4023
4179.008	4107
4180.558	4045
4182.106	4112
4183.655	3997
4185.204	4028
4186.751	3992
4188.298	3925
4189.845	4048
4191.392	3946
4192.939	3969
4194.485	4010
4196.031	4015
4197.576	3998
4199.121	4092
4200.666	3996
4202.211	3980
4203.754	4076
4205.298	3990
4206.84	3947
4208.384	4017
4209.927	4010
4211.47	3856
4213.011	3906
4214.552	3969
4216.094	3966
4217.635	3934
4219.175	3956
4220.716	4036
4222.255	3929
4223.793	3900
4225.335	3870
4226.873	3922
4228.411	3954
4229.948	3938
4231.486	3852
4233.024	3974
4234.562	3916
4236.098	3947
4237.634	3762
4239.169	3872
4240.705	3951
4242.241	3803
4243.776	3910
4245.31	3930
4246.844	3914
4248.378	3968
4249.911	3984
4251.445	3823
4252.978	3899
4254.51	3859
4256.042	3902
4257.574	3854
4259.107	3827
4260.638	3861
4262.169	3835
4263.699	3816
4265.228	3893
4266.759	3877
4268.289	3806
4269.818	3802
4271.345	3761
4272.874	3810
4274.402	3845
4275.931	3728
4277.458	3830
4278.985	3829
4280.512	3798
4282.037	3781
4283.564	3860
4285.089	3772
4286.615	3764
4288.139	3842
4289.664	3763
4291.187	3771
4292.712	3807
4294.235	3831
4295.759	3801
4297.281	3743
4298.804	3782
4300.327	3776
4301.849	3755
4303.37	3843
4304.891	3830
4306.412	3798
4307.933	3680
4309.453	3837
4310.973	3720
4312.492	3803
