398.1873	3280
400.7097	3292
403.2336	3387
405.7547	3401
408.2751	3347
410.7948	3421
413.3138	3400
415.83	3406
418.3497	3458
420.8666	3427
423.3829	3347
425.8985	3402
428.4133	3533
430.9275	3538
433.441	3584
435.9538	3462
438.4639	3624
440.9753	3552
443.4881	3572
445.9982	3597
448.5055	3595
451.0142	3545
453.5201	3518
456.0274	3629
458.5361	3565
461.04	3499
463.5453	3555
466.0478	3563
468.5517	3541
471.0549	3649
473.5574	3527
476.0572	3543
478.5584	3626
481.0568	3605
483.5545	3586
486.0557	3656
488.5521	3641
491.0478	3593
493.5449	3615
496.0392	3661
498.5349	3680
501.0299	3663
503.5222	3697
506.0139	3733
508.5048	3737
510.9991	3635
513.4887	3730
515.9777	3723
518.4659	3592
520.9534	3757
523.4403	3707
525.9306	3716
528.4161	3755
530.9009	3788
533.3851	3816
535.8687	3750
538.3535	3794
540.8356	3653
543.3171	3703
545.7979	3824
548.278	3661
550.7595	3721
553.2383	3761
555.7144	3791
558.1918	3790
560.6685	3820
563.1446	3692
565.6221	3778
568.0968	3787
570.5688	3797
573.0422	3851
575.515	3785
577.989	3746
580.4584	3814
582.9291	3862
585.3991	3906
587.8685	3903
590.3352	3905
592.8052	3900
595.2706	3908
597.7372	3844
600.2033	3865
602.6666	3837
605.1334	3847
607.5953	3694
610.0587	3758
612.5193	3818
614.9814	3768
617.4427	3802
619.9034	3861
622.3615	3769
624.8208	3813
627.2775	3862
629.7335	3869
632.1929	3853
634.6476	3837
637.1016	3864
639.5569	3849
642.0096	3802
644.4637	3780
646.9151	3903
649.3678	3851
651.8179	3910
654.2672	3877
656.7159	3936
659.166	3851
661.6154	3868
664.0622	3904
666.5082	3953
668.9537	3867
671.4005	3942
673.8445	3890
676.288	3941
678.7308	3914
681.1729	3931
683.6163	3931
686.0572	3933
688.4973	3917
690.9368	3989
693.3757	4034
695.8138	4004
698.2534	3938
700.6902	4002
703.1245	4002
705.56	4002
707.9949	3994
710.4311	4034
712.8647	4053
715.2957	4016
717.7279	4101
720.1595	4052
722.5905	4061
725.0208	4073
727.4505	4124
729.8795	4017
732.3058	4100
734.7336	4024
737.1626	4055
739.587	4087
742.0128	4132
744.4359	4111
746.8604	4145
749.2841	4119
751.7073	4178
754.1278	4177
756.5496	4189
758.9688	4188
761.3893	4228
763.8093	4253
766.2285	4234
768.6451	4211
771.0611	4200
773.4784	4157
775.895	4358
778.3091	4214
780.7244	4333
783.1371	4217
785.5493	4200
787.9626	4276
790.3754	4279
792.7856	4254
795.1951	4282
797.6039	4219
800.0121	4220
802.4236	4278
804.8306	4292
807.2369	4353
809.6425	4246
812.0475	4212
814.4538	4322
816.8575	4318
819.2606	4218
821.663	4254
824.0648	4334
826.4659	4366
828.8683	4347
831.2682	4263
833.6674	4305
836.066	4362
838.4639	4339
840.8632	4263
843.2579	4385
845.6539	4419
848.0493	4380
850.444	4321
852.84	4396
855.2315	4450
857.6243	4462
860.0165	4259
862.4081	4292
864.797	4304
867.1892	4357
869.5789	4352
871.9659	4391
874.3542	4389
876.74	4286
879.129	4401
881.5155	4359
883.8994	4413
886.2845	4365
888.6671	4324
891.051	4297
893.4343	4368
895.8169	4343
898.197	4392
900.5783	4434
902.9571	4325
905.3372	4283
907.7167	4452
910.0936	4340
912.4698	4435
914.8474	4467
917.2244	4519
919.5987	4477
921.9744	4478
924.3475	4513
926.72	4533
929.0918	4540
931.4669	4589
933.8375	4529
936.2074	4437
938.5767	4649
940.9454	4517
943.3154	4505
945.6829	4578
948.0497	4912
950.4178	4642
952.7833	4946
955.1483	4976
957.5145	5062
959.8782	5133
962.2412	5171
964.6036	5099
966.9655	4942
969.3266	4908
971.6871	4744
974.0471	4629
976.4064	4586
978.765	4573
981.125	4536
983.4824	4481
985.8373	4484
988.1935	4593
990.549	4428
992.9039	4444
995.2602	4443
997.6119	4550
999.965	4466
1002.317	4569
1004.667	4492
1007.02	4522
1009.371	4630
1011.719	4496
1014.068	4518
1016.415	4531
1018.765	4459
1021.111	4594
1023.458	4537
1025.804	4647
1028.147	4629
1030.49	4504
1032.837	4637
1035.179	4591
1037.522	4621
1039.862	4662
1042.204	4632
1044.546	4590
1046.884	4613
1049.224	4658
1051.562	4630
1053.899	4573
1056.237	4545
1058.575	4665
1060.91	4622
1063.244	4604
1065.58	4720
1067.913	4567
1070.248	4662
1072.579	4589
1074.911	4689
1077.242	4696
1079.572	4615
1081.905	4722
1084.234	4653
1086.562	4589
1088.89	4673
1091.217	4652
1093.544	4704
1095.871	4670
1098.197	4634
1100.521	4608
1102.845	4622
1105.169	4632
1107.491	4658
1109.814	4690
1112.135	4652
1114.456	4639
1116.776	4675
1119.096	4688
1121.415	4673
1123.734	4761
1126.052	4687
1128.369	4728
1130.686	4682
1133.002	4668
1135.318	4743
1137.632	4691
1139.945	4678
1142.258	4726
1144.573	4611
1146.884	4683
1149.196	4669
1151.505	4716
1153.816	4716
1156.124	4655
1158.435	4739
1160.742	4709
1163.051	4704
1165.356	4766
1167.663	4681
1169.97	4777
1172.276	4651
1174.579	4747
1176.881	4626
1179.186	4710
1181.487	4766
1183.79	4687
1186.092	4657
1188.392	4643
1190.691	4767
1192.991	4819
1195.291	4615
1197.588	4697
1199.885	4716
1202.181	4707
1204.479	4734
1206.775	4756
1209.07	4780
1211.363	4721
1213.656	4794
1215.949	4725
1218.241	4755
1220.534	4704
1222.825	4711
1225.115	4814
1227.405	4777
1229.693	4787
1231.984	4839
1234.271	4848
1236.558	4786
1238.845	4729
1241.131	4767
1243.416	4749
1245.703	4936
1247.987	4843
1250.269	4832
1252.552	4809
1254.834	4890
1257.118	4854
1259.399	4893
1261.678	4794
1263.958	4829
1266.237	4849
1268.516	4914
1270.794	4826
1273.072	4868
1275.347	4926
1277.624	4826
1279.899	4845
1282.175	4791
1284.449	4834
1286.722	4778
1288.995	4878
1291.266	4796
1293.54	4762
1295.81	4769
1298.081	4831
1300.35	4808
1302.62	4827
1304.889	4864
1307.156	4785
1309.425	4755
1311.69	4817
1313.957	4829
1316.222	4766
1318.488	4819
1320.751	4819
1323.016	4817
1325.278	4785
1327.54	4837
1329.803	4908
1332.065	4813
1334.325	4804
1336.584	4879
1338.843	4818
1341.101	4769
1343.36	4845
1345.617	4878
1347.876	4896
1350.131	4795
1352.387	4811
1354.643	4834
1356.897	4856
1359.151	4840
1361.403	4918
1363.656	4967
1365.909	4933
1368.16	4760
1370.409	4824
1372.659	4879
1374.909	4814
1377.157	4864
1379.407	4845
1381.655	4842
1383.9	4969
1386.147	4880
1388.393	4814
1390.64	4916
1392.885	4890
1395.127	4940
1397.37	4885
1399.614	4972
1401.854	4891
1404.098	4972
1406.339	5008
1408.578	4952
1410.818	4958
1413.056	4919
1415.297	4965
1417.533	4935
1419.771	4876
1422.006	4988
1424.243	4891
1426.479	5006
1428.715	5056
1430.948	5027
1433.182	4989
1435.414	5040
1437.647	5061
1439.88	5136
1442.11	4964
1444.342	5055
1446.571	4974
1448.799	4991
1451.029	5049
1453.258	5097
1455.485	5052
1457.711	5107
1459.937	5107
1462.164	5106
1464.39	5080
1466.614	4989
1468.838	5060
1471.06	5038
1473.283	5037
1475.506	5010
1477.727	4884
1479.949	4980
1482.169	4990
1484.389	4975
1486.609	4970
1488.828	4881
1491.045	4896
1493.261	5066
1495.477	4960
1497.693	4875
1499.91	4914
1502.125	4857
1504.339	4951
1506.553	4852
1508.766	4992
1510.979	5014
1513.191	4929
1515.402	4974
1517.613	4857
1519.823	4889
1522.033	4909
1524.242	4880
1526.451	4916
1528.657	4907
1530.865	4958
1533.072	4996
1535.278	4984
1537.484	4965
1539.687	4971
1541.892	4959
1544.096	5036
1546.299	4967
1548.502	5027
1550.703	5028
1552.905	4986
1555.104	5002
1557.303	5044
1559.505	5033
1561.703	4985
1563.902	5036
1566.099	5008
1568.295	5013
1570.494	4977
1572.689	5082
1574.883	5132
1577.079	4987
1579.272	5078
1581.467	5131
1583.659	5032
1585.853	5068
1588.044	4984
1590.234	5101
1592.424	5040
1594.615	5049
1596.806	5212
1598.994	5040
1601.182	5079
1603.369	5000
1605.557	5121
1607.744	5039
1609.929	5058
1612.114	5127
1614.298	5059
1616.482	5191
1618.667	5144
1620.85	5163
1623.032	5102
1625.214	5081
1627.395	5130
1629.575	5272
1631.755	5058
1633.935	5172
1636.114	5142
1638.292	5149
1640.471	5172
1642.647	5151
1644.823	5184
1647	5148
1649.175	5145
1651.348	5105
1653.525	5149
1655.698	5139
1657.87	5218
1660.043	5199
1662.213	5168
1664.387	5234
1666.558	5252
1668.727	5094
1670.896	5195
1673.064	5176
1675.233	5196
1677.401	5168
1679.569	5219
1681.735	5162
1683.902	5230
1686.066	5124
1688.233	5146
1690.397	5221
1692.559	5226
1694.723	5137
1696.885	5193
1699.048	5158
1701.21	5252
1703.37	5110
1705.53	5101
1707.689	5155
1709.849	5102
1712.009	5157
1714.166	5185
1716.323	5105
1718.479	5114
1720.634	5161
1722.793	5122
1724.948	5076
1727.102	5120
1729.255	5118
1731.408	5137
1733.562	5055
1735.714	5195
1737.865	5177
1740.016	5197
1742.166	5159
1744.316	5086
1746.467	5166
1748.616	5267
1750.764	5191
1752.911	5155
1755.056	5271
1757.205	5266
1759.35	5198
1761.496	5160
1763.641	5235
1765.785	5150
1767.927	5260
1770.072	5211
1772.214	5204
1774.355	5148
1776.496	5255
1778.637	5236
1780.778	5164
1782.918	5135
1785.057	5327
1787.194	5121
1789.333	5274
1791.472	5244
1793.608	5211
1795.745	5281
1797.879	5190
1800.015	5271
1802.148	5173
1804.284	5313
1806.417	5201
1808.548	5259
1810.682	5313
1812.812	5252
1814.946	5225
1817.075	5198
1819.205	5231
1821.335	5224
1823.463	5310
1825.59	5242
1827.721	5121
1829.847	5301
1831.973	5209
1834.098	5203
1836.223	5131
1838.351	5210
1840.475	5120
1842.598	5208
1844.721	5197
1846.843	5216
1848.966	5231
1851.087	5163
1853.21	5214
1855.33	5151
1857.449	5119
1859.568	5215
1861.688	5283
1863.806	5177
1865.924	5181
1868.039	5173
1870.155	5105
1872.273	5223
1874.388	5198
1876.503	5152
1878.617	5148
1880.73	5197
1882.844	5221
1884.956	5222
1887.068	5202
1889.18	5207
1891.291	5223
1893.4	5213
1895.511	5263
1897.621	5254
1899.73	5285
1901.837	5282
1903.944	5319
1906.053	5281
1908.159	5122
1910.265	5304
1912.369	5347
1914.474	5230
1916.577	5227
1918.683	5214
1920.785	5241
1922.888	5322
1924.989	5244
1927.091	5331
1929.193	5259
1931.294	5202
1933.393	5296
1935.493	5392
1937.59	5416
1939.689	5290
1941.788	5319
1943.884	5257
1945.98	5373
1948.077	5362
1950.171	5318
1952.267	5284
1954.361	5218
1956.455	5332
1958.548	5297
1960.64	5245
1962.733	5325
1964.824	5306
1966.915	5338
1969.005	5349
1971.096	5232
1973.185	5374
1975.275	5318
1977.363	5264
1979.45	5210
1981.537	5325
1983.623	5225
1985.711	5260
1987.796	5336
1989.881	5312
1991.965	5281
1994.047	5324
1996.132	5284
1998.215	5244
2000.297	5260
2002.378	5393
2004.46	5204
2006.54	5239
2008.62	5357
2010.7	5275
2012.779	5230
2014.858	5204
2016.934	5217
2019.013	5367
2021.09	5232
2023.165	5228
2025.241	5170
2027.317	5272
2029.39	5260
2031.466	5196
2033.538	5284
2035.612	5279
2037.683	5267
2039.755	5283
2041.827	5383
2043.898	5299
2045.968	5275
2048.038	5257
2050.106	5302
2052.177	5347
2054.244	5259
2056.313	5372
2058.379	5330
2060.444	5370
2062.511	5296
2064.577	5258
2066.641	5325
2068.705	5247
2070.77	5369
2072.832	5241
2074.896	5380
2076.958	5220
2079.02	5229
2081.081	5333
2083.141	5362
2085.2	5341
2087.261	5276
2089.319	5338
2091.377	5284
2093.435	5351
2095.492	5310
2097.552	5339
2099.607	5250
2101.663	5316
2103.718	5374
2105.771	5130
2107.826	5364
2109.879	5315
2111.932	5433
2113.985	5312
2116.037	5307
2118.088	5397
2120.141	5260
2122.191	5232
2124.239	5310
2126.288	5330
2128.337	5195
2130.387	5225
2132.434	5278
2134.481	5297
2136.528	5395
2138.574	5275
2140.618	5349
2142.665	5309
2144.71	5298
2146.753	5369
2148.797	5299
2150.838	5354
2152.883	5289
2154.923	5254
2156.965	5248
2159.007	5180
2161.046	5224
2163.086	5341
2165.126	5397
2167.163	5253
2169.202	5284
2171.239	5231
2173.277	5350
2175.314	5211
2177.349	5191
2179.385	5230
2181.42	5337
2183.453	5257
2185.49	5296
2187.522	5270
2189.555	5249
2191.586	5236
2193.619	5309
2195.651	5222
2197.682	5316
2199.711	5274
2201.74	5182
2203.769	5193
2205.799	5211
2207.828	5288
2209.855	5266
2211.882	5248
2213.908	5176
2215.934	5287
2217.961	5226
2219.986	5246
2222.01	5247
2224.034	5269
2226.057	5226
2228.08	5202
2230.104	5116
2232.124	5324
2234.145	5163
2236.166	5150
2238.186	5262
2240.207	5085
2242.227	5215
2244.244	5287
2246.262	5292
2248.28	5181
2250.299	5175
2252.314	5181
2254.33	5271
2256.346	5287
2258.36	5196
2260.375	5131
2262.391	5200
2264.403	5186
2266.416	5168
2268.427	5149
2270.44	5215
2272.453	5284
2274.463	5223
2276.474	5265
2278.483	5329
2280.493	5370
2282.501	5206
2284.51	5122
2286.518	5175
2288.524	5234
2290.532	5277
2292.537	5313
2294.544	5274
2296.55	5256
2298.554	5220
2300.557	5193
2302.562	5367
2304.566	5221
2306.568	5211
2308.569	5169
2310.572	5215
2312.573	5243
2314.573	5314
2316.574	5199
2318.573	5223
2320.571	5289
2322.571	5198
2324.569	5242
2326.567	5262
2328.564	5241
2330.56	5101
2332.556	5188
2334.551	5169
2336.546	5142
2338.542	5167
2340.535	5187
2342.529	5208
2344.521	5140
2346.512	5117
2348.505	5169
2350.497	5204
2352.487	5145
2354.478	5135
2356.468	5230
2358.457	5213
2360.446	5130
2362.434	5078
2364.422	5122
2366.408	5137
2368.395	5184
2370.383	5177
2372.369	5186
2374.353	5300
2376.338	5036
2378.321	5144
2380.307	5195
2382.29	5210
2384.272	5172
2386.254	5170
2388.235	5330
2390.218	5071
2392.198	5064
2394.179	5090
2396.157	5162
2398.137	5158
2400.115	4988
2402.095	5187
2404.072	5102
2406.048	5118
2408.026	5061
2410.001	5112
2411.977	5157
2413.953	5179
2415.927	5151
2417.9	5148
2419.875	5122
2421.847	5065
2423.821	5086
2425.792	5049
2427.763	5115
2429.736	5147
2431.706	5188
2433.677	5103
2435.646	5160
2437.615	5137
2439.583	5042
2441.551	5098
2443.519	5048
2445.486	5112
2447.452	5157
2449.418	5087
2451.383	5067
2453.348	5188
2455.314	5154
2457.278	5137
2459.241	5136
2461.205	5153
2463.167	5071
2465.131	5094
2467.091	5072
2469.052	5016
2471.012	5083
2472.972	5188
2474.932	5093
2476.891	5101
2478.85	5087
2480.808	5106
2482.766	5134
2484.722	5038
2486.68	5119
2488.636	5009
2490.591	4991
2492.546	5023
2494.5	5110
2496.456	5035
2498.41	5055
2500.362	5111
2502.315	4982
2504.266	5115
2506.218	5080
2508.169	4978
2510.121	5040
2512.07	4993
2514.019	5019
2515.968	5003
2517.918	5055
2519.866	5048
2521.813	5056
2523.76	5039
2525.707	5025
2527.653	5116
2529.599	5069
2531.543	5132
2533.489	5076
2535.433	5050
2537.376	5089
2539.32	5075
2541.264	5039
2543.205	5016
2545.147	5085
2547.087	5125
2549.029	5153
2550.969	5080
2552.908	5068
2554.847	5073
2556.786	5021
2558.724	5054
2560.663	5029
2562.6	5084
2564.537	5004
2566.473	5076
2568.408	5076
2570.345	5031
2572.28	5120
2574.214	5062
2576.148	5080
2578.081	5090
2580.014	5129
2581.947	5039
2583.879	5089
2585.81	5103
2587.741	5019
2589.67	5097
2591.602	5073
2593.532	5048
2595.461	5075
2597.388	5022
2599.316	5011
2601.244	4997
2603.172	5044
2605.098	5012
2607.023	5131
2608.949	5076
2610.873	5037
2612.8	5069
2614.723	5080
2616.647	5087
2618.569	5137
2620.493	5096
2622.416	5101
2624.338	5115
2626.258	5044
2628.179	5140
2630.099	5145
2632.019	5114
2633.939	5094
2635.857	5061
2637.775	5153
2639.694	5000
2641.61	5058
2643.528	5135
2645.444	5032
2647.361	5076
2649.276	5082
2651.19	5024
2653.105	5020
2655.019	5160
2656.934	5130
2658.846	5091
2660.758	5093
2662.67	5055
2664.583	5041
2666.493	5110
2668.404	5100
2670.313	5101
2672.223	5093
2674.134	5106
2676.042	5098
2677.95	5166
2679.858	5178
2681.765	5077
2683.673	5006
2685.579	4965
2687.483	5047
2689.389	5043
2691.294	5134
2693.198	5014
2695.104	5031
2697.006	5064
2698.909	4946
2700.811	5093
2702.713	5112
2704.615	5010
2706.516	4972
2708.417	5110
2710.316	5032
2712.216	4951
2714.115	5076
2716.014	5117
2717.913	4947
2719.81	4891
2721.707	5102
2723.603	5051
2725.501	4965
2727.396	5080
2729.292	4967
2731.186	5055
2733.081	4947
2734.976	4930
2736.87	4977
2738.762	4981
2740.653	4956
2742.546	5019
2744.437	5105
2746.329	4934
2748.22	4963
2750.11	4953
2751.999	4989
2753.889	5052
2755.778	5012
2757.666	5119
2759.553	5072
2761.44	5012
2763.328	4946
2765.215	4993
2767.101	4938
2768.986	5036
2770.87	4971
2772.754	4971
2774.638	4984
2776.523	4962
2778.405	5022
2780.288	4987
2782.17	4950
2784.051	4918
2785.934	4918
2787.814	4960
2789.694	4935
2791.574	4908
2793.453	4870
2795.332	5007
2797.212	4909
2799.088	5022
2800.966	4983
2802.843	4936
2804.719	4928
2806.597	5009
2808.471	4859
2810.346	4927
2812.221	4957
2814.094	5071
2815.969	4932
2817.843	4912
2819.714	5000
2821.587	4898
2823.459	4922
2825.329	4982
2827.202	5020
2829.072	4995
2830.942	4944
2832.811	4929
2834.68	4939
2836.549	4891
2838.418	4937
2840.284	4970
2842.152	4897
2844.018	4912
2845.885	4981
2847.751	5040
2849.616	5030
2851.482	4998
2853.345	4996
2855.208	5017
2857.074	4945
2858.937	5027
2860.799	4919
2862.66	5077
2864.522	5033
2866.385	5020
2868.245	5076
2870.104	5099
2871.964	5097
2873.824	5069
2875.683	5037
2877.542	5079
2879.4	5065
2881.257	5187
2883.114	5116
2884.97	5196
2886.827	5222
2888.683	5173
2890.537	5269
2892.392	5104
2894.246	5270
2896.1	5215
2897.954	5304
2899.807	5278
2901.66	5176
2903.51	5203
2905.362	5097
2907.214	5268
2909.065	5131
2910.915	5231
2912.765	5150
2914.613	5189
2916.463	5214
2918.311	5255
2920.158	5328
2922.006	5306
2923.853	5278
2925.698	5295
2927.546	5378
2929.392	5443
2931.236	5313
2933.081	5386
2934.924	5476
2936.77	5393
2938.613	5496
2940.455	5472
2942.298	5545
2944.139	5468
2945.982	5526
2947.823	5563
2949.662	5412
2951.503	5618
2953.342	5472
2955.182	5520
2957.021	5393
2958.858	5470
2960.697	5382
2962.534	5349
2964.37	5288
2966.207	5305
2968.044	5283
2969.879	5222
2971.714	5222
2973.548	5193
2975.383	5277
2977.218	5228
2979.051	5206
2980.883	5134
2982.715	5124
2984.547	5177
2986.379	5103
2988.21	5141
2990.04	5112
2991.87	5035
2993.7	5129
2995.53	5004
2997.359	5019
2999.187	5033
3001.015	5030
3002.842	5033
3004.669	4997
3006.497	4910
3008.323	4892
3010.148	4865
3011.974	4834
3013.797	4942
3015.623	4827
3017.447	4801
3019.27	4777
3021.094	4884
3022.915	4749
3024.737	4802
3026.56	4798
3028.38	4812
3030.201	4824
3032.022	4718
3033.84	4728
3035.662	4756
3037.481	4727
3039.298	4795
3041.117	4668
3042.933	4823
3044.752	4754
3046.568	4680
3048.385	4774
3050.2	4750
3052.016	4785
3053.83	4790
3055.646	4852
3057.46	4728
3059.272	4803
3061.086	4772
3062.898	4659
3064.711	4662
3066.524	4649
3068.335	4701
3070.145	4679
3071.956	4787
3073.766	4698
3075.576	4725
3077.385	4640
3079.193	4685
3081.002	4718
3082.81	4758
3084.618	4643
3086.425	4730
3088.231	4739
3090.036	4647
3091.842	4734
3093.648	4636
3095.452	4740
3097.257	4609
3099.06	4745
3100.863	4601
3102.666	4686
3104.47	4616
3106.272	4651
3108.073	4698
3109.875	4570
3111.676	4615
3113.477	4599
3115.277	4607
3117.077	4507
3118.874	4510
3120.673	4588
3122.473	4532
3124.271	4475
3126.066	4642
3127.863	4557
3129.66	4497
3131.456	4592
3133.252	4461
3135.047	4538
3136.842	4532
3138.635	4496
3140.429	4642
3142.223	4551
3144.016	4611
3145.808	4609
3147.6	4550
3149.392	4525
3151.183	4522
3152.975	4490
3154.765	4587
3156.553	4467
3158.344	4593
3160.132	4531
3161.922	4574
3163.71	4489
3165.497	4541
3167.285	4544
3169.071	4459
3170.858	4450
3172.645	4553
3174.429	4577
3176.214	4434
3177.998	4429
3179.783	4466
3181.568	4492
3183.351	4548
3185.133	4482
3186.915	4464
3188.698	4423
3190.481	4419
3192.261	4482
3194.042	4464
3195.822	4380
3197.601	4460
3199.381	4421
3201.161	4424
3202.939	4458
3204.717	4376
3206.495	4492
3208.272	4414
3210.05	4540
3211.826	4410
3213.602	4389
3215.376	4387
3217.151	4370
3218.927	4534
3220.702	4442
3222.476	4491
3224.249	4444
3226.021	4487
3227.793	4503
3229.567	4460
3231.339	4475
3233.109	4356
3234.88	4556
3236.651	4438
3238.421	4418
3240.191	4531
3241.96	4438
3243.728	4407
3245.497	4446
3247.263	4388
3249.033	4468
3250.799	4445
3252.566	4360
3254.331	4381
3256.097	4506
3257.863	4469
3259.628	4410
3261.392	4357
3263.156	4503
3264.919	4429
3266.683	4365
3268.447	4460
3270.208	4436
3271.969	4430
3273.731	4465
3275.492	4409
3277.253	4403
3279.013	4508
3280.773	4428
3282.532	4410
3284.291	4429
3286.05	4414
3287.808	4397
3289.566	4392
3291.323	4411
3293.079	4429
3294.835	4492
3296.593	4332
3298.348	4407
3300.102	4405
3301.857	4442
3303.611	4369
3305.366	4340
3307.119	4457
3308.872	4418
3310.624	4463
3312.376	4332
3314.129	4428
3315.881	4514
3317.631	4433
3319.38	4381
3321.13	4487
3322.88	4295
3324.631	4386
3326.379	4356
3328.126	4468
3329.875	4441
3331.622	4506
3333.371	4417
3335.116	4414
3336.863	4382
3338.609	4443
3340.353	4363
3342.1	4381
3343.845	4319
3345.588	4366
3347.332	4391
3349.074	4330
3350.817	4442
3352.56	4482
3354.303	4400
3356.043	4340
3357.785	4393
3359.525	4361
3361.268	4407
3363.007	4368
3364.745	4403
3366.485	4371
3368.223	4391
3369.962	4302
3371.701	4274
3373.438	4375
3375.174	4342
3376.911	4339
3378.647	4379
3380.384	4346
3382.118	4216
3383.854	4257
3385.588	4310
3387.322	4405
3389.057	4251
3390.79	4384
3392.522	4230
3394.255	4227
3395.987	4333
3397.719	4277
3399.451	4265
3401.181	4364
3402.911	4299
3404.641	4308
3406.371	4275
3408.101	4299
3409.83	4304
3411.558	4366
3413.285	4381
3415.011	4293
3416.739	4311
3418.467	4196
3420.193	4222
3421.919	4290
3423.644	4236
3425.368	4221
3427.094	4342
3428.818	4191
3430.542	4279
3432.264	4249
3433.987	4239
3435.712	4328
3437.434	4259
3439.155	4309
3440.876	4264
3442.596	4092
3444.317	4218
3446.039	4187
3447.757	4178
3449.477	4170
3451.195	4289
3452.914	4255
3454.632	4132
3456.35	4222
3458.067	4187
3459.784	4134
3461.5	4212
3463.216	4251
3464.932	4193
3466.647	4192
3468.362	4161
3470.076	4158
3471.789	4044
3473.505	4186
3475.217	4049
3476.929	4125
3478.641	4106
3480.354	4087
3482.066	4145
3483.777	4206
3485.487	4056
3487.197	4077
3488.908	4162
3490.617	4175
3492.327	4091
3494.035	4006
3495.743	4189
3497.451	4116
3499.158	4012
3500.866	4056
3502.572	4128
3504.278	4042
3505.984	4104
3507.689	4009
3509.396	4087
3511.1	4046
3512.804	4115
3514.508	4107
3516.211	4130
3517.913	4156
3519.616	3991
3521.319	4029
3523.021	4080
3524.722	4111
3526.422	4078
3528.124	4047
3529.824	4022
3531.524	3979
3533.222	3987
3534.921	3999
3536.62	3990
3538.318	3979
3540.016	3997
3541.714	3993
3543.41	4019
3545.107	4057
3546.803	3971
3548.5	3950
3550.194	4036
3551.889	4073
3553.583	4031
3555.279	3928
3556.972	4057
3558.666	4057
3560.358	3979
3562.051	3971
3563.742	3944
3565.435	3978
3567.126	3996
3568.817	4031
3570.507	3965
3572.197	3975
3573.888	4041
3575.577	3973
3577.265	3971
3578.954	3879
3580.642	4010
3582.329	3905
3584.017	3947
3585.704	3936
3587.391	3951
3589.077	3981
3590.762	3829
3592.449	3963
3594.133	3942
3595.817	3902
3597.501	3974
3599.185	3960
3600.869	3851
3602.552	3886
3604.234	3818
3605.916	3889
3607.598	3876
3609.279	3880
3610.961	3823
3612.642	3868
3614.321	3882
3616	3915
3617.68	3973
3619.36	3877
3621.039	3874
3622.716	3830
3624.394	3775
3626.071	3834
3627.748	3942
3629.425	3850
3631.102	3799
3632.778	3831
3634.452	3762
3636.127	3850
3637.803	3896
3639.477	3894
3641.151	3834
3642.823	3747
3644.497	3770
3646.171	3848
3647.842	3864
3649.515	3726
3651.185	3841
3652.857	3784
3654.527	3824
3656.198	3711
3657.868	3799
3659.537	3774
3661.207	3778
3662.875	3759
3664.544	3815
3666.212	3754
3667.879	3817
3669.546	3816
3671.212	3780
3672.88	3752
3674.546	3698
3676.211	3700
3677.875	3688
3679.541	3764
3681.205	3731
3682.87	3753
3684.533	3699
3686.196	3698
3687.859	3703
3689.521	3864
3691.184	3765
3692.845	3733
3694.507	3758
3696.167	3800
3697.827	3762
3699.487	3735
3701.148	3746
3702.808	3732
3704.466	3824
3706.125	3724
3707.783	3658
3709.442	3711
3711.099	3660
3712.757	3649
3714.412	3676
3716.068	3672
3717.725	3622
3719.381	3728
3721.036	3727
3722.689	3646
3724.344	3719
3725.998	3644
3727.652	3759
3729.305	3703
3730.958	3729
3732.61	3712
3734.262	3672
3735.915	3687
3737.565	3616
3739.217	3632
3740.866	3639
3742.516	3645
3744.165	3675
3745.816	3723
3747.464	3644
3749.113	3670
3750.761	3624
3752.409	3577
3754.057	3626
3755.703	3690
3757.35	3623
3758.996	3648
3760.641	3648
3762.289	3636
3763.933	3586
3765.577	3639
3767.222	3638
3768.865	3704
3770.508	3650
3772.152	3607
3773.796	3629
3775.438	3582
3777.079	3630
3778.721	3597
3780.363	3616
3782.003	3560
3783.643	3667
3785.283	3612
3786.923	3536
3788.563	3589
3790.203	3602
3791.841	3528
3793.479	3591
3795.115	3523
3796.753	3516
3798.391	3602
3800.027	3543
3801.664	3531
3803.299	3481
3804.935	3588
3806.571	3610
3808.206	3615
3809.839	3527
3811.473	3515
3813.107	3572
3814.74	3497
3816.375	3537
3818.006	3538
3819.638	3617
3821.27	3535
3822.9	3490
3824.532	3500
3826.163	3615
3827.792	3536
3829.423	3509
3831.051	3470
3832.682	3557
3834.311	3495
3835.938	3564
3837.566	3481
3839.193	3538
3840.821	3489
3842.448	3456
3844.075	3536
3845.7	3438
3847.325	3544
3848.951	3491
3850.576	3398
3852.201	3468
3853.825	3461
3855.448	3459
3857.072	3474
3858.694	3438
3860.318	3472
3861.939	3467
3863.562	3466
3865.183	3496
3866.804	3486
3868.426	3485
3870.045	3452
3871.666	3419
3873.285	3456
3874.904	3394
3876.524	3458
3878.142	3457
3879.76	3468
3881.378	3494
3882.995	3442
3884.612	3441
3886.229	3416
3887.845	3384
3889.461	3421
3891.076	3394
3892.691	3379
3894.307	3346
3895.922	3492
3897.536	3366
3899.149	3417
3900.761	3465
3902.374	3434
3903.988	3384
3905.6	3406
3907.212	3449
3908.822	3355
3910.433	3371
3912.045	3369
3913.655	3427
3915.265	3358
3916.875	3455
3918.483	3382
3920.093	3454
3921.702	3394
3923.309	3325
3924.917	3509
3926.523	3393
3928.13	3372
3929.739	3337
3931.344	3418
3932.95	3359
3934.555	3313
3936.159	3337
3937.766	3357
3939.369	3346
3940.974	3394
3942.577	3362
3944.181	3355
3945.783	3327
3947.386	3418
3948.989	3360
3950.59	3385
3952.191	3383
3953.791	3357
3955.394	3289
3956.994	3327
3958.593	3435
3960.192	3305
3961.791	3308
3963.392	3377
3964.99	3281
3966.588	3332
3968.185	3268
3969.782	3305
3971.379	3277
3972.976	3306
3974.572	3286
3976.168	3296
3977.763	3226
3979.358	3310
3980.954	3258
3982.548	3281
3984.142	3213
3985.736	3255
3987.329	3267
3988.922	3312
3990.516	3236
3992.108	3271
3993.698	3311
3995.29	3316
3996.881	3285
3998.473	3262
4000.064	3300
4001.653	3234
4003.242	3284
4004.832	3223
4006.422	3300
4008.01	3239
4009.598	3228
4011.186	3221
4012.773	3206
4014.36	3225
4015.947	3156
4017.534	3306
4019.119	3194
4020.705	3097
4022.291	3194
4023.876	3182
4025.461	3165
4027.044	3200
4028.627	3180
4030.211	3134
4031.795	3225
4033.378	3157
4034.96	3145
4036.542	3202
4038.124	3219
4039.704	3240
4041.286	3163
4042.867	3291
4044.447	3217
4046.026	3150
4047.606	3195
4049.187	3135
4050.765	3125
4052.343	3122
4053.92	3216
4055.498	3113
4057.076	3113
4058.654	3180
4060.23	3152
4061.806	3068
4063.381	3175
4064.957	3165
4066.533	3132
4068.107	3106
4069.682	3175
4071.256	3132
4072.829	3106
4074.404	3096
4075.977	3119
4077.549	3135
4079.121	3112
4080.693	3065
4082.265	3112
4083.836	3101
4085.407	3048
4086.977	3079
4088.547	3072
4090.117	3128
4091.687	3034
4093.256	3125
4094.825	3155
4096.392	3087
4097.96	3037
4099.528	3087
4101.097	3145
4102.663	3060
4104.229	3075
4105.795	3105
4107.361	3112
4108.928	3048
4110.493	3015
4112.058	3045
4113.621	3062
4115.186	3037
4116.75	3063
4118.313	2997
4119.876	3066
4121.438	3105
4123	3058
4124.562	2986
4126.125	3022
4127.686	3001
4129.246	2999
4130.807	2978
4132.367	3024
4133.927	3064
4135.486	3002
4137.046	2981
4138.604	3042
4140.162	2955
4141.72	3039
4143.279	2910
4144.836	3001
4146.393	3025
4147.949	2947
4149.505	2979
4151.062	3009
4152.617	2983
4154.172	2977
4155.727	2986
4157.281	2970
4158.836	2951
4160.39	2912
4161.943	2926
4163.496	3005
4165.048	2958
4166.601	2928
4168.154	2943
4169.706	2945
4171.257	3028
4172.808	2901
4174.358	2929
4175.909	2959
4177.458	2959
4179.008	2893
4180.558	2952
4182.106	2884
4183.655	2938
4185.204	2937
4186.751	2868
4188.298	2964
4189.845	2881
4191.392	2856
4192.939	2915
4194.485	2908
4196.031	2869
4197.576	2972
4199.121	2853
4200.666	2944
4202.211	2921
4203.754	2851
4205.298	2882
4206.84	2870
4208.384	2820
4209.927	2979
4211.47	2827
4213.011	2912
4214.552	2867
4216.094	2845
4217.635	2900
4219.175	2908
4220.716	2841
4222.255	2981
4223.793	2853
4225.335	2863
4226.873	2916
4228.411	2804
4229.948	2816
4231.486	2855
4233.024	2826
4234.562	2874
4236.098	2799
4237.634	2901
4239.169	2783
4240.705	2922
4242.241	2855
4243.776	2828
4245.31	2837
4246.844	2929
4248.378	2879
4249.911	2857
4251.445	2812
4252.978	2844
4254.51	2784
4256.042	2818
4257.574	2831
4259.107	2827
4260.638	2827
4262.169	2856
4263.699	2758
4265.228	2880
4266.759	2759
4268.289	2788
4269.818	2796
4271.345	2837
4272.874	2778
4274.402	2865
4275.931	2833
4277.458	2816
4278.985	2843
4280.512	2779
4282.037	2764
4283.564	2784
4285.089	2791
4286.615	2813
4288.139	2773
4289.664	2777
4291.187	2785
4292.712	2806
4294.235	2762
4295.759	2732
4297.281	2813
4298.804	2757
4300.327	2801
4301.849	2805
4303.37	2819
4304.891	2768
4306.412	2820
4307.933	2818
4309.453	2781
4310.973	2753
4312.492	2676
