398.1873	13060
400.7097	13141
403.2336	13129
405.7547	13058
408.2751	13258
410.7948	13328
413.3138	13369
415.83	13412
418.3497	13540
420.8666	13541
423.3829	13821
425.8985	13698
428.4133	13923
430.9275	13969
433.441	13846
435.9538	13973
438.4639	13982
440.9753	13929
443.4881	14095
445.9982	14047
448.5055	14204
451.0142	14063
453.5201	14192
456.0274	14233
458.5361	14295
461.04	14053
463.5453	14273
466.0478	14257
468.5517	14339
471.0549	14309
473.5574	14294
476.0572	14457
478.5584	14404
481.0568	14465
483.5545	14661
486.0557	14572
488.5521	14663
491.0478	14558
493.5449	14513
496.0392	14622
498.5349	14771
501.0299	14788
503.5222	14902
506.0139	14819
508.5048	15102
510.9991	14730
513.4887	14948
515.9777	14937
518.4659	14996
520.9534	14889
523.4403	15066
525.9306	15104
528.4161	15059
530.9009	15121
533.3851	15123
535.8687	15136
538.3535	15018
540.8356	15108
543.3171	15057
545.7979	14983
548.278	15314
550.7595	15142
553.2383	15095
555.7144	15068
558.1918	15116
560.6685	15053
563.1446	15090
565.6221	15248
568.0968	15157
570.5688	15136
573.0422	15373
575.515	15352
577.989	15461
580.4584	15431
582.9291	15420
585.3991	15435
587.8685	15483
590.3352	15488
592.8052	15463
595.2706	15566
597.7372	15560
600.2033	15572
602.6666	15610
605.1334	15557
607.5953	15621
610.0587	15523
612.5193	15411
614.9814	15592
617.4427	15568
619.9034	15471
622.3615	15525
624.8208	15420
627.2775	15600
629.7335	15600
632.1929	15531
634.6476	15579
637.1016	15522
639.5569	15586
642.0096	15725
644.4637	15829
646.9151	15847
649.3678	15754
651.8179	15540
654.2672	16010
656.7159	16036
659.166	15868
661.6154	16071
664.0622	16027
666.5082	15840
668.9537	15890
671.4005	16238
673.8445	15992
676.288	16036
678.7308	16041
681.1729	16265
683.6163	16147
686.0572	16065
688.4973	16237
690.9368	16163
693.3757	16139
695.8138	16264
698.2534	16210
700.6902	16385
703.1245	16295
705.56	16318
707.9949	16310
710.4311	16564
712.8647	16290
715.2957	16484
717.7279	16696
720.1595	16245
722.5905	16657
725.0208	16534
727.4505	16753
729.8795	16638
732.3058	16925
734.7336	16678
737.1626	17130
739.587	16874
742.0128	16917
744.4359	17107
746.8604	16931
749.2841	17232
751.7073	17191
754.1278	17303
756.5496	17250
758.9688	17359
761.3893	17430
763.8093	17257
766.2285	17269
768.6451	17505
771.0611	17292
773.4784	17459
775.895	17314
778.3091	17445
780.7244	17436
783.1371	17241
785.5493	17548
787.9626	17172
790.3754	17406
792.7856	17405
795.1951	17329
797.6039	17395
800.0121	17589
802.4236	17471
804.8306	17461
807.2369	17572
809.6425	17492
812.0475	17534
814.4538	17634
816.8575	17548
819.2606	17540
821.663	17691
824.0648	17663
826.4659	17702
828.8683	17470
831.2682	17535
833.6674	17607
836.066	17704
838.4639	17727
840.8632	17697
843.2579	17644
845.6539	17802
848.0493	17673
850.444	18090
852.84	17700
855.2315	17944
857.6243	17879
860.0165	17898
862.4081	17700
864.797	17848
867.1892	17820
869.5789	17750
871.9659	17891
874.3542	18009
876.74	17853
879.129	17856
881.5155	18006
883.8994	17739
886.2845	17989
888.6671	17849
891.051	17753
893.4343	17789
895.8169	17928
898.197	17897
900.5783	17841
902.9571	17823
905.3372	17947
907.7167	18020
910.0936	17967
912.4698	17986
914.8474	18089
917.2244	18176
919.5987	18155
921.9744	18065
924.3475	18250
926.72	18261
929.0918	18357
931.4669	18307
933.8375	18358
936.2074	18425
938.5767	18563
940.9454	18675
943.3154	18775
945.6829	18859
948.0497	18802
950.4178	19209
952.7833	19372
955.1483	19655
957.5145	19951
959.8782	19992
962.2412	20069
964.6036	19922
966.9655	19498
969.3266	19276
971.6871	18983
974.0471	18606
976.4064	18612
978.765	18610
981.125	18584
983.4824	18530
985.8373	18507
988.1935	18388
990.549	18111
992.9039	18515
995.2602	18297
997.6119	18237
999.965	18440
1002.317	18279
1004.667	18409
1007.02	18361
1009.371	18509
1011.719	18418
1014.068	18472
1016.415	18502
1018.765	18516
1021.111	18645
1023.458	18561
1025.804	18410
1028.147	18442
1030.49	18492
1032.837	18525
1035.179	18791
1037.522	18598
1039.862	18535
1042.204	18785
1044.546	18541
1046.884	18660
1049.224	18650
1051.562	18800
1053.899	18763
1056.237	18705
1058.575	18665
1060.91	18794
1063.244	18781
1065.58	18765
1067.913	18906
1070.248	18879
1072.579	18907
1074.911	18878
1077.242	18840
1079.572	18778
1081.905	18851
1084.234	18924
1086.562	18867
1088.89	18776
1091.217	18695
1093.544	18970
1095.871	18745
1098.197	18921
1100.521	18873
1102.845	18836
1105.169	18952
1107.491	18728
1109.814	18861
1112.135	18936
1114.456	19016
1116.776	19009
1119.096	19118
1121.415	18877
1123.734	19031
1126.052	19091
1128.369	19124
1130.686	19095
1133.002	18889
1135.318	19073
1137.632	18964
1139.945	19089
1142.258	18992
1144.573	19207
1146.884	19212
1149.196	18943
1151.505	19063
1153.816	19113
1156.124	19096
1158.435	19079
1160.742	19041
1163.051	19081
1165.356	18989
1167.663	18960
1169.97	19129
1172.276	19010
1174.579	19169
1176.881	19007
1179.186	19120
1181.487	19101
1183.79	19058
1186.092	18996
1188.392	19119
1190.691	19268
1192.991	19115
1195.291	18953
1197.588	19034
1199.885	18988
1202.181	18976
1204.479	19213
1206.775	19047
1209.07	19263
1211.363	19285
1213.656	19073
1215.949	19303
1218.241	19188
1220.534	19172
1222.825	19168
1225.115	19133
1227.405	19170
1229.693	19298
1231.984	19308
1234.271	19589
1236.558	19453
1238.845	19606
1241.131	19481
1243.416	19690
1245.703	19474
1247.987	19491
1250.269	19549
1252.552	19553
1254.834	19580
1257.118	19470
1259.399	19375
1261.678	19680
1263.958	19484
1266.237	19393
1268.516	19469
1270.794	19345
1273.072	19802
1275.347	19606
1277.624	19489
1279.899	19397
1282.175	19407
1284.449	19576
1286.722	19694
1288.995	19446
1291.266	19530
1293.54	19447
1295.81	19576
1298.081	19390
1300.35	19292
1302.62	19452
1304.889	19488
1307.156	19541
1309.425	19621
1311.69	19243
1313.957	19342
1316.222	19548
1318.488	19391
1320.751	19476
1323.016	19498
1325.278	19503
1327.54	19234
1329.803	19606
1332.065	19411
1334.325	19447
1336.584	19557
1338.843	19633
1341.101	19309
1343.36	19677
1345.617	19468
1347.876	19331
1350.131	19519
1352.387	19335
1354.643	19565
1356.897	19455
1359.151	19468
1361.403	19519
1363.656	19568
1365.909	19571
1368.16	19695
1370.409	19488
1372.659	19649
1374.909	19739
1377.157	19749
1379.407	19346
1381.655	19501
1383.9	19639
1386.147	19349
1388.393	19705
1390.64	19712
1392.885	19820
1395.127	19732
1397.37	19669
1399.614	19689
1401.854	19804
1404.098	19677
1406.339	19680
1408.578	19920
1410.818	19805
1413.056	19683
1415.297	20048
1417.533	20058
1419.771	19978
1422.006	20057
1424.243	20129
1426.479	19761
1428.715	20105
1430.948	20123
1433.182	20144
1435.414	19858
1437.647	20111
1439.88	20022
1442.11	20132
1444.342	20048
1446.571	20184
1448.799	20227
1451.029	20193
1453.258	20129
1455.485	20045
1457.711	20175
1459.937	19925
1462.164	19945
1464.39	20063
1466.614	19944
1468.838	19957
1471.06	20221
1473.283	19957
1475.506	19840
1477.727	20131
1479.949	19900
1482.169	19944
1484.389	19805
1486.609	19812
1488.828	19844
1491.045	19686
1493.261	19720
1495.477	19832
1497.693	19858
1499.91	19816
1502.125	19805
1504.339	19758
1506.553	19724
1508.766	19706
1510.979	19673
1513.191	19578
1515.402	19699
1517.613	19476
1519.823	19482
1522.033	19879
1524.242	19636
1526.451	19447
1528.657	19387
1530.865	19808
1533.072	19594
1535.278	19909
1537.484	19703
1539.687	19703
1541.892	19731
1544.096	19943
1546.299	19685
1548.502	19710
1550.703	20006
1552.905	19756
1555.104	19814
1557.303	19942
1559.505	19880
1561.703	19977
1563.902	20078
1566.099	20055
1568.295	20205
1570.494	20233
1572.689	19963
1574.883	20321
1577.079	20049
1579.272	20049
1581.467	20254
1583.659	20386
1585.853	20189
1588.044	20340
1590.234	20233
1592.424	20244
1594.615	20348
1596.806	20325
1598.994	20423
1601.182	20265
1603.369	20380
1605.557	20448
1607.744	20355
1609.929	20421
1612.114	20370
1614.298	20398
1616.482	20406
1618.667	20346
1620.85	20622
1623.032	20371
1625.214	20340
1627.395	20340
1629.575	20477
1631.755	20619
1633.935	20306
1636.114	20397
1638.292	20353
1640.471	20456
1642.647	20478
1644.823	20456
1647	20419
1649.175	20460
1651.348	20459
1653.525	20583
1655.698	20719
1657.87	20574
1660.043	20658
1662.213	20665
1664.387	20528
1666.558	20547
1668.727	20483
1670.896	20598
1673.064	20619
1675.233	20509
1677.401	20494
1679.569	20353
1681.735	20585
1683.902	20389
1686.066	20356
1688.233	20476
1690.397	20643
1692.559	20494
1694.723	20292
1696.885	20468
1699.048	20210
1701.21	20415
1703.37	20102
1705.53	20481
1707.689	20605
1709.849	20261
1712.009	20347
1714.166	20332
1716.323	20357
1718.479	20535
1720.634	20332
1722.793	20438
1724.948	20354
1727.102	20262
1729.255	20393
1731.408	20383
1733.562	20320
1735.714	20212
1737.865	20510
1740.016	20444
1742.166	20357
1744.316	20324
1746.467	20412
1748.616	20342
1750.764	20466
1752.911	20321
1755.056	20599
1757.205	20450
1759.35	20483
1761.496	20280
1763.641	20561
1765.785	20406
1767.927	20505
1770.072	20465
1772.214	20487
1774.355	20282
1776.496	20618
1778.637	20704
1780.778	20609
1782.918	20510
1785.057	20362
1787.194	20582
1789.333	20787
1791.472	20801
1793.608	20754
1795.745	20696
1797.879	20735
1800.015	20450
1802.148	20652
1804.284	20636
1806.417	20549
1808.548	20565
1810.682	20291
1812.812	20726
1814.946	20696
1817.075	20692
1819.205	20534
1821.335	20349
1823.463	20681
1825.59	20603
1827.721	20507
1829.847	20452
1831.973	20567
1834.098	20557
1836.223	20329
1838.351	20434
1840.475	20427
1842.598	20535
1844.721	20540
1846.843	20401
1848.966	20522
1851.087	20308
1853.21	20506
1855.33	20369
1857.449	20220
1859.568	20259
1861.688	20344
1863.806	20356
1865.924	20365
1868.039	20450
1870.155	20351
1872.273	20370
1874.388	20445
1876.503	20192
1878.617	20398
1880.73	20316
1882.844	20463
1884.956	20517
1887.068	20402
1889.18	20336
1891.291	20662
1893.4	20510
1895.511	20412
1897.621	20550
1899.73	20381
1901.837	20496
1903.944	20611
1906.053	20773
1908.159	20660
1910.265	20709
1912.369	20690
1914.474	20470
1916.577	20742
1918.683	20787
1920.785	20806
1922.888	20541
1924.989	20790
1927.091	20894
1929.193	20649
1931.294	20681
1933.393	20755
1935.493	20775
1937.59	20733
1939.689	20595
1941.788	21019
1943.884	20684
1945.98	20715
1948.077	20882
1950.171	20621
1952.267	20608
1954.361	20491
1956.455	20502
1958.548	20629
1960.64	20684
1962.733	20638
1964.824	20894
1966.915	20904
1969.005	20806
1971.096	20575
1973.185	20753
1975.275	20771
1977.363	20440
1979.45	20631
1981.537	20393
1983.623	20658
1985.711	20608
1987.796	20406
1989.881	20573
1991.965	20481
1994.047	20568
1996.132	20640
1998.215	20473
2000.297	20522
2002.378	20534
2004.46	20450
2006.54	20340
2008.62	20759
2010.7	20590
2012.779	20341
2014.858	20393
2016.934	20540
2019.013	20236
2021.09	20615
2023.165	20240
2025.241	20332
2027.317	20529
2029.39	20411
2031.466	20375
2033.538	20469
2035.612	20288
2037.683	20326
2039.755	20381
2041.827	20471
2043.898	20456
2045.968	20466
2048.038	20351
2050.106	20665
2052.177	20461
2054.244	20611
2056.313	20364
2058.379	20570
2060.444	20535
2062.511	20334
2064.577	20250
2066.641	20617
2068.705	20489
2070.77	20296
2072.832	20342
2074.896	20472
2076.958	20529
2079.02	20323
2081.081	20455
2083.141	20479
2085.2	20425
2087.261	20571
2089.319	20479
2091.377	20460
2093.435	20423
2095.492	20181
2097.552	20457
2099.607	20457
2101.663	20465
2103.718	20543
2105.771	20202
2107.826	20540
2109.879	20371
2111.932	20647
2113.985	20560
2116.037	20547
2118.088	20485
2120.141	20380
2122.191	20377
2124.239	20605
2126.288	20331
2128.337	20480
2130.387	20363
2132.434	20564
2134.481	20388
2136.528	20362
2138.574	20298
2140.618	20329
2142.665	20375
2144.71	20192
2146.753	20416
2148.797	20072
2150.838	20319
2152.883	20325
2154.923	20406
2156.965	20264
2159.007	20310
2161.046	20342
2163.086	20175
2165.126	20462
2167.163	20181
2169.202	20187
2171.239	20240
2173.277	20163
2175.314	20151
2177.349	19997
2179.385	20253
2181.42	20244
2183.453	19981
2185.49	19971
2187.522	19991
2189.555	20192
2191.586	20143
2193.619	19925
2195.651	20003
2197.682	20065
2199.711	20019
2201.74	19928
2203.769	20009
2205.799	19945
2207.828	19866
2209.855	19809
2211.882	20087
2213.908	19894
2215.934	19883
2217.961	19731
2219.986	19873
2222.01	19808
2224.034	19781
2226.057	19701
2228.08	19857
2230.104	19803
2232.124	19838
2234.145	19774
2236.166	19771
2238.186	19774
2240.207	19675
2242.227	20037
2244.244	19645
2246.262	19581
2248.28	19723
2250.299	19766
2252.314	19590
2254.33	19898
2256.346	19859
2258.36	19600
2260.375	19856
2262.391	19898
2264.403	19861
2266.416	19919
2268.427	19641
2270.44	19682
2272.453	20055
2274.463	19918
2276.474	19645
2278.483	19702
2280.493	19921
2282.501	19627
2284.51	19903
2286.518	19766
2288.524	19748
2290.532	19601
2292.537	19661
2294.544	19667
2296.55	19814
2298.554	19723
2300.557	19783
2302.562	19688
2304.566	19746
2306.568	19474
2308.569	19788
2310.572	19667
2312.573	19776
2314.573	19575
2316.574	19669
2318.573	19633
2320.571	19635
2322.571	19713
2324.569	19583
2326.567	19567
2328.564	19648
2330.56	19621
2332.556	19470
2334.551	19558
2336.546	19507
2338.542	19546
2340.535	19582
2342.529	19583
2344.521	19476
2346.512	19513
2348.505	19271
2350.497	19376
2352.487	19335
2354.478	19373
2356.468	19372
2358.457	19342
2360.446	19303
2362.434	19455
2364.422	19298
2366.408	19485
2368.395	19328
2370.383	19252
2372.369	19242
2374.353	19434
2376.338	19275
2378.321	19128
2380.307	19277
2382.29	19272
2384.272	19115
2386.254	18936
2388.235	19065
2390.218	19155
2392.198	19110
2394.179	19240
2396.157	18989
2398.137	19220
2400.115	18730
2402.095	19032
2404.072	19073
2406.048	19148
2408.026	18857
2410.001	19057
2411.977	19025
2413.953	19132
2415.927	18910
2417.9	19013
2419.875	19107
2421.847	19015
2423.821	18808
2425.792	18992
2427.763	18978
2429.736	19222
2431.706	19043
2433.677	18899
2435.646	19129
2437.615	18987
2439.583	18769
2441.551	19009
2443.519	19168
2445.486	18940
2447.452	18967
2449.418	18901
2451.383	18852
2453.348	19026
2455.314	18770
2457.278	19030
2459.241	18815
2461.205	18803
2463.167	18855
2465.131	18954
2467.091	18943
2469.052	18745
2471.012	18705
2472.972	18954
2474.932	18919
2476.891	18837
2478.85	18784
2480.808	18688
2482.766	18686
2484.722	18551
2486.68	18572
2488.636	18706
2490.591	18634
2492.546	18898
2494.5	18704
2496.456	18784
2498.41	18802
2500.362	18744
2502.315	18565
2504.266	19044
2506.218	18618
2508.169	18675
2510.121	18777
2512.07	18518
2514.019	18454
2515.968	18702
2517.918	18517
2519.866	18541
2521.813	18526
2523.76	18617
2525.707	18445
2527.653	18541
2529.599	18545
2531.543	18647
2533.489	18804
2535.433	18474
2537.376	18658
2539.32	18619
2541.264	18412
2543.205	18736
2545.147	18714
2547.087	18512
2549.029	18412
2550.969	18599
2552.908	18366
2554.847	18842
2556.786	18377
2558.724	18595
2560.663	18513
2562.6	18702
2564.537	18595
2566.473	18351
2568.408	18598
2570.345	18342
2572.28	18624
2574.214	18547
2576.148	18406
2578.081	18512
2580.014	18483
2581.947	18540
2583.879	18668
2585.81	18461
2587.741	18652
2589.67	18336
2591.602	18397
2593.532	18531
2595.461	18583
2597.388	18720
2599.316	18669
2601.244	18468
2603.172	18423
2605.098	18435
2607.023	18301
2608.949	18456
2610.873	18668
2612.8	18477
2614.723	18368
2616.647	18546
2618.569	18570
2620.493	18607
2622.416	18611
2624.338	18508
2626.258	18578
2628.179	18662
2630.099	18592
2632.019	18601
2633.939	18742
2635.857	18348
2637.775	18599
2639.694	18498
2641.61	18453
2643.528	18785
2645.444	18317
2647.361	18391
2649.276	18627
2651.19	18507
2653.105	18519
2655.019	18324
2656.934	18604
2658.846	18416
2660.758	18432
2662.67	18289
2664.583	18450
2666.493	18527
2668.404	18283
2670.313	18443
2672.223	18585
2674.134	18308
2676.042	18321
2677.95	18318
2679.858	18172
2681.765	18399
2683.673	18236
2685.579	18176
2687.483	18295
2689.389	18252
2691.294	18136
2693.198	18112
2695.104	18243
2697.006	18238
2698.909	18072
2700.811	18205
2702.713	18309
2704.615	18112
2706.516	18167
2708.417	18197
2710.316	18063
2712.216	18086
2714.115	18068
2716.014	18014
2717.913	17865
2719.81	17962
2721.707	17963
2723.603	18081
2725.501	18106
2727.396	17998
2729.292	18050
2731.186	18028
2733.081	18125
2734.976	17971
2736.87	18015
2738.762	17895
2740.653	18054
2742.546	17980
2744.437	18009
2746.329	17694
2748.22	18234
2750.11	17927
2751.999	17966
2753.889	18084
2755.778	18021
2757.666	17876
2759.553	17989
2761.44	17837
2763.328	17764
2765.215	17773
2767.101	17897
2768.986	17878
2770.87	17958
2772.754	17749
2774.638	17943
2776.523	17624
2778.405	17868
2780.288	17754
2782.17	17918
2784.051	17611
2785.934	17760
2787.814	17943
2789.694	17773
2791.574	17706
2793.453	17637
2795.332	17919
2797.212	17653
2799.088	17445
2800.966	17635
2802.843	17579
2804.719	17893
2806.597	17579
2808.471	17650
2810.346	17645
2812.221	17542
2814.094	17812
2815.969	17683
2817.843	17643
2819.714	17689
2821.587	17637
2823.459	17613
2825.329	17472
2827.202	17520
2829.072	17627
2830.942	17500
2832.811	17505
2834.68	17530
2836.549	17584
2838.418	17691
2840.284	17651
2842.152	17567
2844.018	17512
2845.885	17611
2847.751	17570
2849.616	17514
2851.482	17631
2853.345	17511
2855.208	17524
2857.074	17605
2858.937	17614
2860.799	17327
2862.66	17841
2864.522	17533
2866.385	17781
2868.245	17716
2870.104	17881
2871.964	17699
2873.824	17903
2875.683	17776
2877.542	17866
2879.4	17849
2881.257	17817
2883.114	18195
2884.97	17953
2886.827	17933
2888.683	17884
2890.537	17954
2892.392	17856
2894.246	17962
2896.1	17979
2897.954	17955
2899.807	17924
2901.66	17903
2903.51	17702
2905.362	17765
2907.214	17749
2909.065	17841
2910.915	18072
2912.765	17954
2914.613	17659
2916.463	18022
2918.311	17964
2920.158	18011
2922.006	17893
2923.853	18101
2925.698	18276
2927.546	18200
2929.392	18260
2931.236	18315
2933.081	18239
2934.924	18483
2936.77	18345
2938.613	18401
2940.455	18481
2942.298	18673
2944.139	18550
2945.982	18647
2947.823	18526
2949.662	18264
2951.503	18485
2953.342	18436
2955.182	18299
2957.021	18138
2958.858	18280
2960.697	18138
2962.534	18137
2964.37	18063
2966.207	17880
2968.044	17923
2969.879	18009
2971.714	17690
2973.548	17769
2975.383	17704
2977.218	17508
2979.051	17672
2980.883	17710
2982.715	17661
2984.547	17614
2986.379	17696
2988.21	17612
2990.04	17385
2991.87	17444
2993.7	17188
2995.53	17191
2997.359	17108
2999.187	17167
3001.015	17166
3002.842	17016
3004.669	16964
3006.497	16993
3008.323	16969
3010.148	17140
3011.974	16771
3013.797	16840
3015.623	16831
3017.447	16806
3019.27	16824
3021.094	16827
3022.915	16437
3024.737	16776
3026.56	16535
3028.38	16632
3030.201	16397
3032.022	16552
3033.84	16557
3035.662	16445
3037.481	16536
3039.298	16506
3041.117	16350
3042.933	16554
3044.752	16431
3046.568	16555
3048.385	16450
3050.2	16447
3052.016	16517
3053.83	16502
3055.646	16406
3057.46	16456
3059.272	16454
3061.086	16421
3062.898	16477
3064.711	16298
3066.524	16418
3068.335	16290
3070.145	16469
3071.956	16372
3073.766	16291
3075.576	16124
3077.385	16280
3079.193	16272
3081.002	16361
3082.81	16224
3084.618	16188
3086.425	16180
3088.231	16236
3090.036	16047
3091.842	16184
3093.648	15978
3095.452	16090
3097.257	16127
3099.06	16009
3100.863	15974
3102.666	15899
3104.47	16087
3106.272	15876
3108.073	16126
3109.875	15752
3111.676	15895
3113.477	15811
3115.277	15783
3117.077	15868
3118.874	15696
3120.673	15883
3122.473	15666
3124.271	15626
3126.066	15695
3127.863	15589
3129.66	15678
3131.456	15767
3133.252	15708
3135.047	15673
3136.842	15687
3138.635	15548
3140.429	15703
3142.223	15689
3144.016	15560
3145.808	15435
3147.6	15515
3149.392	15353
3151.183	15672
3152.975	15605
3154.765	15383
3156.553	15552
3158.344	15664
3160.132	15383
3161.922	15560
3163.71	15293
3165.497	15579
3167.285	15452
3169.071	15291
3170.858	15304
3172.645	15187
3174.429	15289
3176.214	15280
3177.998	15264
3179.783	15200
3181.568	15367
3183.351	15437
3185.133	15108
3186.915	15203
3188.698	15371
3190.481	15376
3192.261	15313
3194.042	15290
3195.822	15230
3197.601	15280
3199.381	15211
3201.161	15139
3202.939	15127
3204.717	15106
3206.495	15388
3208.272	15096
3210.05	15163
3211.826	15188
3213.602	15105
3215.376	15019
3217.151	15145
3218.927	15127
3220.702	15063
3222.476	15008
3224.249	14922
3226.021	15070
3227.793	15191
3229.567	14890
3231.339	14916
3233.109	15121
3234.88	15255
3236.651	14895
3238.421	14783
3240.191	14888
3241.96	14946
3243.728	14878
3245.497	14808
3247.263	14810
3249.033	15148
3250.799	14899
3252.566	14861
3254.331	14815
3256.097	15033
3257.863	14941
3259.628	14949
3261.392	14951
3263.156	14965
3264.919	14873
3266.683	14876
3268.447	14952
3270.208	14821
3271.969	14790
3273.731	14772
3275.492	14942
3277.253	14903
3279.013	14964
3280.773	14920
3282.532	14976
3284.291	14942
3286.05	14975
3287.808	14809
3289.566	14835
3291.323	14845
3293.079	14826
3294.835	14776
3296.593	14715
3298.348	14910
3300.102	14634
3301.857	14762
3303.611	14840
3305.366	14755
3307.119	14716
3308.872	14812
3310.624	14905
3312.376	14819
3314.129	14701
3315.881	14759
3317.631	14589
3319.38	14686
3321.13	14795
3322.88	14773
3324.631	14616
3326.379	14443
3328.126	14663
3329.875	14547
3331.622	14687
3333.371	14518
3335.116	14604
3336.863	14628
3338.609	14554
3340.353	14524
3342.1	14701
3343.845	14839
3345.588	14521
3347.332	14574
3349.074	14539
3350.817	14564
3352.56	14484
3354.303	14524
3356.043	14437
3357.785	14510
3359.525	14383
3361.268	14492
3363.007	14541
3364.745	14476
3366.485	14339
3368.223	14717
3369.962	14383
3371.701	14404
3373.438	14402
3375.174	14363
3376.911	14429
3378.647	14448
3380.384	14141
3382.118	14258
3383.854	14192
3385.588	14255
3387.322	14333
3389.057	14432
3390.79	14400
3392.522	14205
3394.255	14196
3395.987	14162
3397.719	14408
3399.451	14292
3401.181	14320
3402.911	14096
3404.641	14246
3406.371	14185
3408.101	14106
3409.83	14178
3411.558	14127
3413.285	14182
3415.011	14008
3416.739	14074
3418.467	14175
3420.193	14094
3421.919	14253
3423.644	14172
3425.368	14117
3427.094	13981
3428.818	14086
3430.542	14003
3432.264	13978
3433.987	14065
3435.712	14218
3437.434	14027
3439.155	13940
3440.876	13981
3442.596	13817
3444.317	14039
3446.039	13886
3447.757	13898
3449.477	13700
3451.195	13786
3452.914	13976
3454.632	14028
3456.35	13803
3458.067	13612
3459.784	13773
3461.5	13721
3463.216	13645
3464.932	13564
3466.647	13746
3468.362	13600
3470.076	13630
3471.789	13489
3473.505	13716
3475.217	13633
3476.929	13639
3478.641	13543
3480.354	13477
3482.066	13657
3483.777	13674
3485.487	13350
3487.197	13423
3488.908	13575
3490.617	13455
3492.327	13408
3494.035	13666
3495.743	13488
3497.451	13354
3499.158	13477
3500.866	13362
3502.572	13245
3504.278	13517
3505.984	13510
3507.689	13341
3509.396	13448
3511.1	13181
3512.804	13277
3514.508	13335
3516.211	13188
3517.913	13244
3519.616	13327
3521.319	13293
3523.021	13306
3524.722	13282
3526.422	13238
3528.124	13300
3529.824	13179
3531.524	13283
3533.222	13186
3534.921	13070
3536.62	13086
3538.318	13090
3540.016	13272
3541.714	13064
3543.41	13181
3545.107	13192
3546.803	13115
3548.5	12973
3550.194	13043
3551.889	13071
3553.583	13032
3555.279	13124
3556.972	13125
3558.666	12883
3560.358	13175
3562.051	13027
3563.742	12969
3565.435	12994
3567.126	13137
3568.817	13062
3570.507	13020
3572.197	13010
3573.888	13060
3575.577	13099
3577.265	13098
3578.954	12824
3580.642	12962
3582.329	12840
3584.017	12820
3585.704	12979
3587.391	12888
3589.077	12950
3590.762	12703
3592.449	12952
3594.133	12737
3595.817	12737
3597.501	12879
3599.185	12680
3600.869	12665
3602.552	12598
3604.234	12721
3605.916	12780
3607.598	12612
3609.279	12578
3610.961	12660
3612.642	12666
3614.321	12546
3616	12522
3617.68	12506
3619.36	12485
3621.039	12392
3622.716	12318
3624.394	12501
3626.071	12444
3627.748	12409
3629.425	12447
3631.102	12522
3632.778	12208
3634.452	12383
3636.127	12472
3637.803	12499
3639.477	12170
3641.151	12400
3642.823	12207
3644.497	12282
3646.171	12333
3647.842	12462
3649.515	12257
3651.185	12308
3652.857	12211
3654.527	12112
3656.198	12074
3657.868	12365
3659.537	12340
3661.207	12179
3662.875	12112
3664.544	12288
3666.212	12230
3667.879	12345
3669.546	12260
3671.212	12148
3672.88	12255
3674.546	12126
3676.211	12314
3677.875	12292
3679.541	12297
3681.205	12119
3682.87	12110
3684.533	12038
3686.196	12205
3687.859	12263
3689.521	12127
3691.184	12136
3692.845	12045
3694.507	12131
3696.167	12097
3697.827	11888
3699.487	11878
3701.148	12091
3702.808	12000
3704.466	11997
3706.125	11888
3707.783	12068
3709.442	12114
3711.099	11932
3712.757	12016
3714.412	12047
3716.068	11916
3717.725	11839
3719.381	11850
3721.036	12030
3722.689	11935
3724.344	11935
3725.998	11818
3727.652	12060
3729.305	11957
3730.958	11688
3732.61	11817
3734.262	11966
3735.915	11762
3737.565	11706
3739.217	11866
3740.866	11841
3742.516	11779
3744.165	11868
3745.816	11736
3747.464	11826
3749.113	11909
3750.761	11745
3752.409	11803
3754.057	11831
3755.703	11756
3757.35	11612
3758.996	11668
3760.641	11646
3762.289	11620
3763.933	11697
3765.577	11585
3767.222	11677
3768.865	11588
3770.508	11356
3772.152	11749
3773.796	11412
3775.438	11518
3777.079	11604
3778.721	11524
3780.363	11471
3782.003	11375
3783.643	11528
3785.283	11381
3786.923	11563
3788.563	11337
3790.203	11425
3791.841	11469
3793.479	11409
3795.115	11275
3796.753	11126
3798.391	11491
3800.027	11290
3801.664	11394
3803.299	11341
3804.935	11382
3806.571	11290
3808.206	11255
3809.839	11227
3811.473	11487
3813.107	11121
3814.74	11233
3816.375	11278
3818.006	11145
3819.638	11155
3821.27	11140
3822.9	11101
3824.532	11119
3826.163	11317
3827.792	11206
3829.423	11255
3831.051	11108
3832.682	11140
3834.311	11253
3835.938	11166
3837.566	11169
3839.193	11121
3840.821	11117
3842.448	11099
3844.075	10959
3845.7	11065
3847.325	11014
3848.951	11144
3850.576	10920
3852.201	10960
3853.825	11032
3855.448	11040
3857.072	11009
3858.694	11016
3860.318	11025
3861.939	10992
3863.562	10989
3865.183	11092
3866.804	10792
3868.426	10958
3870.045	10875
3871.666	10940
3873.285	10961
3874.904	10864
3876.524	10816
3878.142	10792
3879.76	10916
3881.378	10812
3882.995	10744
3884.612	10624
3886.229	10823
3887.845	10827
3889.461	10850
3891.076	10823
3892.691	10687
3894.307	10811
3895.922	10995
3897.536	10758
3899.149	10814
3900.761	10753
3902.374	10688
3903.988	10624
3905.6	10813
3907.212	10690
3908.822	10760
3910.433	10689
3912.045	10711
3913.655	10784
3915.265	10772
3916.875	10646
3918.483	10776
3920.093	10697
3921.702	10766
3923.309	10689
3924.917	10716
3926.523	10560
3928.13	10720
3929.739	10624
3931.344	10600
3932.95	10533
3934.555	10614
3936.159	10527
3937.766	10698
3939.369	10804
3940.974	10556
3942.577	10415
3944.181	10678
3945.783	10473
3947.386	10517
3948.989	10568
3950.59	10487
3952.191	10370
3953.791	10475
3955.394	10435
3956.994	10443
3958.593	10399
3960.192	10629
3961.791	10410
3963.392	10485
3964.99	10321
3966.588	10413
3968.185	10429
3969.782	10426
3971.379	10363
3972.976	10462
3974.572	10261
3976.168	10230
3977.763	10424
3979.358	10188
3980.954	10290
3982.548	10279
3984.142	10239
3985.736	10202
3987.329	10177
3988.922	10365
3990.516	10197
3992.108	10123
3993.698	10118
3995.29	10116
3996.881	10012
3998.473	10071
4000.064	10052
4001.653	10030
4003.242	10111
4004.832	10029
4006.422	10030
4008.01	10079
4009.598	9851
4011.186	9954
4012.773	9928
4014.36	10102
4015.947	9936
4017.534	9939
4019.119	9915
4020.705	9957
4022.291	9943
4023.876	9862
4025.461	9978
4027.044	9856
4028.627	9845
4030.211	9813
4031.795	9881
4033.378	9818
4034.96	9818
4036.542	9887
4038.124	9858
4039.704	9731
4041.286	9812
4042.867	9678
4044.447	9819
4046.026	9775
4047.606	9724
4049.187	9660
4050.765	9767
4052.343	9736
4053.92	9666
4055.498	9535
4057.076	9786
4058.654	9732
4060.23	9610
4061.806	9656
4063.381	9474
4064.957	9536
4066.533	9648
4068.107	9557
4069.682	9520
4071.256	9515
4072.829	9537
4074.404	9607
4075.977	9505
4077.549	9531
4079.121	9720
4080.693	9589
4082.265	9522
4083.836	9531
4085.407	9563
4086.977	9325
4088.547	9496
4090.117	9477
4091.687	9365
4093.256	9487
4094.825	9556
4096.392	9423
4097.96	9322
4099.528	9500
4101.097	9428
4102.663	9435
4104.229	9367
4105.795	9433
4107.361	9378
4108.928	9452
4110.493	9327
4112.058	9365
4113.621	9322
4115.186	9214
4116.75	9338
4118.313	9345
4119.876	9427
4121.438	9311
4123	9138
4124.562	9257
4126.125	9306
4127.686	9317
4129.246	9059
4130.807	9083
4132.367	9120
4133.927	9339
4135.486	9196
4137.046	9172
4138.604	9251
4140.162	9028
4141.72	9139
4143.279	9103
4144.836	9115
4146.393	9077
4147.949	9096
4149.505	8894
4151.062	9132
4152.617	9030
4154.172	8999
4155.727	9026
4157.281	9014
4158.836	8983
4160.39	9014
4161.943	8977
4163.496	9078
4165.048	8996
4166.601	8771
4168.154	9024
4169.706	8963
4171.257	8954
4172.808	8883
4174.358	8815
4175.909	8792
4177.458	8828
4179.008	8772
4180.558	8708
4182.106	8761
4183.655	8772
4185.204	8811
4186.751	8913
4188.298	8689
4189.845	8732
4191.392	8744
4192.939	8681
4194.485	8661
4196.031	8711
4197.576	8745
4199.121	8651
4200.666	8613
4202.211	8747
4203.754	8715
4205.298	8651
4206.84	8706
4208.384	8564
4209.927	8602
4211.47	8621
4213.011	8739
4214.552	8737
4216.094	8644
4217.635	8520
4219.175	8561
4220.716	8562
4222.255	8511
4223.793	8480
4225.335	8579
4226.873	8472
4228.411	8494
4229.948	8431
4231.486	8581
4233.024	8405
4234.562	8513
4236.098	8381
4237.634	8525
4239.169	8483
4240.705	8589
4242.241	8483
4243.776	8322
4245.31	8614
4246.844	8359
4248.378	8445
4249.911	8529
4251.445	8368
4252.978	8361
4254.51	8354
4256.042	8434
4257.574	8327
4259.107	8420
4260.638	8256
4262.169	8441
4263.699	8330
4265.228	8470
4266.759	8348
4268.289	8441
4269.818	8381
4271.345	8308
4272.874	8314
4274.402	8440
4275.931	8358
4277.458	8379
4278.985	8368
4280.512	8343
4282.037	8249
4283.564	8174
4285.089	8251
4286.615	8257
4288.139	8309
4289.664	8189
4291.187	8219
4292.712	8175
4294.235	8166
4295.759	8260
4297.281	8080
4298.804	8164
4300.327	8048
4301.849	8187
4303.37	8140
4304.891	8178
4306.412	8172
4307.933	8126
4309.453	8025
4310.973	8141
4312.492	8035
