398.1873	3863
400.7097	3928
403.2336	3803
405.7547	3886
408.2751	3935
410.7948	3887
413.3138	3903
415.83	4012
418.3497	4001
420.8666	3970
423.3829	3941
425.8985	4032
428.4133	4176
430.9275	4089
433.441	4113
435.9538	4119
438.4639	4100
440.9753	4091
443.4881	4159
445.9982	4122
448.5055	4168
451.0142	4152
453.5201	4130
456.0274	4132
458.5361	4142
461.04	4207
463.5453	4092
466.0478	4071
468.5517	4116
471.0549	4082
473.5574	4045
476.0572	4167
478.5584	4153
481.0568	4109
483.5545	4255
486.0557	4160
488.5521	4144
491.0478	4139
493.5449	4158
496.0392	4311
498.5349	4239
501.0299	4163
503.5222	4154
506.0139	4184
508.5048	4271
510.9991	4274
513.4887	4310
515.9777	4236
518.4659	4283
520.9534	4233
523.4403	4244
525.9306	4334
528.4161	4190
530.9009	4348
533.3851	4199
535.8687	4344
538.3535	4320
540.8356	4148
543.3171	4342
545.7979	4377
548.278	4247
550.7595	4282
553.2383	4273
555.7144	4305
558.1918	4295
560.6685	4256
563.1446	4442
565.6221	4329
568.0968	4304
570.5688	4482
573.0422	4328
575.515	4455
577.989	4390
580.4584	4445
582.9291	4326
585.3991	4497
587.8685	4555
590.3352	4495
592.8052	4550
595.2706	4497
597.7372	4437
600.2033	4495
602.6666	4349
605.1334	4500
607.5953	4473
610.0587	4465
612.5193	4473
614.9814	4411
617.4427	4401
619.9034	4410
622.3615	4487
624.8208	4361
627.2775	4413
629.7335	4333
632.1929	4468
634.6476	4503
637.1016	4476
639.5569	4520
642.0096	4505
644.4637	4459
646.9151	4480
649.3678	4459
651.8179	4415
654.2672	4534
656.7159	4344
659.166	4493
661.6154	4510
664.0622	4536
666.5082	4587
668.9537	4492
671.4005	4635
673.8445	4533
676.288	4558
678.7308	4618
681.1729	4550
683.6163	4627
686.0572	4585
688.4973	4533
690.9368	4524
693.3757	4555
695.8138	4617
698.2534	4633
700.6902	4641
703.1245	4558
705.56	4522
707.9949	4624
710.4311	4569
712.8647	4563
715.2957	4666
717.7279	4686
720.1595	4577
722.5905	4702
725.0208	4716
727.4505	4554
729.8795	4768
732.3058	4693
734.7336	4682
737.1626	4764
739.587	4680
742.0128	4771
744.4359	4842
746.8604	4782
749.2841	4872
751.7073	4849
754.1278	4849
756.5496	4926
758.9688	4815
761.3893	4855
763.8093	4778
766.2285	4852
768.6451	4862
771.0611	4853
773.4784	4848
775.895	4857
778.3091	4811
780.7244	4964
783.1371	4927
785.5493	4946
787.9626	4875
790.3754	4921
792.7856	4949
795.1951	4888
797.6039	4907
800.0121	4894
802.4236	4883
804.8306	4969
807.2369	4929
809.6425	4934
812.0475	4968
814.4538	4928
816.8575	4991
819.2606	5048
821.663	5029
824.0648	4930
826.4659	4963
828.8683	5030
831.2682	4900
833.6674	5017
836.066	4999
838.4639	4947
840.8632	4849
843.2579	4986
845.6539	5099
848.0493	5043
850.444	5011
852.84	5113
855.2315	5073
857.6243	5071
860.0165	5062
862.4081	5054
864.797	5079
867.1892	5059
869.5789	5093
871.9659	5020
874.3542	4996
876.74	5099
879.129	5051
881.5155	5066
883.8994	5088
886.2845	5141
888.6671	5030
891.051	5083
893.4343	5051
895.8169	5069
898.197	5027
900.5783	5032
902.9571	5016
905.3372	5102
907.7167	5106
910.0936	5164
912.4698	5172
914.8474	5113
917.2244	5145
919.5987	5089
921.9744	5200
924.3475	5228
926.72	5257
929.0918	5185
931.4669	5273
933.8375	5314
936.2074	5251
938.5767	5403
940.9454	5357
943.3154	5462
945.6829	5493
948.0497	5531
950.4178	5687
952.7833	5865
955.1483	5989
957.5145	6203
959.8782	6232
962.2412	6243
964.6036	6126
966.9655	6048
969.3266	5761
971.6871	5582
974.0471	5373
976.4064	5351
978.765	5370
981.125	5285
983.4824	5204
985.8373	5287
988.1935	5196
990.549	5162
992.9039	5227
995.2602	5269
997.6119	5187
999.965	5199
1002.317	5186
1004.667	5292
1007.02	5361
1009.371	5387
1011.719	5309
1014.068	5132
1016.415	5245
1018.765	5309
1021.111	5287
1023.458	5362
1025.804	5255
1028.147	5270
1030.49	5354
1032.837	5318
1035.179	5273
1037.522	5247
1039.862	5335
1042.204	5420
1044.546	5429
1046.884	5365
1049.224	5328
1051.562	5343
1053.899	5397
1056.237	5344
1058.575	5341
1060.91	5384
1063.244	5428
1065.58	5299
1067.913	5439
1070.248	5479
1072.579	5443
1074.911	5492
1077.242	5480
1079.572	5328
1081.905	5381
1084.234	5381
1086.562	5450
1088.89	5349
1091.217	5402
1093.544	5432
1095.871	5372
1098.197	5433
1100.521	5355
1102.845	5524
1105.169	5372
1107.491	5390
1109.814	5362
1112.135	5440
1114.456	5466
1116.776	5322
1119.096	5362
1121.415	5485
1123.734	5530
1126.052	5427
1128.369	5325
1130.686	5473
1133.002	5413
1135.318	5395
1137.632	5404
1139.945	5427
1142.258	5402
1144.573	5418
1146.884	5523
1149.196	5402
1151.505	5501
1153.816	5411
1156.124	5398
1158.435	5484
1160.742	5495
1163.051	5444
1165.356	5501
1167.663	5487
1169.97	5378
1172.276	5400
1174.579	5446
1176.881	5349
1179.186	5387
1181.487	5452
1183.79	5540
1186.092	5403
1188.392	5441
1190.691	5465
1192.991	5325
1195.291	5330
1197.588	5430
1199.885	5410
1202.181	5428
1204.479	5402
1206.775	5471
1209.07	5407
1211.363	5465
1213.656	5513
1215.949	5655
1218.241	5530
1220.534	5589
1222.825	5560
1225.115	5604
1227.405	5433
1229.693	5518
1231.984	5610
1234.271	5665
1236.558	5628
1238.845	5674
1241.131	5652
1243.416	5555
1245.703	5726
1247.987	5665
1250.269	5718
1252.552	5743
1254.834	5781
1257.118	5639
1259.399	5593
1261.678	5740
1263.958	5636
1266.237	5780
1268.516	5705
1270.794	5649
1273.072	5816
1275.347	5647
1277.624	5535
1279.899	5659
1282.175	5635
1284.449	5655
1286.722	5721
1288.995	5593
1291.266	5637
1293.54	5581
1295.81	5640
1298.081	5567
1300.35	5582
1302.62	5487
1304.889	5649
1307.156	5664
1309.425	5584
1311.69	5644
1313.957	5652
1316.222	5674
1318.488	5672
1320.751	5639
1323.016	5708
1325.278	5604
1327.54	5684
1329.803	5682
1332.065	5604
1334.325	5612
1336.584	5650
1338.843	5594
1341.101	5792
1343.36	5717
1345.617	5596
1347.876	5763
1350.131	5540
1352.387	5642
1354.643	5666
1356.897	5613
1359.151	5650
1361.403	5649
1363.656	5704
1365.909	5652
1368.16	5618
1370.409	5624
1372.659	5724
1374.909	5720
1377.157	5741
1379.407	5691
1381.655	5683
1383.9	5769
1386.147	5725
1388.393	5690
1390.64	5788
1392.885	5742
1395.127	5833
1397.37	5740
1399.614	5730
1401.854	5766
1404.098	5727
1406.339	5763
1408.578	5725
1410.818	5841
1413.056	5790
1415.297	5796
1417.533	5852
1419.771	5798
1422.006	5841
1424.243	5761
1426.479	5904
1428.715	5864
1430.948	5715
1433.182	5948
1435.414	5938
1437.647	5914
1439.88	5897
1442.11	5848
1444.342	5929
1446.571	5924
1448.799	5915
1451.029	6029
1453.258	5869
1455.485	5802
1457.711	6017
1459.937	5849
1462.164	5944
1464.39	5941
1466.614	5931
1468.838	5865
1471.06	5891
1473.283	5839
1475.506	5928
1477.727	5794
1479.949	5846
1482.169	5834
1484.389	5791
1486.609	5702
1488.828	5761
1491.045	5824
1493.261	5725
1495.477	5805
1497.693	5722
1499.91	5663
1502.125	5762
1504.339	5596
1506.553	5766
1508.766	5651
1510.979	5755
1513.191	5719
1515.402	5754
1517.613	5713
1519.823	5726
1522.033	5709
1524.242	5651
1526.451	5797
1528.657	5774
1530.865	5668
1533.072	5708
1535.278	5713
1537.484	5635
1539.687	5698
1541.892	5706
1544.096	5810
1546.299	5769
1548.502	5780
1550.703	5820
1552.905	5821
1555.104	5859
1557.303	5833
1559.505	5893
1561.703	5800
1563.902	5867
1566.099	5917
1568.295	5856
1570.494	5911
1572.689	5828
1574.883	5840
1577.079	5862
1579.272	5952
1581.467	5883
1583.659	5933
1585.853	5956
1588.044	5918
1590.234	5930
1592.424	5994
1594.615	5819
1596.806	5956
1598.994	5938
1601.182	5918
1603.369	6014
1605.557	6022
1607.744	5913
1609.929	5971
1612.114	5926
1614.298	5962
1616.482	6051
1618.667	5951
1620.85	5852
1623.032	5965
1625.214	5907
1627.395	5902
1629.575	5966
1631.755	5972
1633.935	5974
1636.114	6036
1638.292	5996
1640.471	6103
1642.647	6021
1644.823	6014
1647	5926
1649.175	6021
1651.348	6048
1653.525	6002
1655.698	6071
1657.87	6087
1660.043	5917
1662.213	6053
1664.387	5924
1666.558	6071
1668.727	6131
1670.896	6076
1673.064	6097
1675.233	6135
1677.401	6033
1679.569	6154
1681.735	6075
1683.902	6005
1686.066	6125
1688.233	6114
1690.397	6044
1692.559	6058
1694.723	6043
1696.885	6064
1699.048	5944
1701.21	5965
1703.37	5943
1705.53	5945
1707.689	6011
1709.849	5926
1712.009	6027
1714.166	5910
1716.323	5966
1718.479	5974
1720.634	5879
1722.793	6007
1724.948	5927
1727.102	5888
1729.255	5918
1731.408	5893
1733.562	6000
1735.714	5975
1737.865	5919
1740.016	5883
1742.166	5954
1744.316	6016
1746.467	6058
1748.616	6034
1750.764	6075
1752.911	5969
1755.056	5948
1757.205	5955
1759.35	5957
1761.496	6028
1763.641	5985
1765.785	6021
1767.927	5983
1770.072	6034
1772.214	5954
1774.355	6067
1776.496	6058
1778.637	5991
1780.778	6041
1782.918	6002
1785.057	5946
1787.194	6016
1789.333	6180
1791.472	6092
1793.608	6053
1795.745	6136
1797.879	6065
1800.015	6021
1802.148	5999
1804.284	6071
1806.417	6048
1808.548	5990
1810.682	5909
1812.812	6045
1814.946	6058
1817.075	6160
1819.205	6046
1821.335	6054
1823.463	6113
1825.59	6124
1827.721	6132
1829.847	6039
1831.973	6078
1834.098	6062
1836.223	6060
1838.351	6002
1840.475	5968
1842.598	6076
1844.721	6042
1846.843	6046
1848.966	6083
1851.087	6070
1853.21	6011
1855.33	5969
1857.449	6044
1859.568	6034
1861.688	6037
1863.806	6016
1865.924	6055
1868.039	6001
1870.155	6042
1872.273	6066
1874.388	6105
1876.503	6023
1878.617	6167
1880.73	6093
1882.844	6028
1884.956	6082
1887.068	6102
1889.18	6074
1891.291	6096
1893.4	6117
1895.511	6125
1897.621	6058
1899.73	6105
1901.837	6146
1903.944	6170
1906.053	6055
1908.159	6192
1910.265	6062
1912.369	6195
1914.474	6208
1916.577	6154
1918.683	6181
1920.785	6313
1922.888	6131
1924.989	6084
1927.091	6191
1929.193	6190
1931.294	6184
1933.393	6174
1935.493	6178
1937.59	6165
1939.689	6088
1941.788	6158
1943.884	6139
1945.98	6265
1948.077	6146
1950.171	6142
1952.267	6288
1954.361	6215
1956.455	6245
1958.548	6173
1960.64	6185
1962.733	6248
1964.824	6149
1966.915	6127
1969.005	6084
1971.096	6113
1973.185	6176
1975.275	6164
1977.363	6108
1979.45	6242
1981.537	6204
1983.623	6100
1985.711	6213
1987.796	6179
1989.881	6292
1991.965	6191
1994.047	6166
1996.132	6213
1998.215	6140
2000.297	6210
2002.378	6142
2004.46	6160
2006.54	6177
2008.62	6165
2010.7	6210
2012.779	6207
2014.858	6288
2016.934	6191
2019.013	6084
2021.09	6160
2023.165	6272
2025.241	6197
2027.317	6116
2029.39	6186
2031.466	6235
2033.538	6108
2035.612	6167
2037.683	6263
2039.755	6151
2041.827	6321
2043.898	6186
2045.968	6093
2048.038	6134
2050.106	6170
2052.177	6190
2054.244	6170
2056.313	6281
2058.379	6172
2060.444	6196
2062.511	6195
2064.577	6252
2066.641	6245
2068.705	6218
2070.77	6188
2072.832	6192
2074.896	6170
2076.958	6198
2079.02	6192
2081.081	6249
2083.141	6215
2085.2	6333
2087.261	6172
2089.319	6388
2091.377	6232
2093.435	6248
2095.492	6226
2097.552	6222
2099.607	6228
2101.663	6088
2103.718	6223
2105.771	6327
2107.826	6233
2109.879	6261
2111.932	6337
2113.985	6309
2116.037	6318
2118.088	6241
2120.141	6210
2122.191	6298
2124.239	6239
2126.288	6156
2128.337	6230
2130.387	6313
2132.434	6196
2134.481	6144
2136.528	6130
2138.574	6276
2140.618	6229
2142.665	6145
2144.71	6207
2146.753	6353
2148.797	6235
2150.838	6287
2152.883	6211
2154.923	6233
2156.965	6267
2159.007	6309
2161.046	6296
2163.086	6247
2165.126	6244
2167.163	6204
2169.202	6167
2171.239	6350
2173.277	6308
2175.314	6187
2177.349	6279
2179.385	6278
2181.42	6316
2183.453	6252
2185.49	6222
2187.522	6228
2189.555	6317
2191.586	6221
2193.619	6214
2195.651	6253
2197.682	6112
2199.711	6222
2201.74	6096
2203.769	6304
2205.799	6142
2207.828	6275
2209.855	6275
2211.882	6220
2213.908	6199
2215.934	6148
2217.961	6237
2219.986	6118
2222.01	6222
2224.034	6186
2226.057	6177
2228.08	6116
2230.104	6102
2232.124	6251
2234.145	6286
2236.166	6256
2238.186	6239
2240.207	6256
2242.227	6164
2244.244	6177
2246.262	6271
2248.28	6207
2250.299	6082
2252.314	6143
2254.33	6286
2256.346	6216
2258.36	6321
2260.375	6317
2262.391	6272
2264.403	6223
2266.416	6285
2268.427	6253
2270.44	6292
2272.453	6263
2274.463	6273
2276.474	6289
2278.483	6255
2280.493	6268
2282.501	6196
2284.51	6270
2286.518	6157
2288.524	6209
2290.532	6233
2292.537	6204
2294.544	6190
2296.55	6222
2298.554	6355
2300.557	6249
2302.562	6051
2304.566	6326
2306.568	6183
2308.569	6276
2310.572	6317
2312.573	6328
2314.573	6209
2316.574	6303
2318.573	6365
2320.571	6191
2322.571	6330
2324.569	6226
2326.567	6175
2328.564	6098
2330.56	6257
2332.556	6261
2334.551	6211
2336.546	6213
2338.542	6209
2340.535	6245
2342.529	6277
2344.521	6279
2346.512	6334
2348.505	6209
2350.497	6336
2352.487	6179
2354.478	6185
2356.468	6241
2358.457	6259
2360.446	6075
2362.434	6023
2364.422	6210
2366.408	6253
2368.395	6273
2370.383	6236
2372.369	6227
2374.353	6304
2376.338	6190
2378.321	6049
2380.307	6242
2382.29	6114
2384.272	6289
2386.254	6216
2388.235	6203
2390.218	6385
2392.198	6178
2394.179	6197
2396.157	6191
2398.137	6176
2400.115	6207
2402.095	6259
2404.072	6210
2406.048	6313
2408.026	6227
2410.001	6228
2411.977	6180
2413.953	6358
2415.927	6100
2417.9	6247
2419.875	6199
2421.847	6295
2423.821	6289
2425.792	6247
2427.763	6295
2429.736	6224
2431.706	6206
2433.677	6358
2435.646	6294
2437.615	6301
2439.583	6154
2441.551	6261
2443.519	6295
2445.486	6246
2447.452	6197
2449.418	6267
2451.383	6314
2453.348	6188
2455.314	6269
2457.278	6290
2459.241	6169
2461.205	6253
2463.167	6117
2465.131	6127
2467.091	6351
2469.052	6224
2471.012	6147
2472.972	6254
2474.932	6353
2476.891	6234
2478.85	6217
2480.808	6228
2482.766	6265
2484.722	6265
2486.68	6281
2488.636	6226
2490.591	6200
2492.546	6210
2494.5	6371
2496.456	6219
2498.41	6184
2500.362	6283
2502.315	6305
2504.266	6199
2506.218	6271
2508.169	6202
2510.121	6406
2512.07	6218
2514.019	6231
2515.968	6325
2517.918	6275
2519.866	6302
2521.813	6266
2523.76	6213
2525.707	6292
2527.653	6298
2529.599	6215
2531.543	6337
2533.489	6367
2535.433	6328
2537.376	6300
2539.32	6432
2541.264	6426
2543.205	6392
2545.147	6340
2547.087	6326
2549.029	6232
2550.969	6358
2552.908	6247
2554.847	6275
2556.786	6315
2558.724	6459
2560.663	6320
2562.6	6386
2564.537	6385
2566.473	6430
2568.408	6360
2570.345	6405
2572.28	6463
2574.214	6338
2576.148	6378
2578.081	6475
2580.014	6417
2581.947	6445
2583.879	6483
2585.81	6331
2587.741	6427
2589.67	6453
2591.602	6397
2593.532	6279
2595.461	6394
2597.388	6447
2599.316	6440
2601.244	6405
2603.172	6403
2605.098	6456
2607.023	6555
2608.949	6554
2610.873	6498
2612.8	6452
2614.723	6520
2616.647	6557
2618.569	6531
2620.493	6546
2622.416	6650
2624.338	6505
2626.258	6533
2628.179	6630
2630.099	6550
2632.019	6581
2633.939	6493
2635.857	6595
2637.775	6557
2639.694	6604
2641.61	6652
2643.528	6442
2645.444	6520
2647.361	6618
2649.276	6632
2651.19	6599
2653.105	6614
2655.019	6585
2656.934	6564
2658.846	6605
2660.758	6578
2662.67	6437
2664.583	6612
2666.493	6630
2668.404	6659
2670.313	6616
2672.223	6643
2674.134	6692
2676.042	6707
2677.95	6620
2679.858	6492
2681.765	6686
2683.673	6652
2685.579	6605
2687.483	6769
2689.389	6680
2691.294	6661
2693.198	6610
2695.104	6640
2697.006	6485
2698.909	6558
2700.811	6572
2702.713	6682
2704.615	6691
2706.516	6543
2708.417	6547
2710.316	6657
2712.216	6548
2714.115	6746
2716.014	6627
2717.913	6541
2719.81	6707
2721.707	6599
2723.603	6719
2725.501	6638
2727.396	6685
2729.292	6563
2731.186	6505
2733.081	6723
2734.976	6580
2736.87	6715
2738.762	6699
2740.653	6548
2742.546	6792
2744.437	6636
2746.329	6639
2748.22	6653
2750.11	6685
2751.999	6736
2753.889	6710
2755.778	6718
2757.666	6792
2759.553	6745
2761.44	6820
2763.328	6791
2765.215	6744
2767.101	6752
2768.986	6606
2770.87	6720
2772.754	6690
2774.638	6787
2776.523	6676
2778.405	6741
2780.288	6725
2782.17	6754
2784.051	6601
2785.934	6726
2787.814	6752
2789.694	6809
2791.574	6667
2793.453	6752
2795.332	6762
2797.212	6783
2799.088	6774
2800.966	6757
2802.843	6731
2804.719	6833
2806.597	6893
2808.471	6715
2810.346	6826
2812.221	6955
2814.094	6920
2815.969	6821
2817.843	6892
2819.714	6686
2821.587	6759
2823.459	6844
2825.329	6802
2827.202	6790
2829.072	6861
2830.942	6966
2832.811	6833
2834.68	7006
2836.549	6965
2838.418	6868
2840.284	6999
2842.152	6901
2844.018	6881
2845.885	6975
2847.751	6947
2849.616	6966
2851.482	6904
2853.345	6984
2855.208	7086
2857.074	6924
2858.937	7094
2860.799	7010
2862.66	7119
2864.522	7086
2866.385	7176
2868.245	7083
2870.104	7268
2871.964	7192
2873.824	7181
2875.683	7267
2877.542	7299
2879.4	7338
2881.257	7220
2883.114	7420
2884.97	7485
2886.827	7437
2888.683	7478
2890.537	7397
2892.392	7386
2894.246	7451
2896.1	7447
2897.954	7419
2899.807	7449
2901.66	7403
2903.51	7473
2905.362	7421
2907.214	7429
2909.065	7494
2910.915	7542
2912.765	7597
2914.613	7514
2916.463	7605
2918.311	7579
2920.158	7689
2922.006	7764
2923.853	7619
2925.698	7831
2927.546	7839
2929.392	7940
2931.236	7872
2933.081	7898
2934.924	8026
2936.77	8034
2938.613	7939
2940.455	8101
2942.298	8104
2944.139	8071
2945.982	8104
2947.823	8040
2949.662	8004
2951.503	8190
2953.342	8105
2955.182	8051
2957.021	8062
2958.858	7929
2960.697	7969
2962.534	7910
2964.37	7923
2966.207	7741
2968.044	7874
2969.879	7823
2971.714	7707
2973.548	7766
2975.383	7791
2977.218	7730
2979.051	7801
2980.883	7753
2982.715	7869
2984.547	7683
2986.379	7775
2988.21	7633
2990.04	7710
2991.87	7746
2993.7	7693
2995.53	7556
2997.359	7536
2999.187	7591
3001.015	7442
3002.842	7589
3004.669	7549
3006.497	7432
3008.323	7401
3010.148	7566
3011.974	7554
3013.797	7546
3015.623	7426
3017.447	7439
3019.27	7408
3021.094	7437
3022.915	7411
3024.737	7306
3026.56	7445
3028.38	7394
3030.201	7346
3032.022	7313
3033.84	7238
3035.662	7314
3037.481	7247
3039.298	7435
3041.117	7297
3042.933	7422
3044.752	7352
3046.568	7389
3048.385	7338
3050.2	7404
3052.016	7480
3053.83	7508
3055.646	7342
3057.46	7374
3059.272	7470
3061.086	7423
3062.898	7550
3064.711	7404
3066.524	7500
3068.335	7356
3070.145	7436
3071.956	7469
3073.766	7474
3075.576	7452
3077.385	7370
3079.193	7512
3081.002	7383
3082.81	7340
3084.618	7464
3086.425	7477
3088.231	7525
3090.036	7331
3091.842	7583
3093.648	7454
3095.452	7432
3097.257	7461
3099.06	7428
3100.863	7428
3102.666	7503
3104.47	7467
3106.272	7459
3108.073	7509
3109.875	7434
3111.676	7380
3113.477	7507
3115.277	7455
3117.077	7480
3118.874	7502
3120.673	7518
3122.473	7420
3124.271	7548
3126.066	7679
3127.863	7500
3129.66	7557
3131.456	7641
3133.252	7442
3135.047	7581
3136.842	7613
3138.635	7493
3140.429	7600
3142.223	7575
3144.016	7500
3145.808	7550
3147.6	7652
3149.392	7524
3151.183	7582
3152.975	7535
3154.765	7592
3156.553	7662
3158.344	7553
3160.132	7556
3161.922	7735
3163.71	7549
3165.497	7620
3167.285	7604
3169.071	7741
3170.858	7567
3172.645	7555
3174.429	7683
3176.214	7729
3177.998	7588
3179.783	7548
3181.568	7559
3183.351	7699
3185.133	7621
3186.915	7646
3188.698	7715
3190.481	7759
3192.261	7701
3194.042	7807
3195.822	7664
3197.601	7738
3199.381	7602
3201.161	7533
3202.939	7748
3204.717	7742
3206.495	7684
3208.272	7735
3210.05	7739
3211.826	7775
3213.602	7843
3215.376	7668
3217.151	7880
3218.927	7850
3220.702	7739
3222.476	7816
3224.249	7883
3226.021	7916
3227.793	7748
3229.567	7838
3231.339	7846
3233.109	7931
3234.88	7895
3236.651	7894
3238.421	7887
3240.191	7832
3241.96	7850
3243.728	8068
3245.497	7852
3247.263	7830
3249.033	7918
3250.799	7909
3252.566	7834
3254.331	7941
3256.097	8041
3257.863	7957
3259.628	8054
3261.392	8169
3263.156	8102
3264.919	7999
3266.683	8073
3268.447	8100
3270.208	8186
3271.969	8083
3273.731	8027
3275.492	8036
3277.253	8201
3279.013	8100
3280.773	7877
3282.532	8286
3284.291	8193
3286.05	8179
3287.808	8130
3289.566	8087
3291.323	8183
3293.079	8165
3294.835	8265
3296.593	8309
3298.348	8193
3300.102	8250
3301.857	8265
3303.611	8360
3305.366	8411
3307.119	8293
3308.872	8144
3310.624	8392
3312.376	8317
3314.129	8343
3315.881	8510
3317.631	8474
3319.38	8309
3321.13	8331
3322.88	8365
3324.631	8321
3326.379	8450
3328.126	8493
3329.875	8473
3331.622	8438
3333.371	8420
3335.116	8309
3336.863	8455
3338.609	8480
3340.353	8309
3342.1	8491
3343.845	8413
3345.588	8460
3347.332	8559
3349.074	8379
3350.817	8448
3352.56	8571
3354.303	8416
3356.043	8588
3357.785	8578
3359.525	8485
3361.268	8509
3363.007	8600
3364.745	8502
3366.485	8433
3368.223	8639
3369.962	8515
3371.701	8713
3373.438	8636
3375.174	8705
3376.911	8530
3378.647	8590
3380.384	8578
3382.118	8604
3383.854	8706
3385.588	8667
3387.322	8767
3389.057	8703
3390.79	8674
3392.522	8677
3394.255	8638
3395.987	8815
3397.719	8685
3399.451	8731
3401.181	8670
3402.911	8779
3404.641	8908
3406.371	8895
3408.101	8912
3409.83	8746
3411.558	8823
3413.285	8823
3415.011	8828
3416.739	8916
3418.467	8902
3420.193	8922
3421.919	8935
3423.644	8862
3425.368	8858
3427.094	8946
3428.818	8833
3430.542	9084
3432.264	8840
3433.987	8869
3435.712	8986
3437.434	8976
3439.155	8982
3440.876	8888
3442.596	8965
3444.317	8946
3446.039	9103
3447.757	8921
3449.477	8961
3451.195	8899
3452.914	9087
3454.632	8948
3456.35	9032
3458.067	8969
3459.784	8939
3461.5	9019
3463.216	9018
3464.932	9034
3466.647	8919
3468.362	9032
3470.076	9080
3471.789	9011
3473.505	9198
3475.217	8999
3476.929	9140
3478.641	9157
3480.354	9105
3482.066	9145
3483.777	9113
3485.487	9192
3487.197	9149
3488.908	9157
3490.617	9283
3492.327	9170
3494.035	9108
3495.743	9177
3497.451	9251
3499.158	9187
3500.866	9201
3502.572	9183
3504.278	9319
3505.984	9371
3507.689	9146
3509.396	9240
3511.1	9170
3512.804	9238
3514.508	9316
3516.211	9296
3517.913	9207
3519.616	9392
3521.319	9566
3523.021	9389
3524.722	9471
3526.422	9215
3528.124	9341
3529.824	9364
3531.524	9384
3533.222	9404
3534.921	9492
3536.62	9534
3538.318	9391
3540.016	9507
3541.714	9607
3543.41	9621
3545.107	9506
3546.803	9445
3548.5	9468
3550.194	9565
3551.889	9632
3553.583	9458
3555.279	9571
3556.972	9683
3558.666	9604
3560.358	9577
3562.051	9552
3563.742	9594
3565.435	9559
3567.126	9778
3568.817	9723
3570.507	9638
3572.197	9652
3573.888	9753
3575.577	9709
3577.265	9614
3578.954	9683
3580.642	9612
3582.329	9767
3584.017	9938
3585.704	9921
3587.391	9714
3589.077	9851
3590.762	9779
3592.449	9799
3594.133	9761
3595.817	9723
3597.501	9910
3599.185	9806
3600.869	9842
3602.552	9932
3604.234	9885
3605.916	9905
3607.598	9791
3609.279	9820
3610.961	9804
3612.642	9866
3614.321	10028
3616	9963
3617.68	9832
3619.36	9949
3621.039	9876
3622.716	9917
3624.394	9761
3626.071	9772
3627.748	9894
3629.425	9971
3631.102	10020
3632.778	10066
3634.452	9919
3636.127	10012
3637.803	9928
3639.477	10102
3641.151	10140
3642.823	10125
3644.497	10102
3646.171	10079
3647.842	10325
3649.515	10088
3651.185	10061
3652.857	10111
3654.527	10067
3656.198	10185
3657.868	10223
3659.537	10176
3661.207	10094
3662.875	10217
3664.544	10239
3666.212	10288
3667.879	10198
3669.546	10191
3671.212	10373
3672.88	10208
3674.546	10415
3676.211	10340
3677.875	10307
3679.541	10296
3681.205	10529
3682.87	10350
3684.533	10529
3686.196	10433
3687.859	10459
3689.521	10573
3691.184	10477
3692.845	10632
3694.507	10509
3696.167	10316
3697.827	10577
3699.487	10677
3701.148	10456
3702.808	10492
3704.466	10516
3706.125	10696
3707.783	10509
3709.442	10596
3711.099	10703
3712.757	10751
3714.412	10665
3716.068	10810
3717.725	10657
3719.381	10907
3721.036	10772
3722.689	10736
3724.344	10842
3725.998	10749
3727.652	10738
3729.305	10810
3730.958	10859
3732.61	10933
3734.262	10780
3735.915	10850
3737.565	10847
3739.217	10862
3740.866	10795
3742.516	11002
3744.165	11035
3745.816	11029
3747.464	10894
3749.113	10942
3750.761	10966
3752.409	11110
3754.057	10924
3755.703	10873
3757.35	11052
3758.996	11090
3760.641	11031
3762.289	11007
3763.933	11123
3765.577	11118
3767.222	11016
3768.865	11151
3770.508	11124
3772.152	11156
3773.796	11200
3775.438	11194
3777.079	11145
3778.721	11199
3780.363	11243
3782.003	11164
3783.643	11414
3785.283	11099
3786.923	11373
3788.563	11379
3790.203	11259
3791.841	11288
3793.479	11134
3795.115	11394
3796.753	11319
3798.391	11423
3800.027	11159
3801.664	11361
3803.299	11397
3804.935	11492
3806.571	11564
3808.206	11448
3809.839	11403
3811.473	11373
3813.107	11577
3814.74	11453
3816.375	11510
3818.006	11354
3819.638	11377
3821.27	11418
3822.9	11437
3824.532	11674
3826.163	11476
3827.792	11613
3829.423	11589
3831.051	11491
3832.682	11564
3834.311	11674
3835.938	11679
3837.566	11714
3839.193	11764
3840.821	11615
3842.448	11780
3844.075	11750
3845.7	11651
3847.325	11736
3848.951	11675
3850.576	11712
3852.201	11641
3853.825	11745
3855.448	11632
3857.072	11864
3858.694	11703
3860.318	11834
3861.939	11838
3863.562	12030
3865.183	12028
3866.804	11762
3868.426	11954
3870.045	11737
3871.666	11933
3873.285	11983
3874.904	11931
3876.524	12156
3878.142	12090
3879.76	11832
3881.378	11987
3882.995	12065
3884.612	11988
3886.229	12022
3887.845	11989
3889.461	12122
3891.076	11975
3892.691	12189
3894.307	12144
3895.922	12160
3897.536	12116
3899.149	12373
3900.761	12221
3902.374	12251
3903.988	12307
3905.6	12272
3907.212	12257
3908.822	12269
3910.433	12346
3912.045	12559
3913.655	12431
3915.265	12462
3916.875	12361
3918.483	12610
3920.093	12529
3921.702	12542
3923.309	12437
3924.917	12463
3926.523	12588
3928.13	12506
3929.739	12629
3931.344	12576
3932.95	12520
3934.555	12723
3936.159	12633
3937.766	12702
3939.369	12683
3940.974	12866
3942.577	12625
3944.181	12710
3945.783	12749
3947.386	12918
3948.989	12741
3950.59	12947
3952.191	12950
3953.791	12776
3955.394	12811
3956.994	12762
3958.593	12837
3960.192	12871
3961.791	12998
3963.392	12927
3964.99	12917
3966.588	13013
3968.185	12827
3969.782	12971
3971.379	12960
3972.976	13051
3974.572	13041
3976.168	12920
3977.763	13051
3979.358	12973
3980.954	13010
3982.548	13077
3984.142	12979
3985.736	12927
3987.329	13106
3988.922	13160
3990.516	13054
3992.108	13035
3993.698	13145
3995.29	13060
3996.881	13198
3998.473	13118
4000.064	13145
4001.653	13101
4003.242	12989
4004.832	13157
4006.422	12927
4008.01	13216
4009.598	13171
4011.186	13060
4012.773	13073
4014.36	13311
4015.947	13187
4017.534	13172
4019.119	13186
4020.705	13299
4022.291	13334
4023.876	13089
4025.461	13314
4027.044	13256
4028.627	13270
4030.211	13420
4031.795	13360
4033.378	13212
4034.96	13308
4036.542	13557
4038.124	13468
4039.704	13373
4041.286	13289
4042.867	13322
4044.447	13404
4046.026	13393
4047.606	13472
4049.187	13535
4050.765	13396
4052.343	13361
4053.92	13604
4055.498	13528
4057.076	13486
4058.654	13782
4060.23	13490
4061.806	13672
4063.381	13636
4064.957	13663
4066.533	13716
4068.107	13720
4069.682	13629
4071.256	13640
4072.829	13504
4074.404	13637
4075.977	13663
4077.549	13632
4079.121	13901
4080.693	13697
4082.265	13794
4083.836	13692
4085.407	13881
4086.977	13950
4088.547	13865
4090.117	13934
4091.687	13838
4093.256	13961
4094.825	13896
4096.392	14043
4097.96	13886
4099.528	14088
4101.097	14073
4102.663	14032
4104.229	13961
4105.795	14121
4107.361	14254
4108.928	13971
4110.493	14017
4112.058	13988
4113.621	14000
4115.186	14092
4116.75	14287
4118.313	14056
4119.876	14130
4121.438	14290
4123	14382
4124.562	14144
4126.125	14378
4127.686	14208
4129.246	14259
4130.807	14258
4132.367	14177
4133.927	14294
4135.486	14048
4137.046	14176
4138.604	14243
4140.162	14306
4141.72	14373
4143.279	14336
4144.836	14305
4146.393	14513
4147.949	14262
4149.505	14338
4151.062	14394
4152.617	14345
4154.172	14498
4155.727	14364
4157.281	14568
4158.836	14487
4160.39	14516
4161.943	14400
4163.496	14568
4165.048	14400
4166.601	14409
4168.154	14434
4169.706	14621
4171.257	14608
4172.808	14493
4174.358	14462
4175.909	14399
4177.458	14624
4179.008	14494
4180.558	14615
4182.106	14715
4183.655	14566
4185.204	14548
4186.751	14642
4188.298	14708
4189.845	14628
4191.392	14719
4192.939	14601
4194.485	14771
4196.031	14713
4197.576	14743
4199.121	14515
4200.666	14459
4202.211	14824
4203.754	14810
4205.298	14856
4206.84	14745
4208.384	14768
4209.927	14875
4211.47	14716
4213.011	14855
4214.552	15007
4216.094	15093
4217.635	15089
4219.175	14913
4220.716	15031
4222.255	14986
4223.793	15177
4225.335	14943
4226.873	14983
4228.411	15343
4229.948	15218
4231.486	15031
4233.024	15036
4234.562	15037
4236.098	15202
4237.634	15198
4239.169	15244
4240.705	15234
4242.241	15160
4243.776	15322
4245.31	15348
4246.844	15354
4248.378	15263
4249.911	15611
4251.445	15244
4252.978	15399
4254.51	15248
4256.042	15445
4257.574	15508
4259.107	15424
4260.638	15300
4262.169	15601
4263.699	15531
4265.228	15588
4266.759	15633
4268.289	15622
4269.818	15539
4271.345	15411
4272.874	15499
4274.402	15560
4275.931	15692
4277.458	15662
4278.985	15827
4280.512	15596
4282.037	15768
4283.564	15845
4285.089	15569
4286.615	15849
4288.139	15756
4289.664	15656
4291.187	15787
4292.712	15859
4294.235	15804
4295.759	15699
4297.281	15907
4298.804	15866
4300.327	15675
4301.849	15905
4303.37	15869
4304.891	15961
4306.412	15901
4307.933	15868
4309.453	15972
4310.973	15934
4312.492	15959
