398.1873	5688
400.7097	5694
403.2336	5662
405.7547	5679
408.2751	5783
410.7948	5859
413.3138	5774
415.83	5858
418.3497	5898
420.8666	5916
423.3829	5996
425.8985	6044
428.4133	6146
430.9275	6133
433.441	6176
435.9538	6203
438.4639	6141
440.9753	6327
443.4881	6272
445.9982	6153
448.5055	6231
451.0142	6171
453.5201	6089
456.0274	6132
458.5361	6134
461.04	6130
463.5453	6232
466.0478	6128
468.5517	6073
471.0549	6197
473.5574	6217
476.0572	6168
478.5584	6117
481.0568	6305
483.5545	6207
486.0557	6305
488.5521	6217
491.0478	6167
493.5449	6331
496.0392	6317
498.5349	6337
501.0299	6359
503.5222	6321
506.0139	6367
508.5048	6437
510.9991	6377
513.4887	6397
515.9777	6423
518.4659	6526
520.9534	6287
523.4403	6436
525.9306	6280
528.4161	6307
530.9009	6335
533.3851	6383
535.8687	6538
538.3535	6477
540.8356	6471
543.3171	6439
545.7979	6540
548.278	6406
550.7595	6498
553.2383	6302
555.7144	6452
558.1918	6460
560.6685	6543
563.1446	6594
565.6221	6402
568.0968	6583
570.5688	6609
573.0422	6627
575.515	6660
577.989	6622
580.4584	6716
582.9291	6753
585.3991	6704
587.8685	6767
590.3352	6683
592.8052	6686
595.2706	6691
597.7372	6678
600.2033	6683
602.6666	6701
605.1334	6626
607.5953	6662
610.0587	6623
612.5193	6683
614.9814	6639
617.4427	6679
619.9034	6680
622.3615	6542
624.8208	6585
627.2775	6707
629.7335	6604
632.1929	6572
634.6476	6558
637.1016	6642
639.5569	6591
642.0096	6763
644.4637	6684
646.9151	6608
649.3678	6654
651.8179	6702
654.2672	6749
656.7159	6673
659.166	6672
661.6154	6792
664.0622	6733
666.5082	6845
668.9537	6722
671.4005	6751
673.8445	6866
676.288	6793
678.7308	6713
681.1729	6857
683.6163	6841
686.0572	6808
688.4973	6788
690.9368	6726
693.3757	6854
695.8138	6853
698.2534	6862
700.6902	6956
703.1245	6900
705.56	6911
707.9949	6936
710.4311	7051
712.8647	6940
715.2957	6900
717.7279	6977
720.1595	6990
722.5905	7027
725.0208	6960
727.4505	7042
729.8795	7077
732.3058	7178
734.7336	7031
737.1626	7147
739.587	7195
742.0128	7098
744.4359	7228
746.8604	7289
749.2841	7213
751.7073	7266
754.1278	7333
756.5496	7238
758.9688	7343
761.3893	7508
763.8093	7264
766.2285	7200
768.6451	7300
771.0611	7454
773.4784	7229
775.895	7380
778.3091	7286
780.7244	7377
783.1371	7333
785.5493	7250
787.9626	7445
790.3754	7249
792.7856	7294
795.1951	7424
797.6039	7375
800.0121	7357
802.4236	7349
804.8306	7510
807.2369	7394
809.6425	7399
812.0475	7486
814.4538	7383
816.8575	7445
819.2606	7449
821.663	7496
824.0648	7421
826.4659	7405
828.8683	7434
831.2682	7422
833.6674	7314
836.066	7596
838.4639	7518
840.8632	7622
843.2579	7556
845.6539	7409
848.0493	7528
850.444	7629
852.84	7596
855.2315	7631
857.6243	7579
860.0165	7529
862.4081	7598
864.797	7633
867.1892	7677
869.5789	7560
871.9659	7448
874.3542	7464
876.74	7562
879.129	7653
881.5155	7629
883.8994	7582
886.2845	7643
888.6671	7641
891.051	7495
893.4343	7502
895.8169	7578
898.197	7566
900.5783	7608
902.9571	7615
905.3372	7600
907.7167	7628
910.0936	7676
912.4698	7594
914.8474	7694
917.2244	7694
919.5987	7826
921.9744	7843
924.3475	7753
926.72	7820
929.0918	7763
931.4669	7834
933.8375	7983
936.2074	7977
938.5767	8091
940.9454	7988
943.3154	8149
945.6829	8304
948.0497	8517
950.4178	8594
952.7833	8912
955.1483	9146
957.5145	9524
959.8782	9693
962.2412	9516
964.6036	9287
966.9655	9113
969.3266	8635
971.6871	8375
974.0471	8253
976.4064	8082
978.765	8018
981.125	7793
983.4824	7891
985.8373	7667
988.1935	7933
990.549	7905
992.9039	7867
995.2602	7857
997.6119	7703
999.965	7841
1002.317	7773
1004.667	7854
1007.02	7878
1009.371	7813
1011.719	7851
1014.068	7869
1016.415	7931
1018.765	7926
1021.111	7996
1023.458	7950
1025.804	7843
1028.147	8013
1030.49	7879
1032.837	8057
1035.179	7923
1037.522	7887
1039.862	7849
1042.204	7968
1044.546	8110
1046.884	8014
1049.224	7973
1051.562	8092
1053.899	8059
1056.237	8036
1058.575	8000
1060.91	8199
1063.244	8086
1065.58	8266
1067.913	8256
1070.248	8136
1072.579	8124
1074.911	8124
1077.242	8142
1079.572	8177
1081.905	8057
1084.234	7983
1086.562	8014
1088.89	8119
1091.217	8026
1093.544	7913
1095.871	8011
1098.197	8080
1100.521	8040
1102.845	7920
1105.169	8054
1107.491	8061
1109.814	8090
1112.135	8092
1114.456	8095
1116.776	8007
1119.096	8062
1121.415	7971
1123.734	8109
1126.052	8107
1128.369	7963
1130.686	8083
1133.002	8202
1135.318	8077
1137.632	8082
1139.945	7987
1142.258	8069
1144.573	8109
1146.884	7999
1149.196	7969
1151.505	8266
1153.816	8124
1156.124	8033
1158.435	8092
1160.742	8052
1163.051	8072
1165.356	8153
1167.663	8047
1169.97	8038
1172.276	8099
1174.579	8055
1176.881	8051
1179.186	8073
1181.487	8148
1183.79	8062
1186.092	8089
1188.392	8146
1190.691	8107
1192.991	7866
1195.291	8000
1197.588	8063
1199.885	8137
1202.181	8034
1204.479	8070
1206.775	8225
1209.07	8136
1211.363	8083
1213.656	8176
1215.949	8044
1218.241	8262
1220.534	8140
1222.825	8298
1225.115	8072
1227.405	8217
1229.693	8200
1231.984	8218
1234.271	8275
1236.558	8255
1238.845	8257
1241.131	8286
1243.416	8389
1245.703	8460
1247.987	8401
1250.269	8397
1252.552	8410
1254.834	8452
1257.118	8535
1259.399	8280
1261.678	8458
1263.958	8385
1266.237	8393
1268.516	8319
1270.794	8360
1273.072	8413
1275.347	8328
1277.624	8391
1279.899	8368
1282.175	8347
1284.449	8516
1286.722	8321
1288.995	8156
1291.266	8186
1293.54	8309
1295.81	8289
1298.081	8324
1300.35	8431
1302.62	8294
1304.889	8238
1307.156	8303
1309.425	8286
1311.69	8256
1313.957	8332
1316.222	8202
1318.488	8233
1320.751	8273
1323.016	8275
1325.278	8405
1327.54	8270
1329.803	8354
1332.065	8348
1334.325	8220
1336.584	8224
1338.843	8317
1341.101	8358
1343.36	8297
1345.617	8407
1347.876	8458
1350.131	8280
1352.387	8344
1354.643	8337
1356.897	8326
1359.151	8416
1361.403	8373
1363.656	8269
1365.909	8410
1368.16	8290
1370.409	8316
1372.659	8275
1374.909	8383
1377.157	8327
1379.407	8393
1381.655	8403
1383.9	8420
1386.147	8400
1388.393	8380
1390.64	8437
1392.885	8472
1395.127	8344
1397.37	8409
1399.614	8439
1401.854	8532
1404.098	8493
1406.339	8409
1408.578	8317
1410.818	8627
1413.056	8375
1415.297	8563
1417.533	8367
1419.771	8599
1422.006	8489
1424.243	8620
1426.479	8561
1428.715	8566
1430.948	8516
1433.182	8617
1435.414	8626
1437.647	8776
1439.88	8607
1442.11	8663
1444.342	8650
1446.571	8673
1448.799	8613
1451.029	8652
1453.258	8797
1455.485	8735
1457.711	8853
1459.937	8632
1462.164	8707
1464.39	8726
1466.614	8631
1468.838	8635
1471.06	8484
1473.283	8556
1475.506	8549
1477.727	8627
1479.949	8533
1482.169	8576
1484.389	8565
1486.609	8475
1488.828	8499
1491.045	8489
1493.261	8263
1495.477	8389
1497.693	8536
1499.91	8548
1502.125	8478
1504.339	8469
1506.553	8320
1508.766	8368
1510.979	8324
1513.191	8390
1515.402	8307
1517.613	8221
1519.823	8337
1522.033	8378
1524.242	8356
1526.451	8417
1528.657	8398
1530.865	8312
1533.072	8555
1535.278	8431
1537.484	8435
1539.687	8405
1541.892	8571
1544.096	8525
1546.299	8496
1548.502	8389
1550.703	8650
1552.905	8457
1555.104	8473
1557.303	8570
1559.505	8573
1561.703	8375
1563.902	8473
1566.099	8498
1568.295	8565
1570.494	8532
1572.689	8556
1574.883	8622
1577.079	8800
1579.272	8706
1581.467	8758
1583.659	8763
1585.853	8707
1588.044	8556
1590.234	8558
1592.424	8742
1594.615	8686
1596.806	8819
1598.994	8612
1601.182	8708
1603.369	8737
1605.557	8612
1607.744	8797
1609.929	8635
1612.114	8772
1614.298	8698
1616.482	8813
1618.667	8715
1620.85	8717
1623.032	8742
1625.214	8768
1627.395	8807
1629.575	8813
1631.755	8722
1633.935	8711
1636.114	8878
1638.292	8937
1640.471	8795
1642.647	8777
1644.823	8726
1647	8717
1649.175	8847
1651.348	8816
1653.525	8803
1655.698	8875
1657.87	8956
1660.043	8763
1662.213	8820
1664.387	8879
1666.558	8823
1668.727	8894
1670.896	8907
1673.064	8882
1675.233	8936
1677.401	8928
1679.569	8851
1681.735	8917
1683.902	8861
1686.066	8837
1688.233	8807
1690.397	8870
1692.559	8874
1694.723	8783
1696.885	8864
1699.048	8841
1701.21	8702
1703.37	8797
1705.53	8746
1707.689	8733
1709.849	8680
1712.009	8693
1714.166	8761
1716.323	8696
1718.479	8743
1720.634	8810
1722.793	8800
1724.948	8675
1727.102	8753
1729.255	8590
1731.408	8784
1733.562	8746
1735.714	8822
1737.865	8801
1740.016	8731
1742.166	8761
1744.316	8850
1746.467	8719
1748.616	8785
1750.764	8869
1752.911	8947
1755.056	8831
1757.205	8914
1759.35	8833
1761.496	8676
1763.641	8771
1765.785	8781
1767.927	8848
1770.072	8750
1772.214	8950
1774.355	8937
1776.496	8895
1778.637	8992
1780.778	8805
1782.918	8857
1785.057	8824
1787.194	9003
1789.333	8832
1791.472	8880
1793.608	8914
1795.745	8844
1797.879	9058
1800.015	8771
1802.148	8895
1804.284	8832
1806.417	8837
1808.548	8898
1810.682	8907
1812.812	8982
1814.946	8862
1817.075	8842
1819.205	8903
1821.335	8926
1823.463	8879
1825.59	8989
1827.721	8854
1829.847	8675
1831.973	8898
1834.098	8855
1836.223	8886
1838.351	8898
1840.475	8817
1842.598	8828
1844.721	8972
1846.843	8936
1848.966	8847
1851.087	8836
1853.21	8784
1855.33	8692
1857.449	8738
1859.568	8889
1861.688	8777
1863.806	8842
1865.924	8736
1868.039	8825
1870.155	8717
1872.273	8816
1874.388	8747
1876.503	8737
1878.617	8820
1880.73	8802
1882.844	8870
1884.956	8974
1887.068	8805
1889.18	8866
1891.291	9042
1893.4	8728
1895.511	8895
1897.621	8854
1899.73	8844
1901.837	8847
1903.944	8963
1906.053	8828
1908.159	8951
1910.265	8828
1912.369	9021
1914.474	8846
1916.577	8955
1918.683	9068
1920.785	9012
1922.888	8861
1924.989	8957
1927.091	8870
1929.193	9007
1931.294	9013
1933.393	9000
1935.493	8962
1937.59	9142
1939.689	8994
1941.788	9076
1943.884	8975
1945.98	8869
1948.077	9072
1950.171	9079
1952.267	8910
1954.361	9020
1956.455	8889
1958.548	8884
1960.64	8980
1962.733	9055
1964.824	8937
1966.915	9044
1969.005	9195
1971.096	8881
1973.185	8998
1975.275	8979
1977.363	9000
1979.45	8832
1981.537	9051
1983.623	9080
1985.711	8961
1987.796	8872
1989.881	9037
1991.965	9022
1994.047	9012
1996.132	8885
1998.215	8933
2000.297	8823
2002.378	8923
2004.46	8797
2006.54	8870
2008.62	8934
2010.7	8868
2012.779	8814
2014.858	8885
2016.934	8898
2019.013	8977
2021.09	8923
2023.165	8908
2025.241	8912
2027.317	8973
2029.39	8946
2031.466	8914
2033.538	8929
2035.612	8925
2037.683	8872
2039.755	8959
2041.827	8926
2043.898	8936
2045.968	8906
2048.038	8787
2050.106	8868
2052.177	8932
2054.244	9011
2056.313	8971
2058.379	9034
2060.444	8957
2062.511	8929
2064.577	8938
2066.641	9112
2068.705	8928
2070.77	9041
2072.832	9035
2074.896	8918
2076.958	9012
2079.02	8892
2081.081	8939
2083.141	8943
2085.2	8999
2087.261	8983
2089.319	8996
2091.377	8905
2093.435	9021
2095.492	8905
2097.552	8972
2099.607	9073
2101.663	9015
2103.718	8964
2105.771	9046
2107.826	8977
2109.879	9106
2111.932	8968
2113.985	9081
2116.037	9057
2118.088	8974
2120.141	8947
2122.191	9070
2124.239	8823
2126.288	8967
2128.337	8929
2130.387	8886
2132.434	9038
2134.481	9020
2136.528	8961
2138.574	8964
2140.618	8907
2142.665	8992
2144.71	9034
2146.753	8984
2148.797	8990
2150.838	8840
2152.883	8856
2154.923	8874
2156.965	8873
2159.007	8809
2161.046	8920
2163.086	9004
2165.126	8903
2167.163	8861
2169.202	8891
2171.239	8978
2173.277	8858
2175.314	8803
2177.349	8860
2179.385	8838
2181.42	8821
2183.453	8927
2185.49	8737
2187.522	8858
2189.555	8774
2191.586	8811
2193.619	8758
2195.651	8774
2197.682	8882
2199.711	8779
2201.74	8854
2203.769	8864
2205.799	8807
2207.828	8847
2209.855	8758
2211.882	8917
2213.908	8842
2215.934	8693
2217.961	8808
2219.986	8800
2222.01	8775
2224.034	8706
2226.057	8741
2228.08	8605
2230.104	8732
2232.124	8867
2234.145	8723
2236.166	8752
2238.186	8805
2240.207	8749
2242.227	8853
2244.244	8884
2246.262	8701
2248.28	8817
2250.299	8808
2252.314	8889
2254.33	8749
2256.346	8758
2258.36	8955
2260.375	8837
2262.391	8874
2264.403	8890
2266.416	8899
2268.427	8756
2270.44	8756
2272.453	8796
2274.463	8886
2276.474	8731
2278.483	8779
2280.493	8851
2282.501	8706
2284.51	8720
2286.518	8833
2288.524	8889
2290.532	8864
2292.537	8819
2294.544	8716
2296.55	8769
2298.554	8837
2300.557	8712
2302.562	8787
2304.566	8798
2306.568	8762
2308.569	8718
2310.572	8912
2312.573	8858
2314.573	8665
2316.574	8762
2318.573	8698
2320.571	8818
2322.571	8772
2324.569	8751
2326.567	8766
2328.564	8791
2330.56	8625
2332.556	8830
2334.551	8698
2336.546	8654
2338.542	8742
2340.535	8723
2342.529	8679
2344.521	8550
2346.512	8637
2348.505	8577
2350.497	8715
2352.487	8717
2354.478	8563
2356.468	8595
2358.457	8679
2360.446	8604
2362.434	8506
2364.422	8569
2366.408	8682
2368.395	8648
2370.383	8639
2372.369	8574
2374.353	8723
2376.338	8634
2378.321	8545
2380.307	8706
2382.29	8516
2384.272	8425
2386.254	8577
2388.235	8551
2390.218	8543
2392.198	8535
2394.179	8635
2396.157	8603
2398.137	8641
2400.115	8571
2402.095	8646
2404.072	8602
2406.048	8637
2408.026	8466
2410.001	8535
2411.977	8414
2413.953	8452
2415.927	8614
2417.9	8704
2419.875	8458
2421.847	8465
2423.821	8662
2425.792	8520
2427.763	8513
2429.736	8507
2431.706	8605
2433.677	8477
2435.646	8557
2437.615	8495
2439.583	8611
2441.551	8542
2443.519	8511
2445.486	8415
2447.452	8542
2449.418	8590
2451.383	8451
2453.348	8443
2455.314	8544
2457.278	8457
2459.241	8496
2461.205	8388
2463.167	8380
2465.131	8402
2467.091	8458
2469.052	8402
2471.012	8527
2472.972	8497
2474.932	8445
2476.891	8565
2478.85	8411
2480.808	8587
2482.766	8564
2484.722	8328
2486.68	8495
2488.636	8367
2490.591	8359
2492.546	8583
2494.5	8540
2496.456	8397
2498.41	8451
2500.362	8377
2502.315	8308
2504.266	8339
2506.218	8501
2508.169	8335
2510.121	8515
2512.07	8327
2514.019	8452
2515.968	8405
2517.918	8493
2519.866	8404
2521.813	8420
2523.76	8414
2525.707	8300
2527.653	8459
2529.599	8306
2531.543	8391
2533.489	8446
2535.433	8296
2537.376	8448
2539.32	8440
2541.264	8347
2543.205	8404
2545.147	8285
2547.087	8335
2549.029	8379
2550.969	8392
2552.908	8326
2554.847	8481
2556.786	8374
2558.724	8396
2560.663	8395
2562.6	8316
2564.537	8413
2566.473	8431
2568.408	8363
2570.345	8282
2572.28	8411
2574.214	8395
2576.148	8336
2578.081	8334
2580.014	8430
2581.947	8406
2583.879	8539
2585.81	8370
2587.741	8471
2589.67	8286
2591.602	8466
2593.532	8508
2595.461	8470
2597.388	8389
2599.316	8472
2601.244	8382
2603.172	8512
2605.098	8384
2607.023	8418
2608.949	8396
2610.873	8476
2612.8	8405
2614.723	8459
2616.647	8485
2618.569	8551
2620.493	8343
2622.416	8498
2624.338	8345
2626.258	8459
2628.179	8389
2630.099	8388
2632.019	8501
2633.939	8523
2635.857	8543
2637.775	8411
2639.694	8392
2641.61	8407
2643.528	8532
2645.444	8438
2647.361	8380
2649.276	8397
2651.19	8567
2653.105	8407
2655.019	8333
2656.934	8565
2658.846	8445
2660.758	8349
2662.67	8376
2664.583	8479
2666.493	8347
2668.404	8412
2670.313	8274
2672.223	8441
2674.134	8360
2676.042	8446
2677.95	8461
2679.858	8503
2681.765	8400
2683.673	8382
2685.579	8457
2687.483	8315
2689.389	8396
2691.294	8350
2693.198	8329
2695.104	8380
2697.006	8321
2698.909	8357
2700.811	8398
2702.713	8307
2704.615	8401
2706.516	8230
2708.417	8295
2710.316	8325
2712.216	8389
2714.115	8343
2716.014	8266
2717.913	8326
2719.81	8329
2721.707	8251
2723.603	8388
2725.501	8353
2727.396	8321
2729.292	8303
2731.186	8402
2733.081	8331
2734.976	8160
2736.87	8287
2738.762	8233
2740.653	8383
2742.546	8324
2744.437	8287
2746.329	8216
2748.22	8306
2750.11	8295
2751.999	8338
2753.889	8304
2755.778	8352
2757.666	8177
2759.553	8171
2761.44	8216
2763.328	8214
2765.215	8289
2767.101	8336
2768.986	8301
2770.87	8221
2772.754	8218
2774.638	8249
2776.523	8399
2778.405	8218
2780.288	8248
2782.17	8196
2784.051	8216
2785.934	8229
2787.814	8232
2789.694	8226
2791.574	8187
2793.453	8203
2795.332	8282
2797.212	8064
2799.088	8177
2800.966	8146
2802.843	8215
2804.719	8191
2806.597	8115
2808.471	8119
2810.346	8144
2812.221	8195
2814.094	8236
2815.969	8157
2817.843	8095
2819.714	8218
2821.587	8127
2823.459	8205
2825.329	8073
2827.202	8041
2829.072	8202
2830.942	8136
2832.811	8259
2834.68	8114
2836.549	8286
2838.418	8108
2840.284	8064
2842.152	8246
2844.018	8180
2845.885	8134
2847.751	8163
2849.616	8188
2851.482	8297
2853.345	8239
2855.208	8194
2857.074	8189
2858.937	8224
2860.799	8118
2862.66	8244
2864.522	8174
2866.385	8277
2868.245	8390
2870.104	8443
2871.964	8499
2873.824	8346
2875.683	8411
2877.542	8561
2879.4	8524
2881.257	8570
2883.114	8545
2884.97	8517
2886.827	8504
2888.683	8467
2890.537	8461
2892.392	8431
2894.246	8589
2896.1	8460
2897.954	8565
2899.807	8527
2901.66	8479
2903.51	8395
2905.362	8536
2907.214	8485
2909.065	8486
2910.915	8548
2912.765	8546
2914.613	8563
2916.463	8688
2918.311	8712
2920.158	8704
2922.006	8735
2923.853	8982
2925.698	9048
2927.546	8925
2929.392	8959
2931.236	9133
2933.081	9181
2934.924	9126
2936.77	8999
2938.613	9141
2940.455	9313
2942.298	9110
2944.139	9375
2945.982	9373
2947.823	9077
2949.662	9143
2951.503	9070
2953.342	8954
2955.182	9007
2957.021	8990
2958.858	8985
2960.697	8788
2962.534	8727
2964.37	8744
2966.207	8815
2968.044	8703
2969.879	8681
2971.714	8673
2973.548	8668
2975.383	8627
2977.218	8592
2979.051	8507
2980.883	8656
2982.715	8719
2984.547	8560
2986.379	8612
2988.21	8486
2990.04	8425
2991.87	8280
2993.7	8477
2995.53	8316
2997.359	8336
2999.187	8376
3001.015	8234
3002.842	8113
3004.669	8163
3006.497	8131
3008.323	7918
3010.148	7994
3011.974	8096
3013.797	8024
3015.623	7981
3017.447	7979
3019.27	7938
3021.094	7834
3022.915	7949
3024.737	7821
3026.56	8024
3028.38	7918
3030.201	7756
3032.022	7846
3033.84	7928
3035.662	7850
3037.481	7822
3039.298	7922
3041.117	7915
3042.933	7807
3044.752	7874
3046.568	7768
3048.385	7732
3050.2	7829
3052.016	7797
3053.83	7685
3055.646	7856
3057.46	7698
3059.272	7750
3061.086	7823
3062.898	7849
3064.711	7749
3066.524	7774
3068.335	7687
3070.145	7640
3071.956	7690
3073.766	7739
3075.576	7755
3077.385	7640
3079.193	7557
3081.002	7748
3082.81	7570
3084.618	7690
3086.425	7568
3088.231	7724
3090.036	7434
3091.842	7594
3093.648	7595
3095.452	7747
3097.257	7568
3099.06	7514
3100.863	7526
3102.666	7604
3104.47	7508
3106.272	7528
3108.073	7514
3109.875	7440
3111.676	7535
3113.477	7503
3115.277	7506
3117.077	7536
3118.874	7476
3120.673	7465
3122.473	7401
3124.271	7389
3126.066	7485
3127.863	7389
3129.66	7443
3131.456	7374
3133.252	7400
3135.047	7470
3136.842	7370
3138.635	7373
3140.429	7449
3142.223	7547
3144.016	7312
3145.808	7341
3147.6	7465
3149.392	7336
3151.183	7336
3152.975	7388
3154.765	7356
3156.553	7401
3158.344	7344
3160.132	7389
3161.922	7349
3163.71	7402
3165.497	7408
3167.285	7352
3169.071	7400
3170.858	7389
3172.645	7473
3174.429	7408
3176.214	7311
3177.998	7275
3179.783	7233
3181.568	7378
3183.351	7270
3185.133	7346
3186.915	7305
3188.698	7346
3190.481	7256
3192.261	7340
3194.042	7315
3195.822	7331
3197.601	7313
3199.381	7261
3201.161	7277
3202.939	7279
3204.717	7205
3206.495	7278
3208.272	7249
3210.05	7228
3211.826	7241
3213.602	7271
3215.376	7296
3217.151	7230
3218.927	7255
3220.702	7252
3222.476	7279
3224.249	7219
3226.021	7280
3227.793	7300
3229.567	7244
3231.339	7098
3233.109	7330
3234.88	7211
3236.651	7209
3238.421	7172
3240.191	7165
3241.96	7224
3243.728	7154
3245.497	7085
3247.263	7290
3249.033	7241
3250.799	7185
3252.566	7132
3254.331	7195
3256.097	7236
3257.863	7235
3259.628	7230
3261.392	7144
3263.156	7301
3264.919	7203
3266.683	7270
3268.447	7122
3270.208	7308
3271.969	7185
3273.731	7188
3275.492	7163
3277.253	7253
3279.013	7237
3280.773	7118
3282.532	7263
3284.291	7160
3286.05	7220
3287.808	7150
3289.566	7268
3291.323	7163
3293.079	7191
3294.835	7231
3296.593	7240
3298.348	7159
3300.102	7118
3301.857	7157
3303.611	7320
3305.366	7225
3307.119	7227
3308.872	7136
3310.624	7262
3312.376	7204
3314.129	7095
3315.881	7282
3317.631	7114
3319.38	7043
3321.13	7172
3322.88	7177
3324.631	7160
3326.379	7307
3328.126	7310
3329.875	7111
3331.622	7138
3333.371	7108
3335.116	7092
3336.863	7158
3338.609	7093
3340.353	7113
3342.1	7112
3343.845	7077
3345.588	7093
3347.332	7085
3349.074	7092
3350.817	7078
3352.56	7057
3354.303	7109
3356.043	7147
3357.785	7110
3359.525	6999
3361.268	7106
3363.007	7084
3364.745	7007
3366.485	6951
3368.223	7185
3369.962	7058
3371.701	7098
3373.438	6991
3375.174	7048
3376.911	7029
3378.647	7159
3380.384	7065
3382.118	7025
3383.854	7024
3385.588	7023
3387.322	6990
3389.057	7015
3390.79	7109
3392.522	7004
3394.255	6991
3395.987	6932
3397.719	7071
3399.451	6926
3401.181	6887
3402.911	6830
3404.641	7025
3406.371	7033
3408.101	6992
3409.83	6901
3411.558	7047
3413.285	6995
3415.011	6959
3416.739	6935
3418.467	6880
3420.193	6871
3421.919	6969
3423.644	6843
3425.368	7009
3427.094	6827
3428.818	7030
3430.542	6850
3432.264	7053
3433.987	6838
3435.712	6862
3437.434	6821
3439.155	6822
3440.876	6946
3442.596	6796
3444.317	6767
3446.039	6917
3447.757	6761
3449.477	6713
3451.195	6925
3452.914	6887
3454.632	6779
3456.35	6660
3458.067	6842
3459.784	6659
3461.5	6707
3463.216	6716
3464.932	6726
3466.647	6696
3468.362	6704
3470.076	6683
3471.789	6809
3473.505	6709
3475.217	6646
3476.929	6695
3478.641	6721
3480.354	6621
3482.066	6655
3483.777	6755
3485.487	6543
3487.197	6566
3488.908	6719
3490.617	6822
3492.327	6663
3494.035	6662
3495.743	6585
3497.451	6569
3499.158	6580
3500.866	6647
3502.572	6580
3504.278	6612
3505.984	6619
3507.689	6499
3509.396	6475
3511.1	6592
3512.804	6510
3514.508	6632
3516.211	6562
3517.913	6632
3519.616	6477
3521.319	6535
3523.021	6434
3524.722	6508
3526.422	6373
3528.124	6641
3529.824	6530
3531.524	6563
3533.222	6453
3534.921	6512
3536.62	6522
3538.318	6488
3540.016	6441
3541.714	6483
3543.41	6646
3545.107	6431
3546.803	6458
3548.5	6528
3550.194	6587
3551.889	6453
3553.583	6403
3555.279	6320
3556.972	6470
3558.666	6347
3560.358	6379
3562.051	6467
3563.742	6359
3565.435	6411
3567.126	6381
3568.817	6380
3570.507	6324
3572.197	6489
3573.888	6377
3575.577	6351
3577.265	6311
3578.954	6369
3580.642	6297
3582.329	6376
3584.017	6281
3585.704	6452
3587.391	6288
3589.077	6343
3590.762	6299
3592.449	6326
3594.133	6325
3595.817	6260
3597.501	6317
3599.185	6308
3600.869	6221
3602.552	6212
3604.234	6201
3605.916	6233
3607.598	6270
3609.279	6324
3610.961	6268
3612.642	6238
3614.321	6166
3616	6260
3617.68	6213
3619.36	6285
3621.039	6166
3622.716	6096
3624.394	6136
3626.071	6147
3627.748	6157
3629.425	6120
3631.102	6092
3632.778	6105
3634.452	6068
3636.127	6147
3637.803	6074
3639.477	6091
3641.151	6067
3642.823	6045
3644.497	6012
3646.171	6035
3647.842	6147
3649.515	5979
3651.185	6052
3652.857	6100
3654.527	5936
3656.198	6000
3657.868	6022
3659.537	5969
3661.207	6030
3662.875	6080
3664.544	6061
3666.212	6045
3667.879	6029
3669.546	5943
3671.212	5923
3672.88	5964
3674.546	6018
3676.211	6033
3677.875	5986
3679.541	5827
3681.205	5885
3682.87	5950
3684.533	5881
3686.196	5898
3687.859	5938
3689.521	5861
3691.184	5864
3692.845	6004
3694.507	5950
3696.167	5927
3697.827	5933
3699.487	5920
3701.148	5934
3702.808	6016
3704.466	5857
3706.125	6060
3707.783	5907
3709.442	5851
3711.099	5886
3712.757	5867
3714.412	5826
3716.068	5791
3717.725	5916
3719.381	5810
3721.036	5894
3722.689	5893
3724.344	5847
3725.998	5744
3727.652	5893
3729.305	5863
3730.958	5960
3732.61	5835
3734.262	5880
3735.915	5784
3737.565	5756
3739.217	5808
3740.866	5717
3742.516	5642
3744.165	5930
3745.816	5797
3747.464	5765
3749.113	5823
3750.761	5844
3752.409	5882
3754.057	5849
3755.703	5717
3757.35	5775
3758.996	5735
3760.641	5854
3762.289	5770
3763.933	5649
3765.577	5784
3767.222	5762
3768.865	5788
3770.508	5614
3772.152	5759
3773.796	5776
3775.438	5740
3777.079	5737
3778.721	5733
3780.363	5590
3782.003	5709
3783.643	5812
3785.283	5702
3786.923	5585
3788.563	5640
3790.203	5660
3791.841	5687
3793.479	5725
3795.115	5721
3796.753	5583
3798.391	5694
3800.027	5725
3801.664	5539
3803.299	5585
3804.935	5642
3806.571	5585
3808.206	5646
3809.839	5625
3811.473	5669
3813.107	5596
3814.74	5609
3816.375	5524
3818.006	5577
3819.638	5573
3821.27	5462
3822.9	5507
3824.532	5569
3826.163	5569
3827.792	5530
3829.423	5468
3831.051	5542
3832.682	5506
3834.311	5491
3835.938	5567
3837.566	5483
3839.193	5509
3840.821	5478
3842.448	5515
3844.075	5557
3845.7	5433
3847.325	5521
3848.951	5472
3850.576	5496
3852.201	5511
3853.825	5571
3855.448	5506
3857.072	5410
3858.694	5437
3860.318	5399
3861.939	5430
3863.562	5380
3865.183	5473
3866.804	5485
3868.426	5416
3870.045	5376
3871.666	5554
3873.285	5375
3874.904	5391
3876.524	5302
3878.142	5469
3879.76	5429
3881.378	5443
3882.995	5374
3884.612	5328
3886.229	5394
3887.845	5368
3889.461	5442
3891.076	5357
3892.691	5460
3894.307	5357
3895.922	5390
3897.536	5367
3899.149	5343
3900.761	5385
3902.374	5255
3903.988	5309
3905.6	5298
3907.212	5323
3908.822	5346
3910.433	5310
3912.045	5310
3913.655	5414
3915.265	5318
3916.875	5277
3918.483	5387
3920.093	5403
3921.702	5354
3923.309	5405
3924.917	5316
3926.523	5332
3928.13	5297
3929.739	5343
3931.344	5290
3932.95	5371
3934.555	5283
3936.159	5287
3937.766	5396
3939.369	5224
3940.974	5369
3942.577	5250
3944.181	5305
3945.783	5171
3947.386	5182
3948.989	5233
3950.59	5310
3952.191	5320
3953.791	5271
3955.394	5240
3956.994	5285
3958.593	5410
3960.192	5190
3961.791	5174
3963.392	5307
3964.99	5303
3966.588	5235
3968.185	5118
3969.782	5185
3971.379	5218
3972.976	5222
3974.572	5161
3976.168	5247
3977.763	5144
3979.358	5187
3980.954	5188
3982.548	5108
3984.142	5191
3985.736	5132
3987.329	5206
3988.922	5102
3990.516	5062
3992.108	5135
3993.698	5061
3995.29	5075
3996.881	5097
3998.473	5049
4000.064	5038
4001.653	5082
4003.242	5076
4004.832	5132
4006.422	5091
4008.01	5026
4009.598	5094
4011.186	4990
4012.773	4990
4014.36	5080
4015.947	4959
4017.534	4980
4019.119	4960
4020.705	4951
4022.291	5006
4023.876	5013
4025.461	5042
4027.044	4911
4028.627	4949
4030.211	4986
4031.795	5011
4033.378	4914
4034.96	4923
4036.542	4928
4038.124	4952
4039.704	4964
4041.286	4970
4042.867	4861
4044.447	4932
4046.026	4917
4047.606	4896
4049.187	4924
4050.765	4958
4052.343	4893
4053.92	4807
4055.498	4890
4057.076	4874
4058.654	4893
4060.23	4748
4061.806	4836
4063.381	4898
4064.957	4855
4066.533	4914
4068.107	4846
4069.682	4846
4071.256	4893
4072.829	4845
4074.404	4882
4075.977	4842
4077.549	4892
4079.121	4793
4080.693	4841
4082.265	4764
4083.836	4862
4085.407	4755
4086.977	4807
4088.547	4804
4090.117	4752
4091.687	4737
4093.256	4836
4094.825	4821
4096.392	4821
4097.96	4810
4099.528	4718
4101.097	4822
4102.663	4734
4104.229	4726
4105.795	4830
4107.361	4693
4108.928	4698
4110.493	4751
4112.058	4747
4113.621	4759
4115.186	4798
4116.75	4767
4118.313	4713
4119.876	4746
4121.438	4611
4123	4672
4124.562	4743
4126.125	4792
4127.686	4642
4129.246	4594
4130.807	4642
4132.367	4791
4133.927	4688
4135.486	4637
4137.046	4611
4138.604	4687
4140.162	4643
4141.72	4679
4143.279	4632
4144.836	4591
4146.393	4691
4147.949	4619
4149.505	4588
4151.062	4627
4152.617	4616
4154.172	4600
4155.727	4557
4157.281	4577
4158.836	4591
4160.39	4544
4161.943	4581
4163.496	4512
4165.048	4502
4166.601	4542
4168.154	4454
4169.706	4646
4171.257	4543
4172.808	4508
4174.358	4525
4175.909	4490
4177.458	4486
4179.008	4508
4180.558	4513
4182.106	4493
4183.655	4527
4185.204	4484
4186.751	4507
4188.298	4422
4189.845	4413
4191.392	4518
4192.939	4421
4194.485	4487
4196.031	4537
4197.576	4410
4199.121	4466
4200.666	4453
4202.211	4490
4203.754	4506
4205.298	4442
4206.84	4479
4208.384	4555
4209.927	4451
4211.47	4396
4213.011	4470
4214.552	4327
4216.094	4318
4217.635	4386
4219.175	4396
4220.716	4440
4222.255	4406
4223.793	4434
4225.335	4299
4226.873	4384
4228.411	4455
4229.948	4383
4231.486	4407
4233.024	4368
4234.562	4390
4236.098	4334
4237.634	4315
4239.169	4352
4240.705	4322
4242.241	4421
4243.776	4289
4245.31	4335
4246.844	4368
4248.378	4397
4249.911	4413
4251.445	4356
4252.978	4367
4254.51	4311
4256.042	4333
4257.574	4347
4259.107	4331
4260.638	4334
4262.169	4308
4263.699	4263
4265.228	4314
4266.759	4320
4268.289	4310
4269.818	4324
4271.345	4294
4272.874	4308
4274.402	4268
4275.931	4355
4277.458	4282
4278.985	4349
4280.512	4375
4282.037	4284
4283.564	4209
4285.089	4256
4286.615	4186
4288.139	4318
4289.664	4237
4291.187	4273
4292.712	4286
4294.235	4246
4295.759	4176
4297.281	4288
4298.804	4127
4300.327	4194
4301.849	4250
4303.37	4171
4304.891	4146
4306.412	4209
4307.933	4220
4309.453	4121
4310.973	4120
4312.492	4142
