398.1873	2650
400.7097	2821
403.2336	2856
405.7547	2718
408.2751	2807
410.7948	2805
413.3138	2782
415.83	2820
418.3497	2840
420.8666	2832
423.3829	2882
425.8985	2911
428.4133	2921
430.9275	2929
433.441	2929
435.9538	2949
438.4639	2981
440.9753	2860
443.4881	2985
445.9982	2987
448.5055	2919
451.0142	2968
453.5201	2922
456.0274	2950
458.5361	2874
461.04	3036
463.5453	3013
466.0478	2868
468.5517	3031
471.0549	3014
473.5574	2987
476.0572	2962
478.5584	2930
481.0568	3048
483.5545	2996
486.0557	2973
488.5521	3016
491.0478	2993
493.5449	2932
496.0392	3054
498.5349	3122
501.0299	2994
503.5222	3001
506.0139	2997
508.5048	3018
510.9991	3073
513.4887	3065
515.9777	3063
518.4659	3033
520.9534	3072
523.4403	3014
525.9306	2946
528.4161	3084
530.9009	3099
533.3851	2958
535.8687	3061
538.3535	3030
540.8356	3034
543.3171	3047
545.7979	3152
548.278	3062
550.7595	3049
553.2383	2964
555.7144	3065
558.1918	3036
560.6685	3083
563.1446	3095
565.6221	3158
568.0968	3100
570.5688	3145
573.0422	3138
575.515	3156
577.989	3096
580.4584	3173
582.9291	3158
585.3991	3247
587.8685	3190
590.3352	3141
592.8052	3164
595.2706	3156
597.7372	3076
600.2033	3084
602.6666	3239
605.1334	3125
607.5953	3156
610.0587	3199
612.5193	3080
614.9814	3185
617.4427	3090
619.9034	3176
622.3615	3179
624.8208	3148
627.2775	3158
629.7335	3148
632.1929	3103
634.6476	3169
637.1016	3093
639.5569	3038
642.0096	3157
644.4637	3098
646.9151	3136
649.3678	3136
651.8179	3190
654.2672	3153
656.7159	3235
659.166	3155
661.6154	3191
664.0622	3183
666.5082	3250
668.9537	3250
671.4005	3274
673.8445	3165
676.288	3293
678.7308	3191
681.1729	3270
683.6163	3237
686.0572	3242
688.4973	3255
690.9368	3192
693.3757	3323
695.8138	3174
698.2534	3275
700.6902	3267
703.1245	3320
705.56	3222
707.9949	3269
710.4311	3320
712.8647	3257
715.2957	3268
717.7279	3295
720.1595	3256
722.5905	3341
725.0208	3357
727.4505	3349
729.8795	3458
732.3058	3320
734.7336	3358
737.1626	3335
739.587	3436
742.0128	3373
744.4359	3311
746.8604	3390
749.2841	3476
751.7073	3421
754.1278	3437
756.5496	3478
758.9688	3465
761.3893	3402
763.8093	3463
766.2285	3431
768.6451	3470
771.0611	3482
773.4784	3431
775.895	3480
778.3091	3417
780.7244	3502
783.1371	3474
785.5493	3463
787.9626	3450
790.3754	3407
792.7856	3400
795.1951	3446
797.6039	3436
800.0121	3478
802.4236	3414
804.8306	3558
807.2369	3504
809.6425	3575
812.0475	3390
814.4538	3523
816.8575	3517
819.2606	3464
821.663	3470
824.0648	3570
826.4659	3586
828.8683	3481
831.2682	3474
833.6674	3453
836.066	3485
838.4639	3521
840.8632	3516
843.2579	3534
845.6539	3574
848.0493	3518
850.444	3643
852.84	3567
855.2315	3517
857.6243	3593
860.0165	3593
862.4081	3620
864.797	3620
867.1892	3593
869.5789	3570
871.9659	3566
874.3542	3523
876.74	3547
879.129	3593
881.5155	3637
883.8994	3555
886.2845	3550
888.6671	3588
891.051	3615
893.4343	3497
895.8169	3540
898.197	3619
900.5783	3557
902.9571	3490
905.3372	3588
907.7167	3627
910.0936	3644
912.4698	3645
914.8474	3644
917.2244	3642
919.5987	3734
921.9744	3665
924.3475	3659
926.72	3635
929.0918	3665
931.4669	3730
933.8375	3722
936.2074	3782
938.5767	3813
940.9454	3745
943.3154	3788
945.6829	3943
948.0497	3923
950.4178	4038
952.7833	4093
955.1483	4187
957.5145	4303
959.8782	4397
962.2412	4438
964.6036	4329
966.9655	4233
969.3266	4004
971.6871	3985
974.0471	3863
976.4064	3790
978.765	3742
981.125	3739
983.4824	3759
985.8373	3703
988.1935	3693
990.549	3668
992.9039	3763
995.2602	3782
997.6119	3739
999.965	3757
1002.317	3690
1004.667	3692
1007.02	3796
1009.371	3651
1011.719	3726
1014.068	3694
1016.415	3745
1018.765	3711
1021.111	3757
1023.458	3735
1025.804	3778
1028.147	3791
1030.49	3799
1032.837	3757
1035.179	3767
1037.522	3798
1039.862	3785
1042.204	3752
1044.546	3885
1046.884	3745
1049.224	3720
1051.562	3752
1053.899	3781
1056.237	3756
1058.575	3793
1060.91	3737
1063.244	3752
1065.58	3905
1067.913	3839
1070.248	3900
1072.579	3862
1074.911	3872
1077.242	3821
1079.572	3873
1081.905	3864
1084.234	3811
1086.562	3786
1088.89	3848
1091.217	3796
1093.544	3786
1095.871	3771
1098.197	3813
1100.521	3853
1102.845	3824
1105.169	3781
1107.491	3776
1109.814	3860
1112.135	3812
1114.456	3853
1116.776	3769
1119.096	3797
1121.415	3863
1123.734	3804
1126.052	3843
1128.369	3818
1130.686	3782
1133.002	3867
1135.318	3744
1137.632	3880
1139.945	3818
1142.258	3784
1144.573	3736
1146.884	3763
1149.196	3799
1151.505	3820
1153.816	3794
1156.124	3708
1158.435	3832
1160.742	3791
1163.051	3833
1165.356	3804
1167.663	3856
1169.97	3773
1172.276	3736
1174.579	3794
1176.881	3833
1179.186	3827
1181.487	3859
1183.79	3766
1186.092	3837
1188.392	3730
1190.691	3923
1192.991	3817
1195.291	3908
1197.588	3842
1199.885	3882
1202.181	3832
1204.479	3850
1206.775	3866
1209.07	3849
1211.363	3714
1213.656	3953
1215.949	3886
1218.241	3875
1220.534	3928
1222.825	3849
1225.115	3870
1227.405	3872
1229.693	3928
1231.984	3952
1234.271	3974
1236.558	3900
1238.845	3921
1241.131	3932
1243.416	3936
1245.703	3939
1247.987	3955
1250.269	3967
1252.552	3947
1254.834	3999
1257.118	3971
1259.399	4019
1261.678	3903
1263.958	3943
1266.237	3999
1268.516	3992
1270.794	3899
1273.072	4009
1275.347	3944
1277.624	3879
1279.899	3999
1282.175	4042
1284.449	3938
1286.722	4000
1288.995	3946
1291.266	3818
1293.54	3960
1295.81	3909
1298.081	3958
1300.35	4001
1302.62	3865
1304.889	4058
1307.156	3920
1309.425	3846
1311.69	3847
1313.957	3995
1316.222	4003
1318.488	3938
1320.751	4005
1323.016	4090
1325.278	4026
1327.54	3958
1329.803	3961
1332.065	4015
1334.325	4053
1336.584	4035
1338.843	4004
1341.101	3953
1343.36	3944
1345.617	4012
1347.876	3954
1350.131	4033
1352.387	4047
1354.643	4048
1356.897	3854
1359.151	3899
1361.403	3920
1363.656	3931
1365.909	3961
1368.16	3956
1370.409	4036
1372.659	4007
1374.909	4104
1377.157	3990
1379.407	4041
1381.655	3961
1383.9	4049
1386.147	3977
1388.393	4032
1390.64	4117
1392.885	4078
1395.127	4023
1397.37	4062
1399.614	4071
1401.854	4063
1404.098	4000
1406.339	3993
1408.578	4101
1410.818	4024
1413.056	4065
1415.297	4114
1417.533	4099
1419.771	4015
1422.006	4163
1424.243	4143
1426.479	4095
1428.715	4187
1430.948	4126
1433.182	4107
1435.414	4096
1437.647	4148
1439.88	4153
1442.11	4157
1444.342	4176
1446.571	4168
1448.799	4124
1451.029	4213
1453.258	4130
1455.485	4253
1457.711	4242
1459.937	4171
1462.164	4170
1464.39	4228
1466.614	4167
1468.838	4120
1471.06	4087
1473.283	4073
1475.506	4102
1477.727	4073
1479.949	4096
1482.169	4011
1484.389	4053
1486.609	4046
1488.828	4051
1491.045	4040
1493.261	4072
1495.477	3955
1497.693	4110
1499.91	3987
1502.125	4013
1504.339	4051
1506.553	4102
1508.766	4092
1510.979	4089
1513.191	4058
1515.402	4037
1517.613	3989
1519.823	4037
1522.033	4053
1524.242	3966
1526.451	3977
1528.657	4094
1530.865	3987
1533.072	4092
1535.278	4076
1537.484	4036
1539.687	4090
1541.892	4075
1544.096	4126
1546.299	4048
1548.502	4051
1550.703	4135
1552.905	4064
1555.104	4012
1557.303	4063
1559.505	4060
1561.703	4136
1563.902	4105
1566.099	4174
1568.295	4065
1570.494	4088
1572.689	4176
1574.883	4120
1577.079	4192
1579.272	4176
1581.467	4183
1583.659	4136
1585.853	4134
1588.044	4171
1590.234	4133
1592.424	4086
1594.615	4182
1596.806	4153
1598.994	4235
1601.182	4175
1603.369	4202
1605.557	4176
1607.744	4296
1609.929	4241
1612.114	4239
1614.298	4189
1616.482	4151
1618.667	4118
1620.85	4218
1623.032	4077
1625.214	4262
1627.395	4276
1629.575	4211
1631.755	4177
1633.935	4284
1636.114	4192
1638.292	4189
1640.471	4255
1642.647	4270
1644.823	4265
1647	4234
1649.175	4245
1651.348	4235
1653.525	4218
1655.698	4169
1657.87	4231
1660.043	4295
1662.213	4248
1664.387	4268
1666.558	4255
1668.727	4313
1670.896	4189
1673.064	4275
1675.233	4261
1677.401	4244
1679.569	4258
1681.735	4272
1683.902	4208
1686.066	4236
1688.233	4297
1690.397	4239
1692.559	4253
1694.723	4214
1696.885	4250
1699.048	4202
1701.21	4331
1703.37	4230
1705.53	4250
1707.689	4224
1709.849	4121
1712.009	4215
1714.166	4228
1716.323	4178
1718.479	4180
1720.634	4133
1722.793	4249
1724.948	4153
1727.102	4230
1729.255	4245
1731.408	4227
1733.562	4239
1735.714	4168
1737.865	4194
1740.016	4247
1742.166	4311
1744.316	4241
1746.467	4273
1748.616	4183
1750.764	4285
1752.911	4259
1755.056	4140
1757.205	4218
1759.35	4227
1761.496	4212
1763.641	4145
1765.785	4241
1767.927	4289
1770.072	4236
1772.214	4293
1774.355	4300
1776.496	4196
1778.637	4284
1780.778	4281
1782.918	4196
1785.057	4230
1787.194	4320
1789.333	4303
1791.472	4305
1793.608	4304
1795.745	4194
1797.879	4347
1800.015	4208
1802.148	4238
1804.284	4219
1806.417	4329
1808.548	4287
1810.682	4256
1812.812	4360
1814.946	4263
1817.075	4349
1819.205	4266
1821.335	4298
1823.463	4175
1825.59	4232
1827.721	4223
1829.847	4282
1831.973	4238
1834.098	4282
1836.223	4184
1838.351	4268
1840.475	4310
1842.598	4256
1844.721	4250
1846.843	4192
1848.966	4290
1851.087	4244
1853.21	4266
1855.33	4303
1857.449	4274
1859.568	4145
1861.688	4264
1863.806	4105
1865.924	4325
1868.039	4146
1870.155	4192
1872.273	4330
1874.388	4215
1876.503	4293
1878.617	4268
1880.73	4288
1882.844	4240
1884.956	4185
1887.068	4245
1889.18	4244
1891.291	4330
1893.4	4308
1895.511	4228
1897.621	4302
1899.73	4298
1901.837	4289
1903.944	4348
1906.053	4288
1908.159	4292
1910.265	4249
1912.369	4367
1914.474	4321
1916.577	4268
1918.683	4347
1920.785	4320
1922.888	4352
1924.989	4339
1927.091	4316
1929.193	4249
1931.294	4295
1933.393	4324
1935.493	4334
1937.59	4338
1939.689	4269
1941.788	4393
1943.884	4320
1945.98	4341
1948.077	4355
1950.171	4344
1952.267	4357
1954.361	4321
1956.455	4325
1958.548	4398
1960.64	4317
1962.733	4216
1964.824	4258
1966.915	4365
1969.005	4333
1971.096	4350
1973.185	4336
1975.275	4301
1977.363	4319
1979.45	4353
1981.537	4372
1983.623	4270
1985.711	4346
1987.796	4327
1989.881	4275
1991.965	4415
1994.047	4368
1996.132	4298
1998.215	4292
2000.297	4253
2002.378	4366
2004.46	4312
2006.54	4271
2008.62	4321
2010.7	4331
2012.779	4261
2014.858	4285
2016.934	4377
2019.013	4362
2021.09	4334
2023.165	4372
2025.241	4313
2027.317	4210
2029.39	4307
2031.466	4369
2033.538	4368
2035.612	4303
2037.683	4353
2039.755	4315
2041.827	4315
2043.898	4331
2045.968	4283
2048.038	4388
2050.106	4308
2052.177	4331
2054.244	4382
2056.313	4341
2058.379	4329
2060.444	4380
2062.511	4290
2064.577	4316
2066.641	4311
2068.705	4345
2070.77	4373
2072.832	4308
2074.896	4288
2076.958	4317
2079.02	4381
2081.081	4374
2083.141	4390
2085.2	4412
2087.261	4391
2089.319	4485
2091.377	4364
2093.435	4318
2095.492	4381
2097.552	4367
2099.607	4403
2101.663	4238
2103.718	4311
2105.771	4357
2107.826	4288
2109.879	4400
2111.932	4383
2113.985	4418
2116.037	4369
2118.088	4390
2120.141	4314
2122.191	4308
2124.239	4442
2126.288	4393
2128.337	4382
2130.387	4299
2132.434	4349
2134.481	4296
2136.528	4368
2138.574	4369
2140.618	4411
2142.665	4304
2144.71	4368
2146.753	4301
2148.797	4298
2150.838	4336
2152.883	4390
2154.923	4333
2156.965	4402
2159.007	4291
2161.046	4298
2163.086	4367
2165.126	4301
2167.163	4273
2169.202	4303
2171.239	4359
2173.277	4365
2175.314	4340
2177.349	4323
2179.385	4357
2181.42	4403
2183.453	4396
2185.49	4299
2187.522	4221
2189.555	4254
2191.586	4377
2193.619	4331
2195.651	4269
2197.682	4231
2199.711	4300
2201.74	4316
2203.769	4340
2205.799	4289
2207.828	4284
2209.855	4205
2211.882	4300
2213.908	4269
2215.934	4363
2217.961	4222
2219.986	4328
2222.01	4315
2224.034	4219
2226.057	4254
2228.08	4274
2230.104	4233
2232.124	4377
2234.145	4290
2236.166	4317
2238.186	4309
2240.207	4302
2242.227	4332
2244.244	4255
2246.262	4093
2248.28	4321
2250.299	4255
2252.314	4288
2254.33	4322
2256.346	4246
2258.36	4344
2260.375	4274
2262.391	4286
2264.403	4243
2266.416	4227
2268.427	4294
2270.44	4309
2272.453	4244
2274.463	4280
2276.474	4293
2278.483	4385
2280.493	4276
2282.501	4223
2284.51	4194
2286.518	4347
2288.524	4348
2290.532	4440
2292.537	4270
2294.544	4305
2296.55	4305
2298.554	4231
2300.557	4245
2302.562	4324
2304.566	4264
2306.568	4277
2308.569	4375
2310.572	4257
2312.573	4313
2314.573	4304
2316.574	4271
2318.573	4259
2320.571	4306
2322.571	4259
2324.569	4198
2326.567	4280
2328.564	4251
2330.56	4178
2332.556	4220
2334.551	4205
2336.546	4272
2338.542	4289
2340.535	4241
2342.529	4331
2344.521	4177
2346.512	4147
2348.505	4238
2350.497	4228
2352.487	4293
2354.478	4296
2356.468	4228
2358.457	4250
2360.446	4205
2362.434	4226
2364.422	4146
2366.408	4282
2368.395	4256
2370.383	4269
2372.369	4296
2374.353	4134
2376.338	4149
2378.321	4251
2380.307	4316
2382.29	4197
2384.272	4218
2386.254	4244
2388.235	4179
2390.218	4328
2392.198	4174
2394.179	4147
2396.157	4214
2398.137	4197
2400.115	4248
2402.095	4167
2404.072	4130
2406.048	4190
2408.026	4197
2410.001	4165
2411.977	4184
2413.953	4114
2415.927	4141
2417.9	4207
2419.875	4198
2421.847	4196
2423.821	4151
2425.792	4160
2427.763	4159
2429.736	4135
2431.706	4208
2433.677	4142
2435.646	4226
2437.615	4215
2439.583	4255
2441.551	4263
2443.519	4224
2445.486	4139
2447.452	4136
2449.418	4174
2451.383	4207
2453.348	4174
2455.314	4209
2457.278	4259
2459.241	4195
2461.205	4120
2463.167	4246
2465.131	4159
2467.091	4200
2469.052	4087
2471.012	4089
2472.972	4186
2474.932	4196
2476.891	4088
2478.85	4117
2480.808	4154
2482.766	4199
2484.722	4156
2486.68	4197
2488.636	4198
2490.591	4191
2492.546	4144
2494.5	4114
2496.456	4159
2498.41	4175
2500.362	4157
2502.315	4146
2504.266	4168
2506.218	4128
2508.169	4191
2510.121	4188
2512.07	4138
2514.019	4143
2515.968	4229
2517.918	4048
2519.866	4129
2521.813	4128
2523.76	4242
2525.707	4139
2527.653	4213
2529.599	4167
2531.543	4245
2533.489	4168
2535.433	4150
2537.376	4174
2539.32	4225
2541.264	4126
2543.205	4157
2545.147	4143
2547.087	4168
2549.029	4199
2550.969	4189
2552.908	4165
2554.847	4064
2556.786	4154
2558.724	4167
2560.663	4088
2562.6	4178
2564.537	4278
2566.473	4174
2568.408	4167
2570.345	4100
2572.28	4184
2574.214	4253
2576.148	4070
2578.081	4151
2580.014	4255
2581.947	4113
2583.879	4192
2585.81	4213
2587.741	4198
2589.67	4194
2591.602	4162
2593.532	4141
2595.461	4184
2597.388	4124
2599.316	4153
2601.244	4070
2603.172	4194
2605.098	4067
2607.023	4151
2608.949	4124
2610.873	4092
2612.8	4189
2614.723	4213
2616.647	4115
2618.569	4188
2620.493	4200
2622.416	4247
2624.338	4285
2626.258	4224
2628.179	4279
2630.099	4193
2632.019	4214
2633.939	4276
2635.857	4238
2637.775	4168
2639.694	4140
2641.61	4172
2643.528	4242
2645.444	4200
2647.361	4186
2649.276	4243
2651.19	4274
2653.105	4215
2655.019	4208
2656.934	4211
2658.846	4193
2660.758	4195
2662.67	4242
2664.583	4261
2666.493	4225
2668.404	4151
2670.313	4107
2672.223	4151
2674.134	4191
2676.042	4156
2677.95	4186
2679.858	4127
2681.765	4244
2683.673	4114
2685.579	4176
2687.483	4189
2689.389	4220
2691.294	4230
2693.198	4131
2695.104	4127
2697.006	4238
2698.909	4102
2700.811	4152
2702.713	4117
2704.615	4165
2706.516	4112
2708.417	4188
2710.316	4168
2712.216	4120
2714.115	4191
2716.014	4142
2717.913	4129
2719.81	4108
2721.707	4179
2723.603	4101
2725.501	4174
2727.396	4120
2729.292	4128
2731.186	4145
2733.081	4177
2734.976	4197
2736.87	4055
2738.762	4143
2740.653	4159
2742.546	4154
2744.437	4125
2746.329	4182
2748.22	4063
2750.11	4130
2751.999	4117
2753.889	4112
2755.778	4140
2757.666	4062
2759.553	4118
2761.44	4130
2763.328	4125
2765.215	4055
2767.101	4140
2768.986	4104
2770.87	4141
2772.754	4134
2774.638	4098
2776.523	4202
2778.405	4117
2780.288	4084
2782.17	4120
2784.051	4100
2785.934	4101
2787.814	4130
2789.694	4096
2791.574	4116
2793.453	4108
2795.332	4132
2797.212	4050
2799.088	4054
2800.966	4084
2802.843	4184
2804.719	4045
2806.597	4112
2808.471	4101
2810.346	4197
2812.221	4076
2814.094	4174
2815.969	4068
2817.843	4072
2819.714	4049
2821.587	4118
2823.459	4069
2825.329	4110
2827.202	4184
2829.072	4071
2830.942	4140
2832.811	4207
2834.68	4069
2836.549	4121
2838.418	4070
2840.284	4183
2842.152	4095
2844.018	4127
2845.885	4120
2847.751	4185
2849.616	4193
2851.482	4161
2853.345	4237
2855.208	4110
2857.074	4218
2858.937	4169
2860.799	4168
2862.66	4183
2864.522	4057
2866.385	4174
2868.245	4194
2870.104	4235
2871.964	4262
2873.824	4227
2875.683	4330
2877.542	4342
2879.4	4206
2881.257	4369
2883.114	4369
2884.97	4340
2886.827	4426
2888.683	4330
2890.537	4333
2892.392	4241
2894.246	4361
2896.1	4269
2897.954	4321
2899.807	4288
2901.66	4387
2903.51	4260
2905.362	4398
2907.214	4255
2909.065	4324
2910.915	4303
2912.765	4370
2914.613	4347
2916.463	4463
2918.311	4415
2920.158	4324
2922.006	4573
2923.853	4394
2925.698	4505
2927.546	4462
2929.392	4557
2931.236	4489
2933.081	4609
2934.924	4512
2936.77	4530
2938.613	4637
2940.455	4800
2942.298	4675
2944.139	4605
2945.982	4645
2947.823	4612
2949.662	4598
2951.503	4653
2953.342	4622
2955.182	4545
2957.021	4476
2958.858	4568
2960.697	4462
2962.534	4548
2964.37	4513
2966.207	4371
2968.044	4503
2969.879	4339
2971.714	4386
2973.548	4362
2975.383	4325
2977.218	4376
2979.051	4387
2980.883	4247
2982.715	4361
2984.547	4251
2986.379	4417
2988.21	4300
2990.04	4206
2991.87	4335
2993.7	4162
2995.53	4249
2997.359	4186
2999.187	4197
3001.015	4108
3002.842	4111
3004.669	4209
3006.497	4102
3008.323	4134
3010.148	4117
3011.974	4090
3013.797	4087
3015.623	4012
3017.447	4071
3019.27	4102
3021.094	4056
3022.915	3964
3024.737	3956
3026.56	4006
3028.38	4001
3030.201	3980
3032.022	3980
3033.84	3991
3035.662	3950
3037.481	3903
3039.298	3995
3041.117	3900
3042.933	3893
3044.752	3956
3046.568	3948
3048.385	3975
3050.2	4016
3052.016	3993
3053.83	3911
3055.646	3955
3057.46	3972
3059.272	3933
3061.086	3931
3062.898	4033
3064.711	3916
3066.524	3935
3068.335	3986
3070.145	3997
3071.956	3994
3073.766	3959
3075.576	3925
3077.385	3906
3079.193	3874
3081.002	3952
3082.81	3868
3084.618	3916
3086.425	3898
3088.231	3865
3090.036	3889
3091.842	3885
3093.648	3857
3095.452	3806
3097.257	3854
3099.06	3867
3100.863	3897
3102.666	3888
3104.47	3821
3106.272	3982
3108.073	3881
3109.875	3797
3111.676	3852
3113.477	3901
3115.277	3899
3117.077	3790
3118.874	3727
3120.673	3778
3122.473	3788
3124.271	3831
3126.066	3768
3127.863	3838
3129.66	3829
3131.456	3819
3133.252	3786
3135.047	3761
3136.842	3814
3138.635	3766
3140.429	3743
3142.223	3787
3144.016	3849
3145.808	3842
3147.6	3732
3149.392	3822
3151.183	3772
3152.975	3759
3154.765	3688
3156.553	3827
3158.344	3878
3160.132	3762
3161.922	3723
3163.71	3858
3165.497	3709
3167.285	3752
3169.071	3741
3170.858	3764
3172.645	3804
3174.429	3789
3176.214	3852
3177.998	3739
3179.783	3695
3181.568	3840
3183.351	3689
3185.133	3746
3186.915	3761
3188.698	3769
3190.481	3686
3192.261	3735
3194.042	3675
3195.822	3799
3197.601	3750
3199.381	3687
3201.161	3734
3202.939	3685
3204.717	3714
3206.495	3758
3208.272	3686
3210.05	3797
3211.826	3694
3213.602	3736
3215.376	3680
3217.151	3712
3218.927	3726
3220.702	3674
3222.476	3742
3224.249	3782
3226.021	3758
3227.793	3745
3229.567	3698
3231.339	3665
3233.109	3817
3234.88	3707
3236.651	3716
3238.421	3796
3240.191	3693
3241.96	3715
3243.728	3626
3245.497	3731
3247.263	3689
3249.033	3648
3250.799	3772
3252.566	3654
3254.331	3599
3256.097	3735
3257.863	3651
3259.628	3786
3261.392	3702
3263.156	3751
3264.919	3577
3266.683	3730
3268.447	3652
3270.208	3740
3271.969	3817
3273.731	3728
3275.492	3679
3277.253	3712
3279.013	3710
3280.773	3657
3282.532	3826
3284.291	3598
3286.05	3683
3287.808	3670
3289.566	3678
3291.323	3698
3293.079	3723
3294.835	3687
3296.593	3656
3298.348	3706
3300.102	3733
3301.857	3613
3303.611	3713
3305.366	3685
3307.119	3681
3308.872	3670
3310.624	3706
3312.376	3698
3314.129	3690
3315.881	3628
3317.631	3716
3319.38	3748
3321.13	3634
3322.88	3674
3324.631	3750
3326.379	3649
3328.126	3793
3329.875	3721
3331.622	3735
3333.371	3677
3335.116	3667
3336.863	3634
3338.609	3589
3340.353	3621
3342.1	3723
3343.845	3711
3345.588	3706
3347.332	3673
3349.074	3674
3350.817	3684
3352.56	3740
3354.303	3673
3356.043	3655
3357.785	3618
3359.525	3699
3361.268	3633
3363.007	3713
3364.745	3611
3366.485	3659
3368.223	3699
3369.962	3638
3371.701	3686
3373.438	3588
3375.174	3620
3376.911	3625
3378.647	3672
3380.384	3608
3382.118	3608
3383.854	3610
3385.588	3582
3387.322	3564
3389.057	3591
3390.79	3577
3392.522	3679
3394.255	3651
3395.987	3552
3397.719	3591
3399.451	3607
3401.181	3600
3402.911	3609
3404.641	3633
3406.371	3623
3408.101	3524
3409.83	3575
3411.558	3567
3413.285	3606
3415.011	3600
3416.739	3533
3418.467	3590
3420.193	3629
3421.919	3594
3423.644	3531
3425.368	3571
3427.094	3533
3428.818	3568
3430.542	3596
3432.264	3580
3433.987	3475
3435.712	3539
3437.434	3567
3439.155	3472
3440.876	3588
3442.596	3455
3444.317	3495
3446.039	3559
3447.757	3583
3449.477	3537
3451.195	3481
3452.914	3523
3454.632	3528
3456.35	3453
3458.067	3501
3459.784	3442
3461.5	3506
3463.216	3485
3464.932	3467
3466.647	3489
3468.362	3504
3470.076	3515
3471.789	3484
3473.505	3483
3475.217	3463
3476.929	3457
3478.641	3386
3480.354	3529
3482.066	3475
3483.777	3472
3485.487	3444
3487.197	3412
3488.908	3473
3490.617	3455
3492.327	3441
3494.035	3372
3495.743	3520
3497.451	3402
3499.158	3373
3500.866	3383
3502.572	3392
3504.278	3430
3505.984	3443
3507.689	3359
3509.396	3397
3511.1	3373
3512.804	3439
3514.508	3396
3516.211	3394
3517.913	3369
3519.616	3395
3521.319	3358
3523.021	3415
3524.722	3330
3526.422	3391
3528.124	3440
3529.824	3472
3531.524	3416
3533.222	3286
3534.921	3369
3536.62	3444
3538.318	3322
3540.016	3353
3541.714	3353
3543.41	3396
3545.107	3426
3546.803	3324
3548.5	3349
3550.194	3370
3551.889	3388
3553.583	3324
3555.279	3277
3556.972	3309
3558.666	3311
3560.358	3333
3562.051	3354
3563.742	3387
3565.435	3366
3567.126	3245
3568.817	3269
3570.507	3306
3572.197	3375
3573.888	3296
3575.577	3407
3577.265	3350
3578.954	3289
3580.642	3375
3582.329	3278
3584.017	3228
3585.704	3274
3587.391	3278
3589.077	3315
3590.762	3230
3592.449	3276
3594.133	3217
3595.817	3299
3597.501	3367
3599.185	3230
3600.869	3275
3602.552	3242
3604.234	3296
3605.916	3275
3607.598	3233
3609.279	3300
3610.961	3241
3612.642	3323
3614.321	3314
3616	3226
3617.68	3227
3619.36	3184
3621.039	3231
3622.716	3243
3624.394	3236
3626.071	3245
3627.748	3143
3629.425	3173
3631.102	3137
3632.778	3173
3634.452	3093
3636.127	3195
3637.803	3194
3639.477	3151
3641.151	3134
3642.823	3142
3644.497	3194
3646.171	3185
3647.842	3094
3649.515	3116
3651.185	3139
3652.857	3210
3654.527	3107
3656.198	3163
3657.868	3189
3659.537	3160
3661.207	3159
3662.875	3121
3664.544	3139
3666.212	3212
3667.879	3149
3669.546	3211
3671.212	3191
3672.88	3151
3674.546	3148
3676.211	3277
3677.875	3154
3679.541	3127
3681.205	3179
3682.87	3182
3684.533	3125
3686.196	3106
3687.859	3168
3689.521	3179
3691.184	3058
3692.845	3083
3694.507	3040
3696.167	3160
3697.827	3133
3699.487	3089
3701.148	3165
3702.808	3162
3704.466	3182
3706.125	3105
3707.783	3105
3709.442	3087
3711.099	3072
3712.757	3179
3714.412	3103
3716.068	3127
3717.725	3109
3719.381	3085
3721.036	3056
3722.689	3068
3724.344	3117
3725.998	3074
3727.652	3131
3729.305	2989
3730.958	3083
3732.61	3130
3734.262	3067
3735.915	3065
3737.565	3027
3739.217	3084
3740.866	3048
3742.516	3027
3744.165	3053
3745.816	3050
3747.464	3114
3749.113	3097
3750.761	3052
3752.409	3092
3754.057	3016
3755.703	3011
3757.35	2989
3758.996	3015
3760.641	3060
3762.289	3025
3763.933	3041
3765.577	3016
3767.222	3013
3768.865	2998
3770.508	2983
3772.152	3023
3773.796	2960
3775.438	3054
3777.079	3067
3778.721	3008
3780.363	3030
3782.003	3018
3783.643	3021
3785.283	2956
3786.923	2981
3788.563	2986
3790.203	3028
3791.841	2943
3793.479	2993
3795.115	2956
3796.753	3048
3798.391	3022
3800.027	2972
3801.664	2927
3803.299	2950
3804.935	2909
3806.571	3071
3808.206	3011
3809.839	2886
3811.473	2958
3813.107	2943
3814.74	2957
3816.375	2914
3818.006	2971
3819.638	2988
3821.27	3012
3822.9	2925
3824.532	2917
3826.163	2973
3827.792	2893
3829.423	2942
3831.051	2937
3832.682	2965
3834.311	2926
3835.938	2924
3837.566	2895
3839.193	2940
3840.821	2930
3842.448	2911
3844.075	2903
3845.7	2913
3847.325	2898
3848.951	2955
3850.576	2888
3852.201	2900
3853.825	2927
3855.448	2830
3857.072	2876
3858.694	2897
3860.318	2963
3861.939	2847
3863.562	2875
3865.183	2830
3866.804	2924
3868.426	2891
3870.045	2834
3871.666	2891
3873.285	2892
3874.904	2946
3876.524	2886
3878.142	2882
3879.76	2952
3881.378	2834
3882.995	2868
3884.612	2884
3886.229	2827
3887.845	2831
3889.461	2891
3891.076	2833
3892.691	2851
3894.307	2894
3895.922	2837
3897.536	2838
3899.149	2837
3900.761	2871
3902.374	2856
3903.988	2892
3905.6	2809
3907.212	2881
3908.822	2825
3910.433	2804
3912.045	2805
3913.655	2828
3915.265	2866
3916.875	2857
3918.483	2807
3920.093	2866
3921.702	2806
3923.309	2843
3924.917	2836
3926.523	2882
3928.13	2799
3929.739	2827
3931.344	2816
3932.95	2810
3934.555	2806
3936.159	2800
3937.766	2860
3939.369	2823
3940.974	2824
3942.577	2801
3944.181	2861
3945.783	2861
3947.386	2794
3948.989	2812
3950.59	2807
3952.191	2795
3953.791	2811
3955.394	2786
3956.994	2808
3958.593	2832
3960.192	2801
3961.791	2770
3963.392	2860
3964.99	2750
3966.588	2784
3968.185	2792
3969.782	2756
3971.379	2839
3972.976	2770
3974.572	2770
3976.168	2767
3977.763	2759
3979.358	2739
3980.954	2681
3982.548	2768
3984.142	2796
3985.736	2711
3987.329	2724
3988.922	2746
3990.516	2687
3992.108	2761
3993.698	2733
3995.29	2721
3996.881	2743
3998.473	2721
4000.064	2707
4001.653	2706
4003.242	2806
4004.832	2725
4006.422	2759
4008.01	2724
4009.598	2618
4011.186	2669
4012.773	2656
4014.36	2704
4015.947	2781
4017.534	2684
4019.119	2659
4020.705	2654
4022.291	2723
4023.876	2646
4025.461	2652
4027.044	2628
4028.627	2677
4030.211	2682
4031.795	2704
4033.378	2687
4034.96	2701
4036.542	2680
4038.124	2771
4039.704	2635
4041.286	2680
4042.867	2704
4044.447	2691
4046.026	2628
4047.606	2641
4049.187	2645
4050.765	2601
4052.343	2656
4053.92	2615
4055.498	2601
4057.076	2650
4058.654	2695
4060.23	2649
4061.806	2658
4063.381	2622
4064.957	2619
4066.533	2653
4068.107	2636
4069.682	2580
4071.256	2633
4072.829	2671
4074.404	2608
4075.977	2581
4077.549	2612
4079.121	2594
4080.693	2584
4082.265	2592
4083.836	2607
4085.407	2589
4086.977	2680
4088.547	2614
4090.117	2652
4091.687	2597
4093.256	2552
4094.825	2609
4096.392	2572
4097.96	2603
4099.528	2581
4101.097	2566
4102.663	2542
4104.229	2528
4105.795	2595
4107.361	2557
4108.928	2609
4110.493	2563
4112.058	2533
4113.621	2608
4115.186	2597
4116.75	2606
4118.313	2544
4119.876	2555
4121.438	2601
4123	2528
4124.562	2533
4126.125	2519
4127.686	2591
4129.246	2577
4130.807	2537
4132.367	2496
4133.927	2567
4135.486	2533
4137.046	2463
4138.604	2531
4140.162	2551
4141.72	2510
4143.279	2497
4144.836	2458
4146.393	2505
4147.949	2485
4149.505	2444
4151.062	2539
4152.617	2472
4154.172	2486
4155.727	2488
4157.281	2454
4158.836	2522
4160.39	2513
4161.943	2522
4163.496	2530
4165.048	2476
4166.601	2460
4168.154	2495
4169.706	2478
4171.257	2544
4172.808	2437
4174.358	2474
4175.909	2464
4177.458	2516
4179.008	2431
4180.558	2415
4182.106	2510
4183.655	2472
4185.204	2418
4186.751	2464
4188.298	2415
4189.845	2454
4191.392	2435
4192.939	2534
4194.485	2425
4196.031	2446
4197.576	2447
4199.121	2375
4200.666	2439
4202.211	2434
4203.754	2405
4205.298	2376
4206.84	2430
4208.384	2431
4209.927	2445
4211.47	2456
4213.011	2425
4214.552	2494
4216.094	2470
4217.635	2404
4219.175	2398
4220.716	2387
4222.255	2383
4223.793	2446
4225.335	2438
4226.873	2383
4228.411	2428
4229.948	2397
4231.486	2428
4233.024	2437
4234.562	2478
4236.098	2481
4237.634	2435
4239.169	2388
4240.705	2369
4242.241	2370
4243.776	2350
4245.31	2352
4246.844	2422
4248.378	2415
4249.911	2387
4251.445	2461
4252.978	2384
4254.51	2382
4256.042	2378
4257.574	2383
4259.107	2356
4260.638	2342
4262.169	2357
4263.699	2329
4265.228	2388
4266.759	2354
4268.289	2360
4269.818	2357
4271.345	2368
4272.874	2421
4274.402	2290
4275.931	2355
4277.458	2421
4278.985	2341
4280.512	2319
4282.037	2321
4283.564	2321
4285.089	2336
4286.615	2346
4288.139	2294
4289.664	2305
4291.187	2340
4292.712	2371
4294.235	2398
4295.759	2333
4297.281	2262
4298.804	2366
4300.327	2363
4301.849	2349
4303.37	2299
4304.891	2362
4306.412	2334
4307.933	2348
4309.453	2292
4310.973	2317
4312.492	2302
