398.1873	2706
400.7097	2715
403.2336	2642
405.7547	2669
408.2751	2672
410.7948	2621
413.3138	2755
415.83	2774
418.3497	2754
420.8666	2785
423.3829	2801
425.8985	2878
428.4133	2869
430.9275	2804
433.441	2862
435.9538	2846
438.4639	2901
440.9753	2849
443.4881	2860
445.9982	2937
448.5055	2836
451.0142	2966
453.5201	2852
456.0274	2883
458.5361	2920
461.04	2804
463.5453	2923
466.0478	2909
468.5517	2888
471.0549	2878
473.5574	2857
476.0572	2929
478.5584	2820
481.0568	2866
483.5545	2950
486.0557	2886
488.5521	2903
491.0478	3001
493.5449	2977
496.0392	2937
498.5349	2960
501.0299	2939
503.5222	2942
506.0139	2960
508.5048	2929
510.9991	2994
513.4887	2958
515.9777	2995
518.4659	3029
520.9534	2938
523.4403	3037
525.9306	3049
528.4161	3004
530.9009	3043
533.3851	2992
535.8687	2976
538.3535	2932
540.8356	3017
543.3171	2999
545.7979	2999
548.278	2984
550.7595	2936
553.2383	3059
555.7144	2950
558.1918	3020
560.6685	3017
563.1446	3057
565.6221	3076
568.0968	3089
570.5688	3025
573.0422	3061
575.515	3066
577.989	3116
580.4584	3101
582.9291	3061
585.3991	3093
587.8685	3114
590.3352	3102
592.8052	3142
595.2706	3104
597.7372	3015
600.2033	3051
602.6666	3163
605.1334	3042
607.5953	3081
610.0587	3096
612.5193	3044
614.9814	3099
617.4427	2963
619.9034	3125
622.3615	3091
624.8208	3053
627.2775	3066
629.7335	3073
632.1929	3024
634.6476	3060
637.1016	3121
639.5569	3087
642.0096	3124
644.4637	3089
646.9151	3033
649.3678	3133
651.8179	3123
654.2672	3058
656.7159	3135
659.166	3099
661.6154	3124
664.0622	3226
666.5082	3197
668.9537	3150
671.4005	3134
673.8445	3151
676.288	3173
678.7308	3188
681.1729	3236
683.6163	3211
686.0572	3113
688.4973	3255
690.9368	3192
693.3757	3249
695.8138	3239
698.2534	3209
700.6902	3133
703.1245	3199
705.56	3225
707.9949	3254
710.4311	3264
712.8647	3244
715.2957	3293
717.7279	3298
720.1595	3313
722.5905	3337
725.0208	3289
727.4505	3243
729.8795	3237
732.3058	3319
734.7336	3324
737.1626	3347
739.587	3334
742.0128	3318
744.4359	3326
746.8604	3360
749.2841	3372
751.7073	3358
754.1278	3403
756.5496	3407
758.9688	3388
761.3893	3372
763.8093	3401
766.2285	3411
768.6451	3382
771.0611	3460
773.4784	3376
775.895	3372
778.3091	3326
780.7244	3383
783.1371	3353
785.5493	3361
787.9626	3442
790.3754	3501
792.7856	3381
795.1951	3459
797.6039	3389
800.0121	3375
802.4236	3471
804.8306	3403
807.2369	3468
809.6425	3487
812.0475	3458
814.4538	3422
816.8575	3426
819.2606	3449
821.663	3434
824.0648	3460
826.4659	3466
828.8683	3409
831.2682	3462
833.6674	3471
836.066	3467
838.4639	3492
840.8632	3427
843.2579	3441
845.6539	3403
848.0493	3433
850.444	3536
852.84	3478
855.2315	3451
857.6243	3527
860.0165	3546
862.4081	3498
864.797	3525
867.1892	3501
869.5789	3454
871.9659	3509
874.3542	3513
876.74	3566
879.129	3486
881.5155	3492
883.8994	3565
886.2845	3482
888.6671	3513
891.051	3429
893.4343	3493
895.8169	3453
898.197	3513
900.5783	3503
902.9571	3566
905.3372	3463
907.7167	3527
910.0936	3566
912.4698	3493
914.8474	3622
917.2244	3551
919.5987	3604
921.9744	3599
924.3475	3590
926.72	3548
929.0918	3574
931.4669	3605
933.8375	3702
936.2074	3610
938.5767	3713
940.9454	3680
943.3154	3776
945.6829	3790
948.0497	3790
950.4178	3852
952.7833	3897
955.1483	3955
957.5145	4059
959.8782	4081
962.2412	4129
964.6036	4070
966.9655	3893
969.3266	3866
971.6871	3746
974.0471	3698
976.4064	3700
978.765	3709
981.125	3700
983.4824	3664
985.8373	3571
988.1935	3650
990.549	3621
992.9039	3640
995.2602	3647
997.6119	3598
999.965	3684
1002.317	3609
1004.667	3623
1007.02	3663
1009.371	3614
1011.719	3643
1014.068	3615
1016.415	3717
1018.765	3657
1021.111	3675
1023.458	3660
1025.804	3707
1028.147	3641
1030.49	3638
1032.837	3679
1035.179	3695
1037.522	3753
1039.862	3719
1042.204	3699
1044.546	3642
1046.884	3644
1049.224	3675
1051.562	3631
1053.899	3669
1056.237	3693
1058.575	3712
1060.91	3691
1063.244	3697
1065.58	3692
1067.913	3702
1070.248	3748
1072.579	3788
1074.911	3788
1077.242	3753
1079.572	3768
1081.905	3718
1084.234	3731
1086.562	3750
1088.89	3666
1091.217	3689
1093.544	3725
1095.871	3723
1098.197	3719
1100.521	3748
1102.845	3745
1105.169	3721
1107.491	3686
1109.814	3689
1112.135	3687
1114.456	3744
1116.776	3800
1119.096	3818
1121.415	3760
1123.734	3771
1126.052	3861
1128.369	3704
1130.686	3791
1133.002	3760
1135.318	3764
1137.632	3800
1139.945	3696
1142.258	3799
1144.573	3863
1146.884	3729
1149.196	3739
1151.505	3843
1153.816	3754
1156.124	3754
1158.435	3810
1160.742	3762
1163.051	3823
1165.356	3865
1167.663	3772
1169.97	3720
1172.276	3756
1174.579	3746
1176.881	3753
1179.186	3832
1181.487	3726
1183.79	3752
1186.092	3781
1188.392	3762
1190.691	3753
1192.991	3745
1195.291	3856
1197.588	3738
1199.885	3804
1202.181	3783
1204.479	3784
1206.775	3679
1209.07	3726
1211.363	3779
1213.656	3760
1215.949	3796
1218.241	3838
1220.534	3804
1222.825	3770
1225.115	3827
1227.405	3815
1229.693	3841
1231.984	3800
1234.271	3827
1236.558	3851
1238.845	3896
1241.131	3839
1243.416	3823
1245.703	3859
1247.987	3892
1250.269	3761
1252.552	4015
1254.834	3934
1257.118	3908
1259.399	3972
1261.678	3779
1263.958	3789
1266.237	3859
1268.516	3906
1270.794	3909
1273.072	3901
1275.347	3952
1277.624	3903
1279.899	3946
1282.175	3926
1284.449	3872
1286.722	3923
1288.995	3821
1291.266	3848
1293.54	3894
1295.81	3870
1298.081	3885
1300.35	3881
1302.62	3814
1304.889	3864
1307.156	3855
1309.425	3841
1311.69	3790
1313.957	3817
1316.222	3865
1318.488	3803
1320.751	3928
1323.016	3975
1325.278	3830
1327.54	3867
1329.803	3978
1332.065	3869
1334.325	3916
1336.584	3926
1338.843	3817
1341.101	3888
1343.36	3932
1345.617	3856
1347.876	3867
1350.131	3830
1352.387	3885
1354.643	3928
1356.897	3880
1359.151	3961
1361.403	3906
1363.656	3861
1365.909	3857
1368.16	3957
1370.409	3857
1372.659	3857
1374.909	3952
1377.157	3919
1379.407	3871
1381.655	3983
1383.9	3911
1386.147	3914
1388.393	3919
1390.64	3932
1392.885	3921
1395.127	3961
1397.37	3939
1399.614	3879
1401.854	3984
1404.098	3987
1406.339	3996
1408.578	4030
1410.818	4062
1413.056	3983
1415.297	3903
1417.533	4048
1419.771	4000
1422.006	3968
1424.243	4079
1426.479	4065
1428.715	3928
1430.948	4049
1433.182	4128
1435.414	3941
1437.647	3989
1439.88	4060
1442.11	4066
1444.342	3868
1446.571	4039
1448.799	4100
1451.029	4117
1453.258	4101
1455.485	4032
1457.711	4041
1459.937	4044
1462.164	4108
1464.39	4130
1466.614	3981
1468.838	4000
1471.06	4061
1473.283	4017
1475.506	4015
1477.727	3967
1479.949	4062
1482.169	4009
1484.389	3962
1486.609	4015
1488.828	4014
1491.045	4055
1493.261	3951
1495.477	3959
1497.693	3928
1499.91	3928
1502.125	4042
1504.339	3947
1506.553	3940
1508.766	3942
1510.979	3926
1513.191	3995
1515.402	3969
1517.613	4030
1519.823	4033
1522.033	4040
1524.242	3959
1526.451	4008
1528.657	3983
1530.865	4030
1533.072	4059
1535.278	3898
1537.484	4083
1539.687	3936
1541.892	3968
1544.096	4078
1546.299	3905
1548.502	3926
1550.703	4128
1552.905	4018
1555.104	4022
1557.303	4011
1559.505	4035
1561.703	3976
1563.902	4004
1566.099	4085
1568.295	4110
1570.494	4020
1572.689	4038
1574.883	4079
1577.079	4115
1579.272	4112
1581.467	4135
1583.659	4044
1585.853	4051
1588.044	4167
1590.234	4131
1592.424	4108
1594.615	4149
1596.806	4079
1598.994	4132
1601.182	4123
1603.369	4078
1605.557	4095
1607.744	4182
1609.929	4064
1612.114	4094
1614.298	4123
1616.482	4047
1618.667	4113
1620.85	4097
1623.032	4116
1625.214	4193
1627.395	4126
1629.575	4120
1631.755	4099
1633.935	4213
1636.114	4041
1638.292	4094
1640.471	4119
1642.647	4076
1644.823	4204
1647	4146
1649.175	4216
1651.348	4202
1653.525	4162
1655.698	4148
1657.87	4155
1660.043	4211
1662.213	4229
1664.387	4193
1666.558	4088
1668.727	4195
1670.896	4184
1673.064	4229
1675.233	4267
1677.401	4137
1679.569	4195
1681.735	4240
1683.902	4138
1686.066	4079
1688.233	4115
1690.397	4028
1692.559	4162
1694.723	4146
1696.885	4119
1699.048	4078
1701.21	4159
1703.37	4103
1705.53	4090
1707.689	4158
1709.849	4119
1712.009	4207
1714.166	4163
1716.323	4149
1718.479	4092
1720.634	4129
1722.793	4191
1724.948	4115
1727.102	4252
1729.255	4099
1731.408	4129
1733.562	4125
1735.714	4169
1737.865	4096
1740.016	4149
1742.166	4189
1744.316	4147
1746.467	4046
1748.616	4156
1750.764	4104
1752.911	4075
1755.056	4141
1757.205	4186
1759.35	4076
1761.496	4050
1763.641	4111
1765.785	4234
1767.927	4203
1770.072	4123
1772.214	4134
1774.355	4239
1776.496	4176
1778.637	4186
1780.778	4142
1782.918	4287
1785.057	4210
1787.194	4100
1789.333	4222
1791.472	4152
1793.608	4233
1795.745	4158
1797.879	4236
1800.015	4219
1802.148	4224
1804.284	4193
1806.417	4238
1808.548	4141
1810.682	4194
1812.812	4214
1814.946	4192
1817.075	4229
1819.205	4309
1821.335	4233
1823.463	4231
1825.59	4183
1827.721	4207
1829.847	4293
1831.973	4146
1834.098	4241
1836.223	4160
1838.351	4147
1840.475	4240
1842.598	4198
1844.721	4200
1846.843	4163
1848.966	4176
1851.087	4171
1853.21	4144
1855.33	4180
1857.449	4141
1859.568	4165
1861.688	4101
1863.806	4216
1865.924	4250
1868.039	4125
1870.155	4138
1872.273	4194
1874.388	4222
1876.503	4203
1878.617	4150
1880.73	4159
1882.844	4233
1884.956	4210
1887.068	4212
1889.18	4121
1891.291	4159
1893.4	4130
1895.511	4197
1897.621	4189
1899.73	4200
1901.837	4216
1903.944	4275
1906.053	4329
1908.159	4222
1910.265	4220
1912.369	4211
1914.474	4270
1916.577	4244
1918.683	4186
1920.785	4169
1922.888	4269
1924.989	4249
1927.091	4322
1929.193	4226
1931.294	4242
1933.393	4252
1935.493	4276
1937.59	4364
1939.689	4339
1941.788	4275
1943.884	4248
1945.98	4297
1948.077	4306
1950.171	4252
1952.267	4250
1954.361	4287
1956.455	4285
1958.548	4269
1960.64	4196
1962.733	4230
1964.824	4354
1966.915	4231
1969.005	4151
1971.096	4228
1973.185	4296
1975.275	4170
1977.363	4248
1979.45	4229
1981.537	4187
1983.623	4197
1985.711	4217
1987.796	4210
1989.881	4247
1991.965	4217
1994.047	4238
1996.132	4236
1998.215	4174
2000.297	4330
2002.378	4291
2004.46	4215
2006.54	4250
2008.62	4185
2010.7	4221
2012.779	4297
2014.858	4305
2016.934	4309
2019.013	4224
2021.09	4192
2023.165	4206
2025.241	4374
2027.317	4156
2029.39	4248
2031.466	4165
2033.538	4313
2035.612	4222
2037.683	4237
2039.755	4215
2041.827	4243
2043.898	4317
2045.968	4235
2048.038	4186
2050.106	4159
2052.177	4224
2054.244	4280
2056.313	4210
2058.379	4179
2060.444	4215
2062.511	4241
2064.577	4226
2066.641	4298
2068.705	4245
2070.77	4290
2072.832	4373
2074.896	4266
2076.958	4238
2079.02	4176
2081.081	4303
2083.141	4332
2085.2	4214
2087.261	4294
2089.319	4255
2091.377	4287
2093.435	4347
2095.492	4260
2097.552	4213
2099.607	4327
2101.663	4233
2103.718	4283
2105.771	4230
2107.826	4314
2109.879	4260
2111.932	4308
2113.985	4272
2116.037	4301
2118.088	4242
2120.141	4248
2122.191	4239
2124.239	4272
2126.288	4307
2128.337	4206
2130.387	4267
2132.434	4251
2134.481	4272
2136.528	4270
2138.574	4239
2140.618	4235
2142.665	4179
2144.71	4232
2146.753	4277
2148.797	4217
2150.838	4261
2152.883	4223
2154.923	4262
2156.965	4282
2159.007	4231
2161.046	4177
2163.086	4214
2165.126	4290
2167.163	4231
2169.202	4220
2171.239	4154
2173.277	4181
2175.314	4323
2177.349	4243
2179.385	4199
2181.42	4279
2183.453	4270
2185.49	4264
2187.522	4173
2189.555	4225
2191.586	4264
2193.619	4184
2195.651	4185
2197.682	4131
2199.711	4219
2201.74	4197
2203.769	4269
2205.799	4160
2207.828	4186
2209.855	4169
2211.882	4209
2213.908	4194
2215.934	4288
2217.961	4111
2219.986	4250
2222.01	4178
2224.034	4145
2226.057	4189
2228.08	4145
2230.104	4133
2232.124	4290
2234.145	4216
2236.166	4215
2238.186	4203
2240.207	4154
2242.227	4166
2244.244	4168
2246.262	4239
2248.28	4196
2250.299	4227
2252.314	4182
2254.33	4191
2256.346	4195
2258.36	4193
2260.375	4115
2262.391	4224
2264.403	4197
2266.416	4230
2268.427	4142
2270.44	4179
2272.453	4225
2274.463	4231
2276.474	4212
2278.483	4159
2280.493	4184
2282.501	4183
2284.51	4215
2286.518	4213
2288.524	4202
2290.532	4231
2292.537	4175
2294.544	4171
2296.55	4210
2298.554	4335
2300.557	4160
2302.562	4196
2304.566	4205
2306.568	4226
2308.569	4162
2310.572	4177
2312.573	4214
2314.573	4154
2316.574	4214
2318.573	4143
2320.571	4132
2322.571	4246
2324.569	4174
2326.567	4187
2328.564	4247
2330.56	4141
2332.556	4305
2334.551	4175
2336.546	4199
2338.542	4233
2340.535	4103
2342.529	4175
2344.521	4176
2346.512	4227
2348.505	4169
2350.497	4213
2352.487	4188
2354.478	4120
2356.468	4174
2358.457	4115
2360.446	4216
2362.434	4088
2364.422	4158
2366.408	4141
2368.395	4132
2370.383	4148
2372.369	4084
2374.353	4188
2376.338	4097
2378.321	4168
2380.307	4116
2382.29	4060
2384.272	4122
2386.254	4056
2388.235	4138
2390.218	4079
2392.198	4166
2394.179	4147
2396.157	4082
2398.137	4198
2400.115	4048
2402.095	4111
2404.072	4193
2406.048	4170
2408.026	4180
2410.001	4135
2411.977	4107
2413.953	4128
2415.927	3986
2417.9	4243
2419.875	4107
2421.847	4137
2423.821	4131
2425.792	4107
2427.763	4158
2429.736	4149
2431.706	4059
2433.677	4150
2435.646	4093
2437.615	4158
2439.583	4175
2441.551	4103
2443.519	4057
2445.486	4193
2447.452	4135
2449.418	4070
2451.383	4148
2453.348	4121
2455.314	4164
2457.278	4191
2459.241	4091
2461.205	4045
2463.167	4036
2465.131	4069
2467.091	4076
2469.052	4073
2471.012	4072
2472.972	4017
2474.932	4151
2476.891	4113
2478.85	4054
2480.808	4151
2482.766	4121
2484.722	4048
2486.68	4097
2488.636	4166
2490.591	4144
2492.546	4052
2494.5	4115
2496.456	4123
2498.41	4088
2500.362	4134
2502.315	4022
2504.266	4087
2506.218	4071
2508.169	4087
2510.121	4071
2512.07	4180
2514.019	4078
2515.968	4135
2517.918	4042
2519.866	4096
2521.813	4092
2523.76	4118
2525.707	4007
2527.653	4023
2529.599	4031
2531.543	4078
2533.489	4092
2535.433	4038
2537.376	4071
2539.32	4124
2541.264	3994
2543.205	4141
2545.147	4042
2547.087	3977
2549.029	4044
2550.969	4117
2552.908	4049
2554.847	4111
2556.786	4092
2558.724	4089
2560.663	4077
2562.6	4101
2564.537	4096
2566.473	3963
2568.408	4015
2570.345	4062
2572.28	4133
2574.214	4054
2576.148	4050
2578.081	4003
2580.014	4037
2581.947	4058
2583.879	4129
2585.81	4044
2587.741	4102
2589.67	4094
2591.602	4101
2593.532	4068
2595.461	4109
2597.388	4134
2599.316	4031
2601.244	4030
2603.172	4118
2605.098	4092
2607.023	4107
2608.949	3970
2610.873	4036
2612.8	4059
2614.723	4045
2616.647	4060
2618.569	4104
2620.493	4072
2622.416	4083
2624.338	4129
2626.258	4128
2628.179	4121
2630.099	4016
2632.019	3991
2633.939	4131
2635.857	4092
2637.775	4152
2639.694	4091
2641.61	4125
2643.528	4215
2645.444	3990
2647.361	3999
2649.276	4099
2651.19	4135
2653.105	4096
2655.019	4130
2656.934	4111
2658.846	4105
2660.758	4100
2662.67	4077
2664.583	4090
2666.493	4095
2668.404	4085
2670.313	4005
2672.223	4053
2674.134	4123
2676.042	4102
2677.95	4086
2679.858	4023
2681.765	4162
2683.673	4033
2685.579	4149
2687.483	4110
2689.389	4093
2691.294	4052
2693.198	4085
2695.104	3994
2697.006	4113
2698.909	4026
2700.811	4102
2702.713	4076
2704.615	4140
2706.516	4064
2708.417	4115
2710.316	4091
2712.216	4025
2714.115	4078
2716.014	4149
2717.913	4098
2719.81	4062
2721.707	4022
2723.603	4031
2725.501	4000
2727.396	4010
2729.292	3995
2731.186	3995
2733.081	4055
2734.976	3907
2736.87	4008
2738.762	3955
2740.653	4004
2742.546	3984
2744.437	4059
2746.329	3991
2748.22	4017
2750.11	4013
2751.999	3991
2753.889	4032
2755.778	4007
2757.666	4001
2759.553	4025
2761.44	4084
2763.328	3989
2765.215	3958
2767.101	3961
2768.986	3964
2770.87	3918
2772.754	4010
2774.638	3996
2776.523	3913
2778.405	3950
2780.288	4052
2782.17	3927
2784.051	3919
2785.934	3935
2787.814	4000
2789.694	4015
2791.574	3962
2793.453	3990
2795.332	3929
2797.212	4034
2799.088	3961
2800.966	3985
2802.843	3886
2804.719	3941
2806.597	3918
2808.471	3976
2810.346	3997
2812.221	3953
2814.094	4025
2815.969	3941
2817.843	3884
2819.714	3978
2821.587	3903
2823.459	4009
2825.329	3966
2827.202	4029
2829.072	4062
2830.942	3975
2832.811	3991
2834.68	3959
2836.549	3937
2838.418	3931
2840.284	3913
2842.152	3984
2844.018	4073
2845.885	4037
2847.751	4009
2849.616	3993
2851.482	3982
2853.345	4000
2855.208	4027
2857.074	4013
2858.937	4018
2860.799	3983
2862.66	4008
2864.522	4026
2866.385	3997
2868.245	4078
2870.104	4083
2871.964	3981
2873.824	4074
2875.683	4090
2877.542	3987
2879.4	4133
2881.257	4134
2883.114	4125
2884.97	4154
2886.827	4133
2888.683	4125
2890.537	4048
2892.392	4154
2894.246	4132
2896.1	4113
2897.954	4187
2899.807	4171
2901.66	4131
2903.51	4110
2905.362	4156
2907.214	4095
2909.065	4129
2910.915	4125
2912.765	4163
2914.613	4082
2916.463	4104
2918.311	4114
2920.158	4139
2922.006	4158
2923.853	4247
2925.698	4261
2927.546	4211
2929.392	4235
2931.236	4138
2933.081	4287
2934.924	4290
2936.77	4281
2938.613	4274
2940.455	4391
2942.298	4309
2944.139	4355
2945.982	4355
2947.823	4327
2949.662	4325
2951.503	4299
2953.342	4231
2955.182	4242
2957.021	4241
2958.858	4123
2960.697	4133
2962.534	4206
2964.37	4206
2966.207	4192
2968.044	4122
2969.879	4102
2971.714	4073
2973.548	4018
2975.383	4095
2977.218	4122
2979.051	4066
2980.883	4008
2982.715	4005
2984.547	4150
2986.379	4012
2988.21	4036
2990.04	3982
2991.87	3992
2993.7	3942
2995.53	3945
2997.359	3952
2999.187	3901
3001.015	3928
3002.842	3961
3004.669	3912
3006.497	3834
3008.323	3836
3010.148	3871
3011.974	3885
3013.797	3865
3015.623	3795
3017.447	3822
3019.27	3836
3021.094	3892
3022.915	3766
3024.737	3818
3026.56	3809
3028.38	3845
3030.201	3821
3032.022	3849
3033.84	3763
3035.662	3791
3037.481	3782
3039.298	3758
3041.117	3761
3042.933	3756
3044.752	3736
3046.568	3811
3048.385	3786
3050.2	3735
3052.016	3756
3053.83	3721
3055.646	3858
3057.46	3790
3059.272	3817
3061.086	3712
3062.898	3853
3064.711	3684
3066.524	3807
3068.335	3730
3070.145	3800
3071.956	3728
3073.766	3759
3075.576	3759
3077.385	3728
3079.193	3674
3081.002	3700
3082.81	3718
3084.618	3703
3086.425	3754
3088.231	3663
3090.036	3657
3091.842	3793
3093.648	3630
3095.452	3695
3097.257	3772
3099.06	3696
3100.863	3734
3102.666	3671
3104.47	3669
3106.272	3621
3108.073	3671
3109.875	3656
3111.676	3602
3113.477	3545
3115.277	3602
3117.077	3587
3118.874	3675
3120.673	3634
3122.473	3672
3124.271	3666
3126.066	3652
3127.863	3512
3129.66	3693
3131.456	3576
3133.252	3639
3135.047	3611
3136.842	3560
3138.635	3630
3140.429	3576
3142.223	3590
3144.016	3604
3145.808	3673
3147.6	3565
3149.392	3602
3151.183	3659
3152.975	3660
3154.765	3628
3156.553	3543
3158.344	3567
3160.132	3559
3161.922	3631
3163.71	3573
3165.497	3513
3167.285	3519
3169.071	3490
3170.858	3598
3172.645	3532
3174.429	3622
3176.214	3524
3177.998	3575
3179.783	3583
3181.568	3626
3183.351	3609
3185.133	3534
3186.915	3590
3188.698	3550
3190.481	3518
3192.261	3570
3194.042	3545
3195.822	3527
3197.601	3601
3199.381	3494
3201.161	3525
3202.939	3465
3204.717	3617
3206.495	3480
3208.272	3510
3210.05	3468
3211.826	3576
3213.602	3582
3215.376	3549
3217.151	3523
3218.927	3521
3220.702	3452
3222.476	3420
3224.249	3481
3226.021	3519
3227.793	3486
3229.567	3445
3231.339	3492
3233.109	3516
3234.88	3440
3236.651	3513
3238.421	3446
3240.191	3441
3241.96	3529
3243.728	3521
3245.497	3475
3247.263	3455
3249.033	3568
3250.799	3590
3252.566	3451
3254.331	3488
3256.097	3473
3257.863	3501
3259.628	3492
3261.392	3513
3263.156	3526
3264.919	3439
3266.683	3468
3268.447	3475
3270.208	3478
3271.969	3453
3273.731	3480
3275.492	3534
3277.253	3412
3279.013	3461
3280.773	3435
3282.532	3488
3284.291	3417
3286.05	3529
3287.808	3495
3289.566	3507
3291.323	3461
3293.079	3538
3294.835	3502
3296.593	3420
3298.348	3499
3300.102	3478
3301.857	3440
3303.611	3354
3305.366	3482
3307.119	3453
3308.872	3485
3310.624	3449
3312.376	3493
3314.129	3466
3315.881	3460
3317.631	3401
3319.38	3498
3321.13	3514
3322.88	3459
3324.631	3344
3326.379	3433
3328.126	3464
3329.875	3435
3331.622	3446
3333.371	3458
3335.116	3428
3336.863	3470
3338.609	3441
3340.353	3497
3342.1	3481
3343.845	3490
3345.588	3485
3347.332	3450
3349.074	3412
3350.817	3436
3352.56	3409
3354.303	3462
3356.043	3422
3357.785	3470
3359.525	3481
3361.268	3510
3363.007	3382
3364.745	3477
3366.485	3382
3368.223	3452
3369.962	3410
3371.701	3358
3373.438	3361
3375.174	3417
3376.911	3437
3378.647	3438
3380.384	3414
3382.118	3418
3383.854	3405
3385.588	3463
3387.322	3367
3389.057	3387
3390.79	3372
3392.522	3337
3394.255	3310
3395.987	3371
3397.719	3373
3399.451	3403
3401.181	3386
3402.911	3373
3404.641	3332
3406.371	3318
3408.101	3331
3409.83	3364
3411.558	3286
3413.285	3320
3415.011	3332
3416.739	3327
3418.467	3329
3420.193	3361
3421.919	3412
3423.644	3317
3425.368	3309
3427.094	3312
3428.818	3256
3430.542	3352
3432.264	3341
3433.987	3350
3435.712	3379
3437.434	3365
3439.155	3385
3440.876	3392
3442.596	3271
3444.317	3277
3446.039	3346
3447.757	3217
3449.477	3261
3451.195	3314
3452.914	3379
3454.632	3310
3456.35	3338
3458.067	3261
3459.784	3280
3461.5	3315
3463.216	3225
3464.932	3302
3466.647	3349
3468.362	3342
3470.076	3288
3471.789	3304
3473.505	3323
3475.217	3275
3476.929	3213
3478.641	3272
3480.354	3274
3482.066	3226
3483.777	3238
3485.487	3229
3487.197	3240
3488.908	3239
3490.617	3232
3492.327	3232
3494.035	3154
3495.743	3201
3497.451	3201
3499.158	3161
3500.866	3226
3502.572	3225
3504.278	3228
3505.984	3205
3507.689	3191
3509.396	3257
3511.1	3205
3512.804	3119
3514.508	3173
3516.211	3241
3517.913	3243
3519.616	3208
3521.319	3166
3523.021	3187
3524.722	3169
3526.422	3153
3528.124	3113
3529.824	3155
3531.524	3208
3533.222	3097
3534.921	3164
3536.62	3132
3538.318	3143
3540.016	3128
3541.714	3157
3543.41	3206
3545.107	3177
3546.803	3185
3548.5	3120
3550.194	3074
3551.889	3134
3553.583	3173
3555.279	3231
3556.972	3098
3558.666	3142
3560.358	3090
3562.051	3189
3563.742	3147
3565.435	3169
3567.126	3170
3568.817	3153
3570.507	3090
3572.197	3157
3573.888	3061
3575.577	3121
3577.265	3092
3578.954	3071
3580.642	3098
3582.329	3092
3584.017	3121
3585.704	3077
3587.391	3058
3589.077	3198
3590.762	3071
3592.449	3132
3594.133	3098
3595.817	3127
3597.501	2985
3599.185	3069
3600.869	3032
3602.552	3112
3604.234	3143
3605.916	3088
3607.598	2983
3609.279	3073
3610.961	3047
3612.642	3025
3614.321	2996
3616	3056
3617.68	3013
3619.36	3032
3621.039	3048
3622.716	3050
3624.394	3090
3626.071	2967
3627.748	3006
3629.425	2936
3631.102	3015
3632.778	2992
3634.452	3036
3636.127	3015
3637.803	2967
3639.477	3029
3641.151	3033
3642.823	2904
3644.497	3036
3646.171	3039
3647.842	2952
3649.515	2958
3651.185	2973
3652.857	3018
3654.527	2953
3656.198	3009
3657.868	2979
3659.537	2907
3661.207	3026
3662.875	2950
3664.544	3004
3666.212	2973
3667.879	3015
3669.546	2940
3671.212	2906
3672.88	2976
3674.546	2904
3676.211	2935
3677.875	2992
3679.541	2908
3681.205	3060
3682.87	2992
3684.533	2896
3686.196	2825
3687.859	3017
3689.521	2944
3691.184	3004
3692.845	2931
3694.507	2928
3696.167	2974
3697.827	2926
3699.487	2962
3701.148	2987
3702.808	2985
3704.466	2945
3706.125	2880
3707.783	2936
3709.442	2982
3711.099	2923
3712.757	2898
3714.412	2971
3716.068	2830
3717.725	2909
3719.381	2962
3721.036	2871
3722.689	2877
3724.344	2989
3725.998	2901
3727.652	2911
3729.305	2956
3730.958	2859
3732.61	2903
3734.262	2904
3735.915	2902
3737.565	2878
3739.217	2853
3740.866	2895
3742.516	2891
3744.165	2870
3745.816	2855
3747.464	2859
3749.113	2914
3750.761	2878
3752.409	2820
3754.057	2876
3755.703	2916
3757.35	2968
3758.996	2873
3760.641	2853
3762.289	2800
3763.933	2884
3765.577	2893
3767.222	2846
3768.865	2838
3770.508	2803
3772.152	2930
3773.796	2878
3775.438	2843
3777.079	2897
3778.721	2830
3780.363	2776
3782.003	2848
3783.643	2880
3785.283	2826
3786.923	2811
3788.563	2769
3790.203	2804
3791.841	2854
3793.479	2771
3795.115	2778
3796.753	2851
3798.391	2809
3800.027	2822
3801.664	2773
3803.299	2772
3804.935	2805
3806.571	2763
3808.206	2719
3809.839	2754
3811.473	2810
3813.107	2849
3814.74	2764
3816.375	2838
3818.006	2800
3819.638	2757
3821.27	2789
3822.9	2794
3824.532	2806
3826.163	2782
3827.792	2809
3829.423	2734
3831.051	2754
3832.682	2757
3834.311	2749
3835.938	2721
3837.566	2691
3839.193	2776
3840.821	2766
3842.448	2763
3844.075	2853
3845.7	2775
3847.325	2663
3848.951	2772
3850.576	2732
3852.201	2704
3853.825	2680
3855.448	2703
3857.072	2816
3858.694	2701
3860.318	2664
3861.939	2711
3863.562	2723
3865.183	2758
3866.804	2728
3868.426	2703
3870.045	2728
3871.666	2708
3873.285	2701
3874.904	2734
3876.524	2733
3878.142	2644
3879.76	2739
3881.378	2766
3882.995	2719
3884.612	2736
3886.229	2665
3887.845	2666
3889.461	2690
3891.076	2669
3892.691	2611
3894.307	2761
3895.922	2700
3897.536	2645
3899.149	2580
3900.761	2684
3902.374	2664
3903.988	2666
3905.6	2635
3907.212	2694
3908.822	2709
3910.433	2712
3912.045	2596
3913.655	2678
3915.265	2647
3916.875	2632
3918.483	2625
3920.093	2668
3921.702	2654
3923.309	2707
3924.917	2623
3926.523	2727
3928.13	2690
3929.739	2728
3931.344	2674
3932.95	2650
3934.555	2697
3936.159	2653
3937.766	2628
3939.369	2633
3940.974	2653
3942.577	2643
3944.181	2681
3945.783	2610
3947.386	2591
3948.989	2611
3950.59	2578
3952.191	2614
3953.791	2643
3955.394	2569
3956.994	2534
3958.593	2622
3960.192	2650
3961.791	2693
3963.392	2610
3964.99	2618
3966.588	2613
3968.185	2539
3969.782	2601
3971.379	2527
3972.976	2647
3974.572	2604
3976.168	2573
3977.763	2599
3979.358	2551
3980.954	2631
3982.548	2558
3984.142	2581
3985.736	2525
3987.329	2614
3988.922	2629
3990.516	2583
3992.108	2577
3993.698	2528
3995.29	2584
3996.881	2554
3998.473	2512
4000.064	2570
4001.653	2476
4003.242	2573
4004.832	2576
4006.422	2554
4008.01	2562
4009.598	2518
4011.186	2489
4012.773	2523
4014.36	2509
4015.947	2578
4017.534	2532
4019.119	2526
4020.705	2511
4022.291	2504
4023.876	2508
4025.461	2475
4027.044	2488
4028.627	2512
4030.211	2556
4031.795	2499
4033.378	2539
4034.96	2483
4036.542	2449
4038.124	2464
4039.704	2434
4041.286	2445
4042.867	2444
4044.447	2449
4046.026	2441
4047.606	2465
4049.187	2453
4050.765	2448
4052.343	2443
4053.92	2493
4055.498	2483
4057.076	2433
4058.654	2497
4060.23	2465
4061.806	2463
4063.381	2458
4064.957	2459
4066.533	2460
4068.107	2470
4069.682	2437
4071.256	2385
4072.829	2426
4074.404	2396
4075.977	2428
4077.549	2428
4079.121	2461
4080.693	2404
4082.265	2461
4083.836	2460
4085.407	2363
4086.977	2405
4088.547	2433
4090.117	2441
4091.687	2429
4093.256	2434
4094.825	2426
4096.392	2436
4097.96	2427
4099.528	2418
4101.097	2379
4102.663	2389
4104.229	2440
4105.795	2425
4107.361	2382
4108.928	2449
4110.493	2388
4112.058	2409
4113.621	2445
4115.186	2385
4116.75	2360
4118.313	2331
4119.876	2385
4121.438	2377
4123	2337
4124.562	2364
4126.125	2366
4127.686	2360
4129.246	2442
4130.807	2345
4132.367	2372
4133.927	2327
4135.486	2394
4137.046	2337
4138.604	2316
4140.162	2316
4141.72	2313
4143.279	2312
4144.836	2279
4146.393	2295
4147.949	2326
4149.505	2358
4151.062	2315
4152.617	2349
4154.172	2351
4155.727	2361
4157.281	2267
4158.836	2301
4160.39	2278
4161.943	2386
4163.496	2304
4165.048	2399
4166.601	2305
4168.154	2280
4169.706	2303
4171.257	2324
4172.808	2261
4174.358	2232
4175.909	2322
4177.458	2327
4179.008	2274
4180.558	2293
4182.106	2383
4183.655	2323
4185.204	2212
4186.751	2271
4188.298	2227
4189.845	2327
4191.392	2258
4192.939	2232
4194.485	2287
4196.031	2239
4197.576	2292
4199.121	2262
4200.666	2269
4202.211	2327
4203.754	2243
4205.298	2307
4206.84	2268
4208.384	2199
4209.927	2238
4211.47	2206
4213.011	2239
4214.552	2220
4216.094	2214
4217.635	2265
4219.175	2197
4220.716	2245
4222.255	2228
4223.793	2208
4225.335	2243
4226.873	2207
4228.411	2214
4229.948	2222
4231.486	2191
4233.024	2185
4234.562	2188
4236.098	2220
4237.634	2230
4239.169	2158
4240.705	2198
4242.241	2229
4243.776	2149
4245.31	2227
4246.844	2185
4248.378	2164
4249.911	2162
4251.445	2176
4252.978	2268
4254.51	2182
4256.042	2238
4257.574	2173
4259.107	2206
4260.638	2126
4262.169	2140
4263.699	2183
4265.228	2181
4266.759	2214
4268.289	2181
4269.818	2152
4271.345	2186
4272.874	2130
4274.402	2194
4275.931	2163
4277.458	2173
4278.985	2192
4280.512	2143
4282.037	2158
4283.564	2162
4285.089	2202
4286.615	2238
4288.139	2197
4289.664	2096
4291.187	2180
4292.712	2162
4294.235	2141
4295.759	2173
4297.281	2163
4298.804	2214
4300.327	2159
4301.849	2105
4303.37	2132
4304.891	2091
4306.412	2180
4307.933	2142
4309.453	2091
4310.973	2136
4312.492	2121
