398.1873	7166
400.7097	7054
403.2336	7257
405.7547	7112
408.2751	7121
410.7948	7356
413.3138	7259
415.83	7235
418.3497	7340
420.8666	7491
423.3829	7469
425.8985	7503
428.4133	7634
430.9275	7658
433.441	7643
435.9538	7670
438.4639	7650
440.9753	7819
443.4881	7728
445.9982	7638
448.5055	7853
451.0142	7660
453.5201	7678
456.0274	7657
458.5361	7704
461.04	7777
463.5453	7597
466.0478	7770
468.5517	7746
471.0549	7638
473.5574	7734
476.0572	7716
478.5584	7809
481.0568	7770
483.5545	7935
486.0557	7889
488.5521	7755
491.0478	7830
493.5449	7977
496.0392	7953
498.5349	7980
501.0299	7804
503.5222	8025
506.0139	7971
508.5048	7930
510.9991	7942
513.4887	8024
515.9777	8065
518.4659	8108
520.9534	8037
523.4403	8034
525.9306	8119
528.4161	8087
530.9009	8188
533.3851	8116
535.8687	8023
538.3535	8118
540.8356	8072
543.3171	8017
545.7979	8022
548.278	8130
550.7595	8134
553.2383	8064
555.7144	8090
558.1918	8108
560.6685	8124
563.1446	8222
565.6221	8154
568.0968	8212
570.5688	8238
573.0422	8406
575.515	8340
577.989	8520
580.4584	8414
582.9291	8296
585.3991	8333
587.8685	8470
590.3352	8539
592.8052	8284
595.2706	8361
597.7372	8415
600.2033	8488
602.6666	8357
605.1334	8375
607.5953	8331
610.0587	8395
612.5193	8331
614.9814	8444
617.4427	8343
619.9034	8351
622.3615	8223
624.8208	8311
627.2775	8173
629.7335	8257
632.1929	8253
634.6476	8342
637.1016	8218
639.5569	8269
642.0096	8258
644.4637	8325
646.9151	8384
649.3678	8279
651.8179	8485
654.2672	8457
656.7159	8551
659.166	8531
661.6154	8421
664.0622	8410
666.5082	8424
668.9537	8600
671.4005	8561
673.8445	8497
676.288	8554
678.7308	8493
681.1729	8651
683.6163	8503
686.0572	8529
688.4973	8730
690.9368	8680
693.3757	8580
695.8138	8601
698.2534	8720
700.6902	8639
703.1245	8721
705.56	8694
707.9949	8597
710.4311	8806
712.8647	8698
715.2957	8703
717.7279	8806
720.1595	8793
722.5905	8671
725.0208	8805
727.4505	8844
729.8795	9078
732.3058	8917
734.7336	9043
737.1626	8947
739.587	8998
742.0128	8964
744.4359	9014
746.8604	9108
749.2841	9016
751.7073	9231
754.1278	9257
756.5496	9187
758.9688	9115
761.3893	9207
763.8093	9169
766.2285	9172
768.6451	9306
771.0611	9201
773.4784	9185
775.895	9292
778.3091	9262
780.7244	9390
783.1371	9224
785.5493	9224
787.9626	9275
790.3754	9251
792.7856	9235
795.1951	9426
797.6039	9221
800.0121	9259
802.4236	9377
804.8306	9339
807.2369	9235
809.6425	9300
812.0475	9302
814.4538	9393
816.8575	9331
819.2606	9383
821.663	9280
824.0648	9367
826.4659	9295
828.8683	9343
831.2682	9400
833.6674	9353
836.066	9407
838.4639	9417
840.8632	9567
843.2579	9514
845.6539	9578
848.0493	9462
850.444	9579
852.84	9482
855.2315	9511
857.6243	9625
860.0165	9669
862.4081	9514
864.797	9521
867.1892	9543
869.5789	9391
871.9659	9487
874.3542	9581
876.74	9656
879.129	9572
881.5155	9465
883.8994	9556
886.2845	9407
888.6671	9570
891.051	9387
893.4343	9390
895.8169	9428
898.197	9460
900.5783	9526
902.9571	9615
905.3372	9560
907.7167	9612
910.0936	9618
912.4698	9611
914.8474	9748
917.2244	9772
919.5987	9896
921.9744	9977
924.3475	9756
926.72	9863
929.0918	9761
931.4669	9879
933.8375	9903
936.2074	10076
938.5767	10031
940.9454	10212
943.3154	10371
945.6829	10295
948.0497	10542
950.4178	10779
952.7833	11368
955.1483	11648
957.5145	12012
959.8782	12226
962.2412	12127
964.6036	11822
966.9655	11530
969.3266	11040
971.6871	10727
974.0471	10392
976.4064	10124
978.765	9854
981.125	9853
983.4824	10045
985.8373	9907
988.1935	9925
990.549	9865
992.9039	9830
995.2602	9923
997.6119	9850
999.965	9931
1002.317	9934
1004.667	10009
1007.02	9897
1009.371	9937
1011.719	9907
1014.068	9862
1016.415	10009
1018.765	9952
1021.111	9966
1023.458	10060
1025.804	9896
1028.147	9953
1030.49	10016
1032.837	10159
1035.179	10147
1037.522	10168
1039.862	10110
1042.204	9989
1044.546	9944
1046.884	10046
1049.224	10135
1051.562	10166
1053.899	10073
1056.237	10056
1058.575	10287
1060.91	10134
1063.244	10251
1065.58	10182
1067.913	10310
1070.248	10229
1072.579	10365
1074.911	10214
1077.242	10449
1079.572	10206
1081.905	10182
1084.234	10168
1086.562	10051
1088.89	10097
1091.217	10066
1093.544	10222
1095.871	10215
1098.197	10255
1100.521	10122
1102.845	10133
1105.169	10059
1107.491	10121
1109.814	10101
1112.135	10264
1114.456	10225
1116.776	10116
1119.096	10137
1121.415	10219
1123.734	10073
1126.052	10158
1128.369	10223
1130.686	10110
1133.002	10217
1135.318	10100
1137.632	10099
1139.945	10211
1142.258	10112
1144.573	10039
1146.884	10185
1149.196	10234
1151.505	10145
1153.816	10218
1156.124	10292
1158.435	10084
1160.742	10181
1163.051	10224
1165.356	10142
1167.663	10220
1169.97	10167
1172.276	10178
1174.579	10183
1176.881	10219
1179.186	10047
1181.487	10208
1183.79	10200
1186.092	10182
1188.392	10130
1190.691	10059
1192.991	9988
1195.291	10159
1197.588	10258
1199.885	10320
1202.181	10116
1204.479	10205
1206.775	10144
1209.07	10192
1211.363	10205
1213.656	10128
1215.949	10222
1218.241	10342
1220.534	10221
1222.825	10352
1225.115	10264
1227.405	10305
1229.693	10316
1231.984	10240
1234.271	10421
1236.558	10454
1238.845	10469
1241.131	10485
1243.416	10533
1245.703	10464
1247.987	10505
1250.269	10582
1252.552	10501
1254.834	10416
1257.118	10540
1259.399	10496
1261.678	10476
1263.958	10486
1266.237	10534
1268.516	10573
1270.794	10588
1273.072	10573
1275.347	10556
1277.624	10593
1279.899	10588
1282.175	10543
1284.449	10589
1286.722	10491
1288.995	10286
1291.266	10395
1293.54	10503
1295.81	10478
1298.081	10356
1300.35	10291
1302.62	10295
1304.889	10362
1307.156	10334
1309.425	10332
1311.69	10420
1313.957	10413
1316.222	10450
1318.488	10457
1320.751	10444
1323.016	10428
1325.278	10366
1327.54	10536
1329.803	10390
1332.065	10358
1334.325	10209
1336.584	10352
1338.843	10439
1341.101	10497
1343.36	10324
1345.617	10615
1347.876	10426
1350.131	10344
1352.387	10504
1354.643	10356
1356.897	10301
1359.151	10397
1361.403	10438
1363.656	10387
1365.909	10430
1368.16	10519
1370.409	10492
1372.659	10473
1374.909	10484
1377.157	10612
1379.407	10412
1381.655	10534
1383.9	10602
1386.147	10484
1388.393	10566
1390.64	10484
1392.885	10588
1395.127	10623
1397.37	10636
1399.614	10729
1401.854	10577
1404.098	10579
1406.339	10526
1408.578	10555
1410.818	10485
1413.056	10596
1415.297	10626
1417.533	10700
1419.771	10668
1422.006	10665
1424.243	10676
1426.479	10572
1428.715	10628
1430.948	10623
1433.182	10858
1435.414	10813
1437.647	10816
1439.88	10868
1442.11	10884
1444.342	10777
1446.571	10863
1448.799	10825
1451.029	10894
1453.258	10918
1455.485	10862
1457.711	10824
1459.937	10907
1462.164	11030
1464.39	10721
1466.614	10907
1468.838	10699
1471.06	10754
1473.283	10729
1475.506	10602
1477.727	10707
1479.949	10494
1482.169	10505
1484.389	10529
1486.609	10550
1488.828	10518
1491.045	10363
1493.261	10620
1495.477	10465
1497.693	10602
1499.91	10467
1502.125	10532
1504.339	10471
1506.553	10577
1508.766	10632
1510.979	10441
1513.191	10510
1515.402	10497
1517.613	10367
1519.823	10508
1522.033	10583
1524.242	10443
1526.451	10374
1528.657	10709
1530.865	10337
1533.072	10533
1535.278	10423
1537.484	10596
1539.687	10533
1541.892	10569
1544.096	10522
1546.299	10616
1548.502	10580
1550.703	10613
1552.905	10768
1555.104	10527
1557.303	10703
1559.505	10623
1561.703	10565
1563.902	10801
1566.099	10819
1568.295	10719
1570.494	10715
1572.689	10749
1574.883	10629
1577.079	10918
1579.272	10688
1581.467	10882
1583.659	10800
1585.853	10800
1588.044	10857
1590.234	10802
1592.424	10761
1594.615	10806
1596.806	10933
1598.994	10990
1601.182	10804
1603.369	10828
1605.557	10977
1607.744	10805
1609.929	10926
1612.114	10798
1614.298	10778
1616.482	10875
1618.667	11008
1620.85	10880
1623.032	10928
1625.214	10856
1627.395	10856
1629.575	10863
1631.755	11049
1633.935	11005
1636.114	11016
1638.292	11035
1640.471	11094
1642.647	10958
1644.823	10933
1647	10991
1649.175	10966
1651.348	10898
1653.525	10952
1655.698	10906
1657.87	10913
1660.043	10822
1662.213	11045
1664.387	11027
1666.558	11090
1668.727	11027
1670.896	11079
1673.064	11107
1675.233	11093
1677.401	11031
1679.569	11028
1681.735	11107
1683.902	10991
1686.066	11034
1688.233	11027
1690.397	10951
1692.559	11154
1694.723	10873
1696.885	10978
1699.048	10987
1701.21	10872
1703.37	10782
1705.53	10906
1707.689	10961
1709.849	10818
1712.009	10784
1714.166	10886
1716.323	10853
1718.479	10749
1720.634	10763
1722.793	10814
1724.948	10811
1727.102	10939
1729.255	10877
1731.408	10923
1733.562	10792
1735.714	10853
1737.865	10952
1740.016	11002
1742.166	10971
1744.316	10902
1746.467	10676
1748.616	11049
1750.764	10854
1752.911	10943
1755.056	10935
1757.205	10804
1759.35	10977
1761.496	10914
1763.641	10955
1765.785	10900
1767.927	10852
1770.072	10989
1772.214	10944
1774.355	11016
1776.496	11069
1778.637	11161
1780.778	10912
1782.918	10924
1785.057	11185
1787.194	10958
1789.333	11004
1791.472	11106
1793.608	10972
1795.745	11070
1797.879	10898
1800.015	11133
1802.148	11048
1804.284	10978
1806.417	10907
1808.548	10942
1810.682	10964
1812.812	11041
1814.946	10960
1817.075	10928
1819.205	11012
1821.335	10938
1823.463	10965
1825.59	10968
1827.721	10902
1829.847	10980
1831.973	10941
1834.098	10846
1836.223	10844
1838.351	10960
1840.475	10888
1842.598	10927
1844.721	11037
1846.843	10735
1848.966	10906
1851.087	10835
1853.21	10950
1855.33	10933
1857.449	10901
1859.568	10861
1861.688	10889
1863.806	10980
1865.924	10827
1868.039	10828
1870.155	10956
1872.273	10950
1874.388	11027
1876.503	10797
1878.617	10885
1880.73	10780
1882.844	10959
1884.956	11031
1887.068	10838
1889.18	10849
1891.291	10862
1893.4	10938
1895.511	11024
1897.621	10929
1899.73	10973
1901.837	11118
1903.944	11102
1906.053	11011
1908.159	11053
1910.265	11193
1912.369	11102
1914.474	11002
1916.577	11065
1918.683	11014
1920.785	10985
1922.888	10938
1924.989	11081
1927.091	10943
1929.193	11121
1931.294	11155
1933.393	11019
1935.493	11122
1937.59	11142
1939.689	11097
1941.788	11172
1943.884	11040
1945.98	11056
1948.077	11176
1950.171	11170
1952.267	11216
1954.361	11073
1956.455	11205
1958.548	11147
1960.64	10975
1962.733	10949
1964.824	10994
1966.915	11171
1969.005	10868
1971.096	10929
1973.185	11054
1975.275	10896
1977.363	10861
1979.45	11026
1981.537	11007
1983.623	10901
1985.711	10924
1987.796	11077
1989.881	11002
1991.965	10975
1994.047	11020
1996.132	11009
1998.215	11074
2000.297	11107
2002.378	10972
2004.46	10866
2006.54	10779
2008.62	11001
2010.7	10856
2012.779	11045
2014.858	11077
2016.934	11109
2019.013	10859
2021.09	10978
2023.165	10790
2025.241	11046
2027.317	10934
2029.39	10980
2031.466	10932
2033.538	11037
2035.612	10961
2037.683	10992
2039.755	10884
2041.827	10945
2043.898	10989
2045.968	11245
2048.038	10928
2050.106	11056
2052.177	10978
2054.244	10980
2056.313	10940
2058.379	10998
2060.444	10955
2062.511	10835
2064.577	11019
2066.641	10920
2068.705	11128
2070.77	11033
2072.832	10901
2074.896	10969
2076.958	11047
2079.02	10965
2081.081	10991
2083.141	11060
2085.2	11006
2087.261	11109
2089.319	10968
2091.377	10942
2093.435	11099
2095.492	10866
2097.552	10988
2099.607	11062
2101.663	10979
2103.718	10927
2105.771	10941
2107.826	10913
2109.879	10921
2111.932	11058
2113.985	10963
2116.037	10977
2118.088	11147
2120.141	10951
2122.191	11088
2124.239	10970
2126.288	10984
2128.337	11025
2130.387	10987
2132.434	11016
2134.481	10987
2136.528	11008
2138.574	11003
2140.618	10991
2142.665	10902
2144.71	10991
2146.753	11012
2148.797	10999
2150.838	10855
2152.883	11015
2154.923	10899
2156.965	10968
2159.007	10845
2161.046	10825
2163.086	10950
2165.126	11011
2167.163	11044
2169.202	11014
2171.239	10938
2173.277	10706
2175.314	10775
2177.349	10916
2179.385	10870
2181.42	10868
2183.453	10858
2185.49	10678
2187.522	10845
2189.555	10808
2191.586	10810
2193.619	10941
2195.651	10870
2197.682	10770
2199.711	10737
2201.74	10670
2203.769	10843
2205.799	10767
2207.828	10758
2209.855	10702
2211.882	10562
2213.908	10736
2215.934	10719
2217.961	10746
2219.986	10762
2222.01	10579
2224.034	10824
2226.057	10584
2228.08	10643
2230.104	10711
2232.124	10695
2234.145	10796
2236.166	10777
2238.186	10764
2240.207	10574
2242.227	10880
2244.244	10543
2246.262	10580
2248.28	10620
2250.299	10682
2252.314	10779
2254.33	10769
2256.346	10641
2258.36	10601
2260.375	10786
2262.391	10701
2264.403	10713
2266.416	10777
2268.427	10647
2270.44	10726
2272.453	10789
2274.463	10668
2276.474	10746
2278.483	10561
2280.493	10862
2282.501	10714
2284.51	10775
2286.518	10711
2288.524	10766
2290.532	10619
2292.537	10692
2294.544	10686
2296.55	10679
2298.554	10565
2300.557	10741
2302.562	10575
2304.566	10687
2306.568	10554
2308.569	10467
2310.572	10731
2312.573	10715
2314.573	10723
2316.574	10573
2318.573	10560
2320.571	10660
2322.571	10546
2324.569	10603
2326.567	10667
2328.564	10612
2330.56	10594
2332.556	10559
2334.551	10500
2336.546	10491
2338.542	10668
2340.535	10541
2342.529	10698
2344.521	10604
2346.512	10298
2348.505	10540
2350.497	10545
2352.487	10623
2354.478	10579
2356.468	10453
2358.457	10547
2360.446	10510
2362.434	10522
2364.422	10407
2366.408	10589
2368.395	10451
2370.383	10586
2372.369	10466
2374.353	10543
2376.338	10409
2378.321	10444
2380.307	10509
2382.29	10422
2384.272	10454
2386.254	10419
2388.235	10394
2390.218	10466
2392.198	10296
2394.179	10444
2396.157	10338
2398.137	10405
2400.115	10379
2402.095	10380
2404.072	10449
2406.048	10419
2408.026	10196
2410.001	10458
2411.977	10361
2413.953	10328
2415.927	10139
2417.9	10380
2419.875	10270
2421.847	10259
2423.821	10258
2425.792	10367
2427.763	10409
2429.736	10374
2431.706	10198
2433.677	10312
2435.646	10249
2437.615	10387
2439.583	10372
2441.551	10403
2443.519	10375
2445.486	10255
2447.452	10429
2449.418	10350
2451.383	10261
2453.348	10338
2455.314	10299
2457.278	10377
2459.241	10283
2461.205	10301
2463.167	10337
2465.131	10202
2467.091	10289
2469.052	10212
2471.012	10356
2472.972	10183
2474.932	10178
2476.891	10196
2478.85	10113
2480.808	10212
2482.766	10221
2484.722	10129
2486.68	10275
2488.636	10217
2490.591	10270
2492.546	10260
2494.5	10443
2496.456	10061
2498.41	10179
2500.362	10143
2502.315	10116
2504.266	10122
2506.218	10233
2508.169	10063
2510.121	10041
2512.07	10156
2514.019	10165
2515.968	10105
2517.918	10223
2519.866	10123
2521.813	9979
2523.76	10129
2525.707	10042
2527.653	10182
2529.599	10133
2531.543	10185
2533.489	10027
2535.433	9970
2537.376	10094
2539.32	10161
2541.264	10081
2543.205	10228
2545.147	10183
2547.087	9988
2549.029	10152
2550.969	10149
2552.908	10120
2554.847	10063
2556.786	10098
2558.724	10200
2560.663	9958
2562.6	10258
2564.537	10010
2566.473	10038
2568.408	10116
2570.345	9998
2572.28	10208
2574.214	10098
2576.148	10114
2578.081	10117
2580.014	10147
2581.947	10060
2583.879	10254
2585.81	10031
2587.741	10077
2589.67	10167
2591.602	10234
2593.532	10182
2595.461	10002
2597.388	10102
2599.316	10120
2601.244	10095
2603.172	10072
2605.098	9983
2607.023	10154
2608.949	10134
2610.873	10150
2612.8	10127
2614.723	10144
2616.647	10126
2618.569	10137
2620.493	10249
2622.416	10093
2624.338	10181
2626.258	10111
2628.179	10083
2630.099	10149
2632.019	10306
2633.939	10130
2635.857	10179
2637.775	10219
2639.694	10239
2641.61	10067
2643.528	10266
2645.444	10151
2647.361	10096
2649.276	10149
2651.19	10126
2653.105	10116
2655.019	10248
2656.934	10070
2658.846	9968
2660.758	10104
2662.67	10176
2664.583	10071
2666.493	10122
2668.404	10126
2670.313	10058
2672.223	10110
2674.134	10077
2676.042	9847
2677.95	10180
2679.858	9939
2681.765	9953
2683.673	10032
2685.579	9978
2687.483	10140
2689.389	9976
2691.294	9991
2693.198	9990
2695.104	10010
2697.006	10136
2698.909	9942
2700.811	10144
2702.713	9965
2704.615	10031
2706.516	9959
2708.417	9943
2710.316	10029
2712.216	9923
2714.115	9917
2716.014	10004
2717.913	10039
2719.81	9875
2721.707	9949
2723.603	9891
2725.501	10153
2727.396	9885
2729.292	9861
2731.186	10037
2733.081	9893
2734.976	9870
2736.87	9927
2738.762	9835
2740.653	9810
2742.546	10005
2744.437	9893
2746.329	9973
2748.22	9811
2750.11	10018
2751.999	9978
2753.889	9988
2755.778	9936
2757.666	9726
2759.553	9898
2761.44	9859
2763.328	9799
2765.215	9802
2767.101	9789
2768.986	9807
2770.87	9846
2772.754	9813
2774.638	9809
2776.523	9864
2778.405	9732
2780.288	10011
2782.17	9849
2784.051	9746
2785.934	9807
2787.814	9891
2789.694	9821
2791.574	9728
2793.453	9647
2795.332	9962
2797.212	9807
2799.088	9703
2800.966	9864
2802.843	9669
2804.719	9839
2806.597	9788
2808.471	9774
2810.346	9752
2812.221	9613
2814.094	9800
2815.969	9838
2817.843	9776
2819.714	9720
2821.587	9638
2823.459	9911
2825.329	9816
2827.202	9799
2829.072	9830
2830.942	9723
2832.811	9860
2834.68	9802
2836.549	9797
2838.418	9657
2840.284	9842
2842.152	9748
2844.018	9720
2845.885	9747
2847.751	9848
2849.616	9796
2851.482	9683
2853.345	9689
2855.208	9704
2857.074	9856
2858.937	9744
2860.799	9833
2862.66	9848
2864.522	9681
2866.385	9803
2868.245	9984
2870.104	10065
2871.964	9998
2873.824	10143
2875.683	10015
2877.542	10170
2879.4	10323
2881.257	10182
2883.114	10138
2884.97	10322
2886.827	10212
2888.683	10212
2890.537	10126
2892.392	10170
2894.246	10145
2896.1	10236
2897.954	10278
2899.807	10147
2901.66	10166
2903.51	10220
2905.362	10016
2907.214	10214
2909.065	10105
2910.915	10410
2912.765	10153
2914.613	10192
2916.463	10363
2918.311	10217
2920.158	10509
2922.006	10328
2923.853	10531
2925.698	10484
2927.546	10682
2929.392	10743
2931.236	10772
2933.081	10666
2934.924	10723
2936.77	10771
2938.613	10994
2940.455	11016
2942.298	11035
2944.139	10828
2945.982	11032
2947.823	10990
2949.662	10846
2951.503	10998
2953.342	10651
2955.182	10751
2957.021	10658
2958.858	10625
2960.697	10628
2962.534	10652
2964.37	10601
2966.207	10361
2968.044	10341
2969.879	10262
2971.714	10370
2973.548	10250
2975.383	10338
2977.218	10231
2979.051	10190
2980.883	10202
2982.715	10120
2984.547	10156
2986.379	10260
2988.21	9831
2990.04	10064
2991.87	9903
2993.7	9812
2995.53	9792
2997.359	9937
2999.187	9832
3001.015	9686
3002.842	9736
3004.669	9718
3006.497	9574
3008.323	9643
3010.148	9659
3011.974	9592
3013.797	9501
3015.623	9475
3017.447	9599
3019.27	9361
3021.094	9454
3022.915	9574
3024.737	9329
3026.56	9331
3028.38	9402
3030.201	9322
3032.022	9390
3033.84	9270
3035.662	9337
3037.481	9398
3039.298	9341
3041.117	9066
3042.933	9285
3044.752	9170
3046.568	9325
3048.385	9252
3050.2	9217
3052.016	9146
3053.83	9219
3055.646	9292
3057.46	9209
3059.272	9134
3061.086	9202
3062.898	9231
3064.711	9109
3066.524	9336
3068.335	9146
3070.145	9323
3071.956	9151
3073.766	9144
3075.576	9206
3077.385	9153
3079.193	9250
3081.002	9117
3082.81	8990
3084.618	9027
3086.425	8959
3088.231	9089
3090.036	9033
3091.842	9067
3093.648	8989
3095.452	9039
3097.257	9038
3099.06	8909
3100.863	9084
3102.666	9045
3104.47	8948
3106.272	8886
3108.073	8916
3109.875	8934
3111.676	9003
3113.477	8888
3115.277	8933
3117.077	8924
3118.874	8789
3120.673	8708
3122.473	8938
3124.271	8853
3126.066	8893
3127.863	8818
3129.66	8841
3131.456	8863
3133.252	8733
3135.047	8828
3136.842	8802
3138.635	8743
3140.429	8759
3142.223	8740
3144.016	8805
3145.808	8908
3147.6	8741
3149.392	8723
3151.183	8787
3152.975	8672
3154.765	8768
3156.553	8697
3158.344	8747
3160.132	8726
3161.922	8688
3163.71	8530
3165.497	8710
3167.285	8730
3169.071	8565
3170.858	8652
3172.645	8670
3174.429	8619
3176.214	8640
3177.998	8605
3179.783	8643
3181.568	8594
3183.351	8609
3185.133	8591
3186.915	8577
3188.698	8583
3190.481	8634
3192.261	8585
3194.042	8507
3195.822	8576
3197.601	8383
3199.381	8638
3201.161	8618
3202.939	8470
3204.717	8473
3206.495	8540
3208.272	8517
3210.05	8654
3211.826	8419
3213.602	8614
3215.376	8479
3217.151	8557
3218.927	8618
3220.702	8473
3222.476	8563
3224.249	8569
3226.021	8636
3227.793	8612
3229.567	8390
3231.339	8396
3233.109	8464
3234.88	8511
3236.651	8610
3238.421	8543
3240.191	8585
3241.96	8419
3243.728	8595
3245.497	8506
3247.263	8675
3249.033	8546
3250.799	8448
3252.566	8556
3254.331	8486
3256.097	8585
3257.863	8550
3259.628	8473
3261.392	8591
3263.156	8411
3264.919	8525
3266.683	8572
3268.447	8391
3270.208	8467
3271.969	8489
3273.731	8595
3275.492	8544
3277.253	8530
3279.013	8391
3280.773	8265
3282.532	8559
3284.291	8365
3286.05	8329
3287.808	8482
3289.566	8406
3291.323	8493
3293.079	8375
3294.835	8371
3296.593	8591
3298.348	8488
3300.102	8457
3301.857	8391
3303.611	8451
3305.366	8382
3307.119	8413
3308.872	8299
3310.624	8366
3312.376	8404
3314.129	8474
3315.881	8456
3317.631	8359
3319.38	8366
3321.13	8399
3322.88	8342
3324.631	8259
3326.379	8360
3328.126	8432
3329.875	8397
3331.622	8330
3333.371	8463
3335.116	8283
3336.863	8422
3338.609	8376
3340.353	8286
3342.1	8216
3343.845	8291
3345.588	8351
3347.332	8309
3349.074	8327
3350.817	8248
3352.56	8374
3354.303	8290
3356.043	8297
3357.785	8379
3359.525	8249
3361.268	8256
3363.007	8468
3364.745	8172
3366.485	8296
3368.223	8316
3369.962	8227
3371.701	8294
3373.438	8262
3375.174	8231
3376.911	8379
3378.647	8293
3380.384	8277
3382.118	8234
3383.854	8133
3385.588	8206
3387.322	8311
3389.057	8184
3390.79	8332
3392.522	8180
3394.255	8177
3395.987	8205
3397.719	8089
3399.451	8112
3401.181	8115
3402.911	8013
3404.641	8273
3406.371	8108
3408.101	8123
3409.83	8090
3411.558	8059
3413.285	8289
3415.011	8287
3416.739	8079
3418.467	8004
3420.193	8143
3421.919	8050
3423.644	8029
3425.368	8051
3427.094	7826
3428.818	8114
3430.542	8043
3432.264	7949
3433.987	8026
3435.712	8004
3437.434	8125
3439.155	8030
3440.876	8008
3442.596	8027
3444.317	7799
3446.039	7995
3447.757	7902
3449.477	8026
3451.195	7877
3452.914	8036
3454.632	7968
3456.35	7704
3458.067	7931
3459.784	7752
3461.5	7834
3463.216	7865
3464.932	7680
3466.647	7817
3468.362	7929
3470.076	7748
3471.789	7783
3473.505	7935
3475.217	7712
3476.929	7789
3478.641	7684
3480.354	7819
3482.066	7736
3483.777	7836
3485.487	7794
3487.197	7690
3488.908	7818
3490.617	7718
3492.327	7787
3494.035	7648
3495.743	7666
3497.451	7629
3499.158	7608
3500.866	7671
3502.572	7683
3504.278	7770
3505.984	7715
3507.689	7669
3509.396	7679
3511.1	7669
3512.804	7569
3514.508	7603
3516.211	7686
3517.913	7600
3519.616	7713
3521.319	7597
3523.021	7476
3524.722	7493
3526.422	7550
3528.124	7687
3529.824	7534
3531.524	7469
3533.222	7419
3534.921	7585
3536.62	7527
3538.318	7442
3540.016	7524
3541.714	7531
3543.41	7511
3545.107	7508
3546.803	7437
3548.5	7456
3550.194	7551
3551.889	7423
3553.583	7506
3555.279	7399
3556.972	7440
3558.666	7323
3560.358	7446
3562.051	7378
3563.742	7430
3565.435	7373
3567.126	7319
3568.817	7343
3570.507	7348
3572.197	7315
3573.888	7431
3575.577	7476
3577.265	7513
3578.954	7314
3580.642	7331
3582.329	7354
3584.017	7362
3585.704	7401
3587.391	7242
3589.077	7503
3590.762	7265
3592.449	7170
3594.133	7365
3595.817	7314
3597.501	7297
3599.185	7126
3600.869	7204
3602.552	7170
3604.234	7317
3605.916	7138
3607.598	7175
3609.279	7149
3610.961	7244
3612.642	7199
3614.321	7160
3616	6996
3617.68	7209
3619.36	7173
3621.039	7092
3622.716	7136
3624.394	7109
3626.071	7146
3627.748	7093
3629.425	7092
3631.102	6993
3632.778	7163
3634.452	7039
3636.127	7033
3637.803	7040
3639.477	7017
3641.151	7048
3642.823	7024
3644.497	7041
3646.171	6943
3647.842	6962
3649.515	6889
3651.185	7084
3652.857	6936
3654.527	6954
3656.198	6943
3657.868	6909
3659.537	7081
3661.207	6930
3662.875	6840
3664.544	6891
3666.212	6922
3667.879	6956
3669.546	6912
3671.212	6802
3672.88	6840
3674.546	6871
3676.211	6987
3677.875	6850
3679.541	6794
3681.205	6976
3682.87	6898
3684.533	6821
3686.196	6932
3687.859	6955
3689.521	6913
3691.184	6800
3692.845	6827
3694.507	6926
3696.167	6840
3697.827	6851
3699.487	6868
3701.148	6851
3702.808	6755
3704.466	6814
3706.125	6895
3707.783	6848
3709.442	6804
3711.099	6878
3712.757	6717
3714.412	6782
3716.068	6699
3717.725	6774
3719.381	6835
3721.036	6714
3722.689	6717
3724.344	6734
3725.998	6626
3727.652	6650
3729.305	6746
3730.958	6824
3732.61	6697
3734.262	6746
3735.915	6660
3737.565	6629
3739.217	6719
3740.866	6667
3742.516	6590
3744.165	6670
3745.816	6625
3747.464	6728
3749.113	6716
3750.761	6691
3752.409	6686
3754.057	6657
3755.703	6642
3757.35	6599
3758.996	6663
3760.641	6609
3762.289	6633
3763.933	6656
3765.577	6533
3767.222	6548
3768.865	6569
3770.508	6674
3772.152	6584
3773.796	6470
3775.438	6539
3777.079	6479
3778.721	6560
3780.363	6603
3782.003	6530
3783.643	6564
3785.283	6505
3786.923	6462
3788.563	6537
3790.203	6523
3791.841	6492
3793.479	6453
3795.115	6403
3796.753	6529
3798.391	6517
3800.027	6490
3801.664	6522
3803.299	6474
3804.935	6413
3806.571	6443
3808.206	6421
3809.839	6502
3811.473	6442
3813.107	6371
3814.74	6321
3816.375	6407
3818.006	6354
3819.638	6283
3821.27	6348
3822.9	6362
3824.532	6389
3826.163	6378
3827.792	6364
3829.423	6301
3831.051	6439
3832.682	6187
3834.311	6291
3835.938	6334
3837.566	6257
3839.193	6289
3840.821	6310
3842.448	6308
3844.075	6213
3845.7	6230
3847.325	6373
3848.951	6332
3850.576	6226
3852.201	6326
3853.825	6251
3855.448	6272
3857.072	6253
3858.694	6165
3860.318	6233
3861.939	6225
3863.562	6280
3865.183	6243
3866.804	6306
3868.426	6179
3870.045	6338
3871.666	6169
3873.285	6213
3874.904	6129
3876.524	6010
3878.142	6160
3879.76	6130
3881.378	6219
3882.995	6183
3884.612	6123
3886.229	6188
3887.845	6080
3889.461	6173
3891.076	6135
3892.691	6194
3894.307	6213
3895.922	6147
3897.536	6020
3899.149	6195
3900.761	6151
3902.374	6032
3903.988	6256
3905.6	6161
3907.212	6086
3908.822	6056
3910.433	6146
3912.045	6196
3913.655	6075
3915.265	5994
3916.875	6087
3918.483	6079
3920.093	6024
3921.702	6136
3923.309	5941
3924.917	6039
3926.523	6036
3928.13	6091
3929.739	6001
3931.344	5983
3932.95	6053
3934.555	6108
3936.159	6006
3937.766	6086
3939.369	6057
3940.974	5957
3942.577	5961
3944.181	5966
3945.783	6019
3947.386	6080
3948.989	5974
3950.59	5988
3952.191	6056
3953.791	6026
3955.394	6014
3956.994	5883
3958.593	6038
3960.192	6013
3961.791	5935
3963.392	5890
3964.99	6039
3966.588	5946
3968.185	5881
3969.782	5899
3971.379	5853
3972.976	5928
3974.572	5940
3976.168	5920
3977.763	5900
3979.358	5946
3980.954	5757
3982.548	5829
3984.142	5825
3985.736	5889
3987.329	5836
3988.922	5849
3990.516	5779
3992.108	5783
3993.698	5801
3995.29	5833
3996.881	5737
3998.473	5790
4000.064	5695
4001.653	5783
4003.242	5871
4004.832	5759
4006.422	5734
4008.01	5767
4009.598	5654
4011.186	5657
4012.773	5630
4014.36	5692
4015.947	5685
4017.534	5685
4019.119	5665
4020.705	5680
4022.291	5620
4023.876	5700
4025.461	5658
4027.044	5669
4028.627	5694
4030.211	5660
4031.795	5582
4033.378	5573
4034.96	5700
4036.542	5523
4038.124	5587
4039.704	5575
4041.286	5613
4042.867	5573
4044.447	5667
4046.026	5532
4047.606	5545
4049.187	5447
4050.765	5605
4052.343	5557
4053.92	5612
4055.498	5456
4057.076	5567
4058.654	5607
4060.23	5403
4061.806	5502
4063.381	5557
4064.957	5615
4066.533	5432
4068.107	5509
4069.682	5483
4071.256	5548
4072.829	5440
4074.404	5492
4075.977	5541
4077.549	5394
4079.121	5464
4080.693	5413
4082.265	5440
4083.836	5391
4085.407	5528
4086.977	5440
4088.547	5444
4090.117	5304
4091.687	5439
4093.256	5426
4094.825	5376
4096.392	5435
4097.96	5337
4099.528	5323
4101.097	5424
4102.663	5460
4104.229	5337
4105.795	5394
4107.361	5330
4108.928	5389
4110.493	5313
4112.058	5379
4113.621	5371
4115.186	5351
4116.75	5459
4118.313	5271
4119.876	5398
4121.438	5233
4123	5292
4124.562	5386
4126.125	5321
4127.686	5305
4129.246	5305
4130.807	5368
4132.367	5215
4133.927	5345
4135.486	5228
4137.046	5257
4138.604	5197
4140.162	5251
4141.72	5254
4143.279	5204
4144.836	5180
4146.393	5201
4147.949	5165
4149.505	5205
4151.062	5233
4152.617	5193
4154.172	5130
4155.727	5172
4157.281	5243
4158.836	5104
4160.39	5094
4161.943	5124
4163.496	5056
4165.048	5132
4166.601	5116
4168.154	5104
4169.706	5203
4171.257	5143
4172.808	5040
4174.358	5062
4175.909	5131
4177.458	5198
4179.008	5065
4180.558	5119
4182.106	5128
4183.655	5165
4185.204	5085
4186.751	5063
4188.298	5022
4189.845	5105
4191.392	5007
4192.939	5002
4194.485	5071
4196.031	5061
4197.576	5078
4199.121	5057
4200.666	4995
4202.211	5086
4203.754	4987
4205.298	4929
4206.84	5055
4208.384	4969
4209.927	5024
4211.47	4929
4213.011	5002
4214.552	5051
4216.094	4944
4217.635	4880
4219.175	5095
4220.716	4975
4222.255	4977
4223.793	5005
4225.335	4941
4226.873	4957
4228.411	4929
4229.948	4951
4231.486	4894
4233.024	4973
4234.562	4982
4236.098	4914
4237.634	4962
4239.169	4915
4240.705	4903
4242.241	4897
4243.776	4917
4245.31	4963
4246.844	4842
4248.378	4856
4249.911	4977
4251.445	5012
4252.978	4921
4254.51	4927
4256.042	4732
4257.574	4794
4259.107	4795
4260.638	4806
4262.169	4879
4263.699	4990
4265.228	4855
4266.759	4857
4268.289	4749
4269.818	4886
4271.345	4802
4272.874	4786
4274.402	4686
4275.931	4713
4277.458	4768
4278.985	4833
4280.512	4789
4282.037	4816
4283.564	4823
4285.089	4837
4286.615	4826
4288.139	4726
4289.664	4782
4291.187	4857
4292.712	4745
4294.235	4745
4295.759	4767
4297.281	4752
4298.804	4666
4300.327	4679
4301.849	4725
4303.37	4713
4304.891	4683
4306.412	4704
4307.933	4743
4309.453	4705
4310.973	4753
4312.492	4669
