398.1873	2645
400.7097	2680
403.2336	2650
405.7547	2706
408.2751	2659
410.7948	2666
413.3138	2749
415.83	2698
418.3497	2724
420.8666	2773
423.3829	2780
425.8985	2792
428.4133	2881
430.9275	2806
433.441	2919
435.9538	2867
438.4639	2807
440.9753	2877
443.4881	2864
445.9982	2900
448.5055	2856
451.0142	2838
453.5201	2866
456.0274	2854
458.5361	2915
461.04	2817
463.5453	2865
466.0478	2870
468.5517	2889
471.0549	2788
473.5574	2918
476.0572	2872
478.5584	2820
481.0568	2867
483.5545	2817
486.0557	2926
488.5521	2868
491.0478	2963
493.5449	2905
496.0392	2917
498.5349	2880
501.0299	2962
503.5222	2976
506.0139	2913
508.5048	2963
510.9991	2989
513.4887	2910
515.9777	2939
518.4659	2985
520.9534	2985
523.4403	2972
525.9306	2967
528.4161	2910
530.9009	2969
533.3851	3022
535.8687	2930
538.3535	2869
540.8356	2959
543.3171	2896
545.7979	2901
548.278	2857
550.7595	3030
553.2383	2988
555.7144	3025
558.1918	2997
560.6685	3012
563.1446	2948
565.6221	3033
568.0968	3018
570.5688	3017
573.0422	2973
575.515	3025
577.989	3110
580.4584	3025
582.9291	3056
585.3991	3052
587.8685	3037
590.3352	3066
592.8052	3069
595.2706	3056
597.7372	3071
600.2033	3027
602.6666	3054
605.1334	3023
607.5953	3037
610.0587	3062
612.5193	3102
614.9814	2984
617.4427	3011
619.9034	2976
622.3615	2991
624.8208	3071
627.2775	3080
629.7335	3010
632.1929	3082
634.6476	3017
637.1016	3034
639.5569	3139
642.0096	3027
644.4637	3099
646.9151	3145
649.3678	3006
651.8179	3006
654.2672	3045
656.7159	3076
659.166	3180
661.6154	3078
664.0622	3153
666.5082	3096
668.9537	3103
671.4005	3129
673.8445	3177
676.288	3099
678.7308	3077
681.1729	3115
683.6163	3199
686.0572	3117
688.4973	3175
690.9368	3122
693.3757	3135
695.8138	3172
698.2534	3171
700.6902	3158
703.1245	3098
705.56	3190
707.9949	3157
710.4311	3206
712.8647	3245
715.2957	3196
717.7279	3239
720.1595	3247
722.5905	3257
725.0208	3135
727.4505	3171
729.8795	3227
732.3058	3277
734.7336	3220
737.1626	3308
739.587	3266
742.0128	3324
744.4359	3271
746.8604	3300
749.2841	3314
751.7073	3303
754.1278	3314
756.5496	3375
758.9688	3280
761.3893	3330
763.8093	3335
766.2285	3285
768.6451	3394
771.0611	3284
773.4784	3348
775.895	3389
778.3091	3354
780.7244	3332
783.1371	3374
785.5493	3322
787.9626	3404
790.3754	3371
792.7856	3308
795.1951	3329
797.6039	3350
800.0121	3426
802.4236	3397
804.8306	3402
807.2369	3344
809.6425	3441
812.0475	3389
814.4538	3352
816.8575	3388
819.2606	3440
821.663	3449
824.0648	3432
826.4659	3395
828.8683	3389
831.2682	3371
833.6674	3400
836.066	3391
838.4639	3373
840.8632	3387
843.2579	3481
845.6539	3387
848.0493	3486
850.444	3429
852.84	3479
855.2315	3436
857.6243	3450
860.0165	3473
862.4081	3415
864.797	3534
867.1892	3443
869.5789	3443
871.9659	3384
874.3542	3443
876.74	3424
879.129	3412
881.5155	3476
883.8994	3444
886.2845	3445
888.6671	3402
891.051	3419
893.4343	3475
895.8169	3498
898.197	3406
900.5783	3475
902.9571	3404
905.3372	3487
907.7167	3500
910.0936	3482
912.4698	3548
914.8474	3549
917.2244	3551
919.5987	3522
921.9744	3544
924.3475	3560
926.72	3520
929.0918	3547
931.4669	3550
933.8375	3580
936.2074	3608
938.5767	3610
940.9454	3695
943.3154	3677
945.6829	3640
948.0497	3819
950.4178	3912
952.7833	3929
955.1483	4032
957.5145	4202
959.8782	4243
962.2412	4215
964.6036	4124
966.9655	3971
969.3266	3909
971.6871	3839
974.0471	3748
976.4064	3675
978.765	3652
981.125	3568
983.4824	3580
985.8373	3548
988.1935	3546
990.549	3585
992.9039	3567
995.2602	3498
997.6119	3524
999.965	3595
1002.317	3578
1004.667	3606
1007.02	3639
1009.371	3543
1011.719	3498
1014.068	3642
1016.415	3611
1018.765	3561
1021.111	3599
1023.458	3576
1025.804	3589
1028.147	3623
1030.49	3653
1032.837	3730
1035.179	3611
1037.522	3642
1039.862	3661
1042.204	3617
1044.546	3579
1046.884	3624
1049.224	3646
1051.562	3635
1053.899	3661
1056.237	3665
1058.575	3647
1060.91	3637
1063.244	3767
1065.58	3629
1067.913	3676
1070.248	3789
1072.579	3688
1074.911	3699
1077.242	3763
1079.572	3672
1081.905	3734
1084.234	3668
1086.562	3650
1088.89	3700
1091.217	3669
1093.544	3738
1095.871	3638
1098.197	3619
1100.521	3634
1102.845	3668
1105.169	3694
1107.491	3738
1109.814	3633
1112.135	3615
1114.456	3685
1116.776	3678
1119.096	3731
1121.415	3614
1123.734	3613
1126.052	3620
1128.369	3712
1130.686	3710
1133.002	3694
1135.318	3665
1137.632	3673
1139.945	3743
1142.258	3740
1144.573	3691
1146.884	3718
1149.196	3696
1151.505	3698
1153.816	3690
1156.124	3738
1158.435	3743
1160.742	3727
1163.051	3714
1165.356	3717
1167.663	3738
1169.97	3692
1172.276	3699
1174.579	3653
1176.881	3593
1179.186	3800
1181.487	3686
1183.79	3758
1186.092	3749
1188.392	3687
1190.691	3647
1192.991	3662
1195.291	3707
1197.588	3665
1199.885	3706
1202.181	3730
1204.479	3701
1206.775	3695
1209.07	3767
1211.363	3733
1213.656	3690
1215.949	3754
1218.241	3708
1220.534	3731
1222.825	3810
1225.115	3774
1227.405	3813
1229.693	3719
1231.984	3689
1234.271	3743
1236.558	3836
1238.845	3812
1241.131	3779
1243.416	3818
1245.703	3918
1247.987	3820
1250.269	3825
1252.552	3855
1254.834	3868
1257.118	3829
1259.399	3806
1261.678	3791
1263.958	3844
1266.237	3868
1268.516	3863
1270.794	3800
1273.072	3890
1275.347	3860
1277.624	3891
1279.899	3840
1282.175	3823
1284.449	3805
1286.722	3834
1288.995	3780
1291.266	3798
1293.54	3808
1295.81	3837
1298.081	3796
1300.35	3763
1302.62	3837
1304.889	3809
1307.156	3786
1309.425	3788
1311.69	3838
1313.957	3824
1316.222	3938
1318.488	3809
1320.751	3797
1323.016	3866
1325.278	3779
1327.54	3808
1329.803	3804
1332.065	3761
1334.325	3759
1336.584	3852
1338.843	3851
1341.101	3791
1343.36	3872
1345.617	3882
1347.876	3840
1350.131	3847
1352.387	3841
1354.643	3910
1356.897	3863
1359.151	3786
1361.403	3841
1363.656	3823
1365.909	3833
1368.16	3862
1370.409	3911
1372.659	3792
1374.909	3972
1377.157	3803
1379.407	3835
1381.655	3966
1383.9	3989
1386.147	3902
1388.393	3874
1390.64	3838
1392.885	3884
1395.127	3934
1397.37	3900
1399.614	3917
1401.854	3987
1404.098	3954
1406.339	3878
1408.578	3851
1410.818	3822
1413.056	3965
1415.297	3832
1417.533	3893
1419.771	4037
1422.006	3978
1424.243	3847
1426.479	3959
1428.715	3972
1430.948	4076
1433.182	3916
1435.414	3982
1437.647	3913
1439.88	4001
1442.11	4071
1444.342	4031
1446.571	3958
1448.799	4049
1451.029	3935
1453.258	3978
1455.485	3979
1457.711	3985
1459.937	4042
1462.164	3934
1464.39	3978
1466.614	4079
1468.838	3929
1471.06	3899
1473.283	3945
1475.506	3869
1477.727	3901
1479.949	4006
1482.169	3959
1484.389	3946
1486.609	3872
1488.828	3916
1491.045	3880
1493.261	3874
1495.477	3884
1497.693	3893
1499.91	3907
1502.125	3861
1504.339	3907
1506.553	3948
1508.766	3806
1510.979	3857
1513.191	3833
1515.402	3927
1517.613	3880
1519.823	3824
1522.033	3891
1524.242	3903
1526.451	3867
1528.657	3966
1530.865	3792
1533.072	3929
1535.278	3928
1537.484	3937
1539.687	3945
1541.892	3930
1544.096	3908
1546.299	3887
1548.502	3958
1550.703	3892
1552.905	3971
1555.104	3915
1557.303	3945
1559.505	3844
1561.703	3902
1563.902	3977
1566.099	4059
1568.295	4000
1570.494	3924
1572.689	3918
1574.883	4044
1577.079	3983
1579.272	4013
1581.467	3938
1583.659	4099
1585.853	4013
1588.044	4066
1590.234	4019
1592.424	4083
1594.615	3990
1596.806	3988
1598.994	4030
1601.182	4009
1603.369	4003
1605.557	3947
1607.744	4058
1609.929	4048
1612.114	4105
1614.298	4096
1616.482	4001
1618.667	4010
1620.85	4104
1623.032	4052
1625.214	4111
1627.395	4005
1629.575	4011
1631.755	4054
1633.935	4042
1636.114	4142
1638.292	4033
1640.471	4133
1642.647	4003
1644.823	4093
1647	4051
1649.175	4130
1651.348	4155
1653.525	4146
1655.698	4058
1657.87	4048
1660.043	4123
1662.213	4128
1664.387	4173
1666.558	4121
1668.727	4167
1670.896	4082
1673.064	4021
1675.233	4033
1677.401	4161
1679.569	4151
1681.735	4205
1683.902	4094
1686.066	4076
1688.233	4122
1690.397	4051
1692.559	4028
1694.723	4108
1696.885	4204
1699.048	4095
1701.21	4125
1703.37	3999
1705.53	3988
1707.689	3941
1709.849	4089
1712.009	4000
1714.166	3947
1716.323	4053
1718.479	4158
1720.634	4062
1722.793	4061
1724.948	4035
1727.102	4011
1729.255	4056
1731.408	4095
1733.562	4027
1735.714	4125
1737.865	4135
1740.016	4036
1742.166	4188
1744.316	4101
1746.467	3989
1748.616	4033
1750.764	4027
1752.911	4055
1755.056	4080
1757.205	4059
1759.35	4035
1761.496	4096
1763.641	4066
1765.785	4063
1767.927	4125
1770.072	4086
1772.214	4100
1774.355	4121
1776.496	4071
1778.637	4118
1780.778	4100
1782.918	4076
1785.057	4104
1787.194	4108
1789.333	4096
1791.472	4086
1793.608	4170
1795.745	4122
1797.879	4117
1800.015	4144
1802.148	4128
1804.284	4049
1806.417	4131
1808.548	4130
1810.682	4164
1812.812	4133
1814.946	4168
1817.075	4138
1819.205	4111
1821.335	4052
1823.463	4164
1825.59	4097
1827.721	4119
1829.847	4188
1831.973	4204
1834.098	4111
1836.223	4137
1838.351	4257
1840.475	4103
1842.598	4073
1844.721	4102
1846.843	4098
1848.966	4007
1851.087	4079
1853.21	4103
1855.33	4150
1857.449	4047
1859.568	4121
1861.688	4101
1863.806	4137
1865.924	4144
1868.039	4127
1870.155	4163
1872.273	4100
1874.388	4179
1876.503	4048
1878.617	4142
1880.73	4138
1882.844	4132
1884.956	4217
1887.068	4122
1889.18	4188
1891.291	4080
1893.4	4094
1895.511	4121
1897.621	4070
1899.73	4142
1901.837	4124
1903.944	4228
1906.053	4150
1908.159	4245
1910.265	4199
1912.369	4212
1914.474	4194
1916.577	4154
1918.683	4126
1920.785	4185
1922.888	4194
1924.989	4197
1927.091	4257
1929.193	4198
1931.294	4223
1933.393	4229
1935.493	4100
1937.59	4096
1939.689	4198
1941.788	4142
1943.884	4184
1945.98	4169
1948.077	4159
1950.171	4255
1952.267	4177
1954.361	4180
1956.455	4253
1958.548	4145
1960.64	4238
1962.733	4232
1964.824	4144
1966.915	4144
1969.005	4189
1971.096	4171
1973.185	4245
1975.275	4230
1977.363	4120
1979.45	4120
1981.537	4152
1983.623	4106
1985.711	4229
1987.796	4205
1989.881	4171
1991.965	4167
1994.047	4197
1996.132	4104
1998.215	4188
2000.297	4192
2002.378	4217
2004.46	4203
2006.54	4122
2008.62	4131
2010.7	4163
2012.779	4272
2014.858	4249
2016.934	4099
2019.013	4126
2021.09	4148
2023.165	4178
2025.241	4254
2027.317	4172
2029.39	4154
2031.466	4277
2033.538	4172
2035.612	4128
2037.683	4177
2039.755	4142
2041.827	4202
2043.898	4249
2045.968	4143
2048.038	4127
2050.106	4155
2052.177	4162
2054.244	4113
2056.313	4201
2058.379	4183
2060.444	4095
2062.511	4145
2064.577	4240
2066.641	4102
2068.705	4205
2070.77	4207
2072.832	4136
2074.896	4221
2076.958	4322
2079.02	4227
2081.081	4201
2083.141	4242
2085.2	4210
2087.261	4197
2089.319	4198
2091.377	4179
2093.435	4190
2095.492	4272
2097.552	4260
2099.607	4215
2101.663	4256
2103.718	4155
2105.771	4247
2107.826	4165
2109.879	4296
2111.932	4201
2113.985	4207
2116.037	4223
2118.088	4073
2120.141	4224
2122.191	4268
2124.239	4186
2126.288	4233
2128.337	4265
2130.387	4071
2132.434	4218
2134.481	4127
2136.528	4114
2138.574	4162
2140.618	4150
2142.665	4123
2144.71	4158
2146.753	4146
2148.797	4163
2150.838	4206
2152.883	4230
2154.923	4238
2156.965	4171
2159.007	4227
2161.046	4188
2163.086	4217
2165.126	4165
2167.163	4179
2169.202	4200
2171.239	4136
2173.277	4242
2175.314	4111
2177.349	4217
2179.385	4277
2181.42	4182
2183.453	4145
2185.49	4108
2187.522	4201
2189.555	4166
2191.586	4081
2193.619	4197
2195.651	4108
2197.682	4153
2199.711	4156
2201.74	4237
2203.769	4110
2205.799	4071
2207.828	4102
2209.855	4138
2211.882	4111
2213.908	4128
2215.934	4120
2217.961	4180
2219.986	4184
2222.01	4084
2224.034	4071
2226.057	4161
2228.08	4095
2230.104	4159
2232.124	4142
2234.145	4137
2236.166	4157
2238.186	4091
2240.207	4144
2242.227	4209
2244.244	4082
2246.262	4155
2248.28	4184
2250.299	4150
2252.314	4130
2254.33	4171
2256.346	4092
2258.36	4134
2260.375	4205
2262.391	4060
2264.403	4111
2266.416	4154
2268.427	4121
2270.44	4134
2272.453	4232
2274.463	4184
2276.474	4186
2278.483	4170
2280.493	4102
2282.501	4153
2284.51	4054
2286.518	4147
2288.524	4114
2290.532	4184
2292.537	4155
2294.544	4146
2296.55	4128
2298.554	4135
2300.557	4164
2302.562	4053
2304.566	4170
2306.568	4162
2308.569	4140
2310.572	4189
2312.573	4162
2314.573	4150
2316.574	4138
2318.573	4032
2320.571	4175
2322.571	4127
2324.569	4136
2326.567	4130
2328.564	4126
2330.56	4048
2332.556	4157
2334.551	4081
2336.546	4088
2338.542	4062
2340.535	4106
2342.529	4042
2344.521	4173
2346.512	4080
2348.505	4175
2350.497	4105
2352.487	4035
2354.478	4078
2356.468	4071
2358.457	4084
2360.446	4080
2362.434	4061
2364.422	4061
2366.408	4112
2368.395	4131
2370.383	4058
2372.369	4022
2374.353	4125
2376.338	4076
2378.321	4052
2380.307	4120
2382.29	3977
2384.272	4061
2386.254	4144
2388.235	4049
2390.218	4054
2392.198	4058
2394.179	4091
2396.157	4083
2398.137	4139
2400.115	4122
2402.095	4076
2404.072	4015
2406.048	4086
2408.026	4042
2410.001	3959
2411.977	3983
2413.953	4047
2415.927	4030
2417.9	4029
2419.875	4094
2421.847	4059
2423.821	4038
2425.792	4060
2427.763	4039
2429.736	4029
2431.706	4070
2433.677	4031
2435.646	3993
2437.615	4009
2439.583	4000
2441.551	4101
2443.519	4118
2445.486	4044
2447.452	3985
2449.418	4046
2451.383	4006
2453.348	4030
2455.314	3984
2457.278	4041
2459.241	4028
2461.205	4023
2463.167	4162
2465.131	3973
2467.091	4128
2469.052	4080
2471.012	3986
2472.972	4022
2474.932	3945
2476.891	4059
2478.85	4010
2480.808	4048
2482.766	4062
2484.722	3957
2486.68	3918
2488.636	4028
2490.591	4017
2492.546	4051
2494.5	4017
2496.456	3920
2498.41	4026
2500.362	3969
2502.315	4014
2504.266	4018
2506.218	4056
2508.169	3971
2510.121	4099
2512.07	3914
2514.019	4007
2515.968	4012
2517.918	3962
2519.866	4070
2521.813	4006
2523.76	4047
2525.707	3982
2527.653	3982
2529.599	3978
2531.543	4066
2533.489	3977
2535.433	4022
2537.376	4018
2539.32	4014
2541.264	3975
2543.205	3950
2545.147	4054
2547.087	3989
2549.029	3967
2550.969	3968
2552.908	3989
2554.847	4003
2556.786	3971
2558.724	4064
2560.663	4059
2562.6	4025
2564.537	3971
2566.473	4094
2568.408	3985
2570.345	4023
2572.28	4006
2574.214	4065
2576.148	4024
2578.081	3957
2580.014	4085
2581.947	3971
2583.879	3981
2585.81	4026
2587.741	3961
2589.67	4013
2591.602	4103
2593.532	4067
2595.461	4008
2597.388	4069
2599.316	3956
2601.244	4063
2603.172	4061
2605.098	3995
2607.023	3954
2608.949	4004
2610.873	4012
2612.8	3998
2614.723	4016
2616.647	4034
2618.569	4036
2620.493	4044
2622.416	4058
2624.338	3974
2626.258	4029
2628.179	4031
2630.099	4009
2632.019	4077
2633.939	3995
2635.857	4033
2637.775	4043
2639.694	3995
2641.61	3947
2643.528	4031
2645.444	4026
2647.361	4068
2649.276	4068
2651.19	3943
2653.105	4050
2655.019	4029
2656.934	4108
2658.846	3974
2660.758	4005
2662.67	3942
2664.583	3988
2666.493	4074
2668.404	4015
2670.313	3955
2672.223	4019
2674.134	3970
2676.042	3937
2677.95	3992
2679.858	3970
2681.765	4071
2683.673	3946
2685.579	4027
2687.483	4035
2689.389	3991
2691.294	3970
2693.198	3967
2695.104	4055
2697.006	4017
2698.909	3912
2700.811	3974
2702.713	3944
2704.615	4049
2706.516	3942
2708.417	4000
2710.316	3963
2712.216	3998
2714.115	4013
2716.014	3987
2717.913	3974
2719.81	3981
2721.707	4004
2723.603	3995
2725.501	3981
2727.396	3939
2729.292	3868
2731.186	3971
2733.081	3978
2734.976	3985
2736.87	3985
2738.762	4000
2740.653	4015
2742.546	3948
2744.437	3959
2746.329	3933
2748.22	3867
2750.11	3912
2751.999	3876
2753.889	3925
2755.778	3920
2757.666	4027
2759.553	3975
2761.44	3909
2763.328	3934
2765.215	3875
2767.101	3946
2768.986	3877
2770.87	3868
2772.754	3930
2774.638	3969
2776.523	3980
2778.405	3924
2780.288	3935
2782.17	3940
2784.051	3901
2785.934	3913
2787.814	3935
2789.694	3892
2791.574	3930
2793.453	3945
2795.332	3955
2797.212	3889
2799.088	3926
2800.966	3904
2802.843	3937
2804.719	3917
2806.597	3887
2808.471	3891
2810.346	3907
2812.221	3891
2814.094	3916
2815.969	3849
2817.843	3942
2819.714	3896
2821.587	3966
2823.459	3983
2825.329	3898
2827.202	3859
2829.072	3874
2830.942	3942
2832.811	3919
2834.68	3941
2836.549	3881
2838.418	3874
2840.284	3927
2842.152	3987
2844.018	4029
2845.885	3941
2847.751	3949
2849.616	3960
2851.482	4008
2853.345	3986
2855.208	3904
2857.074	4009
2858.937	4006
2860.799	3964
2862.66	3927
2864.522	4059
2866.385	4052
2868.245	4025
2870.104	4059
2871.964	4019
2873.824	4064
2875.683	4026
2877.542	4124
2879.4	4073
2881.257	4049
2883.114	4157
2884.97	4209
2886.827	4080
2888.683	4155
2890.537	4151
2892.392	4130
2894.246	4175
2896.1	4132
2897.954	4168
2899.807	4121
2901.66	4203
2903.51	4077
2905.362	4144
2907.214	4123
2909.065	4089
2910.915	4198
2912.765	4048
2914.613	4197
2916.463	4165
2918.311	4260
2920.158	4165
2922.006	4185
2923.853	4296
2925.698	4313
2927.546	4297
2929.392	4379
2931.236	4310
2933.081	4343
2934.924	4338
2936.77	4355
2938.613	4385
2940.455	4423
2942.298	4462
2944.139	4553
2945.982	4520
2947.823	4449
2949.662	4499
2951.503	4369
2953.342	4430
2955.182	4436
2957.021	4326
2958.858	4315
2960.697	4370
2962.534	4308
2964.37	4245
2966.207	4333
2968.044	4215
2969.879	4189
2971.714	4212
2973.548	4216
2975.383	4193
2977.218	4170
2979.051	4220
2980.883	4129
2982.715	4136
2984.547	4151
2986.379	4085
2988.21	4149
2990.04	4123
2991.87	4109
2993.7	4006
2995.53	3991
2997.359	4065
2999.187	3963
3001.015	3975
3002.842	4003
3004.669	3924
3006.497	3918
3008.323	3853
3010.148	3944
3011.974	3945
3013.797	3908
3015.623	3900
3017.447	3841
3019.27	3862
3021.094	3819
3022.915	3900
3024.737	3770
3026.56	3807
3028.38	3822
3030.201	3873
3032.022	3692
3033.84	3814
3035.662	3803
3037.481	3736
3039.298	3831
3041.117	3674
3042.933	3817
3044.752	3826
3046.568	3791
3048.385	3731
3050.2	3806
3052.016	3726
3053.83	3713
3055.646	3709
3057.46	3693
3059.272	3720
3061.086	3753
3062.898	3751
3064.711	3792
3066.524	3794
3068.335	3764
3070.145	3710
3071.956	3721
3073.766	3681
3075.576	3694
3077.385	3672
3079.193	3807
3081.002	3687
3082.81	3743
3084.618	3730
3086.425	3687
3088.231	3788
3090.036	3716
3091.842	3751
3093.648	3628
3095.452	3711
3097.257	3677
3099.06	3660
3100.863	3636
3102.666	3629
3104.47	3662
3106.272	3668
3108.073	3740
3109.875	3707
3111.676	3660
3113.477	3643
3115.277	3752
3117.077	3657
3118.874	3568
3120.673	3601
3122.473	3558
3124.271	3605
3126.066	3706
3127.863	3666
3129.66	3523
3131.456	3639
3133.252	3627
3135.047	3568
3136.842	3622
3138.635	3582
3140.429	3618
3142.223	3607
3144.016	3634
3145.808	3639
3147.6	3651
3149.392	3604
3151.183	3502
3152.975	3598
3154.765	3599
3156.553	3580
3158.344	3548
3160.132	3512
3161.922	3621
3163.71	3489
3165.497	3527
3167.285	3563
3169.071	3587
3170.858	3552
3172.645	3608
3174.429	3627
3176.214	3591
3177.998	3601
3179.783	3464
3181.568	3559
3183.351	3511
3185.133	3530
3186.915	3489
3188.698	3585
3190.481	3483
3192.261	3566
3194.042	3598
3195.822	3538
3197.601	3548
3199.381	3569
3201.161	3548
3202.939	3532
3204.717	3518
3206.495	3542
3208.272	3514
3210.05	3541
3211.826	3557
3213.602	3576
3215.376	3575
3217.151	3543
3218.927	3525
3220.702	3500
3222.476	3627
3224.249	3602
3226.021	3568
3227.793	3543
3229.567	3537
3231.339	3528
3233.109	3589
3234.88	3511
3236.651	3547
3238.421	3525
3240.191	3521
3241.96	3573
3243.728	3503
3245.497	3445
3247.263	3557
3249.033	3433
3250.799	3465
3252.566	3589
3254.331	3564
3256.097	3481
3257.863	3514
3259.628	3533
3261.392	3595
3263.156	3466
3264.919	3566
3266.683	3460
3268.447	3553
3270.208	3444
3271.969	3510
3273.731	3575
3275.492	3522
3277.253	3500
3279.013	3553
3280.773	3422
3282.532	3528
3284.291	3525
3286.05	3477
3287.808	3472
3289.566	3497
3291.323	3576
3293.079	3552
3294.835	3531
3296.593	3538
3298.348	3495
3300.102	3457
3301.857	3442
3303.611	3530
3305.366	3465
3307.119	3525
3308.872	3531
3310.624	3522
3312.376	3487
3314.129	3533
3315.881	3595
3317.631	3540
3319.38	3432
3321.13	3480
3322.88	3536
3324.631	3543
3326.379	3439
3328.126	3532
3329.875	3449
3331.622	3522
3333.371	3495
3335.116	3437
3336.863	3463
3338.609	3479
3340.353	3486
3342.1	3418
3343.845	3408
3345.588	3495
3347.332	3470
3349.074	3430
3350.817	3454
3352.56	3470
3354.303	3459
3356.043	3453
3357.785	3478
3359.525	3431
3361.268	3486
3363.007	3446
3364.745	3474
3366.485	3434
3368.223	3434
3369.962	3427
3371.701	3501
3373.438	3398
3375.174	3454
3376.911	3477
3378.647	3455
3380.384	3451
3382.118	3403
3383.854	3412
3385.588	3454
3387.322	3490
3389.057	3461
3390.79	3393
3392.522	3385
3394.255	3370
3395.987	3486
3397.719	3407
3399.451	3441
3401.181	3390
3402.911	3450
3404.641	3378
3406.371	3411
3408.101	3456
3409.83	3415
3411.558	3434
3413.285	3360
3415.011	3386
3416.739	3411
3418.467	3395
3420.193	3354
3421.919	3415
3423.644	3383
3425.368	3352
3427.094	3410
3428.818	3387
3430.542	3428
3432.264	3333
3433.987	3408
3435.712	3348
3437.434	3381
3439.155	3403
3440.876	3344
3442.596	3330
3444.317	3300
3446.039	3364
3447.757	3363
3449.477	3409
3451.195	3405
3452.914	3367
3454.632	3406
3456.35	3342
3458.067	3295
3459.784	3319
3461.5	3378
3463.216	3256
3464.932	3292
3466.647	3371
3468.362	3231
3470.076	3318
3471.789	3177
3473.505	3303
3475.217	3224
3476.929	3278
3478.641	3318
3480.354	3264
3482.066	3299
3483.777	3222
3485.487	3263
3487.197	3282
3488.908	3234
3490.617	3281
3492.327	3207
3494.035	3215
3495.743	3302
3497.451	3166
3499.158	3191
3500.866	3312
3502.572	3202
3504.278	3296
3505.984	3282
3507.689	3261
3509.396	3243
3511.1	3208
3512.804	3197
3514.508	3306
3516.211	3227
3517.913	3173
3519.616	3197
3521.319	3237
3523.021	3247
3524.722	3190
3526.422	3206
3528.124	3175
3529.824	3252
3531.524	3207
3533.222	3220
3534.921	3206
3536.62	3192
3538.318	3123
3540.016	3271
3541.714	3202
3543.41	3156
3545.107	3165
3546.803	3197
3548.5	3219
3550.194	3232
3551.889	3123
3553.583	3172
3555.279	3142
3556.972	3163
3558.666	3204
3560.358	3145
3562.051	3201
3563.742	3148
3565.435	3238
3567.126	3128
3568.817	3242
3570.507	3230
3572.197	3154
3573.888	3155
3575.577	3121
3577.265	3181
3578.954	3110
3580.642	3116
3582.329	3151
3584.017	3111
3585.704	3146
3587.391	3076
3589.077	3123
3590.762	3063
3592.449	3108
3594.133	3121
3595.817	3096
3597.501	3100
3599.185	3067
3600.869	3053
3602.552	3037
3604.234	3120
3605.916	3092
3607.598	2986
3609.279	3015
3610.961	3087
3612.642	3117
3614.321	3099
3616	3047
3617.68	3024
3619.36	3119
3621.039	3044
3622.716	3054
3624.394	3071
3626.071	3072
3627.748	3095
3629.425	3068
3631.102	2990
3632.778	3050
3634.452	3057
3636.127	3025
3637.803	3067
3639.477	2965
3641.151	3009
3642.823	3033
3644.497	2981
3646.171	2996
3647.842	2997
3649.515	3022
3651.185	3043
3652.857	2981
3654.527	2966
3656.198	2995
3657.868	2965
3659.537	3027
3661.207	2932
3662.875	2972
3664.544	3012
3666.212	2951
3667.879	2952
3669.546	2965
3671.212	2970
3672.88	2933
3674.546	2991
3676.211	3002
3677.875	2998
3679.541	2949
3681.205	2935
3682.87	2944
3684.533	2949
3686.196	2969
3687.859	2997
3689.521	3024
3691.184	2894
3692.845	2980
3694.507	2939
3696.167	2901
3697.827	2972
3699.487	3022
3701.148	2876
3702.808	2926
3704.466	2961
3706.125	2887
3707.783	2967
3709.442	2965
3711.099	2920
3712.757	2951
3714.412	2905
3716.068	2988
3717.725	2934
3719.381	2977
3721.036	2969
3722.689	2947
3724.344	2917
3725.998	2975
3727.652	2915
3729.305	2929
3730.958	2911
3732.61	2935
3734.262	2878
3735.915	2883
3737.565	2878
3739.217	2885
3740.866	2862
3742.516	2922
3744.165	2956
3745.816	2899
3747.464	2855
3749.113	2918
3750.761	2949
3752.409	2927
3754.057	2842
3755.703	2868
3757.35	2861
3758.996	2858
3760.641	2872
3762.289	2915
3763.933	2834
3765.577	2894
3767.222	2818
3768.865	2879
3770.508	2922
3772.152	2838
3773.796	2874
3775.438	2901
3777.079	2854
3778.721	2856
3780.363	2824
3782.003	2857
3783.643	2843
3785.283	2809
3786.923	2839
3788.563	2796
3790.203	2849
3791.841	2825
3793.479	2875
3795.115	2937
3796.753	2739
3798.391	2828
3800.027	2782
3801.664	2887
3803.299	2765
3804.935	2825
3806.571	2796
3808.206	2790
3809.839	2847
3811.473	2767
3813.107	2732
3814.74	2827
3816.375	2759
3818.006	2759
3819.638	2850
3821.27	2806
3822.9	2783
3824.532	2792
3826.163	2780
3827.792	2741
3829.423	2827
3831.051	2769
3832.682	2843
3834.311	2763
3835.938	2811
3837.566	2775
3839.193	2775
3840.821	2776
3842.448	2743
3844.075	2833
3845.7	2776
3847.325	2691
3848.951	2739
3850.576	2790
3852.201	2733
3853.825	2713
3855.448	2819
3857.072	2753
3858.694	2698
3860.318	2740
3861.939	2716
3863.562	2768
3865.183	2717
3866.804	2743
3868.426	2785
3870.045	2723
3871.666	2775
3873.285	2760
3874.904	2708
3876.524	2707
3878.142	2763
3879.76	2681
3881.378	2651
3882.995	2719
3884.612	2630
3886.229	2700
3887.845	2717
3889.461	2720
3891.076	2643
3892.691	2716
3894.307	2685
3895.922	2660
3897.536	2699
3899.149	2671
3900.761	2622
3902.374	2699
3903.988	2669
3905.6	2662
3907.212	2688
3908.822	2662
3910.433	2669
3912.045	2676
3913.655	2678
3915.265	2680
3916.875	2744
3918.483	2718
3920.093	2623
3921.702	2708
3923.309	2692
3924.917	2655
3926.523	2702
3928.13	2663
3929.739	2733
3931.344	2673
3932.95	2708
3934.555	2713
3936.159	2670
3937.766	2726
3939.369	2705
3940.974	2661
3942.577	2687
3944.181	2670
3945.783	2625
3947.386	2683
3948.989	2648
3950.59	2700
3952.191	2668
3953.791	2676
3955.394	2629
3956.994	2584
3958.593	2634
3960.192	2653
3961.791	2607
3963.392	2599
3964.99	2625
3966.588	2599
3968.185	2669
3969.782	2632
3971.379	2654
3972.976	2641
3974.572	2679
3976.168	2641
3977.763	2615
3979.358	2671
3980.954	2632
3982.548	2675
3984.142	2609
3985.736	2586
3987.329	2543
3988.922	2637
3990.516	2508
3992.108	2597
3993.698	2550
3995.29	2516
3996.881	2583
3998.473	2597
4000.064	2554
4001.653	2650
4003.242	2553
4004.832	2536
4006.422	2563
4008.01	2563
4009.598	2575
4011.186	2592
4012.773	2544
4014.36	2538
4015.947	2442
4017.534	2575
4019.119	2575
4020.705	2541
4022.291	2543
4023.876	2548
4025.461	2551
4027.044	2531
4028.627	2450
4030.211	2533
4031.795	2550
4033.378	2531
4034.96	2494
4036.542	2491
4038.124	2496
4039.704	2498
4041.286	2419
4042.867	2540
4044.447	2478
4046.026	2461
4047.606	2524
4049.187	2573
4050.765	2457
4052.343	2510
4053.92	2515
4055.498	2488
4057.076	2495
4058.654	2505
4060.23	2470
4061.806	2438
4063.381	2511
4064.957	2452
4066.533	2466
4068.107	2442
4069.682	2532
4071.256	2420
4072.829	2529
4074.404	2458
4075.977	2366
4077.549	2482
4079.121	2498
4080.693	2477
4082.265	2445
4083.836	2507
4085.407	2450
4086.977	2461
4088.547	2460
4090.117	2457
4091.687	2425
4093.256	2444
4094.825	2415
4096.392	2471
4097.96	2418
4099.528	2455
4101.097	2499
4102.663	2483
4104.229	2472
4105.795	2384
4107.361	2404
4108.928	2400
4110.493	2360
4112.058	2429
4113.621	2426
4115.186	2406
4116.75	2484
4118.313	2439
4119.876	2430
4121.438	2443
4123	2397
4124.562	2364
4126.125	2366
4127.686	2387
4129.246	2377
4130.807	2366
4132.367	2351
4133.927	2422
4135.486	2361
4137.046	2398
4138.604	2406
4140.162	2378
4141.72	2361
4143.279	2420
4144.836	2346
4146.393	2403
4147.949	2334
4149.505	2386
4151.062	2361
4152.617	2342
4154.172	2361
4155.727	2330
4157.281	2382
4158.836	2329
4160.39	2357
4161.943	2425
4163.496	2362
4165.048	2334
4166.601	2333
4168.154	2348
4169.706	2354
4171.257	2289
4172.808	2374
4174.358	2298
4175.909	2331
4177.458	2310
4179.008	2287
4180.558	2318
4182.106	2299
4183.655	2314
4185.204	2327
4186.751	2212
4188.298	2346
4189.845	2284
4191.392	2192
4192.939	2286
4194.485	2306
4196.031	2266
4197.576	2277
4199.121	2368
4200.666	2341
4202.211	2331
4203.754	2298
4205.298	2252
4206.84	2315
4208.384	2221
4209.927	2331
4211.47	2212
4213.011	2312
4214.552	2291
4216.094	2276
4217.635	2267
4219.175	2219
4220.716	2327
4222.255	2256
4223.793	2282
4225.335	2221
4226.873	2285
4228.411	2238
4229.948	2238
4231.486	2239
4233.024	2283
4234.562	2238
4236.098	2281
4237.634	2247
4239.169	2326
4240.705	2216
4242.241	2265
4243.776	2223
4245.31	2231
4246.844	2258
4248.378	2284
4249.911	2285
4251.445	2269
4252.978	2225
4254.51	2247
4256.042	2107
4257.574	2245
4259.107	2200
4260.638	2239
4262.169	2260
4263.699	2243
4265.228	2245
4266.759	2271
4268.289	2169
4269.818	2270
4271.345	2231
4272.874	2248
4274.402	2261
4275.931	2186
4277.458	2158
4278.985	2219
4280.512	2152
4282.037	2195
4283.564	2213
4285.089	2231
4286.615	2140
4288.139	2157
4289.664	2178
4291.187	2207
4292.712	2187
4294.235	2169
4295.759	2188
4297.281	2190
4298.804	2197
4300.327	2189
4301.849	2160
4303.37	2126
4304.891	2171
4306.412	2213
4307.933	2123
4309.453	2190
4310.973	2141
4312.492	2210
