398.1873	3579
400.7097	3545
403.2336	3578
405.7547	3639
408.2751	3636
410.7948	3620
413.3138	3597
415.83	3553
418.3497	3634
420.8666	3726
423.3829	3696
425.8985	3659
428.4133	3797
430.9275	3742
433.441	3824
435.9538	3678
438.4639	3749
440.9753	3813
443.4881	3778
445.9982	3871
448.5055	3824
451.0142	3841
453.5201	3821
456.0274	3779
458.5361	3845
461.04	3760
463.5453	3747
466.0478	3786
468.5517	3788
471.0549	3799
473.5574	3851
476.0572	3739
478.5584	3783
481.0568	3842
483.5545	3847
486.0557	3860
488.5521	3880
491.0478	3862
493.5449	3846
496.0392	3878
498.5349	3844
501.0299	3956
503.5222	3903
506.0139	3862
508.5048	3871
510.9991	3897
513.4887	3929
515.9777	3916
518.4659	3929
520.9534	3928
523.4403	3967
525.9306	3842
528.4161	3983
530.9009	3970
533.3851	3917
535.8687	4023
538.3535	3936
540.8356	3933
543.3171	3954
545.7979	4010
548.278	3939
550.7595	3839
553.2383	3967
555.7144	3932
558.1918	3977
560.6685	4058
563.1446	3935
565.6221	4051
568.0968	3955
570.5688	4141
573.0422	4003
575.515	3998
577.989	4104
580.4584	4117
582.9291	4091
585.3991	4103
587.8685	4115
590.3352	4126
592.8052	4030
595.2706	4256
597.7372	4079
600.2033	4052
602.6666	4066
605.1334	4117
607.5953	3991
610.0587	4085
612.5193	4113
614.9814	4063
617.4427	4073
619.9034	4040
622.3615	4022
624.8208	4063
627.2775	3985
629.7335	4072
632.1929	4029
634.6476	4140
637.1016	4084
639.5569	4000
642.0096	3982
644.4637	4072
646.9151	4059
649.3678	4077
651.8179	4032
654.2672	4085
656.7159	4102
659.166	4172
661.6154	4063
664.0622	4102
666.5082	4094
668.9537	4138
671.4005	4177
673.8445	4096
676.288	4126
678.7308	4231
681.1729	4172
683.6163	4120
686.0572	4283
688.4973	4227
690.9368	4107
693.3757	4227
695.8138	4253
698.2534	4274
700.6902	4183
703.1245	4190
705.56	4246
707.9949	4186
710.4311	4252
712.8647	4234
715.2957	4298
717.7279	4267
720.1595	4284
722.5905	4236
725.0208	4316
727.4505	4343
729.8795	4370
732.3058	4343
734.7336	4313
737.1626	4425
739.587	4393
742.0128	4399
744.4359	4489
746.8604	4484
749.2841	4446
751.7073	4466
754.1278	4486
756.5496	4456
758.9688	4519
761.3893	4563
763.8093	4511
766.2285	4426
768.6451	4497
771.0611	4431
773.4784	4497
775.895	4526
778.3091	4435
780.7244	4499
783.1371	4554
785.5493	4453
787.9626	4463
790.3754	4559
792.7856	4458
795.1951	4483
797.6039	4467
800.0121	4444
802.4236	4560
804.8306	4536
807.2369	4505
809.6425	4507
812.0475	4521
814.4538	4459
816.8575	4555
819.2606	4480
821.663	4573
824.0648	4639
826.4659	4520
828.8683	4592
831.2682	4575
833.6674	4534
836.066	4570
838.4639	4514
840.8632	4544
843.2579	4587
845.6539	4600
848.0493	4691
850.444	4638
852.84	4598
855.2315	4618
857.6243	4620
860.0165	4612
862.4081	4564
864.797	4617
867.1892	4633
869.5789	4567
871.9659	4594
874.3542	4658
876.74	4626
879.129	4577
881.5155	4622
883.8994	4552
886.2845	4636
888.6671	4720
891.051	4616
893.4343	4690
895.8169	4667
898.197	4650
900.5783	4658
902.9571	4630
905.3372	4560
907.7167	4681
910.0936	4643
912.4698	4704
914.8474	4695
917.2244	4682
919.5987	4789
921.9744	4753
924.3475	4744
926.72	4766
929.0918	4755
931.4669	4813
933.8375	4788
936.2074	4847
938.5767	4809
940.9454	4961
943.3154	5050
945.6829	5089
948.0497	5147
950.4178	5341
952.7833	5430
955.1483	5717
957.5145	5821
959.8782	5799
962.2412	5834
964.6036	5708
966.9655	5450
969.3266	5293
971.6871	5183
974.0471	5004
976.4064	4903
978.765	4927
981.125	4822
983.4824	4814
985.8373	4867
988.1935	4742
990.549	4719
992.9039	4793
995.2602	4735
997.6119	4667
999.965	4743
1002.317	4772
1004.667	4749
1007.02	4899
1009.371	4696
1011.719	4815
1014.068	4858
1016.415	4870
1018.765	4797
1021.111	4874
1023.458	4781
1025.804	4875
1028.147	4900
1030.49	4775
1032.837	4839
1035.179	4863
1037.522	4844
1039.862	4868
1042.204	4872
1044.546	4808
1046.884	4969
1049.224	4958
1051.562	4942
1053.899	4958
1056.237	4965
1058.575	4919
1060.91	5002
1063.244	4998
1065.58	5017
1067.913	4890
1070.248	5007
1072.579	4949
1074.911	4991
1077.242	4998
1079.572	4966
1081.905	4907
1084.234	4855
1086.562	4937
1088.89	4959
1091.217	4883
1093.544	4895
1095.871	4884
1098.197	4832
1100.521	4929
1102.845	4962
1105.169	4865
1107.491	4909
1109.814	4951
1112.135	4892
1114.456	4910
1116.776	4953
1119.096	4950
1121.415	5035
1123.734	4981
1126.052	5000
1128.369	4946
1130.686	4896
1133.002	4993
1135.318	4949
1137.632	4811
1139.945	5019
1142.258	4918
1144.573	4977
1146.884	4991
1149.196	4852
1151.505	5039
1153.816	4973
1156.124	4912
1158.435	4931
1160.742	5006
1163.051	5023
1165.356	4895
1167.663	4985
1169.97	4917
1172.276	5000
1174.579	4967
1176.881	4959
1179.186	5052
1181.487	4987
1183.79	4974
1186.092	4961
1188.392	4868
1190.691	4940
1192.991	4919
1195.291	4952
1197.588	5011
1199.885	4970
1202.181	5072
1204.479	4876
1206.775	5038
1209.07	4949
1211.363	4964
1213.656	4987
1215.949	4879
1218.241	5057
1220.534	4810
1222.825	5042
1225.115	4983
1227.405	5005
1229.693	5014
1231.984	5136
1234.271	5010
1236.558	5070
1238.845	5082
1241.131	5110
1243.416	5212
1245.703	5070
1247.987	5212
1250.269	5040
1252.552	5111
1254.834	5028
1257.118	5106
1259.399	5026
1261.678	5132
1263.958	5080
1266.237	5114
1268.516	5096
1270.794	5090
1273.072	5141
1275.347	5265
1277.624	5181
1279.899	5225
1282.175	5213
1284.449	5104
1286.722	5233
1288.995	5139
1291.266	5049
1293.54	5110
1295.81	5144
1298.081	5118
1300.35	5007
1302.62	5101
1304.889	5119
1307.156	5030
1309.425	5072
1311.69	5104
1313.957	5099
1316.222	5158
1318.488	5108
1320.751	5073
1323.016	5053
1325.278	4997
1327.54	5130
1329.803	5040
1332.065	5059
1334.325	5065
1336.584	5118
1338.843	5088
1341.101	4987
1343.36	5145
1345.617	5128
1347.876	5109
1350.131	5115
1352.387	5086
1354.643	5130
1356.897	5152
1359.151	5136
1361.403	5106
1363.656	5037
1365.909	5156
1368.16	5155
1370.409	5088
1372.659	5096
1374.909	5138
1377.157	5081
1379.407	5171
1381.655	5108
1383.9	5109
1386.147	5128
1388.393	5143
1390.64	5209
1392.885	5220
1395.127	5171
1397.37	5285
1399.614	5245
1401.854	5246
1404.098	5143
1406.339	5179
1408.578	5205
1410.818	5123
1413.056	5252
1415.297	5239
1417.533	5218
1419.771	5276
1422.006	5199
1424.243	5195
1426.479	5296
1428.715	5180
1430.948	5170
1433.182	5269
1435.414	5186
1437.647	5215
1439.88	5359
1442.11	5254
1444.342	5297
1446.571	5365
1448.799	5336
1451.029	5336
1453.258	5392
1455.485	5356
1457.711	5317
1459.937	5257
1462.164	5334
1464.39	5226
1466.614	5315
1468.838	5203
1471.06	5257
1473.283	5258
1475.506	5324
1477.727	5326
1479.949	5272
1482.169	5267
1484.389	5200
1486.609	5121
1488.828	5125
1491.045	5205
1493.261	5221
1495.477	5237
1497.693	5191
1499.91	5044
1502.125	5193
1504.339	5168
1506.553	5217
1508.766	5169
1510.979	5135
1513.191	5167
1515.402	5193
1517.613	5140
1519.823	5127
1522.033	5218
1524.242	5201
1526.451	5200
1528.657	5122
1530.865	5063
1533.072	5165
1535.278	5163
1537.484	5188
1539.687	5309
1541.892	5188
1544.096	5190
1546.299	5227
1548.502	5224
1550.703	5239
1552.905	5196
1555.104	5290
1557.303	5255
1559.505	5222
1561.703	5162
1563.902	5266
1566.099	5302
1568.295	5365
1570.494	5186
1572.689	5282
1574.883	5312
1577.079	5218
1579.272	5282
1581.467	5220
1583.659	5222
1585.853	5316
1588.044	5364
1590.234	5327
1592.424	5355
1594.615	5363
1596.806	5333
1598.994	5366
1601.182	5320
1603.369	5373
1605.557	5352
1607.744	5415
1609.929	5456
1612.114	5347
1614.298	5343
1616.482	5325
1618.667	5397
1620.85	5390
1623.032	5342
1625.214	5220
1627.395	5452
1629.575	5399
1631.755	5414
1633.935	5336
1636.114	5489
1638.292	5482
1640.471	5447
1642.647	5476
1644.823	5443
1647	5341
1649.175	5442
1651.348	5454
1653.525	5511
1655.698	5435
1657.87	5530
1660.043	5449
1662.213	5463
1664.387	5492
1666.558	5448
1668.727	5469
1670.896	5484
1673.064	5528
1675.233	5486
1677.401	5452
1679.569	5459
1681.735	5497
1683.902	5565
1686.066	5425
1688.233	5448
1690.397	5470
1692.559	5439
1694.723	5459
1696.885	5514
1699.048	5414
1701.21	5484
1703.37	5400
1705.53	5323
1707.689	5381
1709.849	5329
1712.009	5286
1714.166	5303
1716.323	5410
1718.479	5334
1720.634	5355
1722.793	5406
1724.948	5352
1727.102	5382
1729.255	5445
1731.408	5333
1733.562	5383
1735.714	5485
1737.865	5391
1740.016	5399
1742.166	5469
1744.316	5329
1746.467	5361
1748.616	5468
1750.764	5388
1752.911	5416
1755.056	5460
1757.205	5495
1759.35	5548
1761.496	5371
1763.641	5379
1765.785	5416
1767.927	5465
1770.072	5489
1772.214	5469
1774.355	5448
1776.496	5501
1778.637	5509
1780.778	5439
1782.918	5402
1785.057	5396
1787.194	5439
1789.333	5550
1791.472	5430
1793.608	5445
1795.745	5481
1797.879	5539
1800.015	5562
1802.148	5491
1804.284	5545
1806.417	5510
1808.548	5516
1810.682	5527
1812.812	5490
1814.946	5423
1817.075	5417
1819.205	5463
1821.335	5463
1823.463	5441
1825.59	5549
1827.721	5416
1829.847	5380
1831.973	5452
1834.098	5448
1836.223	5508
1838.351	5511
1840.475	5429
1842.598	5304
1844.721	5488
1846.843	5453
1848.966	5445
1851.087	5518
1853.21	5394
1855.33	5454
1857.449	5527
1859.568	5385
1861.688	5403
1863.806	5321
1865.924	5441
1868.039	5509
1870.155	5473
1872.273	5421
1874.388	5514
1876.503	5454
1878.617	5511
1880.73	5362
1882.844	5397
1884.956	5520
1887.068	5415
1889.18	5443
1891.291	5560
1893.4	5418
1895.511	5450
1897.621	5520
1899.73	5457
1901.837	5493
1903.944	5445
1906.053	5514
1908.159	5532
1910.265	5578
1912.369	5491
1914.474	5458
1916.577	5393
1918.683	5511
1920.785	5442
1922.888	5579
1924.989	5511
1927.091	5567
1929.193	5594
1931.294	5631
1933.393	5574
1935.493	5587
1937.59	5523
1939.689	5539
1941.788	5631
1943.884	5576
1945.98	5576
1948.077	5613
1950.171	5395
1952.267	5585
1954.361	5528
1956.455	5633
1958.548	5582
1960.64	5572
1962.733	5592
1964.824	5615
1966.915	5484
1969.005	5485
1971.096	5576
1973.185	5525
1975.275	5509
1977.363	5570
1979.45	5609
1981.537	5536
1983.623	5545
1985.711	5482
1987.796	5478
1989.881	5469
1991.965	5582
1994.047	5513
1996.132	5528
1998.215	5430
2000.297	5473
2002.378	5512
2004.46	5491
2006.54	5468
2008.62	5553
2010.7	5472
2012.779	5546
2014.858	5485
2016.934	5555
2019.013	5476
2021.09	5561
2023.165	5466
2025.241	5540
2027.317	5393
2029.39	5495
2031.466	5582
2033.538	5521
2035.612	5580
2037.683	5497
2039.755	5471
2041.827	5564
2043.898	5433
2045.968	5518
2048.038	5538
2050.106	5581
2052.177	5593
2054.244	5426
2056.313	5475
2058.379	5503
2060.444	5585
2062.511	5517
2064.577	5443
2066.641	5531
2068.705	5569
2070.77	5521
2072.832	5548
2074.896	5537
2076.958	5580
2079.02	5554
2081.081	5469
2083.141	5586
2085.2	5590
2087.261	5532
2089.319	5510
2091.377	5538
2093.435	5623
2095.492	5546
2097.552	5519
2099.607	5626
2101.663	5615
2103.718	5693
2105.771	5545
2107.826	5473
2109.879	5454
2111.932	5615
2113.985	5448
2116.037	5522
2118.088	5520
2120.141	5482
2122.191	5596
2124.239	5573
2126.288	5625
2128.337	5546
2130.387	5509
2132.434	5568
2134.481	5522
2136.528	5515
2138.574	5489
2140.618	5551
2142.665	5444
2144.71	5533
2146.753	5487
2148.797	5395
2150.838	5612
2152.883	5568
2154.923	5546
2156.965	5631
2159.007	5466
2161.046	5631
2163.086	5560
2165.126	5514
2167.163	5550
2169.202	5563
2171.239	5567
2173.277	5515
2175.314	5397
2177.349	5456
2179.385	5486
2181.42	5534
2183.453	5545
2185.49	5499
2187.522	5501
2189.555	5447
2191.586	5574
2193.619	5479
2195.651	5513
2197.682	5491
2199.711	5538
2201.74	5341
2203.769	5462
2205.799	5393
2207.828	5559
2209.855	5423
2211.882	5400
2213.908	5423
2215.934	5453
2217.961	5413
2219.986	5446
2222.01	5370
2224.034	5501
2226.057	5562
2228.08	5316
2230.104	5374
2232.124	5427
2234.145	5512
2236.166	5376
2238.186	5444
2240.207	5359
2242.227	5427
2244.244	5487
2246.262	5411
2248.28	5625
2250.299	5439
2252.314	5422
2254.33	5574
2256.346	5347
2258.36	5505
2260.375	5518
2262.391	5474
2264.403	5405
2266.416	5433
2268.427	5463
2270.44	5447
2272.453	5511
2274.463	5460
2276.474	5403
2278.483	5365
2280.493	5452
2282.501	5639
2284.51	5447
2286.518	5483
2288.524	5451
2290.532	5506
2292.537	5311
2294.544	5550
2296.55	5425
2298.554	5405
2300.557	5419
2302.562	5455
2304.566	5427
2306.568	5468
2308.569	5430
2310.572	5523
2312.573	5375
2314.573	5310
2316.574	5448
2318.573	5551
2320.571	5476
2322.571	5428
2324.569	5388
2326.567	5529
2328.564	5449
2330.56	5393
2332.556	5389
2334.551	5296
2336.546	5418
2338.542	5395
2340.535	5266
2342.529	5335
2344.521	5442
2346.512	5347
2348.505	5389
2350.497	5317
2352.487	5391
2354.478	5385
2356.468	5336
2358.457	5401
2360.446	5423
2362.434	5355
2364.422	5434
2366.408	5393
2368.395	5397
2370.383	5486
2372.369	5362
2374.353	5465
2376.338	5261
2378.321	5334
2380.307	5388
2382.29	5416
2384.272	5300
2386.254	5449
2388.235	5254
2390.218	5390
2392.198	5304
2394.179	5349
2396.157	5348
2398.137	5428
2400.115	5264
2402.095	5259
2404.072	5337
2406.048	5298
2408.026	5294
2410.001	5284
2411.977	5324
2413.953	5308
2415.927	5265
2417.9	5372
2419.875	5348
2421.847	5403
2423.821	5259
2425.792	5351
2427.763	5300
2429.736	5354
2431.706	5336
2433.677	5352
2435.646	5278
2437.615	5267
2439.583	5342
2441.551	5296
2443.519	5308
2445.486	5281
2447.452	5309
2449.418	5344
2451.383	5361
2453.348	5350
2455.314	5255
2457.278	5411
2459.241	5318
2461.205	5264
2463.167	5225
2465.131	5211
2467.091	5417
2469.052	5211
2471.012	5253
2472.972	5317
2474.932	5404
2476.891	5243
2478.85	5331
2480.808	5280
2482.766	5245
2484.722	5221
2486.68	5387
2488.636	5309
2490.591	5223
2492.546	5261
2494.5	5156
2496.456	5335
2498.41	5224
2500.362	5221
2502.315	5305
2504.266	5297
2506.218	5123
2508.169	5268
2510.121	5257
2512.07	5334
2514.019	5355
2515.968	5301
2517.918	5322
2519.866	5207
2521.813	5216
2523.76	5250
2525.707	5279
2527.653	5159
2529.599	5218
2531.543	5323
2533.489	5273
2535.433	5203
2537.376	5275
2539.32	5341
2541.264	5217
2543.205	5154
2545.147	5305
2547.087	5147
2549.029	5194
2550.969	5177
2552.908	5276
2554.847	5267
2556.786	5259
2558.724	5242
2560.663	5258
2562.6	5345
2564.537	5258
2566.473	5200
2568.408	5184
2570.345	5253
2572.28	5333
2574.214	5214
2576.148	5154
2578.081	5308
2580.014	5267
2581.947	5382
2583.879	5255
2585.81	5285
2587.741	5333
2589.67	5411
2591.602	5293
2593.532	5217
2595.461	5140
2597.388	5318
2599.316	5215
2601.244	5212
2603.172	5340
2605.098	5209
2607.023	5334
2608.949	5257
2610.873	5244
2612.8	5186
2614.723	5221
2616.647	5214
2618.569	5213
2620.493	5243
2622.416	5321
2624.338	5249
2626.258	5290
2628.179	5359
2630.099	5171
2632.019	5273
2633.939	5267
2635.857	5320
2637.775	5256
2639.694	5278
2641.61	5352
2643.528	5230
2645.444	5353
2647.361	5147
2649.276	5264
2651.19	5376
2653.105	5221
2655.019	5263
2656.934	5213
2658.846	5276
2660.758	5363
2662.67	5259
2664.583	5161
2666.493	5268
2668.404	5347
2670.313	5337
2672.223	5222
2674.134	5227
2676.042	5268
2677.95	5292
2679.858	5233
2681.765	5220
2683.673	5267
2685.579	5155
2687.483	5198
2689.389	5239
2691.294	5257
2693.198	5164
2695.104	5191
2697.006	5259
2698.909	5238
2700.811	5193
2702.713	5182
2704.615	5322
2706.516	5196
2708.417	5182
2710.316	5260
2712.216	5185
2714.115	5202
2716.014	5134
2717.913	5034
2719.81	5257
2721.707	5187
2723.603	5195
2725.501	5279
2727.396	5138
2729.292	5200
2731.186	5184
2733.081	5193
2734.976	5148
2736.87	5326
2738.762	5134
2740.653	5152
2742.546	5087
2744.437	5193
2746.329	5206
2748.22	5234
2750.11	5174
2751.999	5171
2753.889	5178
2755.778	5247
2757.666	5112
2759.553	5199
2761.44	5024
2763.328	5178
2765.215	5165
2767.101	5168
2768.986	5107
2770.87	5240
2772.754	5092
2774.638	5253
2776.523	5195
2778.405	5109
2780.288	5082
2782.17	5130
2784.051	5100
2785.934	5183
2787.814	5160
2789.694	5177
2791.574	5050
2793.453	5206
2795.332	5119
2797.212	5159
2799.088	5132
2800.966	5207
2802.843	5202
2804.719	5187
2806.597	5095
2808.471	5119
2810.346	5096
2812.221	5197
2814.094	5095
2815.969	5190
2817.843	5149
2819.714	5112
2821.587	5114
2823.459	5075
2825.329	5176
2827.202	5095
2829.072	5111
2830.942	5120
2832.811	5172
2834.68	5095
2836.549	5077
2838.418	5140
2840.284	5203
2842.152	5184
2844.018	5143
2845.885	5205
2847.751	4971
2849.616	5187
2851.482	5096
2853.345	5136
2855.208	5122
2857.074	5201
2858.937	5225
2860.799	5199
2862.66	5239
2864.522	5206
2866.385	5288
2868.245	5222
2870.104	5371
2871.964	5347
2873.824	5430
2875.683	5382
2877.542	5387
2879.4	5410
2881.257	5408
2883.114	5421
2884.97	5404
2886.827	5445
2888.683	5440
2890.537	5459
2892.392	5434
2894.246	5501
2896.1	5410
2897.954	5477
2899.807	5367
2901.66	5393
2903.51	5368
2905.362	5315
2907.214	5545
2909.065	5461
2910.915	5415
2912.765	5543
2914.613	5389
2916.463	5385
2918.311	5552
2920.158	5602
2922.006	5673
2923.853	5633
2925.698	5676
2927.546	5727
2929.392	5711
2931.236	5847
2933.081	5691
2934.924	5710
2936.77	5846
2938.613	5788
2940.455	5864
2942.298	5888
2944.139	5923
2945.982	5893
2947.823	5958
2949.662	5882
2951.503	5844
2953.342	5819
2955.182	5806
2957.021	5717
2958.858	5677
2960.697	5687
2962.534	5748
2964.37	5631
2966.207	5600
2968.044	5557
2969.879	5576
2971.714	5530
2973.548	5502
2975.383	5607
2977.218	5461
2979.051	5517
2980.883	5488
2982.715	5501
2984.547	5386
2986.379	5460
2988.21	5468
2990.04	5341
2991.87	5362
2993.7	5319
2995.53	5286
2997.359	5315
2999.187	5231
3001.015	5167
3002.842	5209
3004.669	5208
3006.497	5097
3008.323	5107
3010.148	5113
3011.974	5036
3013.797	5122
3015.623	5064
3017.447	5175
3019.27	5018
3021.094	5005
3022.915	5064
3024.737	4974
3026.56	4900
3028.38	4941
3030.201	5001
3032.022	4955
3033.84	4922
3035.662	4878
3037.481	4969
3039.298	4953
3041.117	4956
3042.933	4920
3044.752	5044
3046.568	4862
3048.385	4924
3050.2	4957
3052.016	4905
3053.83	4954
3055.646	4905
3057.46	4939
3059.272	4919
3061.086	4868
3062.898	4937
3064.711	4838
3066.524	4969
3068.335	4842
3070.145	4892
3071.956	4866
3073.766	4898
3075.576	4894
3077.385	4935
3079.193	4918
3081.002	4898
3082.81	4818
3084.618	4881
3086.425	4863
3088.231	4846
3090.036	4865
3091.842	4797
3093.648	4738
3095.452	4817
3097.257	4749
3099.06	4797
3100.863	4728
3102.666	4788
3104.47	4812
3106.272	4718
3108.073	4743
3109.875	4874
3111.676	4826
3113.477	4816
3115.277	4821
3117.077	4746
3118.874	4832
3120.673	4773
3122.473	4749
3124.271	4760
3126.066	4757
3127.863	4809
3129.66	4727
3131.456	4740
3133.252	4722
3135.047	4790
3136.842	4655
3138.635	4717
3140.429	4785
3142.223	4600
3144.016	4749
3145.808	4717
3147.6	4704
3149.392	4692
3151.183	4705
3152.975	4726
3154.765	4669
3156.553	4688
3158.344	4724
3160.132	4661
3161.922	4740
3163.71	4698
3165.497	4684
3167.285	4635
3169.071	4746
3170.858	4757
3172.645	4689
3174.429	4659
3176.214	4649
3177.998	4705
3179.783	4613
3181.568	4759
3183.351	4589
3185.133	4621
3186.915	4520
3188.698	4533
3190.481	4700
3192.261	4710
3194.042	4712
3195.822	4666
3197.601	4567
3199.381	4627
3201.161	4576
3202.939	4557
3204.717	4725
3206.495	4656
3208.272	4563
3210.05	4641
3211.826	4628
3213.602	4606
3215.376	4672
3217.151	4613
3218.927	4562
3220.702	4571
3222.476	4650
3224.249	4645
3226.021	4592
3227.793	4621
3229.567	4684
3231.339	4592
3233.109	4612
3234.88	4653
3236.651	4632
3238.421	4680
3240.191	4695
3241.96	4568
3243.728	4521
3245.497	4670
3247.263	4643
3249.033	4597
3250.799	4582
3252.566	4647
3254.331	4589
3256.097	4569
3257.863	4533
3259.628	4681
3261.392	4616
3263.156	4587
3264.919	4683
3266.683	4549
3268.447	4593
3270.208	4655
3271.969	4596
3273.731	4542
3275.492	4651
3277.253	4586
3279.013	4586
3280.773	4615
3282.532	4654
3284.291	4548
3286.05	4620
3287.808	4718
3289.566	4676
3291.323	4583
3293.079	4525
3294.835	4573
3296.593	4586
3298.348	4581
3300.102	4647
3301.857	4562
3303.611	4660
3305.366	4691
3307.119	4613
3308.872	4618
3310.624	4680
3312.376	4576
3314.129	4610
3315.881	4572
3317.631	4593
3319.38	4582
3321.13	4509
3322.88	4622
3324.631	4542
3326.379	4604
3328.126	4521
3329.875	4656
3331.622	4516
3333.371	4564
3335.116	4573
3336.863	4603
3338.609	4490
3340.353	4439
3342.1	4601
3343.845	4575
3345.588	4682
3347.332	4501
3349.074	4518
3350.817	4589
3352.56	4563
3354.303	4553
3356.043	4541
3357.785	4530
3359.525	4560
3361.268	4495
3363.007	4544
3364.745	4596
3366.485	4498
3368.223	4547
3369.962	4538
3371.701	4495
3373.438	4567
3375.174	4457
3376.911	4521
3378.647	4479
3380.384	4584
3382.118	4384
3383.854	4479
3385.588	4461
3387.322	4445
3389.057	4560
3390.79	4490
3392.522	4505
3394.255	4505
3395.987	4507
3397.719	4458
3399.451	4530
3401.181	4450
3402.911	4434
3404.641	4491
3406.371	4527
3408.101	4391
3409.83	4517
3411.558	4432
3413.285	4433
3415.011	4384
3416.739	4404
3418.467	4406
3420.193	4395
3421.919	4445
3423.644	4438
3425.368	4424
3427.094	4396
3428.818	4364
3430.542	4374
3432.264	4387
3433.987	4354
3435.712	4308
3437.434	4468
3439.155	4339
3440.876	4356
3442.596	4400
3444.317	4389
3446.039	4399
3447.757	4396
3449.477	4385
3451.195	4275
3452.914	4364
3454.632	4349
3456.35	4344
3458.067	4356
3459.784	4296
3461.5	4420
3463.216	4279
3464.932	4319
3466.647	4335
3468.362	4416
3470.076	4378
3471.789	4243
3473.505	4290
3475.217	4246
3476.929	4240
3478.641	4360
3480.354	4251
3482.066	4228
3483.777	4260
3485.487	4226
3487.197	4199
3488.908	4286
3490.617	4285
3492.327	4274
3494.035	4205
3495.743	4253
3497.451	4177
3499.158	4249
3500.866	4258
3502.572	4185
3504.278	4141
3505.984	4231
3507.689	4143
3509.396	4282
3511.1	4194
3512.804	4157
3514.508	4125
3516.211	4134
3517.913	4147
3519.616	4196
3521.319	4263
3523.021	4223
3524.722	4269
3526.422	4221
3528.124	4194
3529.824	4139
3531.524	4222
3533.222	4139
3534.921	4156
3536.62	4131
3538.318	4125
3540.016	4096
3541.714	4209
3543.41	4089
3545.107	4194
3546.803	4097
3548.5	4065
3550.194	4103
3551.889	4152
3553.583	4066
3555.279	4108
3556.972	4177
3558.666	4125
3560.358	4106
3562.051	4092
3563.742	4050
3565.435	4130
3567.126	4125
3568.817	4126
3570.507	4083
3572.197	4065
3573.888	4116
3575.577	4076
3577.265	4063
3578.954	4043
3580.642	4061
3582.329	4096
3584.017	4080
3585.704	4075
3587.391	4059
3589.077	4025
3590.762	4143
3592.449	4035
3594.133	3970
3595.817	3987
3597.501	4118
3599.185	4092
3600.869	3993
3602.552	3960
3604.234	4032
3605.916	3997
3607.598	3875
3609.279	3921
3610.961	3989
3612.642	4019
3614.321	3987
3616	3858
3617.68	3870
3619.36	4040
3621.039	3931
3622.716	4058
3624.394	3976
3626.071	3955
3627.748	3904
3629.425	3895
3631.102	3958
3632.778	4017
3634.452	3950
3636.127	3928
3637.803	3887
3639.477	3848
3641.151	3910
3642.823	3939
3644.497	3899
3646.171	3877
3647.842	3882
3649.515	3823
3651.185	3875
3652.857	3897
3654.527	3931
3656.198	3854
3657.868	3852
3659.537	3838
3661.207	3912
3662.875	3903
3664.544	3922
3666.212	3915
3667.879	3846
3669.546	3866
3671.212	3918
3672.88	3915
3674.546	3808
3676.211	3869
3677.875	3876
3679.541	3816
3681.205	3824
3682.87	3790
3684.533	3756
3686.196	3832
3687.859	3806
3689.521	3831
3691.184	3785
3692.845	3864
3694.507	3790
3696.167	3765
3697.827	3824
3699.487	3781
3701.148	3789
3702.808	3741
3704.466	3854
3706.125	3808
3707.783	3855
3709.442	3823
3711.099	3804
3712.757	3762
3714.412	3746
3716.068	3777
3717.725	3823
3719.381	3706
3721.036	3849
3722.689	3742
3724.344	3808
3725.998	3766
3727.652	3754
3729.305	3781
3730.958	3688
3732.61	3769
3734.262	3739
3735.915	3768
3737.565	3676
3739.217	3727
3740.866	3763
3742.516	3805
3744.165	3754
3745.816	3703
3747.464	3709
3749.113	3729
3750.761	3745
3752.409	3732
3754.057	3768
3755.703	3688
3757.35	3645
3758.996	3714
3760.641	3733
3762.289	3713
3763.933	3731
3765.577	3675
3767.222	3770
3768.865	3662
3770.508	3689
3772.152	3758
3773.796	3653
3775.438	3698
3777.079	3681
3778.721	3657
3780.363	3675
3782.003	3665
3783.643	3673
3785.283	3703
3786.923	3621
3788.563	3723
3790.203	3660
3791.841	3642
3793.479	3662
3795.115	3666
3796.753	3581
3798.391	3646
3800.027	3645
3801.664	3566
3803.299	3588
3804.935	3682
3806.571	3656
3808.206	3617
3809.839	3654
3811.473	3583
3813.107	3557
3814.74	3660
3816.375	3554
3818.006	3615
3819.638	3588
3821.27	3603
3822.9	3524
3824.532	3544
3826.163	3576
3827.792	3600
3829.423	3638
3831.051	3642
3832.682	3537
3834.311	3491
3835.938	3596
3837.566	3520
3839.193	3553
3840.821	3556
3842.448	3644
3844.075	3577
3845.7	3540
3847.325	3545
3848.951	3563
3850.576	3575
3852.201	3460
3853.825	3582
3855.448	3545
3857.072	3513
3858.694	3563
3860.318	3463
3861.939	3479
3863.562	3590
3865.183	3536
3866.804	3587
3868.426	3504
3870.045	3495
3871.666	3505
3873.285	3450
3874.904	3505
3876.524	3519
3878.142	3487
3879.76	3477
3881.378	3509
3882.995	3484
3884.612	3485
3886.229	3472
3887.845	3490
3889.461	3491
3891.076	3514
3892.691	3480
3894.307	3454
3895.922	3434
3897.536	3445
3899.149	3497
3900.761	3412
3902.374	3464
3903.988	3540
3905.6	3551
3907.212	3521
3908.822	3445
3910.433	3454
3912.045	3450
3913.655	3482
3915.265	3435
3916.875	3448
3918.483	3517
3920.093	3448
3921.702	3503
3923.309	3506
3924.917	3446
3926.523	3476
3928.13	3383
3929.739	3468
3931.344	3433
3932.95	3470
3934.555	3449
3936.159	3406
3937.766	3406
3939.369	3360
3940.974	3432
3942.577	3445
3944.181	3453
3945.783	3389
3947.386	3472
3948.989	3417
3950.59	3467
3952.191	3420
3953.791	3403
3955.394	3251
3956.994	3411
3958.593	3373
3960.192	3355
3961.791	3334
3963.392	3413
3964.99	3420
3966.588	3448
3968.185	3334
3969.782	3312
3971.379	3364
3972.976	3438
3974.572	3345
3976.168	3376
3977.763	3399
3979.358	3368
3980.954	3408
3982.548	3311
3984.142	3301
3985.736	3311
3987.329	3301
3988.922	3191
3990.516	3353
3992.108	3329
3993.698	3396
3995.29	3351
3996.881	3328
3998.473	3320
4000.064	3299
4001.653	3240
4003.242	3314
4004.832	3165
4006.422	3242
4008.01	3352
4009.598	3286
4011.186	3332
4012.773	3282
4014.36	3288
4015.947	3315
4017.534	3242
4019.119	3229
4020.705	3255
4022.291	3311
4023.876	3274
4025.461	3200
4027.044	3263
4028.627	3241
4030.211	3233
4031.795	3257
4033.378	3195
4034.96	3103
4036.542	3240
4038.124	3256
4039.704	3212
4041.286	3194
4042.867	3150
4044.447	3168
4046.026	3215
4047.606	3178
4049.187	3179
4050.765	3174
4052.343	3195
4053.92	3204
4055.498	3176
4057.076	3216
4058.654	3268
4060.23	3181
4061.806	3106
4063.381	3165
4064.957	3188
4066.533	3128
4068.107	3161
4069.682	3219
4071.256	3139
4072.829	3201
4074.404	3174
4075.977	3154
4077.549	3156
4079.121	3210
4080.693	3164
4082.265	3170
4083.836	3196
4085.407	3143
4086.977	3214
4088.547	3118
4090.117	3116
4091.687	3141
4093.256	3083
4094.825	3151
4096.392	3112
4097.96	3122
4099.528	3141
4101.097	3109
4102.663	3077
4104.229	3050
4105.795	3156
4107.361	3118
4108.928	3108
4110.493	3070
4112.058	3116
4113.621	3125
4115.186	3107
4116.75	3118
4118.313	2981
4119.876	3078
4121.438	3056
4123	3062
4124.562	3021
4126.125	3029
4127.686	3139
4129.246	3056
4130.807	3029
4132.367	3028
4133.927	3005
4135.486	3035
4137.046	3016
4138.604	2956
4140.162	3147
4141.72	3025
4143.279	3082
4144.836	3038
4146.393	3021
4147.949	2999
4149.505	3027
4151.062	3081
4152.617	3019
4154.172	2972
4155.727	3082
4157.281	2997
4158.836	3032
4160.39	2996
4161.943	2979
4163.496	2977
4165.048	3011
4166.601	3015
4168.154	2923
4169.706	2953
4171.257	2974
4172.808	2932
4174.358	2961
4175.909	2989
4177.458	2948
4179.008	2942
4180.558	2973
4182.106	2964
4183.655	2905
4185.204	2936
4186.751	2971
4188.298	2988
4189.845	2911
4191.392	2938
4192.939	2980
4194.485	2959
4196.031	2917
4197.576	2974
4199.121	2989
4200.666	2929
4202.211	2842
4203.754	2899
4205.298	2911
4206.84	2982
4208.384	2914
4209.927	2887
4211.47	2910
4213.011	2923
4214.552	2875
4216.094	2851
4217.635	2906
4219.175	2876
4220.716	2921
4222.255	2926
4223.793	2877
4225.335	2937
4226.873	2924
4228.411	2806
4229.948	2891
4231.486	2832
4233.024	2885
4234.562	2887
4236.098	2890
4237.634	2856
4239.169	2893
4240.705	2868
4242.241	2885
4243.776	2896
4245.31	2777
4246.844	2835
4248.378	2811
4249.911	2901
4251.445	2798
4252.978	2848
4254.51	2855
4256.042	2859
4257.574	2830
4259.107	2879
4260.638	2841
4262.169	2838
4263.699	2825
4265.228	2839
4266.759	2864
4268.289	2846
4269.818	2795
4271.345	2858
4272.874	2777
4274.402	2822
4275.931	2800
4277.458	2822
4278.985	2825
4280.512	2764
4282.037	2854
4283.564	2789
4285.089	2808
4286.615	2738
4288.139	2816
4289.664	2771
4291.187	2752
4292.712	2816
4294.235	2771
4295.759	2763
4297.281	2834
4298.804	2837
4300.327	2817
4301.849	2761
4303.37	2819
4304.891	2783
4306.412	2783
4307.933	2826
4309.453	2772
4310.973	2780
4312.492	2654
