398.1873	5618
400.7097	5643
403.2336	5618
405.7547	5612
408.2751	5752
410.7948	5657
413.3138	5674
415.83	5722
418.3497	5833
420.8666	5852
423.3829	5836
425.8985	5931
428.4133	5855
430.9275	5899
433.441	6035
435.9538	5996
438.4639	5954
440.9753	5974
443.4881	5992
445.9982	6009
448.5055	6003
451.0142	6040
453.5201	6038
456.0274	5962
458.5361	6076
461.04	5964
463.5453	6070
466.0478	6079
468.5517	6080
471.0549	6029
473.5574	6075
476.0572	6066
478.5584	6067
481.0568	6239
483.5545	6045
486.0557	6200
488.5521	6177
491.0478	6142
493.5449	6185
496.0392	6223
498.5349	6249
501.0299	6258
503.5222	6294
506.0139	6184
508.5048	6305
510.9991	6275
513.4887	6339
515.9777	6322
518.4659	6199
520.9534	6202
523.4403	6253
525.9306	6402
528.4161	6238
530.9009	6383
533.3851	6424
535.8687	6388
538.3535	6364
540.8356	6436
543.3171	6290
545.7979	6310
548.278	6330
550.7595	6370
553.2383	6380
555.7144	6408
558.1918	6439
560.6685	6351
563.1446	6257
565.6221	6403
568.0968	6580
570.5688	6493
573.0422	6496
575.515	6499
577.989	6513
580.4584	6514
582.9291	6629
585.3991	6615
587.8685	6654
590.3352	6574
592.8052	6482
595.2706	6613
597.7372	6485
600.2033	6607
602.6666	6513
605.1334	6466
607.5953	6441
610.0587	6597
612.5193	6560
614.9814	6538
617.4427	6520
619.9034	6441
622.3615	6520
624.8208	6567
627.2775	6617
629.7335	6573
632.1929	6550
634.6476	6548
637.1016	6611
639.5569	6502
642.0096	6613
644.4637	6537
646.9151	6521
649.3678	6699
651.8179	6634
654.2672	6729
656.7159	6562
659.166	6762
661.6154	6554
664.0622	6665
666.5082	6656
668.9537	6643
671.4005	6586
673.8445	6703
676.288	6707
678.7308	6827
681.1729	6623
683.6163	6678
686.0572	6799
688.4973	6842
690.9368	6768
693.3757	6656
695.8138	6808
698.2534	6778
700.6902	6944
703.1245	6897
705.56	6859
707.9949	6835
710.4311	6999
712.8647	6884
715.2957	6770
717.7279	6973
720.1595	7020
722.5905	6920
725.0208	6936
727.4505	7045
729.8795	6947
732.3058	7078
734.7336	6968
737.1626	7068
739.587	7063
742.0128	7040
744.4359	7110
746.8604	7137
749.2841	7080
751.7073	7118
754.1278	7172
756.5496	7283
758.9688	7124
761.3893	7218
763.8093	7243
766.2285	7277
768.6451	7350
771.0611	7155
773.4784	7160
775.895	7239
778.3091	7316
780.7244	7354
783.1371	7134
785.5493	7268
787.9626	7312
790.3754	7278
792.7856	7258
795.1951	7355
797.6039	7311
800.0121	7234
802.4236	7173
804.8306	7376
807.2369	7298
809.6425	7413
812.0475	7184
814.4538	7312
816.8575	7249
819.2606	7485
821.663	7423
824.0648	7456
826.4659	7425
828.8683	7263
831.2682	7419
833.6674	7286
836.066	7470
838.4639	7421
840.8632	7271
843.2579	7574
845.6539	7378
848.0493	7476
850.444	7421
852.84	7596
855.2315	7493
857.6243	7439
860.0165	7384
862.4081	7517
864.797	7495
867.1892	7460
869.5789	7441
871.9659	7412
874.3542	7456
876.74	7589
879.129	7383
881.5155	7364
883.8994	7534
886.2845	7329
888.6671	7424
891.051	7415
893.4343	7491
895.8169	7495
898.197	7451
900.5783	7468
902.9571	7383
905.3372	7539
907.7167	7461
910.0936	7428
912.4698	7624
914.8474	7574
917.2244	7735
919.5987	7686
921.9744	7657
924.3475	7692
926.72	7793
929.0918	7652
931.4669	7740
933.8375	7747
936.2074	7673
938.5767	7860
940.9454	7804
943.3154	7906
945.6829	7936
948.0497	8020
950.4178	8280
952.7833	8230
955.1483	8625
957.5145	8759
959.8782	8707
962.2412	8627
964.6036	8753
966.9655	8420
969.3266	8323
971.6871	8058
974.0471	7941
976.4064	7799
978.765	7795
981.125	7746
983.4824	7841
985.8373	7774
988.1935	7762
990.549	7726
992.9039	7729
995.2602	7734
997.6119	7696
999.965	7763
1002.317	7609
1004.667	7714
1007.02	7886
1009.371	7891
1011.719	7628
1014.068	7740
1016.415	7678
1018.765	7883
1021.111	7781
1023.458	7845
1025.804	7670
1028.147	7892
1030.49	7732
1032.837	7862
1035.179	7912
1037.522	7884
1039.862	7744
1042.204	7860
1044.546	7747
1046.884	7919
1049.224	7861
1051.562	7832
1053.899	7884
1056.237	7894
1058.575	7824
1060.91	7831
1063.244	7963
1065.58	7891
1067.913	7920
1070.248	7952
1072.579	8077
1074.911	7986
1077.242	8018
1079.572	7944
1081.905	7944
1084.234	7983
1086.562	7941
1088.89	7971
1091.217	7923
1093.544	8031
1095.871	7929
1098.197	7992
1100.521	7897
1102.845	7966
1105.169	7846
1107.491	7918
1109.814	7982
1112.135	7977
1114.456	8036
1116.776	7886
1119.096	7982
1121.415	7881
1123.734	8051
1126.052	8118
1128.369	8002
1130.686	7934
1133.002	8051
1135.318	8025
1137.632	8119
1139.945	8017
1142.258	8019
1144.573	8074
1146.884	7979
1149.196	7981
1151.505	7931
1153.816	8082
1156.124	8167
1158.435	7943
1160.742	7980
1163.051	8063
1165.356	8031
1167.663	8005
1169.97	8176
1172.276	8233
1174.579	8035
1176.881	7979
1179.186	7985
1181.487	7927
1183.79	7853
1186.092	7966
1188.392	8003
1190.691	8184
1192.991	7959
1195.291	7989
1197.588	8025
1199.885	8021
1202.181	8009
1204.479	8002
1206.775	8041
1209.07	7914
1211.363	7902
1213.656	7935
1215.949	8049
1218.241	8049
1220.534	7994
1222.825	8189
1225.115	8021
1227.405	8133
1229.693	8143
1231.984	8121
1234.271	8228
1236.558	8245
1238.845	8138
1241.131	8257
1243.416	8251
1245.703	8168
1247.987	8379
1250.269	8168
1252.552	8376
1254.834	8256
1257.118	8198
1259.399	8184
1261.678	8285
1263.958	8241
1266.237	8297
1268.516	8339
1270.794	8245
1273.072	8141
1275.347	8289
1277.624	8256
1279.899	8202
1282.175	8271
1284.449	8395
1286.722	8233
1288.995	8188
1291.266	8141
1293.54	8186
1295.81	8215
1298.081	8167
1300.35	8245
1302.62	8138
1304.889	8235
1307.156	8272
1309.425	8138
1311.69	8291
1313.957	8174
1316.222	8280
1318.488	8217
1320.751	8257
1323.016	8231
1325.278	8325
1327.54	8278
1329.803	8148
1332.065	8160
1334.325	8222
1336.584	8327
1338.843	8339
1341.101	8252
1343.36	8248
1345.617	8181
1347.876	8250
1350.131	8270
1352.387	8366
1354.643	8304
1356.897	8239
1359.151	8299
1361.403	8277
1363.656	8308
1365.909	8216
1368.16	8348
1370.409	8255
1372.659	8305
1374.909	8318
1377.157	8296
1379.407	8376
1381.655	8225
1383.9	8303
1386.147	8299
1388.393	8471
1390.64	8186
1392.885	8317
1395.127	8357
1397.37	8303
1399.614	8297
1401.854	8356
1404.098	8370
1406.339	8352
1408.578	8449
1410.818	8401
1413.056	8468
1415.297	8430
1417.533	8361
1419.771	8408
1422.006	8528
1424.243	8455
1426.479	8476
1428.715	8415
1430.948	8624
1433.182	8608
1435.414	8525
1437.647	8550
1439.88	8758
1442.11	8609
1444.342	8648
1446.571	8529
1448.799	8669
1451.029	8682
1453.258	8597
1455.485	8733
1457.711	8713
1459.937	8639
1462.164	8661
1464.39	8558
1466.614	8621
1468.838	8521
1471.06	8574
1473.283	8449
1475.506	8489
1477.727	8542
1479.949	8563
1482.169	8511
1484.389	8484
1486.609	8333
1488.828	8329
1491.045	8470
1493.261	8373
1495.477	8405
1497.693	8290
1499.91	8451
1502.125	8330
1504.339	8295
1506.553	8365
1508.766	8319
1510.979	8393
1513.191	8444
1515.402	8299
1517.613	8150
1519.823	8327
1522.033	8285
1524.242	8386
1526.451	8240
1528.657	8251
1530.865	8428
1533.072	8303
1535.278	8286
1537.484	8361
1539.687	8413
1541.892	8361
1544.096	8465
1546.299	8346
1548.502	8330
1550.703	8338
1552.905	8563
1555.104	8424
1557.303	8443
1559.505	8425
1561.703	8603
1563.902	8467
1566.099	8525
1568.295	8500
1570.494	8500
1572.689	8691
1574.883	8542
1577.079	8616
1579.272	8512
1581.467	8682
1583.659	8629
1585.853	8596
1588.044	8525
1590.234	8599
1592.424	8589
1594.615	8659
1596.806	8598
1598.994	8669
1601.182	8651
1603.369	8722
1605.557	8653
1607.744	8753
1609.929	8618
1612.114	8573
1614.298	8596
1616.482	8809
1618.667	8620
1620.85	8781
1623.032	8648
1625.214	8707
1627.395	8725
1629.575	8637
1631.755	8728
1633.935	8653
1636.114	8604
1638.292	8767
1640.471	8761
1642.647	8637
1644.823	8724
1647	8814
1649.175	8777
1651.348	8723
1653.525	8612
1655.698	8732
1657.87	8743
1660.043	8657
1662.213	8816
1664.387	8846
1666.558	8771
1668.727	8731
1670.896	8826
1673.064	8757
1675.233	8695
1677.401	8821
1679.569	8860
1681.735	8714
1683.902	8910
1686.066	8749
1688.233	8686
1690.397	8829
1692.559	8739
1694.723	8669
1696.885	8777
1699.048	8568
1701.21	8572
1703.37	8747
1705.53	8755
1707.689	8673
1709.849	8712
1712.009	8664
1714.166	8695
1716.323	8618
1718.479	8628
1720.634	8551
1722.793	8687
1724.948	8719
1727.102	8600
1729.255	8634
1731.408	8631
1733.562	8674
1735.714	8584
1737.865	8662
1740.016	8601
1742.166	8767
1744.316	8738
1746.467	8647
1748.616	8673
1750.764	8856
1752.911	8670
1755.056	8601
1757.205	8754
1759.35	8809
1761.496	8746
1763.641	8768
1765.785	8756
1767.927	8728
1770.072	8685
1772.214	8717
1774.355	8803
1776.496	8715
1778.637	8681
1780.778	8761
1782.918	8649
1785.057	8818
1787.194	8744
1789.333	8905
1791.472	8651
1793.608	8824
1795.745	8860
1797.879	8688
1800.015	8762
1802.148	8859
1804.284	8795
1806.417	8680
1808.548	8851
1810.682	8730
1812.812	8783
1814.946	8775
1817.075	8776
1819.205	8745
1821.335	8638
1823.463	8762
1825.59	8819
1827.721	8742
1829.847	8765
1831.973	8736
1834.098	8737
1836.223	8693
1838.351	8722
1840.475	8748
1842.598	8811
1844.721	8748
1846.843	8664
1848.966	8702
1851.087	8733
1853.21	8811
1855.33	8578
1857.449	8717
1859.568	8684
1861.688	8666
1863.806	8595
1865.924	8548
1868.039	8620
1870.155	8733
1872.273	8685
1874.388	8654
1876.503	8712
1878.617	8761
1880.73	8758
1882.844	8675
1884.956	8766
1887.068	8757
1889.18	8747
1891.291	8737
1893.4	8767
1895.511	8759
1897.621	8827
1899.73	8804
1901.837	8735
1903.944	8767
1906.053	8662
1908.159	8732
1910.265	8715
1912.369	8781
1914.474	8788
1916.577	8774
1918.683	8867
1920.785	8873
1922.888	8814
1924.989	8760
1927.091	8755
1929.193	8902
1931.294	8786
1933.393	8823
1935.493	8727
1937.59	8767
1939.689	8877
1941.788	8853
1943.884	8764
1945.98	8853
1948.077	8802
1950.171	8661
1952.267	8914
1954.361	8706
1956.455	8921
1958.548	8727
1960.64	8867
1962.733	8838
1964.824	8848
1966.915	8818
1969.005	8898
1971.096	8832
1973.185	8950
1975.275	8787
1977.363	8887
1979.45	8794
1981.537	8754
1983.623	8886
1985.711	8815
1987.796	8791
1989.881	8775
1991.965	8777
1994.047	8718
1996.132	8608
1998.215	8749
2000.297	8884
2002.378	8707
2004.46	8725
2006.54	8691
2008.62	8613
2010.7	8577
2012.779	8753
2014.858	8706
2016.934	8800
2019.013	8623
2021.09	8695
2023.165	8727
2025.241	8778
2027.317	8847
2029.39	8748
2031.466	8639
2033.538	8819
2035.612	8779
2037.683	8664
2039.755	8765
2041.827	8714
2043.898	8673
2045.968	8738
2048.038	8829
2050.106	8630
2052.177	8694
2054.244	8717
2056.313	8737
2058.379	8752
2060.444	8785
2062.511	8737
2064.577	8843
2066.641	8828
2068.705	8752
2070.77	8740
2072.832	8708
2074.896	8824
2076.958	8800
2079.02	8732
2081.081	8810
2083.141	8839
2085.2	8613
2087.261	8781
2089.319	8779
2091.377	8867
2093.435	8920
2095.492	8734
2097.552	8726
2099.607	8680
2101.663	8708
2103.718	8786
2105.771	8815
2107.826	8823
2109.879	8827
2111.932	8751
2113.985	8671
2116.037	8718
2118.088	8672
2120.141	8654
2122.191	8813
2124.239	8850
2126.288	8764
2128.337	8776
2130.387	8848
2132.434	8712
2134.481	8615
2136.528	8818
2138.574	8747
2140.618	8808
2142.665	8659
2144.71	8783
2146.753	8741
2148.797	8697
2150.838	8674
2152.883	8794
2154.923	8760
2156.965	8743
2159.007	8681
2161.046	8739
2163.086	8819
2165.126	8629
2167.163	8717
2169.202	8695
2171.239	8628
2173.277	8753
2175.314	8605
2177.349	8609
2179.385	8798
2181.42	8611
2183.453	8660
2185.49	8699
2187.522	8482
2189.555	8569
2191.586	8658
2193.619	8676
2195.651	8541
2197.682	8612
2199.711	8404
2201.74	8453
2203.769	8555
2205.799	8487
2207.828	8532
2209.855	8703
2211.882	8459
2213.908	8595
2215.934	8618
2217.961	8550
2219.986	8509
2222.01	8545
2224.034	8584
2226.057	8471
2228.08	8484
2230.104	8531
2232.124	8510
2234.145	8460
2236.166	8607
2238.186	8492
2240.207	8503
2242.227	8586
2244.244	8488
2246.262	8480
2248.28	8482
2250.299	8565
2252.314	8488
2254.33	8555
2256.346	8481
2258.36	8403
2260.375	8509
2262.391	8438
2264.403	8576
2266.416	8579
2268.427	8605
2270.44	8493
2272.453	8563
2274.463	8602
2276.474	8548
2278.483	8565
2280.493	8397
2282.501	8622
2284.51	8720
2286.518	8550
2288.524	8523
2290.532	8536
2292.537	8416
2294.544	8428
2296.55	8671
2298.554	8427
2300.557	8514
2302.562	8534
2304.566	8500
2306.568	8510
2308.569	8527
2310.572	8490
2312.573	8454
2314.573	8446
2316.574	8476
2318.573	8483
2320.571	8370
2322.571	8658
2324.569	8466
2326.567	8304
2328.564	8518
2330.56	8456
2332.556	8470
2334.551	8462
2336.546	8395
2338.542	8504
2340.535	8409
2342.529	8373
2344.521	8460
2346.512	8406
2348.505	8354
2350.497	8396
2352.487	8319
2354.478	8340
2356.468	8320
2358.457	8371
2360.446	8313
2362.434	8347
2364.422	8431
2366.408	8350
2368.395	8353
2370.383	8322
2372.369	8463
2374.353	8390
2376.338	8261
2378.321	8417
2380.307	8402
2382.29	8260
2384.272	8276
2386.254	8207
2388.235	8398
2390.218	8306
2392.198	8330
2394.179	8350
2396.157	8298
2398.137	8349
2400.115	8318
2402.095	8335
2404.072	8326
2406.048	8196
2408.026	8231
2410.001	8341
2411.977	8366
2413.953	8300
2415.927	8262
2417.9	8323
2419.875	8409
2421.847	8246
2423.821	8188
2425.792	8325
2427.763	8340
2429.736	8220
2431.706	8299
2433.677	8310
2435.646	8225
2437.615	8294
2439.583	8213
2441.551	8360
2443.519	8244
2445.486	8242
2447.452	8229
2449.418	8104
2451.383	8214
2453.348	8292
2455.314	8288
2457.278	8321
2459.241	8312
2461.205	8190
2463.167	8208
2465.131	8325
2467.091	8258
2469.052	8206
2471.012	8334
2472.972	8322
2474.932	8312
2476.891	8167
2478.85	8184
2480.808	8270
2482.766	8176
2484.722	8161
2486.68	8225
2488.636	8092
2490.591	8087
2492.546	8318
2494.5	8123
2496.456	8104
2498.41	8154
2500.362	8158
2502.315	8174
2504.266	8215
2506.218	8195
2508.169	8033
2510.121	8058
2512.07	8050
2514.019	8064
2515.968	8163
2517.918	8184
2519.866	8096
2521.813	8102
2523.76	8042
2525.707	8192
2527.653	8193
2529.599	8137
2531.543	8176
2533.489	8035
2535.433	8028
2537.376	8130
2539.32	8150
2541.264	8056
2543.205	8064
2545.147	8176
2547.087	8023
2549.029	8214
2550.969	8129
2552.908	8116
2554.847	8054
2556.786	8060
2558.724	8095
2560.663	8171
2562.6	8095
2564.537	8088
2566.473	8151
2568.408	8234
2570.345	8113
2572.28	8247
2574.214	8072
2576.148	8181
2578.081	8191
2580.014	8017
2581.947	8092
2583.879	8169
2585.81	8174
2587.741	8216
2589.67	8148
2591.602	8160
2593.532	8082
2595.461	8109
2597.388	8144
2599.316	7990
2601.244	8071
2603.172	8157
2605.098	8160
2607.023	7927
2608.949	8141
2610.873	8017
2612.8	8195
2614.723	8146
2616.647	8121
2618.569	8260
2620.493	8063
2622.416	8122
2624.338	8092
2626.258	8184
2628.179	8112
2630.099	8158
2632.019	8148
2633.939	8098
2635.857	8227
2637.775	8108
2639.694	8246
2641.61	8024
2643.528	8183
2645.444	8150
2647.361	8117
2649.276	8099
2651.19	8069
2653.105	8062
2655.019	8176
2656.934	8160
2658.846	8028
2660.758	8054
2662.67	8042
2664.583	8085
2666.493	8098
2668.404	8175
2670.313	8152
2672.223	8072
2674.134	8108
2676.042	8049
2677.95	8184
2679.858	8078
2681.765	8055
2683.673	8018
2685.579	8074
2687.483	8166
2689.389	8061
2691.294	8038
2693.198	8085
2695.104	7963
2697.006	8128
2698.909	8051
2700.811	8020
2702.713	7888
2704.615	8089
2706.516	8087
2708.417	7822
2710.316	8086
2712.216	8035
2714.115	7994
2716.014	7984
2717.913	7967
2719.81	7882
2721.707	7897
2723.603	8093
2725.501	7913
2727.396	7910
2729.292	7962
2731.186	7969
2733.081	7939
2734.976	7940
2736.87	8051
2738.762	7936
2740.653	7903
2742.546	8019
2744.437	7944
2746.329	7793
2748.22	8006
2750.11	7971
2751.999	7946
2753.889	7901
2755.778	7973
2757.666	7850
2759.553	7872
2761.44	7970
2763.328	7870
2765.215	7812
2767.101	7951
2768.986	7831
2770.87	7892
2772.754	7940
2774.638	7989
2776.523	7853
2778.405	7861
2780.288	7977
2782.17	7917
2784.051	7898
2785.934	7960
2787.814	7980
2789.694	7819
2791.574	8026
2793.453	7983
2795.332	7788
2797.212	7991
2799.088	7896
2800.966	7754
2802.843	7837
2804.719	7810
2806.597	7923
2808.471	7988
2810.346	7940
2812.221	7895
2814.094	7835
2815.969	7779
2817.843	7851
2819.714	7912
2821.587	7830
2823.459	7942
2825.329	7845
2827.202	7856
2829.072	7876
2830.942	7811
2832.811	7745
2834.68	7777
2836.549	7811
2838.418	7817
2840.284	7821
2842.152	7842
2844.018	7742
2845.885	7981
2847.751	7877
2849.616	7927
2851.482	7812
2853.345	7780
2855.208	7865
2857.074	7796
2858.937	7930
2860.799	7950
2862.66	7917
2864.522	8035
2866.385	7904
2868.245	7921
2870.104	8098
2871.964	7970
2873.824	8117
2875.683	7923
2877.542	8088
2879.4	8283
2881.257	8158
2883.114	8175
2884.97	8281
2886.827	8128
2888.683	8238
2890.537	8171
2892.392	8127
2894.246	8173
2896.1	8136
2897.954	8188
2899.807	8122
2901.66	8218
2903.51	8162
2905.362	8127
2907.214	8156
2909.065	8109
2910.915	8123
2912.765	8245
2914.613	8133
2916.463	8291
2918.311	8380
2920.158	8334
2922.006	8293
2923.853	8432
2925.698	8287
2927.546	8455
2929.392	8482
2931.236	8581
2933.081	8525
2934.924	8550
2936.77	8621
2938.613	8584
2940.455	8720
2942.298	8662
2944.139	8802
2945.982	8795
2947.823	8657
2949.662	8620
2951.503	8637
2953.342	8490
2955.182	8496
2957.021	8463
2958.858	8430
2960.697	8330
2962.534	8448
2964.37	8458
2966.207	8284
2968.044	8367
2969.879	8152
2971.714	8240
2973.548	8128
2975.383	8193
2977.218	8098
2979.051	8199
2980.883	8100
2982.715	8104
2984.547	8036
2986.379	7904
2988.21	7942
2990.04	7997
2991.87	7983
2993.7	8045
2995.53	7860
2997.359	7916
2999.187	7795
3001.015	7800
3002.842	7687
3004.669	7701
3006.497	7618
3008.323	7728
3010.148	7626
3011.974	7636
3013.797	7698
3015.623	7513
3017.447	7647
3019.27	7480
3021.094	7533
3022.915	7481
3024.737	7475
3026.56	7517
3028.38	7436
3030.201	7431
3032.022	7304
3033.84	7465
3035.662	7460
3037.481	7601
3039.298	7428
3041.117	7474
3042.933	7527
3044.752	7428
3046.568	7517
3048.385	7376
3050.2	7410
3052.016	7367
3053.83	7313
3055.646	7458
3057.46	7411
3059.272	7396
3061.086	7511
3062.898	7451
3064.711	7412
3066.524	7434
3068.335	7295
3070.145	7368
3071.956	7331
3073.766	7320
3075.576	7407
3077.385	7349
3079.193	7285
3081.002	7247
3082.81	7201
3084.618	7369
3086.425	7240
3088.231	7401
3090.036	7253
3091.842	7326
3093.648	7202
3095.452	7241
3097.257	7265
3099.06	7242
3100.863	7336
3102.666	7264
3104.47	7147
3106.272	7044
3108.073	7278
3109.875	7091
3111.676	7279
3113.477	7229
3115.277	7165
3117.077	7156
3118.874	7207
3120.673	7119
3122.473	7101
3124.271	7004
3126.066	7052
3127.863	7132
3129.66	7194
3131.456	7064
3133.252	7041
3135.047	7060
3136.842	7040
3138.635	6976
3140.429	7057
3142.223	7146
3144.016	7119
3145.808	7052
3147.6	6988
3149.392	7077
3151.183	6956
3152.975	7037
3154.765	7027
3156.553	7013
3158.344	7032
3160.132	6994
3161.922	7093
3163.71	7025
3165.497	6953
3167.285	6868
3169.071	7004
3170.858	6929
3172.645	6989
3174.429	7079
3176.214	6989
3177.998	6887
3179.783	6963
3181.568	6954
3183.351	6981
3185.133	6879
3186.915	6912
3188.698	6930
3190.481	6855
3192.261	6890
3194.042	6976
3195.822	6886
3197.601	6904
3199.381	6811
3201.161	6956
3202.939	6952
3204.717	6827
3206.495	6900
3208.272	6858
3210.05	6973
3211.826	6924
3213.602	6863
3215.376	6746
3217.151	6855
3218.927	6833
3220.702	6821
3222.476	7005
3224.249	6896
3226.021	6805
3227.793	6816
3229.567	6880
3231.339	6716
3233.109	6795
3234.88	6900
3236.651	6860
3238.421	6817
3240.191	6746
3241.96	6849
3243.728	6880
3245.497	6814
3247.263	6781
3249.033	6842
3250.799	6812
3252.566	6891
3254.331	6841
3256.097	6856
3257.863	6837
3259.628	6708
3261.392	6814
3263.156	6671
3264.919	6864
3266.683	6974
3268.447	6805
3270.208	6850
3271.969	6740
3273.731	6779
3275.492	6754
3277.253	6836
3279.013	6808
3280.773	6878
3282.532	6848
3284.291	6727
3286.05	6591
3287.808	6811
3289.566	6902
3291.323	6769
3293.079	6738
3294.835	6767
3296.593	6884
3298.348	6869
3300.102	6946
3301.857	6867
3303.611	6779
3305.366	6750
3307.119	6787
3308.872	6895
3310.624	6803
3312.376	6744
3314.129	6683
3315.881	6844
3317.631	6778
3319.38	6828
3321.13	6697
3322.88	6761
3324.631	6791
3326.379	6839
3328.126	6842
3329.875	6719
3331.622	6735
3333.371	6682
3335.116	6794
3336.863	6724
3338.609	6736
3340.353	6696
3342.1	6739
3343.845	6620
3345.588	6687
3347.332	6624
3349.074	6773
3350.817	6731
3352.56	6715
3354.303	6678
3356.043	6672
3357.785	6594
3359.525	6715
3361.268	6607
3363.007	6704
3364.745	6708
3366.485	6590
3368.223	6657
3369.962	6587
3371.701	6601
3373.438	6640
3375.174	6642
3376.911	6567
3378.647	6632
3380.384	6604
3382.118	6695
3383.854	6608
3385.588	6588
3387.322	6549
3389.057	6609
3390.79	6585
3392.522	6645
3394.255	6631
3395.987	6544
3397.719	6475
3399.451	6568
3401.181	6555
3402.911	6526
3404.641	6490
3406.371	6580
3408.101	6428
3409.83	6533
3411.558	6476
3413.285	6519
3415.011	6588
3416.739	6547
3418.467	6337
3420.193	6419
3421.919	6529
3423.644	6413
3425.368	6397
3427.094	6338
3428.818	6488
3430.542	6416
3432.264	6436
3433.987	6420
3435.712	6398
3437.434	6469
3439.155	6468
3440.876	6526
3442.596	6335
3444.317	6361
3446.039	6402
3447.757	6368
3449.477	6473
3451.195	6375
3452.914	6421
3454.632	6377
3456.35	6332
3458.067	6325
3459.784	6368
3461.5	6401
3463.216	6327
3464.932	6313
3466.647	6350
3468.362	6342
3470.076	6250
3471.789	6368
3473.505	6330
3475.217	6262
3476.929	6294
3478.641	6345
3480.354	6211
3482.066	6261
3483.777	6210
3485.487	6210
3487.197	6168
3488.908	6200
3490.617	6274
3492.327	6158
3494.035	6234
3495.743	6204
3497.451	6167
3499.158	6177
3500.866	6257
3502.572	6168
3504.278	6165
3505.984	6246
3507.689	6174
3509.396	6276
3511.1	6146
3512.804	6220
3514.508	6148
3516.211	6151
3517.913	6073
3519.616	6085
3521.319	6135
3523.021	6219
3524.722	6255
3526.422	6043
3528.124	6158
3529.824	6181
3531.524	6115
3533.222	6125
3534.921	6132
3536.62	6111
3538.318	6113
3540.016	6021
3541.714	6069
3543.41	6027
3545.107	6095
3546.803	5989
3548.5	5912
3550.194	5947
3551.889	6062
3553.583	6070
3555.279	6033
3556.972	5993
3558.666	5978
3560.358	6083
3562.051	5955
3563.742	6078
3565.435	6013
3567.126	6057
3568.817	5994
3570.507	5962
3572.197	5933
3573.888	6094
3575.577	5964
3577.265	6040
3578.954	5966
3580.642	6008
3582.329	5949
3584.017	5872
3585.704	5870
3587.391	5913
3589.077	5877
3590.762	5893
3592.449	5857
3594.133	5796
3595.817	5949
3597.501	5935
3599.185	5857
3600.869	5862
3602.552	5856
3604.234	5877
3605.916	5912
3607.598	5830
3609.279	5800
3610.961	5844
3612.642	5777
3614.321	5784
3616	5883
3617.68	5848
3619.36	5826
3621.039	5801
3622.716	5747
3624.394	5784
3626.071	5863
3627.748	5627
3629.425	5841
3631.102	5747
3632.778	5745
3634.452	5696
3636.127	5782
3637.803	5732
3639.477	5655
3641.151	5631
3642.823	5673
3644.497	5646
3646.171	5681
3647.842	5709
3649.515	5722
3651.185	5663
3652.857	5702
3654.527	5675
3656.198	5679
3657.868	5611
3659.537	5640
3661.207	5686
3662.875	5753
3664.544	5750
3666.212	5627
3667.879	5536
3669.546	5562
3671.212	5640
3672.88	5498
3674.546	5574
3676.211	5546
3677.875	5580
3679.541	5677
3681.205	5503
3682.87	5619
3684.533	5556
3686.196	5666
3687.859	5615
3689.521	5629
3691.184	5505
3692.845	5527
3694.507	5584
3696.167	5504
3697.827	5580
3699.487	5490
3701.148	5557
3702.808	5550
3704.466	5505
3706.125	5539
3707.783	5476
3709.442	5539
3711.099	5558
3712.757	5563
3714.412	5602
3716.068	5547
3717.725	5432
3719.381	5514
3721.036	5542
3722.689	5514
3724.344	5526
3725.998	5492
3727.652	5576
3729.305	5466
3730.958	5464
3732.61	5390
3734.262	5480
3735.915	5354
3737.565	5485
3739.217	5405
3740.866	5414
3742.516	5555
3744.165	5426
3745.816	5488
3747.464	5521
3749.113	5409
3750.761	5439
3752.409	5404
3754.057	5375
3755.703	5415
3757.35	5401
3758.996	5465
3760.641	5424
3762.289	5415
3763.933	5390
3765.577	5391
3767.222	5432
3768.865	5408
3770.508	5353
3772.152	5313
3773.796	5315
3775.438	5424
3777.079	5347
3778.721	5436
3780.363	5446
3782.003	5281
3783.643	5415
3785.283	5297
3786.923	5345
3788.563	5318
3790.203	5243
3791.841	5376
3793.479	5292
3795.115	5326
3796.753	5281
3798.391	5261
3800.027	5268
3801.664	5322
3803.299	5345
3804.935	5252
3806.571	5343
3808.206	5233
3809.839	5161
3811.473	5233
3813.107	5217
3814.74	5200
3816.375	5195
3818.006	5220
3819.638	5242
3821.27	5287
3822.9	5277
3824.532	5206
3826.163	5305
3827.792	5202
3829.423	5217
3831.051	5104
3832.682	5184
3834.311	5108
3835.938	5170
3837.566	5195
3839.193	5165
3840.821	5157
3842.448	5096
3844.075	5132
3845.7	5126
3847.325	5125
3848.951	5087
3850.576	5220
3852.201	5157
3853.825	5244
3855.448	5115
3857.072	5164
3858.694	5049
3860.318	5217
3861.939	5085
3863.562	5105
3865.183	5132
3866.804	5140
3868.426	5134
3870.045	5071
3871.666	5059
3873.285	5115
3874.904	5065
3876.524	5120
3878.142	4969
3879.76	5061
3881.378	5037
3882.995	5033
3884.612	5121
3886.229	5111
3887.845	5051
3889.461	5027
3891.076	5076
3892.691	4983
3894.307	5080
3895.922	5130
3897.536	4980
3899.149	5071
3900.761	4928
3902.374	5001
3903.988	4952
3905.6	5147
3907.212	4998
3908.822	5129
3910.433	4896
3912.045	4976
3913.655	5014
3915.265	4926
3916.875	5066
3918.483	4894
3920.093	4970
3921.702	5077
3923.309	4931
3924.917	5029
3926.523	4969
3928.13	5088
3929.739	4895
3931.344	5010
3932.95	5047
3934.555	4967
3936.159	5015
3937.766	4967
3939.369	4946
3940.974	4994
3942.577	5017
3944.181	5034
3945.783	4898
3947.386	5013
3948.989	4904
3950.59	4980
3952.191	4888
3953.791	4890
3955.394	4985
3956.994	4847
3958.593	4960
3960.192	4883
3961.791	4942
3963.392	4926
3964.99	4901
3966.588	4890
3968.185	4813
3969.782	4829
3971.379	4912
3972.976	4868
3974.572	4773
3976.168	4843
3977.763	4818
3979.358	4755
3980.954	4843
3982.548	4855
3984.142	4811
3985.736	4796
3987.329	4788
3988.922	4811
3990.516	4824
3992.108	4743
3993.698	4780
3995.29	4711
3996.881	4800
3998.473	4778
4000.064	4874
4001.653	4678
4003.242	4700
4004.832	4757
4006.422	4757
4008.01	4730
4009.598	4601
4011.186	4716
4012.773	4712
4014.36	4677
4015.947	4653
4017.534	4719
4019.119	4740
4020.705	4620
4022.291	4604
4023.876	4649
4025.461	4605
4027.044	4676
4028.627	4630
4030.211	4616
4031.795	4650
4033.378	4630
4034.96	4665
4036.542	4647
4038.124	4576
4039.704	4647
4041.286	4584
4042.867	4605
4044.447	4627
4046.026	4629
4047.606	4526
4049.187	4515
4050.765	4606
4052.343	4559
4053.92	4682
4055.498	4524
4057.076	4600
4058.654	4650
4060.23	4587
4061.806	4493
4063.381	4558
4064.957	4592
4066.533	4509
4068.107	4544
4069.682	4504
4071.256	4551
4072.829	4537
4074.404	4565
4075.977	4461
4077.549	4517
4079.121	4626
4080.693	4553
4082.265	4470
4083.836	4477
4085.407	4572
4086.977	4469
4088.547	4544
4090.117	4602
4091.687	4434
4093.256	4467
4094.825	4536
4096.392	4444
4097.96	4460
4099.528	4458
4101.097	4522
4102.663	4482
4104.229	4424
4105.795	4468
4107.361	4590
4108.928	4360
4110.493	4402
4112.058	4434
4113.621	4313
4115.186	4377
4116.75	4441
4118.313	4367
4119.876	4417
4121.438	4418
4123	4317
4124.562	4354
4126.125	4414
4127.686	4432
4129.246	4397
4130.807	4349
4132.367	4341
4133.927	4270
4135.486	4403
4137.046	4315
4138.604	4404
4140.162	4346
4141.72	4335
4143.279	4260
4144.836	4304
4146.393	4307
4147.949	4349
4149.505	4268
4151.062	4304
4152.617	4257
4154.172	4376
4155.727	4286
4157.281	4338
4158.836	4292
4160.39	4226
4161.943	4265
4163.496	4290
4165.048	4153
4166.601	4323
4168.154	4247
4169.706	4246
4171.257	4190
4172.808	4241
4174.358	4202
4175.909	4215
4177.458	4279
4179.008	4262
4180.558	4287
4182.106	4218
4183.655	4221
4185.204	4152
4186.751	4197
4188.298	4159
4189.845	4153
4191.392	4157
4192.939	4289
4194.485	4147
4196.031	4193
4197.576	4128
4199.121	4117
4200.666	4139
4202.211	4066
4203.754	4084
4205.298	4120
4206.84	4082
4208.384	4104
4209.927	4073
4211.47	4096
4213.011	4237
4214.552	4046
4216.094	4036
4217.635	4086
4219.175	4081
4220.716	4126
4222.255	4078
4223.793	4159
4225.335	4082
4226.873	4074
4228.411	4164
4229.948	4037
4231.486	4082
4233.024	4161
4234.562	4088
4236.098	4159
4237.634	4144
4239.169	4137
4240.705	4057
4242.241	4063
4243.776	4030
4245.31	4185
4246.844	4013
4248.378	4078
4249.911	4178
4251.445	3972
4252.978	4056
4254.51	4005
4256.042	4067
4257.574	4044
4259.107	4139
4260.638	3992
4262.169	4020
4263.699	3993
4265.228	3953
4266.759	4063
4268.289	4034
4269.818	3942
4271.345	3989
4272.874	4050
4274.402	4023
4275.931	4022
4277.458	3980
4278.985	3995
4280.512	4035
4282.037	3924
4283.564	3931
4285.089	3986
4286.615	3910
4288.139	3938
4289.664	4014
4291.187	4020
4292.712	3944
4294.235	3885
4295.759	3917
4297.281	3934
4298.804	3956
4300.327	3882
4301.849	3883
4303.37	3871
4304.891	3941
4306.412	3900
4307.933	3868
4309.453	3962
4310.973	3920
4312.492	3942
