398.1873	3398
400.7097	3482
403.2336	3448
405.7547	3586
408.2751	3568
410.7948	3478
413.3138	3600
415.83	3458
418.3497	3589
420.8666	3635
423.3829	3539
425.8985	3604
428.4133	3606
430.9275	3699
433.441	3618
435.9538	3686
438.4639	3644
440.9753	3657
443.4881	3671
445.9982	3677
448.5055	3708
451.0142	3779
453.5201	3663
456.0274	3676
458.5361	3670
461.04	3674
463.5453	3717
466.0478	3753
468.5517	3797
471.0549	3706
473.5574	3711
476.0572	3757
478.5584	3765
481.0568	3753
483.5545	3757
486.0557	3827
488.5521	3819
491.0478	3887
493.5449	3788
496.0392	3780
498.5349	3876
501.0299	3841
503.5222	3836
506.0139	3820
508.5048	3910
510.9991	3882
513.4887	3850
515.9777	3807
518.4659	3958
520.9534	3899
523.4403	3846
525.9306	3884
528.4161	3879
530.9009	3869
533.3851	3810
535.8687	3827
538.3535	3777
540.8356	3845
543.3171	3936
545.7979	3905
548.278	3923
550.7595	3826
553.2383	3911
555.7144	3870
558.1918	3940
560.6685	3905
563.1446	3924
565.6221	3827
568.0968	3871
570.5688	3880
573.0422	4039
575.515	4007
577.989	4041
580.4584	4054
582.9291	3963
585.3991	4032
587.8685	3978
590.3352	4093
592.8052	3986
595.2706	4047
597.7372	4024
600.2033	4035
602.6666	3996
605.1334	4017
607.5953	3980
610.0587	3981
612.5193	4011
614.9814	4059
617.4427	3988
619.9034	4033
622.3615	4030
624.8208	4070
627.2775	3961
629.7335	4001
632.1929	3986
634.6476	4032
637.1016	4029
639.5569	4008
642.0096	4075
644.4637	3950
646.9151	4028
649.3678	4092
651.8179	3934
654.2672	4097
656.7159	4011
659.166	4113
661.6154	3999
664.0622	4094
666.5082	4125
668.9537	4170
671.4005	4074
673.8445	4125
676.288	4065
678.7308	4161
681.1729	4139
683.6163	4105
686.0572	4131
688.4973	4176
690.9368	4167
693.3757	4158
695.8138	4141
698.2534	4092
700.6902	4107
703.1245	4097
705.56	4177
707.9949	4174
710.4311	4101
712.8647	4257
715.2957	4157
717.7279	4239
720.1595	4179
722.5905	4282
725.0208	4310
727.4505	4205
729.8795	4241
732.3058	4322
734.7336	4235
737.1626	4245
739.587	4338
742.0128	4333
744.4359	4326
746.8604	4391
749.2841	4306
751.7073	4372
754.1278	4423
756.5496	4353
758.9688	4394
761.3893	4401
763.8093	4356
766.2285	4388
768.6451	4477
771.0611	4426
773.4784	4396
775.895	4437
778.3091	4472
780.7244	4441
783.1371	4455
785.5493	4430
787.9626	4416
790.3754	4363
792.7856	4363
795.1951	4464
797.6039	4402
800.0121	4381
802.4236	4606
804.8306	4521
807.2369	4506
809.6425	4474
812.0475	4479
814.4538	4417
816.8575	4574
819.2606	4550
821.663	4514
824.0648	4522
826.4659	4455
828.8683	4455
831.2682	4503
833.6674	4517
836.066	4558
838.4639	4397
840.8632	4479
843.2579	4463
845.6539	4622
848.0493	4534
850.444	4647
852.84	4535
855.2315	4621
857.6243	4612
860.0165	4530
862.4081	4555
864.797	4571
867.1892	4516
869.5789	4623
871.9659	4502
874.3542	4624
876.74	4523
879.129	4504
881.5155	4491
883.8994	4494
886.2845	4598
888.6671	4541
891.051	4617
893.4343	4613
895.8169	4594
898.197	4564
900.5783	4489
902.9571	4454
905.3372	4545
907.7167	4599
910.0936	4629
912.4698	4625
914.8474	4687
917.2244	4592
919.5987	4616
921.9744	4668
924.3475	4660
926.72	4724
929.0918	4803
931.4669	4753
933.8375	4717
936.2074	4711
938.5767	4728
940.9454	4771
943.3154	4811
945.6829	4805
948.0497	4794
950.4178	4931
952.7833	4973
955.1483	5067
957.5145	5155
959.8782	5189
962.2412	5175
964.6036	5196
966.9655	5144
969.3266	4965
971.6871	4959
974.0471	4750
976.4064	4719
978.765	4760
981.125	4662
983.4824	4631
985.8373	4674
988.1935	4668
990.549	4742
992.9039	4696
995.2602	4783
997.6119	4824
999.965	4829
1002.317	4653
1004.667	4715
1007.02	4814
1009.371	4739
1011.719	4779
1014.068	4637
1016.415	4762
1018.765	4667
1021.111	4736
1023.458	4714
1025.804	4798
1028.147	4772
1030.49	4665
1032.837	4747
1035.179	4793
1037.522	4699
1039.862	4820
1042.204	4847
1044.546	4732
1046.884	4726
1049.224	4860
1051.562	4810
1053.899	4853
1056.237	4886
1058.575	4819
1060.91	4760
1063.244	4785
1065.58	4807
1067.913	4975
1070.248	4886
1072.579	4803
1074.911	4919
1077.242	4730
1079.572	4829
1081.905	4900
1084.234	4804
1086.562	4855
1088.89	4862
1091.217	4836
1093.544	4871
1095.871	4872
1098.197	4827
1100.521	4863
1102.845	4882
1105.169	4873
1107.491	4850
1109.814	4822
1112.135	4856
1114.456	4956
1116.776	4824
1119.096	4842
1121.415	4945
1123.734	4949
1126.052	4951
1128.369	4856
1130.686	4877
1133.002	4953
1135.318	4856
1137.632	4879
1139.945	4965
1142.258	4844
1144.573	4960
1146.884	4855
1149.196	4918
1151.505	4874
1153.816	4965
1156.124	4884
1158.435	4844
1160.742	4861
1163.051	4918
1165.356	4888
1167.663	4859
1169.97	4919
1172.276	4941
1174.579	4833
1176.881	4939
1179.186	4858
1181.487	4956
1183.79	4892
1186.092	4868
1188.392	4894
1190.691	4967
1192.991	4930
1195.291	4932
1197.588	4949
1199.885	4936
1202.181	4881
1204.479	4836
1206.775	4896
1209.07	4870
1211.363	4956
1213.656	4863
1215.949	4876
1218.241	5038
1220.534	4932
1222.825	4843
1225.115	4971
1227.405	4949
1229.693	5102
1231.984	4944
1234.271	5074
1236.558	5002
1238.845	5032
1241.131	5012
1243.416	5101
1245.703	5085
1247.987	5069
1250.269	5062
1252.552	5076
1254.834	5043
1257.118	5067
1259.399	5088
1261.678	5144
1263.958	5058
1266.237	4996
1268.516	5028
1270.794	5102
1273.072	5091
1275.347	5095
1277.624	5155
1279.899	5001
1282.175	4986
1284.449	5083
1286.722	5035
1288.995	5065
1291.266	5150
1293.54	5044
1295.81	5086
1298.081	4971
1300.35	5118
1302.62	4974
1304.889	5121
1307.156	4953
1309.425	5011
1311.69	5067
1313.957	5119
1316.222	5081
1318.488	5104
1320.751	5085
1323.016	5095
1325.278	5094
1327.54	5025
1329.803	5013
1332.065	5099
1334.325	5059
1336.584	4997
1338.843	5091
1341.101	5144
1343.36	5024
1345.617	4976
1347.876	5073
1350.131	5127
1352.387	5095
1354.643	5074
1356.897	4962
1359.151	5117
1361.403	5185
1363.656	5096
1365.909	5092
1368.16	5045
1370.409	5072
1372.659	5084
1374.909	5079
1377.157	5182
1379.407	5069
1381.655	5046
1383.9	5040
1386.147	5172
1388.393	5173
1390.64	5098
1392.885	5110
1395.127	5102
1397.37	5005
1399.614	5128
1401.854	5275
1404.098	5119
1406.339	5200
1408.578	5287
1410.818	5176
1413.056	5166
1415.297	5164
1417.533	5271
1419.771	5253
1422.006	5235
1424.243	5260
1426.479	5267
1428.715	5066
1430.948	5180
1433.182	5248
1435.414	5194
1437.647	5286
1439.88	5214
1442.11	5274
1444.342	5203
1446.571	5312
1448.799	5234
1451.029	5419
1453.258	5322
1455.485	5323
1457.711	5215
1459.937	5209
1462.164	5269
1464.39	5292
1466.614	5237
1468.838	5275
1471.06	5354
1473.283	5192
1475.506	5191
1477.727	5267
1479.949	5174
1482.169	5195
1484.389	5051
1486.609	5190
1488.828	5167
1491.045	5225
1493.261	5237
1495.477	5123
1497.693	5193
1499.91	5130
1502.125	5094
1504.339	5036
1506.553	5177
1508.766	5099
1510.979	5153
1513.191	5136
1515.402	5022
1517.613	5022
1519.823	5214
1522.033	5160
1524.242	5165
1526.451	5193
1528.657	5233
1530.865	5112
1533.072	5144
1535.278	5082
1537.484	5228
1539.687	5207
1541.892	5205
1544.096	5109
1546.299	5219
1548.502	5232
1550.703	5181
1552.905	5233
1555.104	5094
1557.303	5252
1559.505	5203
1561.703	5193
1563.902	5237
1566.099	5294
1568.295	5270
1570.494	5316
1572.689	5276
1574.883	5290
1577.079	5255
1579.272	5275
1581.467	5327
1583.659	5280
1585.853	5350
1588.044	5246
1590.234	5257
1592.424	5283
1594.615	5392
1596.806	5325
1598.994	5330
1601.182	5362
1603.369	5318
1605.557	5285
1607.744	5428
1609.929	5330
1612.114	5357
1614.298	5383
1616.482	5350
1618.667	5353
1620.85	5349
1623.032	5372
1625.214	5350
1627.395	5332
1629.575	5423
1631.755	5362
1633.935	5331
1636.114	5288
1638.292	5317
1640.471	5368
1642.647	5366
1644.823	5384
1647	5338
1649.175	5331
1651.348	5353
1653.525	5388
1655.698	5344
1657.87	5386
1660.043	5375
1662.213	5427
1664.387	5424
1666.558	5463
1668.727	5320
1670.896	5369
1673.064	5457
1675.233	5327
1677.401	5360
1679.569	5358
1681.735	5375
1683.902	5429
1686.066	5394
1688.233	5420
1690.397	5317
1692.559	5470
1694.723	5383
1696.885	5368
1699.048	5262
1701.21	5346
1703.37	5432
1705.53	5380
1707.689	5475
1709.849	5342
1712.009	5323
1714.166	5451
1716.323	5349
1718.479	5410
1720.634	5356
1722.793	5403
1724.948	5293
1727.102	5258
1729.255	5314
1731.408	5382
1733.562	5341
1735.714	5339
1737.865	5312
1740.016	5367
1742.166	5263
1744.316	5346
1746.467	5324
1748.616	5468
1750.764	5439
1752.911	5331
1755.056	5427
1757.205	5452
1759.35	5420
1761.496	5286
1763.641	5414
1765.785	5407
1767.927	5388
1770.072	5457
1772.214	5315
1774.355	5374
1776.496	5357
1778.637	5374
1780.778	5381
1782.918	5382
1785.057	5448
1787.194	5404
1789.333	5501
1791.472	5413
1793.608	5488
1795.745	5434
1797.879	5381
1800.015	5376
1802.148	5420
1804.284	5517
1806.417	5440
1808.548	5424
1810.682	5370
1812.812	5384
1814.946	5422
1817.075	5413
1819.205	5415
1821.335	5317
1823.463	5477
1825.59	5453
1827.721	5386
1829.847	5421
1831.973	5325
1834.098	5472
1836.223	5404
1838.351	5352
1840.475	5323
1842.598	5404
1844.721	5444
1846.843	5362
1848.966	5461
1851.087	5439
1853.21	5384
1855.33	5308
1857.449	5280
1859.568	5280
1861.688	5383
1863.806	5371
1865.924	5341
1868.039	5382
1870.155	5407
1872.273	5392
1874.388	5370
1876.503	5423
1878.617	5358
1880.73	5444
1882.844	5467
1884.956	5470
1887.068	5444
1889.18	5383
1891.291	5382
1893.4	5461
1895.511	5436
1897.621	5487
1899.73	5398
1901.837	5371
1903.944	5545
1906.053	5489
1908.159	5345
1910.265	5427
1912.369	5552
1914.474	5509
1916.577	5427
1918.683	5480
1920.785	5403
1922.888	5533
1924.989	5399
1927.091	5528
1929.193	5543
1931.294	5543
1933.393	5438
1935.493	5529
1937.59	5481
1939.689	5559
1941.788	5600
1943.884	5469
1945.98	5456
1948.077	5514
1950.171	5471
1952.267	5517
1954.361	5432
1956.455	5479
1958.548	5567
1960.64	5535
1962.733	5504
1964.824	5466
1966.915	5506
1969.005	5548
1971.096	5409
1973.185	5431
1975.275	5469
1977.363	5463
1979.45	5471
1981.537	5531
1983.623	5473
1985.711	5520
1987.796	5432
1989.881	5484
1991.965	5461
1994.047	5350
1996.132	5505
1998.215	5446
2000.297	5433
2002.378	5447
2004.46	5437
2006.54	5479
2008.62	5466
2010.7	5496
2012.779	5491
2014.858	5411
2016.934	5564
2019.013	5496
2021.09	5478
2023.165	5376
2025.241	5444
2027.317	5325
2029.39	5460
2031.466	5380
2033.538	5462
2035.612	5420
2037.683	5439
2039.755	5418
2041.827	5424
2043.898	5361
2045.968	5412
2048.038	5445
2050.106	5485
2052.177	5409
2054.244	5561
2056.313	5431
2058.379	5495
2060.444	5420
2062.511	5501
2064.577	5379
2066.641	5501
2068.705	5448
2070.77	5507
2072.832	5372
2074.896	5462
2076.958	5568
2079.02	5479
2081.081	5492
2083.141	5517
2085.2	5510
2087.261	5572
2089.319	5500
2091.377	5351
2093.435	5508
2095.492	5504
2097.552	5459
2099.607	5426
2101.663	5507
2103.718	5441
2105.771	5463
2107.826	5468
2109.879	5476
2111.932	5503
2113.985	5485
2116.037	5481
2118.088	5404
2120.141	5467
2122.191	5446
2124.239	5541
2126.288	5516
2128.337	5467
2130.387	5499
2132.434	5420
2134.481	5513
2136.528	5657
2138.574	5491
2140.618	5458
2142.665	5509
2144.71	5453
2146.753	5490
2148.797	5502
2150.838	5488
2152.883	5485
2154.923	5470
2156.965	5457
2159.007	5484
2161.046	5420
2163.086	5461
2165.126	5514
2167.163	5425
2169.202	5490
2171.239	5385
2173.277	5420
2175.314	5409
2177.349	5355
2179.385	5530
2181.42	5414
2183.453	5438
2185.49	5390
2187.522	5344
2189.555	5424
2191.586	5380
2193.619	5346
2195.651	5264
2197.682	5301
2199.711	5388
2201.74	5345
2203.769	5460
2205.799	5352
2207.828	5455
2209.855	5438
2211.882	5335
2213.908	5372
2215.934	5351
2217.961	5357
2219.986	5443
2222.01	5439
2224.034	5420
2226.057	5333
2228.08	5364
2230.104	5360
2232.124	5387
2234.145	5392
2236.166	5249
2238.186	5410
2240.207	5336
2242.227	5356
2244.244	5362
2246.262	5337
2248.28	5466
2250.299	5253
2252.314	5309
2254.33	5365
2256.346	5433
2258.36	5268
2260.375	5462
2262.391	5315
2264.403	5391
2266.416	5449
2268.427	5354
2270.44	5314
2272.453	5340
2274.463	5356
2276.474	5361
2278.483	5312
2280.493	5324
2282.501	5348
2284.51	5478
2286.518	5383
2288.524	5448
2290.532	5355
2292.537	5335
2294.544	5309
2296.55	5422
2298.554	5335
2300.557	5370
2302.562	5278
2304.566	5502
2306.568	5381
2308.569	5286
2310.572	5331
2312.573	5461
2314.573	5466
2316.574	5386
2318.573	5350
2320.571	5353
2322.571	5353
2324.569	5459
2326.567	5329
2328.564	5362
2330.56	5302
2332.556	5346
2334.551	5202
2336.546	5265
2338.542	5399
2340.535	5282
2342.529	5329
2344.521	5326
2346.512	5328
2348.505	5222
2350.497	5409
2352.487	5179
2354.478	5309
2356.468	5343
2358.457	5338
2360.446	5369
2362.434	5195
2364.422	5168
2366.408	5203
2368.395	5278
2370.383	5286
2372.369	5269
2374.353	5309
2376.338	5192
2378.321	5210
2380.307	5332
2382.29	5239
2384.272	5213
2386.254	5357
2388.235	5198
2390.218	5209
2392.198	5197
2394.179	5226
2396.157	5221
2398.137	5315
2400.115	5240
2402.095	5298
2404.072	5207
2406.048	5238
2408.026	5167
2410.001	5243
2411.977	5253
2413.953	5292
2415.927	5147
2417.9	5173
2419.875	5258
2421.847	5211
2423.821	5254
2425.792	5098
2427.763	5294
2429.736	5248
2431.706	5159
2433.677	5193
2435.646	5271
2437.615	5229
2439.583	5251
2441.551	5296
2443.519	5309
2445.486	5118
2447.452	5269
2449.418	5250
2451.383	5227
2453.348	5259
2455.314	5124
2457.278	5169
2459.241	5181
2461.205	5237
2463.167	5243
2465.131	5147
2467.091	5171
2469.052	5165
2471.012	5207
2472.972	5228
2474.932	5247
2476.891	5168
2478.85	5231
2480.808	5191
2482.766	5219
2484.722	5160
2486.68	5067
2488.636	5211
2490.591	5159
2492.546	5241
2494.5	5075
2496.456	5138
2498.41	5153
2500.362	5049
2502.315	5140
2504.266	5146
2506.218	5088
2508.169	5077
2510.121	5161
2512.07	5180
2514.019	5161
2515.968	5160
2517.918	5188
2519.866	5068
2521.813	5048
2523.76	5113
2525.707	5145
2527.653	5202
2529.599	5140
2531.543	5227
2533.489	5126
2535.433	5049
2537.376	5032
2539.32	5179
2541.264	5126
2543.205	5130
2545.147	5173
2547.087	5230
2549.029	5097
2550.969	5205
2552.908	5215
2554.847	5122
2556.786	5060
2558.724	5209
2560.663	5195
2562.6	5163
2564.537	5148
2566.473	5168
2568.408	5054
2570.345	5086
2572.28	5075
2574.214	5188
2576.148	5129
2578.081	5108
2580.014	5058
2581.947	5137
2583.879	5176
2585.81	5114
2587.741	5051
2589.67	5167
2591.602	5167
2593.532	5245
2595.461	5114
2597.388	5232
2599.316	5050
2601.244	5057
2603.172	5129
2605.098	5320
2607.023	5144
2608.949	5116
2610.873	5047
2612.8	5233
2614.723	5183
2616.647	5162
2618.569	5179
2620.493	5136
2622.416	5202
2624.338	5044
2626.258	5100
2628.179	5207
2630.099	5228
2632.019	5243
2633.939	5102
2635.857	5102
2637.775	5183
2639.694	5154
2641.61	5239
2643.528	5178
2645.444	5162
2647.361	5167
2649.276	5099
2651.19	5169
2653.105	5221
2655.019	5136
2656.934	5178
2658.846	5133
2660.758	5138
2662.67	5154
2664.583	5171
2666.493	5187
2668.404	5164
2670.313	5159
2672.223	5083
2674.134	5098
2676.042	5225
2677.95	5158
2679.858	5250
2681.765	5188
2683.673	5113
2685.579	5079
2687.483	5188
2689.389	5099
2691.294	5045
2693.198	5119
2695.104	5123
2697.006	5149
2698.909	5000
2700.811	5132
2702.713	5055
2704.615	5146
2706.516	5096
2708.417	5135
2710.316	5104
2712.216	5105
2714.115	5090
2716.014	5068
2717.913	5017
2719.81	5046
2721.707	5157
2723.603	5133
2725.501	5029
2727.396	5001
2729.292	5085
2731.186	5037
2733.081	5160
2734.976	5061
2736.87	5058
2738.762	5002
2740.653	5115
2742.546	5040
2744.437	5102
2746.329	5079
2748.22	4966
2750.11	5080
2751.999	5028
2753.889	5037
2755.778	5117
2757.666	4996
2759.553	4998
2761.44	5123
2763.328	5088
2765.215	4950
2767.101	5116
2768.986	5046
2770.87	5019
2772.754	5083
2774.638	5075
2776.523	5097
2778.405	4937
2780.288	5086
2782.17	5034
2784.051	5139
2785.934	5064
2787.814	5046
2789.694	5030
2791.574	5046
2793.453	5046
2795.332	4986
2797.212	4969
2799.088	5067
2800.966	5068
2802.843	5003
2804.719	5088
2806.597	5075
2808.471	5068
2810.346	5001
2812.221	4993
2814.094	4993
2815.969	5125
2817.843	5034
2819.714	4971
2821.587	5060
2823.459	4949
2825.329	4895
2827.202	5012
2829.072	5013
2830.942	5037
2832.811	5079
2834.68	5003
2836.549	5041
2838.418	5013
2840.284	5136
2842.152	5051
2844.018	5010
2845.885	4948
2847.751	4969
2849.616	4988
2851.482	4994
2853.345	5078
2855.208	5004
2857.074	5071
2858.937	5147
2860.799	5009
2862.66	5144
2864.522	5148
2866.385	5042
2868.245	5060
2870.104	5017
2871.964	5133
2873.824	5136
2875.683	5044
2877.542	5154
2879.4	5251
2881.257	5093
2883.114	5203
2884.97	5236
2886.827	5180
2888.683	5257
2890.537	5215
2892.392	5146
2894.246	5223
2896.1	5177
2897.954	5141
2899.807	5232
2901.66	5154
2903.51	5252
2905.362	5194
2907.214	5229
2909.065	5226
2910.915	5180
2912.765	5218
2914.613	5189
2916.463	5339
2918.311	5313
2920.158	5211
2922.006	5336
2923.853	5357
2925.698	5292
2927.546	5346
2929.392	5325
2931.236	5364
2933.081	5508
2934.924	5338
2936.77	5433
2938.613	5394
2940.455	5560
2942.298	5440
2944.139	5487
2945.982	5408
2947.823	5578
2949.662	5552
2951.503	5553
2953.342	5318
2955.182	5441
2957.021	5425
2958.858	5447
2960.697	5457
2962.534	5550
2964.37	5471
2966.207	5338
2968.044	5217
2969.879	5302
2971.714	5170
2973.548	5193
2975.383	5264
2977.218	5124
2979.051	5185
2980.883	5172
2982.715	5175
2984.547	5210
2986.379	5111
2988.21	5120
2990.04	5053
2991.87	5129
2993.7	5208
2995.53	4854
2997.359	5052
2999.187	4951
3001.015	4985
3002.842	4878
3004.669	5006
3006.497	5041
3008.323	4798
3010.148	5009
3011.974	4879
3013.797	4927
3015.623	4872
3017.447	4878
3019.27	4963
3021.094	4771
3022.915	4829
3024.737	4820
3026.56	4749
3028.38	4839
3030.201	4693
3032.022	4849
3033.84	4740
3035.662	4747
3037.481	4816
3039.298	4798
3041.117	4805
3042.933	4678
3044.752	4814
3046.568	4821
3048.385	4702
3050.2	4779
3052.016	4799
3053.83	4710
3055.646	4699
3057.46	4789
3059.272	4705
3061.086	4709
3062.898	4833
3064.711	4743
3066.524	4887
3068.335	4773
3070.145	4643
3071.956	4803
3073.766	4696
3075.576	4805
3077.385	4729
3079.193	4748
3081.002	4765
3082.81	4651
3084.618	4611
3086.425	4647
3088.231	4566
3090.036	4630
3091.842	4661
3093.648	4723
3095.452	4672
3097.257	4623
3099.06	4589
3100.863	4604
3102.666	4592
3104.47	4614
3106.272	4668
3108.073	4678
3109.875	4599
3111.676	4520
3113.477	4479
3115.277	4618
3117.077	4580
3118.874	4645
3120.673	4596
3122.473	4630
3124.271	4588
3126.066	4522
3127.863	4622
3129.66	4670
3131.456	4533
3133.252	4568
3135.047	4577
3136.842	4621
3138.635	4518
3140.429	4519
3142.223	4576
3144.016	4513
3145.808	4468
3147.6	4619
3149.392	4527
3151.183	4596
3152.975	4619
3154.765	4525
3156.553	4484
3158.344	4476
3160.132	4526
3161.922	4443
3163.71	4541
3165.497	4494
3167.285	4566
3169.071	4547
3170.858	4405
3172.645	4498
3174.429	4476
3176.214	4416
3177.998	4535
3179.783	4448
3181.568	4553
3183.351	4534
3185.133	4490
3186.915	4509
3188.698	4559
3190.481	4423
3192.261	4488
3194.042	4490
3195.822	4449
3197.601	4537
3199.381	4452
3201.161	4459
3202.939	4424
3204.717	4393
3206.495	4413
3208.272	4481
3210.05	4507
3211.826	4403
3213.602	4527
3215.376	4406
3217.151	4501
3218.927	4399
3220.702	4530
3222.476	4363
3224.249	4480
3226.021	4415
3227.793	4448
3229.567	4337
3231.339	4436
3233.109	4334
3234.88	4469
3236.651	4447
3238.421	4482
3240.191	4520
3241.96	4440
3243.728	4415
3245.497	4453
3247.263	4318
3249.033	4473
3250.799	4499
3252.566	4475
3254.331	4451
3256.097	4389
3257.863	4471
3259.628	4349
3261.392	4446
3263.156	4424
3264.919	4402
3266.683	4354
3268.447	4444
3270.208	4385
3271.969	4468
3273.731	4476
3275.492	4402
3277.253	4386
3279.013	4398
3280.773	4490
3282.532	4423
3284.291	4432
3286.05	4480
3287.808	4408
3289.566	4454
3291.323	4334
3293.079	4391
3294.835	4412
3296.593	4476
3298.348	4437
3300.102	4359
3301.857	4358
3303.611	4462
3305.366	4508
3307.119	4313
3308.872	4359
3310.624	4427
3312.376	4356
3314.129	4394
3315.881	4446
3317.631	4352
3319.38	4433
3321.13	4378
3322.88	4357
3324.631	4314
3326.379	4359
3328.126	4375
3329.875	4328
3331.622	4355
3333.371	4333
3335.116	4319
3336.863	4326
3338.609	4436
3340.353	4311
3342.1	4328
3343.845	4364
3345.588	4370
3347.332	4328
3349.074	4273
3350.817	4368
3352.56	4312
3354.303	4342
3356.043	4398
3357.785	4268
3359.525	4349
3361.268	4367
3363.007	4269
3364.745	4344
3366.485	4393
3368.223	4366
3369.962	4278
3371.701	4177
3373.438	4361
3375.174	4330
3376.911	4329
3378.647	4265
3380.384	4311
3382.118	4315
3383.854	4295
3385.588	4243
3387.322	4266
3389.057	4248
3390.79	4283
3392.522	4269
3394.255	4276
3395.987	4281
3397.719	4359
3399.451	4170
3401.181	4198
3402.911	4302
3404.641	4171
3406.371	4244
3408.101	4286
3409.83	4258
3411.558	4224
3413.285	4226
3415.011	4243
3416.739	4187
3418.467	4173
3420.193	4300
3421.919	4256
3423.644	4219
3425.368	4245
3427.094	4233
3428.818	4106
3430.542	4215
3432.264	4239
3433.987	4220
3435.712	4266
3437.434	4229
3439.155	4209
3440.876	4281
3442.596	4110
3444.317	4184
3446.039	4122
3447.757	4161
3449.477	4129
3451.195	4107
3452.914	4159
3454.632	4197
3456.35	4070
3458.067	4140
3459.784	4185
3461.5	4159
3463.216	4139
3464.932	4040
3466.647	4127
3468.362	4155
3470.076	4149
3471.789	4126
3473.505	4175
3475.217	4138
3476.929	4008
3478.641	4030
3480.354	4020
3482.066	4091
3483.777	4126
3485.487	4032
3487.197	4107
3488.908	4092
3490.617	4071
3492.327	4007
3494.035	4046
3495.743	4036
3497.451	4098
3499.158	4045
3500.866	4028
3502.572	3993
3504.278	4069
3505.984	3979
3507.689	4022
3509.396	3978
3511.1	3988
3512.804	4057
3514.508	3981
3516.211	4008
3517.913	4103
3519.616	3969
3521.319	4088
3523.021	4015
3524.722	4035
3526.422	4024
3528.124	3980
3529.824	3968
3531.524	3955
3533.222	3942
3534.921	3976
3536.62	3966
3538.318	3953
3540.016	4002
3541.714	3953
3543.41	4104
3545.107	4039
3546.803	3975
3548.5	3925
3550.194	3984
3551.889	3878
3553.583	3894
3555.279	4007
3556.972	3856
3558.666	3988
3560.358	4020
3562.051	3966
3563.742	3832
3565.435	3921
3567.126	3858
3568.817	3959
3570.507	4024
3572.197	3843
3573.888	3963
3575.577	3943
3577.265	3969
3578.954	3913
3580.642	3924
3582.329	3886
3584.017	3916
3585.704	3865
3587.391	3873
3589.077	3974
3590.762	3760
3592.449	3907
3594.133	3915
3595.817	3889
3597.501	4012
3599.185	3870
3600.869	3720
3602.552	3834
3604.234	3894
3605.916	3879
3607.598	3760
3609.279	3848
3610.961	3750
3612.642	3894
3614.321	3766
3616	3836
3617.68	3816
3619.36	3821
3621.039	3792
3622.716	3776
3624.394	3832
3626.071	3792
3627.748	3783
3629.425	3876
3631.102	3723
3632.778	3809
3634.452	3821
3636.127	3783
3637.803	3800
3639.477	3768
3641.151	3806
3642.823	3784
3644.497	3763
3646.171	3745
3647.842	3742
3649.515	3800
3651.185	3713
3652.857	3783
3654.527	3740
3656.198	3714
3657.868	3821
3659.537	3749
3661.207	3674
3662.875	3744
3664.544	3681
3666.212	3703
3667.879	3721
3669.546	3661
3671.212	3724
3672.88	3819
3674.546	3709
3676.211	3625
3677.875	3663
3679.541	3682
3681.205	3642
3682.87	3696
3684.533	3733
3686.196	3717
3687.859	3641
3689.521	3751
3691.184	3629
3692.845	3704
3694.507	3638
3696.167	3716
3697.827	3654
3699.487	3647
3701.148	3654
3702.808	3736
3704.466	3698
3706.125	3657
3707.783	3545
3709.442	3740
3711.099	3771
3712.757	3677
3714.412	3683
3716.068	3636
3717.725	3648
3719.381	3684
3721.036	3528
3722.689	3667
3724.344	3612
3725.998	3669
3727.652	3665
3729.305	3593
3730.958	3735
3732.61	3529
3734.262	3648
3735.915	3669
3737.565	3671
3739.217	3589
3740.866	3641
3742.516	3630
3744.165	3573
3745.816	3625
3747.464	3561
3749.113	3545
3750.761	3635
3752.409	3596
3754.057	3526
3755.703	3545
3757.35	3573
3758.996	3645
3760.641	3587
3762.289	3601
3763.933	3591
3765.577	3605
3767.222	3564
3768.865	3568
3770.508	3497
3772.152	3564
3773.796	3558
3775.438	3558
3777.079	3579
3778.721	3571
3780.363	3598
3782.003	3589
3783.643	3544
3785.283	3486
3786.923	3536
3788.563	3548
3790.203	3516
3791.841	3522
3793.479	3482
3795.115	3545
3796.753	3585
3798.391	3502
3800.027	3441
3801.664	3506
3803.299	3508
3804.935	3465
3806.571	3486
3808.206	3502
3809.839	3461
3811.473	3447
3813.107	3469
3814.74	3444
3816.375	3396
3818.006	3423
3819.638	3554
3821.27	3436
3822.9	3500
3824.532	3478
3826.163	3423
3827.792	3438
3829.423	3391
3831.051	3462
3832.682	3449
3834.311	3404
3835.938	3482
3837.566	3407
3839.193	3433
3840.821	3409
3842.448	3455
3844.075	3442
3845.7	3479
3847.325	3439
3848.951	3411
3850.576	3364
3852.201	3418
3853.825	3435
3855.448	3375
3857.072	3416
3858.694	3370
3860.318	3421
3861.939	3412
3863.562	3442
3865.183	3486
3866.804	3381
3868.426	3512
3870.045	3395
3871.666	3387
3873.285	3313
3874.904	3367
3876.524	3368
3878.142	3434
3879.76	3365
3881.378	3423
3882.995	3363
3884.612	3427
3886.229	3378
3887.845	3341
3889.461	3369
3891.076	3389
3892.691	3349
3894.307	3347
3895.922	3385
3897.536	3394
3899.149	3386
3900.761	3394
3902.374	3306
3903.988	3378
3905.6	3283
3907.212	3317
3908.822	3264
3910.433	3373
3912.045	3280
3913.655	3379
3915.265	3302
3916.875	3384
3918.483	3425
3920.093	3273
3921.702	3300
3923.309	3337
3924.917	3349
3926.523	3360
3928.13	3359
3929.739	3358
3931.344	3431
3932.95	3307
3934.555	3360
3936.159	3298
3937.766	3288
3939.369	3313
3940.974	3320
3942.577	3276
3944.181	3350
3945.783	3303
3947.386	3339
3948.989	3315
3950.59	3303
3952.191	3312
3953.791	3297
3955.394	3284
3956.994	3275
3958.593	3307
3960.192	3257
3961.791	3214
3963.392	3285
3964.99	3219
3966.588	3209
3968.185	3228
3969.782	3266
3971.379	3283
3972.976	3292
3974.572	3247
3976.168	3304
3977.763	3223
3979.358	3247
3980.954	3273
3982.548	3203
3984.142	3189
3985.736	3249
3987.329	3249
3988.922	3231
3990.516	3241
3992.108	3217
3993.698	3217
3995.29	3219
3996.881	3136
3998.473	3198
4000.064	3199
4001.653	3211
4003.242	3168
4004.832	3142
4006.422	3129
4008.01	3225
4009.598	3213
4011.186	3184
4012.773	3181
4014.36	3170
4015.947	3204
4017.534	3145
4019.119	3104
4020.705	3177
4022.291	3117
4023.876	3087
4025.461	3124
4027.044	3146
4028.627	3129
4030.211	3176
4031.795	3166
4033.378	3102
4034.96	3169
4036.542	3129
4038.124	3134
4039.704	3118
4041.286	3107
4042.867	3113
4044.447	3127
4046.026	3113
4047.606	3061
4049.187	3118
4050.765	3145
4052.343	3110
4053.92	3127
4055.498	3061
4057.076	3150
4058.654	3078
4060.23	3076
4061.806	2966
4063.381	3102
4064.957	3106
4066.533	3078
4068.107	2952
4069.682	3126
4071.256	3089
4072.829	3120
4074.404	3019
4075.977	3002
4077.549	3106
4079.121	3036
4080.693	3027
4082.265	3077
4083.836	3082
4085.407	2992
4086.977	2986
4088.547	2993
4090.117	3012
4091.687	3088
4093.256	3014
4094.825	3016
4096.392	3050
4097.96	3010
4099.528	3026
4101.097	2924
4102.663	2985
4104.229	2983
4105.795	3022
4107.361	2954
4108.928	3046
4110.493	3031
4112.058	3065
4113.621	3015
4115.186	2950
4116.75	3009
4118.313	3015
4119.876	3004
4121.438	3039
4123	2973
4124.562	3039
4126.125	2954
4127.686	3022
4129.246	2973
4130.807	2969
4132.367	2961
4133.927	2992
4135.486	2980
4137.046	2928
4138.604	2930
4140.162	2990
4141.72	2961
4143.279	2917
4144.836	2963
4146.393	2925
4147.949	2933
4149.505	2995
4151.062	2906
4152.617	2859
4154.172	2890
4155.727	2929
4157.281	2962
4158.836	2820
4160.39	2858
4161.943	2796
4163.496	2872
4165.048	2920
4166.601	2856
4168.154	2903
4169.706	2797
4171.257	2785
4172.808	2775
4174.358	2887
4175.909	2851
4177.458	2874
4179.008	2860
4180.558	2827
4182.106	2895
4183.655	2838
4185.204	2853
4186.751	2793
4188.298	2924
4189.845	2822
4191.392	2898
4192.939	2882
4194.485	2837
4196.031	2833
4197.576	2843
4199.121	2845
4200.666	2816
4202.211	2782
4203.754	2854
4205.298	2879
4206.84	2804
4208.384	2812
4209.927	2809
4211.47	2839
4213.011	2877
4214.552	2835
4216.094	2811
4217.635	2813
4219.175	2839
4220.716	2869
4222.255	2770
4223.793	2861
4225.335	2744
4226.873	2819
4228.411	2801
4229.948	2739
4231.486	2752
4233.024	2869
4234.562	2729
4236.098	2760
4237.634	2766
4239.169	2721
4240.705	2790
4242.241	2825
4243.776	2709
4245.31	2790
4246.844	2775
4248.378	2735
4249.911	2786
4251.445	2783
4252.978	2721
4254.51	2763
4256.042	2693
4257.574	2832
4259.107	2823
4260.638	2778
4262.169	2749
4263.699	2780
4265.228	2735
4266.759	2739
4268.289	2777
4269.818	2767
4271.345	2766
4272.874	2654
4274.402	2720
4275.931	2740
4277.458	2737
4278.985	2736
4280.512	2721
4282.037	2725
4283.564	2786
4285.089	2682
4286.615	2649
4288.139	2706
4289.664	2708
4291.187	2728
4292.712	2666
4294.235	2689
4295.759	2671
4297.281	2664
4298.804	2682
4300.327	2706
4301.849	2756
4303.37	2628
4304.891	2736
4306.412	2670
4307.933	2679
4309.453	2670
4310.973	2662
4312.492	2646
