398.1873	4030
400.7097	4036
403.2336	4033
405.7547	4145
408.2751	4135
410.7948	4102
413.3138	4135
415.83	4225
418.3497	4197
420.8666	4198
423.3829	4218
425.8985	4289
428.4133	4331
430.9275	4306
433.441	4296
435.9538	4274
438.4639	4335
440.9753	4375
443.4881	4289
445.9982	4356
448.5055	4282
451.0142	4288
453.5201	4350
456.0274	4331
458.5361	4326
461.04	4384
463.5453	4336
466.0478	4381
468.5517	4326
471.0549	4346
473.5574	4352
476.0572	4407
478.5584	4310
481.0568	4426
483.5545	4383
486.0557	4344
488.5521	4352
491.0478	4390
493.5449	4405
496.0392	4419
498.5349	4436
501.0299	4420
503.5222	4453
506.0139	4451
508.5048	4382
510.9991	4518
513.4887	4415
515.9777	4434
518.4659	4353
520.9534	4510
523.4403	4467
525.9306	4531
528.4161	4528
530.9009	4571
533.3851	4489
535.8687	4620
538.3535	4510
540.8356	4374
543.3171	4469
545.7979	4531
548.278	4507
550.7595	4474
553.2383	4497
555.7144	4560
558.1918	4542
560.6685	4547
563.1446	4607
565.6221	4575
568.0968	4479
570.5688	4646
573.0422	4665
575.515	4525
577.989	4790
580.4584	4703
582.9291	4685
585.3991	4673
587.8685	4709
590.3352	4735
592.8052	4714
595.2706	4733
597.7372	4685
600.2033	4761
602.6666	4704
605.1334	4594
607.5953	4706
610.0587	4697
612.5193	4670
614.9814	4698
617.4427	4722
619.9034	4671
622.3615	4670
624.8208	4696
627.2775	4693
629.7335	4637
632.1929	4529
634.6476	4684
637.1016	4546
639.5569	4620
642.0096	4602
644.4637	4624
646.9151	4653
649.3678	4696
651.8179	4640
654.2672	4696
656.7159	4693
659.166	4769
661.6154	4727
664.0622	4841
666.5082	4777
668.9537	4802
671.4005	4797
673.8445	4892
676.288	4760
678.7308	4774
681.1729	4846
683.6163	4807
686.0572	4698
688.4973	4786
690.9368	4828
693.3757	4834
695.8138	4818
698.2534	4827
700.6902	4870
703.1245	4857
705.56	4877
707.9949	4896
710.4311	4876
712.8647	4850
715.2957	4791
717.7279	4909
720.1595	4939
722.5905	4874
725.0208	4957
727.4505	4913
729.8795	4986
732.3058	4968
734.7336	5020
737.1626	4977
739.587	4987
742.0128	5034
744.4359	5050
746.8604	5033
749.2841	5091
751.7073	5160
754.1278	5085
756.5496	5126
758.9688	5085
761.3893	5057
763.8093	5080
766.2285	5105
768.6451	5158
771.0611	5124
773.4784	5102
775.895	4989
778.3091	5040
780.7244	5161
783.1371	5190
785.5493	5158
787.9626	5178
790.3754	5246
792.7856	5089
795.1951	5073
797.6039	5230
800.0121	5105
802.4236	5313
804.8306	5155
807.2369	5167
809.6425	5186
812.0475	5269
814.4538	5329
816.8575	5249
819.2606	5228
821.663	5205
824.0648	5145
826.4659	5185
828.8683	5165
831.2682	5253
833.6674	5304
836.066	5362
838.4639	5211
840.8632	5326
843.2579	5409
845.6539	5378
848.0493	5372
850.444	5332
852.84	5283
855.2315	5355
857.6243	5397
860.0165	5350
862.4081	5351
864.797	5331
867.1892	5340
869.5789	5330
871.9659	5400
874.3542	5329
876.74	5324
879.129	5327
881.5155	5350
883.8994	5316
886.2845	5324
888.6671	5416
891.051	5408
893.4343	5341
895.8169	5346
898.197	5284
900.5783	5325
902.9571	5373
905.3372	5447
907.7167	5502
910.0936	5430
912.4698	5582
914.8474	5400
917.2244	5402
919.5987	5526
921.9744	5408
924.3475	5626
926.72	5636
929.0918	5540
931.4669	5537
933.8375	5555
936.2074	5664
938.5767	5697
940.9454	5797
943.3154	5723
945.6829	5736
948.0497	5979
950.4178	6061
952.7833	6204
955.1483	6419
957.5145	6585
959.8782	6687
962.2412	6736
964.6036	6500
966.9655	6270
969.3266	6265
971.6871	5902
974.0471	5856
976.4064	5775
978.765	5650
981.125	5541
983.4824	5626
985.8373	5547
988.1935	5609
990.549	5522
992.9039	5597
995.2602	5599
997.6119	5580
999.965	5599
1002.317	5592
1004.667	5517
1007.02	5537
1009.371	5655
1011.719	5546
1014.068	5551
1016.415	5642
1018.765	5611
1021.111	5540
1023.458	5755
1025.804	5635
1028.147	5563
1030.49	5648
1032.837	5653
1035.179	5641
1037.522	5694
1039.862	5647
1042.204	5778
1044.546	5652
1046.884	5669
1049.224	5745
1051.562	5693
1053.899	5805
1056.237	5706
1058.575	5658
1060.91	5788
1063.244	5843
1065.58	5783
1067.913	5778
1070.248	5753
1072.579	5800
1074.911	5896
1077.242	5777
1079.572	5816
1081.905	5849
1084.234	5845
1086.562	5859
1088.89	5765
1091.217	5733
1093.544	5764
1095.871	5807
1098.197	5672
1100.521	5720
1102.845	5720
1105.169	5825
1107.491	5654
1109.814	5724
1112.135	5770
1114.456	5692
1116.776	5651
1119.096	5850
1121.415	5765
1123.734	5755
1126.052	5807
1128.369	5832
1130.686	5695
1133.002	5775
1135.318	5864
1137.632	5803
1139.945	5873
1142.258	5862
1144.573	5747
1146.884	5796
1149.196	5873
1151.505	5762
1153.816	5763
1156.124	5835
1158.435	5866
1160.742	5800
1163.051	5850
1165.356	5856
1167.663	5901
1169.97	5910
1172.276	5893
1174.579	5870
1176.881	5871
1179.186	5747
1181.487	5898
1183.79	5911
1186.092	5926
1188.392	5843
1190.691	5864
1192.991	5856
1195.291	5780
1197.588	5889
1199.885	5965
1202.181	5829
1204.479	5932
1206.775	5951
1209.07	5861
1211.363	5910
1213.656	5798
1215.949	5954
1218.241	5981
1220.534	5891
1222.825	5848
1225.115	6015
1227.405	6012
1229.693	6076
1231.984	6085
1234.271	6111
1236.558	6011
1238.845	6129
1241.131	6162
1243.416	6069
1245.703	6150
1247.987	6150
1250.269	6198
1252.552	6214
1254.834	6134
1257.118	6077
1259.399	6167
1261.678	6144
1263.958	6135
1266.237	6214
1268.516	6185
1270.794	6154
1273.072	6212
1275.347	6204
1277.624	6072
1279.899	6179
1282.175	6105
1284.449	6167
1286.722	6068
1288.995	6085
1291.266	6132
1293.54	6076
1295.81	6112
1298.081	6129
1300.35	6089
1302.62	6021
1304.889	6201
1307.156	6164
1309.425	6182
1311.69	6077
1313.957	6102
1316.222	6093
1318.488	6204
1320.751	6115
1323.016	6147
1325.278	6140
1327.54	6187
1329.803	6294
1332.065	6138
1334.325	6179
1336.584	6215
1338.843	6203
1341.101	6246
1343.36	6128
1345.617	6211
1347.876	6099
1350.131	6192
1352.387	6176
1354.643	6243
1356.897	6287
1359.151	6213
1361.403	6174
1363.656	6185
1365.909	6330
1368.16	6329
1370.409	6232
1372.659	6279
1374.909	6232
1377.157	6370
1379.407	6345
1381.655	6343
1383.9	6285
1386.147	6359
1388.393	6336
1390.64	6345
1392.885	6427
1395.127	6377
1397.37	6289
1399.614	6400
1401.854	6400
1404.098	6302
1406.339	6315
1408.578	6523
1410.818	6389
1413.056	6471
1415.297	6436
1417.533	6341
1419.771	6359
1422.006	6429
1424.243	6488
1426.479	6468
1428.715	6457
1430.948	6290
1433.182	6378
1435.414	6476
1437.647	6541
1439.88	6561
1442.11	6469
1444.342	6597
1446.571	6479
1448.799	6696
1451.029	6615
1453.258	6584
1455.485	6508
1457.711	6623
1459.937	6543
1462.164	6588
1464.39	6649
1466.614	6576
1468.838	6481
1471.06	6519
1473.283	6484
1475.506	6477
1477.727	6517
1479.949	6328
1482.169	6392
1484.389	6449
1486.609	6324
1488.828	6371
1491.045	6489
1493.261	6310
1495.477	6376
1497.693	6520
1499.91	6506
1502.125	6380
1504.339	6282
1506.553	6375
1508.766	6336
1510.979	6356
1513.191	6323
1515.402	6463
1517.613	6319
1519.823	6479
1522.033	6351
1524.242	6401
1526.451	6474
1528.657	6385
1530.865	6454
1533.072	6338
1535.278	6457
1537.484	6352
1539.687	6392
1541.892	6458
1544.096	6353
1546.299	6366
1548.502	6553
1550.703	6617
1552.905	6512
1555.104	6467
1557.303	6661
1559.505	6629
1561.703	6640
1563.902	6530
1566.099	6569
1568.295	6615
1570.494	6606
1572.689	6549
1574.883	6527
1577.079	6664
1579.272	6621
1581.467	6632
1583.659	6554
1585.853	6616
1588.044	6764
1590.234	6669
1592.424	6637
1594.615	6718
1596.806	6755
1598.994	6792
1601.182	6794
1603.369	6708
1605.557	6689
1607.744	6691
1609.929	6825
1612.114	6731
1614.298	6799
1616.482	6756
1618.667	6665
1620.85	6665
1623.032	6732
1625.214	6757
1627.395	6790
1629.575	6797
1631.755	6785
1633.935	6782
1636.114	6870
1638.292	6715
1640.471	6778
1642.647	6918
1644.823	6903
1647	6729
1649.175	6830
1651.348	6741
1653.525	6889
1655.698	6828
1657.87	6965
1660.043	6917
1662.213	6948
1664.387	6924
1666.558	6873
1668.727	6812
1670.896	6945
1673.064	7051
1675.233	6865
1677.401	6976
1679.569	6816
1681.735	6844
1683.902	6809
1686.066	6933
1688.233	6863
1690.397	6821
1692.559	6865
1694.723	6816
1696.885	6865
1699.048	6824
1701.21	6850
1703.37	6767
1705.53	6803
1707.689	6888
1709.849	6800
1712.009	6838
1714.166	6890
1716.323	6857
1718.479	6753
1720.634	6766
1722.793	6932
1724.948	6798
1727.102	6816
1729.255	6729
1731.408	6811
1733.562	6851
1735.714	6901
1737.865	6837
1740.016	6900
1742.166	6847
1744.316	6994
1746.467	6757
1748.616	6798
1750.764	6867
1752.911	6998
1755.056	6876
1757.205	6950
1759.35	6854
1761.496	6928
1763.641	6980
1765.785	6977
1767.927	6887
1770.072	6966
1772.214	6992
1774.355	6919
1776.496	6953
1778.637	6915
1780.778	6990
1782.918	6885
1785.057	6990
1787.194	7015
1789.333	7038
1791.472	7106
1793.608	7082
1795.745	7035
1797.879	7055
1800.015	6987
1802.148	7075
1804.284	7142
1806.417	7107
1808.548	7072
1810.682	7056
1812.812	7204
1814.946	7030
1817.075	7028
1819.205	7041
1821.335	7230
1823.463	7067
1825.59	7094
1827.721	7028
1829.847	7116
1831.973	7084
1834.098	7031
1836.223	7084
1838.351	7032
1840.475	7038
1842.598	7019
1844.721	7176
1846.843	7129
1848.966	7184
1851.087	7050
1853.21	7094
1855.33	7109
1857.449	7050
1859.568	7151
1861.688	7243
1863.806	6935
1865.924	7085
1868.039	7114
1870.155	7125
1872.273	7155
1874.388	7041
1876.503	7114
1878.617	7132
1880.73	7206
1882.844	7089
1884.956	7139
1887.068	7165
1889.18	7332
1891.291	7183
1893.4	7223
1895.511	7353
1897.621	7202
1899.73	7278
1901.837	7216
1903.944	7238
1906.053	7362
1908.159	7258
1910.265	7266
1912.369	7362
1914.474	7341
1916.577	7369
1918.683	7334
1920.785	7288
1922.888	7243
1924.989	7283
1927.091	7481
1929.193	7426
1931.294	7410
1933.393	7473
1935.493	7445
1937.59	7565
1939.689	7356
1941.788	7421
1943.884	7384
1945.98	7417
1948.077	7409
1950.171	7523
1952.267	7414
1954.361	7412
1956.455	7399
1958.548	7453
1960.64	7504
1962.733	7507
1964.824	7501
1966.915	7496
1969.005	7578
1971.096	7444
1973.185	7603
1975.275	7398
1977.363	7441
1979.45	7415
1981.537	7537
1983.623	7492
1985.711	7675
1987.796	7594
1989.881	7624
1991.965	7504
1994.047	7468
1996.132	7511
1998.215	7439
2000.297	7519
2002.378	7658
2004.46	7425
2006.54	7535
2008.62	7503
2010.7	7615
2012.779	7571
2014.858	7595
2016.934	7641
2019.013	7644
2021.09	7750
2023.165	7608
2025.241	7705
2027.317	7642
2029.39	7590
2031.466	7655
2033.538	7750
2035.612	7637
2037.683	7755
2039.755	7731
2041.827	7684
2043.898	7737
2045.968	7709
2048.038	7668
2050.106	7805
2052.177	7788
2054.244	7868
2056.313	7864
2058.379	7825
2060.444	7723
2062.511	7867
2064.577	7769
2066.641	7805
2068.705	7844
2070.77	7899
2072.832	7799
2074.896	7797
2076.958	8029
2079.02	7727
2081.081	7941
2083.141	7844
2085.2	7994
2087.261	8075
2089.319	7874
2091.377	7986
2093.435	8006
2095.492	7910
2097.552	7931
2099.607	8020
2101.663	8052
2103.718	8029
2105.771	8108
2107.826	7969
2109.879	8013
2111.932	8048
2113.985	7967
2116.037	8042
2118.088	8114
2120.141	8046
2122.191	8032
2124.239	8176
2126.288	8077
2128.337	8091
2130.387	8184
2132.434	8023
2134.481	8217
2136.528	8172
2138.574	8108
2140.618	8123
2142.665	8195
2144.71	8184
2146.753	8271
2148.797	8341
2150.838	8234
2152.883	8155
2154.923	8313
2156.965	8074
2159.007	8345
2161.046	8211
2163.086	8263
2165.126	8283
2167.163	8121
2169.202	8300
2171.239	8137
2173.277	8285
2175.314	8163
2177.349	8326
2179.385	8372
2181.42	8299
2183.453	8448
2185.49	8279
2187.522	8269
2189.555	8236
2191.586	8340
2193.619	8277
2195.651	8318
2197.682	8318
2199.711	8302
2201.74	8256
2203.769	8396
2205.799	8400
2207.828	8454
2209.855	8322
2211.882	8484
2213.908	8384
2215.934	8462
2217.961	8535
2219.986	8592
2222.01	8519
2224.034	8521
2226.057	8452
2228.08	8594
2230.104	8358
2232.124	8476
2234.145	8582
2236.166	8466
2238.186	8640
2240.207	8597
2242.227	8685
2244.244	8684
2246.262	8710
2248.28	8704
2250.299	8644
2252.314	8612
2254.33	8731
2256.346	8758
2258.36	8732
2260.375	8655
2262.391	8729
2264.403	8671
2266.416	8782
2268.427	8772
2270.44	8818
2272.453	8812
2274.463	8715
2276.474	8835
2278.483	8818
2280.493	8824
2282.501	8937
2284.51	8875
2286.518	8859
2288.524	8916
2290.532	9020
2292.537	8954
2294.544	8934
2296.55	9014
2298.554	9148
2300.557	9097
2302.562	8932
2304.566	9051
2306.568	9022
2308.569	9143
2310.572	9146
2312.573	9149
2314.573	9108
2316.574	9186
2318.573	9222
2320.571	9088
2322.571	9156
2324.569	9117
2326.567	9114
2328.564	9204
2330.56	9241
2332.556	9214
2334.551	9119
2336.546	9255
2338.542	9220
2340.535	9414
2342.529	9320
2344.521	9370
2346.512	9172
2348.505	9241
2350.497	9315
2352.487	9376
2354.478	9441
2356.468	9317
2358.457	9420
2360.446	9314
2362.434	9400
2364.422	9319
2366.408	9501
2368.395	9338
2370.383	9536
2372.369	9563
2374.353	9531
2376.338	9438
2378.321	9432
2380.307	9568
2382.29	9552
2384.272	9531
2386.254	9477
2388.235	9543
2390.218	9795
2392.198	9600
2394.179	9578
2396.157	9644
2398.137	9710
2400.115	9848
2402.095	9697
2404.072	9788
2406.048	9886
2408.026	9718
2410.001	9939
2411.977	9790
2413.953	9838
2415.927	9799
2417.9	9826
2419.875	9883
2421.847	9942
2423.821	9904
2425.792	9982
2427.763	10086
2429.736	9931
2431.706	10022
2433.677	10049
2435.646	10119
2437.615	9972
2439.583	10029
2441.551	10163
2443.519	10249
2445.486	10137
2447.452	10161
2449.418	10149
2451.383	10280
2453.348	10189
2455.314	10168
2457.278	10223
2459.241	10182
2461.205	10286
2463.167	10343
2465.131	10190
2467.091	10369
2469.052	10404
2471.012	10247
2472.972	10408
2474.932	10289
2476.891	10354
2478.85	10286
2480.808	10502
2482.766	10519
2484.722	10441
2486.68	10557
2488.636	10523
2490.591	10594
2492.546	10688
2494.5	10500
2496.456	10804
2498.41	10710
2500.362	10712
2502.315	10578
2504.266	10866
2506.218	10758
2508.169	10748
2510.121	10796
2512.07	10935
2514.019	10821
2515.968	10971
2517.918	10712
2519.866	10887
2521.813	10882
2523.76	10916
2525.707	10889
2527.653	11020
2529.599	10840
2531.543	10940
2533.489	11209
2535.433	11093
2537.376	10909
2539.32	11182
2541.264	11117
2543.205	11226
2545.147	11204
2547.087	11356
2549.029	11180
2550.969	11150
2552.908	11377
2554.847	11385
2556.786	11421
2558.724	11499
2560.663	11427
2562.6	11581
2564.537	11544
2566.473	11461
2568.408	11653
2570.345	11671
2572.28	11698
2574.214	11655
2576.148	11792
2578.081	11772
2580.014	11813
2581.947	11739
2583.879	11757
2585.81	11722
2587.741	11833
2589.67	11885
2591.602	11875
2593.532	11926
2595.461	12073
2597.388	12111
2599.316	12174
2601.244	12214
2603.172	12042
2605.098	12214
2607.023	12166
2608.949	12198
2610.873	12184
2612.8	12357
2614.723	12307
2616.647	12473
2618.569	12455
2620.493	12470
2622.416	12627
2624.338	12563
2626.258	12562
2628.179	12620
2630.099	12780
2632.019	12600
2633.939	12837
2635.857	12791
2637.775	12804
2639.694	12870
2641.61	12927
2643.528	12908
2645.444	13028
2647.361	13082
2649.276	12908
2651.19	13079
2653.105	13138
2655.019	13027
2656.934	13117
2658.846	13297
2660.758	13127
2662.67	13212
2664.583	13382
2666.493	13221
2668.404	13412
2670.313	13441
2672.223	13296
2674.134	13412
2676.042	13557
2677.95	13523
2679.858	13488
2681.765	13677
2683.673	13617
2685.579	13701
2687.483	13597
2689.389	13558
2691.294	13706
2693.198	13691
2695.104	13870
2697.006	13784
2698.909	13835
2700.811	13710
2702.713	13843
2704.615	13902
2706.516	13845
2708.417	14010
2710.316	14031
2712.216	13948
2714.115	14249
2716.014	14024
2717.913	14076
2719.81	14243
2721.707	14101
2723.603	14168
2725.501	14460
2727.396	14155
2729.292	14412
2731.186	14340
2733.081	14553
2734.976	14372
2736.87	14475
2738.762	14552
2740.653	14505
2742.546	14602
2744.437	14481
2746.329	14659
2748.22	14713
2750.11	14768
2751.999	14661
2753.889	14736
2755.778	14784
2757.666	14817
2759.553	15050
2761.44	15080
2763.328	15120
2765.215	15126
2767.101	15066
2768.986	15203
2770.87	15202
2772.754	15349
2774.638	15192
2776.523	15189
2778.405	15406
2780.288	15211
2782.17	15326
2784.051	15433
2785.934	15498
2787.814	15583
2789.694	15755
2791.574	15774
2793.453	15599
2795.332	15829
2797.212	15705
2799.088	15687
2800.966	15880
2802.843	15809
2804.719	15852
2806.597	16028
2808.471	15940
2810.346	16063
2812.221	15905
2814.094	16171
2815.969	16167
2817.843	16325
2819.714	16254
2821.587	16403
2823.459	16534
2825.329	16258
2827.202	16371
2829.072	16505
2830.942	16570
2832.811	16612
2834.68	16711
2836.549	16681
2838.418	16719
2840.284	16862
2842.152	16765
2844.018	17163
2845.885	16967
2847.751	17008
2849.616	16925
2851.482	17253
2853.345	17247
2855.208	17234
2857.074	17170
2858.937	17456
2860.799	17437
2862.66	17607
2864.522	17426
2866.385	17597
2868.245	17836
2870.104	18065
2871.964	17764
2873.824	17999
2875.683	17879
2877.542	18116
2879.4	18265
2881.257	18141
2883.114	18428
2884.97	18537
2886.827	18417
2888.683	18473
2890.537	18505
2892.392	18634
2894.246	18744
2896.1	18576
2897.954	18829
2899.807	18627
2901.66	18797
2903.51	18799
2905.362	18928
2907.214	18966
2909.065	18967
2910.915	19137
2912.765	19294
2914.613	19086
2916.463	19434
2918.311	19483
2920.158	19404
2922.006	19762
2923.853	19884
2925.698	19974
2927.546	19670
2929.392	20037
2931.236	20270
2933.081	20323
2934.924	20467
2936.77	20435
2938.613	20428
2940.455	20512
2942.298	20680
2944.139	20870
2945.982	20946
2947.823	20890
2949.662	20770
2951.503	20903
2953.342	20555
2955.182	20845
2957.021	20911
2958.858	21003
2960.697	20944
2962.534	20885
2964.37	21309
2966.207	21089
2968.044	20911
2969.879	20928
2971.714	21075
2973.548	21060
2975.383	21298
2977.218	21029
2979.051	21331
2980.883	21089
2982.715	21431
2984.547	21292
2986.379	21576
2988.21	21403
2990.04	21116
2991.87	21366
2993.7	21534
2995.53	21468
2997.359	21438
2999.187	21522
3001.015	21688
3002.842	21675
3004.669	21974
3006.497	21699
3008.323	21634
3010.148	21684
3011.974	21821
3013.797	21805
3015.623	22128
3017.447	21868
3019.27	21931
3021.094	21791
3022.915	21993
3024.737	22209
3026.56	22117
3028.38	22184
3030.201	22186
3032.022	22293
3033.84	22221
3035.662	22286
3037.481	22226
3039.298	22502
3041.117	22440
3042.933	22630
3044.752	22588
3046.568	22590
3048.385	22588
3050.2	22994
3052.016	22853
3053.83	22762
3055.646	23072
3057.46	22979
3059.272	23013
3061.086	23086
3062.898	23365
3064.711	23349
3066.524	23500
3068.335	23356
3070.145	23602
3071.956	23515
3073.766	23573
3075.576	23857
3077.385	23458
3079.193	23643
3081.002	23869
3082.81	23608
3084.618	23820
3086.425	24051
3088.231	24265
3090.036	23742
3091.842	24164
3093.648	23987
3095.452	24088
3097.257	24094
3099.06	24225
3100.863	24373
3102.666	24421
3104.47	24632
3106.272	24444
3108.073	24788
3109.875	24489
3111.676	24726
3113.477	24652
3115.277	24815
3117.077	24772
3118.874	24823
3120.673	25265
3122.473	24839
3124.271	25277
3126.066	24923
3127.863	25178
3129.66	25575
3131.456	25212
3133.252	25440
3135.047	25424
3136.842	25548
3138.635	25541
3140.429	25680
3142.223	25675
3144.016	25659
3145.808	25931
3147.6	25922
3149.392	25859
3151.183	25862
3152.975	26105
3154.765	26068
3156.553	25993
3158.344	26551
3160.132	26351
3161.922	26343
3163.71	26314
3165.497	26624
3167.285	26731
3169.071	26473
3170.858	26748
3172.645	26856
3174.429	26817
3176.214	26731
3177.998	26878
3179.783	27148
3181.568	26905
3183.351	27368
3185.133	27291
3186.915	27483
3188.698	27455
3190.481	27313
3192.261	27397
3194.042	27864
3195.822	27402
3197.601	27813
3199.381	27865
3201.161	27890
3202.939	28064
3204.717	28035
3206.495	28479
3208.272	27979
3210.05	28146
3211.826	28159
3213.602	28566
3215.376	28361
3217.151	28674
3218.927	28415
3220.702	28698
3222.476	28776
3224.249	28897
3226.021	28733
3227.793	28917
3229.567	29122
3231.339	29017
3233.109	29118
3234.88	29387
3236.651	29382
3238.421	29596
3240.191	29615
3241.96	29577
3243.728	30159
3245.497	29743
3247.263	29751
3249.033	30286
3250.799	30042
3252.566	30461
3254.331	30455
3256.097	30460
3257.863	30456
3259.628	30699
3261.392	30571
3263.156	30570
3264.919	30622
3266.683	30954
3268.447	31049
3270.208	31008
3271.969	30957
3273.731	31296
3275.492	31428
3277.253	31399
3279.013	31397
3280.773	31509
3282.532	31893
3284.291	31831
3286.05	31839
3287.808	31673
3289.566	32285
3291.323	32302
3293.079	32331
3294.835	32005
3296.593	32383
3298.348	32285
3300.102	32875
3301.857	32718
3303.611	33076
3305.366	32771
3307.119	33052
3308.872	33186
3310.624	33441
3312.376	33263
3314.129	33236
3315.881	33684
3317.631	33683
3319.38	33618
3321.13	34071
3322.88	33873
3324.631	33820
3326.379	34064
3328.126	34316
3329.875	34035
3331.622	34461
3333.371	34383
3335.116	34393
3336.863	34656
3338.609	34759
3340.353	34591
3342.1	34943
3343.845	34938
3345.588	34798
3347.332	34720
3349.074	34982
3350.817	35256
3352.56	35393
3354.303	35487
3356.043	35600
3357.785	35693
3359.525	35769
3361.268	35772
3363.007	36127
3364.745	36086
3366.485	35924
3368.223	36229
3369.962	35942
3371.701	36285
3373.438	36260
3375.174	36541
3376.911	36802
3378.647	36923
3380.384	37055
3382.118	37247
3383.854	36903
3385.588	37013
3387.322	37552
3389.057	37597
3390.79	37518
3392.522	37566
3394.255	37655
3395.987	37786
3397.719	37793
3399.451	38126
3401.181	38024
3402.911	37880
3404.641	38017
3406.371	38091
3408.101	38953
3409.83	38379
3411.558	38769
3413.285	38773
3415.011	38663
3416.739	39013
3418.467	39104
3420.193	38988
3421.919	39349
3423.644	39402
3425.368	39219
3427.094	39461
3428.818	39515
3430.542	40094
3432.264	39499
3433.987	39697
3435.712	39646
3437.434	40221
3439.155	40158
3440.876	40241
3442.596	40090
3444.317	40316
3446.039	40579
3447.757	40318
3449.477	40493
3451.195	40780
3452.914	40826
3454.632	40671
3456.35	41314
3458.067	41178
3459.784	41100
3461.5	41475
3463.216	41498
3464.932	41334
3466.647	41527
3468.362	41462
3470.076	41735
3471.789	41557
3473.505	42006
3475.217	41832
3476.929	42437
3478.641	42024
3480.354	42530
3482.066	42207
3483.777	42494
3485.487	42742
3487.197	42496
3488.908	42903
3490.617	43225
3492.327	43091
3494.035	43245
3495.743	43268
3497.451	43279
3499.158	43603
3500.866	43718
3502.572	43653
3504.278	43967
3505.984	43896
3507.689	43749
3509.396	44434
3511.1	44018
3512.804	44506
3514.508	44400
3516.211	44650
3517.913	44587
3519.616	44485
3521.319	44841
3523.021	45409
3524.722	45086
3526.422	44886
3528.124	45244
3529.824	46018
3531.524	45670
3533.222	45601
3534.921	45798
3536.62	46041
3538.318	46639
3540.016	45950
3541.714	46366
3543.41	46522
3545.107	46743
3546.803	46918
3548.5	46825
3550.194	47129
3551.889	47158
3553.583	47241
3555.279	47013
3556.972	47745
3558.666	47458
3560.358	47757
3562.051	48074
3563.742	48125
3565.435	48166
3567.126	48014
3568.817	48467
3570.507	48354
3572.197	48161
3573.888	48980
3575.577	49041
3577.265	49000
3578.954	48608
3580.642	49418
3582.329	49186
3584.017	49269
3585.704	49589
3587.391	49363
3589.077	50070
3590.762	49616
3592.449	49937
3594.133	49683
3595.817	50037
3597.501	50250
3599.185	50247
3600.869	50264
3602.552	50075
3604.234	50570
3605.916	50844
3607.598	50689
3609.279	50447
3610.961	50934
3612.642	51384
3614.321	51170
3616	51190
3617.68	51056
3619.36	51735
3621.039	51072
3622.716	51774
3624.394	51648
3626.071	51942
3627.748	51751
3629.425	52286
3631.102	52286
3632.778	52616
3634.452	51620
3636.127	52748
3637.803	52636
3639.477	53032
3641.151	52573
3642.823	52980
3644.497	53134
3646.171	53398
3647.842	53652
3649.515	53461
3651.185	53783
3652.857	53743
3654.527	53616
3656.198	53686
3657.868	54467
3659.537	54313
3661.207	54315
3662.875	54201
3664.544	54874
3666.212	54879
3667.879	54655
3669.546	55369
3671.212	55090
3672.88	55408
3674.546	55715
3676.211	55673
3677.875	55806
3679.541	55958
3681.205	56153
3682.87	56074
3684.533	55920
3686.196	56521
3687.859	56502
3689.521	56695
3691.184	56822
3692.845	56993
3694.507	57289
3696.167	57379
3697.827	57484
3699.487	57457
3701.148	57919
3702.808	57743
3704.466	58241
3706.125	58416
3707.783	58131
3709.442	58698
3711.099	58809
3712.757	58648
3714.412	58866
3716.068	59165
3717.725	58984
3719.381	59702
3721.036	59214
3722.689	59324
3724.344	60123
3725.998	59719
3727.652	59893
3729.305	60284
3730.958	59876
3732.61	60254
3734.262	60322
3735.915	60735
3737.565	60642
3739.217	60970
3740.866	60779
3742.516	61576
3744.165	61011
3745.816	61177
3747.464	61814
3749.113	61647
3750.761	61511
3752.409	62181
3754.057	61934
3755.703	61928
3757.35	62187
3758.996	62532
3760.641	63441
3762.289	62543
3763.933	62622
3765.577	63153
3767.222	63310
3768.865	63492
3770.508	62671
3772.152	63494
3773.796	63361
3775.438	63364
3777.079	63933
3778.721	64129
3780.363	64013
3782.003	64161
3783.643	64583
3785.283	63955
3786.923	64818
3788.563	64666
3790.203	64503
3791.841	64922
3793.479	65234
3795.115	65062
3796.753	65138
3798.391	65535
3800.027	65320
3801.664	65472
3803.299	65299
3804.935	65535
3806.571	65535
3808.206	65535
3809.839	65535
3811.473	65535
3813.107	65535
3814.74	65535
3816.375	65535
3818.006	65535
3819.638	65535
3821.27	65535
3822.9	65535
3824.532	65535
3826.163	65535
3827.792	65535
3829.423	65535
3831.051	65535
3832.682	65535
3834.311	65535
3835.938	65535
3837.566	65535
3839.193	65535
3840.821	65535
3842.448	65535
3844.075	65535
3845.7	65535
3847.325	65535
3848.951	65535
3850.576	65535
3852.201	65535
3853.825	65535
3855.448	65535
3857.072	65535
3858.694	65535
3860.318	65535
3861.939	65535
3863.562	65535
3865.183	65535
3866.804	65535
3868.426	65535
3870.045	65535
3871.666	65535
3873.285	65535
3874.904	65535
3876.524	65535
3878.142	65535
3879.76	65535
3881.378	65535
3882.995	65535
3884.612	65535
3886.229	65535
3887.845	65535
3889.461	65535
3891.076	65535
3892.691	65535
3894.307	65535
3895.922	65535
3897.536	65535
3899.149	65535
3900.761	65535
3902.374	65535
3903.988	65535
3905.6	65535
3907.212	65535
3908.822	65535
3910.433	65535
3912.045	65535
3913.655	65535
3915.265	65535
3916.875	65535
3918.483	65535
3920.093	65535
3921.702	65535
3923.309	65535
3924.917	65535
3926.523	65535
3928.13	65535
3929.739	65535
3931.344	65535
3932.95	65535
3934.555	65535
3936.159	65535
3937.766	65535
3939.369	65535
3940.974	65535
3942.577	65535
3944.181	65535
3945.783	65535
3947.386	65535
3948.989	65535
3950.59	65535
3952.191	65535
3953.791	65535
3955.394	65535
3956.994	65535
3958.593	65535
3960.192	65535
3961.791	65535
3963.392	65535
3964.99	65535
3966.588	65535
3968.185	65535
3969.782	65535
3971.379	65535
3972.976	65535
3974.572	65535
3976.168	65535
3977.763	65535
3979.358	65535
3980.954	65535
3982.548	65535
3984.142	65535
3985.736	65535
3987.329	65535
3988.922	65535
3990.516	65535
3992.108	65535
3993.698	65535
3995.29	65535
3996.881	65535
3998.473	65535
4000.064	65535
4001.653	65535
4003.242	65535
4004.832	65535
4006.422	65535
4008.01	65535
4009.598	65535
4011.186	65535
4012.773	65535
4014.36	65535
4015.947	65535
4017.534	65535
4019.119	65535
4020.705	65535
4022.291	65535
4023.876	65535
4025.461	65535
4027.044	65535
4028.627	65535
4030.211	65535
4031.795	65535
4033.378	65535
4034.96	65535
4036.542	65535
4038.124	65535
4039.704	65535
4041.286	65535
4042.867	65535
4044.447	65535
4046.026	65535
4047.606	65535
4049.187	65535
4050.765	65535
4052.343	65535
4053.92	65535
4055.498	65535
4057.076	65535
4058.654	65535
4060.23	65535
4061.806	65535
4063.381	65535
4064.957	65535
4066.533	65535
4068.107	65535
4069.682	65535
4071.256	65535
4072.829	65535
4074.404	65535
4075.977	65535
4077.549	65535
4079.121	65535
4080.693	65535
4082.265	65535
4083.836	65535
4085.407	65535
4086.977	65535
4088.547	65535
4090.117	65535
4091.687	65535
4093.256	65535
4094.825	65535
4096.392	65535
4097.96	65535
4099.528	65535
4101.097	65535
4102.663	65535
4104.229	65535
4105.795	65535
4107.361	65535
4108.928	65535
4110.493	65535
4112.058	65535
4113.621	65535
4115.186	65535
4116.75	65535
4118.313	65535
4119.876	65535
4121.438	65535
4123	65535
4124.562	65535
4126.125	65535
4127.686	65535
4129.246	65535
4130.807	65535
4132.367	65535
4133.927	65535
4135.486	65535
4137.046	65535
4138.604	65535
4140.162	65535
4141.72	65535
4143.279	65535
4144.836	65535
4146.393	65535
4147.949	65535
4149.505	65535
4151.062	65535
4152.617	65535
4154.172	65535
4155.727	65535
4157.281	65535
4158.836	65535
4160.39	65535
4161.943	65535
4163.496	65535
4165.048	65535
4166.601	65535
4168.154	65535
4169.706	65535
4171.257	65535
4172.808	65535
4174.358	65535
4175.909	65535
4177.458	65535
4179.008	65535
4180.558	65535
4182.106	65535
4183.655	65535
4185.204	65535
4186.751	65535
4188.298	65535
4189.845	65535
4191.392	65535
4192.939	65535
4194.485	65535
4196.031	65535
4197.576	65535
4199.121	65535
4200.666	65535
4202.211	65535
4203.754	65535
4205.298	65535
4206.84	65535
4208.384	65535
4209.927	65535
4211.47	65535
4213.011	65535
4214.552	65535
4216.094	65535
4217.635	65535
4219.175	65535
4220.716	65535
4222.255	65535
4223.793	65535
4225.335	65535
4226.873	65535
4228.411	65535
4229.948	65535
4231.486	65535
4233.024	65535
4234.562	65535
4236.098	65535
4237.634	65535
4239.169	65535
4240.705	65535
4242.241	65535
4243.776	65535
4245.31	65535
4246.844	65535
4248.378	65535
4249.911	65535
4251.445	65535
4252.978	65535
4254.51	65535
4256.042	65535
4257.574	65535
4259.107	65535
4260.638	65535
4262.169	65535
4263.699	65535
4265.228	65535
4266.759	65535
4268.289	65535
4269.818	65535
4271.345	65535
4272.874	65535
4274.402	65535
4275.931	65535
4277.458	65535
4278.985	65535
4280.512	65535
4282.037	65535
4283.564	65535
4285.089	65535
4286.615	65535
4288.139	65535
4289.664	65535
4291.187	65535
4292.712	65535
4294.235	65535
4295.759	65535
4297.281	65535
4298.804	65535
4300.327	65535
4301.849	65535
4303.37	65535
4304.891	65535
4306.412	65535
4307.933	65535
4309.453	65535
4310.973	65535
4312.492	65535
