398.1873	3613
400.7097	3626
403.2336	3660
405.7547	3668
408.2751	3720
410.7948	3588
413.3138	3690
415.83	3745
418.3497	3719
420.8666	3689
423.3829	3802
425.8985	3792
428.4133	3791
430.9275	3840
433.441	3811
435.9538	3876
438.4639	3882
440.9753	3900
443.4881	3860
445.9982	3798
448.5055	3924
451.0142	3868
453.5201	3852
456.0274	3906
458.5361	3846
461.04	3847
463.5453	3831
466.0478	3869
468.5517	3836
471.0549	3840
473.5574	3844
476.0572	3926
478.5584	3900
481.0568	3891
483.5545	3928
486.0557	3881
488.5521	3957
491.0478	3889
493.5449	3949
496.0392	3994
498.5349	3971
501.0299	3975
503.5222	3974
506.0139	3996
508.5048	4116
510.9991	3985
513.4887	3957
515.9777	3958
518.4659	4045
520.9534	4056
523.4403	4071
525.9306	4026
528.4161	3989
530.9009	3969
533.3851	3935
535.8687	4037
538.3535	3994
540.8356	3967
543.3171	4035
545.7979	3977
548.278	4018
550.7595	4030
553.2383	4039
555.7144	3931
558.1918	4021
560.6685	4043
563.1446	4060
565.6221	4135
568.0968	4051
570.5688	4073
573.0422	4190
575.515	4156
577.989	4187
580.4584	4121
582.9291	4190
585.3991	4129
587.8685	4190
590.3352	4135
592.8052	4240
595.2706	4123
597.7372	4164
600.2033	4142
602.6666	4160
605.1334	4187
607.5953	4163
610.0587	4104
612.5193	4129
614.9814	4179
617.4427	4127
619.9034	4085
622.3615	4103
624.8208	4191
627.2775	4160
629.7335	4180
632.1929	4142
634.6476	4147
637.1016	4202
639.5569	4203
642.0096	4132
644.4637	4206
646.9151	4193
649.3678	4167
651.8179	4214
654.2672	4231
656.7159	4155
659.166	4286
661.6154	4243
664.0622	4205
666.5082	4238
668.9537	4287
671.4005	4375
673.8445	4279
676.288	4227
678.7308	4415
681.1729	4307
683.6163	4318
686.0572	4374
688.4973	4285
690.9368	4215
693.3757	4357
695.8138	4310
698.2534	4345
700.6902	4390
703.1245	4404
705.56	4371
707.9949	4376
710.4311	4397
712.8647	4379
715.2957	4367
717.7279	4400
720.1595	4367
722.5905	4432
725.0208	4365
727.4505	4506
729.8795	4438
732.3058	4422
734.7336	4441
737.1626	4413
739.587	4463
742.0128	4493
744.4359	4555
746.8604	4595
749.2841	4529
751.7073	4540
754.1278	4585
756.5496	4537
758.9688	4585
761.3893	4607
763.8093	4553
766.2285	4644
768.6451	4548
771.0611	4637
773.4784	4681
775.895	4550
778.3091	4617
780.7244	4601
783.1371	4582
785.5493	4619
787.9626	4619
790.3754	4491
792.7856	4618
795.1951	4686
797.6039	4559
800.0121	4621
802.4236	4661
804.8306	4711
807.2369	4611
809.6425	4659
812.0475	4610
814.4538	4727
816.8575	4639
819.2606	4704
821.663	4679
824.0648	4725
826.4659	4687
828.8683	4685
831.2682	4602
833.6674	4623
836.066	4621
838.4639	4660
840.8632	4679
843.2579	4604
845.6539	4673
848.0493	4718
850.444	4749
852.84	4739
855.2315	4704
857.6243	4680
860.0165	4714
862.4081	4734
864.797	4638
867.1892	4693
869.5789	4716
871.9659	4643
874.3542	4825
876.74	4755
879.129	4729
881.5155	4735
883.8994	4585
886.2845	4712
888.6671	4668
891.051	4766
893.4343	4735
895.8169	4675
898.197	4702
900.5783	4760
902.9571	4796
905.3372	4800
907.7167	4825
910.0936	4862
912.4698	4766
914.8474	4778
917.2244	4935
919.5987	4883
921.9744	4933
924.3475	4883
926.72	4961
929.0918	4968
931.4669	4933
933.8375	4954
936.2074	4910
938.5767	5056
940.9454	5016
943.3154	5022
945.6829	5055
948.0497	5162
950.4178	5294
952.7833	5408
955.1483	5364
957.5145	5680
959.8782	5526
962.2412	5577
964.6036	5524
966.9655	5484
969.3266	5347
971.6871	5194
974.0471	5005
976.4064	5005
978.765	4902
981.125	4939
983.4824	4883
985.8373	4936
988.1935	4960
990.549	4875
992.9039	4973
995.2602	4907
997.6119	4894
999.965	4898
1002.317	4915
1004.667	4752
1007.02	4910
1009.371	4893
1011.719	4969
1014.068	4894
1016.415	4888
1018.765	4886
1021.111	4956
1023.458	4935
1025.804	4895
1028.147	4858
1030.49	4961
1032.837	4961
1035.179	5068
1037.522	4944
1039.862	5051
1042.204	5010
1044.546	5035
1046.884	5006
1049.224	5052
1051.562	4976
1053.899	4990
1056.237	4996
1058.575	5037
1060.91	5033
1063.244	5153
1065.58	5025
1067.913	5022
1070.248	5055
1072.579	5091
1074.911	5038
1077.242	5043
1079.572	4943
1081.905	4981
1084.234	5078
1086.562	5068
1088.89	5020
1091.217	4995
1093.544	5122
1095.871	5034
1098.197	4903
1100.521	5114
1102.845	5035
1105.169	5012
1107.491	5002
1109.814	5113
1112.135	5080
1114.456	5018
1116.776	4976
1119.096	5193
1121.415	4996
1123.734	5032
1126.052	5134
1128.369	5009
1130.686	5139
1133.002	5090
1135.318	5094
1137.632	5118
1139.945	5078
1142.258	5102
1144.573	5074
1146.884	5009
1149.196	5017
1151.505	5062
1153.816	5063
1156.124	5110
1158.435	5093
1160.742	5101
1163.051	5134
1165.356	5128
1167.663	5068
1169.97	5072
1172.276	5107
1174.579	4985
1176.881	5029
1179.186	5106
1181.487	5070
1183.79	5032
1186.092	5113
1188.392	5096
1190.691	5060
1192.991	5060
1195.291	5130
1197.588	5091
1199.885	5129
1202.181	5151
1204.479	5108
1206.775	5085
1209.07	5030
1211.363	5119
1213.656	5081
1215.949	5062
1218.241	5083
1220.534	5192
1222.825	5183
1225.115	5253
1227.405	5163
1229.693	5213
1231.984	5158
1234.271	5121
1236.558	5155
1238.845	5262
1241.131	5381
1243.416	5222
1245.703	5240
1247.987	5292
1250.269	5309
1252.552	5250
1254.834	5268
1257.118	5225
1259.399	5231
1261.678	5238
1263.958	5258
1266.237	5298
1268.516	5251
1270.794	5205
1273.072	5289
1275.347	5245
1277.624	5234
1279.899	5216
1282.175	5240
1284.449	5237
1286.722	5248
1288.995	5198
1291.266	5195
1293.54	5283
1295.81	5224
1298.081	5253
1300.35	5211
1302.62	5201
1304.889	5160
1307.156	5203
1309.425	5369
1311.69	5162
1313.957	5268
1316.222	5289
1318.488	5176
1320.751	5240
1323.016	5233
1325.278	5346
1327.54	5271
1329.803	5219
1332.065	5274
1334.325	5288
1336.584	5241
1338.843	5201
1341.101	5259
1343.36	5236
1345.617	5226
1347.876	5251
1350.131	5247
1352.387	5200
1354.643	5206
1356.897	5235
1359.151	5239
1361.403	5348
1363.656	5354
1365.909	5237
1368.16	5265
1370.409	5323
1372.659	5168
1374.909	5239
1377.157	5282
1379.407	5276
1381.655	5361
1383.9	5322
1386.147	5438
1388.393	5190
1390.64	5469
1392.885	5373
1395.127	5431
1397.37	5377
1399.614	5380
1401.854	5388
1404.098	5365
1406.339	5336
1408.578	5385
1410.818	5427
1413.056	5256
1415.297	5406
1417.533	5435
1419.771	5452
1422.006	5262
1424.243	5468
1426.479	5423
1428.715	5360
1430.948	5450
1433.182	5454
1435.414	5393
1437.647	5493
1439.88	5505
1442.11	5462
1444.342	5509
1446.571	5516
1448.799	5456
1451.029	5597
1453.258	5453
1455.485	5488
1457.711	5533
1459.937	5404
1462.164	5525
1464.39	5464
1466.614	5374
1468.838	5457
1471.06	5341
1473.283	5428
1475.506	5435
1477.727	5436
1479.949	5332
1482.169	5339
1484.389	5244
1486.609	5215
1488.828	5311
1491.045	5264
1493.261	5292
1495.477	5356
1497.693	5377
1499.91	5268
1502.125	5287
1504.339	5324
1506.553	5324
1508.766	5335
1510.979	5377
1513.191	5286
1515.402	5394
1517.613	5393
1519.823	5248
1522.033	5308
1524.242	5452
1526.451	5311
1528.657	5442
1530.865	5390
1533.072	5305
1535.278	5368
1537.484	5392
1539.687	5391
1541.892	5419
1544.096	5371
1546.299	5348
1548.502	5463
1550.703	5347
1552.905	5328
1555.104	5327
1557.303	5390
1559.505	5350
1561.703	5394
1563.902	5432
1566.099	5408
1568.295	5422
1570.494	5401
1572.689	5573
1574.883	5418
1577.079	5446
1579.272	5410
1581.467	5436
1583.659	5494
1585.853	5535
1588.044	5476
1590.234	5506
1592.424	5486
1594.615	5466
1596.806	5532
1598.994	5565
1601.182	5487
1603.369	5486
1605.557	5598
1607.744	5605
1609.929	5523
1612.114	5642
1614.298	5590
1616.482	5594
1618.667	5477
1620.85	5543
1623.032	5418
1625.214	5556
1627.395	5543
1629.575	5516
1631.755	5486
1633.935	5543
1636.114	5611
1638.292	5553
1640.471	5508
1642.647	5565
1644.823	5586
1647	5616
1649.175	5464
1651.348	5734
1653.525	5583
1655.698	5496
1657.87	5600
1660.043	5528
1662.213	5527
1664.387	5520
1666.558	5525
1668.727	5537
1670.896	5641
1673.064	5638
1675.233	5716
1677.401	5609
1679.569	5555
1681.735	5730
1683.902	5705
1686.066	5681
1688.233	5500
1690.397	5630
1692.559	5528
1694.723	5615
1696.885	5651
1699.048	5603
1701.21	5689
1703.37	5576
1705.53	5608
1707.689	5540
1709.849	5495
1712.009	5520
1714.166	5478
1716.323	5599
1718.479	5629
1720.634	5609
1722.793	5596
1724.948	5587
1727.102	5601
1729.255	5663
1731.408	5709
1733.562	5579
1735.714	5612
1737.865	5652
1740.016	5587
1742.166	5519
1744.316	5558
1746.467	5491
1748.616	5637
1750.764	5609
1752.911	5605
1755.056	5645
1757.205	5633
1759.35	5533
1761.496	5636
1763.641	5490
1765.785	5680
1767.927	5586
1770.072	5588
1772.214	5537
1774.355	5645
1776.496	5621
1778.637	5696
1780.778	5663
1782.918	5651
1785.057	5665
1787.194	5719
1789.333	5768
1791.472	5567
1793.608	5663
1795.745	5596
1797.879	5706
1800.015	5621
1802.148	5654
1804.284	5720
1806.417	5735
1808.548	5582
1810.682	5551
1812.812	5531
1814.946	5611
1817.075	5721
1819.205	5655
1821.335	5610
1823.463	5701
1825.59	5593
1827.721	5688
1829.847	5565
1831.973	5602
1834.098	5629
1836.223	5585
1838.351	5645
1840.475	5612
1842.598	5511
1844.721	5782
1846.843	5603
1848.966	5611
1851.087	5597
1853.21	5626
1855.33	5673
1857.449	5649
1859.568	5632
1861.688	5661
1863.806	5602
1865.924	5688
1868.039	5698
1870.155	5582
1872.273	5509
1874.388	5557
1876.503	5651
1878.617	5651
1880.73	5616
1882.844	5566
1884.956	5647
1887.068	5569
1889.18	5597
1891.291	5684
1893.4	5674
1895.511	5701
1897.621	5597
1899.73	5614
1901.837	5741
1903.944	5787
1906.053	5614
1908.159	5811
1910.265	5724
1912.369	5731
1914.474	5592
1916.577	5738
1918.683	5693
1920.785	5632
1922.888	5690
1924.989	5664
1927.091	5764
1929.193	5793
1931.294	5720
1933.393	5733
1935.493	5702
1937.59	5742
1939.689	5753
1941.788	5725
1943.884	5752
1945.98	5697
1948.077	5611
1950.171	5768
1952.267	5806
1954.361	5689
1956.455	5681
1958.548	5811
1960.64	5803
1962.733	5779
1964.824	5777
1966.915	5794
1969.005	5686
1971.096	5807
1973.185	5719
1975.275	5726
1977.363	5878
1979.45	5693
1981.537	5750
1983.623	5706
1985.711	5670
1987.796	5758
1989.881	5651
1991.965	5725
1994.047	5729
1996.132	5724
1998.215	5692
2000.297	5687
2002.378	5657
2004.46	5747
2006.54	5655
2008.62	5749
2010.7	5783
2012.779	5680
2014.858	5763
2016.934	5734
2019.013	5658
2021.09	5696
2023.165	5661
2025.241	5635
2027.317	5671
2029.39	5710
2031.466	5600
2033.538	5716
2035.612	5654
2037.683	5809
2039.755	5795
2041.827	5791
2043.898	5646
2045.968	5702
2048.038	5762
2050.106	5700
2052.177	5758
2054.244	5721
2056.313	5728
2058.379	5717
2060.444	5735
2062.511	5706
2064.577	5729
2066.641	5671
2068.705	5694
2070.77	5749
2072.832	5772
2074.896	5816
2076.958	5826
2079.02	5814
2081.081	5812
2083.141	5789
2085.2	5781
2087.261	5670
2089.319	5743
2091.377	5786
2093.435	5677
2095.492	5830
2097.552	5854
2099.607	5708
2101.663	5731
2103.718	5801
2105.771	5624
2107.826	5773
2109.879	5745
2111.932	5749
2113.985	5805
2116.037	5826
2118.088	5726
2120.141	5817
2122.191	5811
2124.239	5647
2126.288	5815
2128.337	5745
2130.387	5792
2132.434	5754
2134.481	5699
2136.528	5734
2138.574	5756
2140.618	5717
2142.665	5805
2144.71	5646
2146.753	5639
2148.797	5764
2150.838	5781
2152.883	5718
2154.923	5878
2156.965	5726
2159.007	5749
2161.046	5754
2163.086	5864
2165.126	5718
2167.163	5757
2169.202	5720
2171.239	5722
2173.277	5676
2175.314	5711
2177.349	5761
2179.385	5713
2181.42	5774
2183.453	5564
2185.49	5702
2187.522	5644
2189.555	5715
2191.586	5716
2193.619	5632
2195.651	5733
2197.682	5607
2199.711	5724
2201.74	5642
2203.769	5659
2205.799	5608
2207.828	5618
2209.855	5745
2211.882	5617
2213.908	5735
2215.934	5705
2217.961	5697
2219.986	5714
2222.01	5577
2224.034	5546
2226.057	5654
2228.08	5604
2230.104	5680
2232.124	5584
2234.145	5722
2236.166	5605
2238.186	5649
2240.207	5617
2242.227	5664
2244.244	5659
2246.262	5587
2248.28	5610
2250.299	5659
2252.314	5682
2254.33	5580
2256.346	5713
2258.36	5604
2260.375	5758
2262.391	5620
2264.403	5751
2266.416	5644
2268.427	5718
2270.44	5688
2272.453	5682
2274.463	5552
2276.474	5776
2278.483	5694
2280.493	5519
2282.501	5684
2284.51	5677
2286.518	5753
2288.524	5593
2290.532	5638
2292.537	5615
2294.544	5702
2296.55	5778
2298.554	5636
2300.557	5653
2302.562	5582
2304.566	5610
2306.568	5635
2308.569	5706
2310.572	5696
2312.573	5647
2314.573	5625
2316.574	5689
2318.573	5689
2320.571	5699
2322.571	5551
2324.569	5555
2326.567	5685
2328.564	5578
2330.56	5614
2332.556	5604
2334.551	5630
2336.546	5565
2338.542	5626
2340.535	5564
2342.529	5675
2344.521	5557
2346.512	5471
2348.505	5583
2350.497	5651
2352.487	5615
2354.478	5613
2356.468	5553
2358.457	5561
2360.446	5639
2362.434	5604
2364.422	5529
2366.408	5552
2368.395	5604
2370.383	5414
2372.369	5609
2374.353	5541
2376.338	5659
2378.321	5596
2380.307	5564
2382.29	5472
2384.272	5468
2386.254	5612
2388.235	5497
2390.218	5725
2392.198	5503
2394.179	5527
2396.157	5443
2398.137	5672
2400.115	5470
2402.095	5495
2404.072	5482
2406.048	5513
2408.026	5556
2410.001	5496
2411.977	5573
2413.953	5502
2415.927	5573
2417.9	5447
2419.875	5551
2421.847	5504
2423.821	5517
2425.792	5576
2427.763	5572
2429.736	5484
2431.706	5526
2433.677	5523
2435.646	5568
2437.615	5466
2439.583	5461
2441.551	5567
2443.519	5525
2445.486	5495
2447.452	5459
2449.418	5635
2451.383	5490
2453.348	5586
2455.314	5552
2457.278	5504
2459.241	5564
2461.205	5514
2463.167	5505
2465.131	5542
2467.091	5591
2469.052	5488
2471.012	5537
2472.972	5519
2474.932	5477
2476.891	5468
2478.85	5620
2480.808	5552
2482.766	5553
2484.722	5592
2486.68	5587
2488.636	5449
2490.591	5420
2492.546	5534
2494.5	5358
2496.456	5502
2498.41	5459
2500.362	5354
2502.315	5507
2504.266	5494
2506.218	5488
2508.169	5436
2510.121	5519
2512.07	5505
2514.019	5569
2515.968	5502
2517.918	5435
2519.866	5452
2521.813	5394
2523.76	5545
2525.707	5434
2527.653	5508
2529.599	5394
2531.543	5399
2533.489	5444
2535.433	5451
2537.376	5424
2539.32	5481
2541.264	5353
2543.205	5422
2545.147	5419
2547.087	5404
2549.029	5368
2550.969	5437
2552.908	5425
2554.847	5464
2556.786	5497
2558.724	5409
2560.663	5495
2562.6	5474
2564.537	5480
2566.473	5515
2568.408	5421
2570.345	5418
2572.28	5450
2574.214	5398
2576.148	5559
2578.081	5512
2580.014	5371
2581.947	5412
2583.879	5518
2585.81	5437
2587.741	5457
2589.67	5454
2591.602	5474
2593.532	5397
2595.461	5497
2597.388	5534
2599.316	5437
2601.244	5357
2603.172	5466
2605.098	5525
2607.023	5420
2608.949	5525
2610.873	5461
2612.8	5495
2614.723	5544
2616.647	5406
2618.569	5493
2620.493	5382
2622.416	5443
2624.338	5442
2626.258	5456
2628.179	5430
2630.099	5489
2632.019	5533
2633.939	5456
2635.857	5455
2637.775	5519
2639.694	5465
2641.61	5430
2643.528	5447
2645.444	5516
2647.361	5552
2649.276	5437
2651.19	5420
2653.105	5424
2655.019	5558
2656.934	5531
2658.846	5444
2660.758	5559
2662.67	5486
2664.583	5422
2666.493	5563
2668.404	5444
2670.313	5540
2672.223	5494
2674.134	5463
2676.042	5466
2677.95	5409
2679.858	5465
2681.765	5446
2683.673	5420
2685.579	5493
2687.483	5378
2689.389	5490
2691.294	5511
2693.198	5512
2695.104	5399
2697.006	5495
2698.909	5426
2700.811	5482
2702.713	5468
2704.615	5454
2706.516	5368
2708.417	5385
2710.316	5447
2712.216	5427
2714.115	5352
2716.014	5381
2717.913	5398
2719.81	5424
2721.707	5381
2723.603	5489
2725.501	5448
2727.396	5413
2729.292	5483
2731.186	5475
2733.081	5363
2734.976	5331
2736.87	5487
2738.762	5385
2740.653	5334
2742.546	5459
2744.437	5412
2746.329	5422
2748.22	5283
2750.11	5349
2751.999	5401
2753.889	5385
2755.778	5458
2757.666	5284
2759.553	5384
2761.44	5337
2763.328	5386
2765.215	5442
2767.101	5421
2768.986	5462
2770.87	5377
2772.754	5438
2774.638	5364
2776.523	5409
2778.405	5498
2780.288	5295
2782.17	5296
2784.051	5385
2785.934	5364
2787.814	5389
2789.694	5452
2791.574	5340
2793.453	5415
2795.332	5320
2797.212	5425
2799.088	5348
2800.966	5435
2802.843	5338
2804.719	5354
2806.597	5415
2808.471	5328
2810.346	5375
2812.221	5364
2814.094	5388
2815.969	5324
2817.843	5461
2819.714	5333
2821.587	5379
2823.459	5370
2825.329	5310
2827.202	5353
2829.072	5357
2830.942	5420
2832.811	5251
2834.68	5321
2836.549	5394
2838.418	5272
2840.284	5393
2842.152	5469
2844.018	5383
2845.885	5454
2847.751	5386
2849.616	5395
2851.482	5381
2853.345	5277
2855.208	5380
2857.074	5316
2858.937	5479
2860.799	5455
2862.66	5481
2864.522	5348
2866.385	5445
2868.245	5499
2870.104	5514
2871.964	5436
2873.824	5527
2875.683	5674
2877.542	5555
2879.4	5544
2881.257	5622
2883.114	5606
2884.97	5610
2886.827	5556
2888.683	5650
2890.537	5765
2892.392	5674
2894.246	5615
2896.1	5662
2897.954	5611
2899.807	5581
2901.66	5671
2903.51	5683
2905.362	5551
2907.214	5564
2909.065	5582
2910.915	5654
2912.765	5711
2914.613	5581
2916.463	5646
2918.311	5590
2920.158	5720
2922.006	5722
2923.853	5864
2925.698	5730
2927.546	5861
2929.392	5837
2931.236	5822
2933.081	5917
2934.924	5870
2936.77	5717
2938.613	5862
2940.455	5839
2942.298	6049
2944.139	5985
2945.982	5978
2947.823	5983
2949.662	6067
2951.503	6020
2953.342	5852
2955.182	5941
2957.021	5861
2958.858	5922
2960.697	5902
2962.534	5925
2964.37	5787
2966.207	5780
2968.044	5777
2969.879	5687
2971.714	5624
2973.548	5616
2975.383	5497
2977.218	5540
2979.051	5541
2980.883	5557
2982.715	5523
2984.547	5608
2986.379	5390
2988.21	5438
2990.04	5536
2991.87	5440
2993.7	5328
2995.53	5289
2997.359	5403
2999.187	5331
3001.015	5369
3002.842	5314
3004.669	5386
3006.497	5306
3008.323	5336
3010.148	5261
3011.974	5278
3013.797	5156
3015.623	5170
3017.447	5179
3019.27	5196
3021.094	5181
3022.915	5210
3024.737	5233
3026.56	5130
3028.38	5182
3030.201	5250
3032.022	5083
3033.84	5112
3035.662	5071
3037.481	5249
3039.298	5077
3041.117	5208
3042.933	5154
3044.752	5133
3046.568	5212
3048.385	5093
3050.2	5182
3052.016	5154
3053.83	5100
3055.646	5120
3057.46	5107
3059.272	5005
3061.086	5091
3062.898	5148
3064.711	5085
3066.524	5095
3068.335	5063
3070.145	5044
3071.956	5036
3073.766	4987
3075.576	5083
3077.385	5115
3079.193	5112
3081.002	5035
3082.81	4954
3084.618	5036
3086.425	4999
3088.231	5076
3090.036	4952
3091.842	4967
3093.648	4906
3095.452	4949
3097.257	5030
3099.06	4999
3100.863	5019
3102.666	4925
3104.47	4900
3106.272	4940
3108.073	4990
3109.875	4924
3111.676	5004
3113.477	4994
3115.277	4919
3117.077	4991
3118.874	4965
3120.673	4939
3122.473	4949
3124.271	4979
3126.066	4889
3127.863	4928
3129.66	4876
3131.456	4878
3133.252	4939
3135.047	4813
3136.842	5008
3138.635	4872
3140.429	4895
3142.223	4851
3144.016	4970
3145.808	4789
3147.6	4829
3149.392	4904
3151.183	4891
3152.975	4798
3154.765	4907
3156.553	4869
3158.344	4877
3160.132	4932
3161.922	4806
3163.71	4787
3165.497	4847
3167.285	4877
3169.071	4817
3170.858	4787
3172.645	4748
3174.429	4760
3176.214	4828
3177.998	4792
3179.783	4894
3181.568	4736
3183.351	4823
3185.133	4802
3186.915	4834
3188.698	4759
3190.481	4870
3192.261	4817
3194.042	4906
3195.822	4760
3197.601	4870
3199.381	4697
3201.161	4857
3202.939	4860
3204.717	4839
3206.495	4727
3208.272	4740
3210.05	4729
3211.826	4815
3213.602	4751
3215.376	4835
3217.151	4866
3218.927	4813
3220.702	4788
3222.476	4911
3224.249	4745
3226.021	4729
3227.793	4787
3229.567	4726
3231.339	4779
3233.109	4863
3234.88	4743
3236.651	4620
3238.421	4749
3240.191	4841
3241.96	4697
3243.728	4787
3245.497	4855
3247.263	4805
3249.033	4792
3250.799	4758
3252.566	4797
3254.331	4782
3256.097	4751
3257.863	4751
3259.628	4826
3261.392	4731
3263.156	4713
3264.919	4758
3266.683	4667
3268.447	4729
3270.208	4679
3271.969	4778
3273.731	4701
3275.492	4736
3277.253	4737
3279.013	4825
3280.773	4689
3282.532	4748
3284.291	4773
3286.05	4709
3287.808	4754
3289.566	4708
3291.323	4735
3293.079	4683
3294.835	4700
3296.593	4760
3298.348	4685
3300.102	4628
3301.857	4706
3303.611	4702
3305.366	4678
3307.119	4745
3308.872	4708
3310.624	4795
3312.376	4719
3314.129	4624
3315.881	4651
3317.631	4727
3319.38	4746
3321.13	4751
3322.88	4611
3324.631	4701
3326.379	4685
3328.126	4726
3329.875	4753
3331.622	4649
3333.371	4680
3335.116	4711
3336.863	4713
3338.609	4732
3340.353	4769
3342.1	4613
3343.845	4714
3345.588	4651
3347.332	4635
3349.074	4670
3350.817	4637
3352.56	4633
3354.303	4639
3356.043	4648
3357.785	4736
3359.525	4604
3361.268	4634
3363.007	4644
3364.745	4640
3366.485	4686
3368.223	4743
3369.962	4658
3371.701	4640
3373.438	4623
3375.174	4652
3376.911	4559
3378.647	4620
3380.384	4576
3382.118	4594
3383.854	4562
3385.588	4640
3387.322	4548
3389.057	4627
3390.79	4618
3392.522	4655
3394.255	4491
3395.987	4545
3397.719	4573
3399.451	4630
3401.181	4702
3402.911	4534
3404.641	4555
3406.371	4616
3408.101	4563
3409.83	4547
3411.558	4568
3413.285	4631
3415.011	4489
3416.739	4611
3418.467	4479
3420.193	4594
3421.919	4638
3423.644	4456
3425.368	4577
3427.094	4546
3428.818	4530
3430.542	4536
3432.264	4537
3433.987	4538
3435.712	4557
3437.434	4627
3439.155	4535
3440.876	4496
3442.596	4543
3444.317	4471
3446.039	4538
3447.757	4464
3449.477	4462
3451.195	4548
3452.914	4475
3454.632	4429
3456.35	4544
3458.067	4429
3459.784	4412
3461.5	4411
3463.216	4416
3464.932	4443
3466.647	4411
3468.362	4447
3470.076	4377
3471.789	4490
3473.505	4481
3475.217	4408
3476.929	4393
3478.641	4379
3480.354	4328
3482.066	4357
3483.777	4370
3485.487	4396
3487.197	4487
3488.908	4438
3490.617	4366
3492.327	4423
3494.035	4308
3495.743	4401
3497.451	4332
3499.158	4281
3500.866	4312
3502.572	4309
3504.278	4291
3505.984	4303
3507.689	4412
3509.396	4360
3511.1	4266
3512.804	4383
3514.508	4254
3516.211	4393
3517.913	4281
3519.616	4307
3521.319	4281
3523.021	4267
3524.722	4319
3526.422	4294
3528.124	4278
3529.824	4269
3531.524	4383
3533.222	4285
3534.921	4309
3536.62	4281
3538.318	4300
3540.016	4296
3541.714	4216
3543.41	4266
3545.107	4252
3546.803	4345
3548.5	4274
3550.194	4253
3551.889	4289
3553.583	4326
3555.279	4172
3556.972	4298
3558.666	4280
3560.358	4264
3562.051	4289
3563.742	4231
3565.435	4190
3567.126	4202
3568.817	4271
3570.507	4257
3572.197	4159
3573.888	4261
3575.577	4215
3577.265	4189
3578.954	4312
3580.642	4206
3582.329	4137
3584.017	4373
3585.704	4106
3587.391	4079
3589.077	4192
3590.762	4145
3592.449	4226
3594.133	4171
3595.817	4128
3597.501	4194
3599.185	4122
3600.869	4147
3602.552	4156
3604.234	4087
3605.916	4144
3607.598	3986
3609.279	4131
3610.961	4089
3612.642	4112
3614.321	4113
3616	4064
3617.68	4088
3619.36	4073
3621.039	4033
3622.716	4060
3624.394	4057
3626.071	4046
3627.748	4028
3629.425	4081
3631.102	3981
3632.778	4142
3634.452	4083
3636.127	4032
3637.803	3992
3639.477	4046
3641.151	4005
3642.823	3979
3644.497	4077
3646.171	4027
3647.842	4006
3649.515	3984
3651.185	4162
3652.857	3967
3654.527	4011
3656.198	3948
3657.868	3898
3659.537	3989
3661.207	4026
3662.875	3896
3664.544	3945
3666.212	3938
3667.879	3982
3669.546	3934
3671.212	3979
3672.88	3898
3674.546	3962
3676.211	4061
3677.875	4021
3679.541	3915
3681.205	3967
3682.87	3957
3684.533	3972
3686.196	3998
3687.859	3915
3689.521	3934
3691.184	3961
3692.845	3974
3694.507	3966
3696.167	3958
3697.827	3887
3699.487	3890
3701.148	3894
3702.808	3873
3704.466	3958
3706.125	3941
3707.783	3909
3709.442	3875
3711.099	3981
3712.757	4008
3714.412	3959
3716.068	3919
3717.725	4005
3719.381	3922
3721.036	3857
3722.689	3913
3724.344	3901
3725.998	3886
3727.652	3924
3729.305	3888
3730.958	3883
3732.61	3909
3734.262	3896
3735.915	3898
3737.565	3832
3739.217	3846
3740.866	3924
3742.516	3792
3744.165	3856
3745.816	3937
3747.464	3856
3749.113	3870
3750.761	3866
3752.409	3877
3754.057	3916
3755.703	3773
3757.35	3814
3758.996	3858
3760.641	3821
3762.289	3868
3763.933	3856
3765.577	3700
3767.222	3845
3768.865	3861
3770.508	3777
3772.152	3808
3773.796	3811
3775.438	3815
3777.079	3772
3778.721	3835
3780.363	3727
3782.003	3816
3783.643	3774
3785.283	3762
3786.923	3797
3788.563	3767
3790.203	3751
3791.841	3815
3793.479	3844
3795.115	3836
3796.753	3712
3798.391	3738
3800.027	3777
3801.664	3830
3803.299	3732
3804.935	3697
3806.571	3795
3808.206	3761
3809.839	3773
3811.473	3651
3813.107	3739
3814.74	3690
3816.375	3769
3818.006	3665
3819.638	3662
3821.27	3680
3822.9	3679
3824.532	3723
3826.163	3657
3827.792	3690
3829.423	3669
3831.051	3706
3832.682	3748
3834.311	3762
3835.938	3747
3837.566	3650
3839.193	3704
3840.821	3709
3842.448	3730
3844.075	3664
3845.7	3631
3847.325	3654
3848.951	3640
3850.576	3672
3852.201	3665
3853.825	3622
3855.448	3659
3857.072	3614
3858.694	3695
3860.318	3596
3861.939	3630
3863.562	3586
3865.183	3645
3866.804	3560
3868.426	3547
3870.045	3624
3871.666	3636
3873.285	3684
3874.904	3628
3876.524	3524
3878.142	3604
3879.76	3675
3881.378	3520
3882.995	3555
3884.612	3643
3886.229	3513
3887.845	3589
3889.461	3644
3891.076	3634
3892.691	3579
3894.307	3586
3895.922	3488
3897.536	3596
3899.149	3539
3900.761	3640
3902.374	3578
3903.988	3607
3905.6	3633
3907.212	3608
3908.822	3537
3910.433	3571
3912.045	3576
3913.655	3592
3915.265	3615
3916.875	3548
3918.483	3539
3920.093	3512
3921.702	3622
3923.309	3558
3924.917	3506
3926.523	3592
3928.13	3548
3929.739	3500
3931.344	3443
3932.95	3545
3934.555	3634
3936.159	3519
3937.766	3659
3939.369	3461
3940.974	3564
3942.577	3499
3944.181	3574
3945.783	3553
3947.386	3495
3948.989	3553
3950.59	3477
3952.191	3592
3953.791	3595
3955.394	3455
3956.994	3511
3958.593	3482
3960.192	3487
3961.791	3516
3963.392	3485
3964.99	3525
3966.588	3512
3968.185	3581
3969.782	3529
3971.379	3479
3972.976	3424
3974.572	3459
3976.168	3519
3977.763	3454
3979.358	3440
3980.954	3482
3982.548	3411
3984.142	3419
3985.736	3468
3987.329	3467
3988.922	3437
3990.516	3464
3992.108	3398
3993.698	3475
3995.29	3363
3996.881	3350
3998.473	3451
4000.064	3460
4001.653	3403
4003.242	3366
4004.832	3391
4006.422	3397
4008.01	3461
4009.598	3408
4011.186	3409
4012.773	3340
4014.36	3383
4015.947	3353
4017.534	3370
4019.119	3376
4020.705	3358
4022.291	3385
4023.876	3415
4025.461	3367
4027.044	3375
4028.627	3353
4030.211	3368
4031.795	3354
4033.378	3309
4034.96	3313
4036.542	3256
4038.124	3303
4039.704	3326
4041.286	3341
4042.867	3297
4044.447	3350
4046.026	3285
4047.606	3354
4049.187	3295
4050.765	3350
4052.343	3328
4053.92	3338
4055.498	3251
4057.076	3244
4058.654	3337
4060.23	3241
4061.806	3281
4063.381	3313
4064.957	3224
4066.533	3281
4068.107	3311
4069.682	3273
4071.256	3325
4072.829	3260
4074.404	3238
4075.977	3260
4077.549	3286
4079.121	3159
4080.693	3253
4082.265	3246
4083.836	3187
4085.407	3238
4086.977	3218
4088.547	3200
4090.117	3274
4091.687	3225
4093.256	3260
4094.825	3236
4096.392	3216
4097.96	3247
4099.528	3292
4101.097	3168
4102.663	3256
4104.229	3192
4105.795	3152
4107.361	3285
4108.928	3252
4110.493	3117
4112.058	3221
4113.621	3218
4115.186	3144
4116.75	3093
4118.313	3219
4119.876	3202
4121.438	3217
4123	3187
4124.562	3188
4126.125	3092
4127.686	3106
4129.246	3084
4130.807	3169
4132.367	3140
4133.927	3189
4135.486	3157
4137.046	3200
4138.604	3193
4140.162	3117
4141.72	3148
4143.279	3128
4144.836	3152
4146.393	3159
4147.949	3123
4149.505	3100
4151.062	3008
4152.617	3105
4154.172	3137
4155.727	3139
4157.281	3090
4158.836	3059
4160.39	3140
4161.943	3149
4163.496	3023
4165.048	3034
4166.601	3070
4168.154	3099
4169.706	3088
4171.257	3003
4172.808	2980
4174.358	3110
4175.909	3079
4177.458	3063
4179.008	3034
4180.558	3066
4182.106	3011
4183.655	3010
4185.204	2954
4186.751	3003
4188.298	3045
4189.845	2994
4191.392	3023
4192.939	3019
4194.485	3004
4196.031	3075
4197.576	3054
4199.121	2992
4200.666	2985
4202.211	3003
4203.754	2986
4205.298	2952
4206.84	3050
4208.384	3013
4209.927	2932
4211.47	2928
4213.011	3048
4214.552	3027
4216.094	2985
4217.635	2927
4219.175	3046
4220.716	2948
4222.255	3006
4223.793	3049
4225.335	2889
4226.873	2957
4228.411	2974
4229.948	2955
4231.486	2878
4233.024	2963
4234.562	2984
4236.098	2992
4237.634	2984
4239.169	3000
4240.705	2981
4242.241	2853
4243.776	2958
4245.31	2978
4246.844	2966
4248.378	2970
4249.911	2971
4251.445	2870
4252.978	2946
4254.51	2950
4256.042	2949
4257.574	3002
4259.107	3001
4260.638	2939
4262.169	2978
4263.699	2916
4265.228	2877
4266.759	2874
4268.289	2866
4269.818	2904
4271.345	2872
4272.874	2874
4274.402	2923
4275.931	2962
4277.458	2821
4278.985	2958
4280.512	2924
4282.037	2924
4283.564	2909
4285.089	2885
4286.615	2834
4288.139	2941
4289.664	2859
4291.187	2898
4292.712	2845
4294.235	2859
4295.759	2868
4297.281	2861
4298.804	2827
4300.327	2837
4301.849	2836
4303.37	2897
4304.891	2758
4306.412	2908
4307.933	2907
4309.453	2924
4310.973	2809
4312.492	2851
