398.1873	3028
400.7097	3029
403.2336	3058
405.7547	3032
408.2751	3060
410.7948	3153
413.3138	3087
415.83	3139
418.3497	3118
420.8666	3210
423.3829	3222
425.8985	3165
428.4133	3093
430.9275	3246
433.441	3226
435.9538	3216
438.4639	3323
440.9753	3266
443.4881	3242
445.9982	3221
448.5055	3279
451.0142	3263
453.5201	3226
456.0274	3250
458.5361	3233
461.04	3245
463.5453	3304
466.0478	3326
468.5517	3258
471.0549	3271
473.5574	3262
476.0572	3286
478.5584	3330
481.0568	3330
483.5545	3295
486.0557	3195
488.5521	3355
491.0478	3359
493.5449	3349
496.0392	3292
498.5349	3293
501.0299	3292
503.5222	3372
506.0139	3382
508.5048	3415
510.9991	3403
513.4887	3375
515.9777	3389
518.4659	3416
520.9534	3375
523.4403	3418
525.9306	3419
528.4161	3422
530.9009	3455
533.3851	3413
535.8687	3494
538.3535	3321
540.8356	3423
543.3171	3394
545.7979	3454
548.278	3408
550.7595	3481
553.2383	3398
555.7144	3387
558.1918	3423
560.6685	3451
563.1446	3420
565.6221	3459
568.0968	3383
570.5688	3430
573.0422	3503
575.515	3450
577.989	3507
580.4584	3541
582.9291	3543
585.3991	3506
587.8685	3571
590.3352	3543
592.8052	3509
595.2706	3550
597.7372	3492
600.2033	3463
602.6666	3530
605.1334	3440
607.5953	3546
610.0587	3512
612.5193	3482
614.9814	3485
617.4427	3597
619.9034	3552
622.3615	3446
624.8208	3543
627.2775	3495
629.7335	3552
632.1929	3476
634.6476	3581
637.1016	3462
639.5569	3511
642.0096	3520
644.4637	3467
646.9151	3635
649.3678	3538
651.8179	3519
654.2672	3531
656.7159	3612
659.166	3536
661.6154	3545
664.0622	3597
666.5082	3562
668.9537	3537
671.4005	3614
673.8445	3582
676.288	3582
678.7308	3631
681.1729	3663
683.6163	3612
686.0572	3715
688.4973	3617
690.9368	3557
693.3757	3689
695.8138	3656
698.2534	3720
700.6902	3648
703.1245	3656
705.56	3661
707.9949	3670
710.4311	3781
712.8647	3727
715.2957	3750
717.7279	3688
720.1595	3720
722.5905	3607
725.0208	3719
727.4505	3775
729.8795	3744
732.3058	3724
734.7336	3806
737.1626	3742
739.587	3800
742.0128	3778
744.4359	3726
746.8604	3742
749.2841	3853
751.7073	3864
754.1278	3961
756.5496	3921
758.9688	3850
761.3893	3832
763.8093	3787
766.2285	3809
768.6451	3854
771.0611	3884
773.4784	3902
775.895	3929
778.3091	3853
780.7244	3871
783.1371	3932
785.5493	3943
787.9626	3829
790.3754	3957
792.7856	3874
795.1951	3889
797.6039	3924
800.0121	3918
802.4236	3892
804.8306	3981
807.2369	3935
809.6425	3872
812.0475	3949
814.4538	3935
816.8575	3934
819.2606	3913
821.663	4001
824.0648	4001
826.4659	3967
828.8683	3861
831.2682	3909
833.6674	3985
836.066	3944
838.4639	3937
840.8632	3937
843.2579	3946
845.6539	3941
848.0493	3997
850.444	3952
852.84	3934
855.2315	3990
857.6243	4022
860.0165	3995
862.4081	3884
864.797	4018
867.1892	3896
869.5789	4029
871.9659	3997
874.3542	3970
876.74	3956
879.129	3919
881.5155	4007
883.8994	4018
886.2845	3976
888.6671	3984
891.051	4044
893.4343	3816
895.8169	3917
898.197	3929
900.5783	3974
902.9571	4023
905.3372	4021
907.7167	4037
910.0936	4015
912.4698	4092
914.8474	4040
917.2244	3959
919.5987	4107
921.9744	4168
924.3475	4093
926.72	4128
929.0918	4109
931.4669	4155
933.8375	4084
936.2074	4194
938.5767	4139
940.9454	4118
943.3154	4172
945.6829	4208
948.0497	4258
950.4178	4257
952.7833	4359
955.1483	4425
957.5145	4481
959.8782	4504
962.2412	4502
964.6036	4491
966.9655	4370
969.3266	4279
971.6871	4240
974.0471	4151
976.4064	4135
978.765	4140
981.125	4090
983.4824	4107
985.8373	4099
988.1935	4098
990.549	4153
992.9039	4032
995.2602	4101
997.6119	4049
999.965	4125
1002.317	4102
1004.667	4129
1007.02	4150
1009.371	4137
1011.719	4198
1014.068	4087
1016.415	4154
1018.765	4124
1021.111	4151
1023.458	4154
1025.804	4141
1028.147	4192
1030.49	4163
1032.837	4131
1035.179	4220
1037.522	4182
1039.862	4222
1042.204	4182
1044.546	4147
1046.884	4206
1049.224	4148
1051.562	4185
1053.899	4140
1056.237	4216
1058.575	4293
1060.91	4246
1063.244	4208
1065.58	4288
1067.913	4197
1070.248	4185
1072.579	4259
1074.911	4206
1077.242	4247
1079.572	4181
1081.905	4143
1084.234	4256
1086.562	4244
1088.89	4176
1091.217	4192
1093.544	4201
1095.871	4274
1098.197	4215
1100.521	4270
1102.845	4282
1105.169	4253
1107.491	4258
1109.814	4306
1112.135	4236
1114.456	4279
1116.776	4178
1119.096	4362
1121.415	4247
1123.734	4312
1126.052	4264
1128.369	4369
1130.686	4295
1133.002	4217
1135.318	4257
1137.632	4320
1139.945	4286
1142.258	4314
1144.573	4220
1146.884	4314
1149.196	4221
1151.505	4253
1153.816	4298
1156.124	4280
1158.435	4334
1160.742	4283
1163.051	4295
1165.356	4295
1167.663	4308
1169.97	4306
1172.276	4252
1174.579	4321
1176.881	4256
1179.186	4284
1181.487	4346
1183.79	4291
1186.092	4263
1188.392	4304
1190.691	4203
1192.991	4297
1195.291	4273
1197.588	4215
1199.885	4312
1202.181	4247
1204.479	4330
1206.775	4394
1209.07	4326
1211.363	4339
1213.656	4275
1215.949	4322
1218.241	4354
1220.534	4362
1222.825	4364
1225.115	4350
1227.405	4293
1229.693	4357
1231.984	4365
1234.271	4438
1236.558	4316
1238.845	4485
1241.131	4411
1243.416	4471
1245.703	4360
1247.987	4393
1250.269	4447
1252.552	4458
1254.834	4474
1257.118	4436
1259.399	4440
1261.678	4349
1263.958	4421
1266.237	4398
1268.516	4440
1270.794	4451
1273.072	4467
1275.347	4410
1277.624	4468
1279.899	4402
1282.175	4413
1284.449	4383
1286.722	4328
1288.995	4330
1291.266	4374
1293.54	4396
1295.81	4432
1298.081	4414
1300.35	4434
1302.62	4382
1304.889	4322
1307.156	4442
1309.425	4376
1311.69	4405
1313.957	4386
1316.222	4330
1318.488	4391
1320.751	4341
1323.016	4449
1325.278	4354
1327.54	4449
1329.803	4386
1332.065	4439
1334.325	4430
1336.584	4444
1338.843	4380
1341.101	4378
1343.36	4433
1345.617	4516
1347.876	4499
1350.131	4468
1352.387	4360
1354.643	4377
1356.897	4422
1359.151	4411
1361.403	4375
1363.656	4514
1365.909	4421
1368.16	4405
1370.409	4380
1372.659	4382
1374.909	4416
1377.157	4387
1379.407	4429
1381.655	4473
1383.9	4416
1386.147	4345
1388.393	4404
1390.64	4493
1392.885	4490
1395.127	4474
1397.37	4525
1399.614	4603
1401.854	4513
1404.098	4552
1406.339	4497
1408.578	4454
1410.818	4431
1413.056	4507
1415.297	4551
1417.533	4537
1419.771	4485
1422.006	4508
1424.243	4439
1426.479	4418
1428.715	4466
1430.948	4558
1433.182	4455
1435.414	4589
1437.647	4643
1439.88	4616
1442.11	4507
1444.342	4523
1446.571	4483
1448.799	4526
1451.029	4707
1453.258	4569
1455.485	4629
1457.711	4523
1459.937	4528
1462.164	4581
1464.39	4589
1466.614	4616
1468.838	4537
1471.06	4525
1473.283	4542
1475.506	4628
1477.727	4496
1479.949	4454
1482.169	4573
1484.389	4568
1486.609	4474
1488.828	4491
1491.045	4468
1493.261	4558
1495.477	4494
1497.693	4481
1499.91	4473
1502.125	4534
1504.339	4510
1506.553	4485
1508.766	4370
1510.979	4512
1513.191	4462
1515.402	4455
1517.613	4463
1519.823	4533
1522.033	4534
1524.242	4393
1526.451	4493
1528.657	4534
1530.865	4443
1533.072	4536
1535.278	4518
1537.484	4624
1539.687	4594
1541.892	4555
1544.096	4612
1546.299	4455
1548.502	4504
1550.703	4567
1552.905	4676
1555.104	4575
1557.303	4607
1559.505	4602
1561.703	4571
1563.902	4564
1566.099	4588
1568.295	4610
1570.494	4617
1572.689	4616
1574.883	4610
1577.079	4653
1579.272	4636
1581.467	4539
1583.659	4565
1585.853	4737
1588.044	4654
1590.234	4562
1592.424	4680
1594.615	4676
1596.806	4742
1598.994	4567
1601.182	4623
1603.369	4723
1605.557	4730
1607.744	4671
1609.929	4635
1612.114	4717
1614.298	4709
1616.482	4727
1618.667	4684
1620.85	4720
1623.032	4637
1625.214	4616
1627.395	4728
1629.575	4660
1631.755	4617
1633.935	4649
1636.114	4666
1638.292	4680
1640.471	4667
1642.647	4706
1644.823	4771
1647	4650
1649.175	4764
1651.348	4652
1653.525	4667
1655.698	4699
1657.87	4691
1660.043	4656
1662.213	4823
1664.387	4737
1666.558	4674
1668.727	4745
1670.896	4729
1673.064	4738
1675.233	4733
1677.401	4710
1679.569	4632
1681.735	4723
1683.902	4749
1686.066	4786
1688.233	4674
1690.397	4714
1692.559	4804
1694.723	4689
1696.885	4761
1699.048	4756
1701.21	4748
1703.37	4759
1705.53	4725
1707.689	4701
1709.849	4715
1712.009	4784
1714.166	4727
1716.323	4740
1718.479	4697
1720.634	4775
1722.793	4656
1724.948	4740
1727.102	4596
1729.255	4680
1731.408	4758
1733.562	4719
1735.714	4699
1737.865	4848
1740.016	4787
1742.166	4703
1744.316	4619
1746.467	4691
1748.616	4748
1750.764	4778
1752.911	4715
1755.056	4712
1757.205	4730
1759.35	4831
1761.496	4736
1763.641	4769
1765.785	4755
1767.927	4812
1770.072	4707
1772.214	4845
1774.355	4761
1776.496	4713
1778.637	4786
1780.778	4788
1782.918	4802
1785.057	4854
1787.194	4718
1789.333	4750
1791.472	4821
1793.608	4715
1795.745	4678
1797.879	4766
1800.015	4767
1802.148	4699
1804.284	4766
1806.417	4763
1808.548	4785
1810.682	4695
1812.812	4805
1814.946	4756
1817.075	4713
1819.205	4794
1821.335	4758
1823.463	4749
1825.59	4787
1827.721	4811
1829.847	4908
1831.973	4822
1834.098	4766
1836.223	4718
1838.351	4774
1840.475	4779
1842.598	4736
1844.721	4753
1846.843	4833
1848.966	4715
1851.087	4766
1853.21	4675
1855.33	4794
1857.449	4788
1859.568	4696
1861.688	4721
1863.806	4773
1865.924	4845
1868.039	4705
1870.155	4699
1872.273	4780
1874.388	4802
1876.503	4795
1878.617	4758
1880.73	4823
1882.844	4809
1884.956	4871
1887.068	4767
1889.18	4869
1891.291	4771
1893.4	4749
1895.511	4785
1897.621	4721
1899.73	4757
1901.837	4778
1903.944	4793
1906.053	4745
1908.159	4829
1910.265	4818
1912.369	4845
1914.474	4810
1916.577	4786
1918.683	4791
1920.785	4874
1922.888	4768
1924.989	4749
1927.091	4862
1929.193	4884
1931.294	4806
1933.393	4847
1935.493	4884
1937.59	4892
1939.689	4868
1941.788	4877
1943.884	4850
1945.98	4883
1948.077	4866
1950.171	4860
1952.267	4847
1954.361	4916
1956.455	4878
1958.548	4833
1960.64	4837
1962.733	4900
1964.824	4889
1966.915	4890
1969.005	4793
1971.096	4877
1973.185	4856
1975.275	4947
1977.363	4862
1979.45	4802
1981.537	4768
1983.623	4797
1985.711	4857
1987.796	4814
1989.881	4759
1991.965	4786
1994.047	4792
1996.132	4797
1998.215	4712
2000.297	4830
2002.378	4799
2004.46	4729
2006.54	4727
2008.62	4777
2010.7	4786
2012.779	4796
2014.858	4821
2016.934	4798
2019.013	4831
2021.09	4839
2023.165	4758
2025.241	4852
2027.317	4840
2029.39	4770
2031.466	4811
2033.538	4933
2035.612	4856
2037.683	4931
2039.755	4784
2041.827	4878
2043.898	4817
2045.968	4840
2048.038	4789
2050.106	4828
2052.177	4762
2054.244	4882
2056.313	4837
2058.379	4900
2060.444	4879
2062.511	4845
2064.577	4788
2066.641	4828
2068.705	4910
2070.77	4873
2072.832	4827
2074.896	4912
2076.958	4816
2079.02	4802
2081.081	4859
2083.141	4865
2085.2	4888
2087.261	4787
2089.319	4843
2091.377	4817
2093.435	4837
2095.492	4840
2097.552	4870
2099.607	4826
2101.663	4799
2103.718	4810
2105.771	4850
2107.826	4865
2109.879	4865
2111.932	4888
2113.985	4850
2116.037	4860
2118.088	4900
2120.141	4914
2122.191	4821
2124.239	4893
2126.288	4869
2128.337	4859
2130.387	4846
2132.434	4924
2134.481	4866
2136.528	4885
2138.574	4827
2140.618	4863
2142.665	4743
2144.71	4889
2146.753	4953
2148.797	4870
2150.838	4864
2152.883	4757
2154.923	4884
2156.965	4794
2159.007	4768
2161.046	4885
2163.086	4791
2165.126	4876
2167.163	4784
2169.202	4891
2171.239	4894
2173.277	4882
2175.314	4815
2177.349	4787
2179.385	4904
2181.42	4791
2183.453	4757
2185.49	4727
2187.522	4800
2189.555	4781
2191.586	4772
2193.619	4849
2195.651	4784
2197.682	4742
2199.711	4733
2201.74	4813
2203.769	4718
2205.799	4744
2207.828	4801
2209.855	4824
2211.882	4724
2213.908	4759
2215.934	4761
2217.961	4735
2219.986	4821
2222.01	4824
2224.034	4828
2226.057	4817
2228.08	4739
2230.104	4803
2232.124	4817
2234.145	4803
2236.166	4767
2238.186	4700
2240.207	4756
2242.227	4789
2244.244	4752
2246.262	4772
2248.28	4726
2250.299	4753
2252.314	4670
2254.33	4758
2256.346	4799
2258.36	4773
2260.375	4756
2262.391	4727
2264.403	4746
2266.416	4783
2268.427	4749
2270.44	4815
2272.453	4838
2274.463	4758
2276.474	4740
2278.483	4842
2280.493	4751
2282.501	4753
2284.51	4814
2286.518	4894
2288.524	4855
2290.532	4794
2292.537	4766
2294.544	4772
2296.55	4802
2298.554	4767
2300.557	4755
2302.562	4768
2304.566	4718
2306.568	4810
2308.569	4750
2310.572	4790
2312.573	4780
2314.573	4646
2316.574	4751
2318.573	4800
2320.571	4784
2322.571	4724
2324.569	4678
2326.567	4724
2328.564	4724
2330.56	4715
2332.556	4693
2334.551	4746
2336.546	4702
2338.542	4753
2340.535	4714
2342.529	4728
2344.521	4632
2346.512	4713
2348.505	4629
2350.497	4667
2352.487	4720
2354.478	4689
2356.468	4692
2358.457	4656
2360.446	4631
2362.434	4725
2364.422	4695
2366.408	4644
2368.395	4713
2370.383	4817
2372.369	4666
2374.353	4637
2376.338	4690
2378.321	4710
2380.307	4678
2382.29	4637
2384.272	4557
2386.254	4576
2388.235	4621
2390.218	4653
2392.198	4736
2394.179	4694
2396.157	4746
2398.137	4747
2400.115	4599
2402.095	4640
2404.072	4672
2406.048	4624
2408.026	4720
2410.001	4617
2411.977	4616
2413.953	4578
2415.927	4667
2417.9	4598
2419.875	4630
2421.847	4670
2423.821	4639
2425.792	4582
2427.763	4709
2429.736	4700
2431.706	4696
2433.677	4627
2435.646	4682
2437.615	4621
2439.583	4625
2441.551	4621
2443.519	4545
2445.486	4642
2447.452	4615
2449.418	4642
2451.383	4617
2453.348	4651
2455.314	4647
2457.278	4629
2459.241	4711
2461.205	4717
2463.167	4650
2465.131	4680
2467.091	4647
2469.052	4558
2471.012	4573
2472.972	4557
2474.932	4595
2476.891	4612
2478.85	4579
2480.808	4575
2482.766	4663
2484.722	4547
2486.68	4763
2488.636	4535
2490.591	4579
2492.546	4594
2494.5	4628
2496.456	4622
2498.41	4519
2500.362	4527
2502.315	4505
2504.266	4687
2506.218	4679
2508.169	4486
2510.121	4618
2512.07	4671
2514.019	4573
2515.968	4587
2517.918	4577
2519.866	4686
2521.813	4558
2523.76	4626
2525.707	4462
2527.653	4592
2529.599	4551
2531.543	4530
2533.489	4601
2535.433	4581
2537.376	4549
2539.32	4621
2541.264	4533
2543.205	4613
2545.147	4576
2547.087	4568
2549.029	4552
2550.969	4553
2552.908	4561
2554.847	4571
2556.786	4565
2558.724	4473
2560.663	4542
2562.6	4531
2564.537	4483
2566.473	4524
2568.408	4528
2570.345	4578
2572.28	4606
2574.214	4535
2576.148	4561
2578.081	4559
2580.014	4595
2581.947	4596
2583.879	4648
2585.81	4495
2587.741	4610
2589.67	4489
2591.602	4610
2593.532	4595
2595.461	4536
2597.388	4642
2599.316	4517
2601.244	4592
2603.172	4503
2605.098	4537
2607.023	4566
2608.949	4547
2610.873	4601
2612.8	4674
2614.723	4585
2616.647	4596
2618.569	4626
2620.493	4582
2622.416	4609
2624.338	4636
2626.258	4539
2628.179	4680
2630.099	4648
2632.019	4572
2633.939	4541
2635.857	4649
2637.775	4559
2639.694	4565
2641.61	4605
2643.528	4640
2645.444	4614
2647.361	4560
2649.276	4595
2651.19	4564
2653.105	4598
2655.019	4631
2656.934	4596
2658.846	4671
2660.758	4639
2662.67	4535
2664.583	4626
2666.493	4637
2668.404	4577
2670.313	4566
2672.223	4571
2674.134	4623
2676.042	4688
2677.95	4588
2679.858	4638
2681.765	4634
2683.673	4542
2685.579	4552
2687.483	4619
2689.389	4588
2691.294	4573
2693.198	4522
2695.104	4558
2697.006	4556
2698.909	4515
2700.811	4534
2702.713	4498
2704.615	4624
2706.516	4500
2708.417	4606
2710.316	4478
2712.216	4533
2714.115	4611
2716.014	4611
2717.913	4556
2719.81	4542
2721.707	4475
2723.603	4602
2725.501	4455
2727.396	4546
2729.292	4523
2731.186	4529
2733.081	4563
2734.976	4533
2736.87	4412
2738.762	4520
2740.653	4520
2742.546	4494
2744.437	4540
2746.329	4508
2748.22	4473
2750.11	4525
2751.999	4425
2753.889	4475
2755.778	4456
2757.666	4389
2759.553	4527
2761.44	4424
2763.328	4508
2765.215	4524
2767.101	4509
2768.986	4415
2770.87	4457
2772.754	4525
2774.638	4478
2776.523	4468
2778.405	4487
2780.288	4478
2782.17	4424
2784.051	4569
2785.934	4553
2787.814	4548
2789.694	4408
2791.574	4461
2793.453	4475
2795.332	4488
2797.212	4446
2799.088	4514
2800.966	4409
2802.843	4491
2804.719	4449
2806.597	4509
2808.471	4434
2810.346	4483
2812.221	4430
2814.094	4501
2815.969	4328
2817.843	4484
2819.714	4520
2821.587	4427
2823.459	4430
2825.329	4457
2827.202	4501
2829.072	4493
2830.942	4364
2832.811	4319
2834.68	4457
2836.549	4444
2838.418	4311
2840.284	4452
2842.152	4494
2844.018	4403
2845.885	4449
2847.751	4506
2849.616	4396
2851.482	4549
2853.345	4431
2855.208	4459
2857.074	4450
2858.937	4444
2860.799	4443
2862.66	4492
2864.522	4468
2866.385	4449
2868.245	4550
2870.104	4578
2871.964	4498
2873.824	4568
2875.683	4628
2877.542	4466
2879.4	4545
2881.257	4582
2883.114	4558
2884.97	4537
2886.827	4589
2888.683	4524
2890.537	4624
2892.392	4528
2894.246	4579
2896.1	4633
2897.954	4585
2899.807	4517
2901.66	4589
2903.51	4558
2905.362	4481
2907.214	4612
2909.065	4522
2910.915	4554
2912.765	4527
2914.613	4550
2916.463	4547
2918.311	4524
2920.158	4551
2922.006	4606
2923.853	4666
2925.698	4674
2927.546	4672
2929.392	4700
2931.236	4653
2933.081	4635
2934.924	4646
2936.77	4734
2938.613	4726
2940.455	4758
2942.298	4721
2944.139	4730
2945.982	4803
2947.823	4778
2949.662	4709
2951.503	4675
2953.342	4702
2955.182	4695
2957.021	4527
2958.858	4643
2960.697	4657
2962.534	4660
2964.37	4583
2966.207	4652
2968.044	4563
2969.879	4626
2971.714	4468
2973.548	4594
2975.383	4551
2977.218	4556
2979.051	4459
2980.883	4470
2982.715	4563
2984.547	4462
2986.379	4506
2988.21	4529
2990.04	4426
2991.87	4474
2993.7	4520
2995.53	4468
2997.359	4474
2999.187	4408
3001.015	4389
3002.842	4459
3004.669	4510
3006.497	4381
3008.323	4362
3010.148	4281
3011.974	4300
3013.797	4376
3015.623	4228
3017.447	4301
3019.27	4302
3021.094	4369
3022.915	4223
3024.737	4241
3026.56	4230
3028.38	4320
3030.201	4220
3032.022	4222
3033.84	4291
3035.662	4265
3037.481	4185
3039.298	4224
3041.117	4167
3042.933	4237
3044.752	4186
3046.568	4256
3048.385	4265
3050.2	4114
3052.016	4233
3053.83	4259
3055.646	4331
3057.46	4175
3059.272	4167
3061.086	4226
3062.898	4251
3064.711	4158
3066.524	4247
3068.335	4186
3070.145	4268
3071.956	4169
3073.766	4165
3075.576	4215
3077.385	4191
3079.193	4257
3081.002	4120
3082.81	4086
3084.618	4287
3086.425	4194
3088.231	4112
3090.036	4126
3091.842	4184
3093.648	4138
3095.452	4169
3097.257	4185
3099.06	4193
3100.863	4110
3102.666	4076
3104.47	4033
3106.272	4120
3108.073	4131
3109.875	4147
3111.676	4157
3113.477	4104
3115.277	4209
3117.077	4037
3118.874	4085
3120.673	4111
3122.473	4050
3124.271	4078
3126.066	4111
3127.863	4034
3129.66	4076
3131.456	4108
3133.252	4128
3135.047	4100
3136.842	3994
3138.635	4023
3140.429	4075
3142.223	4070
3144.016	4072
3145.808	3937
3147.6	4103
3149.392	4034
3151.183	4000
3152.975	4053
3154.765	3952
3156.553	3979
3158.344	4030
3160.132	4006
3161.922	4012
3163.71	4028
3165.497	3991
3167.285	4035
3169.071	3988
3170.858	4032
3172.645	4032
3174.429	4047
3176.214	4030
3177.998	3909
3179.783	4057
3181.568	3962
3183.351	4038
3185.133	3945
3186.915	3970
3188.698	3880
3190.481	3936
3192.261	4014
3194.042	3931
3195.822	3962
3197.601	4011
3199.381	3956
3201.161	3963
3202.939	3976
3204.717	4007
3206.495	3923
3208.272	3963
3210.05	3930
3211.826	3971
3213.602	3946
3215.376	3929
3217.151	3970
3218.927	3896
3220.702	3909
3222.476	3943
3224.249	3964
3226.021	3878
3227.793	3974
3229.567	3968
3231.339	3866
3233.109	3883
3234.88	3948
3236.651	3841
3238.421	3923
3240.191	3949
3241.96	3893
3243.728	3955
3245.497	3958
3247.263	3918
3249.033	3832
3250.799	3941
3252.566	3876
3254.331	3939
3256.097	3868
3257.863	3948
3259.628	3989
3261.392	3956
3263.156	3910
3264.919	3940
3266.683	3870
3268.447	3887
3270.208	3871
3271.969	3829
3273.731	3833
3275.492	3906
3277.253	3872
3279.013	3904
3280.773	3823
3282.532	3943
3284.291	3895
3286.05	3852
3287.808	3930
3289.566	3870
3291.323	3891
3293.079	3875
3294.835	3872
3296.593	3922
3298.348	3980
3300.102	3944
3301.857	3941
3303.611	3868
3305.366	3876
3307.119	3843
3308.872	3852
3310.624	3872
3312.376	3900
3314.129	3857
3315.881	3906
3317.631	3843
3319.38	3866
3321.13	3830
3322.88	3874
3324.631	3942
3326.379	3874
3328.126	3947
3329.875	3848
3331.622	3826
3333.371	3844
3335.116	3878
3336.863	3845
3338.609	3817
3340.353	3826
3342.1	3887
3343.845	3747
3345.588	3797
3347.332	3810
3349.074	3898
3350.817	3855
3352.56	3894
3354.303	3849
3356.043	3835
3357.785	3796
3359.525	3791
3361.268	3785
3363.007	3771
3364.745	3834
3366.485	3772
3368.223	3832
3369.962	3762
3371.701	3846
3373.438	3822
3375.174	3795
3376.911	3815
3378.647	3800
3380.384	3784
3382.118	3717
3383.854	3796
3385.588	3682
3387.322	3751
3389.057	3815
3390.79	3814
3392.522	3769
3394.255	3773
3395.987	3776
3397.719	3814
3399.451	3761
3401.181	3746
3402.911	3691
3404.641	3770
3406.371	3852
3408.101	3770
3409.83	3775
3411.558	3733
3413.285	3744
3415.011	3815
3416.739	3821
3418.467	3740
3420.193	3825
3421.919	3806
3423.644	3757
3425.368	3823
3427.094	3737
3428.818	3801
3430.542	3684
3432.264	3737
3433.987	3778
3435.712	3728
3437.434	3779
3439.155	3738
3440.876	3708
3442.596	3641
3444.317	3732
3446.039	3796
3447.757	3730
3449.477	3583
3451.195	3666
3452.914	3713
3454.632	3641
3456.35	3714
3458.067	3683
3459.784	3737
3461.5	3694
3463.216	3621
3464.932	3697
3466.647	3640
3468.362	3693
3470.076	3631
3471.789	3641
3473.505	3621
3475.217	3643
3476.929	3599
3478.641	3642
3480.354	3609
3482.066	3639
3483.777	3642
3485.487	3590
3487.197	3658
3488.908	3511
3490.617	3600
3492.327	3559
3494.035	3623
3495.743	3569
3497.451	3583
3499.158	3531
3500.866	3618
3502.572	3555
3504.278	3598
3505.984	3663
3507.689	3566
3509.396	3557
3511.1	3554
3512.804	3608
3514.508	3565
3516.211	3540
3517.913	3655
3519.616	3544
3521.319	3556
3523.021	3578
3524.722	3442
3526.422	3598
3528.124	3504
3529.824	3542
3531.524	3517
3533.222	3545
3534.921	3523
3536.62	3566
3538.318	3528
3540.016	3528
3541.714	3480
3543.41	3599
3545.107	3526
3546.803	3533
3548.5	3479
3550.194	3555
3551.889	3473
3553.583	3487
3555.279	3565
3556.972	3501
3558.666	3527
3560.358	3559
3562.051	3478
3563.742	3482
3565.435	3569
3567.126	3474
3568.817	3435
3570.507	3519
3572.197	3511
3573.888	3435
3575.577	3492
3577.265	3447
3578.954	3500
3580.642	3489
3582.329	3445
3584.017	3476
3585.704	3473
3587.391	3423
3589.077	3493
3590.762	3348
3592.449	3457
3594.133	3534
3595.817	3425
3597.501	3457
3599.185	3428
3600.869	3462
3602.552	3412
3604.234	3451
3605.916	3434
3607.598	3460
3609.279	3364
3610.961	3370
3612.642	3429
3614.321	3378
3616	3486
3617.68	3335
3619.36	3381
3621.039	3411
3622.716	3351
3624.394	3411
3626.071	3347
3627.748	3453
3629.425	3337
3631.102	3371
3632.778	3329
3634.452	3320
3636.127	3328
3637.803	3311
3639.477	3247
3641.151	3401
3642.823	3353
3644.497	3303
3646.171	3365
3647.842	3310
3649.515	3333
3651.185	3309
3652.857	3280
3654.527	3347
3656.198	3339
3657.868	3312
3659.537	3314
3661.207	3269
3662.875	3261
3664.544	3298
3666.212	3336
3667.879	3348
3669.546	3341
3671.212	3282
3672.88	3295
3674.546	3342
3676.211	3239
3677.875	3329
3679.541	3335
3681.205	3295
3682.87	3261
3684.533	3348
3686.196	3280
3687.859	3299
3689.521	3233
3691.184	3203
3692.845	3298
3694.507	3303
3696.167	3286
3697.827	3280
3699.487	3265
3701.148	3290
3702.808	3272
3704.466	3285
3706.125	3209
3707.783	3242
3709.442	3280
3711.099	3289
3712.757	3314
3714.412	3292
3716.068	3273
3717.725	3256
3719.381	3243
3721.036	3285
3722.689	3289
3724.344	3210
3725.998	3220
3727.652	3266
3729.305	3234
3730.958	3275
3732.61	3236
3734.262	3230
3735.915	3261
3737.565	3181
3739.217	3173
3740.866	3254
3742.516	3232
3744.165	3154
3745.816	3240
3747.464	3146
3749.113	3203
3750.761	3217
3752.409	3198
3754.057	3148
3755.703	3292
3757.35	3265
3758.996	3205
3760.641	3182
3762.289	3230
3763.933	3110
3765.577	3223
3767.222	3207
3768.865	3152
3770.508	3166
3772.152	3198
3773.796	3188
3775.438	3190
3777.079	3117
3778.721	3183
3780.363	3152
3782.003	3189
3783.643	3187
3785.283	3149
3786.923	3115
3788.563	3160
3790.203	3118
3791.841	3045
3793.479	3121
3795.115	3110
3796.753	3145
3798.391	3128
3800.027	3104
3801.664	3105
3803.299	3113
3804.935	3173
3806.571	3104
3808.206	3161
3809.839	3082
3811.473	3158
3813.107	3063
3814.74	3083
3816.375	3107
3818.006	3082
3819.638	3091
3821.27	3121
3822.9	3025
3824.532	3167
3826.163	3047
3827.792	3085
3829.423	3111
3831.051	3082
3832.682	3087
3834.311	3149
3835.938	3056
3837.566	2996
3839.193	3008
3840.821	3049
3842.448	3038
3844.075	3091
3845.7	3052
3847.325	3018
3848.951	3056
3850.576	2988
3852.201	2992
3853.825	3043
3855.448	2997
3857.072	3084
3858.694	2982
3860.318	3142
3861.939	3051
3863.562	3018
3865.183	3005
3866.804	2985
3868.426	3039
3870.045	2961
3871.666	3013
3873.285	3022
3874.904	3005
3876.524	3054
3878.142	2972
3879.76	3038
3881.378	3053
3882.995	2996
3884.612	3014
3886.229	2914
3887.845	2952
3889.461	2920
3891.076	3038
3892.691	2987
3894.307	3077
3895.922	2967
3897.536	2961
3899.149	2937
3900.761	3014
3902.374	2983
3903.988	3004
3905.6	2968
3907.212	3015
3908.822	3026
3910.433	2933
3912.045	3044
3913.655	3022
3915.265	3015
3916.875	3023
3918.483	2954
3920.093	2875
3921.702	3036
3923.309	2969
3924.917	3052
3926.523	2960
3928.13	2913
3929.739	2935
3931.344	2920
3932.95	2888
3934.555	2888
3936.159	2955
3937.766	3009
3939.369	2927
3940.974	2972
3942.577	2912
3944.181	3039
3945.783	2992
3947.386	2927
3948.989	2974
3950.59	2926
3952.191	2894
3953.791	2921
3955.394	2913
3956.994	2924
3958.593	2915
3960.192	2946
3961.791	2918
3963.392	2862
3964.99	2997
3966.588	2881
3968.185	2860
3969.782	2867
3971.379	2877
3972.976	2871
3974.572	2929
3976.168	2853
3977.763	2838
3979.358	2837
3980.954	2868
3982.548	2840
3984.142	2825
3985.736	2888
3987.329	2873
3988.922	2848
3990.516	2807
3992.108	2847
3993.698	2842
3995.29	2840
3996.881	2918
3998.473	2871
4000.064	2798
4001.653	2868
4003.242	2787
4004.832	2768
4006.422	2822
4008.01	2830
4009.598	2763
4011.186	2854
4012.773	2770
4014.36	2869
4015.947	2787
4017.534	2761
4019.119	2765
4020.705	2775
4022.291	2764
4023.876	2767
4025.461	2758
4027.044	2815
4028.627	2763
4030.211	2803
4031.795	2786
4033.378	2760
4034.96	2820
4036.542	2712
4038.124	2815
4039.704	2741
4041.286	2681
4042.867	2754
4044.447	2780
4046.026	2782
4047.606	2692
4049.187	2767
4050.765	2691
4052.343	2789
4053.92	2763
4055.498	2685
4057.076	2688
4058.654	2735
4060.23	2740
4061.806	2707
4063.381	2764
4064.957	2749
4066.533	2779
4068.107	2698
4069.682	2693
4071.256	2701
4072.829	2658
4074.404	2688
4075.977	2656
4077.549	2700
4079.121	2724
4080.693	2710
4082.265	2748
4083.836	2698
4085.407	2681
4086.977	2720
4088.547	2660
4090.117	2718
4091.687	2640
4093.256	2648
4094.825	2678
4096.392	2620
4097.96	2661
4099.528	2652
4101.097	2723
4102.663	2659
4104.229	2690
4105.795	2706
4107.361	2589
4108.928	2683
4110.493	2676
4112.058	2700
4113.621	2637
4115.186	2656
4116.75	2538
4118.313	2604
4119.876	2634
4121.438	2666
4123	2702
4124.562	2599
4126.125	2603
4127.686	2620
4129.246	2642
4130.807	2593
4132.367	2602
4133.927	2642
4135.486	2608
4137.046	2626
4138.604	2615
4140.162	2587
4141.72	2589
4143.279	2631
4144.836	2574
4146.393	2615
4147.949	2549
4149.505	2600
4151.062	2607
4152.617	2596
4154.172	2552
4155.727	2544
4157.281	2600
4158.836	2554
4160.39	2541
4161.943	2612
4163.496	2539
4165.048	2532
4166.601	2538
4168.154	2533
4169.706	2538
4171.257	2541
4172.808	2570
4174.358	2523
4175.909	2548
4177.458	2515
4179.008	2582
4180.558	2543
4182.106	2492
4183.655	2514
4185.204	2527
4186.751	2562
4188.298	2506
4189.845	2498
4191.392	2583
4192.939	2474
4194.485	2565
4196.031	2535
4197.576	2519
4199.121	2523
4200.666	2557
4202.211	2518
4203.754	2469
4205.298	2543
4206.84	2466
4208.384	2496
4209.927	2508
4211.47	2479
4213.011	2543
4214.552	2477
4216.094	2497
4217.635	2435
4219.175	2483
4220.716	2472
4222.255	2440
4223.793	2447
4225.335	2493
4226.873	2401
4228.411	2471
4229.948	2371
4231.486	2485
4233.024	2477
4234.562	2525
4236.098	2479
4237.634	2422
4239.169	2449
4240.705	2461
4242.241	2470
4243.776	2412
4245.31	2474
4246.844	2468
4248.378	2423
4249.911	2442
4251.445	2444
4252.978	2440
4254.51	2424
4256.042	2356
4257.574	2471
4259.107	2480
4260.638	2456
4262.169	2460
4263.699	2434
4265.228	2416
4266.759	2465
4268.289	2416
4269.818	2371
4271.345	2396
4272.874	2460
4274.402	2401
4275.931	2399
4277.458	2398
4278.985	2395
4280.512	2434
4282.037	2370
4283.564	2458
4285.089	2408
4286.615	2388
4288.139	2430
4289.664	2411
4291.187	2431
4292.712	2373
4294.235	2454
4295.759	2322
4297.281	2368
4298.804	2396
4300.327	2420
4301.849	2381
4303.37	2400
4304.891	2359
4306.412	2334
4307.933	2367
4309.453	2360
4310.973	2362
4312.492	2361
