398.1873	5243
400.7097	5291
403.2336	5251
405.7547	5269
408.2751	5359
410.7948	5311
413.3138	5247
415.83	5463
418.3497	5309
420.8666	5451
423.3829	5458
425.8985	5476
428.4133	5562
430.9275	5648
433.441	5624
435.9538	5586
438.4639	5687
440.9753	5642
443.4881	5646
445.9982	5668
448.5055	5627
451.0142	5689
453.5201	5654
456.0274	5672
458.5361	5566
461.04	5576
463.5453	5582
466.0478	5661
468.5517	5671
471.0549	5684
473.5574	5655
476.0572	5718
478.5584	5710
481.0568	5681
483.5545	5724
486.0557	5772
488.5521	5782
491.0478	5694
493.5449	5715
496.0392	5838
498.5349	5751
501.0299	5800
503.5222	5869
506.0139	5671
508.5048	5879
510.9991	5759
513.4887	5773
515.9777	5795
518.4659	5875
520.9534	5909
523.4403	5823
525.9306	5891
528.4161	5883
530.9009	5989
533.3851	5831
535.8687	5885
538.3535	5840
540.8356	5926
543.3171	5850
545.7979	5979
548.278	5960
550.7595	5963
553.2383	5928
555.7144	5872
558.1918	5847
560.6685	5961
563.1446	5895
565.6221	6001
568.0968	5995
570.5688	5955
573.0422	6073
575.515	6045
577.989	6096
580.4584	6218
582.9291	6123
585.3991	6104
587.8685	6141
590.3352	6109
592.8052	6052
595.2706	6076
597.7372	6086
600.2033	5994
602.6666	6081
605.1334	6030
607.5953	6080
610.0587	6040
612.5193	5959
614.9814	6199
617.4427	6025
619.9034	5996
622.3615	6028
624.8208	6154
627.2775	6028
629.7335	6016
632.1929	6164
634.6476	6012
637.1016	5959
639.5569	6160
642.0096	6045
644.4637	5992
646.9151	6035
649.3678	6195
651.8179	6025
654.2672	6095
656.7159	6195
659.166	6094
661.6154	6140
664.0622	6173
666.5082	6180
668.9537	6140
671.4005	6209
673.8445	6198
676.288	6199
678.7308	6297
681.1729	6286
683.6163	6203
686.0572	6227
688.4973	6295
690.9368	6307
693.3757	6272
695.8138	6258
698.2534	6213
700.6902	6309
703.1245	6236
705.56	6282
707.9949	6283
710.4311	6413
712.8647	6312
715.2957	6471
717.7279	6510
720.1595	6402
722.5905	6409
725.0208	6442
727.4505	6492
729.8795	6424
732.3058	6538
734.7336	6583
737.1626	6542
739.587	6454
742.0128	6551
744.4359	6576
746.8604	6652
749.2841	6710
751.7073	6678
754.1278	6749
756.5496	6658
758.9688	6589
761.3893	6650
763.8093	6722
766.2285	6824
768.6451	6712
771.0611	6797
773.4784	6740
775.895	6873
778.3091	6720
780.7244	6737
783.1371	6624
785.5493	6768
787.9626	6602
790.3754	6670
792.7856	6799
795.1951	6783
797.6039	6709
800.0121	6722
802.4236	6605
804.8306	6684
807.2369	6733
809.6425	6770
812.0475	6802
814.4538	6845
816.8575	6804
819.2606	6849
821.663	6828
824.0648	6984
826.4659	6830
828.8683	6792
831.2682	6862
833.6674	6827
836.066	6851
838.4639	6888
840.8632	6810
843.2579	6934
845.6539	6777
848.0493	6872
850.444	7091
852.84	7069
855.2315	6906
857.6243	6801
860.0165	6886
862.4081	6876
864.797	7017
867.1892	6977
869.5789	7006
871.9659	6900
874.3542	6983
876.74	6821
879.129	6878
881.5155	7007
883.8994	6860
886.2845	6987
888.6671	6981
891.051	7003
893.4343	6935
895.8169	6967
898.197	6864
900.5783	6978
902.9571	7001
905.3372	6925
907.7167	7016
910.0936	7022
912.4698	7035
914.8474	7119
917.2244	7085
919.5987	7174
921.9744	7157
924.3475	7186
926.72	7273
929.0918	7286
931.4669	7221
933.8375	7184
936.2074	7182
938.5767	7410
940.9454	7231
943.3154	7478
945.6829	7629
948.0497	7558
950.4178	7784
952.7833	8066
955.1483	8245
957.5145	8514
959.8782	8593
962.2412	8506
964.6036	8438
966.9655	8192
969.3266	7837
971.6871	7732
974.0471	7480
976.4064	7362
978.765	7270
981.125	7245
983.4824	7186
985.8373	7188
988.1935	7021
990.549	7261
992.9039	7176
995.2602	7115
997.6119	7128
999.965	7115
1002.317	7174
1004.667	7207
1007.02	7214
1009.371	7058
1011.719	7161
1014.068	7265
1016.415	7143
1018.765	7303
1021.111	7094
1023.458	7329
1025.804	7257
1028.147	7356
1030.49	7271
1032.837	7256
1035.179	7399
1037.522	7349
1039.862	7238
1042.204	7254
1044.546	7287
1046.884	7433
1049.224	7294
1051.562	7419
1053.899	7466
1056.237	7315
1058.575	7255
1060.91	7383
1063.244	7332
1065.58	7315
1067.913	7396
1070.248	7540
1072.579	7433
1074.911	7472
1077.242	7379
1079.572	7380
1081.905	7453
1084.234	7415
1086.562	7327
1088.89	7353
1091.217	7465
1093.544	7345
1095.871	7406
1098.197	7406
1100.521	7498
1102.845	7334
1105.169	7291
1107.491	7350
1109.814	7360
1112.135	7443
1114.456	7316
1116.776	7401
1119.096	7339
1121.415	7363
1123.734	7345
1126.052	7347
1128.369	7390
1130.686	7276
1133.002	7549
1135.318	7377
1137.632	7424
1139.945	7440
1142.258	7393
1144.573	7504
1146.884	7465
1149.196	7354
1151.505	7334
1153.816	7402
1156.124	7380
1158.435	7404
1160.742	7420
1163.051	7513
1165.356	7469
1167.663	7383
1169.97	7352
1172.276	7352
1174.579	7354
1176.881	7331
1179.186	7487
1181.487	7521
1183.79	7436
1186.092	7501
1188.392	7332
1190.691	7332
1192.991	7425
1195.291	7354
1197.588	7359
1199.885	7328
1202.181	7401
1204.479	7358
1206.775	7496
1209.07	7461
1211.363	7512
1213.656	7536
1215.949	7418
1218.241	7421
1220.534	7397
1222.825	7354
1225.115	7543
1227.405	7598
1229.693	7526
1231.984	7607
1234.271	7635
1236.558	7697
1238.845	7568
1241.131	7600
1243.416	7704
1245.703	7744
1247.987	7771
1250.269	7666
1252.552	7738
1254.834	7644
1257.118	7637
1259.399	7555
1261.678	7586
1263.958	7633
1266.237	7703
1268.516	7617
1270.794	7658
1273.072	7665
1275.347	7622
1277.624	7592
1279.899	7634
1282.175	7642
1284.449	7705
1286.722	7742
1288.995	7621
1291.266	7570
1293.54	7675
1295.81	7691
1298.081	7666
1300.35	7531
1302.62	7533
1304.889	7686
1307.156	7643
1309.425	7555
1311.69	7594
1313.957	7673
1316.222	7697
1318.488	7565
1320.751	7528
1323.016	7517
1325.278	7615
1327.54	7639
1329.803	7583
1332.065	7521
1334.325	7498
1336.584	7562
1338.843	7563
1341.101	7457
1343.36	7510
1345.617	7598
1347.876	7577
1350.131	7629
1352.387	7493
1354.643	7810
1356.897	7515
1359.151	7689
1361.403	7608
1363.656	7627
1365.909	7548
1368.16	7625
1370.409	7600
1372.659	7584
1374.909	7582
1377.157	7729
1379.407	7572
1381.655	7714
1383.9	7637
1386.147	7581
1388.393	7633
1390.64	7661
1392.885	7732
1395.127	7882
1397.37	7697
1399.614	7727
1401.854	7843
1404.098	7770
1406.339	7700
1408.578	7619
1410.818	7650
1413.056	7819
1415.297	7743
1417.533	7848
1419.771	7685
1422.006	7844
1424.243	7612
1426.479	7934
1428.715	7709
1430.948	7746
1433.182	7778
1435.414	7903
1437.647	7924
1439.88	7948
1442.11	7884
1444.342	7966
1446.571	7903
1448.799	7824
1451.029	8108
1453.258	8038
1455.485	8000
1457.711	7998
1459.937	7939
1462.164	8073
1464.39	7947
1466.614	7845
1468.838	7904
1471.06	7869
1473.283	7868
1475.506	7912
1477.727	7742
1479.949	7783
1482.169	7813
1484.389	7872
1486.609	7759
1488.828	7635
1491.045	7824
1493.261	7593
1495.477	7710
1497.693	7720
1499.91	7614
1502.125	7814
1504.339	7667
1506.553	7656
1508.766	7733
1510.979	7586
1513.191	7726
1515.402	7729
1517.613	7594
1519.823	7638
1522.033	7724
1524.242	7638
1526.451	7660
1528.657	7593
1530.865	7706
1533.072	7602
1535.278	7569
1537.484	7700
1539.687	7614
1541.892	7730
1544.096	7711
1546.299	7665
1548.502	7711
1550.703	7866
1552.905	7742
1555.104	7670
1557.303	7758
1559.505	7884
1561.703	7898
1563.902	7837
1566.099	7895
1568.295	7939
1570.494	7849
1572.689	7703
1574.883	7800
1577.079	7878
1579.272	7907
1581.467	7951
1583.659	7910
1585.853	7866
1588.044	7971
1590.234	7892
1592.424	7952
1594.615	7999
1596.806	8052
1598.994	7914
1601.182	7931
1603.369	7958
1605.557	7988
1607.744	8069
1609.929	8011
1612.114	7861
1614.298	7908
1616.482	7882
1618.667	7943
1620.85	7868
1623.032	7929
1625.214	7905
1627.395	8078
1629.575	8050
1631.755	8023
1633.935	7993
1636.114	8063
1638.292	8058
1640.471	7977
1642.647	8047
1644.823	8098
1647	7945
1649.175	8068
1651.348	7993
1653.525	8000
1655.698	8091
1657.87	7998
1660.043	8024
1662.213	8184
1664.387	8200
1666.558	8067
1668.727	8188
1670.896	8031
1673.064	7998
1675.233	8110
1677.401	8175
1679.569	8092
1681.735	8047
1683.902	8029
1686.066	8113
1688.233	8083
1690.397	8022
1692.559	7997
1694.723	8047
1696.885	7944
1699.048	8030
1701.21	8195
1703.37	8035
1705.53	8058
1707.689	8069
1709.849	7914
1712.009	7957
1714.166	7977
1716.323	7903
1718.479	8004
1720.634	8003
1722.793	8046
1724.948	7979
1727.102	7984
1729.255	7795
1731.408	7910
1733.562	7939
1735.714	7928
1737.865	8038
1740.016	7807
1742.166	7857
1744.316	7935
1746.467	7929
1748.616	7945
1750.764	7895
1752.911	7970
1755.056	7961
1757.205	8053
1759.35	7940
1761.496	7928
1763.641	8031
1765.785	7927
1767.927	8114
1770.072	7994
1772.214	8001
1774.355	8034
1776.496	8027
1778.637	8094
1780.778	7943
1782.918	7972
1785.057	8077
1787.194	8055
1789.333	8038
1791.472	7971
1793.608	8055
1795.745	8121
1797.879	8084
1800.015	8024
1802.148	7980
1804.284	8084
1806.417	7963
1808.548	8132
1810.682	8100
1812.812	8163
1814.946	8212
1817.075	8095
1819.205	7915
1821.335	8095
1823.463	8086
1825.59	7997
1827.721	8081
1829.847	8019
1831.973	8052
1834.098	8111
1836.223	7943
1838.351	8088
1840.475	8001
1842.598	7892
1844.721	8146
1846.843	7937
1848.966	8011
1851.087	8022
1853.21	7902
1855.33	7934
1857.449	7923
1859.568	7973
1861.688	7948
1863.806	8036
1865.924	8032
1868.039	7967
1870.155	8129
1872.273	7934
1874.388	7948
1876.503	8007
1878.617	7903
1880.73	8090
1882.844	8010
1884.956	8018
1887.068	8060
1889.18	8032
1891.291	8117
1893.4	8063
1895.511	8008
1897.621	7941
1899.73	8151
1901.837	7992
1903.944	8026
1906.053	8045
1908.159	8011
1910.265	8120
1912.369	8108
1914.474	8086
1916.577	8081
1918.683	8126
1920.785	8139
1922.888	8141
1924.989	8118
1927.091	8265
1929.193	8163
1931.294	8048
1933.393	8198
1935.493	8156
1937.59	8159
1939.689	8225
1941.788	8113
1943.884	8198
1945.98	8132
1948.077	8082
1950.171	8084
1952.267	8119
1954.361	8121
1956.455	8034
1958.548	8298
1960.64	8163
1962.733	8078
1964.824	8172
1966.915	8124
1969.005	8123
1971.096	8216
1973.185	8192
1975.275	8215
1977.363	8199
1979.45	8078
1981.537	8154
1983.623	8087
1985.711	8179
1987.796	8059
1989.881	8110
1991.965	8228
1994.047	8037
1996.132	8056
1998.215	8036
2000.297	8117
2002.378	8105
2004.46	7946
2006.54	8095
2008.62	8074
2010.7	8022
2012.779	8093
2014.858	8181
2016.934	8069
2019.013	8092
2021.09	8123
2023.165	8110
2025.241	8075
2027.317	8139
2029.39	8022
2031.466	8090
2033.538	8107
2035.612	8041
2037.683	7903
2039.755	8116
2041.827	8091
2043.898	7962
2045.968	8062
2048.038	8005
2050.106	8205
2052.177	8014
2054.244	8023
2056.313	8060
2058.379	8066
2060.444	8148
2062.511	7982
2064.577	7919
2066.641	8204
2068.705	8077
2070.77	7985
2072.832	8050
2074.896	8050
2076.958	8060
2079.02	8026
2081.081	7991
2083.141	8122
2085.2	8044
2087.261	8067
2089.319	8050
2091.377	8052
2093.435	8181
2095.492	8103
2097.552	8009
2099.607	8091
2101.663	8152
2103.718	8024
2105.771	8091
2107.826	8114
2109.879	8166
2111.932	8193
2113.985	8085
2116.037	8038
2118.088	8147
2120.141	8010
2122.191	7928
2124.239	8054
2126.288	8087
2128.337	8079
2130.387	8037
2132.434	8094
2134.481	8104
2136.528	8134
2138.574	7974
2140.618	8151
2142.665	8114
2144.71	8122
2146.753	8068
2148.797	8001
2150.838	8031
2152.883	8015
2154.923	8163
2156.965	8092
2159.007	8084
2161.046	7984
2163.086	8013
2165.126	7974
2167.163	8012
2169.202	7972
2171.239	7949
2173.277	7884
2175.314	7916
2177.349	8012
2179.385	8059
2181.42	8026
2183.453	8005
2185.49	7950
2187.522	8007
2189.555	8043
2191.586	7939
2193.619	7946
2195.651	7916
2197.682	7944
2199.711	7983
2201.74	7899
2203.769	7939
2205.799	7898
2207.828	7905
2209.855	8004
2211.882	7856
2213.908	7788
2215.934	7833
2217.961	7946
2219.986	7915
2222.01	7944
2224.034	7827
2226.057	7991
2228.08	7788
2230.104	7782
2232.124	7919
2234.145	7740
2236.166	7904
2238.186	7971
2240.207	7834
2242.227	7925
2244.244	7891
2246.262	7809
2248.28	7806
2250.299	7872
2252.314	8032
2254.33	8001
2256.346	7991
2258.36	7779
2260.375	7795
2262.391	7820
2264.403	7748
2266.416	7950
2268.427	7972
2270.44	7916
2272.453	7861
2274.463	7944
2276.474	7875
2278.483	7909
2280.493	7926
2282.501	7903
2284.51	7838
2286.518	7913
2288.524	7844
2290.532	7877
2292.537	7968
2294.544	7709
2296.55	7981
2298.554	7954
2300.557	7868
2302.562	7902
2304.566	7858
2306.568	7790
2308.569	7952
2310.572	7833
2312.573	7802
2314.573	8017
2316.574	7764
2318.573	7894
2320.571	7870
2322.571	7710
2324.569	7902
2326.567	7873
2328.564	7745
2330.56	7817
2332.556	7803
2334.551	7824
2336.546	7866
2338.542	7930
2340.535	7789
2342.529	7819
2344.521	7761
2346.512	7802
2348.505	7859
2350.497	7841
2352.487	7811
2354.478	7721
2356.468	7728
2358.457	7831
2360.446	7712
2362.434	7788
2364.422	7647
2366.408	7741
2368.395	7803
2370.383	7783
2372.369	7649
2374.353	7726
2376.338	7683
2378.321	7684
2380.307	7717
2382.29	7637
2384.272	7691
2386.254	7763
2388.235	7679
2390.218	7698
2392.198	7690
2394.179	7472
2396.157	7577
2398.137	7862
2400.115	7679
2402.095	7625
2404.072	7616
2406.048	7717
2408.026	7616
2410.001	7563
2411.977	7605
2413.953	7562
2415.927	7620
2417.9	7654
2419.875	7676
2421.847	7657
2423.821	7732
2425.792	7592
2427.763	7741
2429.736	7591
2431.706	7735
2433.677	7590
2435.646	7594
2437.615	7700
2439.583	7594
2441.551	7700
2443.519	7726
2445.486	7651
2447.452	7585
2449.418	7495
2451.383	7748
2453.348	7570
2455.314	7571
2457.278	7506
2459.241	7562
2461.205	7666
2463.167	7520
2465.131	7621
2467.091	7578
2469.052	7470
2471.012	7566
2472.972	7578
2474.932	7475
2476.891	7459
2478.85	7570
2480.808	7588
2482.766	7590
2484.722	7566
2486.68	7530
2488.636	7436
2490.591	7509
2492.546	7458
2494.5	7504
2496.456	7498
2498.41	7592
2500.362	7616
2502.315	7440
2504.266	7551
2506.218	7506
2508.169	7396
2510.121	7481
2512.07	7519
2514.019	7474
2515.968	7513
2517.918	7583
2519.866	7515
2521.813	7473
2523.76	7489
2525.707	7655
2527.653	7498
2529.599	7489
2531.543	7568
2533.489	7618
2535.433	7555
2537.376	7529
2539.32	7442
2541.264	7489
2543.205	7509
2545.147	7527
2547.087	7463
2549.029	7486
2550.969	7559
2552.908	7535
2554.847	7490
2556.786	7450
2558.724	7438
2560.663	7436
2562.6	7512
2564.537	7620
2566.473	7508
2568.408	7517
2570.345	7536
2572.28	7478
2574.214	7397
2576.148	7506
2578.081	7508
2580.014	7547
2581.947	7549
2583.879	7454
2585.81	7467
2587.741	7522
2589.67	7494
2591.602	7504
2593.532	7622
2595.461	7467
2597.388	7476
2599.316	7536
2601.244	7414
2603.172	7544
2605.098	7536
2607.023	7519
2608.949	7514
2610.873	7361
2612.8	7552
2614.723	7518
2616.647	7403
2618.569	7518
2620.493	7548
2622.416	7464
2624.338	7326
2626.258	7436
2628.179	7468
2630.099	7576
2632.019	7630
2633.939	7556
2635.857	7545
2637.775	7535
2639.694	7497
2641.61	7603
2643.528	7421
2645.444	7506
2647.361	7471
2649.276	7422
2651.19	7536
2653.105	7550
2655.019	7591
2656.934	7448
2658.846	7532
2660.758	7618
2662.67	7496
2664.583	7539
2666.493	7555
2668.404	7514
2670.313	7461
2672.223	7462
2674.134	7512
2676.042	7507
2677.95	7558
2679.858	7467
2681.765	7458
2683.673	7511
2685.579	7488
2687.483	7485
2689.389	7383
2691.294	7507
2693.198	7417
2695.104	7467
2697.006	7425
2698.909	7526
2700.811	7367
2702.713	7335
2704.615	7398
2706.516	7393
2708.417	7485
2710.316	7282
2712.216	7305
2714.115	7517
2716.014	7359
2717.913	7341
2719.81	7305
2721.707	7388
2723.603	7384
2725.501	7417
2727.396	7427
2729.292	7302
2731.186	7414
2733.081	7417
2734.976	7326
2736.87	7350
2738.762	7378
2740.653	7322
2742.546	7334
2744.437	7386
2746.329	7260
2748.22	7351
2750.11	7258
2751.999	7348
2753.889	7338
2755.778	7383
2757.666	7428
2759.553	7385
2761.44	7293
2763.328	7339
2765.215	7465
2767.101	7202
2768.986	7326
2770.87	7276
2772.754	7366
2774.638	7253
2776.523	7264
2778.405	7286
2780.288	7338
2782.17	7338
2784.051	7251
2785.934	7295
2787.814	7305
2789.694	7289
2791.574	7384
2793.453	7265
2795.332	7316
2797.212	7323
2799.088	7154
2800.966	7213
2802.843	7219
2804.719	7247
2806.597	7259
2808.471	7197
2810.346	7325
2812.221	7251
2814.094	7277
2815.969	7206
2817.843	7229
2819.714	7242
2821.587	7197
2823.459	7258
2825.329	7261
2827.202	7219
2829.072	7247
2830.942	7208
2832.811	7196
2834.68	7186
2836.549	7299
2838.418	7120
2840.284	7309
2842.152	7108
2844.018	7269
2845.885	7259
2847.751	7138
2849.616	7283
2851.482	7312
2853.345	7394
2855.208	7269
2857.074	7230
2858.937	7279
2860.799	7324
2862.66	7418
2864.522	7327
2866.385	7293
2868.245	7418
2870.104	7523
2871.964	7413
2873.824	7438
2875.683	7636
2877.542	7617
2879.4	7602
2881.257	7562
2883.114	7691
2884.97	7710
2886.827	7558
2888.683	7760
2890.537	7559
2892.392	7590
2894.246	7593
2896.1	7748
2897.954	7594
2899.807	7778
2901.66	7640
2903.51	7547
2905.362	7660
2907.214	7657
2909.065	7749
2910.915	7767
2912.765	7750
2914.613	7722
2916.463	7838
2918.311	7768
2920.158	7871
2922.006	7856
2923.853	7871
2925.698	7965
2927.546	8056
2929.392	8047
2931.236	8114
2933.081	8051
2934.924	8208
2936.77	8163
2938.613	8140
2940.455	8192
2942.298	8265
2944.139	8275
2945.982	8298
2947.823	8294
2949.662	8288
2951.503	8181
2953.342	8098
2955.182	8051
2957.021	8123
2958.858	8005
2960.697	8057
2962.534	8048
2964.37	8033
2966.207	7837
2968.044	7857
2969.879	7686
2971.714	7772
2973.548	7589
2975.383	7815
2977.218	7587
2979.051	7704
2980.883	7620
2982.715	7599
2984.547	7516
2986.379	7486
2988.21	7613
2990.04	7550
2991.87	7437
2993.7	7372
2995.53	7415
2997.359	7417
2999.187	7327
3001.015	7374
3002.842	7256
3004.669	7265
3006.497	7239
3008.323	7099
3010.148	7138
3011.974	7142
3013.797	7265
3015.623	7030
3017.447	6977
3019.27	7029
3021.094	7128
3022.915	6984
3024.737	7013
3026.56	6880
3028.38	7009
3030.201	6953
3032.022	6934
3033.84	6892
3035.662	6798
3037.481	6882
3039.298	6918
3041.117	6982
3042.933	6952
3044.752	6800
3046.568	6999
3048.385	6868
3050.2	6900
3052.016	6818
3053.83	6847
3055.646	6816
3057.46	6774
3059.272	6791
3061.086	6873
3062.898	6938
3064.711	6777
3066.524	6738
3068.335	6892
3070.145	6888
3071.956	6789
3073.766	6880
3075.576	6823
3077.385	6762
3079.193	6819
3081.002	6847
3082.81	6718
3084.618	6738
3086.425	6805
3088.231	6891
3090.036	6765
3091.842	6741
3093.648	6825
3095.452	6818
3097.257	6774
3099.06	6655
3100.863	6552
3102.666	6656
3104.47	6733
3106.272	6713
3108.073	6684
3109.875	6640
3111.676	6628
3113.477	6667
3115.277	6694
3117.077	6616
3118.874	6494
3120.673	6646
3122.473	6651
3124.271	6503
3126.066	6688
3127.863	6601
3129.66	6614
3131.456	6621
3133.252	6502
3135.047	6675
3136.842	6510
3138.635	6490
3140.429	6566
3142.223	6606
3144.016	6526
3145.808	6556
3147.6	6474
3149.392	6543
3151.183	6563
3152.975	6487
3154.765	6585
3156.553	6579
3158.344	6526
3160.132	6423
3161.922	6497
3163.71	6426
3165.497	6554
3167.285	6501
3169.071	6477
3170.858	6472
3172.645	6519
3174.429	6398
3176.214	6407
3177.998	6472
3179.783	6502
3181.568	6435
3183.351	6360
3185.133	6367
3186.915	6466
3188.698	6461
3190.481	6476
3192.261	6475
3194.042	6390
3195.822	6355
3197.601	6429
3199.381	6319
3201.161	6412
3202.939	6354
3204.717	6370
3206.495	6410
3208.272	6316
3210.05	6478
3211.826	6489
3213.602	6305
3215.376	6381
3217.151	6402
3218.927	6460
3220.702	6354
3222.476	6390
3224.249	6389
3226.021	6390
3227.793	6387
3229.567	6380
3231.339	6318
3233.109	6402
3234.88	6512
3236.651	6303
3238.421	6492
3240.191	6343
3241.96	6411
3243.728	6301
3245.497	6395
3247.263	6397
3249.033	6393
3250.799	6401
3252.566	6310
3254.331	6497
3256.097	6310
3257.863	6247
3259.628	6380
3261.392	6252
3263.156	6324
3264.919	6274
3266.683	6441
3268.447	6417
3270.208	6407
3271.969	6326
3273.731	6418
3275.492	6393
3277.253	6312
3279.013	6273
3280.773	6295
3282.532	6418
3284.291	6332
3286.05	6271
3287.808	6321
3289.566	6389
3291.323	6276
3293.079	6430
3294.835	6361
3296.593	6262
3298.348	6374
3300.102	6374
3301.857	6320
3303.611	6357
3305.366	6361
3307.119	6276
3308.872	6419
3310.624	6326
3312.376	6270
3314.129	6367
3315.881	6391
3317.631	6324
3319.38	6274
3321.13	6314
3322.88	6316
3324.631	6387
3326.379	6183
3328.126	6259
3329.875	6237
3331.622	6275
3333.371	6325
3335.116	6258
3336.863	6327
3338.609	6312
3340.353	6238
3342.1	6260
3343.845	6316
3345.588	6300
3347.332	6271
3349.074	6194
3350.817	6216
3352.56	6368
3354.303	6146
3356.043	6259
3357.785	6258
3359.525	6287
3361.268	6161
3363.007	6143
3364.745	6193
3366.485	6096
3368.223	6202
3369.962	6078
3371.701	6248
3373.438	6107
3375.174	6144
3376.911	6180
3378.647	6340
3380.384	6148
3382.118	6134
3383.854	6225
3385.588	6251
3387.322	6188
3389.057	6142
3390.79	6068
3392.522	6097
3394.255	6048
3395.987	6111
3397.719	6152
3399.451	6139
3401.181	6033
3402.911	6149
3404.641	6113
3406.371	6088
3408.101	6047
3409.83	6085
3411.558	6050
3413.285	5975
3415.011	6032
3416.739	6106
3418.467	5948
3420.193	6105
3421.919	6064
3423.644	6098
3425.368	5965
3427.094	5972
3428.818	6185
3430.542	6055
3432.264	5968
3433.987	6076
3435.712	5944
3437.434	6031
3439.155	6012
3440.876	5969
3442.596	6036
3444.317	5969
3446.039	6056
3447.757	5890
3449.477	5943
3451.195	5894
3452.914	5943
3454.632	5897
3456.35	5941
3458.067	5919
3459.784	6004
3461.5	5924
3463.216	5852
3464.932	5898
3466.647	5864
3468.362	5861
3470.076	5917
3471.789	5774
3473.505	5951
3475.217	5806
3476.929	5808
3478.641	5910
3480.354	5760
3482.066	5777
3483.777	5919
3485.487	5744
3487.197	5729
3488.908	5729
3490.617	5837
3492.327	5813
3494.035	5779
3495.743	5781
3497.451	5759
3499.158	5769
3500.866	5811
3502.572	5643
3504.278	5800
3505.984	5848
3507.689	5646
3509.396	5721
3511.1	5726
3512.804	5728
3514.508	5736
3516.211	5751
3517.913	5744
3519.616	5659
3521.319	5702
3523.021	5635
3524.722	5640
3526.422	5714
3528.124	5649
3529.824	5751
3531.524	5715
3533.222	5632
3534.921	5626
3536.62	5558
3538.318	5590
3540.016	5596
3541.714	5656
3543.41	5707
3545.107	5669
3546.803	5540
3548.5	5656
3550.194	5681
3551.889	5628
3553.583	5547
3555.279	5610
3556.972	5606
3558.666	5644
3560.358	5614
3562.051	5631
3563.742	5592
3565.435	5632
3567.126	5547
3568.817	5528
3570.507	5538
3572.197	5547
3573.888	5561
3575.577	5633
3577.265	5500
3578.954	5529
3580.642	5549
3582.329	5472
3584.017	5488
3585.704	5564
3587.391	5538
3589.077	5423
3590.762	5418
3592.449	5441
3594.133	5496
3595.817	5507
3597.501	5391
3599.185	5415
3600.869	5491
3602.552	5522
3604.234	5484
3605.916	5409
3607.598	5413
3609.279	5382
3610.961	5469
3612.642	5323
3614.321	5313
3616	5434
3617.68	5343
3619.36	5440
3621.039	5350
3622.716	5283
3624.394	5367
3626.071	5408
3627.748	5340
3629.425	5301
3631.102	5381
3632.778	5297
3634.452	5205
3636.127	5305
3637.803	5283
3639.477	5226
3641.151	5209
3642.823	5264
3644.497	5234
3646.171	5272
3647.842	5219
3649.515	5224
3651.185	5291
3652.857	5300
3654.527	5234
3656.198	5187
3657.868	5136
3659.537	5223
3661.207	5143
3662.875	5089
3664.544	5256
3666.212	5294
3667.879	5181
3669.546	5241
3671.212	5208
3672.88	5148
3674.546	5247
3676.211	5229
3677.875	5119
3679.541	5203
3681.205	5228
3682.87	5185
3684.533	5168
3686.196	5048
3687.859	5132
3689.521	5159
3691.184	5124
3692.845	5185
3694.507	5111
3696.167	5091
3697.827	5261
3699.487	5134
3701.148	5193
3702.808	5175
3704.466	5151
3706.125	5205
3707.783	5088
3709.442	5165
3711.099	5079
3712.757	5077
3714.412	5042
3716.068	5131
3717.725	5121
3719.381	5118
3721.036	4997
3722.689	5028
3724.344	5072
3725.998	5072
3727.652	5034
3729.305	5033
3730.958	5041
3732.61	5048
3734.262	5094
3735.915	5070
3737.565	5136
3739.217	5046
3740.866	5061
3742.516	4994
3744.165	5025
3745.816	4967
3747.464	5041
3749.113	4927
3750.761	5018
3752.409	4972
3754.057	5089
3755.703	5001
3757.35	4960
3758.996	4955
3760.641	5005
3762.289	4975
3763.933	4915
3765.577	4896
3767.222	4985
3768.865	4968
3770.508	4947
3772.152	5004
3773.796	4956
3775.438	4891
3777.079	4959
3778.721	4882
3780.363	4974
3782.003	4878
3783.643	4920
3785.283	4980
3786.923	4855
3788.563	4867
3790.203	4868
3791.841	4909
3793.479	4895
3795.115	4888
3796.753	4815
3798.391	4829
3800.027	4919
3801.664	4897
3803.299	4793
3804.935	4868
3806.571	4822
3808.206	4803
3809.839	4859
3811.473	4860
3813.107	4860
3814.74	4797
3816.375	4807
3818.006	4803
3819.638	4777
3821.27	4904
3822.9	4915
3824.532	4692
3826.163	4788
3827.792	4816
3829.423	4779
3831.051	4831
3832.682	4868
3834.311	4814
3835.938	4790
3837.566	4781
3839.193	4679
3840.821	4692
3842.448	4712
3844.075	4735
3845.7	4748
3847.325	4787
3848.951	4652
3850.576	4709
3852.201	4798
3853.825	4656
3855.448	4649
3857.072	4696
3858.694	4733
3860.318	4667
3861.939	4626
3863.562	4687
3865.183	4734
3866.804	4705
3868.426	4671
3870.045	4662
3871.666	4766
3873.285	4748
3874.904	4647
3876.524	4579
3878.142	4695
3879.76	4682
3881.378	4684
3882.995	4664
3884.612	4628
3886.229	4730
3887.845	4556
3889.461	4640
3891.076	4650
3892.691	4659
3894.307	4605
3895.922	4587
3897.536	4630
3899.149	4610
3900.761	4674
3902.374	4652
3903.988	4581
3905.6	4617
3907.212	4723
3908.822	4513
3910.433	4557
3912.045	4600
3913.655	4610
3915.265	4626
3916.875	4574
3918.483	4620
3920.093	4563
3921.702	4624
3923.309	4571
3924.917	4506
3926.523	4629
3928.13	4617
3929.739	4605
3931.344	4561
3932.95	4594
3934.555	4564
3936.159	4553
3937.766	4637
3939.369	4650
3940.974	4586
3942.577	4493
3944.181	4542
3945.783	4649
3947.386	4504
3948.989	4500
3950.59	4546
3952.191	4577
3953.791	4434
3955.394	4543
3956.994	4525
3958.593	4578
3960.192	4434
3961.791	4505
3963.392	4550
3964.99	4465
3966.588	4450
3968.185	4480
3969.782	4357
3971.379	4517
3972.976	4529
3974.572	4420
3976.168	4391
3977.763	4435
3979.358	4442
3980.954	4404
3982.548	4427
3984.142	4437
3985.736	4418
3987.329	4487
3988.922	4407
3990.516	4383
3992.108	4368
3993.698	4384
3995.29	4431
3996.881	4348
3998.473	4425
4000.064	4335
4001.653	4396
4003.242	4394
4004.832	4326
4006.422	4479
4008.01	4310
4009.598	4295
4011.186	4281
4012.773	4347
4014.36	4351
4015.947	4396
4017.534	4389
4019.119	4322
4020.705	4293
4022.291	4274
4023.876	4306
4025.461	4165
4027.044	4236
4028.627	4196
4030.211	4273
4031.795	4220
4033.378	4248
4034.96	4317
4036.542	4342
4038.124	4209
4039.704	4224
4041.286	4234
4042.867	4247
4044.447	4314
4046.026	4179
4047.606	4231
4049.187	4175
4050.765	4247
4052.343	4185
4053.92	4247
4055.498	4178
4057.076	4185
4058.654	4208
4060.23	4207
4061.806	4251
4063.381	4169
4064.957	4171
4066.533	4236
4068.107	4172
4069.682	4155
4071.256	4120
4072.829	4157
4074.404	4139
4075.977	4138
4077.549	4193
4079.121	4166
4080.693	4130
4082.265	4070
4083.836	4146
4085.407	4136
4086.977	4128
4088.547	4081
4090.117	4191
4091.687	4064
4093.256	4124
4094.825	4121
4096.392	4124
4097.96	4165
4099.528	4054
4101.097	4053
4102.663	4165
4104.229	4057
4105.795	4029
4107.361	4043
4108.928	4076
4110.493	4112
4112.058	4072
4113.621	4088
4115.186	4029
4116.75	4112
4118.313	4026
4119.876	4043
4121.438	4056
4123	4142
4124.562	4113
4126.125	3996
4127.686	3939
4129.246	4007
4130.807	4037
4132.367	4069
4133.927	3993
4135.486	3969
4137.046	3973
4138.604	4042
4140.162	3984
4141.72	3993
4143.279	4021
4144.836	3965
4146.393	3985
4147.949	3979
4149.505	3981
4151.062	3940
4152.617	3927
4154.172	3925
4155.727	4004
4157.281	3892
4158.836	3907
4160.39	3925
4161.943	3889
4163.496	3930
4165.048	3931
4166.601	3878
4168.154	3960
4169.706	3888
4171.257	3902
4172.808	3947
4174.358	3885
4175.909	3746
4177.458	3884
4179.008	3869
4180.558	3838
4182.106	3852
4183.655	3847
4185.204	3850
4186.751	3847
4188.298	3748
4189.845	3857
4191.392	3786
4192.939	3920
4194.485	3838
4196.031	3812
4197.576	3816
4199.121	3808
4200.666	3929
4202.211	3825
4203.754	3806
4205.298	3768
4206.84	3835
4208.384	3727
4209.927	3770
4211.47	3817
4213.011	3780
4214.552	3809
4216.094	3782
4217.635	3776
4219.175	3795
4220.716	3846
4222.255	3795
4223.793	3647
4225.335	3760
4226.873	3760
4228.411	3666
4229.948	3765
4231.486	3703
4233.024	3763
4234.562	3703
4236.098	3790
4237.634	3742
4239.169	3663
4240.705	3705
4242.241	3694
4243.776	3645
4245.31	3665
4246.844	3734
4248.378	3708
4249.911	3673
4251.445	3742
4252.978	3684
4254.51	3660
4256.042	3677
4257.574	3716
4259.107	3762
4260.638	3684
4262.169	3775
4263.699	3674
4265.228	3724
4266.759	3615
4268.289	3631
4269.818	3717
4271.345	3701
4272.874	3689
4274.402	3655
4275.931	3670
4277.458	3643
4278.985	3653
4280.512	3721
4282.037	3626
4283.564	3713
4285.089	3684
4286.615	3665
4288.139	3643
4289.664	3611
4291.187	3605
4292.712	3589
4294.235	3696
4295.759	3628
4297.281	3657
4298.804	3679
4300.327	3742
4301.849	3629
4303.37	3614
4304.891	3647
4306.412	3587
4307.933	3592
4309.453	3595
4310.973	3614
4312.492	3577
