398.1873	7178
400.7097	7315
403.2336	7245
405.7547	7313
408.2751	7277
410.7948	7262
413.3138	7180
415.83	7286
418.3497	7222
420.8666	7309
423.3829	7299
425.8985	7448
428.4133	7536
430.9275	7528
433.441	7450
435.9538	7497
438.4639	7490
440.9753	7655
443.4881	7696
445.9982	7649
448.5055	7690
451.0142	7470
453.5201	7691
456.0274	7639
458.5361	7674
461.04	7696
463.5453	7653
466.0478	7734
468.5517	7595
471.0549	7666
473.5574	7857
476.0572	7827
478.5584	7836
481.0568	7860
483.5545	7766
486.0557	7830
488.5521	7917
491.0478	7978
493.5449	8001
496.0392	8060
498.5349	8084
501.0299	8005
503.5222	8063
506.0139	8102
508.5048	8141
510.9991	8120
513.4887	8147
515.9777	8132
518.4659	8143
520.9534	8138
523.4403	8114
525.9306	8073
528.4161	8098
530.9009	8087
533.3851	8018
535.8687	8132
538.3535	8099
540.8356	8218
543.3171	8098
545.7979	8231
548.278	8031
550.7595	8177
553.2383	8171
555.7144	8093
558.1918	8158
560.6685	8267
563.1446	8197
565.6221	8376
568.0968	8305
570.5688	8335
573.0422	8322
575.515	8366
577.989	8385
580.4584	8335
582.9291	8322
585.3991	8397
587.8685	8302
590.3352	8432
592.8052	8375
595.2706	8370
597.7372	8427
600.2033	8351
602.6666	8445
605.1334	8393
607.5953	8371
610.0587	8491
612.5193	8427
614.9814	8451
617.4427	8433
619.9034	8492
622.3615	8407
624.8208	8522
627.2775	8522
629.7335	8439
632.1929	8480
634.6476	8446
637.1016	8436
639.5569	8535
642.0096	8369
644.4637	8543
646.9151	8509
649.3678	8609
651.8179	8517
654.2672	8580
656.7159	8598
659.166	8694
661.6154	8742
664.0622	8632
666.5082	8611
668.9537	8657
671.4005	8516
673.8445	8749
676.288	8813
678.7308	8696
681.1729	8677
683.6163	8763
686.0572	8706
688.4973	8805
690.9368	8917
693.3757	8801
695.8138	8955
698.2534	8811
700.6902	8762
703.1245	8850
705.56	8792
707.9949	8846
710.4311	8876
712.8647	8895
715.2957	8986
717.7279	8967
720.1595	8845
722.5905	8863
725.0208	8984
727.4505	9011
729.8795	9026
732.3058	9105
734.7336	9153
737.1626	9156
739.587	9148
742.0128	9120
744.4359	9231
746.8604	9108
749.2841	9376
751.7073	9245
754.1278	9282
756.5496	9265
758.9688	9324
761.3893	9221
763.8093	9432
766.2285	9286
768.6451	9353
771.0611	9352
773.4784	9412
775.895	9397
778.3091	9450
780.7244	9425
783.1371	9410
785.5493	9319
787.9626	9326
790.3754	9428
792.7856	9444
795.1951	9485
797.6039	9504
800.0121	9407
802.4236	9493
804.8306	9432
807.2369	9304
809.6425	9489
812.0475	9524
814.4538	9470
816.8575	9470
819.2606	9494
821.663	9491
824.0648	9421
826.4659	9595
828.8683	9434
831.2682	9366
833.6674	9491
836.066	9472
838.4639	9599
840.8632	9599
843.2579	9714
845.6539	9602
848.0493	9614
850.444	9735
852.84	9648
855.2315	9568
857.6243	9653
860.0165	9611
862.4081	9549
864.797	9503
867.1892	9561
869.5789	9582
871.9659	9582
874.3542	9573
876.74	9548
879.129	9603
881.5155	9711
883.8994	9534
886.2845	9548
888.6671	9545
891.051	9584
893.4343	9624
895.8169	9704
898.197	9598
900.5783	9592
902.9571	9595
905.3372	9744
907.7167	9715
910.0936	9774
912.4698	9782
914.8474	9664
917.2244	9683
919.5987	9881
921.9744	9834
924.3475	9837
926.72	9832
929.0918	9785
931.4669	9927
933.8375	9923
936.2074	9947
938.5767	9921
940.9454	9994
943.3154	9935
945.6829	10098
948.0497	10122
950.4178	10091
952.7833	10266
955.1483	10387
957.5145	10286
959.8782	10214
962.2412	10223
964.6036	10392
966.9655	10197
969.3266	10126
971.6871	10210
974.0471	10004
976.4064	10041
978.765	9944
981.125	10032
983.4824	10083
985.8373	9887
988.1935	9807
990.549	9911
992.9039	9894
995.2602	10002
997.6119	9820
999.965	9934
1002.317	9993
1004.667	9771
1007.02	10012
1009.371	9913
1011.719	9873
1014.068	9901
1016.415	9887
1018.765	9998
1021.111	9982
1023.458	9930
1025.804	9935
1028.147	10018
1030.49	9818
1032.837	10104
1035.179	10074
1037.522	10149
1039.862	9926
1042.204	10009
1044.546	10004
1046.884	10000
1049.224	10042
1051.562	10002
1053.899	10033
1056.237	10082
1058.575	9835
1060.91	10168
1063.244	10019
1065.58	10034
1067.913	10090
1070.248	10278
1072.579	10203
1074.911	10248
1077.242	10207
1079.572	10094
1081.905	10205
1084.234	10129
1086.562	10100
1088.89	10074
1091.217	10203
1093.544	10088
1095.871	10163
1098.197	10063
1100.521	10127
1102.845	10132
1105.169	10290
1107.491	10188
1109.814	10278
1112.135	10053
1114.456	10245
1116.776	10257
1119.096	10255
1121.415	10254
1123.734	10346
1126.052	10212
1128.369	10211
1130.686	10285
1133.002	10310
1135.318	10360
1137.632	10213
1139.945	10234
1142.258	10281
1144.573	10237
1146.884	10355
1149.196	10352
1151.505	10307
1153.816	10346
1156.124	10274
1158.435	10359
1160.742	10357
1163.051	10142
1165.356	10335
1167.663	10273
1169.97	10252
1172.276	10220
1174.579	10254
1176.881	10391
1179.186	10373
1181.487	10348
1183.79	10368
1186.092	10128
1188.392	10334
1190.691	10191
1192.991	10270
1195.291	10203
1197.588	10243
1199.885	10233
1202.181	10251
1204.479	10298
1206.775	10267
1209.07	10452
1211.363	10314
1213.656	10143
1215.949	10354
1218.241	10430
1220.534	10160
1222.825	10284
1225.115	10351
1227.405	10379
1229.693	10489
1231.984	10403
1234.271	10483
1236.558	10379
1238.845	10463
1241.131	10449
1243.416	10605
1245.703	10567
1247.987	10558
1250.269	10558
1252.552	10486
1254.834	10603
1257.118	10559
1259.399	10547
1261.678	10523
1263.958	10599
1266.237	10530
1268.516	10606
1270.794	10520
1273.072	10607
1275.347	10779
1277.624	10573
1279.899	10574
1282.175	10649
1284.449	10553
1286.722	10583
1288.995	10527
1291.266	10463
1293.54	10496
1295.81	10522
1298.081	10586
1300.35	10471
1302.62	10478
1304.889	10478
1307.156	10563
1309.425	10409
1311.69	10466
1313.957	10431
1316.222	10544
1318.488	10553
1320.751	10624
1323.016	10584
1325.278	10516
1327.54	10621
1329.803	10585
1332.065	10670
1334.325	10506
1336.584	10644
1338.843	10595
1341.101	10586
1343.36	10365
1345.617	10559
1347.876	10658
1350.131	10549
1352.387	10508
1354.643	10477
1356.897	10402
1359.151	10644
1361.403	10621
1363.656	10651
1365.909	10586
1368.16	10648
1370.409	10585
1372.659	10584
1374.909	10646
1377.157	10703
1379.407	10573
1381.655	10514
1383.9	10667
1386.147	10669
1388.393	10707
1390.64	10673
1392.885	10748
1395.127	10908
1397.37	10811
1399.614	10805
1401.854	10741
1404.098	10784
1406.339	10764
1408.578	10815
1410.818	10922
1413.056	10708
1415.297	10732
1417.533	10767
1419.771	10817
1422.006	10810
1424.243	10725
1426.479	10879
1428.715	10761
1430.948	10817
1433.182	10804
1435.414	10853
1437.647	10894
1439.88	10822
1442.11	10865
1444.342	10812
1446.571	10721
1448.799	10928
1451.029	10865
1453.258	10854
1455.485	11024
1457.711	10914
1459.937	10843
1462.164	10887
1464.39	10945
1466.614	10941
1468.838	10824
1471.06	10718
1473.283	10572
1475.506	10948
1477.727	10748
1479.949	10792
1482.169	10822
1484.389	10771
1486.609	10751
1488.828	10602
1491.045	10596
1493.261	10652
1495.477	10669
1497.693	10656
1499.91	10666
1502.125	10527
1504.339	10789
1506.553	10776
1508.766	10588
1510.979	10598
1513.191	10528
1515.402	10747
1517.613	10657
1519.823	10663
1522.033	10504
1524.242	10786
1526.451	10631
1528.657	10598
1530.865	10743
1533.072	10591
1535.278	10776
1537.484	10677
1539.687	10702
1541.892	10781
1544.096	10533
1546.299	10830
1548.502	10737
1550.703	10786
1552.905	10722
1555.104	10811
1557.303	10769
1559.505	10823
1561.703	10854
1563.902	10750
1566.099	10902
1568.295	10892
1570.494	11038
1572.689	11057
1574.883	10746
1577.079	11036
1579.272	11053
1581.467	11021
1583.659	10852
1585.853	10908
1588.044	10832
1590.234	10896
1592.424	11081
1594.615	11029
1596.806	10948
1598.994	10869
1601.182	10912
1603.369	11034
1605.557	10928
1607.744	11041
1609.929	10858
1612.114	11054
1614.298	11048
1616.482	10877
1618.667	11100
1620.85	11030
1623.032	10877
1625.214	10901
1627.395	11042
1629.575	11066
1631.755	10946
1633.935	10987
1636.114	10941
1638.292	11039
1640.471	10941
1642.647	11048
1644.823	10966
1647	11005
1649.175	11170
1651.348	10965
1653.525	11094
1655.698	11127
1657.87	11107
1660.043	10947
1662.213	10972
1664.387	11048
1666.558	11132
1668.727	11053
1670.896	11061
1673.064	11020
1675.233	11000
1677.401	11205
1679.569	11067
1681.735	11005
1683.902	11041
1686.066	10932
1688.233	11033
1690.397	11066
1692.559	10978
1694.723	10943
1696.885	11006
1699.048	10983
1701.21	11023
1703.37	11072
1705.53	11065
1707.689	11059
1709.849	10926
1712.009	10970
1714.166	11099
1716.323	11137
1718.479	11135
1720.634	10932
1722.793	10839
1724.948	11064
1727.102	11023
1729.255	11132
1731.408	10952
1733.562	11180
1735.714	10971
1737.865	11202
1740.016	10945
1742.166	11075
1744.316	11092
1746.467	10886
1748.616	11125
1750.764	11146
1752.911	11078
1755.056	11001
1757.205	11192
1759.35	10892
1761.496	11078
1763.641	11142
1765.785	11037
1767.927	11225
1770.072	11041
1772.214	11266
1774.355	11130
1776.496	11095
1778.637	11066
1780.778	11002
1782.918	11161
1785.057	11111
1787.194	11036
1789.333	11166
1791.472	11170
1793.608	10984
1795.745	10956
1797.879	11212
1800.015	11237
1802.148	11081
1804.284	11197
1806.417	11111
1808.548	11161
1810.682	11147
1812.812	11040
1814.946	11198
1817.075	11047
1819.205	11150
1821.335	11204
1823.463	11105
1825.59	10990
1827.721	11071
1829.847	11023
1831.973	11289
1834.098	11000
1836.223	11108
1838.351	11158
1840.475	11080
1842.598	11106
1844.721	11073
1846.843	11028
1848.966	11069
1851.087	11119
1853.21	11060
1855.33	11202
1857.449	11058
1859.568	10850
1861.688	10834
1863.806	11021
1865.924	11074
1868.039	10965
1870.155	10932
1872.273	10982
1874.388	10958
1876.503	10982
1878.617	11036
1880.73	11082
1882.844	10975
1884.956	10982
1887.068	11132
1889.18	10982
1891.291	11046
1893.4	11114
1895.511	11037
1897.621	11116
1899.73	11160
1901.837	11203
1903.944	11414
1906.053	11146
1908.159	11153
1910.265	11003
1912.369	11212
1914.474	11273
1916.577	11077
1918.683	11232
1920.785	10990
1922.888	11167
1924.989	11131
1927.091	11407
1929.193	11182
1931.294	11168
1933.393	11206
1935.493	11085
1937.59	11216
1939.689	11230
1941.788	11217
1943.884	11228
1945.98	11137
1948.077	11123
1950.171	11146
1952.267	11189
1954.361	11240
1956.455	11051
1958.548	11129
1960.64	11327
1962.733	11347
1964.824	11185
1966.915	11232
1969.005	11083
1971.096	11107
1973.185	11035
1975.275	11053
1977.363	11067
1979.45	11059
1981.537	11048
1983.623	11164
1985.711	11085
1987.796	11122
1989.881	11087
1991.965	11064
1994.047	11087
1996.132	11153
1998.215	11086
2000.297	10954
2002.378	11032
2004.46	11009
2006.54	10972
2008.62	11101
2010.7	11222
2012.779	11099
2014.858	11015
2016.934	10927
2019.013	11108
2021.09	10953
2023.165	10930
2025.241	11059
2027.317	10973
2029.39	11000
2031.466	10886
2033.538	11027
2035.612	11071
2037.683	11063
2039.755	10976
2041.827	11042
2043.898	11003
2045.968	10993
2048.038	11111
2050.106	10904
2052.177	11034
2054.244	11107
2056.313	11054
2058.379	11062
2060.444	11103
2062.511	11173
2064.577	10968
2066.641	11122
2068.705	10989
2070.77	11117
2072.832	11128
2074.896	11118
2076.958	11106
2079.02	10947
2081.081	10947
2083.141	11005
2085.2	11017
2087.261	11132
2089.319	11038
2091.377	10985
2093.435	11109
2095.492	10987
2097.552	11149
2099.607	10970
2101.663	10993
2103.718	10989
2105.771	11073
2107.826	11161
2109.879	10911
2111.932	11033
2113.985	11001
2116.037	11071
2118.088	11160
2120.141	11017
2122.191	10982
2124.239	10981
2126.288	11035
2128.337	10997
2130.387	11106
2132.434	11170
2134.481	10977
2136.528	11071
2138.574	11032
2140.618	10974
2142.665	10943
2144.71	10945
2146.753	11080
2148.797	10970
2150.838	11042
2152.883	11004
2154.923	10987
2156.965	11075
2159.007	10882
2161.046	10959
2163.086	10855
2165.126	11061
2167.163	10937
2169.202	10960
2171.239	10916
2173.277	10956
2175.314	10937
2177.349	10903
2179.385	11024
2181.42	10767
2183.453	10741
2185.49	10789
2187.522	10902
2189.555	10900
2191.586	10621
2193.619	10983
2195.651	10918
2197.682	10786
2199.711	10804
2201.74	10662
2203.769	10691
2205.799	10897
2207.828	10641
2209.855	10677
2211.882	10696
2213.908	10766
2215.934	10558
2217.961	10602
2219.986	10618
2222.01	10749
2224.034	10647
2226.057	10648
2228.08	10766
2230.104	10793
2232.124	10702
2234.145	10762
2236.166	10650
2238.186	10734
2240.207	10814
2242.227	10741
2244.244	10696
2246.262	10587
2248.28	10706
2250.299	10615
2252.314	10755
2254.33	10832
2256.346	10721
2258.36	10631
2260.375	10698
2262.391	10743
2264.403	10592
2266.416	10735
2268.427	10655
2270.44	10700
2272.453	10614
2274.463	10856
2276.474	10665
2278.483	10739
2280.493	10696
2282.501	10763
2284.51	10576
2286.518	10785
2288.524	10726
2290.532	10676
2292.537	10649
2294.544	10713
2296.55	10704
2298.554	10729
2300.557	10660
2302.562	10640
2304.566	10582
2306.568	10587
2308.569	10690
2310.572	10770
2312.573	10662
2314.573	10750
2316.574	10494
2318.573	10672
2320.571	10564
2322.571	10556
2324.569	10591
2326.567	10827
2328.564	10502
2330.56	10518
2332.556	10576
2334.551	10620
2336.546	10376
2338.542	10533
2340.535	10667
2342.529	10463
2344.521	10615
2346.512	10442
2348.505	10517
2350.497	10471
2352.487	10494
2354.478	10521
2356.468	10486
2358.457	10444
2360.446	10521
2362.434	10442
2364.422	10572
2366.408	10473
2368.395	10468
2370.383	10553
2372.369	10288
2374.353	10525
2376.338	10423
2378.321	10425
2380.307	10468
2382.29	10300
2384.272	10461
2386.254	10301
2388.235	10293
2390.218	10341
2392.198	10373
2394.179	10382
2396.157	10332
2398.137	10378
2400.115	10185
2402.095	10269
2404.072	10436
2406.048	10151
2408.026	10363
2410.001	10286
2411.977	10305
2413.953	10322
2415.927	10270
2417.9	10290
2419.875	10299
2421.847	10404
2423.821	10290
2425.792	10299
2427.763	10298
2429.736	10400
2431.706	10298
2433.677	10210
2435.646	10185
2437.615	10213
2439.583	10383
2441.551	10248
2443.519	10236
2445.486	10122
2447.452	10363
2449.418	10371
2451.383	10199
2453.348	10301
2455.314	10148
2457.278	10324
2459.241	10215
2461.205	10235
2463.167	10258
2465.131	10158
2467.091	10340
2469.052	10087
2471.012	10220
2472.972	10222
2474.932	9996
2476.891	10170
2478.85	10196
2480.808	10133
2482.766	10324
2484.722	10198
2486.68	10198
2488.636	10160
2490.591	10196
2492.546	10147
2494.5	10301
2496.456	10185
2498.41	10080
2500.362	10121
2502.315	10034
2504.266	10246
2506.218	10180
2508.169	10117
2510.121	10185
2512.07	10202
2514.019	10091
2515.968	10139
2517.918	10076
2519.866	10024
2521.813	10113
2523.76	10196
2525.707	10060
2527.653	10133
2529.599	9982
2531.543	10138
2533.489	10089
2535.433	10019
2537.376	10123
2539.32	9982
2541.264	10087
2543.205	10104
2545.147	10211
2547.087	9960
2549.029	10049
2550.969	10050
2552.908	10078
2554.847	10099
2556.786	10105
2558.724	9935
2560.663	9984
2562.6	10185
2564.537	9947
2566.473	10076
2568.408	10076
2570.345	10210
2572.28	10057
2574.214	10049
2576.148	10076
2578.081	9961
2580.014	10100
2581.947	10163
2583.879	10003
2585.81	9939
2587.741	10175
2589.67	9962
2591.602	9998
2593.532	9899
2595.461	10040
2597.388	10089
2599.316	9955
2601.244	9973
2603.172	9947
2605.098	10019
2607.023	9943
2608.949	9996
2610.873	10013
2612.8	10057
2614.723	10034
2616.647	10036
2618.569	9999
2620.493	10199
2622.416	10059
2624.338	10085
2626.258	10025
2628.179	9974
2630.099	10042
2632.019	10041
2633.939	10048
2635.857	9927
2637.775	10113
2639.694	10067
2641.61	10026
2643.528	10073
2645.444	10093
2647.361	9965
2649.276	10018
2651.19	10095
2653.105	9958
2655.019	10106
2656.934	9957
2658.846	10046
2660.758	9924
2662.67	10075
2664.583	9927
2666.493	9892
2668.404	10143
2670.313	10002
2672.223	10002
2674.134	9914
2676.042	9939
2677.95	9957
2679.858	10026
2681.765	9951
2683.673	9757
2685.579	9986
2687.483	9954
2689.389	9979
2691.294	9859
2693.198	9851
2695.104	10074
2697.006	10145
2698.909	9811
2700.811	9695
2702.713	9896
2704.615	9982
2706.516	9828
2708.417	9880
2710.316	9823
2712.216	9739
2714.115	9822
2716.014	9866
2717.913	9791
2719.81	9795
2721.707	9769
2723.603	9758
2725.501	9727
2727.396	9842
2729.292	9713
2731.186	9682
2733.081	9836
2734.976	9684
2736.87	9691
2738.762	9704
2740.653	9738
2742.546	9791
2744.437	9787
2746.329	9754
2748.22	9696
2750.11	9759
2751.999	9749
2753.889	9858
2755.778	9789
2757.666	9728
2759.553	9637
2761.44	9596
2763.328	9621
2765.215	9521
2767.101	9718
2768.986	9671
2770.87	9529
2772.754	9716
2774.638	9653
2776.523	9651
2778.405	9646
2780.288	9810
2782.17	9617
2784.051	9601
2785.934	9543
2787.814	9786
2789.694	9626
2791.574	9730
2793.453	9626
2795.332	9659
2797.212	9622
2799.088	9544
2800.966	9661
2802.843	9612
2804.719	9648
2806.597	9532
2808.471	9603
2810.346	9559
2812.221	9364
2814.094	9623
2815.969	9484
2817.843	9620
2819.714	9713
2821.587	9470
2823.459	9518
2825.329	9496
2827.202	9508
2829.072	9567
2830.942	9614
2832.811	9575
2834.68	9555
2836.549	9610
2838.418	9534
2840.284	9579
2842.152	9518
2844.018	9476
2845.885	9474
2847.751	9542
2849.616	9649
2851.482	9472
2853.345	9495
2855.208	9496
2857.074	9500
2858.937	9576
2860.799	9723
2862.66	9543
2864.522	9471
2866.385	9534
2868.245	9601
2870.104	9681
2871.964	9712
2873.824	9624
2875.683	9588
2877.542	9659
2879.4	9623
2881.257	9579
2883.114	9695
2884.97	9798
2886.827	9711
2888.683	9635
2890.537	9649
2892.392	9795
2894.246	9670
2896.1	9681
2897.954	9567
2899.807	9615
2901.66	9866
2903.51	9606
2905.362	9570
2907.214	9620
2909.065	9641
2910.915	9727
2912.765	9685
2914.613	9786
2916.463	9747
2918.311	9796
2920.158	9723
2922.006	9710
2923.853	9869
2925.698	9662
2927.546	9670
2929.392	9752
2931.236	9743
2933.081	9946
2934.924	9771
2936.77	9865
2938.613	9754
2940.455	9990
2942.298	9867
2944.139	10008
2945.982	10089
2947.823	9943
2949.662	9907
2951.503	9858
2953.342	9878
2955.182	9812
2957.021	9878
2958.858	9886
2960.697	9761
2962.534	9800
2964.37	9711
2966.207	9794
2968.044	9627
2969.879	9670
2971.714	9561
2973.548	9453
2975.383	9476
2977.218	9430
2979.051	9366
2980.883	9245
2982.715	9414
2984.547	9364
2986.379	9424
2988.21	9224
2990.04	9278
2991.87	9250
2993.7	9128
2995.53	9296
2997.359	9262
2999.187	9290
3001.015	9277
3002.842	9142
3004.669	9125
3006.497	9215
3008.323	9129
3010.148	9154
3011.974	9140
3013.797	9147
3015.623	9084
3017.447	9169
3019.27	8984
3021.094	9162
3022.915	8963
3024.737	9003
3026.56	8891
3028.38	8985
3030.201	8937
3032.022	8879
3033.84	8952
3035.662	8958
3037.481	8936
3039.298	9032
3041.117	8854
3042.933	8919
3044.752	8934
3046.568	8953
3048.385	8948
3050.2	9034
3052.016	8906
3053.83	8855
3055.646	8860
3057.46	8828
3059.272	8870
3061.086	8951
3062.898	9024
3064.711	8875
3066.524	8908
3068.335	8874
3070.145	8770
3071.956	8753
3073.766	8722
3075.576	8858
3077.385	8849
3079.193	8759
3081.002	8693
3082.81	8654
3084.618	8645
3086.425	8686
3088.231	8771
3090.036	8500
3091.842	8671
3093.648	8673
3095.452	8676
3097.257	8634
3099.06	8712
3100.863	8671
3102.666	8612
3104.47	8778
3106.272	8506
3108.073	8486
3109.875	8573
3111.676	8701
3113.477	8667
3115.277	8668
3117.077	8673
3118.874	8456
3120.673	8653
3122.473	8453
3124.271	8443
3126.066	8520
3127.863	8638
3129.66	8632
3131.456	8402
3133.252	8380
3135.047	8582
3136.842	8532
3138.635	8420
3140.429	8387
3142.223	8330
3144.016	8395
3145.808	8368
3147.6	8419
3149.392	8560
3151.183	8394
3152.975	8405
3154.765	8421
3156.553	8390
3158.344	8538
3160.132	8246
3161.922	8310
3163.71	8430
3165.497	8264
3167.285	8263
3169.071	8392
3170.858	8360
3172.645	8329
3174.429	8343
3176.214	8338
3177.998	8280
3179.783	8365
3181.568	8212
3183.351	8488
3185.133	8295
3186.915	8289
3188.698	8352
3190.481	8275
3192.261	8184
3194.042	8291
3195.822	8063
3197.601	8176
3199.381	8283
3201.161	8273
3202.939	8208
3204.717	8143
3206.495	8157
3208.272	8136
3210.05	8149
3211.826	8120
3213.602	8213
3215.376	8156
3217.151	8150
3218.927	8168
3220.702	8132
3222.476	8102
3224.249	8188
3226.021	8017
3227.793	7970
3229.567	8061
3231.339	8192
3233.109	8083
3234.88	7992
3236.651	8062
3238.421	8108
3240.191	8246
3241.96	8158
3243.728	8195
3245.497	8019
3247.263	8079
3249.033	8072
3250.799	8056
3252.566	8102
3254.331	8099
3256.097	8105
3257.863	8178
3259.628	8038
3261.392	8212
3263.156	8004
3264.919	7991
3266.683	8053
3268.447	8143
3270.208	8032
3271.969	7988
3273.731	8073
3275.492	8042
3277.253	8005
3279.013	8051
3280.773	8032
3282.532	7945
3284.291	7908
3286.05	8085
3287.808	7970
3289.566	7960
3291.323	7988
3293.079	7938
3294.835	8021
3296.593	8022
3298.348	7972
3300.102	8048
3301.857	7870
3303.611	7962
3305.366	7835
3307.119	7882
3308.872	7926
3310.624	7971
3312.376	7824
3314.129	7850
3315.881	7893
3317.631	7761
3319.38	7810
3321.13	7870
3322.88	7882
3324.631	7730
3326.379	7796
3328.126	7974
3329.875	7915
3331.622	7861
3333.371	7824
3335.116	7796
3336.863	7914
3338.609	7928
3340.353	7769
3342.1	7892
3343.845	7873
3345.588	7803
3347.332	7850
3349.074	7794
3350.817	7780
3352.56	7836
3354.303	7664
3356.043	7840
3357.785	7800
3359.525	7812
3361.268	7833
3363.007	7942
3364.745	7652
3366.485	7734
3368.223	7794
3369.962	7769
3371.701	7756
3373.438	7631
3375.174	7726
3376.911	7789
3378.647	7776
3380.384	7623
3382.118	7774
3383.854	7807
3385.588	7798
3387.322	7725
3389.057	7734
3390.79	7623
3392.522	7746
3394.255	7697
3395.987	7760
3397.719	7731
3399.451	7637
3401.181	7708
3402.911	7669
3404.641	7730
3406.371	7498
3408.101	7688
3409.83	7691
3411.558	7575
3413.285	7587
3415.011	7585
3416.739	7663
3418.467	7574
3420.193	7490
3421.919	7502
3423.644	7586
3425.368	7626
3427.094	7646
3428.818	7650
3430.542	7572
3432.264	7479
3433.987	7559
3435.712	7450
3437.434	7527
3439.155	7471
3440.876	7417
3442.596	7366
3444.317	7499
3446.039	7557
3447.757	7473
3449.477	7507
3451.195	7443
3452.914	7406
3454.632	7408
3456.35	7428
3458.067	7325
3459.784	7485
3461.5	7316
3463.216	7431
3464.932	7330
3466.647	7302
3468.362	7290
3470.076	7417
3471.789	7431
3473.505	7239
3475.217	7344
3476.929	7256
3478.641	7178
3480.354	7305
3482.066	7174
3483.777	7311
3485.487	7311
3487.197	7216
3488.908	7282
3490.617	7305
3492.327	7241
3494.035	7353
3495.743	7168
3497.451	7182
3499.158	7286
3500.866	7264
3502.572	7225
3504.278	7160
3505.984	7187
3507.689	7297
3509.396	7161
3511.1	7082
3512.804	7182
3514.508	7085
3516.211	7197
3517.913	7247
3519.616	7141
3521.319	7085
3523.021	7151
3524.722	7126
3526.422	7064
3528.124	7082
3529.824	7185
3531.524	7089
3533.222	7105
3534.921	7017
3536.62	7109
3538.318	6973
3540.016	7147
3541.714	7074
3543.41	7158
3545.107	7077
3546.803	7150
3548.5	7063
3550.194	7061
3551.889	6991
3553.583	7070
3555.279	7013
3556.972	7088
3558.666	6892
3560.358	6956
3562.051	7003
3563.742	6988
3565.435	6974
3567.126	7001
3568.817	6957
3570.507	6900
3572.197	6845
3573.888	7026
3575.577	7042
3577.265	6909
3578.954	6912
3580.642	6953
3582.329	6895
3584.017	6907
3585.704	6924
3587.391	6944
3589.077	6960
3590.762	6923
3592.449	6956
3594.133	6904
3595.817	6911
3597.501	6899
3599.185	6797
3600.869	6853
3602.552	6839
3604.234	6709
3605.916	6806
3607.598	6804
3609.279	6763
3610.961	6843
3612.642	6737
3614.321	6875
3616	6846
3617.68	6630
3619.36	6804
3621.039	6654
3622.716	6795
3624.394	6762
3626.071	6652
3627.748	6742
3629.425	6800
3631.102	6706
3632.778	6743
3634.452	6641
3636.127	6741
3637.803	6634
3639.477	6731
3641.151	6627
3642.823	6561
3644.497	6796
3646.171	6709
3647.842	6580
3649.515	6762
3651.185	6536
3652.857	6595
3654.527	6652
3656.198	6639
3657.868	6564
3659.537	6682
3661.207	6550
3662.875	6483
3664.544	6590
3666.212	6562
3667.879	6609
3669.546	6645
3671.212	6609
3672.88	6643
3674.546	6499
3676.211	6623
3677.875	6601
3679.541	6577
3681.205	6568
3682.87	6584
3684.533	6527
3686.196	6620
3687.859	6323
3689.521	6612
3691.184	6553
3692.845	6520
3694.507	6575
3696.167	6506
3697.827	6579
3699.487	6446
3701.148	6456
3702.808	6474
3704.466	6500
3706.125	6493
3707.783	6449
3709.442	6416
3711.099	6444
3712.757	6474
3714.412	6483
3716.068	6537
3717.725	6434
3719.381	6475
3721.036	6542
3722.689	6500
3724.344	6463
3725.998	6389
3727.652	6431
3729.305	6442
3730.958	6381
3732.61	6408
3734.262	6404
3735.915	6447
3737.565	6447
3739.217	6395
3740.866	6299
3742.516	6376
3744.165	6358
3745.816	6294
3747.464	6495
3749.113	6309
3750.761	6308
3752.409	6387
3754.057	6355
3755.703	6282
3757.35	6272
3758.996	6299
3760.641	6361
3762.289	6310
3763.933	6201
3765.577	6374
3767.222	6242
3768.865	6229
3770.508	6143
3772.152	6269
3773.796	6272
3775.438	6306
3777.079	6260
3778.721	6284
3780.363	6266
3782.003	6210
3783.643	6165
3785.283	6222
3786.923	6162
3788.563	6205
3790.203	6220
3791.841	6176
3793.479	6051
3795.115	6050
3796.753	6155
3798.391	6217
3800.027	6084
3801.664	6129
3803.299	6132
3804.935	6130
3806.571	6154
3808.206	6082
3809.839	6117
3811.473	5942
3813.107	6027
3814.74	6108
3816.375	6035
3818.006	6092
3819.638	6087
3821.27	6044
3822.9	6026
3824.532	5970
3826.163	5978
3827.792	5998
3829.423	6054
3831.051	6132
3832.682	5865
3834.311	6076
3835.938	5954
3837.566	6010
3839.193	5937
3840.821	5988
3842.448	6021
3844.075	5959
3845.7	5971
3847.325	6012
3848.951	5988
3850.576	5912
3852.201	5938
3853.825	6010
3855.448	5951
3857.072	6012
3858.694	5949
3860.318	5910
3861.939	5914
3863.562	5841
3865.183	5954
3866.804	5938
3868.426	5984
3870.045	5867
3871.666	5987
3873.285	5946
3874.904	5805
3876.524	5806
3878.142	5849
3879.76	5835
3881.378	5870
3882.995	5930
3884.612	5952
3886.229	5795
3887.845	5773
3889.461	5879
3891.076	5795
3892.691	5810
3894.307	5796
3895.922	5898
3897.536	5855
3899.149	5867
3900.761	5884
3902.374	5909
3903.988	5857
3905.6	5785
3907.212	5785
3908.822	5779
3910.433	5842
3912.045	5823
3913.655	5714
3915.265	5721
3916.875	5881
3918.483	5657
3920.093	5807
3921.702	5911
3923.309	5811
3924.917	5859
3926.523	5625
3928.13	5784
3929.739	5727
3931.344	5663
3932.95	5785
3934.555	5806
3936.159	5737
3937.766	5729
3939.369	5593
3940.974	5784
3942.577	5672
3944.181	5707
3945.783	5696
3947.386	5636
3948.989	5727
3950.59	5709
3952.191	5656
3953.791	5693
3955.394	5647
3956.994	5630
3958.593	5770
3960.192	5492
3961.791	5802
3963.392	5630
3964.99	5651
3966.588	5544
3968.185	5695
3969.782	5564
3971.379	5495
3972.976	5683
3974.572	5481
3976.168	5581
3977.763	5622
3979.358	5520
3980.954	5557
3982.548	5481
3984.142	5625
3985.736	5516
3987.329	5542
3988.922	5440
3990.516	5510
3992.108	5419
3993.698	5526
3995.29	5419
3996.881	5446
3998.473	5419
4000.064	5416
4001.653	5498
4003.242	5435
4004.832	5402
4006.422	5474
4008.01	5383
4009.598	5433
4011.186	5337
4012.773	5489
4014.36	5395
4015.947	5431
4017.534	5374
4019.119	5388
4020.705	5356
4022.291	5309
4023.876	5292
4025.461	5320
4027.044	5288
4028.627	5295
4030.211	5299
4031.795	5350
4033.378	5290
4034.96	5215
4036.542	5317
4038.124	5335
4039.704	5241
4041.286	5353
4042.867	5274
4044.447	5157
4046.026	5310
4047.606	5315
4049.187	5338
4050.765	5275
4052.343	5237
4053.92	5176
4055.498	5251
4057.076	5244
4058.654	5342
4060.23	5135
4061.806	5148
4063.381	5202
4064.957	5331
4066.533	5156
4068.107	5225
4069.682	5186
4071.256	5201
4072.829	5189
4074.404	5182
4075.977	5146
4077.549	5203
4079.121	5171
4080.693	5165
4082.265	5115
4083.836	5098
4085.407	5138
4086.977	5204
4088.547	5044
4090.117	5199
4091.687	5059
4093.256	5161
4094.825	5225
4096.392	5088
4097.96	5116
4099.528	5225
4101.097	5058
4102.663	5110
4104.229	5077
4105.795	5169
4107.361	5102
4108.928	5040
4110.493	5006
4112.058	5159
4113.621	5051
4115.186	5113
4116.75	5080
4118.313	5114
4119.876	5036
4121.438	5011
4123	4981
4124.562	5016
4126.125	4997
4127.686	4956
4129.246	5040
4130.807	5020
4132.367	4933
4133.927	5035
4135.486	4976
4137.046	4907
4138.604	5036
4140.162	4897
4141.72	4997
4143.279	4918
4144.836	4922
4146.393	4979
4147.949	4889
4149.505	4888
4151.062	4977
4152.617	4969
4154.172	4923
4155.727	4874
4157.281	4903
4158.836	4801
4160.39	4868
4161.943	4800
4163.496	4950
4165.048	4835
4166.601	4767
4168.154	4781
4169.706	4848
4171.257	4755
4172.808	4849
4174.358	4749
4175.909	4765
4177.458	4771
4179.008	4732
4180.558	4794
4182.106	4761
4183.655	4843
4185.204	4836
4186.751	4674
4188.298	4765
4189.845	4755
4191.392	4733
4192.939	4741
4194.485	4710
4196.031	4742
4197.576	4783
4199.121	4639
4200.666	4770
4202.211	4751
4203.754	4706
4205.298	4668
4206.84	4702
4208.384	4720
4209.927	4589
4211.47	4597
4213.011	4647
4214.552	4753
4216.094	4675
4217.635	4610
4219.175	4638
4220.716	4647
4222.255	4742
4223.793	4700
4225.335	4606
4226.873	4539
4228.411	4552
4229.948	4621
4231.486	4586
4233.024	4583
4234.562	4633
4236.098	4579
4237.634	4644
4239.169	4613
4240.705	4665
4242.241	4550
4243.776	4543
4245.31	4576
4246.844	4658
4248.378	4575
4249.911	4580
4251.445	4594
4252.978	4549
4254.51	4604
4256.042	4572
4257.574	4524
4259.107	4542
4260.638	4485
4262.169	4592
4263.699	4614
4265.228	4475
4266.759	4618
4268.289	4461
4269.818	4552
4271.345	4507
4272.874	4472
4274.402	4491
4275.931	4489
4277.458	4544
4278.985	4451
4280.512	4516
4282.037	4411
4283.564	4498
4285.089	4442
4286.615	4441
4288.139	4613
4289.664	4435
4291.187	4500
4292.712	4538
4294.235	4422
4295.759	4415
4297.281	4416
4298.804	4481
4300.327	4444
4301.849	4325
4303.37	4429
4304.891	4393
4306.412	4367
4307.933	4345
4309.453	4396
4310.973	4342
4312.492	4439
