398.1873	5218
400.7097	5142
403.2336	5244
405.7547	5272
408.2751	5336
410.7948	5217
413.3138	5282
415.83	5362
418.3497	5384
420.8666	5453
423.3829	5448
425.8985	5452
428.4133	5527
430.9275	5545
433.441	5555
435.9538	5486
438.4639	5526
440.9753	5534
443.4881	5583
445.9982	5458
448.5055	5571
451.0142	5576
453.5201	5489
456.0274	5536
458.5361	5507
461.04	5562
463.5453	5515
466.0478	5497
468.5517	5584
471.0549	5602
473.5574	5520
476.0572	5560
478.5584	5458
481.0568	5580
483.5545	5564
486.0557	5599
488.5521	5701
491.0478	5751
493.5449	5671
496.0392	5688
498.5349	5542
501.0299	5695
503.5222	5748
506.0139	5747
508.5048	5668
510.9991	5634
513.4887	5716
515.9777	5808
518.4659	5741
520.9534	5591
523.4403	5712
525.9306	5818
528.4161	5789
530.9009	5774
533.3851	5777
535.8687	5742
538.3535	5735
540.8356	5748
543.3171	5759
545.7979	5775
548.278	5831
550.7595	5688
553.2383	5789
555.7144	5760
558.1918	5868
560.6685	5888
563.1446	5809
565.6221	5822
568.0968	5869
570.5688	5919
573.0422	5920
575.515	6025
577.989	5930
580.4584	5983
582.9291	5985
585.3991	5977
587.8685	6068
590.3352	6110
592.8052	6022
595.2706	5956
597.7372	6038
600.2033	6011
602.6666	5929
605.1334	6019
607.5953	6047
610.0587	5888
612.5193	5987
614.9814	5923
617.4427	6022
619.9034	5868
622.3615	5885
624.8208	5949
627.2775	5887
629.7335	5831
632.1929	6012
634.6476	5854
637.1016	5915
639.5569	5938
642.0096	5914
644.4637	5996
646.9151	6104
649.3678	6016
651.8179	5907
654.2672	5995
656.7159	5963
659.166	6075
661.6154	6069
664.0622	6032
666.5082	6034
668.9537	6097
671.4005	6050
673.8445	6074
676.288	6133
678.7308	6121
681.1729	6051
683.6163	6145
686.0572	6117
688.4973	6121
690.9368	6118
693.3757	6125
695.8138	6168
698.2534	6153
700.6902	6180
703.1245	6191
705.56	6230
707.9949	6251
710.4311	6201
712.8647	6206
715.2957	6265
717.7279	6286
720.1595	6197
722.5905	6288
725.0208	6423
727.4505	6272
729.8795	6441
732.3058	6325
734.7336	6274
737.1626	6426
739.587	6376
742.0128	6379
744.4359	6426
746.8604	6492
749.2841	6523
751.7073	6580
754.1278	6460
756.5496	6569
758.9688	6555
761.3893	6575
763.8093	6516
766.2285	6660
768.6451	6546
771.0611	6678
773.4784	6643
775.895	6557
778.3091	6561
780.7244	6554
783.1371	6656
785.5493	6529
787.9626	6731
790.3754	6542
792.7856	6568
795.1951	6569
797.6039	6560
800.0121	6657
802.4236	6555
804.8306	6576
807.2369	6559
809.6425	6702
812.0475	6702
814.4538	6664
816.8575	6753
819.2606	6649
821.663	6754
824.0648	6687
826.4659	6729
828.8683	6695
831.2682	6686
833.6674	6785
836.066	6783
838.4639	6749
840.8632	6755
843.2579	6686
845.6539	6695
848.0493	6834
850.444	6878
852.84	6851
855.2315	6700
857.6243	6921
860.0165	6830
862.4081	6749
864.797	6765
867.1892	6854
869.5789	6799
871.9659	6725
874.3542	6828
876.74	6886
879.129	6767
881.5155	6929
883.8994	6735
886.2845	6716
888.6671	6710
891.051	6764
893.4343	6703
895.8169	6792
898.197	6763
900.5783	6800
902.9571	6907
905.3372	6886
907.7167	6985
910.0936	6901
912.4698	6852
914.8474	6976
917.2244	6968
919.5987	7050
921.9744	7092
924.3475	7002
926.72	7049
929.0918	7049
931.4669	7135
933.8375	7131
936.2074	7225
938.5767	7327
940.9454	7307
943.3154	7468
945.6829	7481
948.0497	7687
950.4178	7913
952.7833	8267
955.1483	8527
957.5145	8821
959.8782	8958
962.2412	8863
964.6036	8803
966.9655	8319
969.3266	8000
971.6871	7695
974.0471	7483
976.4064	7238
978.765	7215
981.125	7139
983.4824	7087
985.8373	7040
988.1935	7010
990.549	6996
992.9039	6963
995.2602	7049
997.6119	7019
999.965	7084
1002.317	7089
1004.667	7019
1007.02	7143
1009.371	7056
1011.719	7031
1014.068	7003
1016.415	7082
1018.765	7080
1021.111	7095
1023.458	7117
1025.804	7117
1028.147	7149
1030.49	7266
1032.837	7131
1035.179	7155
1037.522	7130
1039.862	7270
1042.204	7262
1044.546	7199
1046.884	7150
1049.224	7330
1051.562	7260
1053.899	7256
1056.237	7231
1058.575	7329
1060.91	7259
1063.244	7243
1065.58	7372
1067.913	7400
1070.248	7514
1072.579	7511
1074.911	7301
1077.242	7444
1079.572	7350
1081.905	7266
1084.234	7221
1086.562	7237
1088.89	7200
1091.217	7197
1093.544	7284
1095.871	7164
1098.197	7208
1100.521	7261
1102.845	7188
1105.169	7258
1107.491	7181
1109.814	7260
1112.135	7187
1114.456	7222
1116.776	7296
1119.096	7232
1121.415	7222
1123.734	7172
1126.052	7210
1128.369	7171
1130.686	7247
1133.002	7192
1135.318	7273
1137.632	7293
1139.945	7386
1142.258	7298
1144.573	7275
1146.884	7186
1149.196	7332
1151.505	7331
1153.816	7205
1156.124	7239
1158.435	7258
1160.742	7364
1163.051	7142
1165.356	7305
1167.663	7304
1169.97	7207
1172.276	7230
1174.579	7152
1176.881	7213
1179.186	7253
1181.487	7238
1183.79	7321
1186.092	7169
1188.392	7264
1190.691	7206
1192.991	7239
1195.291	7294
1197.588	7367
1199.885	7288
1202.181	7243
1204.479	7183
1206.775	7326
1209.07	7276
1211.363	7201
1213.656	7308
1215.949	7370
1218.241	7416
1220.534	7226
1222.825	7199
1225.115	7416
1227.405	7393
1229.693	7440
1231.984	7347
1234.271	7524
1236.558	7541
1238.845	7470
1241.131	7542
1243.416	7535
1245.703	7502
1247.987	7619
1250.269	7368
1252.552	7524
1254.834	7524
1257.118	7521
1259.399	7507
1261.678	7480
1263.958	7536
1266.237	7665
1268.516	7466
1270.794	7524
1273.072	7517
1275.347	7493
1277.624	7543
1279.899	7460
1282.175	7538
1284.449	7475
1286.722	7520
1288.995	7453
1291.266	7427
1293.54	7347
1295.81	7419
1298.081	7545
1300.35	7451
1302.62	7372
1304.889	7503
1307.156	7441
1309.425	7544
1311.69	7393
1313.957	7503
1316.222	7355
1318.488	7300
1320.751	7488
1323.016	7437
1325.278	7591
1327.54	7471
1329.803	7488
1332.065	7469
1334.325	7354
1336.584	7387
1338.843	7449
1341.101	7579
1343.36	7508
1345.617	7438
1347.876	7560
1350.131	7544
1352.387	7462
1354.643	7481
1356.897	7389
1359.151	7462
1361.403	7347
1363.656	7471
1365.909	7509
1368.16	7500
1370.409	7418
1372.659	7609
1374.909	7498
1377.157	7476
1379.407	7548
1381.655	7535
1383.9	7639
1386.147	7437
1388.393	7544
1390.64	7505
1392.885	7564
1395.127	7567
1397.37	7544
1399.614	7490
1401.854	7614
1404.098	7590
1406.339	7617
1408.578	7542
1410.818	7527
1413.056	7614
1415.297	7605
1417.533	7631
1419.771	7742
1422.006	7580
1424.243	7692
1426.479	7781
1428.715	7681
1430.948	7648
1433.182	7751
1435.414	7882
1437.647	7697
1439.88	7764
1442.11	7777
1444.342	7851
1446.571	7776
1448.799	7750
1451.029	7917
1453.258	7828
1455.485	7832
1457.711	7811
1459.937	7798
1462.164	7878
1464.39	7749
1466.614	7656
1468.838	7818
1471.06	7782
1473.283	7676
1475.506	7877
1477.727	7608
1479.949	7724
1482.169	7576
1484.389	7530
1486.609	7466
1488.828	7482
1491.045	7608
1493.261	7598
1495.477	7514
1497.693	7536
1499.91	7487
1502.125	7536
1504.339	7522
1506.553	7514
1508.766	7440
1510.979	7598
1513.191	7455
1515.402	7567
1517.613	7456
1519.823	7476
1522.033	7452
1524.242	7645
1526.451	7516
1528.657	7505
1530.865	7451
1533.072	7598
1535.278	7441
1537.484	7687
1539.687	7534
1541.892	7455
1544.096	7540
1546.299	7452
1548.502	7668
1550.703	7547
1552.905	7675
1555.104	7599
1557.303	7758
1559.505	7651
1561.703	7512
1563.902	7591
1566.099	7774
1568.295	7826
1570.494	7644
1572.689	7647
1574.883	7774
1577.079	7564
1579.272	7867
1581.467	7607
1583.659	7789
1585.853	7647
1588.044	7837
1590.234	7904
1592.424	7720
1594.615	7696
1596.806	7733
1598.994	7847
1601.182	7749
1603.369	7926
1605.557	7765
1607.744	7829
1609.929	7895
1612.114	7774
1614.298	7825
1616.482	7927
1618.667	7771
1620.85	7912
1623.032	7783
1625.214	7807
1627.395	7871
1629.575	7889
1631.755	7899
1633.935	7890
1636.114	7942
1638.292	7922
1640.471	7986
1642.647	8041
1644.823	7848
1647	7883
1649.175	7979
1651.348	7875
1653.525	7990
1655.698	7968
1657.87	7940
1660.043	7957
1662.213	7983
1664.387	7943
1666.558	7927
1668.727	8067
1670.896	7924
1673.064	7957
1675.233	7991
1677.401	8032
1679.569	8019
1681.735	8097
1683.902	7968
1686.066	7878
1688.233	7898
1690.397	7935
1692.559	7908
1694.723	7894
1696.885	7993
1699.048	7775
1701.21	7971
1703.37	7763
1705.53	7847
1707.689	8004
1709.849	7854
1712.009	7714
1714.166	7799
1716.323	7739
1718.479	7688
1720.634	7882
1722.793	7872
1724.948	7888
1727.102	7878
1729.255	7895
1731.408	7906
1733.562	7841
1735.714	7789
1737.865	8008
1740.016	7824
1742.166	7817
1744.316	7884
1746.467	7815
1748.616	7730
1750.764	7684
1752.911	7941
1755.056	7933
1757.205	7862
1759.35	7953
1761.496	7818
1763.641	7891
1765.785	7809
1767.927	8076
1770.072	7795
1772.214	7788
1774.355	7946
1776.496	8067
1778.637	7911
1780.778	7920
1782.918	7942
1785.057	7916
1787.194	7860
1789.333	7916
1791.472	7887
1793.608	7933
1795.745	8003
1797.879	7896
1800.015	7841
1802.148	7951
1804.284	7738
1806.417	8094
1808.548	7903
1810.682	7943
1812.812	7970
1814.946	7896
1817.075	7907
1819.205	7955
1821.335	7925
1823.463	7994
1825.59	7931
1827.721	7985
1829.847	7984
1831.973	7969
1834.098	8200
1836.223	7858
1838.351	7752
1840.475	7945
1842.598	7923
1844.721	7959
1846.843	7927
1848.966	7860
1851.087	7931
1853.21	7909
1855.33	7934
1857.449	7893
1859.568	7848
1861.688	7916
1863.806	7828
1865.924	7756
1868.039	7896
1870.155	7732
1872.273	7929
1874.388	7856
1876.503	7914
1878.617	7857
1880.73	7951
1882.844	7815
1884.956	7971
1887.068	8028
1889.18	7915
1891.291	7896
1893.4	7963
1895.511	7969
1897.621	7861
1899.73	8102
1901.837	7902
1903.944	7959
1906.053	7975
1908.159	8070
1910.265	7937
1912.369	7933
1914.474	7957
1916.577	8003
1918.683	7908
1920.785	8091
1922.888	8042
1924.989	7993
1927.091	7997
1929.193	8140
1931.294	7901
1933.393	8053
1935.493	8062
1937.59	8130
1939.689	8067
1941.788	8029
1943.884	7993
1945.98	8042
1948.077	8055
1950.171	7953
1952.267	8131
1954.361	7952
1956.455	7975
1958.548	8014
1960.64	7928
1962.733	8036
1964.824	8046
1966.915	8034
1969.005	8078
1971.096	7953
1973.185	7995
1975.275	8113
1977.363	8030
1979.45	7987
1981.537	8090
1983.623	8024
1985.711	7911
1987.796	8003
1989.881	7974
1991.965	8036
1994.047	7950
1996.132	7905
1998.215	7927
2000.297	7976
2002.378	7962
2004.46	7936
2006.54	7977
2008.62	7902
2010.7	7913
2012.779	7937
2014.858	7917
2016.934	8054
2019.013	7966
2021.09	7934
2023.165	7841
2025.241	8193
2027.317	7834
2029.39	7978
2031.466	7931
2033.538	7980
2035.612	7902
2037.683	8049
2039.755	8061
2041.827	7925
2043.898	7838
2045.968	8010
2048.038	8040
2050.106	8074
2052.177	8014
2054.244	7965
2056.313	7987
2058.379	7932
2060.444	8015
2062.511	7995
2064.577	7899
2066.641	8091
2068.705	8015
2070.77	7919
2072.832	7998
2074.896	8039
2076.958	8046
2079.02	8116
2081.081	8042
2083.141	8053
2085.2	7929
2087.261	7880
2089.319	8010
2091.377	7813
2093.435	8061
2095.492	8097
2097.552	8051
2099.607	7930
2101.663	7967
2103.718	7938
2105.771	7977
2107.826	8022
2109.879	7976
2111.932	7924
2113.985	8001
2116.037	8039
2118.088	8061
2120.141	7992
2122.191	8106
2124.239	8124
2126.288	7905
2128.337	8002
2130.387	7965
2132.434	8046
2134.481	7921
2136.528	8090
2138.574	8017
2140.618	8024
2142.665	7981
2144.71	7981
2146.753	7968
2148.797	7901
2150.838	7929
2152.883	7916
2154.923	7860
2156.965	7989
2159.007	7909
2161.046	7841
2163.086	7958
2165.126	7913
2167.163	7920
2169.202	7857
2171.239	7991
2173.277	7827
2175.314	7918
2177.349	7900
2179.385	7934
2181.42	8021
2183.453	7839
2185.49	7840
2187.522	7809
2189.555	7953
2191.586	8029
2193.619	7791
2195.651	7960
2197.682	7882
2199.711	7954
2201.74	7835
2203.769	7855
2205.799	7864
2207.828	7748
2209.855	7838
2211.882	7774
2213.908	7863
2215.934	7849
2217.961	7783
2219.986	7814
2222.01	7854
2224.034	7872
2226.057	7927
2228.08	7842
2230.104	7838
2232.124	7829
2234.145	7790
2236.166	7793
2238.186	7870
2240.207	7913
2242.227	7859
2244.244	7878
2246.262	7838
2248.28	7829
2250.299	7724
2252.314	7777
2254.33	7936
2256.346	7920
2258.36	7900
2260.375	7764
2262.391	7906
2264.403	7810
2266.416	7755
2268.427	7772
2270.44	7764
2272.453	7777
2274.463	7766
2276.474	7996
2278.483	7760
2280.493	7892
2282.501	7768
2284.51	7899
2286.518	7921
2288.524	7816
2290.532	7889
2292.537	7861
2294.544	7720
2296.55	7878
2298.554	7807
2300.557	7769
2302.562	7804
2304.566	7811
2306.568	7878
2308.569	7791
2310.572	7883
2312.573	7762
2314.573	7869
2316.574	7782
2318.573	7783
2320.571	7810
2322.571	7683
2324.569	7902
2326.567	7806
2328.564	7732
2330.56	7887
2332.556	7771
2334.551	7770
2336.546	7720
2338.542	7793
2340.535	7796
2342.529	7675
2344.521	7815
2346.512	7641
2348.505	7637
2350.497	7796
2352.487	7777
2354.478	7578
2356.468	7743
2358.457	7628
2360.446	7672
2362.434	7757
2364.422	7701
2366.408	7740
2368.395	7617
2370.383	7735
2372.369	7601
2374.353	7674
2376.338	7651
2378.321	7675
2380.307	7756
2382.29	7679
2384.272	7643
2386.254	7601
2388.235	7585
2390.218	7753
2392.198	7589
2394.179	7539
2396.157	7554
2398.137	7667
2400.115	7629
2402.095	7645
2404.072	7560
2406.048	7650
2408.026	7648
2410.001	7642
2411.977	7701
2413.953	7580
2415.927	7565
2417.9	7615
2419.875	7635
2421.847	7545
2423.821	7616
2425.792	7553
2427.763	7731
2429.736	7592
2431.706	7670
2433.677	7602
2435.646	7623
2437.615	7581
2439.583	7644
2441.551	7588
2443.519	7621
2445.486	7507
2447.452	7515
2449.418	7504
2451.383	7663
2453.348	7533
2455.314	7533
2457.278	7541
2459.241	7539
2461.205	7518
2463.167	7513
2465.131	7491
2467.091	7646
2469.052	7534
2471.012	7699
2472.972	7577
2474.932	7502
2476.891	7468
2478.85	7567
2480.808	7466
2482.766	7550
2484.722	7496
2486.68	7490
2488.636	7520
2490.591	7459
2492.546	7545
2494.5	7529
2496.456	7487
2498.41	7426
2500.362	7447
2502.315	7534
2504.266	7426
2506.218	7502
2508.169	7469
2510.121	7438
2512.07	7517
2514.019	7272
2515.968	7400
2517.918	7478
2519.866	7580
2521.813	7387
2523.76	7547
2525.707	7552
2527.653	7557
2529.599	7351
2531.543	7604
2533.489	7569
2535.433	7295
2537.376	7451
2539.32	7452
2541.264	7485
2543.205	7511
2545.147	7591
2547.087	7483
2549.029	7516
2550.969	7485
2552.908	7598
2554.847	7559
2556.786	7475
2558.724	7374
2560.663	7344
2562.6	7542
2564.537	7484
2566.473	7506
2568.408	7422
2570.345	7442
2572.28	7488
2574.214	7653
2576.148	7440
2578.081	7490
2580.014	7589
2581.947	7569
2583.879	7412
2585.81	7372
2587.741	7565
2589.67	7452
2591.602	7434
2593.532	7584
2595.461	7520
2597.388	7532
2599.316	7600
2601.244	7421
2603.172	7540
2605.098	7522
2607.023	7394
2608.949	7470
2610.873	7466
2612.8	7593
2614.723	7507
2616.647	7627
2618.569	7424
2620.493	7610
2622.416	7641
2624.338	7491
2626.258	7470
2628.179	7557
2630.099	7505
2632.019	7497
2633.939	7459
2635.857	7475
2637.775	7555
2639.694	7634
2641.61	7489
2643.528	7594
2645.444	7503
2647.361	7519
2649.276	7657
2651.19	7568
2653.105	7472
2655.019	7513
2656.934	7480
2658.846	7480
2660.758	7488
2662.67	7589
2664.583	7578
2666.493	7432
2668.404	7450
2670.313	7566
2672.223	7501
2674.134	7611
2676.042	7561
2677.95	7385
2679.858	7474
2681.765	7514
2683.673	7391
2685.579	7434
2687.483	7440
2689.389	7492
2691.294	7499
2693.198	7370
2695.104	7476
2697.006	7433
2698.909	7312
2700.811	7525
2702.713	7335
2704.615	7532
2706.516	7420
2708.417	7395
2710.316	7370
2712.216	7431
2714.115	7484
2716.014	7333
2717.913	7365
2719.81	7346
2721.707	7547
2723.603	7501
2725.501	7390
2727.396	7512
2729.292	7450
2731.186	7250
2733.081	7396
2734.976	7511
2736.87	7328
2738.762	7290
2740.653	7366
2742.546	7464
2744.437	7384
2746.329	7336
2748.22	7382
2750.11	7376
2751.999	7303
2753.889	7382
2755.778	7493
2757.666	7314
2759.553	7342
2761.44	7310
2763.328	7325
2765.215	7320
2767.101	7309
2768.986	7357
2770.87	7330
2772.754	7224
2774.638	7336
2776.523	7382
2778.405	7228
2780.288	7356
2782.17	7390
2784.051	7223
2785.934	7329
2787.814	7283
2789.694	7388
2791.574	7327
2793.453	7309
2795.332	7376
2797.212	7270
2799.088	7302
2800.966	7157
2802.843	7271
2804.719	7212
2806.597	7265
2808.471	7286
2810.346	7334
2812.221	7268
2814.094	7237
2815.969	7152
2817.843	7221
2819.714	7339
2821.587	7437
2823.459	7350
2825.329	7274
2827.202	7391
2829.072	7314
2830.942	7355
2832.811	7233
2834.68	7380
2836.549	7337
2838.418	7339
2840.284	7328
2842.152	7253
2844.018	7317
2845.885	7354
2847.751	7247
2849.616	7331
2851.482	7282
2853.345	7292
2855.208	7240
2857.074	7296
2858.937	7404
2860.799	7485
2862.66	7445
2864.522	7357
2866.385	7397
2868.245	7498
2870.104	7659
2871.964	7552
2873.824	7653
2875.683	7693
2877.542	7647
2879.4	7848
2881.257	7744
2883.114	7836
2884.97	7806
2886.827	7822
2888.683	7702
2890.537	7891
2892.392	7654
2894.246	7657
2896.1	7708
2897.954	7702
2899.807	7718
2901.66	7701
2903.51	7618
2905.362	7800
2907.214	7797
2909.065	7714
2910.915	7823
2912.765	7620
2914.613	7807
2916.463	7978
2918.311	8017
2920.158	7976
2922.006	8013
2923.853	8116
2925.698	8196
2927.546	8350
2929.392	8251
2931.236	8295
2933.081	8521
2934.924	8487
2936.77	8438
2938.613	8520
2940.455	8502
2942.298	8573
2944.139	8596
2945.982	8710
2947.823	8514
2949.662	8496
2951.503	8381
2953.342	8277
2955.182	8294
2957.021	8186
2958.858	8228
2960.697	8130
2962.534	8140
2964.37	8126
2966.207	7876
2968.044	8009
2969.879	7899
2971.714	7860
2973.548	7829
2975.383	7763
2977.218	7812
2979.051	7884
2980.883	7723
2982.715	7825
2984.547	7833
2986.379	7768
2988.21	7581
2990.04	7790
2991.87	7669
2993.7	7578
2995.53	7705
2997.359	7659
2999.187	7384
3001.015	7553
3002.842	7451
3004.669	7491
3006.497	7461
3008.323	7280
3010.148	7316
3011.974	7227
3013.797	7370
3015.623	7123
3017.447	7182
3019.27	7124
3021.094	7316
3022.915	7031
3024.737	7072
3026.56	7101
3028.38	7149
3030.201	7001
3032.022	6950
3033.84	7029
3035.662	6998
3037.481	7027
3039.298	6982
3041.117	7040
3042.933	6982
3044.752	7019
3046.568	6945
3048.385	6977
3050.2	6943
3052.016	7112
3053.83	6837
3055.646	6917
3057.46	6855
3059.272	6846
3061.086	7070
3062.898	6825
3064.711	6897
3066.524	7016
3068.335	6894
3070.145	6935
3071.956	6970
3073.766	6903
3075.576	6835
3077.385	6874
3079.193	6712
3081.002	6850
3082.81	6678
3084.618	6942
3086.425	6745
3088.231	6888
3090.036	6772
3091.842	6888
3093.648	6730
3095.452	6804
3097.257	6729
3099.06	6748
3100.863	6574
3102.666	6781
3104.47	6794
3106.272	6805
3108.073	6854
3109.875	6637
3111.676	6682
3113.477	6718
3115.277	6715
3117.077	6678
3118.874	6729
3120.673	6736
3122.473	6700
3124.271	6664
3126.066	6529
3127.863	6726
3129.66	6624
3131.456	6634
3133.252	6789
3135.047	6739
3136.842	6702
3138.635	6633
3140.429	6669
3142.223	6578
3144.016	6631
3145.808	6535
3147.6	6550
3149.392	6529
3151.183	6558
3152.975	6540
3154.765	6615
3156.553	6636
3158.344	6670
3160.132	6555
3161.922	6681
3163.71	6652
3165.497	6565
3167.285	6604
3169.071	6668
3170.858	6702
3172.645	6527
3174.429	6560
3176.214	6477
3177.998	6484
3179.783	6558
3181.568	6603
3183.351	6514
3185.133	6516
3186.915	6471
3188.698	6634
3190.481	6483
3192.261	6496
3194.042	6503
3195.822	6383
3197.601	6489
3199.381	6523
3201.161	6604
3202.939	6482
3204.717	6489
3206.495	6495
3208.272	6558
3210.05	6470
3211.826	6482
3213.602	6454
3215.376	6442
3217.151	6521
3218.927	6554
3220.702	6447
3222.476	6470
3224.249	6392
3226.021	6509
3227.793	6611
3229.567	6445
3231.339	6513
3233.109	6417
3234.88	6525
3236.651	6391
3238.421	6561
3240.191	6543
3241.96	6475
3243.728	6450
3245.497	6409
3247.263	6450
3249.033	6595
3250.799	6509
3252.566	6456
3254.331	6572
3256.097	6583
3257.863	6304
3259.628	6328
3261.392	6339
3263.156	6400
3264.919	6425
3266.683	6370
3268.447	6462
3270.208	6474
3271.969	6471
3273.731	6418
3275.492	6473
3277.253	6476
3279.013	6546
3280.773	6445
3282.532	6494
3284.291	6421
3286.05	6474
3287.808	6479
3289.566	6479
3291.323	6488
3293.079	6434
3294.835	6477
3296.593	6523
3298.348	6484
3300.102	6444
3301.857	6471
3303.611	6569
3305.366	6472
3307.119	6499
3308.872	6402
3310.624	6490
3312.376	6479
3314.129	6497
3315.881	6488
3317.631	6471
3319.38	6389
3321.13	6346
3322.88	6380
3324.631	6452
3326.379	6440
3328.126	6339
3329.875	6339
3331.622	6374
3333.371	6406
3335.116	6368
3336.863	6368
3338.609	6403
3340.353	6345
3342.1	6332
3343.845	6376
3345.588	6322
3347.332	6265
3349.074	6354
3350.817	6406
3352.56	6331
3354.303	6492
3356.043	6346
3357.785	6314
3359.525	6290
3361.268	6422
3363.007	6349
3364.745	6345
3366.485	6385
3368.223	6289
3369.962	6400
3371.701	6240
3373.438	6290
3375.174	6301
3376.911	6339
3378.647	6325
3380.384	6262
3382.118	6290
3383.854	6315
3385.588	6240
3387.322	6290
3389.057	6246
3390.79	6244
3392.522	6311
3394.255	6235
3395.987	6253
3397.719	6208
3399.451	6264
3401.181	6307
3402.911	6183
3404.641	6256
3406.371	6258
3408.101	6213
3409.83	6248
3411.558	6285
3413.285	6296
3415.011	6062
3416.739	6244
3418.467	6197
3420.193	6246
3421.919	6233
3423.644	6193
3425.368	6297
3427.094	6260
3428.818	6091
3430.542	6260
3432.264	6243
3433.987	6214
3435.712	6149
3437.434	6195
3439.155	6184
3440.876	6180
3442.596	6092
3444.317	6117
3446.039	6070
3447.757	5998
3449.477	6131
3451.195	6023
3452.914	6100
3454.632	6091
3456.35	6107
3458.067	5957
3459.784	6041
3461.5	6127
3463.216	6099
3464.932	5964
3466.647	5872
3468.362	6042
3470.076	5972
3471.789	6013
3473.505	6080
3475.217	6016
3476.929	6061
3478.641	5960
3480.354	5966
3482.066	5972
3483.777	5949
3485.487	5938
3487.197	5897
3488.908	5922
3490.617	5930
3492.327	5870
3494.035	5854
3495.743	5982
3497.451	5920
3499.158	5890
3500.866	5822
3502.572	5909
3504.278	5806
3505.984	5895
3507.689	5776
3509.396	5879
3511.1	5778
3512.804	5823
3514.508	5882
3516.211	5819
3517.913	5862
3519.616	5795
3521.319	5751
3523.021	5866
3524.722	5831
3526.422	5806
3528.124	5957
3529.824	5773
3531.524	5720
3533.222	5824
3534.921	5712
3536.62	5829
3538.318	5788
3540.016	5765
3541.714	5792
3543.41	5805
3545.107	5742
3546.803	5795
3548.5	5691
3550.194	5681
3551.889	5678
3553.583	5729
3555.279	5727
3556.972	5861
3558.666	5669
3560.358	5726
3562.051	5685
3563.742	5739
3565.435	5731
3567.126	5668
3568.817	5695
3570.507	5610
3572.197	5599
3573.888	5644
3575.577	5688
3577.265	5636
3578.954	5640
3580.642	5623
3582.329	5649
3584.017	5701
3585.704	5716
3587.391	5520
3589.077	5673
3590.762	5601
3592.449	5464
3594.133	5651
3595.817	5575
3597.501	5578
3599.185	5510
3600.869	5565
3602.552	5527
3604.234	5574
3605.916	5593
3607.598	5495
3609.279	5544
3610.961	5444
3612.642	5622
3614.321	5539
3616	5471
3617.68	5509
3619.36	5540
3621.039	5559
3622.716	5371
3624.394	5473
3626.071	5393
3627.748	5354
3629.425	5455
3631.102	5440
3632.778	5388
3634.452	5369
3636.127	5332
3637.803	5438
3639.477	5334
3641.151	5341
3642.823	5318
3644.497	5388
3646.171	5424
3647.842	5433
3649.515	5385
3651.185	5301
3652.857	5364
3654.527	5398
3656.198	5358
3657.868	5399
3659.537	5334
3661.207	5273
3662.875	5405
3664.544	5353
3666.212	5350
3667.879	5365
3669.546	5315
3671.212	5272
3672.88	5275
3674.546	5321
3676.211	5217
3677.875	5373
3679.541	5143
3681.205	5247
3682.87	5278
3684.533	5321
3686.196	5262
3687.859	5320
3689.521	5253
3691.184	5259
3692.845	5263
3694.507	5228
3696.167	5249
3697.827	5179
3699.487	5283
3701.148	5300
3702.808	5189
3704.466	5229
3706.125	5282
3707.783	5242
3709.442	5164
3711.099	5277
3712.757	5274
3714.412	5196
3716.068	5148
3717.725	5295
3719.381	5150
3721.036	5285
3722.689	5179
3724.344	5228
3725.998	5175
3727.652	5184
3729.305	5285
3730.958	5164
3732.61	5100
3734.262	5239
3735.915	5188
3737.565	5270
3739.217	5126
3740.866	5206
3742.516	5132
3744.165	5140
3745.816	5110
3747.464	5239
3749.113	5122
3750.761	5162
3752.409	5221
3754.057	5160
3755.703	5129
3757.35	5159
3758.996	5081
3760.641	5196
3762.289	5033
3763.933	5099
3765.577	5043
3767.222	5114
3768.865	5081
3770.508	5053
3772.152	5103
3773.796	5018
3775.438	5001
3777.079	5017
3778.721	5040
3780.363	5006
3782.003	5061
3783.643	5017
3785.283	5135
3786.923	4949
3788.563	5015
3790.203	5013
3791.841	5034
3793.479	5098
3795.115	5071
3796.753	5022
3798.391	5039
3800.027	5017
3801.664	5037
3803.299	4786
3804.935	4920
3806.571	4945
3808.206	4958
3809.839	4983
3811.473	4938
3813.107	4994
3814.74	4835
3816.375	4944
3818.006	4901
3819.638	4951
3821.27	4944
3822.9	4823
3824.532	4860
3826.163	4922
3827.792	4942
3829.423	5017
3831.051	4891
3832.682	4844
3834.311	4935
3835.938	4889
3837.566	4867
3839.193	4897
3840.821	4884
3842.448	4862
3844.075	4812
3845.7	4929
3847.325	4805
3848.951	4867
3850.576	4760
3852.201	4938
3853.825	4784
3855.448	4837
3857.072	4865
3858.694	4837
3860.318	4689
3861.939	4825
3863.562	4777
3865.183	4832
3866.804	4901
3868.426	4902
3870.045	4796
3871.666	4833
3873.285	4847
3874.904	4758
3876.524	4727
3878.142	4762
3879.76	4812
3881.378	4759
3882.995	4708
3884.612	4734
3886.229	4743
3887.845	4708
3889.461	4798
3891.076	4780
3892.691	4828
3894.307	4746
3895.922	4663
3897.536	4778
3899.149	4803
3900.761	4724
3902.374	4759
3903.988	4831
3905.6	4694
3907.212	4757
3908.822	4701
3910.433	4742
3912.045	4708
3913.655	4704
3915.265	4795
3916.875	4719
3918.483	4679
3920.093	4668
3921.702	4759
3923.309	4680
3924.917	4712
3926.523	4649
3928.13	4708
3929.739	4695
3931.344	4793
3932.95	4641
3934.555	4758
3936.159	4676
3937.766	4683
3939.369	4554
3940.974	4591
3942.577	4596
3944.181	4748
3945.783	4695
3947.386	4714
3948.989	4652
3950.59	4774
3952.191	4654
3953.791	4637
3955.394	4620
3956.994	4665
3958.593	4665
3960.192	4662
3961.791	4601
3963.392	4696
3964.99	4539
3966.588	4631
3968.185	4628
3969.782	4535
3971.379	4555
3972.976	4681
3974.572	4565
3976.168	4617
3977.763	4527
3979.358	4524
3980.954	4599
3982.548	4569
3984.142	4465
3985.736	4545
3987.329	4535
3988.922	4536
3990.516	4477
3992.108	4531
3993.698	4526
3995.29	4538
3996.881	4505
3998.473	4506
4000.064	4492
4001.653	4448
4003.242	4573
4004.832	4438
4006.422	4450
4008.01	4372
4009.598	4377
4011.186	4483
4012.773	4503
4014.36	4434
4015.947	4525
4017.534	4390
4019.119	4462
4020.705	4434
4022.291	4466
4023.876	4343
4025.461	4321
4027.044	4313
4028.627	4456
4030.211	4439
4031.795	4471
4033.378	4397
4034.96	4364
4036.542	4358
4038.124	4425
4039.704	4461
4041.286	4310
4042.867	4382
4044.447	4356
4046.026	4373
4047.606	4273
4049.187	4284
4050.765	4354
4052.343	4354
4053.92	4287
4055.498	4380
4057.076	4349
4058.654	4299
4060.23	4354
4061.806	4360
4063.381	4276
4064.957	4340
4066.533	4308
4068.107	4266
4069.682	4290
4071.256	4257
4072.829	4387
4074.404	4334
4075.977	4292
4077.549	4321
4079.121	4265
4080.693	4335
4082.265	4292
4083.836	4256
4085.407	4339
4086.977	4305
4088.547	4252
4090.117	4284
4091.687	4297
4093.256	4306
4094.825	4247
4096.392	4167
4097.96	4233
4099.528	4216
4101.097	4204
4102.663	4241
4104.229	4146
4105.795	4185
4107.361	4301
4108.928	4213
4110.493	4130
4112.058	4161
4113.621	4278
4115.186	4111
4116.75	4134
4118.313	4132
4119.876	4173
4121.438	4167
4123	4146
4124.562	4145
4126.125	4075
4127.686	4162
4129.246	4116
4130.807	4154
4132.367	4176
4133.927	4165
4135.486	4113
4137.046	4065
4138.604	4139
4140.162	4053
4141.72	4090
4143.279	4218
4144.836	4011
4146.393	4086
4147.949	4056
4149.505	4084
4151.062	4037
4152.617	4024
4154.172	4081
4155.727	4074
4157.281	4085
4158.836	4020
4160.39	4028
4161.943	4058
4163.496	4042
4165.048	4093
4166.601	3986
4168.154	4030
4169.706	4012
4171.257	4041
4172.808	3919
4174.358	3994
4175.909	3953
4177.458	3980
4179.008	3995
4180.558	3997
4182.106	4025
4183.655	4028
4185.204	3942
4186.751	3979
4188.298	3955
4189.845	3863
4191.392	3996
4192.939	3954
4194.485	3951
4196.031	3928
4197.576	4038
4199.121	3898
4200.666	3947
4202.211	3936
4203.754	3921
4205.298	3905
4206.84	3950
4208.384	3902
4209.927	3949
4211.47	3879
4213.011	3941
4214.552	3966
4216.094	3909
4217.635	3895
4219.175	3849
4220.716	3902
4222.255	3888
4223.793	3922
4225.335	3970
4226.873	3966
4228.411	3929
4229.948	3930
4231.486	3862
4233.024	3799
4234.562	3912
4236.098	3832
4237.634	3913
4239.169	3850
4240.705	3921
4242.241	3893
4243.776	3856
4245.31	3820
4246.844	3896
4248.378	3821
4249.911	3876
4251.445	3796
4252.978	3794
4254.51	3851
4256.042	3809
4257.574	3740
4259.107	3764
4260.638	3822
4262.169	3775
4263.699	3875
4265.228	3830
4266.759	3838
4268.289	3778
4269.818	3851
4271.345	3810
4272.874	3748
4274.402	3819
4275.931	3819
4277.458	3742
4278.985	3753
4280.512	3725
4282.037	3665
4283.564	3789
4285.089	3768
4286.615	3816
4288.139	3800
4289.664	3767
4291.187	3588
4292.712	3843
4294.235	3666
4295.759	3761
4297.281	3737
4298.804	3635
4300.327	3728
4301.849	3720
4303.37	3738
4304.891	3710
4306.412	3738
4307.933	3639
4309.453	3715
4310.973	3705
4312.492	3756
