398.1873	4109
400.7097	4037
403.2336	4203
405.7547	4091
408.2751	4048
410.7948	4128
413.3138	4128
415.83	4139
418.3497	4227
420.8666	4204
423.3829	4288
425.8985	4393
428.4133	4400
430.9275	4404
433.441	4310
435.9538	4412
438.4639	4302
440.9753	4404
443.4881	4470
445.9982	4372
448.5055	4337
451.0142	4431
453.5201	4356
456.0274	4386
458.5361	4371
461.04	4395
463.5453	4310
466.0478	4371
468.5517	4308
471.0549	4291
473.5574	4425
476.0572	4480
478.5584	4307
481.0568	4405
483.5545	4464
486.0557	4425
488.5521	4341
491.0478	4422
493.5449	4412
496.0392	4527
498.5349	4465
501.0299	4438
503.5222	4496
506.0139	4505
508.5048	4458
510.9991	4373
513.4887	4509
515.9777	4447
518.4659	4576
520.9534	4458
523.4403	4610
525.9306	4547
528.4161	4514
530.9009	4475
533.3851	4549
535.8687	4449
538.3535	4573
540.8356	4524
543.3171	4530
545.7979	4568
548.278	4521
550.7595	4515
553.2383	4505
555.7144	4578
558.1918	4494
560.6685	4612
563.1446	4615
565.6221	4499
568.0968	4622
570.5688	4639
573.0422	4619
575.515	4802
577.989	4643
580.4584	4793
582.9291	4711
585.3991	4713
587.8685	4797
590.3352	4805
592.8052	4644
595.2706	4696
597.7372	4643
600.2033	4638
602.6666	4703
605.1334	4698
607.5953	4666
610.0587	4611
612.5193	4679
614.9814	4630
617.4427	4575
619.9034	4688
622.3615	4637
624.8208	4626
627.2775	4674
629.7335	4691
632.1929	4528
634.6476	4723
637.1016	4607
639.5569	4691
642.0096	4626
644.4637	4571
646.9151	4641
649.3678	4740
651.8179	4683
654.2672	4777
656.7159	4766
659.166	4739
661.6154	4748
664.0622	4799
666.5082	4788
668.9537	4704
671.4005	4782
673.8445	4782
676.288	4805
678.7308	4826
681.1729	4782
683.6163	4719
686.0572	4816
688.4973	4867
690.9368	4764
693.3757	4709
695.8138	4844
698.2534	4812
700.6902	4788
703.1245	4838
705.56	4908
707.9949	4880
710.4311	4882
712.8647	4865
715.2957	4891
717.7279	4964
720.1595	4933
722.5905	4906
725.0208	4910
727.4505	4924
729.8795	4905
732.3058	4990
734.7336	4964
737.1626	4994
739.587	5058
742.0128	4877
744.4359	5050
746.8604	5051
749.2841	5086
751.7073	5161
754.1278	4993
756.5496	5191
758.9688	5090
761.3893	5035
763.8093	5197
766.2285	5205
768.6451	5086
771.0611	5153
773.4784	5003
775.895	5101
778.3091	5053
780.7244	5139
783.1371	5230
785.5493	5152
787.9626	5266
790.3754	5106
792.7856	5063
795.1951	5082
797.6039	5121
800.0121	5201
802.4236	5197
804.8306	5232
807.2369	5104
809.6425	5157
812.0475	5224
814.4538	5257
816.8575	5281
819.2606	5211
821.663	5268
824.0648	5086
826.4659	5142
828.8683	5259
831.2682	5250
833.6674	5275
836.066	5275
838.4639	5296
840.8632	5244
843.2579	5436
845.6539	5302
848.0493	5160
850.444	5376
852.84	5398
855.2315	5461
857.6243	5427
860.0165	5353
862.4081	5334
864.797	5273
867.1892	5383
869.5789	5354
871.9659	5321
874.3542	5484
876.74	5350
879.129	5300
881.5155	5351
883.8994	5309
886.2845	5410
888.6671	5432
891.051	5370
893.4343	5272
895.8169	5365
898.197	5372
900.5783	5357
902.9571	5270
905.3372	5475
907.7167	5366
910.0936	5349
912.4698	5453
914.8474	5495
917.2244	5520
919.5987	5491
921.9744	5605
924.3475	5553
926.72	5564
929.0918	5565
931.4669	5623
933.8375	5639
936.2074	5642
938.5767	5684
940.9454	5667
943.3154	5759
945.6829	5964
948.0497	6128
950.4178	6258
952.7833	6487
955.1483	6748
957.5145	7014
959.8782	7074
962.2412	7131
964.6036	6886
966.9655	6651
969.3266	6297
971.6871	5972
974.0471	5924
976.4064	5698
978.765	5618
981.125	5585
983.4824	5563
985.8373	5498
988.1935	5520
990.549	5469
992.9039	5513
995.2602	5462
997.6119	5491
999.965	5618
1002.317	5630
1004.667	5556
1007.02	5601
1009.371	5572
1011.719	5473
1014.068	5552
1016.415	5502
1018.765	5541
1021.111	5584
1023.458	5664
1025.804	5564
1028.147	5710
1030.49	5623
1032.837	5704
1035.179	5712
1037.522	5552
1039.862	5666
1042.204	5764
1044.546	5731
1046.884	5709
1049.224	5714
1051.562	5632
1053.899	5654
1056.237	5693
1058.575	5758
1060.91	5825
1063.244	5786
1065.58	5700
1067.913	5859
1070.248	5806
1072.579	5683
1074.911	5810
1077.242	5835
1079.572	5758
1081.905	5738
1084.234	5640
1086.562	5740
1088.89	5692
1091.217	5651
1093.544	5651
1095.871	5595
1098.197	5715
1100.521	5734
1102.845	5643
1105.169	5631
1107.491	5724
1109.814	5700
1112.135	5686
1114.456	5734
1116.776	5660
1119.096	5621
1121.415	5558
1123.734	5555
1126.052	5602
1128.369	5645
1130.686	5586
1133.002	5610
1135.318	5665
1137.632	5694
1139.945	5596
1142.258	5585
1144.573	5640
1146.884	5501
1149.196	5680
1151.505	5717
1153.816	5580
1156.124	5752
1158.435	5582
1160.742	5693
1163.051	5640
1165.356	5595
1167.663	5734
1169.97	5748
1172.276	5619
1174.579	5551
1176.881	5656
1179.186	5694
1181.487	5706
1183.79	5582
1186.092	5533
1188.392	5705
1190.691	5689
1192.991	5647
1195.291	5705
1197.588	5641
1199.885	5709
1202.181	5614
1204.479	5704
1206.775	5685
1209.07	5673
1211.363	5666
1213.656	5677
1215.949	5710
1218.241	5717
1220.534	5648
1222.825	5728
1225.115	5838
1227.405	5669
1229.693	5779
1231.984	5688
1234.271	5934
1236.558	5928
1238.845	5916
1241.131	6009
1243.416	5868
1245.703	5847
1247.987	5940
1250.269	5932
1252.552	5942
1254.834	5951
1257.118	5935
1259.399	5916
1261.678	5893
1263.958	5867
1266.237	5889
1268.516	5900
1270.794	5903
1273.072	5890
1275.347	6011
1277.624	5828
1279.899	5783
1282.175	5982
1284.449	5861
1286.722	5826
1288.995	5932
1291.266	5849
1293.54	5755
1295.81	5908
1298.081	5823
1300.35	5794
1302.62	5753
1304.889	5820
1307.156	5857
1309.425	5791
1311.69	5744
1313.957	5775
1316.222	5795
1318.488	5822
1320.751	5852
1323.016	5945
1325.278	5800
1327.54	5833
1329.803	5902
1332.065	5837
1334.325	5744
1336.584	5822
1338.843	5791
1341.101	5924
1343.36	6005
1345.617	5787
1347.876	5890
1350.131	5752
1352.387	5890
1354.643	5794
1356.897	5878
1359.151	5832
1361.403	5845
1363.656	5900
1365.909	5763
1368.16	5841
1370.409	5750
1372.659	5790
1374.909	5940
1377.157	5849
1379.407	5811
1381.655	5900
1383.9	5895
1386.147	5904
1388.393	5928
1390.64	5927
1392.885	6011
1395.127	5950
1397.37	5849
1399.614	5942
1401.854	6004
1404.098	5925
1406.339	5881
1408.578	5910
1410.818	5993
1413.056	5876
1415.297	5997
1417.533	6008
1419.771	6050
1422.006	6053
1424.243	5967
1426.479	5970
1428.715	6008
1430.948	6074
1433.182	6071
1435.414	5989
1437.647	5992
1439.88	6178
1442.11	6136
1444.342	6063
1446.571	6061
1448.799	6170
1451.029	6093
1453.258	6229
1455.485	6249
1457.711	6170
1459.937	6013
1462.164	6201
1464.39	6114
1466.614	6029
1468.838	6066
1471.06	6014
1473.283	6069
1475.506	6112
1477.727	5999
1479.949	5978
1482.169	5935
1484.389	5887
1486.609	5927
1488.828	5974
1491.045	6015
1493.261	5820
1495.477	5890
1497.693	5875
1499.91	5935
1502.125	5858
1504.339	5893
1506.553	5757
1508.766	5896
1510.979	5828
1513.191	5853
1515.402	5912
1517.613	5756
1519.823	5782
1522.033	5897
1524.242	5880
1526.451	5715
1528.657	5833
1530.865	5988
1533.072	5818
1535.278	5826
1537.484	5930
1539.687	5902
1541.892	5857
1544.096	5850
1546.299	5873
1548.502	5937
1550.703	5849
1552.905	5924
1555.104	5798
1557.303	6014
1559.505	5938
1561.703	5848
1563.902	5940
1566.099	6013
1568.295	5978
1570.494	5999
1572.689	5915
1574.883	6061
1577.079	6024
1579.272	5985
1581.467	6035
1583.659	6001
1585.853	6087
1588.044	5992
1590.234	5986
1592.424	6075
1594.615	6071
1596.806	6091
1598.994	6055
1601.182	6157
1603.369	6081
1605.557	6030
1607.744	5964
1609.929	6090
1612.114	6053
1614.298	6119
1616.482	6014
1618.667	6035
1620.85	6201
1623.032	6132
1625.214	6190
1627.395	6213
1629.575	6177
1631.755	6071
1633.935	6191
1636.114	6055
1638.292	6202
1640.471	6037
1642.647	6166
1644.823	6157
1647	6179
1649.175	6202
1651.348	6155
1653.525	6197
1655.698	6245
1657.87	6320
1660.043	6230
1662.213	6171
1664.387	6304
1666.558	6205
1668.727	6354
1670.896	6299
1673.064	6131
1675.233	6222
1677.401	6274
1679.569	6174
1681.735	6291
1683.902	6208
1686.066	6121
1688.233	6217
1690.397	6236
1692.559	6210
1694.723	6179
1696.885	6212
1699.048	6150
1701.21	6142
1703.37	6149
1705.53	6138
1707.689	6038
1709.849	6059
1712.009	6015
1714.166	6165
1716.323	6148
1718.479	5993
1720.634	6101
1722.793	6175
1724.948	6195
1727.102	6028
1729.255	6119
1731.408	6010
1733.562	6102
1735.714	6045
1737.865	6070
1740.016	6119
1742.166	6030
1744.316	6095
1746.467	6056
1748.616	6094
1750.764	6132
1752.911	6045
1755.056	6091
1757.205	5995
1759.35	6135
1761.496	6080
1763.641	5979
1765.785	6001
1767.927	6128
1770.072	6118
1772.214	6010
1774.355	6175
1776.496	6265
1778.637	6141
1780.778	6054
1782.918	6122
1785.057	6048
1787.194	6094
1789.333	6213
1791.472	6131
1793.608	6154
1795.745	6250
1797.879	6157
1800.015	6213
1802.148	6012
1804.284	6196
1806.417	6195
1808.548	6150
1810.682	6192
1812.812	6263
1814.946	6092
1817.075	6166
1819.205	6234
1821.335	6089
1823.463	5997
1825.59	6144
1827.721	6244
1829.847	6174
1831.973	6117
1834.098	6223
1836.223	6048
1838.351	6186
1840.475	6103
1842.598	6174
1844.721	6265
1846.843	6036
1848.966	6035
1851.087	5985
1853.21	6219
1855.33	6130
1857.449	6153
1859.568	5991
1861.688	6025
1863.806	6074
1865.924	6098
1868.039	6242
1870.155	6018
1872.273	6096
1874.388	6069
1876.503	6139
1878.617	6155
1880.73	6131
1882.844	6027
1884.956	6099
1887.068	6043
1889.18	6150
1891.291	6075
1893.4	6162
1895.511	6143
1897.621	6085
1899.73	6215
1901.837	6111
1903.944	6379
1906.053	6133
1908.159	6233
1910.265	6240
1912.369	6119
1914.474	6149
1916.577	6229
1918.683	6122
1920.785	6283
1922.888	6233
1924.989	6198
1927.091	6265
1929.193	6153
1931.294	6239
1933.393	6267
1935.493	6337
1937.59	6248
1939.689	6210
1941.788	6290
1943.884	6217
1945.98	6254
1948.077	6302
1950.171	6272
1952.267	6282
1954.361	6182
1956.455	6210
1958.548	6260
1960.64	6251
1962.733	6216
1964.824	6220
1966.915	6285
1969.005	6187
1971.096	6220
1973.185	6180
1975.275	6222
1977.363	6174
1979.45	6166
1981.537	6285
1983.623	6364
1985.711	6296
1987.796	6321
1989.881	6101
1991.965	6309
1994.047	6145
1996.132	6217
1998.215	6178
2000.297	6161
2002.378	6225
2004.46	6119
2006.54	6172
2008.62	6190
2010.7	6193
2012.779	6192
2014.858	6202
2016.934	6043
2019.013	6187
2021.09	6210
2023.165	6057
2025.241	6222
2027.317	6099
2029.39	6253
2031.466	6286
2033.538	6240
2035.612	6173
2037.683	6189
2039.755	6105
2041.827	6189
2043.898	6225
2045.968	6197
2048.038	6184
2050.106	6237
2052.177	6257
2054.244	6220
2056.313	6115
2058.379	6132
2060.444	6147
2062.511	6104
2064.577	6239
2066.641	6268
2068.705	6236
2070.77	6248
2072.832	6248
2074.896	6220
2076.958	6274
2079.02	6225
2081.081	6238
2083.141	6193
2085.2	6275
2087.261	6260
2089.319	6236
2091.377	6111
2093.435	6234
2095.492	6187
2097.552	6158
2099.607	6185
2101.663	6275
2103.718	6186
2105.771	6164
2107.826	6208
2109.879	6221
2111.932	6141
2113.985	6280
2116.037	6154
2118.088	6276
2120.141	6222
2122.191	6121
2124.239	6201
2126.288	6164
2128.337	6216
2130.387	6190
2132.434	6295
2134.481	6232
2136.528	6281
2138.574	6266
2140.618	6078
2142.665	6206
2144.71	6174
2146.753	6296
2148.797	6175
2150.838	6215
2152.883	6322
2154.923	6169
2156.965	6151
2159.007	6278
2161.046	6191
2163.086	6017
2165.126	6195
2167.163	6256
2169.202	6189
2171.239	6094
2173.277	6185
2175.314	6089
2177.349	6154
2179.385	6196
2181.42	6084
2183.453	6089
2185.49	6018
2187.522	6184
2189.555	6133
2191.586	6117
2193.619	6020
2195.651	6140
2197.682	6029
2199.711	6043
2201.74	6026
2203.769	6093
2205.799	6029
2207.828	6066
2209.855	6039
2211.882	6027
2213.908	6101
2215.934	6003
2217.961	6052
2219.986	6056
2222.01	6031
2224.034	5944
2226.057	6125
2228.08	6116
2230.104	5978
2232.124	6118
2234.145	5989
2236.166	6028
2238.186	5918
2240.207	5997
2242.227	6183
2244.244	6091
2246.262	6115
2248.28	6110
2250.299	5958
2252.314	5943
2254.33	6072
2256.346	5986
2258.36	6057
2260.375	6010
2262.391	6178
2264.403	6137
2266.416	6043
2268.427	6092
2270.44	6074
2272.453	6073
2274.463	6040
2276.474	6053
2278.483	6001
2280.493	6145
2282.501	5953
2284.51	6009
2286.518	6064
2288.524	6029
2290.532	6068
2292.537	6083
2294.544	6004
2296.55	6104
2298.554	6031
2300.557	6116
2302.562	6120
2304.566	5942
2306.568	6009
2308.569	5994
2310.572	6018
2312.573	5976
2314.573	6048
2316.574	6011
2318.573	5996
2320.571	6105
2322.571	6039
2324.569	5998
2326.567	6040
2328.564	5994
2330.56	5942
2332.556	6082
2334.551	5832
2336.546	5898
2338.542	6016
2340.535	6108
2342.529	5953
2344.521	5953
2346.512	5931
2348.505	5945
2350.497	6005
2352.487	5954
2354.478	5881
2356.468	5916
2358.457	5978
2360.446	5907
2362.434	5943
2364.422	5977
2366.408	5997
2368.395	5959
2370.383	5947
2372.369	5956
2374.353	6014
2376.338	5924
2378.321	5954
2380.307	5852
2382.29	5890
2384.272	5952
2386.254	5835
2388.235	5967
2390.218	5891
2392.198	5843
2394.179	5773
2396.157	5901
2398.137	5983
2400.115	5899
2402.095	5900
2404.072	5891
2406.048	5949
2408.026	5817
2410.001	5921
2411.977	5920
2413.953	5943
2415.927	5887
2417.9	5946
2419.875	5800
2421.847	5930
2423.821	5835
2425.792	5914
2427.763	5875
2429.736	5811
2431.706	5918
2433.677	5895
2435.646	5917
2437.615	5911
2439.583	5704
2441.551	5921
2443.519	5945
2445.486	5933
2447.452	5858
2449.418	5801
2451.383	5837
2453.348	5790
2455.314	5807
2457.278	5844
2459.241	5849
2461.205	5884
2463.167	5842
2465.131	5844
2467.091	5767
2469.052	5909
2471.012	5861
2472.972	5773
2474.932	5726
2476.891	5832
2478.85	5985
2480.808	5820
2482.766	5812
2484.722	5754
2486.68	5779
2488.636	5881
2490.591	5722
2492.546	5669
2494.5	5814
2496.456	5844
2498.41	5782
2500.362	5823
2502.315	5736
2504.266	5700
2506.218	5798
2508.169	5798
2510.121	5798
2512.07	5734
2514.019	5740
2515.968	5800
2517.918	5759
2519.866	5703
2521.813	5663
2523.76	5836
2525.707	5767
2527.653	5726
2529.599	5773
2531.543	5848
2533.489	5749
2535.433	5829
2537.376	5795
2539.32	5786
2541.264	5789
2543.205	5712
2545.147	5812
2547.087	5862
2549.029	5837
2550.969	5675
2552.908	5809
2554.847	5725
2556.786	5762
2558.724	5716
2560.663	5747
2562.6	5826
2564.537	5872
2566.473	5760
2568.408	5683
2570.345	5745
2572.28	5870
2574.214	5715
2576.148	5761
2578.081	5700
2580.014	5749
2581.947	5856
2583.879	5776
2585.81	5729
2587.741	5820
2589.67	5788
2591.602	5823
2593.532	5933
2595.461	5781
2597.388	5852
2599.316	5843
2601.244	5665
2603.172	5802
2605.098	5819
2607.023	5830
2608.949	5692
2610.873	5846
2612.8	5869
2614.723	5728
2616.647	5823
2618.569	5919
2620.493	5785
2622.416	5783
2624.338	5741
2626.258	5672
2628.179	5890
2630.099	5808
2632.019	5858
2633.939	5745
2635.857	5748
2637.775	5758
2639.694	5842
2641.61	5860
2643.528	5751
2645.444	5859
2647.361	5775
2649.276	5776
2651.19	5771
2653.105	5772
2655.019	5718
2656.934	5870
2658.846	5715
2660.758	5810
2662.67	5875
2664.583	5790
2666.493	5841
2668.404	5767
2670.313	5884
2672.223	5832
2674.134	5830
2676.042	5749
2677.95	5778
2679.858	5886
2681.765	5666
2683.673	5632
2685.579	5721
2687.483	5707
2689.389	5731
2691.294	5736
2693.198	5774
2695.104	5935
2697.006	5685
2698.909	5799
2700.811	5681
2702.713	5735
2704.615	5684
2706.516	5719
2708.417	5661
2710.316	5676
2712.216	5795
2714.115	5712
2716.014	5745
2717.913	5739
2719.81	5768
2721.707	5635
2723.603	5780
2725.501	5691
2727.396	5707
2729.292	5726
2731.186	5771
2733.081	5686
2734.976	5672
2736.87	5714
2738.762	5788
2740.653	5632
2742.546	5714
2744.437	5646
2746.329	5671
2748.22	5658
2750.11	5630
2751.999	5674
2753.889	5660
2755.778	5718
2757.666	5683
2759.553	5771
2761.44	5639
2763.328	5663
2765.215	5753
2767.101	5641
2768.986	5580
2770.87	5630
2772.754	5645
2774.638	5645
2776.523	5696
2778.405	5659
2780.288	5712
2782.17	5575
2784.051	5641
2785.934	5625
2787.814	5680
2789.694	5616
2791.574	5619
2793.453	5618
2795.332	5661
2797.212	5640
2799.088	5554
2800.966	5661
2802.843	5584
2804.719	5544
2806.597	5628
2808.471	5648
2810.346	5512
2812.221	5571
2814.094	5607
2815.969	5626
2817.843	5600
2819.714	5616
2821.587	5515
2823.459	5602
2825.329	5599
2827.202	5573
2829.072	5529
2830.942	5632
2832.811	5612
2834.68	5690
2836.549	5691
2838.418	5653
2840.284	5551
2842.152	5612
2844.018	5603
2845.885	5626
2847.751	5716
2849.616	5649
2851.482	5613
2853.345	5743
2855.208	5692
2857.074	5727
2858.937	5648
2860.799	5729
2862.66	5809
2864.522	5747
2866.385	5649
2868.245	5692
2870.104	5831
2871.964	5878
2873.824	5842
2875.683	6008
2877.542	6049
2879.4	6009
2881.257	6018
2883.114	6176
2884.97	6039
2886.827	6097
2888.683	6146
2890.537	6101
2892.392	6110
2894.246	6085
2896.1	5974
2897.954	6111
2899.807	5921
2901.66	6053
2903.51	6012
2905.362	6053
2907.214	6121
2909.065	6047
2910.915	6128
2912.765	6257
2914.613	6120
2916.463	6259
2918.311	6324
2920.158	6250
2922.006	6344
2923.853	6350
2925.698	6411
2927.546	6499
2929.392	6670
2931.236	6627
2933.081	6755
2934.924	6760
2936.77	6823
2938.613	6762
2940.455	6882
2942.298	6883
2944.139	6630
2945.982	6928
2947.823	6864
2949.662	6822
2951.503	6754
2953.342	6666
2955.182	6651
2957.021	6445
2958.858	6492
2960.697	6417
2962.534	6408
2964.37	6435
2966.207	6321
2968.044	6281
2969.879	6225
2971.714	6206
2973.548	6238
2975.383	6154
2977.218	6074
2979.051	6239
2980.883	6205
2982.715	6219
2984.547	6258
2986.379	6345
2988.21	6007
2990.04	6091
2991.87	6061
2993.7	6014
2995.53	5968
2997.359	5955
2999.187	5866
3001.015	5792
3002.842	5769
3004.669	5825
3006.497	5768
3008.323	5614
3010.148	5583
3011.974	5535
3013.797	5541
3015.623	5539
3017.447	5528
3019.27	5439
3021.094	5605
3022.915	5591
3024.737	5489
3026.56	5547
3028.38	5399
3030.201	5386
3032.022	5343
3033.84	5365
3035.662	5364
3037.481	5405
3039.298	5457
3041.117	5367
3042.933	5384
3044.752	5405
3046.568	5298
3048.385	5327
3050.2	5364
3052.016	5286
3053.83	5364
3055.646	5423
3057.46	5367
3059.272	5404
3061.086	5245
3062.898	5408
3064.711	5394
3066.524	5360
3068.335	5212
3070.145	5307
3071.956	5373
3073.766	5244
3075.576	5332
3077.385	5403
3079.193	5286
3081.002	5284
3082.81	5257
3084.618	5241
3086.425	5249
3088.231	5338
3090.036	5300
3091.842	5249
3093.648	5290
3095.452	5237
3097.257	5327
3099.06	5271
3100.863	5190
3102.666	5190
3104.47	5225
3106.272	5176
3108.073	5225
3109.875	5156
3111.676	5225
3113.477	5259
3115.277	5224
3117.077	5241
3118.874	5144
3120.673	5161
3122.473	5138
3124.271	5191
3126.066	5257
3127.863	5186
3129.66	5225
3131.456	5202
3133.252	5177
3135.047	5195
3136.842	5124
3138.635	5135
3140.429	5129
3142.223	5088
3144.016	5071
3145.808	5115
3147.6	5168
3149.392	5059
3151.183	5099
3152.975	5053
3154.765	5048
3156.553	5145
3158.344	5113
3160.132	5211
3161.922	5053
3163.71	5023
3165.497	5167
3167.285	5178
3169.071	5125
3170.858	5038
3172.645	5098
3174.429	5116
3176.214	5051
3177.998	4988
3179.783	4999
3181.568	5103
3183.351	5085
3185.133	5133
3186.915	5034
3188.698	5102
3190.481	5005
3192.261	5081
3194.042	5039
3195.822	5119
3197.601	4951
3199.381	5084
3201.161	5053
3202.939	5050
3204.717	4999
3206.495	5076
3208.272	5056
3210.05	5008
3211.826	5017
3213.602	5044
3215.376	5114
3217.151	5075
3218.927	5057
3220.702	5003
3222.476	5021
3224.249	5025
3226.021	5005
3227.793	5058
3229.567	5012
3231.339	5001
3233.109	5013
3234.88	5036
3236.651	5011
3238.421	4975
3240.191	5032
3241.96	4966
3243.728	5131
3245.497	4959
3247.263	5018
3249.033	5006
3250.799	5014
3252.566	5073
3254.331	5054
3256.097	5006
3257.863	5001
3259.628	4963
3261.392	5038
3263.156	4885
3264.919	4938
3266.683	4990
3268.447	5048
3270.208	5093
3271.969	5012
3273.731	4984
3275.492	4974
3277.253	5100
3279.013	4899
3280.773	5024
3282.532	5022
3284.291	5040
3286.05	5038
3287.808	4986
3289.566	5040
3291.323	5053
3293.079	5035
3294.835	5047
3296.593	4986
3298.348	4976
3300.102	5055
3301.857	5017
3303.611	4980
3305.366	5111
3307.119	5042
3308.872	5054
3310.624	4970
3312.376	4929
3314.129	4967
3315.881	5012
3317.631	5012
3319.38	5125
3321.13	4947
3322.88	4949
3324.631	5028
3326.379	5048
3328.126	5006
3329.875	4988
3331.622	4998
3333.371	5002
3335.116	5026
3336.863	4997
3338.609	4980
3340.353	5073
3342.1	5004
3343.845	5104
3345.588	4949
3347.332	4918
3349.074	4978
3350.817	5005
3352.56	4936
3354.303	4970
3356.043	4962
3357.785	4944
3359.525	4985
3361.268	4915
3363.007	4909
3364.745	4877
3366.485	4814
3368.223	4893
3369.962	4864
3371.701	4948
3373.438	4864
3375.174	4919
3376.911	4909
3378.647	4889
3380.384	4917
3382.118	4875
3383.854	4839
3385.588	4897
3387.322	4887
3389.057	4905
3390.79	4866
3392.522	4806
3394.255	4806
3395.987	4906
3397.719	4889
3399.451	4882
3401.181	4815
3402.911	4836
3404.641	4895
3406.371	4817
3408.101	4884
3409.83	4902
3411.558	4882
3413.285	4757
3415.011	4866
3416.739	4893
3418.467	4831
3420.193	4763
3421.919	4698
3423.644	4820
3425.368	4691
3427.094	4779
3428.818	4807
3430.542	4861
3432.264	4677
3433.987	4743
3435.712	4685
3437.434	4761
3439.155	4745
3440.876	4713
3442.596	4680
3444.317	4719
3446.039	4720
3447.757	4695
3449.477	4779
3451.195	4786
3452.914	4686
3454.632	4716
3456.35	4722
3458.067	4581
3459.784	4675
3461.5	4641
3463.216	4641
3464.932	4649
3466.647	4767
3468.362	4694
3470.076	4648
3471.789	4761
3473.505	4724
3475.217	4483
3476.929	4640
3478.641	4683
3480.354	4679
3482.066	4659
3483.777	4610
3485.487	4587
3487.197	4587
3488.908	4563
3490.617	4608
3492.327	4556
3494.035	4612
3495.743	4568
3497.451	4539
3499.158	4522
3500.866	4520
3502.572	4421
3504.278	4581
3505.984	4539
3507.689	4602
3509.396	4555
3511.1	4555
3512.804	4532
3514.508	4545
3516.211	4514
3517.913	4510
3519.616	4430
3521.319	4506
3523.021	4446
3524.722	4466
3526.422	4475
3528.124	4536
3529.824	4431
3531.524	4435
3533.222	4458
3534.921	4494
3536.62	4450
3538.318	4409
3540.016	4344
3541.714	4509
3543.41	4387
3545.107	4438
3546.803	4451
3548.5	4423
3550.194	4538
3551.889	4452
3553.583	4359
3555.279	4418
3556.972	4406
3558.666	4302
3560.358	4422
3562.051	4456
3563.742	4390
3565.435	4341
3567.126	4390
3568.817	4403
3570.507	4443
3572.197	4327
3573.888	4371
3575.577	4324
3577.265	4360
3578.954	4373
3580.642	4408
3582.329	4374
3584.017	4335
3585.704	4422
3587.391	4338
3589.077	4396
3590.762	4316
3592.449	4365
3594.133	4358
3595.817	4217
3597.501	4269
3599.185	4275
3600.869	4266
3602.552	4289
3604.234	4296
3605.916	4311
3607.598	4244
3609.279	4204
3610.961	4253
3612.642	4223
3614.321	4217
3616	4207
3617.68	4176
3619.36	4213
3621.039	4228
3622.716	4177
3624.394	4222
3626.071	4238
3627.748	4205
3629.425	4203
3631.102	4157
3632.778	4160
3634.452	4144
3636.127	4186
3637.803	4092
3639.477	4141
3641.151	4098
3642.823	4175
3644.497	4141
3646.171	4101
3647.842	4221
3649.515	4140
3651.185	4160
3652.857	4109
3654.527	4136
3656.198	4046
3657.868	4073
3659.537	4161
3661.207	4092
3662.875	4038
3664.544	4116
3666.212	4114
3667.879	4086
3669.546	4148
3671.212	4044
3672.88	4070
3674.546	3971
3676.211	3989
3677.875	4116
3679.541	4056
3681.205	3987
3682.87	4095
3684.533	3993
3686.196	4007
3687.859	4058
3689.521	3999
3691.184	4107
3692.845	4056
3694.507	4025
3696.167	3981
3697.827	4059
3699.487	4021
3701.148	4011
3702.808	4072
3704.466	4005
3706.125	4012
3707.783	3972
3709.442	4063
3711.099	4023
3712.757	3979
3714.412	3967
3716.068	4014
3717.725	3898
3719.381	3909
3721.036	4023
3722.689	4002
3724.344	3931
3725.998	3948
3727.652	3870
3729.305	3999
3730.958	3968
3732.61	3915
3734.262	4026
3735.915	4053
3737.565	3917
3739.217	3965
3740.866	3994
3742.516	3926
3744.165	3893
3745.816	3985
3747.464	3995
3749.113	4019
3750.761	3966
3752.409	3936
3754.057	3868
3755.703	3961
3757.35	3873
3758.996	3904
3760.641	3944
3762.289	3867
3763.933	3972
3765.577	3923
3767.222	3929
3768.865	3895
3770.508	3773
3772.152	3956
3773.796	3827
3775.438	3927
3777.079	3898
3778.721	3892
3780.363	3828
3782.003	3895
3783.643	3825
3785.283	3930
3786.923	3934
3788.563	3799
3790.203	3838
3791.841	3820
3793.479	3834
3795.115	3985
3796.753	3925
3798.391	3866
3800.027	3828
3801.664	3842
3803.299	3840
3804.935	3870
3806.571	3787
3808.206	3794
3809.839	3841
3811.473	3779
3813.107	3749
3814.74	3806
3816.375	3751
3818.006	3741
3819.638	3758
3821.27	3833
3822.9	3736
3824.532	3724
3826.163	3810
3827.792	3863
3829.423	3666
3831.051	3827
3832.682	3715
3834.311	3724
3835.938	3770
3837.566	3709
3839.193	3737
3840.821	3690
3842.448	3745
3844.075	3711
3845.7	3732
3847.325	3697
3848.951	3668
3850.576	3762
3852.201	3743
3853.825	3725
3855.448	3708
3857.072	3805
3858.694	3719
3860.318	3645
3861.939	3691
3863.562	3721
3865.183	3723
3866.804	3590
3868.426	3711
3870.045	3658
3871.666	3708
3873.285	3695
3874.904	3689
3876.524	3754
3878.142	3686
3879.76	3688
3881.378	3723
3882.995	3617
3884.612	3654
3886.229	3655
3887.845	3658
3889.461	3690
3891.076	3618
3892.691	3666
3894.307	3632
3895.922	3612
3897.536	3700
3899.149	3652
3900.761	3701
3902.374	3600
3903.988	3685
3905.6	3622
3907.212	3645
3908.822	3642
3910.433	3686
3912.045	3648
3913.655	3641
3915.265	3643
3916.875	3597
3918.483	3665
3920.093	3611
3921.702	3652
3923.309	3594
3924.917	3651
3926.523	3594
3928.13	3653
3929.739	3607
3931.344	3687
3932.95	3531
3934.555	3636
3936.159	3529
3937.766	3561
3939.369	3544
3940.974	3626
3942.577	3562
3944.181	3582
3945.783	3566
3947.386	3529
3948.989	3567
3950.59	3577
3952.191	3546
3953.791	3664
3955.394	3565
3956.994	3537
3958.593	3586
3960.192	3557
3961.791	3469
3963.392	3627
3964.99	3465
3966.588	3538
3968.185	3595
3969.782	3583
3971.379	3486
3972.976	3591
3974.572	3515
3976.168	3442
3977.763	3424
3979.358	3529
3980.954	3361
3982.548	3456
3984.142	3423
3985.736	3417
3987.329	3562
3988.922	3545
3990.516	3468
3992.108	3512
3993.698	3527
3995.29	3572
3996.881	3469
3998.473	3514
4000.064	3499
4001.653	3474
4003.242	3364
4004.832	3520
4006.422	3420
4008.01	3407
4009.598	3484
4011.186	3449
4012.773	3446
4014.36	3480
4015.947	3391
4017.534	3464
4019.119	3395
4020.705	3357
4022.291	3367
4023.876	3360
4025.461	3385
4027.044	3420
4028.627	3357
4030.211	3341
4031.795	3383
4033.378	3345
4034.96	3450
4036.542	3342
4038.124	3327
4039.704	3380
4041.286	3345
4042.867	3355
4044.447	3360
4046.026	3349
4047.606	3273
4049.187	3376
4050.765	3360
4052.343	3315
4053.92	3374
4055.498	3296
4057.076	3258
4058.654	3357
4060.23	3364
4061.806	3329
4063.381	3309
4064.957	3310
4066.533	3300
4068.107	3302
4069.682	3303
4071.256	3337
4072.829	3268
4074.404	3324
4075.977	3262
4077.549	3325
4079.121	3291
4080.693	3277
4082.265	3257
4083.836	3304
4085.407	3316
4086.977	3300
4088.547	3266
4090.117	3260
4091.687	3258
4093.256	3262
4094.825	3276
4096.392	3255
4097.96	3267
4099.528	3277
4101.097	3275
4102.663	3259
4104.229	3225
4105.795	3302
4107.361	3246
4108.928	3249
4110.493	3217
4112.058	3170
4113.621	3167
4115.186	3254
4116.75	3279
4118.313	3235
4119.876	3197
4121.438	3123
4123	3191
4124.562	3184
4126.125	3223
4127.686	3159
4129.246	3210
4130.807	3120
4132.367	3188
4133.927	3235
4135.486	3087
4137.046	3165
4138.604	3122
4140.162	3158
4141.72	3141
4143.279	3168
4144.836	3160
4146.393	3146
4147.949	3093
4149.505	3126
4151.062	3142
4152.617	3109
4154.172	3101
4155.727	3044
4157.281	3075
4158.836	3088
4160.39	3108
4161.943	3141
4163.496	3154
4165.048	3020
4166.601	3071
4168.154	3101
4169.706	3059
4171.257	3162
4172.808	3004
4174.358	3073
4175.909	2984
4177.458	3041
4179.008	3117
4180.558	3097
4182.106	3132
4183.655	3132
4185.204	3031
4186.751	3055
4188.298	3060
4189.845	3019
4191.392	3034
4192.939	3039
4194.485	3030
4196.031	3027
4197.576	3082
4199.121	3003
4200.666	3058
4202.211	3092
4203.754	2959
4205.298	2979
4206.84	2944
4208.384	3045
4209.927	3004
4211.47	2978
4213.011	2931
4214.552	2977
4216.094	3034
4217.635	3020
4219.175	3025
4220.716	2981
4222.255	2957
4223.793	3005
4225.335	3002
4226.873	2942
4228.411	2997
4229.948	2969
4231.486	2964
4233.024	3014
4234.562	2929
4236.098	3027
4237.634	2974
4239.169	2919
4240.705	3035
4242.241	3069
4243.776	2975
4245.31	2969
4246.844	2978
4248.378	2984
4249.911	2994
4251.445	2958
4252.978	2924
4254.51	2878
4256.042	2953
4257.574	2954
4259.107	2997
4260.638	2936
4262.169	2951
4263.699	2927
4265.228	2895
4266.759	2886
4268.289	2963
4269.818	2936
4271.345	2882
4272.874	2874
4274.402	2914
4275.931	2874
4277.458	2937
4278.985	2890
4280.512	2902
4282.037	2935
4283.564	2974
4285.089	2907
4286.615	2943
4288.139	2919
4289.664	2949
4291.187	2846
4292.712	2849
4294.235	2965
4295.759	2893
4297.281	2930
4298.804	2873
4300.327	2788
4301.849	2853
4303.37	2839
4304.891	2921
4306.412	2884
4307.933	2923
4309.453	2932
4310.973	2781
4312.492	2900
