398.1873	5733
400.7097	5875
403.2336	5813
405.7547	5852
408.2751	5930
410.7948	5861
413.3138	5939
415.83	5956
418.3497	5904
420.8666	5986
423.3829	6194
425.8985	6039
428.4133	6181
430.9275	6120
433.441	6266
435.9538	6238
438.4639	6282
440.9753	6195
443.4881	6270
445.9982	6257
448.5055	6262
451.0142	6176
453.5201	6244
456.0274	6304
458.5361	6269
461.04	6298
463.5453	6232
466.0478	6247
468.5517	6304
471.0549	6172
473.5574	6266
476.0572	6310
478.5584	6333
481.0568	6242
483.5545	6278
486.0557	6256
488.5521	6355
491.0478	6317
493.5449	6274
496.0392	6365
498.5349	6412
501.0299	6370
503.5222	6519
506.0139	6362
508.5048	6428
510.9991	6442
513.4887	6531
515.9777	6568
518.4659	6376
520.9534	6492
523.4403	6520
525.9306	6549
528.4161	6475
530.9009	6516
533.3851	6523
535.8687	6639
538.3535	6575
540.8356	6557
543.3171	6435
545.7979	6408
548.278	6486
550.7595	6654
553.2383	6584
555.7144	6637
558.1918	6572
560.6685	6771
563.1446	6576
565.6221	6644
568.0968	6581
570.5688	6576
573.0422	6800
575.515	6776
577.989	6783
580.4584	6843
582.9291	6641
585.3991	6742
587.8685	6731
590.3352	6807
592.8052	6888
595.2706	6742
597.7372	6795
600.2033	6797
602.6666	6820
605.1334	6769
607.5953	6720
610.0587	6771
612.5193	6704
614.9814	6773
617.4427	6684
619.9034	6702
622.3615	6729
624.8208	6760
627.2775	6724
629.7335	6666
632.1929	6647
634.6476	6807
637.1016	6832
639.5569	6868
642.0096	6803
644.4637	6908
646.9151	6767
649.3678	6706
651.8179	6732
654.2672	6862
656.7159	6867
659.166	6904
661.6154	6903
664.0622	7000
666.5082	6938
668.9537	6875
671.4005	6911
673.8445	6924
676.288	6904
678.7308	6979
681.1729	7065
683.6163	6991
686.0572	6831
688.4973	7091
690.9368	6998
693.3757	7037
695.8138	7057
698.2534	7093
700.6902	7059
703.1245	7008
705.56	7011
707.9949	7002
710.4311	7094
712.8647	7119
715.2957	7180
717.7279	7222
720.1595	7085
722.5905	7236
725.0208	7225
727.4505	7202
729.8795	7225
732.3058	7293
734.7336	7340
737.1626	7333
739.587	7193
742.0128	7295
744.4359	7325
746.8604	7270
749.2841	7464
751.7073	7442
754.1278	7393
756.5496	7373
758.9688	7372
761.3893	7301
763.8093	7422
766.2285	7514
768.6451	7510
771.0611	7568
773.4784	7616
775.895	7466
778.3091	7415
780.7244	7488
783.1371	7626
785.5493	7567
787.9626	7534
790.3754	7454
792.7856	7554
795.1951	7488
797.6039	7546
800.0121	7549
802.4236	7433
804.8306	7702
807.2369	7510
809.6425	7679
812.0475	7690
814.4538	7754
816.8575	7557
819.2606	7667
821.663	7704
824.0648	7695
826.4659	7618
828.8683	7618
831.2682	7628
833.6674	7655
836.066	7667
838.4639	7649
840.8632	7760
843.2579	7750
845.6539	7645
848.0493	7739
850.444	7715
852.84	7687
855.2315	7757
857.6243	7833
860.0165	7635
862.4081	7655
864.797	7757
867.1892	7717
869.5789	7723
871.9659	7786
874.3542	7721
876.74	7778
879.129	7740
881.5155	7673
883.8994	7701
886.2845	7724
888.6671	7740
891.051	7684
893.4343	7634
895.8169	7759
898.197	7609
900.5783	7675
902.9571	7739
905.3372	7789
907.7167	7892
910.0936	7698
912.4698	7787
914.8474	7914
917.2244	7955
919.5987	7920
921.9744	7974
924.3475	7948
926.72	8032
929.0918	7922
931.4669	8069
933.8375	8151
936.2074	8005
938.5767	8182
940.9454	8183
943.3154	8370
945.6829	8393
948.0497	8506
950.4178	8590
952.7833	8862
955.1483	9050
957.5145	9322
959.8782	9490
962.2412	9402
964.6036	9259
966.9655	8901
969.3266	8767
971.6871	8562
974.0471	8364
976.4064	8123
978.765	8130
981.125	8093
983.4824	8029
985.8373	7988
988.1935	7959
990.549	8083
992.9039	8047
995.2602	8013
997.6119	7886
999.965	8107
1002.317	8055
1004.667	8047
1007.02	8040
1009.371	7890
1011.719	7979
1014.068	8080
1016.415	8032
1018.765	8019
1021.111	8053
1023.458	8105
1025.804	8115
1028.147	8012
1030.49	8178
1032.837	8079
1035.179	8060
1037.522	8148
1039.862	8114
1042.204	8204
1044.546	8166
1046.884	8101
1049.224	8150
1051.562	8140
1053.899	8155
1056.237	8202
1058.575	8130
1060.91	8226
1063.244	8468
1065.58	8238
1067.913	8282
1070.248	8313
1072.579	8272
1074.911	8260
1077.242	8133
1079.572	8288
1081.905	8256
1084.234	8222
1086.562	8157
1088.89	8131
1091.217	8126
1093.544	8221
1095.871	8158
1098.197	8204
1100.521	8121
1102.845	8183
1105.169	8315
1107.491	8008
1109.814	8171
1112.135	8276
1114.456	8225
1116.776	8196
1119.096	8254
1121.415	8240
1123.734	8292
1126.052	8165
1128.369	8257
1130.686	8339
1133.002	8145
1135.318	8241
1137.632	8209
1139.945	8222
1142.258	8224
1144.573	8410
1146.884	8156
1149.196	8253
1151.505	8235
1153.816	8190
1156.124	8226
1158.435	8191
1160.742	8313
1163.051	8123
1165.356	8226
1167.663	8244
1169.97	8411
1172.276	8211
1174.579	8168
1176.881	8223
1179.186	8233
1181.487	8262
1183.79	8184
1186.092	8274
1188.392	8187
1190.691	8243
1192.991	8349
1195.291	8239
1197.588	8247
1199.885	8205
1202.181	8257
1204.479	8323
1206.775	8166
1209.07	8296
1211.363	8193
1213.656	8228
1215.949	8235
1218.241	8334
1220.534	8278
1222.825	8238
1225.115	8414
1227.405	8316
1229.693	8386
1231.984	8340
1234.271	8432
1236.558	8435
1238.845	8505
1241.131	8490
1243.416	8432
1245.703	8596
1247.987	8513
1250.269	8447
1252.552	8526
1254.834	8532
1257.118	8516
1259.399	8465
1261.678	8514
1263.958	8545
1266.237	8421
1268.516	8469
1270.794	8494
1273.072	8540
1275.347	8488
1277.624	8510
1279.899	8567
1282.175	8481
1284.449	8470
1286.722	8543
1288.995	8496
1291.266	8563
1293.54	8437
1295.81	8446
1298.081	8363
1300.35	8463
1302.62	8321
1304.889	8419
1307.156	8308
1309.425	8297
1311.69	8500
1313.957	8390
1316.222	8389
1318.488	8481
1320.751	8421
1323.016	8489
1325.278	8442
1327.54	8486
1329.803	8473
1332.065	8470
1334.325	8352
1336.584	8572
1338.843	8438
1341.101	8348
1343.36	8498
1345.617	8572
1347.876	8579
1350.131	8399
1352.387	8432
1354.643	8511
1356.897	8399
1359.151	8335
1361.403	8540
1363.656	8497
1365.909	8363
1368.16	8436
1370.409	8417
1372.659	8464
1374.909	8574
1377.157	8563
1379.407	8430
1381.655	8376
1383.9	8647
1386.147	8581
1388.393	8664
1390.64	8646
1392.885	8583
1395.127	8496
1397.37	8555
1399.614	8634
1401.854	8596
1404.098	8735
1406.339	8534
1408.578	8607
1410.818	8643
1413.056	8597
1415.297	8729
1417.533	8645
1419.771	8554
1422.006	8690
1424.243	8797
1426.479	8641
1428.715	8639
1430.948	8673
1433.182	8645
1435.414	8778
1437.647	8781
1439.88	8837
1442.11	8750
1444.342	8774
1446.571	8760
1448.799	8898
1451.029	8914
1453.258	8916
1455.485	8855
1457.711	8900
1459.937	8774
1462.164	8824
1464.39	8837
1466.614	8689
1468.838	8858
1471.06	8787
1473.283	8741
1475.506	8611
1477.727	8561
1479.949	8587
1482.169	8641
1484.389	8604
1486.609	8599
1488.828	8667
1491.045	8592
1493.261	8626
1495.477	8637
1497.693	8617
1499.91	8431
1502.125	8599
1504.339	8502
1506.553	8552
1508.766	8485
1510.979	8423
1513.191	8583
1515.402	8528
1517.613	8569
1519.823	8553
1522.033	8592
1524.242	8498
1526.451	8486
1528.657	8471
1530.865	8503
1533.072	8467
1535.278	8479
1537.484	8523
1539.687	8660
1541.892	8571
1544.096	8458
1546.299	8691
1548.502	8598
1550.703	8601
1552.905	8761
1555.104	8672
1557.303	8537
1559.505	8746
1561.703	8728
1563.902	8858
1566.099	8712
1568.295	8605
1570.494	8586
1572.689	8724
1574.883	8835
1577.079	8760
1579.272	8672
1581.467	8861
1583.659	8813
1585.853	8843
1588.044	8789
1590.234	8916
1592.424	8857
1594.615	8860
1596.806	8683
1598.994	8876
1601.182	8739
1603.369	8871
1605.557	8943
1607.744	8931
1609.929	8903
1612.114	8919
1614.298	8994
1616.482	8929
1618.667	8980
1620.85	8952
1623.032	8856
1625.214	8884
1627.395	8877
1629.575	8859
1631.755	8887
1633.935	8942
1636.114	8863
1638.292	8926
1640.471	9016
1642.647	8824
1644.823	8993
1647	8980
1649.175	9049
1651.348	8737
1653.525	8953
1655.698	8932
1657.87	9016
1660.043	8867
1662.213	8975
1664.387	8913
1666.558	8974
1668.727	9002
1670.896	8948
1673.064	8983
1675.233	9002
1677.401	8979
1679.569	8959
1681.735	8979
1683.902	9062
1686.066	9073
1688.233	9019
1690.397	8808
1692.559	8899
1694.723	8936
1696.885	9017
1699.048	8902
1701.21	8827
1703.37	8933
1705.53	8928
1707.689	8882
1709.849	8776
1712.009	8983
1714.166	8729
1716.323	8890
1718.479	8955
1720.634	8874
1722.793	8838
1724.948	8767
1727.102	8865
1729.255	8904
1731.408	8846
1733.562	8938
1735.714	8785
1737.865	8852
1740.016	8955
1742.166	8938
1744.316	8607
1746.467	8853
1748.616	9004
1750.764	8873
1752.911	8900
1755.056	8950
1757.205	8822
1759.35	8839
1761.496	8981
1763.641	8939
1765.785	8904
1767.927	8846
1770.072	8918
1772.214	8965
1774.355	8867
1776.496	8942
1778.637	9047
1780.778	8961
1782.918	9073
1785.057	9064
1787.194	8939
1789.333	9005
1791.472	9043
1793.608	9036
1795.745	8884
1797.879	9074
1800.015	8858
1802.148	9066
1804.284	8968
1806.417	9055
1808.548	8950
1810.682	8974
1812.812	9018
1814.946	8869
1817.075	9122
1819.205	9103
1821.335	8963
1823.463	8865
1825.59	8887
1827.721	8751
1829.847	9035
1831.973	8927
1834.098	9005
1836.223	9075
1838.351	9009
1840.475	8883
1842.598	8939
1844.721	9034
1846.843	8823
1848.966	8987
1851.087	8835
1853.21	8881
1855.33	8911
1857.449	8957
1859.568	8808
1861.688	8936
1863.806	8850
1865.924	8836
1868.039	8767
1870.155	9023
1872.273	8871
1874.388	9013
1876.503	8756
1878.617	8848
1880.73	8955
1882.844	8813
1884.956	9008
1887.068	8994
1889.18	8885
1891.291	8982
1893.4	8955
1895.511	8960
1897.621	8955
1899.73	8964
1901.837	9123
1903.944	9039
1906.053	8891
1908.159	9087
1910.265	8953
1912.369	9020
1914.474	9047
1916.577	8988
1918.683	9023
1920.785	9016
1922.888	9052
1924.989	9149
1927.091	9086
1929.193	9102
1931.294	8960
1933.393	9005
1935.493	9044
1937.59	9130
1939.689	9078
1941.788	9060
1943.884	9173
1945.98	9010
1948.077	9151
1950.171	9020
1952.267	9103
1954.361	9067
1956.455	9046
1958.548	8955
1960.64	9159
1962.733	9025
1964.824	9018
1966.915	9025
1969.005	9037
1971.096	9070
1973.185	9064
1975.275	8983
1977.363	8976
1979.45	9134
1981.537	9118
1983.623	9037
1985.711	8965
1987.796	8906
1989.881	9249
1991.965	9053
1994.047	9087
1996.132	9029
1998.215	9046
2000.297	9110
2002.378	9078
2004.46	8922
2006.54	8891
2008.62	8978
2010.7	9083
2012.779	9005
2014.858	9008
2016.934	9044
2019.013	9048
2021.09	8896
2023.165	8970
2025.241	8961
2027.317	9002
2029.39	9005
2031.466	8917
2033.538	9113
2035.612	8813
2037.683	8922
2039.755	9063
2041.827	9124
2043.898	8971
2045.968	8948
2048.038	8974
2050.106	8958
2052.177	9102
2054.244	9047
2056.313	8960
2058.379	9013
2060.444	8978
2062.511	9056
2064.577	8932
2066.641	9112
2068.705	9005
2070.77	9045
2072.832	9051
2074.896	9057
2076.958	8945
2079.02	8996
2081.081	8906
2083.141	8990
2085.2	8992
2087.261	8890
2089.319	8985
2091.377	9069
2093.435	9051
2095.492	9028
2097.552	9047
2099.607	9111
2101.663	9018
2103.718	9050
2105.771	9073
2107.826	9031
2109.879	8970
2111.932	9009
2113.985	9082
2116.037	9158
2118.088	8899
2120.141	9059
2122.191	9066
2124.239	9017
2126.288	8876
2128.337	9063
2130.387	8949
2132.434	9013
2134.481	9029
2136.528	9072
2138.574	8839
2140.618	9066
2142.665	8970
2144.71	9002
2146.753	8983
2148.797	8991
2150.838	8926
2152.883	8859
2154.923	9058
2156.965	8860
2159.007	8874
2161.046	8999
2163.086	8866
2165.126	8919
2167.163	8943
2169.202	8898
2171.239	8863
2173.277	8922
2175.314	8818
2177.349	8787
2179.385	9028
2181.42	8995
2183.453	8998
2185.49	8974
2187.522	8827
2189.555	8861
2191.586	8895
2193.619	8843
2195.651	8868
2197.682	8739
2199.711	8903
2201.74	8828
2203.769	8866
2205.799	8716
2207.828	8859
2209.855	8857
2211.882	8864
2213.908	8855
2215.934	8725
2217.961	8850
2219.986	8876
2222.01	8754
2224.034	8809
2226.057	8562
2228.08	8724
2230.104	8804
2232.124	8790
2234.145	8770
2236.166	8635
2238.186	8633
2240.207	8780
2242.227	8943
2244.244	8863
2246.262	8714
2248.28	8734
2250.299	8808
2252.314	8783
2254.33	8845
2256.346	8946
2258.36	8834
2260.375	8679
2262.391	8711
2264.403	8852
2266.416	8792
2268.427	8731
2270.44	8729
2272.453	8772
2274.463	8726
2276.474	8816
2278.483	8791
2280.493	8815
2282.501	8945
2284.51	8715
2286.518	8737
2288.524	8883
2290.532	8843
2292.537	8721
2294.544	8773
2296.55	8748
2298.554	8762
2300.557	8706
2302.562	8801
2304.566	8797
2306.568	8813
2308.569	8831
2310.572	8652
2312.573	8752
2314.573	8671
2316.574	8680
2318.573	8651
2320.571	8712
2322.571	8809
2324.569	8736
2326.567	8707
2328.564	8675
2330.56	8735
2332.556	8807
2334.551	8643
2336.546	8679
2338.542	8671
2340.535	8577
2342.529	8726
2344.521	8634
2346.512	8643
2348.505	8613
2350.497	8634
2352.487	8653
2354.478	8641
2356.468	8604
2358.457	8636
2360.446	8589
2362.434	8528
2364.422	8506
2366.408	8619
2368.395	8528
2370.383	8543
2372.369	8584
2374.353	8615
2376.338	8447
2378.321	8617
2380.307	8610
2382.29	8620
2384.272	8540
2386.254	8719
2388.235	8465
2390.218	8637
2392.198	8526
2394.179	8568
2396.157	8766
2398.137	8645
2400.115	8408
2402.095	8546
2404.072	8480
2406.048	8593
2408.026	8531
2410.001	8517
2411.977	8574
2413.953	8514
2415.927	8578
2417.9	8626
2419.875	8390
2421.847	8526
2423.821	8556
2425.792	8440
2427.763	8490
2429.736	8544
2431.706	8519
2433.677	8414
2435.646	8573
2437.615	8396
2439.583	8363
2441.551	8520
2443.519	8491
2445.486	8556
2447.452	8589
2449.418	8507
2451.383	8456
2453.348	8461
2455.314	8503
2457.278	8474
2459.241	8446
2461.205	8388
2463.167	8476
2465.131	8350
2467.091	8470
2469.052	8477
2471.012	8519
2472.972	8455
2474.932	8397
2476.891	8427
2478.85	8436
2480.808	8382
2482.766	8416
2484.722	8290
2486.68	8427
2488.636	8350
2490.591	8361
2492.546	8370
2494.5	8355
2496.456	8473
2498.41	8429
2500.362	8357
2502.315	8449
2504.266	8395
2506.218	8333
2508.169	8257
2510.121	8444
2512.07	8342
2514.019	8263
2515.968	8393
2517.918	8312
2519.866	8412
2521.813	8358
2523.76	8298
2525.707	8372
2527.653	8281
2529.599	8277
2531.543	8404
2533.489	8254
2535.433	8330
2537.376	8454
2539.32	8309
2541.264	8291
2543.205	8351
2545.147	8481
2547.087	8348
2549.029	8289
2550.969	8518
2552.908	8339
2554.847	8354
2556.786	8301
2558.724	8370
2560.663	8268
2562.6	8339
2564.537	8369
2566.473	8453
2568.408	8286
2570.345	8353
2572.28	8413
2574.214	8207
2576.148	8295
2578.081	8260
2580.014	8305
2581.947	8342
2583.879	8325
2585.81	8321
2587.741	8287
2589.67	8355
2591.602	8439
2593.532	8266
2595.461	8337
2597.388	8426
2599.316	8326
2601.244	8313
2603.172	8286
2605.098	8332
2607.023	8394
2608.949	8379
2610.873	8228
2612.8	8333
2614.723	8420
2616.647	8345
2618.569	8302
2620.493	8346
2622.416	8331
2624.338	8404
2626.258	8322
2628.179	8366
2630.099	8359
2632.019	8310
2633.939	8432
2635.857	8347
2637.775	8339
2639.694	8474
2641.61	8353
2643.528	8365
2645.444	8373
2647.361	8325
2649.276	8399
2651.19	8320
2653.105	8347
2655.019	8399
2656.934	8453
2658.846	8368
2660.758	8369
2662.67	8398
2664.583	8387
2666.493	8323
2668.404	8239
2670.313	8307
2672.223	8383
2674.134	8352
2676.042	8410
2677.95	8242
2679.858	8221
2681.765	8299
2683.673	8196
2685.579	8281
2687.483	8287
2689.389	8246
2691.294	8204
2693.198	8158
2695.104	8181
2697.006	8260
2698.909	8141
2700.811	8241
2702.713	8245
2704.615	8333
2706.516	8157
2708.417	8197
2710.316	8196
2712.216	8084
2714.115	8145
2716.014	8132
2717.913	8156
2719.81	8200
2721.707	8147
2723.603	8217
2725.501	8166
2727.396	8259
2729.292	8080
2731.186	8199
2733.081	8122
2734.976	8198
2736.87	8203
2738.762	8243
2740.653	8123
2742.546	8220
2744.437	8223
2746.329	8214
2748.22	8115
2750.11	8157
2751.999	8114
2753.889	8226
2755.778	8154
2757.666	8169
2759.553	8002
2761.44	8034
2763.328	8194
2765.215	8122
2767.101	8136
2768.986	8125
2770.87	8126
2772.754	8068
2774.638	8073
2776.523	8125
2778.405	8052
2780.288	8031
2782.17	8144
2784.051	8000
2785.934	8019
2787.814	8095
2789.694	8159
2791.574	8097
2793.453	8137
2795.332	7955
2797.212	7987
2799.088	7973
2800.966	8078
2802.843	8022
2804.719	8000
2806.597	8160
2808.471	8098
2810.346	7981
2812.221	8069
2814.094	8097
2815.969	8021
2817.843	8090
2819.714	8099
2821.587	7797
2823.459	8060
2825.329	7989
2827.202	8076
2829.072	8093
2830.942	7905
2832.811	7980
2834.68	8050
2836.549	8084
2838.418	8073
2840.284	8128
2842.152	8117
2844.018	8063
2845.885	7954
2847.751	7980
2849.616	8078
2851.482	8027
2853.345	8060
2855.208	8051
2857.074	8085
2858.937	8070
2860.799	8126
2862.66	8052
2864.522	8135
2866.385	8057
2868.245	8243
2870.104	8380
2871.964	8237
2873.824	8133
2875.683	8439
2877.542	8254
2879.4	8510
2881.257	8398
2883.114	8488
2884.97	8513
2886.827	8342
2888.683	8334
2890.537	8360
2892.392	8425
2894.246	8380
2896.1	8347
2897.954	8413
2899.807	8421
2901.66	8508
2903.51	8308
2905.362	8379
2907.214	8299
2909.065	8533
2910.915	8405
2912.765	8536
2914.613	8475
2916.463	8455
2918.311	8522
2920.158	8576
2922.006	8521
2923.853	8659
2925.698	8693
2927.546	8733
2929.392	8724
2931.236	8879
2933.081	8837
2934.924	8915
2936.77	8874
2938.613	8858
2940.455	9125
2942.298	9054
2944.139	8936
2945.982	9192
2947.823	8963
2949.662	8789
2951.503	8992
2953.342	8858
2955.182	8737
2957.021	8781
2958.858	8700
2960.697	8772
2962.534	8595
2964.37	8697
2966.207	8636
2968.044	8531
2969.879	8487
2971.714	8512
2973.548	8417
2975.383	8538
2977.218	8404
2979.051	8444
2980.883	8368
2982.715	8419
2984.547	8292
2986.379	8405
2988.21	8328
2990.04	8196
2991.87	8155
2993.7	8282
2995.53	8237
2997.359	8171
2999.187	8230
3001.015	8106
3002.842	8068
3004.669	7948
3006.497	7868
3008.323	8029
3010.148	7809
3011.974	7845
3013.797	7804
3015.623	7876
3017.447	7720
3019.27	7772
3021.094	7775
3022.915	7678
3024.737	7824
3026.56	7729
3028.38	7657
3030.201	7734
3032.022	7627
3033.84	7636
3035.662	7671
3037.481	7761
3039.298	7630
3041.117	7588
3042.933	7601
3044.752	7529
3046.568	7693
3048.385	7691
3050.2	7588
3052.016	7655
3053.83	7679
3055.646	7576
3057.46	7662
3059.272	7663
3061.086	7510
3062.898	7668
3064.711	7644
3066.524	7614
3068.335	7418
3070.145	7558
3071.956	7547
3073.766	7308
3075.576	7464
3077.385	7483
3079.193	7544
3081.002	7567
3082.81	7505
3084.618	7509
3086.425	7417
3088.231	7555
3090.036	7388
3091.842	7412
3093.648	7339
3095.452	7395
3097.257	7605
3099.06	7376
3100.863	7357
3102.666	7439
3104.47	7528
3106.272	7387
3108.073	7484
3109.875	7422
3111.676	7408
3113.477	7375
3115.277	7350
3117.077	7333
3118.874	7252
3120.673	7367
3122.473	7340
3124.271	7352
3126.066	7297
3127.863	7266
3129.66	7197
3131.456	7245
3133.252	7226
3135.047	7256
3136.842	7276
3138.635	7234
3140.429	7240
3142.223	7199
3144.016	7226
3145.808	7187
3147.6	7290
3149.392	7145
3151.183	7437
3152.975	7106
3154.765	7186
3156.553	7275
3158.344	7132
3160.132	7212
3161.922	7084
3163.71	7119
3165.497	7229
3167.285	7208
3169.071	7133
3170.858	7002
3172.645	7178
3174.429	7180
3176.214	7189
3177.998	7085
3179.783	7185
3181.568	7165
3183.351	7136
3185.133	7160
3186.915	7032
3188.698	7064
3190.481	7090
3192.261	7096
3194.042	7050
3195.822	7055
3197.601	7141
3199.381	7083
3201.161	7044
3202.939	7010
3204.717	7078
3206.495	7164
3208.272	7039
3210.05	7057
3211.826	7018
3213.602	6995
3215.376	6960
3217.151	7115
3218.927	7029
3220.702	7117
3222.476	7072
3224.249	7084
3226.021	7057
3227.793	7082
3229.567	7004
3231.339	7035
3233.109	6947
3234.88	7109
3236.651	7048
3238.421	7053
3240.191	7076
3241.96	6974
3243.728	7035
3245.497	6915
3247.263	7133
3249.033	7086
3250.799	6901
3252.566	7016
3254.331	7039
3256.097	7016
3257.863	7051
3259.628	6956
3261.392	7014
3263.156	7002
3264.919	6901
3266.683	6877
3268.447	6936
3270.208	6941
3271.969	6947
3273.731	6997
3275.492	6958
3277.253	6988
3279.013	6930
3280.773	7060
3282.532	7126
3284.291	7022
3286.05	6991
3287.808	6930
3289.566	7016
3291.323	6947
3293.079	7102
3294.835	7036
3296.593	6802
3298.348	7012
3300.102	6896
3301.857	6992
3303.611	6945
3305.366	6953
3307.119	6921
3308.872	6998
3310.624	6862
3312.376	6949
3314.129	6962
3315.881	7044
3317.631	6969
3319.38	7029
3321.13	6954
3322.88	6796
3324.631	7021
3326.379	6932
3328.126	7018
3329.875	6895
3331.622	6879
3333.371	6909
3335.116	6808
3336.863	6890
3338.609	7000
3340.353	6893
3342.1	6916
3343.845	6945
3345.588	6842
3347.332	6840
3349.074	6886
3350.817	6880
3352.56	6800
3354.303	6826
3356.043	6944
3357.785	6853
3359.525	6923
3361.268	6864
3363.007	6890
3364.745	6902
3366.485	6883
3368.223	6910
3369.962	6750
3371.701	6786
3373.438	6856
3375.174	6766
3376.911	6731
3378.647	6784
3380.384	6857
3382.118	6750
3383.854	6824
3385.588	6834
3387.322	6734
3389.057	6815
3390.79	6692
3392.522	6822
3394.255	6640
3395.987	6782
3397.719	6708
3399.451	6803
3401.181	6861
3402.911	6758
3404.641	6685
3406.371	6603
3408.101	6744
3409.83	6710
3411.558	6677
3413.285	6718
3415.011	6645
3416.739	6701
3418.467	6642
3420.193	6700
3421.919	6666
3423.644	6748
3425.368	6642
3427.094	6655
3428.818	6640
3430.542	6720
3432.264	6642
3433.987	6607
3435.712	6659
3437.434	6626
3439.155	6680
3440.876	6517
3442.596	6458
3444.317	6548
3446.039	6659
3447.757	6577
3449.477	6558
3451.195	6611
3452.914	6586
3454.632	6577
3456.35	6512
3458.067	6622
3459.784	6429
3461.5	6506
3463.216	6493
3464.932	6562
3466.647	6538
3468.362	6471
3470.076	6487
3471.789	6391
3473.505	6474
3475.217	6364
3476.929	6456
3478.641	6495
3480.354	6396
3482.066	6471
3483.777	6356
3485.487	6329
3487.197	6402
3488.908	6443
3490.617	6347
3492.327	6290
3494.035	6265
3495.743	6486
3497.451	6382
3499.158	6238
3500.866	6267
3502.572	6286
3504.278	6409
3505.984	6300
3507.689	6184
3509.396	6273
3511.1	6390
3512.804	6291
3514.508	6293
3516.211	6372
3517.913	6290
3519.616	6280
3521.319	6325
3523.021	6295
3524.722	6216
3526.422	6238
3528.124	6205
3529.824	6340
3531.524	6070
3533.222	6158
3534.921	6218
3536.62	6238
3538.318	6334
3540.016	6237
3541.714	6110
3543.41	6246
3545.107	6313
3546.803	6246
3548.5	6238
3550.194	6203
3551.889	6269
3553.583	6242
3555.279	6230
3556.972	6186
3558.666	6211
3560.358	6210
3562.051	6186
3563.742	6126
3565.435	6061
3567.126	6150
3568.817	6187
3570.507	6144
3572.197	6105
3573.888	6041
3575.577	6070
3577.265	6142
3578.954	6093
3580.642	6080
3582.329	6041
3584.017	6056
3585.704	6048
3587.391	6166
3589.077	6060
3590.762	6020
3592.449	5999
3594.133	6096
3595.817	5978
3597.501	5956
3599.185	6097
3600.869	5979
3602.552	5885
3604.234	5990
3605.916	6012
3607.598	5983
3609.279	5900
3610.961	5931
3612.642	5914
3614.321	6008
3616	5835
3617.68	5938
3619.36	5893
3621.039	5852
3622.716	5875
3624.394	5917
3626.071	5903
3627.748	5878
3629.425	5886
3631.102	5900
3632.778	5876
3634.452	5875
3636.127	5779
3637.803	5907
3639.477	5809
3641.151	5822
3642.823	5709
3644.497	5798
3646.171	5820
3647.842	5734
3649.515	5834
3651.185	5704
3652.857	5741
3654.527	5900
3656.198	5816
3657.868	5658
3659.537	5873
3661.207	5672
3662.875	5684
3664.544	5842
3666.212	5746
3667.879	5746
3669.546	5744
3671.212	5702
3672.88	5786
3674.546	5804
3676.211	5774
3677.875	5688
3679.541	5767
3681.205	5717
3682.87	5636
3684.533	5668
3686.196	5701
3687.859	5805
3689.521	5632
3691.184	5706
3692.845	5749
3694.507	5719
3696.167	5721
3697.827	5633
3699.487	5726
3701.148	5622
3702.808	5631
3704.466	5647
3706.125	5720
3707.783	5680
3709.442	5648
3711.099	5682
3712.757	5518
3714.412	5575
3716.068	5691
3717.725	5620
3719.381	5611
3721.036	5631
3722.689	5591
3724.344	5635
3725.998	5624
3727.652	5586
3729.305	5575
3730.958	5612
3732.61	5618
3734.262	5497
3735.915	5523
3737.565	5589
3739.217	5562
3740.866	5486
3742.516	5496
3744.165	5498
3745.816	5614
3747.464	5507
3749.113	5533
3750.761	5626
3752.409	5497
3754.057	5562
3755.703	5571
3757.35	5450
3758.996	5495
3760.641	5539
3762.289	5494
3763.933	5586
3765.577	5557
3767.222	5527
3768.865	5516
3770.508	5526
3772.152	5465
3773.796	5513
3775.438	5489
3777.079	5399
3778.721	5470
3780.363	5440
3782.003	5431
3783.643	5435
3785.283	5416
3786.923	5442
3788.563	5363
3790.203	5531
3791.841	5377
3793.479	5365
3795.115	5377
3796.753	5440
3798.391	5443
3800.027	5439
3801.664	5405
3803.299	5327
3804.935	5417
3806.571	5420
3808.206	5387
3809.839	5409
3811.473	5370
3813.107	5288
3814.74	5249
3816.375	5253
3818.006	5322
3819.638	5298
3821.27	5250
3822.9	5354
3824.532	5325
3826.163	5340
3827.792	5357
3829.423	5255
3831.051	5241
3832.682	5287
3834.311	5231
3835.938	5290
3837.566	5274
3839.193	5194
3840.821	5189
3842.448	5284
3844.075	5156
3845.7	5258
3847.325	5190
3848.951	5242
3850.576	5158
3852.201	5142
3853.825	5210
3855.448	5213
3857.072	5162
3858.694	5176
3860.318	5303
3861.939	5219
3863.562	5139
3865.183	5139
3866.804	5130
3868.426	5190
3870.045	5212
3871.666	5190
3873.285	5150
3874.904	5109
3876.524	5224
3878.142	5209
3879.76	5218
3881.378	5170
3882.995	5208
3884.612	5150
3886.229	5184
3887.845	5034
3889.461	5087
3891.076	5033
3892.691	5162
3894.307	5127
3895.922	5098
3897.536	5135
3899.149	5159
3900.761	5159
3902.374	5148
3903.988	5147
3905.6	5147
3907.212	5119
3908.822	5033
3910.433	5064
3912.045	5069
3913.655	5121
3915.265	5086
3916.875	5021
3918.483	5089
3920.093	5123
3921.702	5015
3923.309	4997
3924.917	5088
3926.523	5029
3928.13	5118
3929.739	5014
3931.344	5012
3932.95	5035
3934.555	5073
3936.159	5006
3937.766	5087
3939.369	5031
3940.974	5039
3942.577	5061
3944.181	5011
3945.783	4960
3947.386	4999
3948.989	5022
3950.59	5063
3952.191	5009
3953.791	4966
3955.394	5042
3956.994	4998
3958.593	4961
3960.192	4941
3961.791	4953
3963.392	4927
3964.99	5024
3966.588	5018
3968.185	4874
3969.782	5060
3971.379	4880
3972.976	4890
3974.572	4830
3976.168	4869
3977.763	4810
3979.358	4932
3980.954	4959
3982.548	4904
3984.142	4869
3985.736	4842
3987.329	4858
3988.922	4875
3990.516	4792
3992.108	4925
3993.698	4940
3995.29	4857
3996.881	4795
3998.473	4865
4000.064	4864
4001.653	4838
4003.242	4797
4004.832	4776
4006.422	4842
4008.01	4715
4009.598	4778
4011.186	4783
4012.773	4764
4014.36	4730
4015.947	4668
4017.534	4784
4019.119	4696
4020.705	4733
4022.291	4739
4023.876	4713
4025.461	4755
4027.044	4734
4028.627	4655
4030.211	4755
4031.795	4739
4033.378	4602
4034.96	4709
4036.542	4702
4038.124	4661
4039.704	4689
4041.286	4742
4042.867	4644
4044.447	4701
4046.026	4697
4047.606	4621
4049.187	4616
4050.765	4677
4052.343	4633
4053.92	4625
4055.498	4682
4057.076	4657
4058.654	4611
4060.23	4619
4061.806	4634
4063.381	4585
4064.957	4621
4066.533	4598
4068.107	4621
4069.682	4579
4071.256	4589
4072.829	4623
4074.404	4607
4075.977	4508
4077.549	4659
4079.121	4545
4080.693	4595
4082.265	4550
4083.836	4537
4085.407	4491
4086.977	4541
4088.547	4563
4090.117	4524
4091.687	4552
4093.256	4510
4094.825	4526
4096.392	4613
4097.96	4543
4099.528	4531
4101.097	4529
4102.663	4490
4104.229	4489
4105.795	4479
4107.361	4472
4108.928	4496
4110.493	4547
4112.058	4552
4113.621	4562
4115.186	4441
4116.75	4473
4118.313	4544
4119.876	4462
4121.438	4516
4123	4401
4124.562	4492
4126.125	4429
4127.686	4461
4129.246	4415
4130.807	4412
4132.367	4424
4133.927	4450
4135.486	4435
4137.046	4454
4138.604	4421
4140.162	4468
4141.72	4452
4143.279	4385
4144.836	4351
4146.393	4446
4147.949	4378
4149.505	4396
4151.062	4338
4152.617	4292
4154.172	4465
4155.727	4337
4157.281	4293
4158.836	4327
4160.39	4298
4161.943	4283
4163.496	4334
4165.048	4218
4166.601	4312
4168.154	4392
4169.706	4293
4171.257	4198
4172.808	4346
4174.358	4348
4175.909	4239
4177.458	4269
4179.008	4301
4180.558	4226
4182.106	4193
4183.655	4288
4185.204	4249
4186.751	4320
4188.298	4188
4189.845	4264
4191.392	4279
4192.939	4279
4194.485	4270
4196.031	4269
4197.576	4190
4199.121	4149
4200.666	4273
4202.211	4146
4203.754	4263
4205.298	4153
4206.84	4179
4208.384	4178
4209.927	4172
4211.47	4135
4213.011	4178
4214.552	4136
4216.094	4188
4217.635	4129
4219.175	4200
4220.716	4141
4222.255	4201
4223.793	4158
4225.335	4222
4226.873	4111
4228.411	4170
4229.948	4141
4231.486	4148
4233.024	4143
4234.562	4235
4236.098	4146
4237.634	4124
4239.169	4219
4240.705	4154
4242.241	4110
4243.776	4117
4245.31	4065
4246.844	4088
4248.378	4170
4249.911	4154
4251.445	4169
4252.978	4091
4254.51	4097
4256.042	4150
4257.574	3981
4259.107	4011
4260.638	4015
4262.169	4078
4263.699	4089
4265.228	3993
4266.759	4025
4268.289	4079
4269.818	4102
4271.345	4114
4272.874	4105
4274.402	4097
4275.931	4077
4277.458	4019
4278.985	3971
4280.512	4020
4282.037	4000
4283.564	3989
4285.089	3981
4286.615	4015
4288.139	4095
4289.664	3995
4291.187	4032
4292.712	4012
4294.235	4066
4295.759	4022
4297.281	4040
4298.804	3995
4300.327	4064
4301.849	4067
4303.37	3989
4304.891	4067
4306.412	3994
4307.933	3929
4309.453	3955
4310.973	3961
4312.492	4004
