398.1873	2662
400.7097	2658
403.2336	2602
405.7547	2656
408.2751	2678
410.7948	2691
413.3138	2706
415.83	2664
418.3497	2796
420.8666	2676
423.3829	2736
425.8985	2792
428.4133	2745
430.9275	2786
433.441	2818
435.9538	2823
438.4639	2864
440.9753	2809
443.4881	2786
445.9982	2896
448.5055	2845
451.0142	2823
453.5201	2777
456.0274	2823
458.5361	2802
461.04	2906
463.5453	2841
466.0478	2793
468.5517	2793
471.0549	2813
473.5574	2754
476.0572	2802
478.5584	2816
481.0568	2795
483.5545	2867
486.0557	2814
488.5521	2847
491.0478	2837
493.5449	2881
496.0392	2903
498.5349	2880
501.0299	2845
503.5222	2931
506.0139	2926
508.5048	2866
510.9991	2897
513.4887	2943
515.9777	2912
518.4659	2902
520.9534	2938
523.4403	2866
525.9306	2918
528.4161	2906
530.9009	2851
533.3851	2862
535.8687	2989
538.3535	2948
540.8356	2963
543.3171	2866
545.7979	2908
548.278	2859
550.7595	2869
553.2383	2941
555.7144	2903
558.1918	2890
560.6685	2950
563.1446	3000
565.6221	2984
568.0968	2924
570.5688	2963
573.0422	2954
575.515	2949
577.989	3021
580.4584	3020
582.9291	3149
585.3991	3078
587.8685	3031
590.3352	3058
592.8052	3021
595.2706	3068
597.7372	3019
600.2033	3012
602.6666	2973
605.1334	3076
607.5953	3070
610.0587	3041
612.5193	3081
614.9814	2913
617.4427	3008
619.9034	2960
622.3615	3042
624.8208	3059
627.2775	3009
629.7335	2947
632.1929	3035
634.6476	3010
637.1016	2974
639.5569	3082
642.0096	3020
644.4637	3009
646.9151	2990
649.3678	3043
651.8179	3022
654.2672	3045
656.7159	3028
659.166	3131
661.6154	3030
664.0622	3108
666.5082	3041
668.9537	3076
671.4005	3056
673.8445	3057
676.288	3111
678.7308	3095
681.1729	3070
683.6163	3059
686.0572	3119
688.4973	3154
690.9368	3057
693.3757	3093
695.8138	3114
698.2534	3061
700.6902	3164
703.1245	3103
705.56	3053
707.9949	3153
710.4311	3090
712.8647	3094
715.2957	3157
717.7279	3168
720.1595	3183
722.5905	3175
725.0208	3114
727.4505	3215
729.8795	3177
732.3058	3244
734.7336	3180
737.1626	3175
739.587	3121
742.0128	3226
744.4359	3279
746.8604	3244
749.2841	3183
751.7073	3199
754.1278	3261
756.5496	3237
758.9688	3213
761.3893	3272
763.8093	3314
766.2285	3309
768.6451	3373
771.0611	3298
773.4784	3311
775.895	3315
778.3091	3311
780.7244	3329
783.1371	3276
785.5493	3242
787.9626	3311
790.3754	3288
792.7856	3329
795.1951	3316
797.6039	3264
800.0121	3338
802.4236	3305
804.8306	3249
807.2369	3319
809.6425	3278
812.0475	3353
814.4538	3414
816.8575	3292
819.2606	3295
821.663	3360
824.0648	3395
826.4659	3327
828.8683	3386
831.2682	3370
833.6674	3309
836.066	3386
838.4639	3386
840.8632	3423
843.2579	3383
845.6539	3382
848.0493	3422
850.444	3344
852.84	3447
855.2315	3441
857.6243	3393
860.0165	3379
862.4081	3467
864.797	3402
867.1892	3351
869.5789	3463
871.9659	3467
874.3542	3453
876.74	3474
879.129	3406
881.5155	3363
883.8994	3406
886.2845	3437
888.6671	3362
891.051	3396
893.4343	3409
895.8169	3397
898.197	3457
900.5783	3407
902.9571	3397
905.3372	3348
907.7167	3463
910.0936	3463
912.4698	3490
914.8474	3404
917.2244	3453
919.5987	3500
921.9744	3514
924.3475	3507
926.72	3486
929.0918	3534
931.4669	3453
933.8375	3579
936.2074	3548
938.5767	3567
940.9454	3662
943.3154	3595
945.6829	3687
948.0497	3725
950.4178	3802
952.7833	3938
955.1483	3973
957.5145	4125
959.8782	4217
962.2412	4080
964.6036	4065
966.9655	4021
969.3266	3885
971.6871	3804
974.0471	3784
976.4064	3650
978.765	3568
981.125	3598
983.4824	3505
985.8373	3566
988.1935	3510
990.549	3464
992.9039	3512
995.2602	3518
997.6119	3590
999.965	3536
1002.317	3588
1004.667	3507
1007.02	3533
1009.371	3519
1011.719	3488
1014.068	3588
1016.415	3579
1018.765	3589
1021.111	3539
1023.458	3536
1025.804	3617
1028.147	3573
1030.49	3638
1032.837	3549
1035.179	3550
1037.522	3557
1039.862	3568
1042.204	3520
1044.546	3549
1046.884	3616
1049.224	3617
1051.562	3569
1053.899	3584
1056.237	3562
1058.575	3656
1060.91	3643
1063.244	3708
1065.58	3643
1067.913	3617
1070.248	3650
1072.579	3678
1074.911	3592
1077.242	3653
1079.572	3713
1081.905	3631
1084.234	3600
1086.562	3585
1088.89	3641
1091.217	3582
1093.544	3670
1095.871	3648
1098.197	3564
1100.521	3608
1102.845	3708
1105.169	3688
1107.491	3660
1109.814	3577
1112.135	3597
1114.456	3660
1116.776	3661
1119.096	3637
1121.415	3652
1123.734	3629
1126.052	3641
1128.369	3585
1130.686	3683
1133.002	3607
1135.318	3668
1137.632	3621
1139.945	3648
1142.258	3626
1144.573	3674
1146.884	3614
1149.196	3673
1151.505	3649
1153.816	3642
1156.124	3652
1158.435	3599
1160.742	3569
1163.051	3704
1165.356	3673
1167.663	3613
1169.97	3637
1172.276	3639
1174.579	3619
1176.881	3641
1179.186	3600
1181.487	3671
1183.79	3556
1186.092	3653
1188.392	3628
1190.691	3610
1192.991	3601
1195.291	3623
1197.588	3664
1199.885	3660
1202.181	3644
1204.479	3635
1206.775	3631
1209.07	3637
1211.363	3711
1213.656	3588
1215.949	3619
1218.241	3649
1220.534	3672
1222.825	3636
1225.115	3685
1227.405	3724
1229.693	3726
1231.984	3768
1234.271	3753
1236.558	3697
1238.845	3754
1241.131	3684
1243.416	3786
1245.703	3838
1247.987	3729
1250.269	3741
1252.552	3807
1254.834	3858
1257.118	3819
1259.399	3810
1261.678	3752
1263.958	3807
1266.237	3748
1268.516	3759
1270.794	3751
1273.072	3797
1275.347	3718
1277.624	3712
1279.899	3785
1282.175	3780
1284.449	3747
1286.722	3724
1288.995	3697
1291.266	3731
1293.54	3720
1295.81	3776
1298.081	3613
1300.35	3722
1302.62	3709
1304.889	3807
1307.156	3720
1309.425	3696
1311.69	3776
1313.957	3686
1316.222	3768
1318.488	3768
1320.751	3798
1323.016	3807
1325.278	3787
1327.54	3802
1329.803	3668
1332.065	3763
1334.325	3748
1336.584	3736
1338.843	3732
1341.101	3809
1343.36	3765
1345.617	3741
1347.876	3750
1350.131	3692
1352.387	3714
1354.643	3710
1356.897	3689
1359.151	3694
1361.403	3805
1363.656	3782
1365.909	3690
1368.16	3845
1370.409	3759
1372.659	3737
1374.909	3820
1377.157	3788
1379.407	3767
1381.655	3859
1383.9	3866
1386.147	3791
1388.393	3770
1390.64	3798
1392.885	3847
1395.127	3742
1397.37	3866
1399.614	3864
1401.854	3825
1404.098	3914
1406.339	3880
1408.578	3826
1410.818	3857
1413.056	3887
1415.297	3895
1417.533	3892
1419.771	3846
1422.006	3943
1424.243	3829
1426.479	3836
1428.715	3896
1430.948	3910
1433.182	3867
1435.414	3936
1437.647	3971
1439.88	3928
1442.11	3979
1444.342	3868
1446.571	3904
1448.799	3990
1451.029	3878
1453.258	4002
1455.485	4037
1457.711	3964
1459.937	3933
1462.164	3873
1464.39	3863
1466.614	3946
1468.838	3913
1471.06	3825
1473.283	3889
1475.506	3887
1477.727	3846
1479.949	3878
1482.169	3791
1484.389	3886
1486.609	3940
1488.828	3865
1491.045	3793
1493.261	3828
1495.477	3779
1497.693	3844
1499.91	3849
1502.125	3867
1504.339	3855
1506.553	3854
1508.766	3846
1510.979	3768
1513.191	3841
1515.402	3813
1517.613	3823
1519.823	3785
1522.033	3807
1524.242	3800
1526.451	3852
1528.657	3860
1530.865	3790
1533.072	3823
1535.278	3743
1537.484	3824
1539.687	3892
1541.892	3846
1544.096	3776
1546.299	3927
1548.502	3835
1550.703	3879
1552.905	3898
1555.104	3806
1557.303	3867
1559.505	3959
1561.703	3822
1563.902	3860
1566.099	3946
1568.295	3968
1570.494	3906
1572.689	3953
1574.883	3953
1577.079	3985
1579.272	3954
1581.467	3930
1583.659	3967
1585.853	3955
1588.044	4033
1590.234	3989
1592.424	3938
1594.615	3962
1596.806	3915
1598.994	3994
1601.182	4006
1603.369	3933
1605.557	3925
1607.744	3948
1609.929	3982
1612.114	3963
1614.298	3971
1616.482	3865
1618.667	4000
1620.85	3953
1623.032	3979
1625.214	4003
1627.395	3948
1629.575	3891
1631.755	4042
1633.935	3928
1636.114	3950
1638.292	4047
1640.471	4005
1642.647	4069
1644.823	3990
1647	3993
1649.175	3979
1651.348	4096
1653.525	4020
1655.698	3960
1657.87	4050
1660.043	3974
1662.213	4042
1664.387	4040
1666.558	4059
1668.727	4103
1670.896	4038
1673.064	4087
1675.233	4127
1677.401	4101
1679.569	4060
1681.735	4047
1683.902	4014
1686.066	4044
1688.233	4114
1690.397	4073
1692.559	4018
1694.723	4102
1696.885	3925
1699.048	3941
1701.21	3976
1703.37	3999
1705.53	4050
1707.689	4064
1709.849	4044
1712.009	4018
1714.166	4049
1716.323	3974
1718.479	3994
1720.634	3926
1722.793	4068
1724.948	3996
1727.102	3973
1729.255	3912
1731.408	4005
1733.562	3985
1735.714	3954
1737.865	4015
1740.016	3977
1742.166	3947
1744.316	4036
1746.467	3978
1748.616	3950
1750.764	4062
1752.911	4014
1755.056	4053
1757.205	4023
1759.35	3944
1761.496	3950
1763.641	4074
1765.785	4014
1767.927	4100
1770.072	4079
1772.214	4049
1774.355	4079
1776.496	4025
1778.637	4079
1780.778	3926
1782.918	3942
1785.057	4083
1787.194	4028
1789.333	4089
1791.472	4055
1793.608	4061
1795.745	4018
1797.879	3976
1800.015	4003
1802.148	4074
1804.284	4075
1806.417	4157
1808.548	4057
1810.682	4144
1812.812	4097
1814.946	4065
1817.075	4034
1819.205	4006
1821.335	4044
1823.463	4068
1825.59	4068
1827.721	4104
1829.847	4074
1831.973	4016
1834.098	4026
1836.223	4022
1838.351	4078
1840.475	4024
1842.598	4054
1844.721	4088
1846.843	3962
1848.966	4049
1851.087	4094
1853.21	4055
1855.33	4013
1857.449	3983
1859.568	3956
1861.688	4073
1863.806	4059
1865.924	4027
1868.039	4096
1870.155	4013
1872.273	4014
1874.388	4061
1876.503	4002
1878.617	4057
1880.73	4037
1882.844	4017
1884.956	3995
1887.068	4006
1889.18	4112
1891.291	4061
1893.4	4084
1895.511	4078
1897.621	3989
1899.73	4059
1901.837	4089
1903.944	4070
1906.053	4095
1908.159	3986
1910.265	4086
1912.369	4207
1914.474	4039
1916.577	4151
1918.683	4069
1920.785	4095
1922.888	4206
1924.989	4154
1927.091	4181
1929.193	4104
1931.294	4164
1933.393	4124
1935.493	4088
1937.59	4137
1939.689	4071
1941.788	4137
1943.884	3992
1945.98	4033
1948.077	4134
1950.171	4020
1952.267	4120
1954.361	4096
1956.455	4090
1958.548	4125
1960.64	4099
1962.733	4144
1964.824	4065
1966.915	4172
1969.005	4113
1971.096	4069
1973.185	4121
1975.275	4181
1977.363	4087
1979.45	4133
1981.537	4081
1983.623	4097
1985.711	4107
1987.796	4134
1989.881	4068
1991.965	4144
1994.047	4147
1996.132	4119
1998.215	4162
2000.297	4145
2002.378	4117
2004.46	4132
2006.54	4058
2008.62	4115
2010.7	4017
2012.779	4137
2014.858	4099
2016.934	4072
2019.013	4136
2021.09	4148
2023.165	4138
2025.241	4109
2027.317	3975
2029.39	4105
2031.466	4081
2033.538	4045
2035.612	4158
2037.683	4114
2039.755	4117
2041.827	4135
2043.898	4082
2045.968	4132
2048.038	4057
2050.106	4171
2052.177	4139
2054.244	4135
2056.313	4127
2058.379	4160
2060.444	4095
2062.511	4137
2064.577	4129
2066.641	4138
2068.705	4106
2070.77	4121
2072.832	4119
2074.896	4169
2076.958	4195
2079.02	4170
2081.081	4108
2083.141	4191
2085.2	4209
2087.261	4174
2089.319	4082
2091.377	4076
2093.435	4129
2095.492	4147
2097.552	4186
2099.607	4070
2101.663	4224
2103.718	4149
2105.771	4178
2107.826	4184
2109.879	4142
2111.932	4138
2113.985	4214
2116.037	4113
2118.088	4169
2120.141	4175
2122.191	4163
2124.239	4126
2126.288	4141
2128.337	4088
2130.387	4111
2132.434	4211
2134.481	4063
2136.528	4163
2138.574	4120
2140.618	4137
2142.665	4164
2144.71	4107
2146.753	4131
2148.797	4125
2150.838	4140
2152.883	4134
2154.923	4038
2156.965	4127
2159.007	4167
2161.046	4153
2163.086	4137
2165.126	4097
2167.163	4130
2169.202	4056
2171.239	4095
2173.277	4143
2175.314	4139
2177.349	4046
2179.385	4119
2181.42	4054
2183.453	4077
2185.49	4076
2187.522	4080
2189.555	4127
2191.586	4040
2193.619	4100
2195.651	4087
2197.682	4057
2199.711	4040
2201.74	4127
2203.769	4091
2205.799	4032
2207.828	4093
2209.855	4132
2211.882	3997
2213.908	4093
2215.934	4077
2217.961	4080
2219.986	4101
2222.01	4091
2224.034	4038
2226.057	4085
2228.08	4111
2230.104	4044
2232.124	4150
2234.145	4046
2236.166	4030
2238.186	4052
2240.207	4105
2242.227	4015
2244.244	4141
2246.262	4019
2248.28	4103
2250.299	4007
2252.314	4039
2254.33	4118
2256.346	4120
2258.36	4111
2260.375	4065
2262.391	4068
2264.403	4085
2266.416	4086
2268.427	4114
2270.44	4046
2272.453	4107
2274.463	4069
2276.474	4127
2278.483	4070
2280.493	4069
2282.501	4063
2284.51	4019
2286.518	4049
2288.524	4113
2290.532	4113
2292.537	4086
2294.544	4132
2296.55	4064
2298.554	4054
2300.557	4057
2302.562	4093
2304.566	4091
2306.568	4180
2308.569	4069
2310.572	4049
2312.573	4126
2314.573	4015
2316.574	4136
2318.573	4027
2320.571	4089
2322.571	4091
2324.569	4035
2326.567	4056
2328.564	4111
2330.56	3989
2332.556	3960
2334.551	4056
2336.546	4048
2338.542	4082
2340.535	4124
2342.529	4047
2344.521	4122
2346.512	3997
2348.505	4022
2350.497	4049
2352.487	4096
2354.478	4025
2356.468	3988
2358.457	4034
2360.446	4066
2362.434	4003
2364.422	4055
2366.408	4021
2368.395	4001
2370.383	4063
2372.369	4057
2374.353	4072
2376.338	4032
2378.321	4009
2380.307	3980
2382.29	4046
2384.272	4015
2386.254	3972
2388.235	4046
2390.218	4087
2392.198	4128
2394.179	4021
2396.157	4000
2398.137	4056
2400.115	3940
2402.095	3999
2404.072	3900
2406.048	3981
2408.026	3898
2410.001	3947
2411.977	4089
2413.953	4042
2415.927	4019
2417.9	3978
2419.875	4038
2421.847	3984
2423.821	3951
2425.792	4020
2427.763	4028
2429.736	3950
2431.706	4008
2433.677	3947
2435.646	4063
2437.615	4064
2439.583	4017
2441.551	4057
2443.519	4083
2445.486	4072
2447.452	4013
2449.418	3915
2451.383	3943
2453.348	4063
2455.314	4084
2457.278	3958
2459.241	3913
2461.205	4032
2463.167	4063
2465.131	4049
2467.091	4028
2469.052	4034
2471.012	3924
2472.972	3933
2474.932	3923
2476.891	3932
2478.85	3964
2480.808	3950
2482.766	3972
2484.722	3929
2486.68	3975
2488.636	4013
2490.591	4020
2492.546	3880
2494.5	4005
2496.456	3890
2498.41	4000
2500.362	3937
2502.315	3931
2504.266	3903
2506.218	4021
2508.169	3945
2510.121	3905
2512.07	4008
2514.019	3992
2515.968	4041
2517.918	4017
2519.866	3935
2521.813	3866
2523.76	3897
2525.707	3973
2527.653	3880
2529.599	3898
2531.543	4058
2533.489	3929
2535.433	4009
2537.376	3951
2539.32	3959
2541.264	3917
2543.205	3898
2545.147	3922
2547.087	3975
2549.029	3858
2550.969	4026
2552.908	3952
2554.847	3939
2556.786	4000
2558.724	4020
2560.663	4019
2562.6	3973
2564.537	3918
2566.473	3989
2568.408	3942
2570.345	3911
2572.28	3858
2574.214	3930
2576.148	3963
2578.081	3962
2580.014	3923
2581.947	3909
2583.879	3949
2585.81	4023
2587.741	3934
2589.67	3985
2591.602	3935
2593.532	3939
2595.461	3911
2597.388	3979
2599.316	3924
2601.244	3946
2603.172	3970
2605.098	3937
2607.023	3933
2608.949	4024
2610.873	3995
2612.8	3966
2614.723	3941
2616.647	4049
2618.569	3930
2620.493	4015
2622.416	3950
2624.338	3970
2626.258	3997
2628.179	3974
2630.099	3928
2632.019	3965
2633.939	3990
2635.857	3890
2637.775	4035
2639.694	4057
2641.61	3972
2643.528	3920
2645.444	3950
2647.361	3967
2649.276	3977
2651.19	3963
2653.105	3973
2655.019	3874
2656.934	4001
2658.846	3955
2660.758	3949
2662.67	4026
2664.583	4036
2666.493	3971
2668.404	3856
2670.313	3983
2672.223	4010
2674.134	3914
2676.042	3941
2677.95	3903
2679.858	4053
2681.765	3944
2683.673	3874
2685.579	3921
2687.483	3965
2689.389	3880
2691.294	3980
2693.198	3962
2695.104	3885
2697.006	3909
2698.909	3990
2700.811	3906
2702.713	3887
2704.615	3965
2706.516	3930
2708.417	3894
2710.316	3951
2712.216	3943
2714.115	3997
2716.014	3987
2717.913	3960
2719.81	3931
2721.707	4023
2723.603	3843
2725.501	3912
2727.396	3932
2729.292	3878
2731.186	3934
2733.081	3915
2734.976	3839
2736.87	3869
2738.762	3861
2740.653	3905
2742.546	3920
2744.437	3893
2746.329	3873
2748.22	3884
2750.11	3890
2751.999	3889
2753.889	3962
2755.778	3898
2757.666	3871
2759.553	3964
2761.44	3810
2763.328	3896
2765.215	3842
2767.101	3919
2768.986	3944
2770.87	3879
2772.754	3938
2774.638	3920
2776.523	3829
2778.405	3923
2780.288	3806
2782.17	3991
2784.051	3844
2785.934	3947
2787.814	3807
2789.694	3874
2791.574	3769
2793.453	3901
2795.332	3939
2797.212	4008
2799.088	3911
2800.966	3786
2802.843	3865
2804.719	3859
2806.597	3911
2808.471	3876
2810.346	3763
2812.221	3894
2814.094	3864
2815.969	3965
2817.843	3840
2819.714	3882
2821.587	3898
2823.459	3904
2825.329	3848
2827.202	3883
2829.072	3796
2830.942	3795
2832.811	3840
2834.68	3855
2836.549	3799
2838.418	3780
2840.284	3830
2842.152	3884
2844.018	3850
2845.885	3901
2847.751	3952
2849.616	4010
2851.482	3846
2853.345	3876
2855.208	3950
2857.074	3893
2858.937	3875
2860.799	3945
2862.66	4039
2864.522	3930
2866.385	3984
2868.245	4062
2870.104	3923
2871.964	3974
2873.824	3988
2875.683	4096
2877.542	4096
2879.4	4081
2881.257	4029
2883.114	4109
2884.97	4008
2886.827	4078
2888.683	4162
2890.537	4017
2892.392	4057
2894.246	4076
2896.1	4150
2897.954	4075
2899.807	4082
2901.66	4079
2903.51	4018
2905.362	4074
2907.214	4138
2909.065	3967
2910.915	4111
2912.765	4035
2914.613	4087
2916.463	4096
2918.311	4138
2920.158	4100
2922.006	4224
2923.853	4222
2925.698	4225
2927.546	4252
2929.392	4190
2931.236	4343
2933.081	4178
2934.924	4279
2936.77	4274
2938.613	4386
2940.455	4401
2942.298	4421
2944.139	4356
2945.982	4364
2947.823	4329
2949.662	4271
2951.503	4333
2953.342	4284
2955.182	4231
2957.021	4238
2958.858	4282
2960.697	4241
2962.534	4216
2964.37	4243
2966.207	4213
2968.044	4142
2969.879	4143
2971.714	4065
2973.548	4025
2975.383	4211
2977.218	4065
2979.051	4124
2980.883	4040
2982.715	4011
2984.547	3985
2986.379	4123
2988.21	3953
2990.04	3967
2991.87	4000
2993.7	3949
2995.53	4015
2997.359	3940
2999.187	3938
3001.015	3818
3002.842	3856
3004.669	3850
3006.497	3824
3008.323	3790
3010.148	3813
3011.974	3853
3013.797	3748
3015.623	3751
3017.447	3867
3019.27	3802
3021.094	3763
3022.915	3722
3024.737	3812
3026.56	3734
3028.38	3709
3030.201	3691
3032.022	3775
3033.84	3648
3035.662	3724
3037.481	3693
3039.298	3649
3041.117	3732
3042.933	3768
3044.752	3691
3046.568	3676
3048.385	3793
3050.2	3653
3052.016	3695
3053.83	3678
3055.646	3713
3057.46	3701
3059.272	3707
3061.086	3761
3062.898	3682
3064.711	3713
3066.524	3725
3068.335	3649
3070.145	3773
3071.956	3671
3073.766	3566
3075.576	3715
3077.385	3676
3079.193	3678
3081.002	3696
3082.81	3581
3084.618	3696
3086.425	3667
3088.231	3661
3090.036	3557
3091.842	3660
3093.648	3627
3095.452	3634
3097.257	3663
3099.06	3610
3100.863	3581
3102.666	3630
3104.47	3599
3106.272	3603
3108.073	3645
3109.875	3602
3111.676	3561
3113.477	3573
3115.277	3557
3117.077	3624
3118.874	3553
3120.673	3666
3122.473	3634
3124.271	3592
3126.066	3630
3127.863	3595
3129.66	3588
3131.456	3573
3133.252	3487
3135.047	3617
3136.842	3514
3138.635	3542
3140.429	3601
3142.223	3498
3144.016	3571
3145.808	3519
3147.6	3494
3149.392	3571
3151.183	3551
3152.975	3520
3154.765	3519
3156.553	3603
3158.344	3517
3160.132	3525
3161.922	3572
3163.71	3536
3165.497	3555
3167.285	3567
3169.071	3545
3170.858	3560
3172.645	3502
3174.429	3486
3176.214	3474
3177.998	3499
3179.783	3496
3181.568	3466
3183.351	3537
3185.133	3525
3186.915	3517
3188.698	3503
3190.481	3432
3192.261	3485
3194.042	3556
3195.822	3483
3197.601	3442
3199.381	3467
3201.161	3534
3202.939	3531
3204.717	3472
3206.495	3488
3208.272	3524
3210.05	3455
3211.826	3490
3213.602	3490
3215.376	3439
3217.151	3449
3218.927	3461
3220.702	3495
3222.476	3530
3224.249	3428
3226.021	3494
3227.793	3504
3229.567	3516
3231.339	3413
3233.109	3477
3234.88	3438
3236.651	3479
3238.421	3570
3240.191	3461
3241.96	3474
3243.728	3438
3245.497	3462
3247.263	3509
3249.033	3479
3250.799	3521
3252.566	3561
3254.331	3508
3256.097	3439
3257.863	3472
3259.628	3534
3261.392	3471
3263.156	3434
3264.919	3460
3266.683	3504
3268.447	3425
3270.208	3403
3271.969	3471
3273.731	3411
3275.492	3500
3277.253	3453
3279.013	3497
3280.773	3569
3282.532	3476
3284.291	3432
3286.05	3499
3287.808	3498
3289.566	3462
3291.323	3538
3293.079	3506
3294.835	3415
3296.593	3452
3298.348	3427
3300.102	3487
3301.857	3426
3303.611	3453
3305.366	3536
3307.119	3453
3308.872	3439
3310.624	3412
3312.376	3410
3314.129	3457
3315.881	3482
3317.631	3428
3319.38	3457
3321.13	3418
3322.88	3484
3324.631	3457
3326.379	3463
3328.126	3427
3329.875	3435
3331.622	3560
3333.371	3463
3335.116	3438
3336.863	3456
3338.609	3517
3340.353	3412
3342.1	3493
3343.845	3456
3345.588	3432
3347.332	3392
3349.074	3406
3350.817	3383
3352.56	3409
3354.303	3418
3356.043	3438
3357.785	3381
3359.525	3419
3361.268	3429
3363.007	3411
3364.745	3352
3366.485	3423
3368.223	3405
3369.962	3377
3371.701	3462
3373.438	3371
3375.174	3415
3376.911	3313
3378.647	3432
3380.384	3364
3382.118	3315
3383.854	3369
3385.588	3405
3387.322	3292
3389.057	3366
3390.79	3439
3392.522	3418
3394.255	3401
3395.987	3372
3397.719	3390
3399.451	3338
3401.181	3368
3402.911	3340
3404.641	3321
3406.371	3306
3408.101	3437
3409.83	3341
3411.558	3304
3413.285	3396
3415.011	3409
3416.739	3331
3418.467	3315
3420.193	3363
3421.919	3311
3423.644	3410
3425.368	3304
3427.094	3256
3428.818	3326
3430.542	3308
3432.264	3316
3433.987	3347
3435.712	3276
3437.434	3347
3439.155	3326
3440.876	3307
3442.596	3312
3444.317	3286
3446.039	3368
3447.757	3307
3449.477	3275
3451.195	3276
3452.914	3368
3454.632	3298
3456.35	3288
3458.067	3193
3459.784	3216
3461.5	3293
3463.216	3250
3464.932	3325
3466.647	3204
3468.362	3225
3470.076	3231
3471.789	3209
3473.505	3278
3475.217	3159
3476.929	3289
3478.641	3215
3480.354	3201
3482.066	3222
3483.777	3269
3485.487	3140
3487.197	3222
3488.908	3214
3490.617	3238
3492.327	3175
3494.035	3199
3495.743	3175
3497.451	3241
3499.158	3180
3500.866	3167
3502.572	3203
3504.278	3164
3505.984	3218
3507.689	3106
3509.396	3191
3511.1	3169
3512.804	3230
3514.508	3168
3516.211	3188
3517.913	3233
3519.616	3222
3521.319	3234
3523.021	3215
3524.722	3173
3526.422	3118
3528.124	3233
3529.824	3181
3531.524	3218
3533.222	3107
3534.921	3148
3536.62	3195
3538.318	3131
3540.016	3090
3541.714	3125
3543.41	3160
3545.107	3197
3546.803	3198
3548.5	3116
3550.194	3132
3551.889	3111
3553.583	3075
3555.279	3089
3556.972	3095
3558.666	3210
3560.358	3152
3562.051	3141
3563.742	3126
3565.435	3149
3567.126	3178
3568.817	3104
3570.507	3137
3572.197	3113
3573.888	3093
3575.577	3143
3577.265	3072
3578.954	3112
3580.642	3092
3582.329	3169
3584.017	3130
3585.704	3032
3587.391	2997
3589.077	3067
3590.762	3097
3592.449	3117
3594.133	3076
3595.817	3057
3597.501	3098
3599.185	3136
3600.869	3056
3602.552	3022
3604.234	3024
3605.916	3012
3607.598	3038
3609.279	2974
3610.961	3059
3612.642	2927
3614.321	3048
3616	2983
3617.68	3033
3619.36	3029
3621.039	2983
3622.716	3009
3624.394	2936
3626.071	3027
3627.748	3017
3629.425	3040
3631.102	2958
3632.778	2999
3634.452	2970
3636.127	2974
3637.803	2994
3639.477	3039
3641.151	2956
3642.823	2921
3644.497	2991
3646.171	2948
3647.842	2908
3649.515	2958
3651.185	2965
3652.857	2983
3654.527	2937
3656.198	2971
3657.868	2871
3659.537	2947
3661.207	2979
3662.875	2913
3664.544	2895
3666.212	2910
3667.879	2965
3669.546	2956
3671.212	2944
3672.88	2965
3674.546	2880
3676.211	2932
3677.875	3029
3679.541	2958
3681.205	2920
3682.87	2922
3684.533	2888
3686.196	2872
3687.859	2930
3689.521	2936
3691.184	2917
3692.845	2936
3694.507	2911
3696.167	2856
3697.827	2910
3699.487	2988
3701.148	2907
3702.808	2972
3704.466	2933
3706.125	2911
3707.783	2882
3709.442	2932
3711.099	2893
3712.757	2933
3714.412	2851
3716.068	2914
3717.725	2881
3719.381	2940
3721.036	2873
3722.689	2878
3724.344	2878
3725.998	2807
3727.652	2899
3729.305	2860
3730.958	2785
3732.61	2873
3734.262	2947
3735.915	2809
3737.565	2866
3739.217	2854
3740.866	2824
3742.516	2849
3744.165	2838
3745.816	2846
3747.464	2896
3749.113	2827
3750.761	2915
3752.409	2838
3754.057	2815
3755.703	2847
3757.35	2883
3758.996	2812
3760.641	2905
3762.289	2819
3763.933	2820
3765.577	2884
3767.222	2829
3768.865	2774
3770.508	2769
3772.152	2855
3773.796	2820
3775.438	2801
3777.079	2737
3778.721	2803
3780.363	2740
3782.003	2818
3783.643	2786
3785.283	2765
3786.923	2824
3788.563	2745
3790.203	2757
3791.841	2774
3793.479	2818
3795.115	2800
3796.753	2799
3798.391	2732
3800.027	2850
3801.664	2765
3803.299	2742
3804.935	2800
3806.571	2854
3808.206	2683
3809.839	2742
3811.473	2772
3813.107	2792
3814.74	2827
3816.375	2738
3818.006	2713
3819.638	2747
3821.27	2834
3822.9	2731
3824.532	2748
3826.163	2749
3827.792	2746
3829.423	2724
3831.051	2727
3832.682	2771
3834.311	2751
3835.938	2747
3837.566	2700
3839.193	2775
3840.821	2762
3842.448	2673
3844.075	2690
3845.7	2763
3847.325	2729
3848.951	2682
3850.576	2685
3852.201	2718
3853.825	2748
3855.448	2665
3857.072	2663
3858.694	2726
3860.318	2681
3861.939	2779
3863.562	2741
3865.183	2717
3866.804	2690
3868.426	2665
3870.045	2715
3871.666	2684
3873.285	2672
3874.904	2686
3876.524	2652
3878.142	2666
3879.76	2717
3881.378	2611
3882.995	2673
3884.612	2687
3886.229	2702
3887.845	2657
3889.461	2628
3891.076	2676
3892.691	2641
3894.307	2667
3895.922	2692
3897.536	2615
3899.149	2643
3900.761	2645
3902.374	2653
3903.988	2635
3905.6	2611
3907.212	2711
3908.822	2611
3910.433	2646
3912.045	2654
3913.655	2705
3915.265	2617
3916.875	2664
3918.483	2600
3920.093	2627
3921.702	2686
3923.309	2658
3924.917	2631
3926.523	2632
3928.13	2602
3929.739	2664
3931.344	2643
3932.95	2606
3934.555	2656
3936.159	2554
3937.766	2645
3939.369	2599
3940.974	2563
3942.577	2697
3944.181	2672
3945.783	2554
3947.386	2668
3948.989	2634
3950.59	2611
3952.191	2636
3953.791	2612
3955.394	2575
3956.994	2603
3958.593	2488
3960.192	2629
3961.791	2621
3963.392	2614
3964.99	2563
3966.588	2571
3968.185	2595
3969.782	2587
3971.379	2603
3972.976	2599
3974.572	2540
3976.168	2574
3977.763	2594
3979.358	2561
3980.954	2518
3982.548	2526
3984.142	2596
3985.736	2505
3987.329	2522
3988.922	2514
3990.516	2579
3992.108	2524
3993.698	2547
3995.29	2491
3996.881	2508
3998.473	2521
4000.064	2537
4001.653	2497
4003.242	2485
4004.832	2532
4006.422	2519
4008.01	2468
4009.598	2492
4011.186	2500
4012.773	2529
4014.36	2500
4015.947	2507
4017.534	2492
4019.119	2538
4020.705	2476
4022.291	2492
4023.876	2533
4025.461	2511
4027.044	2542
4028.627	2483
4030.211	2515
4031.795	2544
4033.378	2435
4034.96	2434
4036.542	2486
4038.124	2469
4039.704	2443
4041.286	2514
4042.867	2489
4044.447	2468
4046.026	2521
4047.606	2469
4049.187	2473
4050.765	2533
4052.343	2497
4053.92	2452
4055.498	2441
4057.076	2452
4058.654	2400
4060.23	2464
4061.806	2379
4063.381	2469
4064.957	2456
4066.533	2410
4068.107	2429
4069.682	2414
4071.256	2471
4072.829	2466
4074.404	2422
4075.977	2420
4077.549	2425
4079.121	2469
4080.693	2407
4082.265	2413
4083.836	2346
4085.407	2422
4086.977	2376
4088.547	2431
4090.117	2418
4091.687	2426
4093.256	2428
4094.825	2465
4096.392	2389
4097.96	2425
4099.528	2404
4101.097	2385
4102.663	2410
4104.229	2312
4105.795	2447
4107.361	2381
4108.928	2398
4110.493	2364
4112.058	2378
4113.621	2347
4115.186	2338
4116.75	2337
4118.313	2389
4119.876	2353
4121.438	2368
4123	2363
4124.562	2359
4126.125	2373
4127.686	2353
4129.246	2292
4130.807	2313
4132.367	2356
4133.927	2369
4135.486	2334
4137.046	2353
4138.604	2355
4140.162	2353
4141.72	2271
4143.279	2301
4144.836	2346
4146.393	2340
4147.949	2344
4149.505	2248
4151.062	2399
4152.617	2288
4154.172	2307
4155.727	2226
4157.281	2313
4158.836	2245
4160.39	2337
4161.943	2342
4163.496	2287
4165.048	2330
4166.601	2308
4168.154	2313
4169.706	2299
4171.257	2306
4172.808	2284
4174.358	2261
4175.909	2332
4177.458	2259
4179.008	2243
4180.558	2275
4182.106	2280
4183.655	2282
4185.204	2231
4186.751	2297
4188.298	2249
4189.845	2273
4191.392	2248
4192.939	2247
4194.485	2271
4196.031	2281
4197.576	2246
4199.121	2263
4200.666	2227
4202.211	2278
4203.754	2250
4205.298	2284
4206.84	2276
4208.384	2219
4209.927	2233
4211.47	2247
4213.011	2255
4214.552	2203
4216.094	2198
4217.635	2199
4219.175	2224
4220.716	2233
4222.255	2168
4223.793	2224
4225.335	2212
4226.873	2212
4228.411	2210
4229.948	2182
4231.486	2225
4233.024	2192
4234.562	2174
4236.098	2299
4237.634	2220
4239.169	2235
4240.705	2202
4242.241	2219
4243.776	2208
4245.31	2254
4246.844	2205
4248.378	2196
4249.911	2198
4251.445	2228
4252.978	2182
4254.51	2159
4256.042	2261
4257.574	2229
4259.107	2140
4260.638	2174
4262.169	2207
4263.699	2213
4265.228	2179
4266.759	2236
4268.289	2141
4269.818	2172
4271.345	2219
4272.874	2194
4274.402	2156
4275.931	2192
4277.458	2213
4278.985	2148
4280.512	2205
4282.037	2170
4283.564	2193
4285.089	2148
4286.615	2177
4288.139	2228
4289.664	2203
4291.187	2145
4292.712	2197
4294.235	2126
4295.759	2117
4297.281	2154
4298.804	2122
4300.327	2106
4301.849	2113
4303.37	2127
4304.891	2115
4306.412	2124
4307.933	2169
4309.453	2125
4310.973	2106
4312.492	2178
