398.1873	3747
400.7097	3810
403.2336	3778
405.7547	3799
408.2751	3854
410.7948	3887
413.3138	3779
415.83	3859
418.3497	3920
420.8666	3910
423.3829	3952
425.8985	3966
428.4133	3980
430.9275	3881
433.441	4035
435.9538	4022
438.4639	3906
440.9753	4004
443.4881	4011
445.9982	4019
448.5055	4027
451.0142	4009
453.5201	4009
456.0274	4034
458.5361	4038
461.04	3999
463.5453	4018
466.0478	4016
468.5517	4115
471.0549	3994
473.5574	4028
476.0572	4106
478.5584	4101
481.0568	4079
483.5545	4054
486.0557	4042
488.5521	4067
491.0478	4149
493.5449	4130
496.0392	4111
498.5349	4115
501.0299	4041
503.5222	4144
506.0139	4164
508.5048	4111
510.9991	4178
513.4887	4116
515.9777	4193
518.4659	4186
520.9534	4141
523.4403	4183
525.9306	4222
528.4161	4112
530.9009	4133
533.3851	4154
535.8687	4256
538.3535	4278
540.8356	4179
543.3171	4211
545.7979	4127
548.278	4184
550.7595	4136
553.2383	4237
555.7144	4215
558.1918	4183
560.6685	4278
563.1446	4194
565.6221	4301
568.0968	4217
570.5688	4239
573.0422	4349
575.515	4270
577.989	4469
580.4584	4415
582.9291	4333
585.3991	4341
587.8685	4345
590.3352	4379
592.8052	4398
595.2706	4389
597.7372	4350
600.2033	4286
602.6666	4319
605.1334	4285
607.5953	4228
610.0587	4296
612.5193	4280
614.9814	4371
617.4427	4320
619.9034	4307
622.3615	4333
624.8208	4266
627.2775	4217
629.7335	4372
632.1929	4274
634.6476	4314
637.1016	4319
639.5569	4356
642.0096	4314
644.4637	4244
646.9151	4408
649.3678	4279
651.8179	4321
654.2672	4386
656.7159	4311
659.166	4415
661.6154	4475
664.0622	4412
666.5082	4476
668.9537	4429
671.4005	4381
673.8445	4374
676.288	4395
678.7308	4507
681.1729	4437
683.6163	4512
686.0572	4512
688.4973	4421
690.9368	4362
693.3757	4499
695.8138	4395
698.2534	4441
700.6902	4404
703.1245	4501
705.56	4511
707.9949	4488
710.4311	4504
712.8647	4467
715.2957	4558
717.7279	4545
720.1595	4497
722.5905	4560
725.0208	4576
727.4505	4565
729.8795	4592
732.3058	4667
734.7336	4578
737.1626	4582
739.587	4578
742.0128	4614
744.4359	4704
746.8604	4665
749.2841	4648
751.7073	4765
754.1278	4673
756.5496	4754
758.9688	4751
761.3893	4703
763.8093	4711
766.2285	4782
768.6451	4785
771.0611	4762
773.4784	4663
775.895	4847
778.3091	4757
780.7244	4763
783.1371	4796
785.5493	4749
787.9626	4750
790.3754	4737
792.7856	4777
795.1951	4765
797.6039	4673
800.0121	4730
802.4236	4752
804.8306	4853
807.2369	4699
809.6425	4818
812.0475	4768
814.4538	4850
816.8575	4809
819.2606	4848
821.663	4840
824.0648	4904
826.4659	4927
828.8683	4879
831.2682	4875
833.6674	4791
836.066	4824
838.4639	4839
840.8632	4874
843.2579	4920
845.6539	4877
848.0493	4876
850.444	5000
852.84	5005
855.2315	4889
857.6243	4984
860.0165	5082
862.4081	4944
864.797	4820
867.1892	5011
869.5789	4896
871.9659	4965
874.3542	4991
876.74	4972
879.129	4908
881.5155	4916
883.8994	4920
886.2845	4942
888.6671	4942
891.051	4823
893.4343	4916
895.8169	4919
898.197	4866
900.5783	4963
902.9571	4947
905.3372	4909
907.7167	4978
910.0936	4933
912.4698	5029
914.8474	5081
917.2244	5024
919.5987	5074
921.9744	5074
924.3475	5067
926.72	5203
929.0918	5057
931.4669	5090
933.8375	5028
936.2074	5168
938.5767	5312
940.9454	5269
943.3154	5307
945.6829	5561
948.0497	5527
950.4178	5562
952.7833	5805
955.1483	6053
957.5145	6078
959.8782	6287
962.2412	6312
964.6036	6076
966.9655	6003
969.3266	5698
971.6871	5567
974.0471	5495
976.4064	5250
978.765	5183
981.125	5266
983.4824	5082
985.8373	5128
988.1935	5107
990.549	5067
992.9039	5137
995.2602	5089
997.6119	5067
999.965	5127
1002.317	5086
1004.667	5074
1007.02	5105
1009.371	5144
1011.719	5081
1014.068	5071
1016.415	5048
1018.765	5082
1021.111	5155
1023.458	5155
1025.804	5159
1028.147	5231
1030.49	5123
1032.837	5146
1035.179	5242
1037.522	5187
1039.862	5242
1042.204	5255
1044.546	5107
1046.884	5210
1049.224	5244
1051.562	5172
1053.899	5190
1056.237	5198
1058.575	5295
1060.91	5159
1063.244	5357
1065.58	5266
1067.913	5353
1070.248	5399
1072.579	5306
1074.911	5332
1077.242	5337
1079.572	5260
1081.905	5282
1084.234	5241
1086.562	5184
1088.89	5266
1091.217	5177
1093.544	5209
1095.871	5125
1098.197	5145
1100.521	5187
1102.845	5213
1105.169	5279
1107.491	5315
1109.814	5264
1112.135	5238
1114.456	5175
1116.776	5227
1119.096	5203
1121.415	5233
1123.734	5334
1126.052	5138
1128.369	5245
1130.686	5203
1133.002	5244
1135.318	5291
1137.632	5198
1139.945	5332
1142.258	5137
1144.573	5267
1146.884	5253
1149.196	5234
1151.505	5265
1153.816	5253
1156.124	5328
1158.435	5273
1160.742	5255
1163.051	5240
1165.356	5198
1167.663	5165
1169.97	5205
1172.276	5252
1174.579	5223
1176.881	5196
1179.186	5192
1181.487	5168
1183.79	5287
1186.092	5280
1188.392	5284
1190.691	5282
1192.991	5278
1195.291	5206
1197.588	5285
1199.885	5208
1202.181	5266
1204.479	5218
1206.775	5195
1209.07	5222
1211.363	5272
1213.656	5220
1215.949	5254
1218.241	5194
1220.534	5301
1222.825	5281
1225.115	5269
1227.405	5203
1229.693	5422
1231.984	5292
1234.271	5445
1236.558	5494
1238.845	5336
1241.131	5434
1243.416	5394
1245.703	5365
1247.987	5553
1250.269	5491
1252.552	5460
1254.834	5533
1257.118	5474
1259.399	5415
1261.678	5461
1263.958	5415
1266.237	5443
1268.516	5455
1270.794	5447
1273.072	5426
1275.347	5425
1277.624	5401
1279.899	5471
1282.175	5481
1284.449	5301
1286.722	5395
1288.995	5422
1291.266	5352
1293.54	5284
1295.81	5371
1298.081	5338
1300.35	5367
1302.62	5273
1304.889	5312
1307.156	5303
1309.425	5350
1311.69	5323
1313.957	5398
1316.222	5376
1318.488	5346
1320.751	5389
1323.016	5359
1325.278	5442
1327.54	5359
1329.803	5447
1332.065	5414
1334.325	5409
1336.584	5369
1338.843	5455
1341.101	5399
1343.36	5421
1345.617	5425
1347.876	5457
1350.131	5358
1352.387	5344
1354.643	5444
1356.897	5462
1359.151	5416
1361.403	5349
1363.656	5494
1365.909	5415
1368.16	5344
1370.409	5442
1372.659	5384
1374.909	5398
1377.157	5385
1379.407	5417
1381.655	5485
1383.9	5501
1386.147	5516
1388.393	5536
1390.64	5388
1392.885	5540
1395.127	5451
1397.37	5444
1399.614	5518
1401.854	5458
1404.098	5499
1406.339	5457
1408.578	5540
1410.818	5496
1413.056	5555
1415.297	5471
1417.533	5478
1419.771	5507
1422.006	5551
1424.243	5533
1426.479	5523
1428.715	5488
1430.948	5618
1433.182	5559
1435.414	5558
1437.647	5635
1439.88	5538
1442.11	5506
1444.342	5764
1446.571	5644
1448.799	5756
1451.029	5603
1453.258	5781
1455.485	5693
1457.711	5667
1459.937	5611
1462.164	5746
1464.39	5688
1466.614	5673
1468.838	5521
1471.06	5608
1473.283	5475
1475.506	5627
1477.727	5459
1479.949	5568
1482.169	5531
1484.389	5465
1486.609	5484
1488.828	5453
1491.045	5467
1493.261	5462
1495.477	5385
1497.693	5445
1499.91	5503
1502.125	5411
1504.339	5472
1506.553	5363
1508.766	5366
1510.979	5502
1513.191	5417
1515.402	5365
1517.613	5482
1519.823	5405
1522.033	5372
1524.242	5573
1526.451	5356
1528.657	5428
1530.865	5530
1533.072	5470
1535.278	5372
1537.484	5433
1539.687	5441
1541.892	5398
1544.096	5448
1546.299	5453
1548.502	5560
1550.703	5431
1552.905	5512
1555.104	5390
1557.303	5498
1559.505	5635
1561.703	5513
1563.902	5585
1566.099	5562
1568.295	5508
1570.494	5564
1572.689	5729
1574.883	5544
1577.079	5631
1579.272	5553
1581.467	5617
1583.659	5674
1585.853	5641
1588.044	5642
1590.234	5604
1592.424	5573
1594.615	5631
1596.806	5635
1598.994	5533
1601.182	5548
1603.369	5650
1605.557	5661
1607.744	5614
1609.929	5633
1612.114	5738
1614.298	5710
1616.482	5667
1618.667	5796
1620.85	5766
1623.032	5662
1625.214	5666
1627.395	5654
1629.575	5610
1631.755	5692
1633.935	5690
1636.114	5773
1638.292	5753
1640.471	5654
1642.647	5688
1644.823	5763
1647	5702
1649.175	5703
1651.348	5753
1653.525	5727
1655.698	5764
1657.87	5846
1660.043	5817
1662.213	5756
1664.387	5670
1666.558	5797
1668.727	5763
1670.896	5804
1673.064	5743
1675.233	5768
1677.401	5710
1679.569	5836
1681.735	5819
1683.902	5785
1686.066	5652
1688.233	5835
1690.397	5724
1692.559	5732
1694.723	5736
1696.885	5732
1699.048	5637
1701.21	5661
1703.37	5702
1705.53	5741
1707.689	5793
1709.849	5603
1712.009	5618
1714.166	5646
1716.323	5645
1718.479	5604
1720.634	5665
1722.793	5663
1724.948	5709
1727.102	5620
1729.255	5622
1731.408	5716
1733.562	5702
1735.714	5614
1737.865	5649
1740.016	5654
1742.166	5709
1744.316	5708
1746.467	5624
1748.616	5675
1750.764	5608
1752.911	5707
1755.056	5750
1757.205	5584
1759.35	5692
1761.496	5733
1763.641	5630
1765.785	5749
1767.927	5817
1770.072	5844
1772.214	5737
1774.355	5768
1776.496	5672
1778.637	5743
1780.778	5761
1782.918	5762
1785.057	5757
1787.194	5724
1789.333	5711
1791.472	5746
1793.608	5711
1795.745	5772
1797.879	5728
1800.015	5704
1802.148	5769
1804.284	5699
1806.417	5695
1808.548	5618
1810.682	5719
1812.812	5794
1814.946	5643
1817.075	5834
1819.205	5579
1821.335	5693
1823.463	5759
1825.59	5748
1827.721	5703
1829.847	5676
1831.973	5838
1834.098	5676
1836.223	5645
1838.351	5629
1840.475	5723
1842.598	5771
1844.721	5638
1846.843	5674
1848.966	5752
1851.087	5704
1853.21	5652
1855.33	5711
1857.449	5655
1859.568	5674
1861.688	5722
1863.806	5750
1865.924	5758
1868.039	5851
1870.155	5645
1872.273	5569
1874.388	5711
1876.503	5693
1878.617	5645
1880.73	5682
1882.844	5695
1884.956	5708
1887.068	5789
1889.18	5678
1891.291	5767
1893.4	5841
1895.511	5697
1897.621	5691
1899.73	5780
1901.837	5799
1903.944	5743
1906.053	5805
1908.159	5741
1910.265	5764
1912.369	5720
1914.474	5788
1916.577	5853
1918.683	5779
1920.785	5847
1922.888	5730
1924.989	5696
1927.091	5755
1929.193	5815
1931.294	5867
1933.393	5808
1935.493	5765
1937.59	5780
1939.689	5901
1941.788	5811
1943.884	5774
1945.98	5795
1948.077	5866
1950.171	5882
1952.267	5730
1954.361	5846
1956.455	5819
1958.548	5876
1960.64	5817
1962.733	5735
1964.824	5675
1966.915	5802
1969.005	5785
1971.096	5814
1973.185	5843
1975.275	5776
1977.363	5839
1979.45	5717
1981.537	5797
1983.623	5818
1985.711	5697
1987.796	5750
1989.881	5696
1991.965	5745
1994.047	5754
1996.132	5795
1998.215	5678
2000.297	5758
2002.378	5755
2004.46	5772
2006.54	5737
2008.62	5820
2010.7	5725
2012.779	5663
2014.858	5730
2016.934	5784
2019.013	5772
2021.09	5705
2023.165	5762
2025.241	5718
2027.317	5845
2029.39	5756
2031.466	5820
2033.538	5743
2035.612	5785
2037.683	5665
2039.755	5681
2041.827	5748
2043.898	5708
2045.968	5765
2048.038	5823
2050.106	5811
2052.177	5687
2054.244	5762
2056.313	5735
2058.379	5824
2060.444	5790
2062.511	5738
2064.577	5843
2066.641	5845
2068.705	5742
2070.77	5886
2072.832	5748
2074.896	5752
2076.958	5861
2079.02	5662
2081.081	5817
2083.141	5698
2085.2	5731
2087.261	5786
2089.319	5779
2091.377	5821
2093.435	5888
2095.492	5773
2097.552	5817
2099.607	5704
2101.663	5800
2103.718	5815
2105.771	5827
2107.826	5812
2109.879	5838
2111.932	5803
2113.985	5705
2116.037	5811
2118.088	5802
2120.141	5731
2122.191	5836
2124.239	5814
2126.288	5860
2128.337	5790
2130.387	5808
2132.434	5745
2134.481	5808
2136.528	5694
2138.574	5843
2140.618	5796
2142.665	5810
2144.71	5752
2146.753	5799
2148.797	5729
2150.838	5677
2152.883	5783
2154.923	5747
2156.965	5866
2159.007	5772
2161.046	5706
2163.086	5809
2165.126	5686
2167.163	5723
2169.202	5736
2171.239	5765
2173.277	5682
2175.314	5717
2177.349	5769
2179.385	5707
2181.42	5720
2183.453	5627
2185.49	5678
2187.522	5707
2189.555	5755
2191.586	5657
2193.619	5669
2195.651	5587
2197.682	5658
2199.711	5672
2201.74	5630
2203.769	5599
2205.799	5574
2207.828	5673
2209.855	5748
2211.882	5653
2213.908	5611
2215.934	5609
2217.961	5616
2219.986	5640
2222.01	5716
2224.034	5573
2226.057	5629
2228.08	5686
2230.104	5699
2232.124	5705
2234.145	5740
2236.166	5525
2238.186	5660
2240.207	5699
2242.227	5758
2244.244	5559
2246.262	5656
2248.28	5706
2250.299	5569
2252.314	5654
2254.33	5716
2256.346	5564
2258.36	5588
2260.375	5675
2262.391	5614
2264.403	5755
2266.416	5724
2268.427	5745
2270.44	5681
2272.453	5730
2274.463	5709
2276.474	5740
2278.483	5681
2280.493	5760
2282.501	5722
2284.51	5708
2286.518	5608
2288.524	5642
2290.532	5630
2292.537	5732
2294.544	5637
2296.55	5635
2298.554	5664
2300.557	5579
2302.562	5557
2304.566	5640
2306.568	5736
2308.569	5635
2310.572	5684
2312.573	5671
2314.573	5601
2316.574	5620
2318.573	5602
2320.571	5608
2322.571	5603
2324.569	5604
2326.567	5588
2328.564	5623
2330.56	5575
2332.556	5613
2334.551	5603
2336.546	5625
2338.542	5542
2340.535	5550
2342.529	5569
2344.521	5648
2346.512	5564
2348.505	5488
2350.497	5680
2352.487	5537
2354.478	5458
2356.468	5550
2358.457	5445
2360.446	5617
2362.434	5574
2364.422	5555
2366.408	5631
2368.395	5502
2370.383	5527
2372.369	5574
2374.353	5587
2376.338	5544
2378.321	5495
2380.307	5655
2382.29	5540
2384.272	5553
2386.254	5558
2388.235	5618
2390.218	5552
2392.198	5457
2394.179	5560
2396.157	5542
2398.137	5613
2400.115	5545
2402.095	5406
2404.072	5416
2406.048	5530
2408.026	5508
2410.001	5578
2411.977	5522
2413.953	5583
2415.927	5597
2417.9	5509
2419.875	5422
2421.847	5465
2423.821	5611
2425.792	5466
2427.763	5508
2429.736	5510
2431.706	5490
2433.677	5551
2435.646	5492
2437.615	5493
2439.583	5473
2441.551	5527
2443.519	5507
2445.486	5577
2447.452	5567
2449.418	5531
2451.383	5519
2453.348	5506
2455.314	5511
2457.278	5440
2459.241	5599
2461.205	5362
2463.167	5434
2465.131	5493
2467.091	5531
2469.052	5470
2471.012	5428
2472.972	5480
2474.932	5409
2476.891	5495
2478.85	5430
2480.808	5511
2482.766	5560
2484.722	5374
2486.68	5529
2488.636	5511
2490.591	5362
2492.546	5464
2494.5	5358
2496.456	5336
2498.41	5438
2500.362	5437
2502.315	5347
2504.266	5488
2506.218	5448
2508.169	5387
2510.121	5461
2512.07	5365
2514.019	5377
2515.968	5457
2517.918	5399
2519.866	5439
2521.813	5385
2523.76	5425
2525.707	5445
2527.653	5404
2529.599	5356
2531.543	5439
2533.489	5350
2535.433	5391
2537.376	5434
2539.32	5485
2541.264	5401
2543.205	5349
2545.147	5476
2547.087	5390
2549.029	5452
2550.969	5432
2552.908	5360
2554.847	5376
2556.786	5421
2558.724	5373
2560.663	5418
2562.6	5392
2564.537	5398
2566.473	5400
2568.408	5404
2570.345	5395
2572.28	5470
2574.214	5419
2576.148	5344
2578.081	5377
2580.014	5357
2581.947	5429
2583.879	5407
2585.81	5317
2587.741	5476
2589.67	5433
2591.602	5419
2593.532	5441
2595.461	5365
2597.388	5383
2599.316	5379
2601.244	5414
2603.172	5479
2605.098	5467
2607.023	5437
2608.949	5348
2610.873	5467
2612.8	5403
2614.723	5389
2616.647	5372
2618.569	5456
2620.493	5450
2622.416	5328
2624.338	5428
2626.258	5414
2628.179	5465
2630.099	5430
2632.019	5394
2633.939	5442
2635.857	5480
2637.775	5376
2639.694	5340
2641.61	5444
2643.528	5387
2645.444	5507
2647.361	5405
2649.276	5365
2651.19	5465
2653.105	5440
2655.019	5441
2656.934	5406
2658.846	5471
2660.758	5453
2662.67	5434
2664.583	5436
2666.493	5531
2668.404	5365
2670.313	5464
2672.223	5425
2674.134	5425
2676.042	5277
2677.95	5354
2679.858	5331
2681.765	5340
2683.673	5399
2685.579	5429
2687.483	5417
2689.389	5380
2691.294	5435
2693.198	5328
2695.104	5335
2697.006	5332
2698.909	5391
2700.811	5349
2702.713	5387
2704.615	5400
2706.516	5369
2708.417	5373
2710.316	5398
2712.216	5333
2714.115	5365
2716.014	5317
2717.913	5235
2719.81	5358
2721.707	5491
2723.603	5340
2725.501	5376
2727.396	5328
2729.292	5379
2731.186	5272
2733.081	5275
2734.976	5333
2736.87	5314
2738.762	5300
2740.653	5294
2742.546	5391
2744.437	5336
2746.329	5258
2748.22	5353
2750.11	5318
2751.999	5311
2753.889	5366
2755.778	5381
2757.666	5310
2759.553	5163
2761.44	5303
2763.328	5294
2765.215	5308
2767.101	5306
2768.986	5432
2770.87	5340
2772.754	5294
2774.638	5345
2776.523	5256
2778.405	5368
2780.288	5322
2782.17	5311
2784.051	5297
2785.934	5188
2787.814	5279
2789.694	5350
2791.574	5325
2793.453	5247
2795.332	5409
2797.212	5232
2799.088	5292
2800.966	5283
2802.843	5300
2804.719	5219
2806.597	5213
2808.471	5184
2810.346	5217
2812.221	5195
2814.094	5226
2815.969	5206
2817.843	5227
2819.714	5267
2821.587	5253
2823.459	5247
2825.329	5262
2827.202	5264
2829.072	5292
2830.942	5237
2832.811	5206
2834.68	5264
2836.549	5266
2838.418	5188
2840.284	5277
2842.152	5224
2844.018	5257
2845.885	5269
2847.751	5245
2849.616	5276
2851.482	5233
2853.345	5261
2855.208	5340
2857.074	5328
2858.937	5387
2860.799	5358
2862.66	5327
2864.522	5335
2866.385	5313
2868.245	5458
2870.104	5503
2871.964	5458
2873.824	5525
2875.683	5505
2877.542	5669
2879.4	5537
2881.257	5651
2883.114	5587
2884.97	5636
2886.827	5588
2888.683	5604
2890.537	5574
2892.392	5678
2894.246	5616
2896.1	5572
2897.954	5712
2899.807	5538
2901.66	5577
2903.51	5529
2905.362	5488
2907.214	5613
2909.065	5679
2910.915	5606
2912.765	5567
2914.613	5673
2916.463	5873
2918.311	5869
2920.158	5791
2922.006	5757
2923.853	5833
2925.698	5862
2927.546	6003
2929.392	5962
2931.236	5898
2933.081	6142
2934.924	6141
2936.77	6129
2938.613	6102
2940.455	6276
2942.298	6141
2944.139	6242
2945.982	6244
2947.823	6231
2949.662	6104
2951.503	6203
2953.342	6047
2955.182	5950
2957.021	6028
2958.858	5976
2960.697	5926
2962.534	5852
2964.37	5927
2966.207	5840
2968.044	5767
2969.879	5719
2971.714	5680
2973.548	5652
2975.383	5634
2977.218	5651
2979.051	5781
2980.883	5788
2982.715	5618
2984.547	5568
2986.379	5633
2988.21	5591
2990.04	5652
2991.87	5548
2993.7	5539
2995.53	5486
2997.359	5448
2999.187	5376
3001.015	5462
3002.842	5361
3004.669	5337
3006.497	5295
3008.323	5206
3010.148	5223
3011.974	5305
3013.797	5316
3015.623	5177
3017.447	5144
3019.27	5112
3021.094	5148
3022.915	5125
3024.737	5164
3026.56	5094
3028.38	5219
3030.201	5052
3032.022	5061
3033.84	4958
3035.662	4985
3037.481	4953
3039.298	5002
3041.117	5083
3042.933	4940
3044.752	5010
3046.568	5076
3048.385	4988
3050.2	5038
3052.016	4981
3053.83	5047
3055.646	4967
3057.46	4940
3059.272	4949
3061.086	4989
3062.898	4994
3064.711	5003
3066.524	5055
3068.335	5029
3070.145	5046
3071.956	4832
3073.766	4961
3075.576	4921
3077.385	4906
3079.193	5014
3081.002	5043
3082.81	4922
3084.618	4951
3086.425	4855
3088.231	4913
3090.036	4868
3091.842	4830
3093.648	4942
3095.452	4880
3097.257	4911
3099.06	4918
3100.863	4900
3102.666	4862
3104.47	4859
3106.272	4791
3108.073	4850
3109.875	4898
3111.676	4870
3113.477	4869
3115.277	4823
3117.077	4910
3118.874	4781
3120.673	4842
3122.473	4852
3124.271	4804
3126.066	4824
3127.863	4861
3129.66	4884
3131.456	4798
3133.252	4868
3135.047	4843
3136.842	4857
3138.635	4742
3140.429	4840
3142.223	4819
3144.016	4795
3145.808	4723
3147.6	4765
3149.392	4761
3151.183	4804
3152.975	4786
3154.765	4741
3156.553	4730
3158.344	4780
3160.132	4804
3161.922	4753
3163.71	4761
3165.497	4677
3167.285	4766
3169.071	4702
3170.858	4802
3172.645	4768
3174.429	4762
3176.214	4747
3177.998	4718
3179.783	4722
3181.568	4773
3183.351	4710
3185.133	4703
3186.915	4687
3188.698	4728
3190.481	4750
3192.261	4702
3194.042	4729
3195.822	4587
3197.601	4658
3199.381	4699
3201.161	4737
3202.939	4721
3204.717	4723
3206.495	4743
3208.272	4718
3210.05	4746
3211.826	4644
3213.602	4774
3215.376	4624
3217.151	4770
3218.927	4734
3220.702	4648
3222.476	4679
3224.249	4665
3226.021	4634
3227.793	4714
3229.567	4733
3231.339	4656
3233.109	4662
3234.88	4712
3236.651	4675
3238.421	4640
3240.191	4687
3241.96	4667
3243.728	4719
3245.497	4611
3247.263	4699
3249.033	4667
3250.799	4689
3252.566	4667
3254.331	4653
3256.097	4685
3257.863	4712
3259.628	4633
3261.392	4697
3263.156	4678
3264.919	4698
3266.683	4630
3268.447	4733
3270.208	4733
3271.969	4676
3273.731	4626
3275.492	4726
3277.253	4770
3279.013	4691
3280.773	4712
3282.532	4729
3284.291	4753
3286.05	4767
3287.808	4697
3289.566	4659
3291.323	4663
3293.079	4700
3294.835	4598
3296.593	4638
3298.348	4600
3300.102	4651
3301.857	4682
3303.611	4640
3305.366	4694
3307.119	4665
3308.872	4678
3310.624	4627
3312.376	4678
3314.129	4563
3315.881	4657
3317.631	4600
3319.38	4604
3321.13	4650
3322.88	4604
3324.631	4672
3326.379	4662
3328.126	4627
3329.875	4695
3331.622	4669
3333.371	4712
3335.116	4591
3336.863	4689
3338.609	4710
3340.353	4574
3342.1	4589
3343.845	4630
3345.588	4616
3347.332	4598
3349.074	4633
3350.817	4651
3352.56	4618
3354.303	4570
3356.043	4618
3357.785	4626
3359.525	4621
3361.268	4520
3363.007	4594
3364.745	4562
3366.485	4579
3368.223	4603
3369.962	4623
3371.701	4594
3373.438	4608
3375.174	4474
3376.911	4517
3378.647	4594
3380.384	4486
3382.118	4573
3383.854	4468
3385.588	4495
3387.322	4542
3389.057	4716
3390.79	4617
3392.522	4526
3394.255	4511
3395.987	4497
3397.719	4437
3399.451	4511
3401.181	4469
3402.911	4564
3404.641	4528
3406.371	4552
3408.101	4546
3409.83	4532
3411.558	4536
3413.285	4468
3415.011	4568
3416.739	4515
3418.467	4465
3420.193	4454
3421.919	4525
3423.644	4387
3425.368	4460
3427.094	4546
3428.818	4453
3430.542	4504
3432.264	4544
3433.987	4473
3435.712	4442
3437.434	4477
3439.155	4494
3440.876	4344
3442.596	4327
3444.317	4378
3446.039	4435
3447.757	4311
3449.477	4349
3451.195	4419
3452.914	4382
3454.632	4328
3456.35	4432
3458.067	4316
3459.784	4382
3461.5	4390
3463.216	4384
3464.932	4269
3466.647	4380
3468.362	4377
3470.076	4368
3471.789	4341
3473.505	4278
3475.217	4334
3476.929	4364
3478.641	4378
3480.354	4297
3482.066	4293
3483.777	4308
3485.487	4317
3487.197	4300
3488.908	4354
3490.617	4305
3492.327	4206
3494.035	4291
3495.743	4204
3497.451	4285
3499.158	4296
3500.866	4285
3502.572	4252
3504.278	4152
3505.984	4303
3507.689	4208
3509.396	4379
3511.1	4196
3512.804	4331
3514.508	4292
3516.211	4210
3517.913	4195
3519.616	4096
3521.319	4209
3523.021	4249
3524.722	4135
3526.422	4084
3528.124	4271
3529.824	4182
3531.524	4200
3533.222	4134
3534.921	4276
3536.62	4119
3538.318	4202
3540.016	4133
3541.714	4146
3543.41	4234
3545.107	4139
3546.803	4179
3548.5	4224
3550.194	4078
3551.889	4141
3553.583	4088
3555.279	4184
3556.972	4270
3558.666	4185
3560.358	4142
3562.051	4127
3563.742	4176
3565.435	4013
3567.126	4157
3568.817	4125
3570.507	4129
3572.197	4066
3573.888	3996
3575.577	4093
3577.265	4105
3578.954	4084
3580.642	4157
3582.329	4102
3584.017	4121
3585.704	4042
3587.391	4077
3589.077	4163
3590.762	4067
3592.449	4088
3594.133	4016
3595.817	4041
3597.501	4120
3599.185	3978
3600.869	4000
3602.552	3994
3604.234	4050
3605.916	4023
3607.598	4032
3609.279	3972
3610.961	3914
3612.642	4092
3614.321	3968
3616	3988
3617.68	3933
3619.36	3921
3621.039	3956
3622.716	3947
3624.394	3927
3626.071	3892
3627.748	3983
3629.425	3975
3631.102	3926
3632.778	3979
3634.452	3922
3636.127	4037
3637.803	3959
3639.477	3981
3641.151	3934
3642.823	3890
3644.497	3973
3646.171	3898
3647.842	3885
3649.515	3833
3651.185	3977
3652.857	3916
3654.527	3916
3656.198	3909
3657.868	3832
3659.537	3846
3661.207	3854
3662.875	3862
3664.544	3860
3666.212	3888
3667.879	3922
3669.546	3849
3671.212	3813
3672.88	3860
3674.546	3865
3676.211	3907
3677.875	3828
3679.541	3821
3681.205	3798
3682.87	3873
3684.533	3795
3686.196	3842
3687.859	3884
3689.521	3721
3691.184	3721
3692.845	3822
3694.507	3725
3696.167	3812
3697.827	3799
3699.487	3915
3701.148	3798
3702.808	3796
3704.466	3765
3706.125	3815
3707.783	3736
3709.442	3804
3711.099	3794
3712.757	3852
3714.412	3813
3716.068	3776
3717.725	3819
3719.381	3735
3721.036	3690
3722.689	3750
3724.344	3800
3725.998	3797
3727.652	3768
3729.305	3754
3730.958	3768
3732.61	3778
3734.262	3687
3735.915	3700
3737.565	3790
3739.217	3716
3740.866	3739
3742.516	3763
3744.165	3663
3745.816	3695
3747.464	3709
3749.113	3743
3750.761	3643
3752.409	3704
3754.057	3673
3755.703	3714
3757.35	3690
3758.996	3749
3760.641	3681
3762.289	3693
3763.933	3710
3765.577	3737
3767.222	3642
3768.865	3679
3770.508	3697
3772.152	3695
3773.796	3755
3775.438	3619
3777.079	3682
3778.721	3573
3780.363	3610
3782.003	3642
3783.643	3661
3785.283	3619
3786.923	3741
3788.563	3644
3790.203	3633
3791.841	3654
3793.479	3578
3795.115	3558
3796.753	3562
3798.391	3580
3800.027	3676
3801.664	3655
3803.299	3569
3804.935	3627
3806.571	3555
3808.206	3582
3809.839	3593
3811.473	3597
3813.107	3611
3814.74	3580
3816.375	3491
3818.006	3639
3819.638	3586
3821.27	3594
3822.9	3603
3824.532	3516
3826.163	3638
3827.792	3551
3829.423	3594
3831.051	3511
3832.682	3542
3834.311	3499
3835.938	3573
3837.566	3552
3839.193	3488
3840.821	3504
3842.448	3560
3844.075	3632
3845.7	3593
3847.325	3439
3848.951	3470
3850.576	3550
3852.201	3521
3853.825	3547
3855.448	3461
3857.072	3505
3858.694	3443
3860.318	3471
3861.939	3596
3863.562	3549
3865.183	3524
3866.804	3453
3868.426	3419
3870.045	3468
3871.666	3479
3873.285	3426
3874.904	3541
3876.524	3417
3878.142	3437
3879.76	3521
3881.378	3500
3882.995	3374
3884.612	3442
3886.229	3520
3887.845	3389
3889.461	3509
3891.076	3488
3892.691	3362
3894.307	3487
3895.922	3445
3897.536	3508
3899.149	3415
3900.761	3453
3902.374	3466
3903.988	3455
3905.6	3491
3907.212	3422
3908.822	3379
3910.433	3423
3912.045	3441
3913.655	3451
3915.265	3310
3916.875	3400
3918.483	3383
3920.093	3356
3921.702	3413
3923.309	3425
3924.917	3442
3926.523	3452
3928.13	3425
3929.739	3461
3931.344	3363
3932.95	3422
3934.555	3430
3936.159	3413
3937.766	3355
3939.369	3378
3940.974	3352
3942.577	3396
3944.181	3394
3945.783	3336
3947.386	3421
3948.989	3374
3950.59	3410
3952.191	3391
3953.791	3368
3955.394	3389
3956.994	3352
3958.593	3340
3960.192	3321
3961.791	3264
3963.392	3361
3964.99	3369
3966.588	3356
3968.185	3269
3969.782	3325
3971.379	3275
3972.976	3347
3974.572	3218
3976.168	3388
3977.763	3317
3979.358	3342
3980.954	3334
3982.548	3326
3984.142	3265
3985.736	3279
3987.329	3332
3988.922	3245
3990.516	3244
3992.108	3285
3993.698	3219
3995.29	3269
3996.881	3261
3998.473	3214
4000.064	3304
4001.653	3169
4003.242	3258
4004.832	3207
4006.422	3248
4008.01	3260
4009.598	3262
4011.186	3171
4012.773	3242
4014.36	3180
4015.947	3245
4017.534	3223
4019.119	3265
4020.705	3193
4022.291	3187
4023.876	3238
4025.461	3219
4027.044	3196
4028.627	3161
4030.211	3163
4031.795	3117
4033.378	3093
4034.96	3196
4036.542	3268
4038.124	3160
4039.704	3193
4041.286	3199
4042.867	3181
4044.447	3178
4046.026	3240
4047.606	3194
4049.187	3087
4050.765	3154
4052.343	3127
4053.92	3174
4055.498	3048
4057.076	3090
4058.654	3183
4060.23	3114
4061.806	3084
4063.381	3081
4064.957	3157
4066.533	3214
4068.107	3169
4069.682	3103
4071.256	3165
4072.829	3152
4074.404	3117
4075.977	3171
4077.549	3047
4079.121	3176
4080.693	3140
4082.265	3143
4083.836	3100
4085.407	3055
4086.977	3099
4088.547	3080
4090.117	3075
4091.687	3061
4093.256	3050
4094.825	3083
4096.392	3174
4097.96	3059
4099.528	3145
4101.097	3069
4102.663	3091
4104.229	3039
4105.795	3151
4107.361	3047
4108.928	3138
4110.493	3132
4112.058	3046
4113.621	3064
4115.186	3023
4116.75	3068
4118.313	2964
4119.876	3006
4121.438	3089
4123	2971
4124.562	2973
4126.125	3040
4127.686	3060
4129.246	3081
4130.807	2991
4132.367	3022
4133.927	2943
4135.486	2972
4137.046	2982
4138.604	3019
4140.162	3033
4141.72	2944
4143.279	3008
4144.836	2934
4146.393	2971
4147.949	2944
4149.505	2995
4151.062	2939
4152.617	2982
4154.172	2939
4155.727	3002
4157.281	2933
4158.836	2937
4160.39	2997
4161.943	2953
4163.496	2949
4165.048	2914
4166.601	2887
4168.154	2881
4169.706	2895
4171.257	2859
4172.808	2893
4174.358	2905
4175.909	2970
4177.458	3012
4179.008	2866
4180.558	2955
4182.106	2910
4183.655	2898
4185.204	2878
4186.751	2868
4188.298	2929
4189.845	2886
4191.392	2887
4192.939	2922
4194.485	2909
4196.031	2846
4197.576	2855
4199.121	2827
4200.666	2808
4202.211	2874
4203.754	2860
4205.298	2887
4206.84	2928
4208.384	2879
4209.927	2894
4211.47	2865
4213.011	2847
4214.552	2927
4216.094	2902
4217.635	2858
4219.175	2906
4220.716	2831
4222.255	2854
4223.793	2824
4225.335	2835
4226.873	2858
4228.411	2811
4229.948	2842
4231.486	2866
4233.024	2782
4234.562	2830
4236.098	2795
4237.634	2750
4239.169	2884
4240.705	2754
4242.241	2763
4243.776	2747
4245.31	2749
4246.844	2765
4248.378	2787
4249.911	2783
4251.445	2847
4252.978	2850
4254.51	2865
4256.042	2811
4257.574	2794
4259.107	2791
4260.638	2779
4262.169	2775
4263.699	2819
4265.228	2741
4266.759	2765
4268.289	2711
4269.818	2735
4271.345	2756
4272.874	2698
4274.402	2744
4275.931	2733
4277.458	2754
4278.985	2849
4280.512	2749
4282.037	2751
4283.564	2742
4285.089	2708
4286.615	2767
4288.139	2745
4289.664	2791
4291.187	2728
4292.712	2740
4294.235	2726
4295.759	2713
4297.281	2761
4298.804	2753
4300.327	2800
4301.849	2692
4303.37	2731
4304.891	2749
4306.412	2782
4307.933	2712
4309.453	2721
4310.973	2657
4312.492	2716
