398.1873	3171
400.7097	3197
403.2336	3164
405.7547	3147
408.2751	3215
410.7948	3161
413.3138	3282
415.83	3264
418.3497	3304
420.8666	3307
423.3829	3250
425.8985	3429
428.4133	3438
430.9275	3379
433.441	3372
435.9538	3353
438.4639	3427
440.9753	3302
443.4881	3388
445.9982	3381
448.5055	3396
451.0142	3394
453.5201	3397
456.0274	3406
458.5361	3389
461.04	3347
463.5453	3335
466.0478	3403
468.5517	3387
471.0549	3330
473.5574	3503
476.0572	3368
478.5584	3352
481.0568	3440
483.5545	3485
486.0557	3466
488.5521	3416
491.0478	3426
493.5449	3393
496.0392	3434
498.5349	3426
501.0299	3528
503.5222	3459
506.0139	3503
508.5048	3459
510.9991	3586
513.4887	3481
515.9777	3493
518.4659	3491
520.9534	3445
523.4403	3516
525.9306	3495
528.4161	3477
530.9009	3502
533.3851	3444
535.8687	3421
538.3535	3494
540.8356	3435
543.3171	3519
545.7979	3584
548.278	3564
550.7595	3455
553.2383	3473
555.7144	3478
558.1918	3493
560.6685	3602
563.1446	3550
565.6221	3577
568.0968	3598
570.5688	3593
573.0422	3618
575.515	3635
577.989	3583
580.4584	3683
582.9291	3705
585.3991	3574
587.8685	3655
590.3352	3752
592.8052	3563
595.2706	3555
597.7372	3734
600.2033	3618
602.6666	3667
605.1334	3591
607.5953	3602
610.0587	3639
612.5193	3641
614.9814	3624
617.4427	3633
619.9034	3559
622.3615	3599
624.8208	3668
627.2775	3534
629.7335	3610
632.1929	3594
634.6476	3631
637.1016	3542
639.5569	3635
642.0096	3537
644.4637	3576
646.9151	3543
649.3678	3763
651.8179	3593
654.2672	3685
656.7159	3636
659.166	3707
661.6154	3686
664.0622	3593
666.5082	3618
668.9537	3711
671.4005	3686
673.8445	3733
676.288	3624
678.7308	3741
681.1729	3665
683.6163	3721
686.0572	3775
688.4973	3728
690.9368	3696
693.3757	3766
695.8138	3743
698.2534	3669
700.6902	3728
703.1245	3680
705.56	3769
707.9949	3776
710.4311	3743
712.8647	3759
715.2957	3788
717.7279	3801
720.1595	3846
722.5905	3766
725.0208	3932
727.4505	3886
729.8795	3839
732.3058	3871
734.7336	3895
737.1626	3912
739.587	3884
742.0128	3976
744.4359	3912
746.8604	4007
749.2841	3854
751.7073	3855
754.1278	3985
756.5496	3992
758.9688	4022
761.3893	3957
763.8093	3954
766.2285	3931
768.6451	4030
771.0611	4072
773.4784	4009
775.895	4018
778.3091	3982
780.7244	3989
783.1371	3981
785.5493	3990
787.9626	3997
790.3754	3994
792.7856	3962
795.1951	3979
797.6039	3947
800.0121	3933
802.4236	3909
804.8306	4034
807.2369	4016
809.6425	4025
812.0475	3936
814.4538	3986
816.8575	4009
819.2606	4053
821.663	3988
824.0648	4029
826.4659	3929
828.8683	4048
831.2682	4115
833.6674	4051
836.066	4070
838.4639	4059
840.8632	4003
843.2579	4119
845.6539	4088
848.0493	4110
850.444	4188
852.84	4097
855.2315	4209
857.6243	4096
860.0165	4038
862.4081	4153
864.797	4121
867.1892	4040
869.5789	4073
871.9659	4154
874.3542	4129
876.74	4052
879.129	4111
881.5155	4082
883.8994	4130
886.2845	4068
888.6671	4112
891.051	4015
893.4343	4107
895.8169	4066
898.197	4112
900.5783	4118
902.9571	4114
905.3372	4082
907.7167	4134
910.0936	4180
912.4698	4189
914.8474	4241
917.2244	4268
919.5987	4216
921.9744	4234
924.3475	4214
926.72	4355
929.0918	4210
931.4669	4262
933.8375	4253
936.2074	4298
938.5767	4422
940.9454	4302
943.3154	4471
945.6829	4448
948.0497	4591
950.4178	4772
952.7833	4830
955.1483	4941
957.5145	5100
959.8782	5181
962.2412	5135
964.6036	5016
966.9655	4883
969.3266	4717
971.6871	4584
974.0471	4389
976.4064	4347
978.765	4422
981.125	4219
983.4824	4336
985.8373	4214
988.1935	4280
990.549	4368
992.9039	4253
995.2602	4210
997.6119	4252
999.965	4216
1002.317	4348
1004.667	4317
1007.02	4240
1009.371	4240
1011.719	4278
1014.068	4216
1016.415	4251
1018.765	4287
1021.111	4291
1023.458	4313
1025.804	4372
1028.147	4274
1030.49	4236
1032.837	4286
1035.179	4362
1037.522	4425
1039.862	4380
1042.204	4312
1044.546	4315
1046.884	4355
1049.224	4420
1051.562	4259
1053.899	4330
1056.237	4448
1058.575	4306
1060.91	4381
1063.244	4508
1065.58	4490
1067.913	4437
1070.248	4461
1072.579	4552
1074.911	4496
1077.242	4438
1079.572	4402
1081.905	4354
1084.234	4435
1086.562	4338
1088.89	4401
1091.217	4306
1093.544	4427
1095.871	4361
1098.197	4436
1100.521	4365
1102.845	4461
1105.169	4425
1107.491	4324
1109.814	4458
1112.135	4374
1114.456	4412
1116.776	4288
1119.096	4374
1121.415	4402
1123.734	4374
1126.052	4352
1128.369	4471
1130.686	4397
1133.002	4482
1135.318	4422
1137.632	4392
1139.945	4334
1142.258	4428
1144.573	4432
1146.884	4394
1149.196	4434
1151.505	4416
1153.816	4411
1156.124	4457
1158.435	4312
1160.742	4449
1163.051	4351
1165.356	4435
1167.663	4292
1169.97	4361
1172.276	4452
1174.579	4320
1176.881	4349
1179.186	4250
1181.487	4476
1183.79	4349
1186.092	4411
1188.392	4444
1190.691	4430
1192.991	4344
1195.291	4353
1197.588	4439
1199.885	4323
1202.181	4430
1204.479	4255
1206.775	4314
1209.07	4314
1211.363	4448
1213.656	4435
1215.949	4345
1218.241	4496
1220.534	4390
1222.825	4355
1225.115	4465
1227.405	4464
1229.693	4508
1231.984	4498
1234.271	4549
1236.558	4471
1238.845	4508
1241.131	4497
1243.416	4545
1245.703	4484
1247.987	4585
1250.269	4584
1252.552	4610
1254.834	4504
1257.118	4571
1259.399	4497
1261.678	4613
1263.958	4541
1266.237	4625
1268.516	4496
1270.794	4511
1273.072	4661
1275.347	4577
1277.624	4633
1279.899	4499
1282.175	4538
1284.449	4524
1286.722	4545
1288.995	4596
1291.266	4545
1293.54	4533
1295.81	4520
1298.081	4513
1300.35	4531
1302.62	4488
1304.889	4517
1307.156	4504
1309.425	4569
1311.69	4652
1313.957	4579
1316.222	4485
1318.488	4515
1320.751	4591
1323.016	4489
1325.278	4430
1327.54	4541
1329.803	4534
1332.065	4506
1334.325	4526
1336.584	4590
1338.843	4517
1341.101	4568
1343.36	4513
1345.617	4553
1347.876	4522
1350.131	4560
1352.387	4508
1354.643	4485
1356.897	4491
1359.151	4567
1361.403	4484
1363.656	4565
1365.909	4686
1368.16	4470
1370.409	4515
1372.659	4510
1374.909	4626
1377.157	4561
1379.407	4511
1381.655	4565
1383.9	4572
1386.147	4548
1388.393	4641
1390.64	4588
1392.885	4552
1395.127	4523
1397.37	4565
1399.614	4574
1401.854	4546
1404.098	4596
1406.339	4540
1408.578	4678
1410.818	4511
1413.056	4574
1415.297	4610
1417.533	4717
1419.771	4610
1422.006	4657
1424.243	4601
1426.479	4644
1428.715	4617
1430.948	4690
1433.182	4693
1435.414	4703
1437.647	4696
1439.88	4775
1442.11	4738
1444.342	4711
1446.571	4736
1448.799	4828
1451.029	4822
1453.258	4728
1455.485	4675
1457.711	4808
1459.937	4813
1462.164	4738
1464.39	4796
1466.614	4744
1468.838	4743
1471.06	4723
1473.283	4734
1475.506	4567
1477.727	4712
1479.949	4642
1482.169	4630
1484.389	4604
1486.609	4683
1488.828	4703
1491.045	4676
1493.261	4571
1495.477	4692
1497.693	4540
1499.91	4555
1502.125	4583
1504.339	4617
1506.553	4721
1508.766	4653
1510.979	4578
1513.191	4638
1515.402	4605
1517.613	4658
1519.823	4541
1522.033	4543
1524.242	4608
1526.451	4600
1528.657	4566
1530.865	4668
1533.072	4656
1535.278	4614
1537.484	4601
1539.687	4611
1541.892	4613
1544.096	4635
1546.299	4607
1548.502	4596
1550.703	4722
1552.905	4791
1555.104	4572
1557.303	4657
1559.505	4647
1561.703	4787
1563.902	4742
1566.099	4685
1568.295	4738
1570.494	4694
1572.689	4834
1574.883	4701
1577.079	4713
1579.272	4727
1581.467	4788
1583.659	4739
1585.853	4860
1588.044	4710
1590.234	4820
1592.424	4713
1594.615	4744
1596.806	4863
1598.994	4739
1601.182	4802
1603.369	4708
1605.557	4710
1607.744	4776
1609.929	4879
1612.114	4839
1614.298	4774
1616.482	4848
1618.667	4778
1620.85	4786
1623.032	4799
1625.214	4717
1627.395	4799
1629.575	4779
1631.755	4837
1633.935	4831
1636.114	4794
1638.292	4809
1640.471	4929
1642.647	4868
1644.823	4766
1647	4882
1649.175	4849
1651.348	4859
1653.525	4955
1655.698	4824
1657.87	4885
1660.043	4944
1662.213	4849
1664.387	4867
1666.558	4838
1668.727	4899
1670.896	4834
1673.064	4894
1675.233	4852
1677.401	4858
1679.569	4979
1681.735	4889
1683.902	4929
1686.066	4879
1688.233	4833
1690.397	4962
1692.559	4851
1694.723	4800
1696.885	4833
1699.048	4769
1701.21	4829
1703.37	4833
1705.53	4859
1707.689	4705
1709.849	4819
1712.009	4716
1714.166	4879
1716.323	4793
1718.479	4753
1720.634	4795
1722.793	4820
1724.948	4801
1727.102	4762
1729.255	4814
1731.408	4832
1733.562	4853
1735.714	4771
1737.865	4773
1740.016	4841
1742.166	4872
1744.316	4838
1746.467	4784
1748.616	4834
1750.764	4832
1752.911	4792
1755.056	4826
1757.205	4875
1759.35	4754
1761.496	4873
1763.641	4902
1765.785	4856
1767.927	4893
1770.072	4796
1772.214	4902
1774.355	4838
1776.496	4947
1778.637	4818
1780.778	4875
1782.918	4789
1785.057	4978
1787.194	4855
1789.333	4941
1791.472	4855
1793.608	4859
1795.745	4880
1797.879	4879
1800.015	4883
1802.148	4910
1804.284	4867
1806.417	4894
1808.548	4894
1810.682	4862
1812.812	4821
1814.946	4916
1817.075	4883
1819.205	4856
1821.335	4865
1823.463	4884
1825.59	4885
1827.721	4828
1829.847	4918
1831.973	4859
1834.098	4856
1836.223	4893
1838.351	4916
1840.475	4899
1842.598	4769
1844.721	4914
1846.843	4853
1848.966	4792
1851.087	4946
1853.21	4864
1855.33	4840
1857.449	4873
1859.568	4912
1861.688	4753
1863.806	4945
1865.924	4895
1868.039	4886
1870.155	4817
1872.273	4884
1874.388	4793
1876.503	4904
1878.617	4910
1880.73	4897
1882.844	4865
1884.956	4857
1887.068	4817
1889.18	4918
1891.291	4985
1893.4	4908
1895.511	4872
1897.621	4949
1899.73	4880
1901.837	4862
1903.944	4919
1906.053	4916
1908.159	4928
1910.265	4875
1912.369	4939
1914.474	5008
1916.577	4890
1918.683	4956
1920.785	5035
1922.888	4904
1924.989	4910
1927.091	4990
1929.193	4959
1931.294	4971
1933.393	4928
1935.493	5054
1937.59	4944
1939.689	4997
1941.788	4939
1943.884	4984
1945.98	4883
1948.077	5046
1950.171	4948
1952.267	4975
1954.361	4902
1956.455	4917
1958.548	5010
1960.64	5057
1962.733	4903
1964.824	4987
1966.915	5044
1969.005	4980
1971.096	4940
1973.185	5001
1975.275	4973
1977.363	4899
1979.45	4914
1981.537	4891
1983.623	4982
1985.711	4975
1987.796	5011
1989.881	4841
1991.965	5034
1994.047	4970
1996.132	4973
1998.215	5000
2000.297	4930
2002.378	4991
2004.46	4880
2006.54	4951
2008.62	4887
2010.7	4926
2012.779	4957
2014.858	4871
2016.934	4930
2019.013	4932
2021.09	4966
2023.165	4872
2025.241	4961
2027.317	4959
2029.39	5005
2031.466	5003
2033.538	4875
2035.612	4988
2037.683	4895
2039.755	4932
2041.827	4981
2043.898	5011
2045.968	4922
2048.038	4961
2050.106	4926
2052.177	4924
2054.244	4947
2056.313	4970
2058.379	5075
2060.444	4944
2062.511	5057
2064.577	4972
2066.641	5034
2068.705	4865
2070.77	4908
2072.832	4960
2074.896	4999
2076.958	4977
2079.02	4955
2081.081	4915
2083.141	4933
2085.2	4986
2087.261	4993
2089.319	4974
2091.377	4929
2093.435	5021
2095.492	4961
2097.552	5015
2099.607	4997
2101.663	4925
2103.718	5041
2105.771	4994
2107.826	4920
2109.879	4912
2111.932	4977
2113.985	4984
2116.037	5007
2118.088	4902
2120.141	5074
2122.191	5041
2124.239	4953
2126.288	4967
2128.337	4953
2130.387	4966
2132.434	5015
2134.481	5008
2136.528	4912
2138.574	5044
2140.618	4916
2142.665	4956
2144.71	5067
2146.753	4906
2148.797	4930
2150.838	4902
2152.883	5033
2154.923	5056
2156.965	5011
2159.007	5021
2161.046	5008
2163.086	4953
2165.126	4894
2167.163	4956
2169.202	4953
2171.239	5034
2173.277	4970
2175.314	4850
2177.349	4973
2179.385	4951
2181.42	4945
2183.453	4931
2185.49	4914
2187.522	5026
2189.555	4931
2191.586	4862
2193.619	4905
2195.651	4910
2197.682	4948
2199.711	4848
2201.74	4953
2203.769	4907
2205.799	4904
2207.828	4953
2209.855	4874
2211.882	4915
2213.908	4922
2215.934	4970
2217.961	4950
2219.986	4936
2222.01	4818
2224.034	4927
2226.057	4898
2228.08	4930
2230.104	4962
2232.124	4919
2234.145	4874
2236.166	4922
2238.186	4923
2240.207	4993
2242.227	4937
2244.244	4841
2246.262	4906
2248.28	4847
2250.299	4890
2252.314	4993
2254.33	4861
2256.346	4911
2258.36	4850
2260.375	4915
2262.391	4885
2264.403	4979
2266.416	4951
2268.427	4877
2270.44	4884
2272.453	4972
2274.463	4948
2276.474	4945
2278.483	4923
2280.493	4920
2282.501	5050
2284.51	4926
2286.518	4836
2288.524	4925
2290.532	5018
2292.537	4820
2294.544	4891
2296.55	4916
2298.554	4860
2300.557	4937
2302.562	4883
2304.566	4955
2306.568	4921
2308.569	4890
2310.572	4813
2312.573	4970
2314.573	4883
2316.574	4817
2318.573	4939
2320.571	4867
2322.571	4889
2324.569	4829
2326.567	4882
2328.564	4928
2330.56	4942
2332.556	5019
2334.551	4965
2336.546	4787
2338.542	5010
2340.535	4966
2342.529	4988
2344.521	4914
2346.512	4839
2348.505	4933
2350.497	4943
2352.487	4823
2354.478	4876
2356.468	4854
2358.457	4824
2360.446	4876
2362.434	4938
2364.422	4815
2366.408	4771
2368.395	4851
2370.383	4807
2372.369	4762
2374.353	4836
2376.338	4730
2378.321	4848
2380.307	4821
2382.29	4818
2384.272	4750
2386.254	4835
2388.235	4802
2390.218	4847
2392.198	4757
2394.179	4842
2396.157	4896
2398.137	4800
2400.115	4746
2402.095	4813
2404.072	4898
2406.048	4839
2408.026	4857
2410.001	4697
2411.977	4807
2413.953	4874
2415.927	4852
2417.9	4682
2419.875	4742
2421.847	4797
2423.821	4885
2425.792	4835
2427.763	4802
2429.736	4827
2431.706	4767
2433.677	4713
2435.646	4812
2437.615	4826
2439.583	4687
2441.551	4864
2443.519	4838
2445.486	4804
2447.452	4827
2449.418	4855
2451.383	4750
2453.348	4757
2455.314	4826
2457.278	4764
2459.241	4771
2461.205	4768
2463.167	4830
2465.131	4834
2467.091	4841
2469.052	4740
2471.012	4767
2472.972	4861
2474.932	4735
2476.891	4773
2478.85	4779
2480.808	4728
2482.766	4840
2484.722	4722
2486.68	4736
2488.636	4779
2490.591	4779
2492.546	4704
2494.5	4739
2496.456	4732
2498.41	4766
2500.362	4786
2502.315	4754
2504.266	4871
2506.218	4797
2508.169	4750
2510.121	4796
2512.07	4739
2514.019	4771
2515.968	4733
2517.918	4645
2519.866	4766
2521.813	4697
2523.76	4756
2525.707	4856
2527.653	4705
2529.599	4660
2531.543	4771
2533.489	4787
2535.433	4664
2537.376	4654
2539.32	4748
2541.264	4722
2543.205	4816
2545.147	4743
2547.087	4682
2549.029	4728
2550.969	4781
2552.908	4714
2554.847	4801
2556.786	4729
2558.724	4800
2560.663	4673
2562.6	4777
2564.537	4718
2566.473	4789
2568.408	4786
2570.345	4767
2572.28	4820
2574.214	4707
2576.148	4676
2578.081	4713
2580.014	4721
2581.947	4722
2583.879	4824
2585.81	4722
2587.741	4755
2589.67	4656
2591.602	4841
2593.532	4837
2595.461	4767
2597.388	4733
2599.316	4821
2601.244	4736
2603.172	4730
2605.098	4837
2607.023	4717
2608.949	4768
2610.873	4711
2612.8	4773
2614.723	4756
2616.647	4794
2618.569	4726
2620.493	4790
2622.416	4826
2624.338	4747
2626.258	4759
2628.179	4719
2630.099	4807
2632.019	4787
2633.939	4824
2635.857	4825
2637.775	4808
2639.694	4859
2641.61	4711
2643.528	4750
2645.444	4736
2647.361	4765
2649.276	4797
2651.19	4814
2653.105	4863
2655.019	4732
2656.934	4765
2658.846	4653
2660.758	4767
2662.67	4721
2664.583	4796
2666.493	4794
2668.404	4744
2670.313	4793
2672.223	4790
2674.134	4784
2676.042	4786
2677.95	4839
2679.858	4690
2681.765	4767
2683.673	4720
2685.579	4761
2687.483	4792
2689.389	4735
2691.294	4712
2693.198	4849
2695.104	4811
2697.006	4703
2698.909	4713
2700.811	4807
2702.713	4685
2704.615	4845
2706.516	4728
2708.417	4725
2710.316	4656
2712.216	4695
2714.115	4679
2716.014	4712
2717.913	4603
2719.81	4691
2721.707	4645
2723.603	4748
2725.501	4809
2727.396	4726
2729.292	4705
2731.186	4629
2733.081	4710
2734.976	4790
2736.87	4729
2738.762	4619
2740.653	4780
2742.546	4698
2744.437	4659
2746.329	4756
2748.22	4731
2750.11	4731
2751.999	4721
2753.889	4717
2755.778	4701
2757.666	4702
2759.553	4666
2761.44	4647
2763.328	4602
2765.215	4668
2767.101	4813
2768.986	4675
2770.87	4721
2772.754	4661
2774.638	4682
2776.523	4676
2778.405	4645
2780.288	4668
2782.17	4712
2784.051	4600
2785.934	4669
2787.814	4666
2789.694	4683
2791.574	4626
2793.453	4624
2795.332	4688
2797.212	4662
2799.088	4687
2800.966	4619
2802.843	4621
2804.719	4673
2806.597	4683
2808.471	4616
2810.346	4673
2812.221	4787
2814.094	4696
2815.969	4611
2817.843	4714
2819.714	4745
2821.587	4724
2823.459	4573
2825.329	4602
2827.202	4697
2829.072	4581
2830.942	4668
2832.811	4733
2834.68	4640
2836.549	4772
2838.418	4588
2840.284	4779
2842.152	4616
2844.018	4653
2845.885	4631
2847.751	4659
2849.616	4732
2851.482	4717
2853.345	4752
2855.208	4721
2857.074	4688
2858.937	4657
2860.799	4652
2862.66	4783
2864.522	4685
2866.385	4733
2868.245	4849
2870.104	4791
2871.964	4877
2873.824	4897
2875.683	4796
2877.542	4891
2879.4	4858
2881.257	4964
2883.114	4895
2884.97	4881
2886.827	4854
2888.683	4908
2890.537	4977
2892.392	4869
2894.246	4879
2896.1	4982
2897.954	4828
2899.807	4847
2901.66	4973
2903.51	4963
2905.362	4914
2907.214	4909
2909.065	4904
2910.915	4943
2912.765	4837
2914.613	4968
2916.463	5101
2918.311	5002
2920.158	5020
2922.006	5056
2923.853	5175
2925.698	5121
2927.546	5147
2929.392	5240
2931.236	5146
2933.081	5337
2934.924	5257
2936.77	5242
2938.613	5277
2940.455	5275
2942.298	5365
2944.139	5392
2945.982	5376
2947.823	5276
2949.662	5253
2951.503	5366
2953.342	5201
2955.182	5156
2957.021	5092
2958.858	5250
2960.697	5153
2962.534	5145
2964.37	5077
2966.207	5041
2968.044	5103
2969.879	5045
2971.714	4970
2973.548	5047
2975.383	4866
2977.218	4966
2979.051	4968
2980.883	4918
2982.715	4995
2984.547	4969
2986.379	4854
2988.21	4901
2990.04	4835
2991.87	4794
2993.7	4836
2995.53	4830
2997.359	4726
2999.187	4752
3001.015	4699
3002.842	4799
3004.669	4710
3006.497	4645
3008.323	4710
3010.148	4583
3011.974	4599
3013.797	4593
3015.623	4509
3017.447	4530
3019.27	4555
3021.094	4512
3022.915	4543
3024.737	4490
3026.56	4501
3028.38	4527
3030.201	4428
3032.022	4440
3033.84	4488
3035.662	4432
3037.481	4535
3039.298	4442
3041.117	4512
3042.933	4437
3044.752	4502
3046.568	4422
3048.385	4480
3050.2	4490
3052.016	4456
3053.83	4416
3055.646	4478
3057.46	4460
3059.272	4379
3061.086	4456
3062.898	4457
3064.711	4420
3066.524	4468
3068.335	4456
3070.145	4388
3071.956	4442
3073.766	4432
3075.576	4475
3077.385	4384
3079.193	4404
3081.002	4434
3082.81	4441
3084.618	4515
3086.425	4365
3088.231	4359
3090.036	4414
3091.842	4328
3093.648	4315
3095.452	4356
3097.257	4406
3099.06	4366
3100.863	4253
3102.666	4373
3104.47	4341
3106.272	4411
3108.073	4380
3109.875	4375
3111.676	4308
3113.477	4253
3115.277	4282
3117.077	4361
3118.874	4321
3120.673	4332
3122.473	4307
3124.271	4336
3126.066	4259
3127.863	4289
3129.66	4376
3131.456	4316
3133.252	4305
3135.047	4167
3136.842	4239
3138.635	4260
3140.429	4388
3142.223	4305
3144.016	4321
3145.808	4285
3147.6	4280
3149.392	4189
3151.183	4309
3152.975	4270
3154.765	4289
3156.553	4382
3158.344	4302
3160.132	4281
3161.922	4231
3163.71	4316
3165.497	4266
3167.285	4299
3169.071	4243
3170.858	4252
3172.645	4264
3174.429	4236
3176.214	4271
3177.998	4307
3179.783	4218
3181.568	4096
3183.351	4288
3185.133	4209
3186.915	4222
3188.698	4201
3190.481	4315
3192.261	4134
3194.042	4300
3195.822	4253
3197.601	4197
3199.381	4242
3201.161	4219
3202.939	4230
3204.717	4185
3206.495	4261
3208.272	4157
3210.05	4158
3211.826	4116
3213.602	4274
3215.376	4237
3217.151	4168
3218.927	4138
3220.702	4193
3222.476	4261
3224.249	4231
3226.021	4218
3227.793	4218
3229.567	4133
3231.339	4253
3233.109	4188
3234.88	4219
3236.651	4230
3238.421	4129
3240.191	4254
3241.96	4174
3243.728	4213
3245.497	4211
3247.263	4204
3249.033	4347
3250.799	4163
3252.566	4140
3254.331	4228
3256.097	4133
3257.863	4232
3259.628	4232
3261.392	4217
3263.156	4254
3264.919	4260
3266.683	4148
3268.447	4179
3270.208	4203
3271.969	4206
3273.731	4224
3275.492	4315
3277.253	4235
3279.013	4258
3280.773	4254
3282.532	4213
3284.291	4279
3286.05	4209
3287.808	4131
3289.566	4230
3291.323	4209
3293.079	4190
3294.835	4184
3296.593	4207
3298.348	4239
3300.102	4174
3301.857	4231
3303.611	4248
3305.366	4102
3307.119	4184
3308.872	4208
3310.624	4145
3312.376	4255
3314.129	4185
3315.881	4221
3317.631	4216
3319.38	4184
3321.13	4268
3322.88	4128
3324.631	4228
3326.379	4166
3328.126	4170
3329.875	4153
3331.622	4137
3333.371	4176
3335.116	4112
3336.863	4203
3338.609	4164
3340.353	4186
3342.1	4169
3343.845	4103
3345.588	4174
3347.332	4204
3349.074	4185
3350.817	4232
3352.56	4219
3354.303	4237
3356.043	4128
3357.785	4092
3359.525	4126
3361.268	4094
3363.007	4237
3364.745	4081
3366.485	4087
3368.223	4153
3369.962	4021
3371.701	4144
3373.438	4078
3375.174	4076
3376.911	4040
3378.647	4133
3380.384	4128
3382.118	4102
3383.854	4035
3385.588	4056
3387.322	4084
3389.057	4044
3390.79	4112
3392.522	4053
3394.255	4130
3395.987	4089
3397.719	4124
3399.451	4102
3401.181	4079
3402.911	4094
3404.641	4101
3406.371	4079
3408.101	4065
3409.83	4108
3411.558	4038
3413.285	4059
3415.011	4070
3416.739	4019
3418.467	3947
3420.193	4021
3421.919	4061
3423.644	4032
3425.368	4019
3427.094	4030
3428.818	4049
3430.542	4051
3432.264	3971
3433.987	4123
3435.712	4051
3437.434	4019
3439.155	4011
3440.876	3953
3442.596	3993
3444.317	4002
3446.039	3978
3447.757	3950
3449.477	3993
3451.195	3998
3452.914	4020
3454.632	4013
3456.35	4012
3458.067	3939
3459.784	3937
3461.5	4073
3463.216	4088
3464.932	3973
3466.647	4020
3468.362	3903
3470.076	4002
3471.789	3921
3473.505	3941
3475.217	3998
3476.929	3987
3478.641	3884
3480.354	3785
3482.066	3822
3483.777	3867
3485.487	3851
3487.197	3906
3488.908	3836
3490.617	3936
3492.327	3947
3494.035	3923
3495.743	3912
3497.451	3800
3499.158	3837
3500.866	3886
3502.572	3872
3504.278	3886
3505.984	3887
3507.689	3851
3509.396	3829
3511.1	3855
3512.804	3902
3514.508	3849
3516.211	3875
3517.913	3799
3519.616	3846
3521.319	3769
3523.021	3799
3524.722	3746
3526.422	3812
3528.124	3791
3529.824	3764
3531.524	3794
3533.222	3837
3534.921	3812
3536.62	3775
3538.318	3833
3540.016	3808
3541.714	3847
3543.41	3764
3545.107	3780
3546.803	3799
3548.5	3720
3550.194	3791
3551.889	3803
3553.583	3791
3555.279	3737
3556.972	3791
3558.666	3743
3560.358	3826
3562.051	3812
3563.742	3690
3565.435	3720
3567.126	3779
3568.817	3742
3570.507	3751
3572.197	3695
3573.888	3782
3575.577	3720
3577.265	3715
3578.954	3729
3580.642	3706
3582.329	3701
3584.017	3702
3585.704	3742
3587.391	3650
3589.077	3720
3590.762	3613
3592.449	3780
3594.133	3656
3595.817	3658
3597.501	3644
3599.185	3693
3600.869	3641
3602.552	3635
3604.234	3650
3605.916	3686
3607.598	3648
3609.279	3686
3610.961	3665
3612.642	3697
3614.321	3652
3616	3659
3617.68	3598
3619.36	3594
3621.039	3609
3622.716	3625
3624.394	3682
3626.071	3628
3627.748	3635
3629.425	3634
3631.102	3531
3632.778	3586
3634.452	3616
3636.127	3665
3637.803	3631
3639.477	3547
3641.151	3492
3642.823	3611
3644.497	3575
3646.171	3552
3647.842	3599
3649.515	3544
3651.185	3561
3652.857	3588
3654.527	3556
3656.198	3566
3657.868	3588
3659.537	3555
3661.207	3568
3662.875	3521
3664.544	3513
3666.212	3551
3667.879	3588
3669.546	3512
3671.212	3540
3672.88	3464
3674.546	3542
3676.211	3554
3677.875	3489
3679.541	3495
3681.205	3474
3682.87	3544
3684.533	3501
3686.196	3500
3687.859	3541
3689.521	3494
3691.184	3537
3692.845	3524
3694.507	3491
3696.167	3533
3697.827	3490
3699.487	3498
3701.148	3522
3702.808	3402
3704.466	3514
3706.125	3510
3707.783	3427
3709.442	3521
3711.099	3527
3712.757	3442
3714.412	3518
3716.068	3476
3717.725	3484
3719.381	3551
3721.036	3467
3722.689	3451
3724.344	3525
3725.998	3481
3727.652	3469
3729.305	3471
3730.958	3466
3732.61	3482
3734.262	3485
3735.915	3467
3737.565	3457
3739.217	3442
3740.866	3462
3742.516	3479
3744.165	3501
3745.816	3460
3747.464	3460
3749.113	3400
3750.761	3416
3752.409	3406
3754.057	3474
3755.703	3377
3757.35	3468
3758.996	3466
3760.641	3380
3762.289	3391
3763.933	3478
3765.577	3400
3767.222	3416
3768.865	3371
3770.508	3329
3772.152	3424
3773.796	3356
3775.438	3394
3777.079	3437
3778.721	3387
3780.363	3375
3782.003	3368
3783.643	3346
3785.283	3346
3786.923	3329
3788.563	3362
3790.203	3405
3791.841	3309
3793.479	3336
3795.115	3269
3796.753	3363
3798.391	3398
3800.027	3314
3801.664	3367
3803.299	3377
3804.935	3310
3806.571	3407
3808.206	3317
3809.839	3330
3811.473	3344
3813.107	3343
3814.74	3275
3816.375	3333
3818.006	3319
3819.638	3244
3821.27	3316
3822.9	3317
3824.532	3234
3826.163	3317
3827.792	3312
3829.423	3337
3831.051	3262
3832.682	3197
3834.311	3235
3835.938	3352
3837.566	3319
3839.193	3240
3840.821	3299
3842.448	3306
3844.075	3272
3845.7	3226
3847.325	3289
3848.951	3293
3850.576	3190
3852.201	3248
3853.825	3263
3855.448	3311
3857.072	3243
3858.694	3307
3860.318	3217
3861.939	3326
3863.562	3212
3865.183	3124
3866.804	3214
3868.426	3272
3870.045	3298
3871.666	3264
3873.285	3262
3874.904	3247
3876.524	3240
3878.142	3234
3879.76	3176
3881.378	3260
3882.995	3251
3884.612	3214
3886.229	3338
3887.845	3184
3889.461	3192
3891.076	3213
3892.691	3218
3894.307	3247
3895.922	3246
3897.536	3166
3899.149	3170
3900.761	3181
3902.374	3122
3903.988	3197
3905.6	3201
3907.212	3165
3908.822	3157
3910.433	3241
3912.045	3175
3913.655	3206
3915.265	3222
3916.875	3172
3918.483	3206
3920.093	3131
3921.702	3224
3923.309	3198
3924.917	3134
3926.523	3217
3928.13	3160
3929.739	3123
3931.344	3205
3932.95	3117
3934.555	3153
3936.159	3110
3937.766	3106
3939.369	3125
3940.974	3213
3942.577	3083
3944.181	3162
3945.783	3114
3947.386	3142
3948.989	3157
3950.59	3155
3952.191	3177
3953.791	3159
3955.394	3091
3956.994	3113
3958.593	3126
3960.192	3180
3961.791	3124
3963.392	3191
3964.99	3140
3966.588	3063
3968.185	3063
3969.782	3075
3971.379	3030
3972.976	3202
3974.572	3157
3976.168	3117
3977.763	3024
3979.358	3081
3980.954	3027
3982.548	3142
3984.142	3126
3985.736	3034
3987.329	3053
3988.922	3018
3990.516	3063
3992.108	3068
3993.698	3085
3995.29	3093
3996.881	3012
3998.473	2994
4000.064	3047
4001.653	3054
4003.242	3086
4004.832	3067
4006.422	3033
4008.01	3055
4009.598	2988
4011.186	2979
4012.773	3042
4014.36	3071
4015.947	3022
4017.534	3019
4019.119	2903
4020.705	3012
4022.291	3048
4023.876	3067
4025.461	3034
4027.044	3053
4028.627	2982
4030.211	2981
4031.795	2960
4033.378	2961
4034.96	3025
4036.542	2949
4038.124	2939
4039.704	2971
4041.286	2967
4042.867	3000
4044.447	2996
4046.026	3010
4047.606	2879
4049.187	2933
4050.765	2958
4052.343	2906
4053.92	2894
4055.498	2904
4057.076	2897
4058.654	2980
4060.23	2935
4061.806	2916
4063.381	2877
4064.957	2941
4066.533	2918
4068.107	2900
4069.682	2871
4071.256	2904
4072.829	2887
4074.404	2929
4075.977	2949
4077.549	2783
4079.121	2927
4080.693	2908
4082.265	2928
4083.836	2894
4085.407	2838
4086.977	2837
4088.547	2869
4090.117	2947
4091.687	2959
4093.256	2884
4094.825	2944
4096.392	2827
4097.96	2835
4099.528	2866
4101.097	2879
4102.663	2944
4104.229	2778
4105.795	2857
4107.361	2854
4108.928	2834
4110.493	2891
4112.058	2808
4113.621	2832
4115.186	2850
4116.75	2856
4118.313	2833
4119.876	2889
4121.438	2879
4123	2799
4124.562	2876
4126.125	2883
4127.686	2787
4129.246	2835
4130.807	2869
4132.367	2795
4133.927	2889
4135.486	2793
4137.046	2821
4138.604	2762
4140.162	2844
4141.72	2879
4143.279	2773
4144.836	2827
4146.393	2813
4147.949	2746
4149.505	2770
4151.062	2757
4152.617	2849
4154.172	2748
4155.727	2772
4157.281	2798
4158.836	2745
4160.39	2775
4161.943	2736
4163.496	2769
4165.048	2817
4166.601	2743
4168.154	2817
4169.706	2721
4171.257	2747
4172.808	2775
4174.358	2741
4175.909	2729
4177.458	2756
4179.008	2751
4180.558	2752
4182.106	2727
4183.655	2715
4185.204	2724
4186.751	2764
4188.298	2753
4189.845	2723
4191.392	2673
4192.939	2772
4194.485	2717
4196.031	2717
4197.576	2699
4199.121	2712
4200.666	2736
4202.211	2742
4203.754	2656
4205.298	2709
4206.84	2721
4208.384	2675
4209.927	2711
4211.47	2744
4213.011	2707
4214.552	2696
4216.094	2687
4217.635	2760
4219.175	2632
4220.716	2727
4222.255	2678
4223.793	2714
4225.335	2683
4226.873	2716
4228.411	2674
4229.948	2704
4231.486	2572
4233.024	2671
4234.562	2655
4236.098	2620
4237.634	2682
4239.169	2695
4240.705	2624
4242.241	2684
4243.776	2611
4245.31	2638
4246.844	2716
4248.378	2640
4249.911	2633
4251.445	2658
4252.978	2656
4254.51	2680
4256.042	2630
4257.574	2680
4259.107	2666
4260.638	2541
4262.169	2609
4263.699	2672
4265.228	2699
4266.759	2607
4268.289	2675
4269.818	2626
4271.345	2607
4272.874	2632
4274.402	2626
4275.931	2587
4277.458	2608
4278.985	2558
4280.512	2601
4282.037	2558
4283.564	2599
4285.089	2685
4286.615	2626
4288.139	2607
4289.664	2547
4291.187	2674
4292.712	2583
4294.235	2584
4295.759	2546
4297.281	2556
4298.804	2576
4300.327	2603
4301.849	2535
4303.37	2546
4304.891	2603
4306.412	2585
4307.933	2543
4309.453	2602
4310.973	2558
4312.492	2508
