398.1873	2889
400.7097	2850
403.2336	2905
405.7547	2885
408.2751	2868
410.7948	2849
413.3138	2872
415.83	2983
418.3497	2860
420.8666	2943
423.3829	2999
425.8985	2972
428.4133	3070
430.9275	3025
433.441	3057
435.9538	3080
438.4639	2981
440.9753	3063
443.4881	3018
445.9982	3027
448.5055	3121
451.0142	2997
453.5201	3052
456.0274	3057
458.5361	3065
461.04	3017
463.5453	3013
466.0478	2970
468.5517	3047
471.0549	3063
473.5574	3012
476.0572	3028
478.5584	3069
481.0568	3119
483.5545	3035
486.0557	3095
488.5521	3080
491.0478	3081
493.5449	3105
496.0392	3130
498.5349	3091
501.0299	3101
503.5222	3094
506.0139	3122
508.5048	3228
510.9991	3096
513.4887	3118
515.9777	3112
518.4659	3160
520.9534	3135
523.4403	3136
525.9306	3111
528.4161	3115
530.9009	3185
533.3851	3127
535.8687	3244
538.3535	3100
540.8356	3155
543.3171	3099
545.7979	3155
548.278	3149
550.7595	3253
553.2383	3153
555.7144	3186
558.1918	3145
560.6685	3206
563.1446	3173
565.6221	3115
568.0968	3283
570.5688	3138
573.0422	3251
575.515	3280
577.989	3329
580.4584	3284
582.9291	3280
585.3991	3301
587.8685	3296
590.3352	3282
592.8052	3311
595.2706	3230
597.7372	3192
600.2033	3204
602.6666	3287
605.1334	3267
607.5953	3259
610.0587	3276
612.5193	3308
614.9814	3290
617.4427	3227
619.9034	3245
622.3615	3339
624.8208	3321
627.2775	3260
629.7335	3247
632.1929	3267
634.6476	3260
637.1016	3299
639.5569	3260
642.0096	3347
644.4637	3276
646.9151	3337
649.3678	3230
651.8179	3263
654.2672	3267
656.7159	3287
659.166	3229
661.6154	3277
664.0622	3336
666.5082	3269
668.9537	3292
671.4005	3368
673.8445	3304
676.288	3352
678.7308	3308
681.1729	3370
683.6163	3349
686.0572	3379
688.4973	3469
690.9368	3339
693.3757	3303
695.8138	3337
698.2534	3475
700.6902	3353
703.1245	3436
705.56	3409
707.9949	3394
710.4311	3411
712.8647	3366
715.2957	3387
717.7279	3398
720.1595	3425
722.5905	3358
725.0208	3446
727.4505	3395
729.8795	3500
732.3058	3497
734.7336	3508
737.1626	3499
739.587	3505
742.0128	3540
744.4359	3541
746.8604	3548
749.2841	3589
751.7073	3556
754.1278	3608
756.5496	3588
758.9688	3587
761.3893	3550
763.8093	3511
766.2285	3607
768.6451	3615
771.0611	3590
773.4784	3568
775.895	3582
778.3091	3596
780.7244	3633
783.1371	3567
785.5493	3552
787.9626	3592
790.3754	3522
792.7856	3541
795.1951	3612
797.6039	3619
800.0121	3540
802.4236	3589
804.8306	3627
807.2369	3607
809.6425	3733
812.0475	3627
814.4538	3580
816.8575	3663
819.2606	3616
821.663	3694
824.0648	3638
826.4659	3655
828.8683	3623
831.2682	3596
833.6674	3722
836.066	3672
838.4639	3606
840.8632	3652
843.2579	3609
845.6539	3718
848.0493	3641
850.444	3706
852.84	3741
855.2315	3692
857.6243	3695
860.0165	3633
862.4081	3773
864.797	3650
867.1892	3713
869.5789	3670
871.9659	3653
874.3542	3709
876.74	3742
879.129	3675
881.5155	3680
883.8994	3817
886.2845	3673
888.6671	3707
891.051	3637
893.4343	3680
895.8169	3738
898.197	3774
900.5783	3589
902.9571	3692
905.3372	3680
907.7167	3700
910.0936	3754
912.4698	3771
914.8474	3802
917.2244	3780
919.5987	3749
921.9744	3805
924.3475	3815
926.72	3826
929.0918	3824
931.4669	3874
933.8375	3878
936.2074	3866
938.5767	3822
940.9454	3917
943.3154	3969
945.6829	3930
948.0497	4055
950.4178	4115
952.7833	4221
955.1483	4300
957.5145	4447
959.8782	4507
962.2412	4480
964.6036	4527
966.9655	4349
969.3266	4097
971.6871	4035
974.0471	4012
976.4064	3993
978.765	3847
981.125	3781
983.4824	3824
985.8373	3856
988.1935	3833
990.549	3831
992.9039	3871
995.2602	3807
997.6119	3820
999.965	3862
1002.317	3887
1004.667	3891
1007.02	3823
1009.371	3836
1011.719	3757
1014.068	3818
1016.415	3908
1018.765	3930
1021.111	3869
1023.458	3892
1025.804	3898
1028.147	3894
1030.49	3848
1032.837	3977
1035.179	3929
1037.522	3892
1039.862	3882
1042.204	3909
1044.546	3913
1046.884	3886
1049.224	3909
1051.562	3841
1053.899	3893
1056.237	3918
1058.575	3931
1060.91	4011
1063.244	3960
1065.58	3975
1067.913	3908
1070.248	4053
1072.579	4014
1074.911	3995
1077.242	4005
1079.572	3957
1081.905	4015
1084.234	3934
1086.562	3961
1088.89	4034
1091.217	3811
1093.544	4063
1095.871	4012
1098.197	4027
1100.521	3889
1102.845	3945
1105.169	3894
1107.491	3911
1109.814	4022
1112.135	3947
1114.456	3948
1116.776	3995
1119.096	3935
1121.415	3936
1123.734	3917
1126.052	4048
1128.369	3980
1130.686	3978
1133.002	3994
1135.318	3985
1137.632	3938
1139.945	3922
1142.258	3975
1144.573	4074
1146.884	3905
1149.196	4037
1151.505	4042
1153.816	3959
1156.124	3987
1158.435	3990
1160.742	3951
1163.051	3946
1165.356	3959
1167.663	3971
1169.97	4010
1172.276	3972
1174.579	3935
1176.881	3897
1179.186	3980
1181.487	4044
1183.79	4027
1186.092	3964
1188.392	3912
1190.691	3899
1192.991	4001
1195.291	3949
1197.588	3916
1199.885	4038
1202.181	4027
1204.479	3929
1206.775	3971
1209.07	4003
1211.363	3927
1213.656	3969
1215.949	3932
1218.241	3991
1220.534	4024
1222.825	3940
1225.115	4028
1227.405	3940
1229.693	4093
1231.984	4112
1234.271	4042
1236.558	4029
1238.845	4148
1241.131	4152
1243.416	4145
1245.703	4116
1247.987	4103
1250.269	4128
1252.552	4185
1254.834	4147
1257.118	4147
1259.399	4095
1261.678	4162
1263.958	4043
1266.237	4084
1268.516	4103
1270.794	4124
1273.072	4085
1275.347	4080
1277.624	4158
1279.899	4096
1282.175	4084
1284.449	4107
1286.722	4120
1288.995	4107
1291.266	4082
1293.54	4058
1295.81	4116
1298.081	4085
1300.35	4093
1302.62	4038
1304.889	4169
1307.156	4037
1309.425	4163
1311.69	4010
1313.957	4036
1316.222	4102
1318.488	3965
1320.751	4185
1323.016	4102
1325.278	4082
1327.54	4053
1329.803	4059
1332.065	4050
1334.325	4116
1336.584	4049
1338.843	4033
1341.101	4036
1343.36	4054
1345.617	4085
1347.876	4122
1350.131	4059
1352.387	4084
1354.643	4077
1356.897	4062
1359.151	4070
1361.403	4136
1363.656	4128
1365.909	4142
1368.16	4012
1370.409	4080
1372.659	4181
1374.909	4116
1377.157	4115
1379.407	4098
1381.655	4167
1383.9	4085
1386.147	4120
1388.393	4084
1390.64	4167
1392.885	4217
1395.127	4188
1397.37	4172
1399.614	4119
1401.854	4187
1404.098	4165
1406.339	4106
1408.578	4224
1410.818	4164
1413.056	4169
1415.297	4186
1417.533	4218
1419.771	4232
1422.006	4185
1424.243	4196
1426.479	4169
1428.715	4246
1430.948	4273
1433.182	4209
1435.414	4246
1437.647	4177
1439.88	4263
1442.11	4248
1444.342	4219
1446.571	4269
1448.799	4219
1451.029	4238
1453.258	4337
1455.485	4262
1457.711	4267
1459.937	4254
1462.164	4226
1464.39	4244
1466.614	4227
1468.838	4265
1471.06	4246
1473.283	4255
1475.506	4258
1477.727	4205
1479.949	4200
1482.169	4242
1484.389	4208
1486.609	4229
1488.828	4255
1491.045	4101
1493.261	4292
1495.477	4117
1497.693	4159
1499.91	4106
1502.125	4182
1504.339	4116
1506.553	4244
1508.766	4183
1510.979	4062
1513.191	4119
1515.402	4115
1517.613	4115
1519.823	4149
1522.033	4174
1524.242	4149
1526.451	4140
1528.657	4133
1530.865	4161
1533.072	4222
1535.278	4189
1537.484	4182
1539.687	4255
1541.892	4186
1544.096	4170
1546.299	4167
1548.502	4256
1550.703	4211
1552.905	4215
1555.104	4145
1557.303	4262
1559.505	4131
1561.703	4276
1563.902	4206
1566.099	4247
1568.295	4237
1570.494	4181
1572.689	4257
1574.883	4224
1577.079	4335
1579.272	4304
1581.467	4216
1583.659	4355
1585.853	4292
1588.044	4288
1590.234	4429
1592.424	4370
1594.615	4238
1596.806	4231
1598.994	4332
1601.182	4301
1603.369	4269
1605.557	4372
1607.744	4385
1609.929	4383
1612.114	4291
1614.298	4285
1616.482	4354
1618.667	4322
1620.85	4436
1623.032	4313
1625.214	4359
1627.395	4375
1629.575	4382
1631.755	4388
1633.935	4445
1636.114	4358
1638.292	4309
1640.471	4285
1642.647	4363
1644.823	4411
1647	4405
1649.175	4309
1651.348	4338
1653.525	4350
1655.698	4340
1657.87	4355
1660.043	4384
1662.213	4387
1664.387	4405
1666.558	4417
1668.727	4417
1670.896	4430
1673.064	4344
1675.233	4321
1677.401	4404
1679.569	4311
1681.735	4434
1683.902	4479
1686.066	4375
1688.233	4486
1690.397	4265
1692.559	4345
1694.723	4332
1696.885	4367
1699.048	4379
1701.21	4317
1703.37	4390
1705.53	4298
1707.689	4317
1709.849	4295
1712.009	4327
1714.166	4397
1716.323	4423
1718.479	4396
1720.634	4277
1722.793	4369
1724.948	4291
1727.102	4328
1729.255	4343
1731.408	4313
1733.562	4302
1735.714	4349
1737.865	4321
1740.016	4358
1742.166	4316
1744.316	4373
1746.467	4367
1748.616	4381
1750.764	4312
1752.911	4375
1755.056	4388
1757.205	4372
1759.35	4363
1761.496	4370
1763.641	4305
1765.785	4354
1767.927	4312
1770.072	4415
1772.214	4353
1774.355	4374
1776.496	4355
1778.637	4381
1780.778	4414
1782.918	4332
1785.057	4390
1787.194	4372
1789.333	4410
1791.472	4375
1793.608	4344
1795.745	4402
1797.879	4426
1800.015	4368
1802.148	4340
1804.284	4450
1806.417	4450
1808.548	4324
1810.682	4386
1812.812	4428
1814.946	4398
1817.075	4529
1819.205	4430
1821.335	4434
1823.463	4493
1825.59	4385
1827.721	4375
1829.847	4457
1831.973	4424
1834.098	4389
1836.223	4490
1838.351	4390
1840.475	4440
1842.598	4380
1844.721	4439
1846.843	4420
1848.966	4346
1851.087	4456
1853.21	4308
1855.33	4358
1857.449	4422
1859.568	4427
1861.688	4386
1863.806	4319
1865.924	4337
1868.039	4403
1870.155	4376
1872.273	4429
1874.388	4378
1876.503	4368
1878.617	4402
1880.73	4424
1882.844	4374
1884.956	4412
1887.068	4411
1889.18	4418
1891.291	4439
1893.4	4420
1895.511	4432
1897.621	4473
1899.73	4487
1901.837	4429
1903.944	4387
1906.053	4444
1908.159	4514
1910.265	4409
1912.369	4443
1914.474	4496
1916.577	4539
1918.683	4395
1920.785	4430
1922.888	4487
1924.989	4396
1927.091	4483
1929.193	4594
1931.294	4475
1933.393	4495
1935.493	4612
1937.59	4424
1939.689	4533
1941.788	4547
1943.884	4472
1945.98	4480
1948.077	4513
1950.171	4561
1952.267	4584
1954.361	4394
1956.455	4522
1958.548	4474
1960.64	4503
1962.733	4468
1964.824	4550
1966.915	4452
1969.005	4570
1971.096	4434
1973.185	4574
1975.275	4488
1977.363	4440
1979.45	4407
1981.537	4513
1983.623	4525
1985.711	4359
1987.796	4477
1989.881	4365
1991.965	4424
1994.047	4497
1996.132	4445
1998.215	4407
2000.297	4395
2002.378	4531
2004.46	4440
2006.54	4429
2008.62	4499
2010.7	4509
2012.779	4442
2014.858	4393
2016.934	4379
2019.013	4436
2021.09	4412
2023.165	4442
2025.241	4405
2027.317	4463
2029.39	4453
2031.466	4508
2033.538	4398
2035.612	4528
2037.683	4385
2039.755	4532
2041.827	4491
2043.898	4406
2045.968	4514
2048.038	4459
2050.106	4370
2052.177	4439
2054.244	4496
2056.313	4479
2058.379	4522
2060.444	4484
2062.511	4451
2064.577	4458
2066.641	4411
2068.705	4566
2070.77	4486
2072.832	4494
2074.896	4409
2076.958	4503
2079.02	4419
2081.081	4507
2083.141	4445
2085.2	4497
2087.261	4488
2089.319	4482
2091.377	4497
2093.435	4542
2095.492	4425
2097.552	4527
2099.607	4430
2101.663	4472
2103.718	4500
2105.771	4468
2107.826	4478
2109.879	4459
2111.932	4486
2113.985	4595
2116.037	4575
2118.088	4404
2120.141	4483
2122.191	4543
2124.239	4488
2126.288	4493
2128.337	4385
2130.387	4501
2132.434	4517
2134.481	4501
2136.528	4537
2138.574	4543
2140.618	4643
2142.665	4497
2144.71	4455
2146.753	4460
2148.797	4418
2150.838	4508
2152.883	4541
2154.923	4544
2156.965	4517
2159.007	4476
2161.046	4444
2163.086	4448
2165.126	4410
2167.163	4466
2169.202	4419
2171.239	4447
2173.277	4523
2175.314	4479
2177.349	4456
2179.385	4578
2181.42	4420
2183.453	4545
2185.49	4439
2187.522	4470
2189.555	4494
2191.586	4376
2193.619	4528
2195.651	4442
2197.682	4383
2199.711	4439
2201.74	4407
2203.769	4397
2205.799	4491
2207.828	4311
2209.855	4322
2211.882	4380
2213.908	4375
2215.934	4416
2217.961	4431
2219.986	4378
2222.01	4400
2224.034	4442
2226.057	4446
2228.08	4415
2230.104	4424
2232.124	4396
2234.145	4354
2236.166	4414
2238.186	4458
2240.207	4390
2242.227	4420
2244.244	4385
2246.262	4405
2248.28	4400
2250.299	4399
2252.314	4385
2254.33	4368
2256.346	4416
2258.36	4396
2260.375	4395
2262.391	4410
2264.403	4390
2266.416	4521
2268.427	4430
2270.44	4439
2272.453	4353
2274.463	4502
2276.474	4409
2278.483	4368
2280.493	4409
2282.501	4442
2284.51	4537
2286.518	4474
2288.524	4445
2290.532	4424
2292.537	4389
2294.544	4387
2296.55	4372
2298.554	4444
2300.557	4396
2302.562	4431
2304.566	4418
2306.568	4412
2308.569	4452
2310.572	4385
2312.573	4402
2314.573	4430
2316.574	4478
2318.573	4412
2320.571	4405
2322.571	4398
2324.569	4419
2326.567	4461
2328.564	4452
2330.56	4350
2332.556	4383
2334.551	4401
2336.546	4393
2338.542	4376
2340.535	4337
2342.529	4431
2344.521	4323
2346.512	4377
2348.505	4277
2350.497	4377
2352.487	4323
2354.478	4369
2356.468	4306
2358.457	4358
2360.446	4347
2362.434	4405
2364.422	4346
2366.408	4361
2368.395	4268
2370.383	4374
2372.369	4303
2374.353	4474
2376.338	4351
2378.321	4327
2380.307	4387
2382.29	4392
2384.272	4333
2386.254	4362
2388.235	4326
2390.218	4334
2392.198	4328
2394.179	4267
2396.157	4259
2398.137	4370
2400.115	4293
2402.095	4315
2404.072	4346
2406.048	4313
2408.026	4262
2410.001	4371
2411.977	4303
2413.953	4317
2415.927	4402
2417.9	4296
2419.875	4391
2421.847	4382
2423.821	4342
2425.792	4285
2427.763	4293
2429.736	4354
2431.706	4303
2433.677	4373
2435.646	4325
2437.615	4301
2439.583	4279
2441.551	4320
2443.519	4335
2445.486	4390
2447.452	4333
2449.418	4368
2451.383	4322
2453.348	4370
2455.314	4461
2457.278	4443
2459.241	4348
2461.205	4336
2463.167	4313
2465.131	4298
2467.091	4370
2469.052	4258
2471.012	4367
2472.972	4207
2474.932	4318
2476.891	4373
2478.85	4257
2480.808	4284
2482.766	4296
2484.722	4231
2486.68	4204
2488.636	4282
2490.591	4227
2492.546	4242
2494.5	4367
2496.456	4281
2498.41	4251
2500.362	4271
2502.315	4259
2504.266	4296
2506.218	4297
2508.169	4312
2510.121	4185
2512.07	4248
2514.019	4259
2515.968	4260
2517.918	4266
2519.866	4257
2521.813	4191
2523.76	4291
2525.707	4322
2527.653	4344
2529.599	4244
2531.543	4312
2533.489	4321
2535.433	4204
2537.376	4294
2539.32	4301
2541.264	4276
2543.205	4312
2545.147	4322
2547.087	4231
2549.029	4224
2550.969	4293
2552.908	4203
2554.847	4332
2556.786	4196
2558.724	4254
2560.663	4247
2562.6	4236
2564.537	4231
2566.473	4101
2568.408	4248
2570.345	4336
2572.28	4336
2574.214	4287
2576.148	4197
2578.081	4306
2580.014	4160
2581.947	4270
2583.879	4263
2585.81	4225
2587.741	4308
2589.67	4266
2591.602	4376
2593.532	4257
2595.461	4261
2597.388	4228
2599.316	4268
2601.244	4317
2603.172	4213
2605.098	4290
2607.023	4344
2608.949	4359
2610.873	4261
2612.8	4243
2614.723	4215
2616.647	4338
2618.569	4278
2620.493	4298
2622.416	4354
2624.338	4219
2626.258	4271
2628.179	4331
2630.099	4303
2632.019	4310
2633.939	4363
2635.857	4323
2637.775	4331
2639.694	4244
2641.61	4289
2643.528	4368
2645.444	4358
2647.361	4197
2649.276	4249
2651.19	4329
2653.105	4268
2655.019	4225
2656.934	4288
2658.846	4181
2660.758	4281
2662.67	4223
2664.583	4236
2666.493	4302
2668.404	4311
2670.313	4139
2672.223	4304
2674.134	4245
2676.042	4380
2677.95	4263
2679.858	4228
2681.765	4319
2683.673	4262
2685.579	4295
2687.483	4287
2689.389	4265
2691.294	4281
2693.198	4268
2695.104	4235
2697.006	4342
2698.909	4265
2700.811	4228
2702.713	4234
2704.615	4276
2706.516	4107
2708.417	4267
2710.316	4211
2712.216	4212
2714.115	4225
2716.014	4330
2717.913	4241
2719.81	4207
2721.707	4325
2723.603	4261
2725.501	4256
2727.396	4170
2729.292	4176
2731.186	4158
2733.081	4289
2734.976	4263
2736.87	4211
2738.762	4274
2740.653	4230
2742.546	4188
2744.437	4162
2746.329	4252
2748.22	4268
2750.11	4204
2751.999	4178
2753.889	4275
2755.778	4245
2757.666	4150
2759.553	4258
2761.44	4217
2763.328	4210
2765.215	4240
2767.101	4181
2768.986	4225
2770.87	4233
2772.754	4224
2774.638	4249
2776.523	4222
2778.405	4182
2780.288	4174
2782.17	4225
2784.051	4106
2785.934	4206
2787.814	4215
2789.694	4201
2791.574	4119
2793.453	4192
2795.332	4236
2797.212	4156
2799.088	4144
2800.966	4206
2802.843	4179
2804.719	4220
2806.597	4233
2808.471	4225
2810.346	4261
2812.221	4131
2814.094	4152
2815.969	4170
2817.843	4195
2819.714	4191
2821.587	4081
2823.459	4217
2825.329	4204
2827.202	4113
2829.072	4246
2830.942	4199
2832.811	4229
2834.68	4135
2836.549	4140
2838.418	4180
2840.284	4158
2842.152	4195
2844.018	4219
2845.885	4172
2847.751	4113
2849.616	4238
2851.482	4204
2853.345	4191
2855.208	4190
2857.074	4283
2858.937	4303
2860.799	4190
2862.66	4276
2864.522	4223
2866.385	4245
2868.245	4190
2870.104	4328
2871.964	4317
2873.824	4315
2875.683	4392
2877.542	4430
2879.4	4431
2881.257	4221
2883.114	4346
2884.97	4338
2886.827	4421
2888.683	4348
2890.537	4448
2892.392	4455
2894.246	4402
2896.1	4350
2897.954	4304
2899.807	4376
2901.66	4430
2903.51	4317
2905.362	4398
2907.214	4377
2909.065	4292
2910.915	4430
2912.765	4466
2914.613	4374
2916.463	4407
2918.311	4541
2920.158	4542
2922.006	4555
2923.853	4575
2925.698	4486
2927.546	4500
2929.392	4543
2931.236	4552
2933.081	4577
2934.924	4622
2936.77	4638
2938.613	4676
2940.455	4748
2942.298	4670
2944.139	4686
2945.982	4704
2947.823	4673
2949.662	4680
2951.503	4662
2953.342	4582
2955.182	4580
2957.021	4598
2958.858	4645
2960.697	4539
2962.534	4493
2964.37	4536
2966.207	4564
2968.044	4422
2969.879	4455
2971.714	4404
2973.548	4440
2975.383	4351
2977.218	4409
2979.051	4427
2980.883	4355
2982.715	4438
2984.547	4373
2986.379	4434
2988.21	4287
2990.04	4275
2991.87	4354
2993.7	4311
2995.53	4298
2997.359	4272
2999.187	4221
3001.015	4228
3002.842	4263
3004.669	4239
3006.497	4302
3008.323	4166
3010.148	4120
3011.974	4094
3013.797	4108
3015.623	4025
3017.447	4082
3019.27	4080
3021.094	4102
3022.915	4121
3024.737	4083
3026.56	4081
3028.38	4005
3030.201	4011
3032.022	4042
3033.84	4074
3035.662	4027
3037.481	3998
3039.298	4016
3041.117	4050
3042.933	4034
3044.752	4020
3046.568	4037
3048.385	4011
3050.2	3996
3052.016	4043
3053.83	4026
3055.646	4035
3057.46	4009
3059.272	3944
3061.086	3979
3062.898	3996
3064.711	4076
3066.524	4091
3068.335	4044
3070.145	4004
3071.956	3918
3073.766	3997
3075.576	3972
3077.385	3985
3079.193	3945
3081.002	3945
3082.81	3909
3084.618	3954
3086.425	3928
3088.231	3971
3090.036	3934
3091.842	3947
3093.648	3885
3095.452	3916
3097.257	3978
3099.06	3997
3100.863	3870
3102.666	3868
3104.47	4007
3106.272	3846
3108.073	3920
3109.875	3866
3111.676	3983
3113.477	3885
3115.277	3834
3117.077	3877
3118.874	3852
3120.673	3865
3122.473	3893
3124.271	3837
3126.066	3985
3127.863	3850
3129.66	3888
3131.456	3920
3133.252	3869
3135.047	3855
3136.842	3844
3138.635	3899
3140.429	3863
3142.223	3859
3144.016	3811
3145.808	3878
3147.6	3810
3149.392	3855
3151.183	3849
3152.975	3768
3154.765	3894
3156.553	3888
3158.344	3767
3160.132	3839
3161.922	3748
3163.71	3822
3165.497	3824
3167.285	3823
3169.071	3860
3170.858	3903
3172.645	3843
3174.429	3740
3176.214	3848
3177.998	3855
3179.783	3790
3181.568	3732
3183.351	3823
3185.133	3756
3186.915	3752
3188.698	3761
3190.481	3854
3192.261	3838
3194.042	3818
3195.822	3693
3197.601	3794
3199.381	3728
3201.161	3771
3202.939	3811
3204.717	3739
3206.495	3739
3208.272	3767
3210.05	3738
3211.826	3754
3213.602	3729
3215.376	3668
3217.151	3725
3218.927	3672
3220.702	3748
3222.476	3772
3224.249	3790
3226.021	3713
3227.793	3802
3229.567	3731
3231.339	3730
3233.109	3766
3234.88	3849
3236.651	3632
3238.421	3727
3240.191	3686
3241.96	3691
3243.728	3718
3245.497	3770
3247.263	3722
3249.033	3689
3250.799	3731
3252.566	3781
3254.331	3798
3256.097	3745
3257.863	3698
3259.628	3724
3261.392	3690
3263.156	3727
3264.919	3745
3266.683	3768
3268.447	3803
3270.208	3752
3271.969	3789
3273.731	3730
3275.492	3837
3277.253	3751
3279.013	3691
3280.773	3720
3282.532	3728
3284.291	3742
3286.05	3696
3287.808	3707
3289.566	3704
3291.323	3739
3293.079	3651
3294.835	3759
3296.593	3769
3298.348	3748
3300.102	3700
3301.857	3763
3303.611	3733
3305.366	3766
3307.119	3709
3308.872	3758
3310.624	3667
3312.376	3726
3314.129	3734
3315.881	3772
3317.631	3718
3319.38	3814
3321.13	3787
3322.88	3689
3324.631	3735
3326.379	3671
3328.126	3738
3329.875	3664
3331.622	3686
3333.371	3711
3335.116	3704
3336.863	3668
3338.609	3671
3340.353	3699
3342.1	3681
3343.845	3712
3345.588	3637
3347.332	3587
3349.074	3669
3350.817	3738
3352.56	3739
3354.303	3624
3356.043	3708
3357.785	3646
3359.525	3576
3361.268	3639
3363.007	3692
3364.745	3659
3366.485	3703
3368.223	3608
3369.962	3686
3371.701	3727
3373.438	3660
3375.174	3664
3376.911	3677
3378.647	3649
3380.384	3719
3382.118	3654
3383.854	3570
3385.588	3712
3387.322	3681
3389.057	3609
3390.79	3658
3392.522	3549
3394.255	3608
3395.987	3679
3397.719	3656
3399.451	3625
3401.181	3568
3402.911	3691
3404.641	3577
3406.371	3578
3408.101	3687
3409.83	3652
3411.558	3555
3413.285	3584
3415.011	3665
3416.739	3598
3418.467	3614
3420.193	3580
3421.919	3587
3423.644	3581
3425.368	3646
3427.094	3605
3428.818	3615
3430.542	3552
3432.264	3603
3433.987	3585
3435.712	3634
3437.434	3604
3439.155	3529
3440.876	3571
3442.596	3458
3444.317	3617
3446.039	3570
3447.757	3493
3449.477	3604
3451.195	3602
3452.914	3551
3454.632	3494
3456.35	3519
3458.067	3514
3459.784	3547
3461.5	3537
3463.216	3477
3464.932	3505
3466.647	3592
3468.362	3482
3470.076	3505
3471.789	3392
3473.505	3481
3475.217	3521
3476.929	3469
3478.641	3401
3480.354	3455
3482.066	3491
3483.777	3456
3485.487	3510
3487.197	3511
3488.908	3414
3490.617	3462
3492.327	3515
3494.035	3397
3495.743	3430
3497.451	3477
3499.158	3458
3500.866	3394
3502.572	3440
3504.278	3433
3505.984	3467
3507.689	3385
3509.396	3516
3511.1	3429
3512.804	3447
3514.508	3450
3516.211	3462
3517.913	3334
3519.616	3370
3521.319	3400
3523.021	3321
3524.722	3414
3526.422	3393
3528.124	3400
3529.824	3324
3531.524	3373
3533.222	3410
3534.921	3302
3536.62	3407
3538.318	3456
3540.016	3446
3541.714	3340
3543.41	3384
3545.107	3379
3546.803	3439
3548.5	3381
3550.194	3410
3551.889	3398
3553.583	3404
3555.279	3408
3556.972	3430
3558.666	3334
3560.358	3376
3562.051	3336
3563.742	3355
3565.435	3301
3567.126	3295
3568.817	3359
3570.507	3387
3572.197	3291
3573.888	3292
3575.577	3350
3577.265	3335
3578.954	3271
3580.642	3329
3582.329	3338
3584.017	3303
3585.704	3282
3587.391	3269
3589.077	3369
3590.762	3254
3592.449	3284
3594.133	3340
3595.817	3252
3597.501	3340
3599.185	3230
3600.869	3333
3602.552	3304
3604.234	3355
3605.916	3295
3607.598	3298
3609.279	3220
3610.961	3331
3612.642	3260
3614.321	3266
3616	3194
3617.68	3252
3619.36	3214
3621.039	3206
3622.716	3245
3624.394	3270
3626.071	3190
3627.748	3239
3629.425	3257
3631.102	3225
3632.778	3219
3634.452	3152
3636.127	3150
3637.803	3212
3639.477	3178
3641.151	3173
3642.823	3149
3644.497	3183
3646.171	3215
3647.842	3162
3649.515	3220
3651.185	3187
3652.857	3095
3654.527	3155
3656.198	3158
3657.868	3161
3659.537	3130
3661.207	3116
3662.875	3161
3664.544	3179
3666.212	3269
3667.879	3151
3669.546	3169
3671.212	3189
3672.88	3132
3674.546	3109
3676.211	3099
3677.875	3164
3679.541	3241
3681.205	3126
3682.87	3191
3684.533	3095
3686.196	3132
3687.859	3122
3689.521	3204
3691.184	3079
3692.845	3175
3694.507	3098
3696.167	3146
3697.827	3132
3699.487	3118
3701.148	3170
3702.808	3177
3704.466	3183
3706.125	3115
3707.783	3058
3709.442	3129
3711.099	3085
3712.757	3131
3714.412	3122
3716.068	3068
3717.725	3117
3719.381	3125
3721.036	3108
3722.689	3097
3724.344	3120
3725.998	3049
3727.652	3113
3729.305	3157
3730.958	3106
3732.61	3070
3734.262	3127
3735.915	3153
3737.565	2988
3739.217	3116
3740.866	3100
3742.516	3058
3744.165	3168
3745.816	3052
3747.464	3016
3749.113	2953
3750.761	3058
3752.409	3047
3754.057	3061
3755.703	3059
3757.35	2964
3758.996	3100
3760.641	3050
3762.289	3020
3763.933	3028
3765.577	3071
3767.222	3070
3768.865	3077
3770.508	2955
3772.152	3035
3773.796	2968
3775.438	3050
3777.079	2985
3778.721	3029
3780.363	3023
3782.003	2959
3783.643	2923
3785.283	3015
3786.923	2959
3788.563	2992
3790.203	3003
3791.841	2991
3793.479	2989
3795.115	2968
3796.753	2929
3798.391	2899
3800.027	2980
3801.664	3040
3803.299	2960
3804.935	2998
3806.571	2998
3808.206	3002
3809.839	2989
3811.473	3001
3813.107	2908
3814.74	2963
3816.375	3031
3818.006	2947
3819.638	3002
3821.27	2956
3822.9	2944
3824.532	2910
3826.163	2923
3827.792	2957
3829.423	2919
3831.051	2908
3832.682	2946
3834.311	2895
3835.938	3001
3837.566	2985
3839.193	2887
3840.821	2887
3842.448	2847
3844.075	2901
3845.7	2955
3847.325	2951
3848.951	2900
3850.576	2981
3852.201	2975
3853.825	2919
3855.448	2961
3857.072	2920
3858.694	2945
3860.318	2868
3861.939	2852
3863.562	2894
3865.183	2882
3866.804	2922
3868.426	2866
3870.045	2912
3871.666	2928
3873.285	2857
3874.904	2960
3876.524	2812
3878.142	2892
3879.76	2917
3881.378	2804
3882.995	2812
3884.612	2836
3886.229	2865
3887.845	2845
3889.461	2789
3891.076	2827
3892.691	2797
3894.307	2787
3895.922	2799
3897.536	2857
3899.149	2963
3900.761	2809
3902.374	2913
3903.988	2822
3905.6	2850
3907.212	2848
3908.822	2864
3910.433	2761
3912.045	2844
3913.655	2883
3915.265	2810
3916.875	2863
3918.483	2808
3920.093	2914
3921.702	2794
3923.309	2796
3924.917	2862
3926.523	2814
3928.13	2822
3929.739	2835
3931.344	2816
3932.95	2842
3934.555	2779
3936.159	2851
3937.766	2847
3939.369	2812
3940.974	2796
3942.577	2888
3944.181	2838
3945.783	2840
3947.386	2839
3948.989	2852
3950.59	2793
3952.191	2773
3953.791	2811
3955.394	2853
3956.994	2801
3958.593	2793
3960.192	2771
3961.791	2805
3963.392	2812
3964.99	2796
3966.588	2775
3968.185	2817
3969.782	2809
3971.379	2775
3972.976	2740
3974.572	2774
3976.168	2744
3977.763	2765
3979.358	2790
3980.954	2780
3982.548	2742
3984.142	2720
3985.736	2694
3987.329	2730
3988.922	2789
3990.516	2690
3992.108	2798
3993.698	2701
3995.29	2722
3996.881	2798
3998.473	2777
4000.064	2693
4001.653	2693
4003.242	2718
4004.832	2732
4006.422	2668
4008.01	2642
4009.598	2702
4011.186	2668
4012.773	2668
4014.36	2654
4015.947	2698
4017.534	2653
4019.119	2711
4020.705	2687
4022.291	2726
4023.876	2633
4025.461	2639
4027.044	2705
4028.627	2646
4030.211	2617
4031.795	2671
4033.378	2636
4034.96	2659
4036.542	2673
4038.124	2673
4039.704	2562
4041.286	2736
4042.867	2649
4044.447	2726
4046.026	2571
4047.606	2644
4049.187	2632
4050.765	2693
4052.343	2593
4053.92	2596
4055.498	2672
4057.076	2648
4058.654	2595
4060.23	2626
4061.806	2643
4063.381	2587
4064.957	2644
4066.533	2590
4068.107	2635
4069.682	2601
4071.256	2552
4072.829	2582
4074.404	2649
4075.977	2579
4077.549	2612
4079.121	2610
4080.693	2594
4082.265	2553
4083.836	2614
4085.407	2558
4086.977	2557
4088.547	2561
4090.117	2607
4091.687	2640
4093.256	2554
4094.825	2599
4096.392	2589
4097.96	2614
4099.528	2529
4101.097	2531
4102.663	2542
4104.229	2592
4105.795	2570
4107.361	2538
4108.928	2543
4110.493	2536
4112.058	2579
4113.621	2513
4115.186	2552
4116.75	2571
4118.313	2551
4119.876	2493
4121.438	2516
4123	2534
4124.562	2531
4126.125	2479
4127.686	2559
4129.246	2545
4130.807	2506
4132.367	2528
4133.927	2501
4135.486	2498
4137.046	2495
4138.604	2524
4140.162	2528
4141.72	2495
4143.279	2523
4144.836	2491
4146.393	2569
4147.949	2455
4149.505	2559
4151.062	2548
4152.617	2511
4154.172	2580
4155.727	2537
4157.281	2405
4158.836	2499
4160.39	2523
4161.943	2471
4163.496	2429
4165.048	2487
4166.601	2483
4168.154	2510
4169.706	2499
4171.257	2499
4172.808	2544
4174.358	2415
4175.909	2466
4177.458	2391
4179.008	2433
4180.558	2479
4182.106	2480
4183.655	2492
4185.204	2462
4186.751	2494
4188.298	2398
4189.845	2376
4191.392	2425
4192.939	2492
4194.485	2367
4196.031	2464
4197.576	2382
4199.121	2360
4200.666	2462
4202.211	2370
4203.754	2369
4205.298	2387
4206.84	2438
4208.384	2361
4209.927	2408
4211.47	2344
4213.011	2406
4214.552	2405
4216.094	2369
4217.635	2457
4219.175	2350
4220.716	2377
4222.255	2352
4223.793	2435
4225.335	2339
4226.873	2369
4228.411	2321
4229.948	2375
4231.486	2402
4233.024	2379
4234.562	2383
4236.098	2414
4237.634	2338
4239.169	2383
4240.705	2381
4242.241	2310
4243.776	2391
4245.31	2303
4246.844	2416
4248.378	2334
4249.911	2349
4251.445	2341
4252.978	2422
4254.51	2368
4256.042	2327
4257.574	2333
4259.107	2323
4260.638	2383
4262.169	2372
4263.699	2329
4265.228	2295
4266.759	2326
4268.289	2371
4269.818	2339
4271.345	2321
4272.874	2321
4274.402	2308
4275.931	2346
4277.458	2352
4278.985	2333
4280.512	2280
4282.037	2299
4283.564	2337
4285.089	2303
4286.615	2254
4288.139	2324
4289.664	2312
4291.187	2313
4292.712	2337
4294.235	2325
4295.759	2280
4297.281	2302
4298.804	2279
4300.327	2289
4301.849	2275
4303.37	2331
4304.891	2309
4306.412	2289
4307.933	2282
4309.453	2317
4310.973	2327
4312.492	2304
