398.1873	2677
400.7097	2755
403.2336	2743
405.7547	2755
408.2751	2790
410.7948	2744
413.3138	2688
415.83	2759
418.3497	2810
420.8666	2858
423.3829	2832
425.8985	2859
428.4133	2852
430.9275	2924
433.441	2833
435.9538	2890
438.4639	2910
440.9753	2897
443.4881	2829
445.9982	2849
448.5055	2891
451.0142	2885
453.5201	2947
456.0274	2966
458.5361	2892
461.04	2856
463.5453	2848
466.0478	2832
468.5517	2905
471.0549	2954
473.5574	2885
476.0572	2906
478.5584	2959
481.0568	2925
483.5545	2896
486.0557	2919
488.5521	2895
491.0478	2923
493.5449	2911
496.0392	2890
498.5349	2956
501.0299	2935
503.5222	3002
506.0139	2992
508.5048	2944
510.9991	2891
513.4887	3018
515.9777	3044
518.4659	2952
520.9534	2988
523.4403	2998
525.9306	2960
528.4161	2992
530.9009	3036
533.3851	2922
535.8687	3028
538.3535	2939
540.8356	3024
543.3171	3021
545.7979	2955
548.278	3016
550.7595	2977
553.2383	2929
555.7144	2979
558.1918	3039
560.6685	3026
563.1446	3044
565.6221	3035
568.0968	2996
570.5688	3124
573.0422	3061
575.515	3127
577.989	3071
580.4584	3083
582.9291	3045
585.3991	3084
587.8685	3066
590.3352	3116
592.8052	3143
595.2706	3157
597.7372	3134
600.2033	3095
602.6666	3021
605.1334	3081
607.5953	3060
610.0587	3086
612.5193	3133
614.9814	3129
617.4427	3140
619.9034	3017
622.3615	3063
624.8208	3074
627.2775	3171
629.7335	3141
632.1929	3095
634.6476	3072
637.1016	3077
639.5569	3072
642.0096	3143
644.4637	3116
646.9151	3123
649.3678	3176
651.8179	3041
654.2672	3212
656.7159	3112
659.166	3160
661.6154	3148
664.0622	3167
666.5082	3078
668.9537	3166
671.4005	3100
673.8445	3159
676.288	3218
678.7308	3259
681.1729	3182
683.6163	3215
686.0572	3205
688.4973	3227
690.9368	3107
693.3757	3227
695.8138	3199
698.2534	3276
700.6902	3118
703.1245	3214
705.56	3282
707.9949	3207
710.4311	3233
712.8647	3192
715.2957	3258
717.7279	3239
720.1595	3274
722.5905	3266
725.0208	3229
727.4505	3308
729.8795	3200
732.3058	3266
734.7336	3308
737.1626	3317
739.587	3320
742.0128	3242
744.4359	3342
746.8604	3303
749.2841	3309
751.7073	3261
754.1278	3312
756.5496	3379
758.9688	3334
761.3893	3394
763.8093	3363
766.2285	3351
768.6451	3404
771.0611	3402
773.4784	3434
775.895	3335
778.3091	3470
780.7244	3418
783.1371	3353
785.5493	3417
787.9626	3445
790.3754	3400
792.7856	3385
795.1951	3392
797.6039	3418
800.0121	3433
802.4236	3430
804.8306	3393
807.2369	3392
809.6425	3477
812.0475	3393
814.4538	3395
816.8575	3370
819.2606	3467
821.663	3497
824.0648	3430
826.4659	3445
828.8683	3456
831.2682	3476
833.6674	3419
836.066	3566
838.4639	3478
840.8632	3386
843.2579	3476
845.6539	3517
848.0493	3550
850.444	3459
852.84	3562
855.2315	3537
857.6243	3439
860.0165	3459
862.4081	3516
864.797	3445
867.1892	3474
869.5789	3507
871.9659	3557
874.3542	3476
876.74	3492
879.129	3541
881.5155	3507
883.8994	3551
886.2845	3486
888.6671	3512
891.051	3527
893.4343	3374
895.8169	3456
898.197	3449
900.5783	3459
902.9571	3474
905.3372	3498
907.7167	3473
910.0936	3503
912.4698	3524
914.8474	3659
917.2244	3595
919.5987	3577
921.9744	3557
924.3475	3560
926.72	3640
929.0918	3594
931.4669	3636
933.8375	3663
936.2074	3655
938.5767	3709
940.9454	3758
943.3154	3712
945.6829	3837
948.0497	3885
950.4178	3942
952.7833	3994
955.1483	4033
957.5145	4241
959.8782	4238
962.2412	4220
964.6036	4224
966.9655	4056
969.3266	3922
971.6871	3867
974.0471	3798
976.4064	3670
978.765	3699
981.125	3641
983.4824	3672
985.8373	3612
988.1935	3590
990.549	3633
992.9039	3640
995.2602	3675
997.6119	3668
999.965	3690
1002.317	3615
1004.667	3618
1007.02	3695
1009.371	3657
1011.719	3613
1014.068	3654
1016.415	3681
1018.765	3640
1021.111	3718
1023.458	3779
1025.804	3622
1028.147	3701
1030.49	3696
1032.837	3763
1035.179	3682
1037.522	3639
1039.862	3588
1042.204	3678
1044.546	3648
1046.884	3683
1049.224	3742
1051.562	3753
1053.899	3671
1056.237	3788
1058.575	3718
1060.91	3755
1063.244	3792
1065.58	3771
1067.913	3696
1070.248	3833
1072.579	3774
1074.911	3723
1077.242	3722
1079.572	3730
1081.905	3756
1084.234	3700
1086.562	3752
1088.89	3733
1091.217	3663
1093.544	3636
1095.871	3745
1098.197	3722
1100.521	3688
1102.845	3699
1105.169	3722
1107.491	3684
1109.814	3708
1112.135	3714
1114.456	3642
1116.776	3756
1119.096	3767
1121.415	3808
1123.734	3680
1126.052	3779
1128.369	3778
1130.686	3768
1133.002	3817
1135.318	3703
1137.632	3829
1139.945	3807
1142.258	3776
1144.573	3766
1146.884	3757
1149.196	3732
1151.505	3710
1153.816	3770
1156.124	3738
1158.435	3723
1160.742	3745
1163.051	3687
1165.356	3834
1167.663	3751
1169.97	3803
1172.276	3737
1174.579	3744
1176.881	3765
1179.186	3766
1181.487	3716
1183.79	3731
1186.092	3697
1188.392	3752
1190.691	3714
1192.991	3778
1195.291	3743
1197.588	3852
1199.885	3787
1202.181	3737
1204.479	3850
1206.775	3712
1209.07	3743
1211.363	3787
1213.656	3737
1215.949	3774
1218.241	3852
1220.534	3675
1222.825	3768
1225.115	3820
1227.405	3805
1229.693	3848
1231.984	3781
1234.271	3886
1236.558	3821
1238.845	3921
1241.131	3808
1243.416	3856
1245.703	3927
1247.987	3858
1250.269	3813
1252.552	3898
1254.834	3819
1257.118	3946
1259.399	3939
1261.678	3851
1263.958	3867
1266.237	3847
1268.516	3930
1270.794	3917
1273.072	3883
1275.347	3892
1277.624	3911
1279.899	3877
1282.175	3953
1284.449	3840
1286.722	3861
1288.995	3817
1291.266	3866
1293.54	3871
1295.81	3889
1298.081	3833
1300.35	3841
1302.62	3875
1304.889	3860
1307.156	3829
1309.425	3843
1311.69	3857
1313.957	3834
1316.222	3955
1318.488	3802
1320.751	3837
1323.016	3858
1325.278	3865
1327.54	3867
1329.803	3841
1332.065	3839
1334.325	3855
1336.584	3944
1338.843	3856
1341.101	3877
1343.36	3922
1345.617	3917
1347.876	3978
1350.131	3893
1352.387	3899
1354.643	3971
1356.897	3874
1359.151	3880
1361.403	3847
1363.656	3872
1365.909	3878
1368.16	3942
1370.409	3872
1372.659	3935
1374.909	3927
1377.157	3858
1379.407	3859
1381.655	3926
1383.9	3995
1386.147	3913
1388.393	3896
1390.64	3931
1392.885	4012
1395.127	3909
1397.37	3905
1399.614	3985
1401.854	3912
1404.098	3972
1406.339	3965
1408.578	3885
1410.818	3906
1413.056	3968
1415.297	3979
1417.533	3959
1419.771	3942
1422.006	4005
1424.243	3922
1426.479	3961
1428.715	3991
1430.948	3998
1433.182	4042
1435.414	4116
1437.647	4034
1439.88	4062
1442.11	4058
1444.342	4125
1446.571	4058
1448.799	4046
1451.029	4081
1453.258	3977
1455.485	4009
1457.711	3982
1459.937	4024
1462.164	4024
1464.39	4017
1466.614	4053
1468.838	3936
1471.06	4027
1473.283	4024
1475.506	3979
1477.727	4041
1479.949	4009
1482.169	4022
1484.389	4057
1486.609	3998
1488.828	4015
1491.045	4023
1493.261	3937
1495.477	3922
1497.693	3970
1499.91	4044
1502.125	3894
1504.339	3948
1506.553	3963
1508.766	3977
1510.979	3907
1513.191	3935
1515.402	3944
1517.613	4012
1519.823	3970
1522.033	4038
1524.242	3941
1526.451	3907
1528.657	3905
1530.865	3898
1533.072	3935
1535.278	3957
1537.484	3942
1539.687	4053
1541.892	3968
1544.096	3960
1546.299	3963
1548.502	3987
1550.703	4024
1552.905	3981
1555.104	4003
1557.303	4046
1559.505	4024
1561.703	4022
1563.902	4030
1566.099	3977
1568.295	4057
1570.494	3964
1572.689	4099
1574.883	4038
1577.079	4053
1579.272	4077
1581.467	4018
1583.659	4095
1585.853	4089
1588.044	4084
1590.234	3981
1592.424	4031
1594.615	4073
1596.806	4111
1598.994	4042
1601.182	4103
1603.369	4057
1605.557	4019
1607.744	4151
1609.929	4158
1612.114	4110
1614.298	4079
1616.482	4149
1618.667	4064
1620.85	4199
1623.032	4110
1625.214	4058
1627.395	4160
1629.575	4131
1631.755	4093
1633.935	4195
1636.114	4095
1638.292	4138
1640.471	4161
1642.647	4165
1644.823	4199
1647	4118
1649.175	4130
1651.348	4161
1653.525	4210
1655.698	4065
1657.87	4264
1660.043	4151
1662.213	4276
1664.387	4168
1666.558	4171
1668.727	4132
1670.896	4202
1673.064	4208
1675.233	4160
1677.401	4204
1679.569	4117
1681.735	4195
1683.902	4119
1686.066	4191
1688.233	4137
1690.397	4125
1692.559	4185
1694.723	4091
1696.885	4175
1699.048	4184
1701.21	4090
1703.37	4148
1705.53	4149
1707.689	4153
1709.849	4084
1712.009	4136
1714.166	4247
1716.323	4098
1718.479	4110
1720.634	4100
1722.793	4148
1724.948	4185
1727.102	4083
1729.255	4157
1731.408	4083
1733.562	4106
1735.714	4082
1737.865	4244
1740.016	4133
1742.166	4128
1744.316	4086
1746.467	4223
1748.616	4144
1750.764	4050
1752.911	4149
1755.056	4189
1757.205	4046
1759.35	4223
1761.496	4205
1763.641	4247
1765.785	4062
1767.927	4209
1770.072	4111
1772.214	4289
1774.355	4104
1776.496	4391
1778.637	4239
1780.778	4103
1782.918	4190
1785.057	4130
1787.194	4199
1789.333	4193
1791.472	4193
1793.608	4198
1795.745	4092
1797.879	4186
1800.015	4248
1802.148	4208
1804.284	4170
1806.417	4129
1808.548	4277
1810.682	4144
1812.812	4283
1814.946	4192
1817.075	4218
1819.205	4126
1821.335	4163
1823.463	4232
1825.59	4146
1827.721	4160
1829.847	4173
1831.973	4244
1834.098	4193
1836.223	4182
1838.351	4192
1840.475	4247
1842.598	4226
1844.721	4176
1846.843	4233
1848.966	4258
1851.087	4282
1853.21	4141
1855.33	4187
1857.449	4204
1859.568	4175
1861.688	4102
1863.806	4204
1865.924	4210
1868.039	4175
1870.155	4220
1872.273	4160
1874.388	4261
1876.503	4189
1878.617	4210
1880.73	4238
1882.844	4155
1884.956	4244
1887.068	4117
1889.18	4180
1891.291	4238
1893.4	4196
1895.511	4189
1897.621	4175
1899.73	4237
1901.837	4248
1903.944	4325
1906.053	4166
1908.159	4177
1910.265	4231
1912.369	4213
1914.474	4263
1916.577	4238
1918.683	4375
1920.785	4260
1922.888	4216
1924.989	4192
1927.091	4285
1929.193	4325
1931.294	4327
1933.393	4293
1935.493	4243
1937.59	4293
1939.689	4303
1941.788	4313
1943.884	4257
1945.98	4214
1948.077	4266
1950.171	4278
1952.267	4244
1954.361	4209
1956.455	4287
1958.548	4194
1960.64	4321
1962.733	4310
1964.824	4201
1966.915	4340
1969.005	4243
1971.096	4210
1973.185	4294
1975.275	4214
1977.363	4426
1979.45	4196
1981.537	4245
1983.623	4207
1985.711	4312
1987.796	4309
1989.881	4244
1991.965	4237
1994.047	4362
1996.132	4215
1998.215	4248
2000.297	4238
2002.378	4173
2004.46	4189
2006.54	4227
2008.62	4255
2010.7	4288
2012.779	4270
2014.858	4297
2016.934	4270
2019.013	4305
2021.09	4224
2023.165	4276
2025.241	4315
2027.317	4321
2029.39	4228
2031.466	4262
2033.538	4321
2035.612	4254
2037.683	4172
2039.755	4273
2041.827	4313
2043.898	4295
2045.968	4202
2048.038	4300
2050.106	4319
2052.177	4282
2054.244	4239
2056.313	4249
2058.379	4339
2060.444	4279
2062.511	4309
2064.577	4342
2066.641	4267
2068.705	4323
2070.77	4287
2072.832	4203
2074.896	4320
2076.958	4357
2079.02	4302
2081.081	4378
2083.141	4313
2085.2	4257
2087.261	4297
2089.319	4311
2091.377	4195
2093.435	4296
2095.492	4290
2097.552	4318
2099.607	4312
2101.663	4302
2103.718	4364
2105.771	4289
2107.826	4254
2109.879	4390
2111.932	4320
2113.985	4226
2116.037	4269
2118.088	4251
2120.141	4254
2122.191	4296
2124.239	4231
2126.288	4335
2128.337	4261
2130.387	4241
2132.434	4273
2134.481	4251
2136.528	4300
2138.574	4241
2140.618	4324
2142.665	4264
2144.71	4295
2146.753	4296
2148.797	4211
2150.838	4285
2152.883	4288
2154.923	4232
2156.965	4284
2159.007	4278
2161.046	4292
2163.086	4283
2165.126	4205
2167.163	4274
2169.202	4282
2171.239	4285
2173.277	4249
2175.314	4310
2177.349	4317
2179.385	4340
2181.42	4313
2183.453	4243
2185.49	4156
2187.522	4339
2189.555	4282
2191.586	4193
2193.619	4269
2195.651	4298
2197.682	4197
2199.711	4226
2201.74	4236
2203.769	4214
2205.799	4145
2207.828	4244
2209.855	4172
2211.882	4312
2213.908	4238
2215.934	4168
2217.961	4218
2219.986	4271
2222.01	4215
2224.034	4375
2226.057	4169
2228.08	4253
2230.104	4188
2232.124	4273
2234.145	4208
2236.166	4185
2238.186	4200
2240.207	4135
2242.227	4294
2244.244	4188
2246.262	4212
2248.28	4181
2250.299	4210
2252.314	4251
2254.33	4257
2256.346	4240
2258.36	4193
2260.375	4295
2262.391	4206
2264.403	4213
2266.416	4157
2268.427	4250
2270.44	4215
2272.453	4236
2274.463	4247
2276.474	4303
2278.483	4298
2280.493	4206
2282.501	4199
2284.51	4247
2286.518	4213
2288.524	4222
2290.532	4192
2292.537	4257
2294.544	4249
2296.55	4145
2298.554	4317
2300.557	4232
2302.562	4217
2304.566	4329
2306.568	4240
2308.569	4263
2310.572	4232
2312.573	4193
2314.573	4260
2316.574	4212
2318.573	4231
2320.571	4190
2322.571	4295
2324.569	4234
2326.567	4132
2328.564	4228
2330.56	4188
2332.556	4252
2334.551	4276
2336.546	4191
2338.542	4199
2340.535	4144
2342.529	4217
2344.521	4216
2346.512	4074
2348.505	4183
2350.497	4193
2352.487	4175
2354.478	4154
2356.468	4222
2358.457	4142
2360.446	4240
2362.434	4228
2364.422	4229
2366.408	4191
2368.395	4249
2370.383	4248
2372.369	4168
2374.353	4235
2376.338	4223
2378.321	4140
2380.307	4198
2382.29	4191
2384.272	4152
2386.254	4163
2388.235	4252
2390.218	4168
2392.198	4182
2394.179	4202
2396.157	4122
2398.137	4099
2400.115	4203
2402.095	4113
2404.072	4162
2406.048	4131
2408.026	4113
2410.001	4208
2411.977	4108
2413.953	4135
2415.927	4183
2417.9	4129
2419.875	4129
2421.847	4223
2423.821	4160
2425.792	4179
2427.763	4239
2429.736	4070
2431.706	4125
2433.677	4197
2435.646	4146
2437.615	4161
2439.583	4143
2441.551	4252
2443.519	4162
2445.486	4122
2447.452	4181
2449.418	4112
2451.383	4145
2453.348	4025
2455.314	4159
2457.278	4117
2459.241	4144
2461.205	4134
2463.167	4161
2465.131	4155
2467.091	4120
2469.052	4090
2471.012	4175
2472.972	4064
2474.932	4084
2476.891	4104
2478.85	4111
2480.808	4037
2482.766	4222
2484.722	4131
2486.68	4065
2488.636	4112
2490.591	4080
2492.546	4094
2494.5	4057
2496.456	4091
2498.41	4060
2500.362	4052
2502.315	4126
2504.266	4117
2506.218	4092
2508.169	4121
2510.121	4099
2512.07	4032
2514.019	4147
2515.968	4132
2517.918	4118
2519.866	4055
2521.813	4105
2523.76	4078
2525.707	4224
2527.653	4061
2529.599	4139
2531.543	4155
2533.489	4116
2535.433	4066
2537.376	4123
2539.32	4190
2541.264	4192
2543.205	4096
2545.147	4073
2547.087	4145
2549.029	4117
2550.969	4081
2552.908	4153
2554.847	4128
2556.786	4151
2558.724	4117
2560.663	4100
2562.6	4027
2564.537	4085
2566.473	4039
2568.408	4053
2570.345	4092
2572.28	4204
2574.214	4077
2576.148	4157
2578.081	4103
2580.014	4079
2581.947	4150
2583.879	4059
2585.81	4100
2587.741	4107
2589.67	4125
2591.602	4116
2593.532	4083
2595.461	4144
2597.388	4132
2599.316	4161
2601.244	4073
2603.172	4071
2605.098	4131
2607.023	4119
2608.949	4183
2610.873	4109
2612.8	4139
2614.723	4154
2616.647	4072
2618.569	4142
2620.493	4070
2622.416	4177
2624.338	4185
2626.258	4139
2628.179	4135
2630.099	4153
2632.019	4100
2633.939	4110
2635.857	4183
2637.775	4249
2639.694	4122
2641.61	4122
2643.528	4154
2645.444	4117
2647.361	4157
2649.276	4153
2651.19	4146
2653.105	4167
2655.019	4049
2656.934	4223
2658.846	4206
2660.758	4165
2662.67	4113
2664.583	4160
2666.493	4206
2668.404	4124
2670.313	4130
2672.223	4171
2674.134	4110
2676.042	4135
2677.95	4174
2679.858	4114
2681.765	4198
2683.673	4142
2685.579	4113
2687.483	4140
2689.389	4161
2691.294	4071
2693.198	4041
2695.104	4061
2697.006	4166
2698.909	4134
2700.811	4112
2702.713	4119
2704.615	4164
2706.516	3997
2708.417	4161
2710.316	4142
2712.216	4148
2714.115	4140
2716.014	4032
2717.913	4013
2719.81	4046
2721.707	4003
2723.603	4095
2725.501	4011
2727.396	4088
2729.292	4005
2731.186	4083
2733.081	4108
2734.976	4148
2736.87	4088
2738.762	4058
2740.653	4002
2742.546	4095
2744.437	4134
2746.329	4067
2748.22	4076
2750.11	4097
2751.999	4054
2753.889	4127
2755.778	4059
2757.666	4131
2759.553	4069
2761.44	4060
2763.328	4030
2765.215	4096
2767.101	4081
2768.986	4057
2770.87	4031
2772.754	4009
2774.638	4074
2776.523	4038
2778.405	4015
2780.288	4170
2782.17	4082
2784.051	4019
2785.934	4046
2787.814	4057
2789.694	4085
2791.574	4051
2793.453	3998
2795.332	4063
2797.212	3984
2799.088	4035
2800.966	4005
2802.843	4016
2804.719	3963
2806.597	3986
2808.471	4055
2810.346	4053
2812.221	4058
2814.094	4041
2815.969	4013
2817.843	4025
2819.714	4067
2821.587	4036
2823.459	3973
2825.329	4081
2827.202	4042
2829.072	3902
2830.942	3983
2832.811	4086
2834.68	4045
2836.549	4057
2838.418	3958
2840.284	4015
2842.152	3999
2844.018	4006
2845.885	4094
2847.751	4119
2849.616	3946
2851.482	4061
2853.345	4006
2855.208	4005
2857.074	4078
2858.937	4008
2860.799	4039
2862.66	4126
2864.522	4104
2866.385	4079
2868.245	4009
2870.104	4080
2871.964	4097
2873.824	4033
2875.683	4136
2877.542	4200
2879.4	4158
2881.257	4251
2883.114	4191
2884.97	4242
2886.827	4134
2888.683	4218
2890.537	4157
2892.392	4177
2894.246	4168
2896.1	4200
2897.954	4114
2899.807	4202
2901.66	4215
2903.51	4186
2905.362	4190
2907.214	4170
2909.065	4195
2910.915	4253
2912.765	4289
2914.613	4263
2916.463	4317
2918.311	4275
2920.158	4222
2922.006	4231
2923.853	4304
2925.698	4270
2927.546	4405
2929.392	4372
2931.236	4381
2933.081	4395
2934.924	4387
2936.77	4426
2938.613	4502
2940.455	4417
2942.298	4416
2944.139	4462
2945.982	4420
2947.823	4441
2949.662	4389
2951.503	4421
2953.342	4491
2955.182	4375
2957.021	4350
2958.858	4505
2960.697	4414
2962.534	4321
2964.37	4323
2966.207	4266
2968.044	4259
2969.879	4260
2971.714	4217
2973.548	4342
2975.383	4233
2977.218	4239
2979.051	4258
2980.883	4209
2982.715	4174
2984.547	4219
2986.379	4177
2988.21	4135
2990.04	4194
2991.87	4176
2993.7	4088
2995.53	4111
2997.359	4085
2999.187	4069
3001.015	4147
3002.842	4046
3004.669	4140
3006.497	4058
3008.323	3947
3010.148	3979
3011.974	3986
3013.797	3961
3015.623	4039
3017.447	3937
3019.27	3969
3021.094	4046
3022.915	3918
3024.737	3900
3026.56	3953
3028.38	3869
3030.201	3925
3032.022	3950
3033.84	3825
3035.662	3886
3037.481	3965
3039.298	3893
3041.117	3964
3042.933	3924
3044.752	3897
3046.568	3955
3048.385	3831
3050.2	3875
3052.016	3813
3053.83	3900
3055.646	3848
3057.46	3788
3059.272	3854
3061.086	3828
3062.898	3861
3064.711	3869
3066.524	3940
3068.335	3848
3070.145	3838
3071.956	3864
3073.766	3764
3075.576	3785
3077.385	3840
3079.193	3870
3081.002	3794
3082.81	3838
3084.618	3833
3086.425	3874
3088.231	3794
3090.036	3806
3091.842	3774
3093.648	3866
3095.452	3841
3097.257	3789
3099.06	3747
3100.863	3827
3102.666	3754
3104.47	3741
3106.272	3799
3108.073	3810
3109.875	3734
3111.676	3793
3113.477	3667
3115.277	3757
3117.077	3779
3118.874	3800
3120.673	3757
3122.473	3725
3124.271	3697
3126.066	3755
3127.863	3715
3129.66	3807
3131.456	3654
3133.252	3840
3135.047	3663
3136.842	3710
3138.635	3641
3140.429	3763
3142.223	3704
3144.016	3696
3145.808	3704
3147.6	3685
3149.392	3743
3151.183	3608
3152.975	3739
3154.765	3691
3156.553	3690
3158.344	3736
3160.132	3710
3161.922	3769
3163.71	3748
3165.497	3692
3167.285	3714
3169.071	3672
3170.858	3690
3172.645	3661
3174.429	3679
3176.214	3657
3177.998	3628
3179.783	3721
3181.568	3653
3183.351	3613
3185.133	3690
3186.915	3707
3188.698	3645
3190.481	3596
3192.261	3631
3194.042	3669
3195.822	3704
3197.601	3556
3199.381	3663
3201.161	3702
3202.939	3642
3204.717	3682
3206.495	3731
3208.272	3690
3210.05	3641
3211.826	3606
3213.602	3667
3215.376	3661
3217.151	3661
3218.927	3698
3220.702	3606
3222.476	3623
3224.249	3651
3226.021	3606
3227.793	3680
3229.567	3650
3231.339	3673
3233.109	3617
3234.88	3643
3236.651	3592
3238.421	3738
3240.191	3660
3241.96	3555
3243.728	3613
3245.497	3697
3247.263	3657
3249.033	3698
3250.799	3684
3252.566	3637
3254.331	3675
3256.097	3611
3257.863	3570
3259.628	3604
3261.392	3634
3263.156	3636
3264.919	3595
3266.683	3693
3268.447	3610
3270.208	3573
3271.969	3588
3273.731	3666
3275.492	3542
3277.253	3686
3279.013	3690
3280.773	3629
3282.532	3623
3284.291	3650
3286.05	3611
3287.808	3550
3289.566	3656
3291.323	3565
3293.079	3575
3294.835	3641
3296.593	3611
3298.348	3674
3300.102	3604
3301.857	3590
3303.611	3627
3305.366	3602
3307.119	3593
3308.872	3546
3310.624	3715
3312.376	3610
3314.129	3607
3315.881	3603
3317.631	3556
3319.38	3524
3321.13	3566
3322.88	3682
3324.631	3609
3326.379	3542
3328.126	3661
3329.875	3646
3331.622	3584
3333.371	3591
3335.116	3547
3336.863	3575
3338.609	3686
3340.353	3553
3342.1	3567
3343.845	3618
3345.588	3588
3347.332	3606
3349.074	3593
3350.817	3528
3352.56	3543
3354.303	3620
3356.043	3631
3357.785	3605
3359.525	3609
3361.268	3619
3363.007	3533
3364.745	3510
3366.485	3597
3368.223	3584
3369.962	3538
3371.701	3535
3373.438	3576
3375.174	3542
3376.911	3562
3378.647	3507
3380.384	3556
3382.118	3479
3383.854	3486
3385.588	3505
3387.322	3556
3389.057	3484
3390.79	3547
3392.522	3538
3394.255	3537
3395.987	3507
3397.719	3500
3399.451	3573
3401.181	3607
3402.911	3497
3404.641	3528
3406.371	3490
3408.101	3571
3409.83	3534
3411.558	3546
3413.285	3504
3415.011	3549
3416.739	3527
3418.467	3498
3420.193	3489
3421.919	3515
3423.644	3445
3425.368	3457
3427.094	3417
3428.818	3437
3430.542	3592
3432.264	3507
3433.987	3511
3435.712	3520
3437.434	3492
3439.155	3496
3440.876	3500
3442.596	3402
3444.317	3408
3446.039	3450
3447.757	3487
3449.477	3464
3451.195	3474
3452.914	3519
3454.632	3438
3456.35	3417
3458.067	3433
3459.784	3423
3461.5	3387
3463.216	3461
3464.932	3385
3466.647	3345
3468.362	3419
3470.076	3438
3471.789	3386
3473.505	3483
3475.217	3348
3476.929	3364
3478.641	3328
3480.354	3380
3482.066	3361
3483.777	3417
3485.487	3457
3487.197	3344
3488.908	3408
3490.617	3386
3492.327	3284
3494.035	3458
3495.743	3351
3497.451	3355
3499.158	3352
3500.866	3373
3502.572	3322
3504.278	3323
3505.984	3313
3507.689	3243
3509.396	3302
3511.1	3376
3512.804	3333
3514.508	3339
3516.211	3277
3517.913	3321
3519.616	3377
3521.319	3290
3523.021	3316
3524.722	3263
3526.422	3258
3528.124	3295
3529.824	3278
3531.524	3278
3533.222	3316
3534.921	3320
3536.62	3305
3538.318	3302
3540.016	3398
3541.714	3313
3543.41	3314
3545.107	3289
3546.803	3323
3548.5	3310
3550.194	3321
3551.889	3317
3553.583	3320
3555.279	3289
3556.972	3254
3558.666	3251
3560.358	3279
3562.051	3304
3563.742	3306
3565.435	3259
3567.126	3296
3568.817	3264
3570.507	3263
3572.197	3281
3573.888	3234
3575.577	3258
3577.265	3268
3578.954	3216
3580.642	3249
3582.329	3226
3584.017	3313
3585.704	3239
3587.391	3215
3589.077	3219
3590.762	3213
3592.449	3216
3594.133	3231
3595.817	3185
3597.501	3225
3599.185	3265
3600.869	3179
3602.552	3195
3604.234	3182
3605.916	3184
3607.598	3149
3609.279	3130
3610.961	3194
3612.642	3145
3614.321	3107
3616	3160
3617.68	3164
3619.36	3160
3621.039	3179
3622.716	3147
3624.394	3125
3626.071	3263
3627.748	3096
3629.425	3075
3631.102	3129
3632.778	3235
3634.452	3113
3636.127	3111
3637.803	3094
3639.477	3090
3641.151	3142
3642.823	3098
3644.497	3126
3646.171	3129
3647.842	3084
3649.515	3101
3651.185	3131
3652.857	3154
3654.527	3092
3656.198	3046
3657.868	3117
3659.537	3101
3661.207	3122
3662.875	3105
3664.544	3086
3666.212	3133
3667.879	3136
3669.546	3070
3671.212	2978
3672.88	3076
3674.546	3046
3676.211	3010
3677.875	2967
3679.541	3071
3681.205	3035
3682.87	3069
3684.533	3063
3686.196	3082
3687.859	3101
3689.521	3091
3691.184	3001
3692.845	3088
3694.507	3071
3696.167	3056
3697.827	3006
3699.487	3091
3701.148	3056
3702.808	3039
3704.466	3001
3706.125	3022
3707.783	3051
3709.442	3024
3711.099	3077
3712.757	3035
3714.412	3023
3716.068	3037
3717.725	3009
3719.381	2984
3721.036	3103
3722.689	3026
3724.344	3046
3725.998	3056
3727.652	2973
3729.305	3001
3730.958	3000
3732.61	2982
3734.262	2981
3735.915	2986
3737.565	3036
3739.217	2998
3740.866	3066
3742.516	3057
3744.165	3009
3745.816	2971
3747.464	2970
3749.113	2986
3750.761	2998
3752.409	3030
3754.057	2982
3755.703	2901
3757.35	2979
3758.996	2939
3760.641	3009
3762.289	3050
3763.933	2942
3765.577	2893
3767.222	3013
3768.865	3039
3770.508	2913
3772.152	3005
3773.796	3027
3775.438	2891
3777.079	3014
3778.721	2972
3780.363	2986
3782.003	2983
3783.643	2943
3785.283	3022
3786.923	2980
3788.563	2951
3790.203	2981
3791.841	2916
3793.479	2990
3795.115	2938
3796.753	2937
3798.391	2851
3800.027	2856
3801.664	2905
3803.299	2962
3804.935	2938
3806.571	2890
3808.206	2973
3809.839	2934
3811.473	2901
3813.107	2874
3814.74	2896
3816.375	2913
3818.006	2880
3819.638	2875
3821.27	2875
3822.9	2900
3824.532	2901
3826.163	2967
3827.792	2876
3829.423	2784
3831.051	2864
3832.682	2882
3834.311	2869
3835.938	2848
3837.566	2845
3839.193	2914
3840.821	2794
3842.448	2954
3844.075	2896
3845.7	2877
3847.325	2900
3848.951	2814
3850.576	2872
3852.201	2820
3853.825	2879
3855.448	2820
3857.072	2815
3858.694	2889
3860.318	2865
3861.939	2843
3863.562	2837
3865.183	2857
3866.804	2823
3868.426	2833
3870.045	2847
3871.666	2808
3873.285	2825
3874.904	2849
3876.524	2872
3878.142	2794
3879.76	2841
3881.378	2852
3882.995	2902
3884.612	2851
3886.229	2770
3887.845	2871
3889.461	2779
3891.076	2857
3892.691	2761
3894.307	2854
3895.922	2848
3897.536	2784
3899.149	2731
3900.761	2884
3902.374	2792
3903.988	2747
3905.6	2740
3907.212	2799
3908.822	2739
3910.433	2776
3912.045	2787
3913.655	2803
3915.265	2726
3916.875	2866
3918.483	2813
3920.093	2788
3921.702	2854
3923.309	2787
3924.917	2735
3926.523	2814
3928.13	2775
3929.739	2791
3931.344	2727
3932.95	2754
3934.555	2721
3936.159	2777
3937.766	2759
3939.369	2814
3940.974	2795
3942.577	2808
3944.181	2726
3945.783	2765
3947.386	2761
3948.989	2751
3950.59	2783
3952.191	2830
3953.791	2791
3955.394	2807
3956.994	2708
3958.593	2716
3960.192	2731
3961.791	2755
3963.392	2744
3964.99	2711
3966.588	2747
3968.185	2806
3969.782	2689
3971.379	2697
3972.976	2711
3974.572	2779
3976.168	2715
3977.763	2772
3979.358	2640
3980.954	2725
3982.548	2717
3984.142	2742
3985.736	2704
3987.329	2695
3988.922	2778
3990.516	2700
3992.108	2707
3993.698	2676
3995.29	2678
3996.881	2722
3998.473	2726
4000.064	2663
4001.653	2658
4003.242	2699
4004.832	2617
4006.422	2696
4008.01	2658
4009.598	2653
4011.186	2627
4012.773	2623
4014.36	2617
4015.947	2666
4017.534	2676
4019.119	2630
4020.705	2623
4022.291	2599
4023.876	2599
4025.461	2617
4027.044	2618
4028.627	2615
4030.211	2574
4031.795	2637
4033.378	2621
4034.96	2617
4036.542	2616
4038.124	2602
4039.704	2560
4041.286	2642
4042.867	2662
4044.447	2580
4046.026	2601
4047.606	2572
4049.187	2528
4050.765	2610
4052.343	2556
4053.92	2590
4055.498	2578
4057.076	2588
4058.654	2566
4060.23	2585
4061.806	2586
4063.381	2573
4064.957	2600
4066.533	2493
4068.107	2536
4069.682	2495
4071.256	2487
4072.829	2580
4074.404	2567
4075.977	2552
4077.549	2534
4079.121	2544
4080.693	2577
4082.265	2489
4083.836	2590
4085.407	2543
4086.977	2522
4088.547	2475
4090.117	2560
4091.687	2572
4093.256	2492
4094.825	2535
4096.392	2562
4097.96	2497
4099.528	2580
4101.097	2544
4102.663	2558
4104.229	2490
4105.795	2536
4107.361	2510
4108.928	2510
4110.493	2544
4112.058	2475
4113.621	2525
4115.186	2548
4116.75	2533
4118.313	2478
4119.876	2583
4121.438	2517
4123	2496
4124.562	2522
4126.125	2455
4127.686	2504
4129.246	2490
4130.807	2470
4132.367	2466
4133.927	2531
4135.486	2470
4137.046	2483
4138.604	2439
4140.162	2472
4141.72	2369
4143.279	2539
4144.836	2512
4146.393	2472
4147.949	2449
4149.505	2433
4151.062	2374
4152.617	2444
4154.172	2475
4155.727	2441
4157.281	2442
4158.836	2379
4160.39	2410
4161.943	2484
4163.496	2465
4165.048	2405
4166.601	2417
4168.154	2410
4169.706	2398
4171.257	2423
4172.808	2390
4174.358	2417
4175.909	2423
4177.458	2413
4179.008	2351
4180.558	2400
4182.106	2368
4183.655	2447
4185.204	2431
4186.751	2393
4188.298	2351
4189.845	2342
4191.392	2403
4192.939	2433
4194.485	2311
4196.031	2438
4197.576	2384
4199.121	2338
4200.666	2328
4202.211	2406
4203.754	2397
4205.298	2415
4206.84	2362
4208.384	2384
4209.927	2370
4211.47	2355
4213.011	2331
4214.552	2390
4216.094	2370
4217.635	2364
4219.175	2348
4220.716	2337
4222.255	2375
4223.793	2361
4225.335	2310
4226.873	2390
4228.411	2400
4229.948	2424
4231.486	2306
4233.024	2375
4234.562	2301
4236.098	2298
4237.634	2339
4239.169	2357
4240.705	2309
4242.241	2394
4243.776	2412
4245.31	2327
4246.844	2353
4248.378	2323
4249.911	2345
4251.445	2289
4252.978	2363
4254.51	2313
4256.042	2295
4257.574	2369
4259.107	2340
4260.638	2339
4262.169	2352
4263.699	2284
4265.228	2258
4266.759	2310
4268.289	2297
4269.818	2296
4271.345	2287
4272.874	2355
4274.402	2282
4275.931	2320
4277.458	2310
4278.985	2299
4280.512	2290
4282.037	2344
4283.564	2266
4285.089	2244
4286.615	2298
4288.139	2263
4289.664	2223
4291.187	2281
4292.712	2242
4294.235	2222
4295.759	2206
4297.281	2317
4298.804	2243
4300.327	2244
4301.849	2238
4303.37	2249
4304.891	2243
4306.412	2295
4307.933	2295
4309.453	2244
4310.973	2274
4312.492	2287
