398.1873	2858
400.7097	2793
403.2336	2932
405.7547	2831
408.2751	2890
410.7948	2837
413.3138	2824
415.83	2904
418.3497	2902
420.8666	2955
423.3829	2957
425.8985	3032
428.4133	3049
430.9275	3034
433.441	3025
435.9538	3065
438.4639	2995
440.9753	3108
443.4881	2974
445.9982	3000
448.5055	3028
451.0142	3012
453.5201	3061
456.0274	3018
458.5361	3022
461.04	3074
463.5453	3003
466.0478	3039
468.5517	3068
471.0549	2999
473.5574	2995
476.0572	3027
478.5584	3023
481.0568	3069
483.5545	3125
486.0557	3052
488.5521	3080
491.0478	3060
493.5449	3057
496.0392	3044
498.5349	3020
501.0299	3109
503.5222	3074
506.0139	3025
508.5048	3121
510.9991	3096
513.4887	3085
515.9777	3108
518.4659	3145
520.9534	3118
523.4403	3066
525.9306	3140
528.4161	3114
530.9009	3082
533.3851	3093
535.8687	3198
538.3535	3148
540.8356	3128
543.3171	3128
545.7979	3148
548.278	3109
550.7595	3101
553.2383	3125
555.7144	3096
558.1918	3204
560.6685	3174
563.1446	3127
565.6221	3197
568.0968	3207
570.5688	3184
573.0422	3181
575.515	3267
577.989	3210
580.4584	3123
582.9291	3306
585.3991	3213
587.8685	3223
590.3352	3294
592.8052	3210
595.2706	3251
597.7372	3237
600.2033	3261
602.6666	3240
605.1334	3226
607.5953	3289
610.0587	3260
612.5193	3237
614.9814	3304
617.4427	3194
619.9034	3183
622.3615	3147
624.8208	3122
627.2775	3260
629.7335	3237
632.1929	3284
634.6476	3170
637.1016	3182
639.5569	3261
642.0096	3239
644.4637	3159
646.9151	3175
649.3678	3227
651.8179	3193
654.2672	3240
656.7159	3315
659.166	3280
661.6154	3289
664.0622	3259
666.5082	3296
668.9537	3304
671.4005	3255
673.8445	3314
676.288	3306
678.7308	3344
681.1729	3287
683.6163	3335
686.0572	3393
688.4973	3299
690.9368	3288
693.3757	3268
695.8138	3340
698.2534	3299
700.6902	3350
703.1245	3303
705.56	3370
707.9949	3440
710.4311	3371
712.8647	3391
715.2957	3356
717.7279	3398
720.1595	3419
722.5905	3446
725.0208	3343
727.4505	3350
729.8795	3430
732.3058	3457
734.7336	3485
737.1626	3482
739.587	3417
742.0128	3433
744.4359	3435
746.8604	3468
749.2841	3478
751.7073	3500
754.1278	3482
756.5496	3506
758.9688	3497
761.3893	3516
763.8093	3442
766.2285	3539
768.6451	3558
771.0611	3523
773.4784	3529
775.895	3520
778.3091	3541
780.7244	3647
783.1371	3473
785.5493	3552
787.9626	3592
790.3754	3441
792.7856	3588
795.1951	3584
797.6039	3536
800.0121	3561
802.4236	3669
804.8306	3515
807.2369	3595
809.6425	3570
812.0475	3633
814.4538	3541
816.8575	3557
819.2606	3592
821.663	3608
824.0648	3631
826.4659	3616
828.8683	3542
831.2682	3605
833.6674	3614
836.066	3595
838.4639	3585
840.8632	3633
843.2579	3574
845.6539	3669
848.0493	3720
850.444	3691
852.84	3674
855.2315	3664
857.6243	3633
860.0165	3608
862.4081	3644
864.797	3648
867.1892	3614
869.5789	3630
871.9659	3629
874.3542	3655
876.74	3612
879.129	3665
881.5155	3652
883.8994	3629
886.2845	3597
888.6671	3645
891.051	3622
893.4343	3663
895.8169	3688
898.197	3713
900.5783	3607
902.9571	3742
905.3372	3750
907.7167	3698
910.0936	3688
912.4698	3693
914.8474	3746
917.2244	3777
919.5987	3732
921.9744	3803
924.3475	3777
926.72	3745
929.0918	3774
931.4669	3883
933.8375	3801
936.2074	3767
938.5767	3879
940.9454	3834
943.3154	3943
945.6829	4006
948.0497	4082
950.4178	4015
952.7833	4218
955.1483	4391
957.5145	4555
959.8782	4560
962.2412	4520
964.6036	4432
966.9655	4373
969.3266	4199
971.6871	4103
974.0471	3973
976.4064	3840
978.765	3882
981.125	3916
983.4824	3775
985.8373	3824
988.1935	3816
990.549	3800
992.9039	3759
995.2602	3750
997.6119	3847
999.965	3760
1002.317	3843
1004.667	3812
1007.02	3825
1009.371	3750
1011.719	3782
1014.068	3861
1016.415	3802
1018.765	3798
1021.111	3911
1023.458	3827
1025.804	3834
1028.147	3817
1030.49	3926
1032.837	3867
1035.179	3761
1037.522	3906
1039.862	3817
1042.204	3913
1044.546	3895
1046.884	3890
1049.224	3869
1051.562	3830
1053.899	3918
1056.237	3870
1058.575	3871
1060.91	3902
1063.244	3951
1065.58	3984
1067.913	3972
1070.248	3940
1072.579	3976
1074.911	3863
1077.242	3939
1079.572	3958
1081.905	3994
1084.234	3870
1086.562	3882
1088.89	3858
1091.217	3826
1093.544	3925
1095.871	3872
1098.197	3863
1100.521	3943
1102.845	3974
1105.169	3841
1107.491	3950
1109.814	3954
1112.135	3808
1114.456	3901
1116.776	3801
1119.096	3892
1121.415	3858
1123.734	4002
1126.052	3900
1128.369	3859
1130.686	3933
1133.002	3897
1135.318	3924
1137.632	3822
1139.945	3975
1142.258	3913
1144.573	3912
1146.884	3923
1149.196	3970
1151.505	4006
1153.816	3903
1156.124	3941
1158.435	3934
1160.742	3956
1163.051	3956
1165.356	3984
1167.663	3939
1169.97	3830
1172.276	3956
1174.579	3955
1176.881	3957
1179.186	3994
1181.487	3951
1183.79	3881
1186.092	3857
1188.392	3990
1190.691	3897
1192.991	3938
1195.291	3889
1197.588	3936
1199.885	3891
1202.181	3878
1204.479	3980
1206.775	3886
1209.07	3872
1211.363	3989
1213.656	3949
1215.949	3951
1218.241	3923
1220.534	3934
1222.825	4029
1225.115	4017
1227.405	4019
1229.693	3931
1231.984	3975
1234.271	3939
1236.558	4015
1238.845	3966
1241.131	4057
1243.416	4038
1245.703	4080
1247.987	4119
1250.269	4128
1252.552	4054
1254.834	4042
1257.118	4076
1259.399	4037
1261.678	4099
1263.958	4083
1266.237	4085
1268.516	4099
1270.794	4020
1273.072	4081
1275.347	4127
1277.624	4105
1279.899	4098
1282.175	4037
1284.449	4085
1286.722	4096
1288.995	4013
1291.266	4024
1293.54	4010
1295.81	4030
1298.081	4061
1300.35	4072
1302.62	4117
1304.889	4022
1307.156	4040
1309.425	3993
1311.69	4109
1313.957	3985
1316.222	4064
1318.488	4044
1320.751	4013
1323.016	4063
1325.278	3954
1327.54	4038
1329.803	4055
1332.065	4115
1334.325	4037
1336.584	4044
1338.843	4060
1341.101	4127
1343.36	4044
1345.617	4044
1347.876	3981
1350.131	4012
1352.387	4034
1354.643	3993
1356.897	3998
1359.151	4063
1361.403	4047
1363.656	4052
1365.909	4089
1368.16	4022
1370.409	3995
1372.659	4054
1374.909	4129
1377.157	4081
1379.407	4087
1381.655	4105
1383.9	4178
1386.147	4187
1388.393	4099
1390.64	4155
1392.885	4123
1395.127	4191
1397.37	4182
1399.614	4220
1401.854	4110
1404.098	4112
1406.339	4195
1408.578	4112
1410.818	4172
1413.056	4154
1415.297	4096
1417.533	4128
1419.771	4110
1422.006	4183
1424.243	4159
1426.479	4138
1428.715	4178
1430.948	4117
1433.182	4165
1435.414	4191
1437.647	4220
1439.88	4201
1442.11	4158
1444.342	4164
1446.571	4250
1448.799	4138
1451.029	4260
1453.258	4235
1455.485	4267
1457.711	4252
1459.937	4241
1462.164	4254
1464.39	4220
1466.614	4163
1468.838	4160
1471.06	4241
1473.283	4113
1475.506	4165
1477.727	4169
1479.949	4072
1482.169	4218
1484.389	4207
1486.609	4184
1488.828	4147
1491.045	4113
1493.261	4153
1495.477	4059
1497.693	4179
1499.91	4093
1502.125	4196
1504.339	4070
1506.553	4103
1508.766	4120
1510.979	4176
1513.191	4132
1515.402	4072
1517.613	4126
1519.823	4033
1522.033	4081
1524.242	4057
1526.451	4092
1528.657	4140
1530.865	4037
1533.072	4146
1535.278	4041
1537.484	4082
1539.687	4121
1541.892	4114
1544.096	4082
1546.299	4097
1548.502	4217
1550.703	4157
1552.905	4158
1555.104	4043
1557.303	4232
1559.505	4113
1561.703	4205
1563.902	4173
1566.099	4184
1568.295	4289
1570.494	4178
1572.689	4262
1574.883	4257
1577.079	4212
1579.272	4209
1581.467	4310
1583.659	4337
1585.853	4237
1588.044	4225
1590.234	4278
1592.424	4195
1594.615	4267
1596.806	4265
1598.994	4170
1601.182	4356
1603.369	4281
1605.557	4309
1607.744	4269
1609.929	4231
1612.114	4280
1614.298	4318
1616.482	4302
1618.667	4338
1620.85	4252
1623.032	4267
1625.214	4324
1627.395	4307
1629.575	4360
1631.755	4349
1633.935	4318
1636.114	4386
1638.292	4261
1640.471	4376
1642.647	4308
1644.823	4408
1647	4311
1649.175	4313
1651.348	4373
1653.525	4353
1655.698	4407
1657.87	4374
1660.043	4377
1662.213	4376
1664.387	4392
1666.558	4378
1668.727	4344
1670.896	4368
1673.064	4407
1675.233	4395
1677.401	4388
1679.569	4374
1681.735	4337
1683.902	4422
1686.066	4272
1688.233	4355
1690.397	4319
1692.559	4385
1694.723	4339
1696.885	4394
1699.048	4345
1701.21	4343
1703.37	4361
1705.53	4291
1707.689	4333
1709.849	4281
1712.009	4358
1714.166	4330
1716.323	4278
1718.479	4342
1720.634	4314
1722.793	4257
1724.948	4355
1727.102	4306
1729.255	4369
1731.408	4340
1733.562	4302
1735.714	4345
1737.865	4388
1740.016	4344
1742.166	4417
1744.316	4296
1746.467	4464
1748.616	4349
1750.764	4331
1752.911	4352
1755.056	4288
1757.205	4223
1759.35	4379
1761.496	4372
1763.641	4318
1765.785	4364
1767.927	4357
1770.072	4435
1772.214	4367
1774.355	4328
1776.496	4401
1778.637	4288
1780.778	4354
1782.918	4486
1785.057	4373
1787.194	4415
1789.333	4289
1791.472	4396
1793.608	4374
1795.745	4438
1797.879	4346
1800.015	4362
1802.148	4456
1804.284	4363
1806.417	4408
1808.548	4362
1810.682	4505
1812.812	4437
1814.946	4453
1817.075	4388
1819.205	4424
1821.335	4387
1823.463	4269
1825.59	4380
1827.721	4414
1829.847	4440
1831.973	4330
1834.098	4419
1836.223	4350
1838.351	4394
1840.475	4432
1842.598	4357
1844.721	4453
1846.843	4366
1848.966	4341
1851.087	4415
1853.21	4421
1855.33	4460
1857.449	4352
1859.568	4303
1861.688	4423
1863.806	4376
1865.924	4379
1868.039	4388
1870.155	4326
1872.273	4363
1874.388	4365
1876.503	4314
1878.617	4432
1880.73	4374
1882.844	4399
1884.956	4384
1887.068	4419
1889.18	4537
1891.291	4437
1893.4	4411
1895.511	4426
1897.621	4386
1899.73	4484
1901.837	4383
1903.944	4346
1906.053	4412
1908.159	4487
1910.265	4367
1912.369	4521
1914.474	4398
1916.577	4321
1918.683	4460
1920.785	4392
1922.888	4431
1924.989	4447
1927.091	4481
1929.193	4492
1931.294	4495
1933.393	4422
1935.493	4453
1937.59	4472
1939.689	4487
1941.788	4434
1943.884	4379
1945.98	4516
1948.077	4534
1950.171	4519
1952.267	4415
1954.361	4505
1956.455	4461
1958.548	4518
1960.64	4543
1962.733	4501
1964.824	4521
1966.915	4483
1969.005	4495
1971.096	4499
1973.185	4506
1975.275	4467
1977.363	4496
1979.45	4429
1981.537	4571
1983.623	4484
1985.711	4397
1987.796	4452
1989.881	4463
1991.965	4481
1994.047	4459
1996.132	4543
1998.215	4438
2000.297	4458
2002.378	4452
2004.46	4419
2006.54	4558
2008.62	4538
2010.7	4432
2012.779	4463
2014.858	4437
2016.934	4436
2019.013	4438
2021.09	4459
2023.165	4426
2025.241	4430
2027.317	4446
2029.39	4437
2031.466	4345
2033.538	4479
2035.612	4460
2037.683	4491
2039.755	4417
2041.827	4510
2043.898	4358
2045.968	4464
2048.038	4410
2050.106	4351
2052.177	4494
2054.244	4517
2056.313	4523
2058.379	4490
2060.444	4466
2062.511	4413
2064.577	4583
2066.641	4498
2068.705	4541
2070.77	4496
2072.832	4454
2074.896	4531
2076.958	4609
2079.02	4504
2081.081	4483
2083.141	4449
2085.2	4483
2087.261	4405
2089.319	4470
2091.377	4436
2093.435	4557
2095.492	4521
2097.552	4520
2099.607	4498
2101.663	4564
2103.718	4574
2105.771	4453
2107.826	4494
2109.879	4456
2111.932	4455
2113.985	4643
2116.037	4487
2118.088	4527
2120.141	4533
2122.191	4479
2124.239	4527
2126.288	4467
2128.337	4407
2130.387	4449
2132.434	4439
2134.481	4474
2136.528	4537
2138.574	4461
2140.618	4445
2142.665	4488
2144.71	4544
2146.753	4546
2148.797	4396
2150.838	4470
2152.883	4597
2154.923	4505
2156.965	4489
2159.007	4496
2161.046	4508
2163.086	4481
2165.126	4464
2167.163	4498
2169.202	4568
2171.239	4558
2173.277	4508
2175.314	4411
2177.349	4388
2179.385	4454
2181.42	4519
2183.453	4354
2185.49	4545
2187.522	4517
2189.555	4440
2191.586	4457
2193.619	4464
2195.651	4484
2197.682	4443
2199.711	4468
2201.74	4481
2203.769	4478
2205.799	4439
2207.828	4448
2209.855	4436
2211.882	4456
2213.908	4432
2215.934	4405
2217.961	4436
2219.986	4391
2222.01	4448
2224.034	4409
2226.057	4589
2228.08	4476
2230.104	4484
2232.124	4454
2234.145	4421
2236.166	4383
2238.186	4467
2240.207	4367
2242.227	4340
2244.244	4345
2246.262	4387
2248.28	4493
2250.299	4435
2252.314	4407
2254.33	4354
2256.346	4446
2258.36	4381
2260.375	4448
2262.391	4338
2264.403	4399
2266.416	4380
2268.427	4481
2270.44	4457
2272.453	4444
2274.463	4483
2276.474	4496
2278.483	4490
2280.493	4462
2282.501	4440
2284.51	4446
2286.518	4454
2288.524	4397
2290.532	4492
2292.537	4384
2294.544	4505
2296.55	4398
2298.554	4517
2300.557	4414
2302.562	4381
2304.566	4353
2306.568	4505
2308.569	4475
2310.572	4401
2312.573	4399
2314.573	4421
2316.574	4379
2318.573	4335
2320.571	4502
2322.571	4497
2324.569	4425
2326.567	4385
2328.564	4438
2330.56	4393
2332.556	4482
2334.551	4348
2336.546	4376
2338.542	4357
2340.535	4409
2342.529	4425
2344.521	4409
2346.512	4457
2348.505	4372
2350.497	4463
2352.487	4399
2354.478	4368
2356.468	4436
2358.457	4337
2360.446	4403
2362.434	4354
2364.422	4346
2366.408	4403
2368.395	4423
2370.383	4264
2372.369	4329
2374.353	4452
2376.338	4406
2378.321	4303
2380.307	4501
2382.29	4476
2384.272	4344
2386.254	4387
2388.235	4343
2390.218	4420
2392.198	4358
2394.179	4326
2396.157	4431
2398.137	4403
2400.115	4356
2402.095	4427
2404.072	4319
2406.048	4298
2408.026	4299
2410.001	4404
2411.977	4394
2413.953	4427
2415.927	4311
2417.9	4345
2419.875	4253
2421.847	4441
2423.821	4311
2425.792	4277
2427.763	4355
2429.736	4300
2431.706	4331
2433.677	4431
2435.646	4380
2437.615	4362
2439.583	4323
2441.551	4390
2443.519	4333
2445.486	4334
2447.452	4317
2449.418	4329
2451.383	4320
2453.348	4278
2455.314	4340
2457.278	4326
2459.241	4411
2461.205	4351
2463.167	4295
2465.131	4318
2467.091	4364
2469.052	4281
2471.012	4301
2472.972	4296
2474.932	4346
2476.891	4366
2478.85	4312
2480.808	4335
2482.766	4258
2484.722	4218
2486.68	4311
2488.636	4295
2490.591	4334
2492.546	4264
2494.5	4390
2496.456	4343
2498.41	4275
2500.362	4314
2502.315	4276
2504.266	4264
2506.218	4262
2508.169	4221
2510.121	4362
2512.07	4230
2514.019	4297
2515.968	4337
2517.918	4335
2519.866	4452
2521.813	4272
2523.76	4320
2525.707	4364
2527.653	4243
2529.599	4304
2531.543	4328
2533.489	4237
2535.433	4336
2537.376	4260
2539.32	4312
2541.264	4278
2543.205	4248
2545.147	4358
2547.087	4260
2549.029	4410
2550.969	4362
2552.908	4269
2554.847	4324
2556.786	4323
2558.724	4306
2560.663	4283
2562.6	4355
2564.537	4393
2566.473	4323
2568.408	4401
2570.345	4336
2572.28	4287
2574.214	4293
2576.148	4262
2578.081	4303
2580.014	4353
2581.947	4313
2583.879	4362
2585.81	4346
2587.741	4328
2589.67	4262
2591.602	4339
2593.532	4339
2595.461	4204
2597.388	4403
2599.316	4326
2601.244	4284
2603.172	4286
2605.098	4269
2607.023	4331
2608.949	4386
2610.873	4264
2612.8	4392
2614.723	4282
2616.647	4389
2618.569	4401
2620.493	4362
2622.416	4278
2624.338	4248
2626.258	4337
2628.179	4399
2630.099	4402
2632.019	4291
2633.939	4365
2635.857	4421
2637.775	4392
2639.694	4347
2641.61	4368
2643.528	4364
2645.444	4339
2647.361	4362
2649.276	4230
2651.19	4338
2653.105	4417
2655.019	4476
2656.934	4309
2658.846	4322
2660.758	4351
2662.67	4362
2664.583	4334
2666.493	4340
2668.404	4305
2670.313	4296
2672.223	4291
2674.134	4393
2676.042	4301
2677.95	4313
2679.858	4331
2681.765	4334
2683.673	4202
2685.579	4346
2687.483	4294
2689.389	4266
2691.294	4360
2693.198	4322
2695.104	4226
2697.006	4310
2698.909	4259
2700.811	4259
2702.713	4302
2704.615	4392
2706.516	4232
2708.417	4349
2710.316	4270
2712.216	4292
2714.115	4386
2716.014	4287
2717.913	4273
2719.81	4193
2721.707	4263
2723.603	4280
2725.501	4370
2727.396	4345
2729.292	4254
2731.186	4230
2733.081	4349
2734.976	4273
2736.87	4286
2738.762	4323
2740.653	4311
2742.546	4368
2744.437	4242
2746.329	4259
2748.22	4261
2750.11	4192
2751.999	4269
2753.889	4287
2755.778	4244
2757.666	4253
2759.553	4230
2761.44	4243
2763.328	4272
2765.215	4288
2767.101	4268
2768.986	4208
2770.87	4221
2772.754	4303
2774.638	4268
2776.523	4204
2778.405	4263
2780.288	4232
2782.17	4315
2784.051	4236
2785.934	4315
2787.814	4257
2789.694	4244
2791.574	4205
2793.453	4265
2795.332	4255
2797.212	4205
2799.088	4230
2800.966	4213
2802.843	4266
2804.719	4248
2806.597	4234
2808.471	4220
2810.346	4293
2812.221	4262
2814.094	4213
2815.969	4248
2817.843	4230
2819.714	4301
2821.587	4151
2823.459	4333
2825.329	4227
2827.202	4267
2829.072	4275
2830.942	4241
2832.811	4147
2834.68	4286
2836.549	4230
2838.418	4188
2840.284	4272
2842.152	4145
2844.018	4320
2845.885	4220
2847.751	4308
2849.616	4221
2851.482	4303
2853.345	4281
2855.208	4315
2857.074	4284
2858.937	4217
2860.799	4240
2862.66	4345
2864.522	4247
2866.385	4406
2868.245	4351
2870.104	4319
2871.964	4375
2873.824	4337
2875.683	4481
2877.542	4452
2879.4	4527
2881.257	4401
2883.114	4478
2884.97	4499
2886.827	4383
2888.683	4493
2890.537	4410
2892.392	4355
2894.246	4388
2896.1	4439
2897.954	4442
2899.807	4455
2901.66	4464
2903.51	4476
2905.362	4475
2907.214	4457
2909.065	4517
2910.915	4470
2912.765	4480
2914.613	4461
2916.463	4559
2918.311	4529
2920.158	4530
2922.006	4531
2923.853	4648
2925.698	4600
2927.546	4546
2929.392	4601
2931.236	4596
2933.081	4579
2934.924	4677
2936.77	4720
2938.613	4725
2940.455	4823
2942.298	4762
2944.139	4835
2945.982	4818
2947.823	4743
2949.662	4779
2951.503	4811
2953.342	4736
2955.182	4639
2957.021	4701
2958.858	4554
2960.697	4683
2962.534	4677
2964.37	4579
2966.207	4614
2968.044	4617
2969.879	4482
2971.714	4541
2973.548	4527
2975.383	4522
2977.218	4382
2979.051	4514
2980.883	4456
2982.715	4435
2984.547	4384
2986.379	4516
2988.21	4469
2990.04	4377
2991.87	4410
2993.7	4344
2995.53	4278
2997.359	4311
2999.187	4320
3001.015	4283
3002.842	4305
3004.669	4282
3006.497	4285
3008.323	4222
3010.148	4191
3011.974	4194
3013.797	4154
3015.623	4192
3017.447	4209
3019.27	4135
3021.094	4194
3022.915	4165
3024.737	4109
3026.56	4220
3028.38	4081
3030.201	4172
3032.022	4174
3033.84	4030
3035.662	4117
3037.481	4106
3039.298	4134
3041.117	4134
3042.933	4160
3044.752	4109
3046.568	4184
3048.385	4157
3050.2	4176
3052.016	4093
3053.83	3991
3055.646	4063
3057.46	4071
3059.272	4102
3061.086	4079
3062.898	3952
3064.711	4122
3066.524	4033
3068.335	4078
3070.145	4045
3071.956	4022
3073.766	4045
3075.576	3982
3077.385	4029
3079.193	4061
3081.002	4026
3082.81	3988
3084.618	4000
3086.425	4025
3088.231	4039
3090.036	4060
3091.842	4025
3093.648	3979
3095.452	4105
3097.257	4045
3099.06	4002
3100.863	4004
3102.666	4003
3104.47	4039
3106.272	3984
3108.073	4017
3109.875	4036
3111.676	3972
3113.477	4031
3115.277	3988
3117.077	4033
3118.874	3950
3120.673	3975
3122.473	3891
3124.271	3924
3126.066	3907
3127.863	4000
3129.66	3963
3131.456	3986
3133.252	3959
3135.047	3933
3136.842	3899
3138.635	3943
3140.429	3886
3142.223	3858
3144.016	3961
3145.808	3877
3147.6	3937
3149.392	3920
3151.183	3967
3152.975	3888
3154.765	3983
3156.553	3929
3158.344	3905
3160.132	3904
3161.922	4019
3163.71	3942
3165.497	3974
3167.285	3954
3169.071	3912
3170.858	3860
3172.645	3882
3174.429	3936
3176.214	3916
3177.998	3886
3179.783	3959
3181.568	3910
3183.351	3841
3185.133	3825
3186.915	3855
3188.698	3945
3190.481	3944
3192.261	3836
3194.042	3859
3195.822	3849
3197.601	3849
3199.381	3885
3201.161	3869
3202.939	3831
3204.717	3866
3206.495	3952
3208.272	3882
3210.05	3846
3211.826	3867
3213.602	3833
3215.376	3838
3217.151	3869
3218.927	3957
3220.702	3888
3222.476	3851
3224.249	3902
3226.021	3820
3227.793	3908
3229.567	3880
3231.339	3900
3233.109	3925
3234.88	3828
3236.651	3796
3238.421	3862
3240.191	3872
3241.96	3755
3243.728	3869
3245.497	3814
3247.263	3815
3249.033	3860
3250.799	3919
3252.566	3857
3254.331	3944
3256.097	3861
3257.863	3846
3259.628	3830
3261.392	3858
3263.156	3869
3264.919	3846
3266.683	3847
3268.447	3799
3270.208	3826
3271.969	3759
3273.731	3851
3275.492	3974
3277.253	3911
3279.013	3839
3280.773	3816
3282.532	3912
3284.291	3785
3286.05	3851
3287.808	3846
3289.566	3920
3291.323	3793
3293.079	3863
3294.835	3818
3296.593	3791
3298.348	3756
3300.102	3874
3301.857	3811
3303.611	3896
3305.366	3789
3307.119	3817
3308.872	3882
3310.624	3874
3312.376	3947
3314.129	3870
3315.881	3890
3317.631	3859
3319.38	3893
3321.13	3822
3322.88	3768
3324.631	3863
3326.379	3807
3328.126	3872
3329.875	3847
3331.622	3822
3333.371	3838
3335.116	3740
3336.863	3868
3338.609	3814
3340.353	3836
3342.1	3837
3343.845	3777
3345.588	3905
3347.332	3798
3349.074	3805
3350.817	3835
3352.56	3793
3354.303	3847
3356.043	3835
3357.785	3745
3359.525	3877
3361.268	3787
3363.007	3835
3364.745	3683
3366.485	3772
3368.223	3765
3369.962	3823
3371.701	3739
3373.438	3695
3375.174	3800
3376.911	3704
3378.647	3714
3380.384	3875
3382.118	3763
3383.854	3790
3385.588	3672
3387.322	3772
3389.057	3769
3390.79	3684
3392.522	3747
3394.255	3765
3395.987	3737
3397.719	3697
3399.451	3748
3401.181	3779
3402.911	3799
3404.641	3779
3406.371	3692
3408.101	3811
3409.83	3700
3411.558	3766
3413.285	3711
3415.011	3660
3416.739	3773
3418.467	3751
3420.193	3679
3421.919	3727
3423.644	3678
3425.368	3678
3427.094	3730
3428.818	3793
3430.542	3691
3432.264	3754
3433.987	3658
3435.712	3737
3437.434	3663
3439.155	3670
3440.876	3641
3442.596	3709
3444.317	3636
3446.039	3648
3447.757	3601
3449.477	3694
3451.195	3691
3452.914	3604
3454.632	3708
3456.35	3593
3458.067	3588
3459.784	3627
3461.5	3611
3463.216	3617
3464.932	3682
3466.647	3701
3468.362	3605
3470.076	3626
3471.789	3659
3473.505	3615
3475.217	3666
3476.929	3573
3478.641	3610
3480.354	3624
3482.066	3596
3483.777	3605
3485.487	3602
3487.197	3619
3488.908	3586
3490.617	3606
3492.327	3575
3494.035	3576
3495.743	3583
3497.451	3496
3499.158	3535
3500.866	3561
3502.572	3591
3504.278	3584
3505.984	3534
3507.689	3556
3509.396	3486
3511.1	3507
3512.804	3576
3514.508	3538
3516.211	3562
3517.913	3580
3519.616	3515
3521.319	3549
3523.021	3584
3524.722	3538
3526.422	3489
3528.124	3518
3529.824	3533
3531.524	3465
3533.222	3466
3534.921	3467
3536.62	3510
3538.318	3561
3540.016	3489
3541.714	3455
3543.41	3500
3545.107	3557
3546.803	3517
3548.5	3420
3550.194	3474
3551.889	3515
3553.583	3560
3555.279	3527
3556.972	3486
3558.666	3459
3560.358	3532
3562.051	3479
3563.742	3480
3565.435	3582
3567.126	3494
3568.817	3492
3570.507	3480
3572.197	3409
3573.888	3549
3575.577	3490
3577.265	3487
3578.954	3498
3580.642	3484
3582.329	3457
3584.017	3432
3585.704	3449
3587.391	3434
3589.077	3437
3590.762	3438
3592.449	3474
3594.133	3418
3595.817	3415
3597.501	3487
3599.185	3469
3600.869	3376
3602.552	3380
3604.234	3382
3605.916	3426
3607.598	3431
3609.279	3421
3610.961	3406
3612.642	3460
3614.321	3351
3616	3405
3617.68	3320
3619.36	3421
3621.039	3365
3622.716	3293
3624.394	3328
3626.071	3368
3627.748	3363
3629.425	3347
3631.102	3358
3632.778	3369
3634.452	3227
3636.127	3337
3637.803	3399
3639.477	3306
3641.151	3335
3642.823	3334
3644.497	3241
3646.171	3351
3647.842	3449
3649.515	3316
3651.185	3260
3652.857	3394
3654.527	3262
3656.198	3321
3657.868	3281
3659.537	3322
3661.207	3306
3662.875	3207
3664.544	3293
3666.212	3272
3667.879	3275
3669.546	3264
3671.212	3291
3672.88	3416
3674.546	3272
3676.211	3354
3677.875	3270
3679.541	3283
3681.205	3303
3682.87	3254
3684.533	3261
3686.196	3258
3687.859	3267
3689.521	3292
3691.184	3273
3692.845	3250
3694.507	3333
3696.167	3277
3697.827	3258
3699.487	3271
3701.148	3212
3702.808	3256
3704.466	3299
3706.125	3224
3707.783	3205
3709.442	3313
3711.099	3272
3712.757	3250
3714.412	3247
3716.068	3333
3717.725	3224
3719.381	3242
3721.036	3228
3722.689	3242
3724.344	3268
3725.998	3198
3727.652	3240
3729.305	3234
3730.958	3248
3732.61	3185
3734.262	3260
3735.915	3211
3737.565	3234
3739.217	3243
3740.866	3167
3742.516	3215
3744.165	3180
3745.816	3210
3747.464	3220
3749.113	3189
3750.761	3219
3752.409	3179
3754.057	3187
3755.703	3206
3757.35	3212
3758.996	3199
3760.641	3213
3762.289	3188
3763.933	3234
3765.577	3146
3767.222	3192
3768.865	3156
3770.508	3184
3772.152	3172
3773.796	3121
3775.438	3228
3777.079	3221
3778.721	3222
3780.363	3197
3782.003	3104
3783.643	3168
3785.283	3136
3786.923	3104
3788.563	3118
3790.203	3171
3791.841	3189
3793.479	3084
3795.115	3080
3796.753	3079
3798.391	3106
3800.027	3058
3801.664	3107
3803.299	3105
3804.935	3092
3806.571	3144
3808.206	3109
3809.839	3059
3811.473	3139
3813.107	3124
3814.74	3071
3816.375	3133
3818.006	3068
3819.638	3121
3821.27	3038
3822.9	3060
3824.532	3040
3826.163	3102
3827.792	3082
3829.423	3090
3831.051	3084
3832.682	3037
3834.311	2998
3835.938	3081
3837.566	3003
3839.193	3024
3840.821	3042
3842.448	3043
3844.075	3007
3845.7	3074
3847.325	3041
3848.951	3028
3850.576	3008
3852.201	3084
3853.825	2980
3855.448	3099
3857.072	3031
3858.694	3031
3860.318	3034
3861.939	3067
3863.562	3024
3865.183	3083
3866.804	2986
3868.426	2977
3870.045	3022
3871.666	3035
3873.285	3034
3874.904	2986
3876.524	3013
3878.142	3020
3879.76	3034
3881.378	3030
3882.995	2949
3884.612	3021
3886.229	2968
3887.845	3024
3889.461	3012
3891.076	3069
3892.691	2945
3894.307	2939
3895.922	2957
3897.536	2946
3899.149	2925
3900.761	3099
3902.374	2993
3903.988	3047
3905.6	2985
3907.212	3005
3908.822	2966
3910.433	3008
3912.045	3016
3913.655	2990
3915.265	2908
3916.875	2992
3918.483	2966
3920.093	3016
3921.702	2981
3923.309	3024
3924.917	2984
3926.523	2978
3928.13	2963
3929.739	2987
3931.344	2984
3932.95	2969
3934.555	3014
3936.159	2982
3937.766	2971
3939.369	2954
3940.974	3053
3942.577	2939
3944.181	2922
3945.783	2919
3947.386	2980
3948.989	2954
3950.59	2950
3952.191	2921
3953.791	3016
3955.394	2890
3956.994	2991
3958.593	2974
3960.192	2885
3961.791	2927
3963.392	2972
3964.99	2949
3966.588	2938
3968.185	2924
3969.782	2943
3971.379	2917
3972.976	2847
3974.572	2887
3976.168	2924
3977.763	2889
3979.358	2929
3980.954	2895
3982.548	2892
3984.142	2981
3985.736	2889
3987.329	2873
3988.922	2827
3990.516	2907
3992.108	2848
3993.698	2952
3995.29	2816
3996.881	2846
3998.473	2835
4000.064	2872
4001.653	2770
4003.242	2820
4004.832	2833
4006.422	2856
4008.01	2744
4009.598	2905
4011.186	2883
4012.773	2815
4014.36	2803
4015.947	2802
4017.534	2887
4019.119	2783
4020.705	2852
4022.291	2854
4023.876	2788
4025.461	2808
4027.044	2893
4028.627	2821
4030.211	2818
4031.795	2856
4033.378	2764
4034.96	2818
4036.542	2801
4038.124	2865
4039.704	2815
4041.286	2767
4042.867	2753
4044.447	2711
4046.026	2822
4047.606	2771
4049.187	2734
4050.765	2762
4052.343	2812
4053.92	2754
4055.498	2744
4057.076	2787
4058.654	2728
4060.23	2678
4061.806	2755
4063.381	2797
4064.957	2784
4066.533	2780
4068.107	2715
4069.682	2663
4071.256	2708
4072.829	2737
4074.404	2710
4075.977	2792
4077.549	2759
4079.121	2686
4080.693	2752
4082.265	2770
4083.836	2691
4085.407	2803
4086.977	2757
4088.547	2745
4090.117	2754
4091.687	2690
4093.256	2710
4094.825	2713
4096.392	2752
4097.96	2749
4099.528	2775
4101.097	2767
4102.663	2684
4104.229	2746
4105.795	2725
4107.361	2692
4108.928	2687
4110.493	2698
4112.058	2687
4113.621	2706
4115.186	2721
4116.75	2700
4118.313	2671
4119.876	2686
4121.438	2658
4123	2638
4124.562	2692
4126.125	2661
4127.686	2689
4129.246	2616
4130.807	2642
4132.367	2684
4133.927	2666
4135.486	2712
4137.046	2613
4138.604	2686
4140.162	2592
4141.72	2673
4143.279	2549
4144.836	2669
4146.393	2708
4147.949	2594
4149.505	2630
4151.062	2635
4152.617	2588
4154.172	2573
4155.727	2667
4157.281	2569
4158.836	2639
4160.39	2610
4161.943	2643
4163.496	2587
4165.048	2645
4166.601	2612
4168.154	2604
4169.706	2659
4171.257	2579
4172.808	2593
4174.358	2512
4175.909	2592
4177.458	2609
4179.008	2561
4180.558	2551
4182.106	2606
4183.655	2636
4185.204	2584
4186.751	2615
4188.298	2512
4189.845	2570
4191.392	2608
4192.939	2539
4194.485	2587
4196.031	2651
4197.576	2591
4199.121	2555
4200.666	2557
4202.211	2606
4203.754	2523
4205.298	2547
4206.84	2538
4208.384	2515
4209.927	2543
4211.47	2542
4213.011	2512
4214.552	2538
4216.094	2504
4217.635	2567
4219.175	2480
4220.716	2563
4222.255	2525
4223.793	2524
4225.335	2597
4226.873	2567
4228.411	2522
4229.948	2509
4231.486	2549
4233.024	2532
4234.562	2528
4236.098	2522
4237.634	2563
4239.169	2518
4240.705	2501
4242.241	2520
4243.776	2485
4245.31	2506
4246.844	2522
4248.378	2565
4249.911	2545
4251.445	2476
4252.978	2572
4254.51	2439
4256.042	2500
4257.574	2546
4259.107	2497
4260.638	2536
4262.169	2569
4263.699	2481
4265.228	2476
4266.759	2481
4268.289	2539
4269.818	2567
4271.345	2466
4272.874	2484
4274.402	2498
4275.931	2505
4277.458	2430
4278.985	2539
4280.512	2481
4282.037	2442
4283.564	2463
4285.089	2480
4286.615	2475
4288.139	2452
4289.664	2524
4291.187	2498
4292.712	2451
4294.235	2532
4295.759	2473
4297.281	2499
4298.804	2536
4300.327	2465
4301.849	2458
4303.37	2521
4304.891	2452
4306.412	2513
4307.933	2369
4309.453	2451
4310.973	2401
4312.492	2416
