398.1873	2569
400.7097	2654
403.2336	2697
405.7547	2691
408.2751	2705
410.7948	2643
413.3138	2658
415.83	2674
418.3497	2732
420.8666	2687
423.3829	2788
425.8985	2766
428.4133	2793
430.9275	2834
433.441	2782
435.9538	2772
438.4639	2816
440.9753	2859
443.4881	2802
445.9982	2871
448.5055	2888
451.0142	2851
453.5201	2782
456.0274	2743
458.5361	2776
461.04	2809
463.5453	2834
466.0478	2841
468.5517	2744
471.0549	2809
473.5574	2852
476.0572	2800
478.5584	2783
481.0568	2823
483.5545	2837
486.0557	2831
488.5521	2833
491.0478	2812
493.5449	2811
496.0392	2837
498.5349	2937
501.0299	2869
503.5222	2896
506.0139	2857
508.5048	2861
510.9991	2906
513.4887	2865
515.9777	2924
518.4659	2945
520.9534	2859
523.4403	2880
525.9306	2895
528.4161	2888
530.9009	2946
533.3851	2871
535.8687	2898
538.3535	2959
540.8356	2938
543.3171	2843
545.7979	2939
548.278	2953
550.7595	2878
553.2383	2901
555.7144	2926
558.1918	2921
560.6685	2958
563.1446	2943
565.6221	2950
568.0968	3002
570.5688	2917
573.0422	2996
575.515	3035
577.989	3008
580.4584	3037
582.9291	3030
585.3991	3049
587.8685	3073
590.3352	3028
592.8052	2995
595.2706	3030
597.7372	3013
600.2033	3008
602.6666	2966
605.1334	2994
607.5953	3033
610.0587	3035
612.5193	2976
614.9814	2985
617.4427	2945
619.9034	2984
622.3615	3037
624.8208	2973
627.2775	3002
629.7335	3044
632.1929	2999
634.6476	3002
637.1016	3071
639.5569	3003
642.0096	3043
644.4637	3049
646.9151	3035
649.3678	3002
651.8179	2992
654.2672	3041
656.7159	3099
659.166	3034
661.6154	3046
664.0622	3093
666.5082	3067
668.9537	3125
671.4005	3082
673.8445	3082
676.288	3076
678.7308	3072
681.1729	3055
683.6163	3157
686.0572	3128
688.4973	3119
690.9368	3113
693.3757	3092
695.8138	3091
698.2534	3115
700.6902	3040
703.1245	3109
705.56	3098
707.9949	3043
710.4311	3166
712.8647	3087
715.2957	3132
717.7279	3112
720.1595	3174
722.5905	3201
725.0208	3095
727.4505	3173
729.8795	3168
732.3058	3261
734.7336	3165
737.1626	3204
739.587	3217
742.0128	3148
744.4359	3180
746.8604	3234
749.2841	3151
751.7073	3220
754.1278	3281
756.5496	3206
758.9688	3311
761.3893	3215
763.8093	3247
766.2285	3306
768.6451	3305
771.0611	3254
773.4784	3305
775.895	3319
778.3091	3293
780.7244	3289
783.1371	3224
785.5493	3299
787.9626	3334
790.3754	3366
792.7856	3239
795.1951	3321
797.6039	3283
800.0121	3319
802.4236	3241
804.8306	3338
807.2369	3333
809.6425	3305
812.0475	3309
814.4538	3303
816.8575	3352
819.2606	3374
821.663	3308
824.0648	3308
826.4659	3308
828.8683	3300
831.2682	3286
833.6674	3352
836.066	3421
838.4639	3325
840.8632	3291
843.2579	3384
845.6539	3382
848.0493	3397
850.444	3351
852.84	3396
855.2315	3419
857.6243	3429
860.0165	3398
862.4081	3311
864.797	3445
867.1892	3331
869.5789	3406
871.9659	3343
874.3542	3479
876.74	3392
879.129	3290
881.5155	3339
883.8994	3367
886.2845	3304
888.6671	3426
891.051	3299
893.4343	3401
895.8169	3509
898.197	3325
900.5783	3407
902.9571	3426
905.3372	3296
907.7167	3413
910.0936	3486
912.4698	3459
914.8474	3429
917.2244	3543
919.5987	3530
921.9744	3454
924.3475	3493
926.72	3504
929.0918	3551
931.4669	3491
933.8375	3537
936.2074	3518
938.5767	3580
940.9454	3603
943.3154	3649
945.6829	3649
948.0497	3720
950.4178	3846
952.7833	3896
955.1483	4016
957.5145	4119
959.8782	4161
962.2412	4123
964.6036	4013
966.9655	3946
969.3266	3811
971.6871	3799
974.0471	3681
976.4064	3597
978.765	3568
981.125	3527
983.4824	3587
985.8373	3463
988.1935	3533
990.549	3485
992.9039	3419
995.2602	3495
997.6119	3454
999.965	3492
1002.317	3558
1004.667	3554
1007.02	3527
1009.371	3508
1011.719	3560
1014.068	3511
1016.415	3559
1018.765	3612
1021.111	3539
1023.458	3483
1025.804	3518
1028.147	3576
1030.49	3641
1032.837	3561
1035.179	3609
1037.522	3572
1039.862	3560
1042.204	3587
1044.546	3534
1046.884	3644
1049.224	3558
1051.562	3588
1053.899	3676
1056.237	3630
1058.575	3599
1060.91	3591
1063.244	3632
1065.58	3580
1067.913	3671
1070.248	3640
1072.579	3674
1074.911	3565
1077.242	3678
1079.572	3597
1081.905	3640
1084.234	3581
1086.562	3675
1088.89	3606
1091.217	3669
1093.544	3582
1095.871	3635
1098.197	3566
1100.521	3618
1102.845	3630
1105.169	3628
1107.491	3647
1109.814	3588
1112.135	3599
1114.456	3589
1116.776	3523
1119.096	3599
1121.415	3614
1123.734	3580
1126.052	3662
1128.369	3594
1130.686	3594
1133.002	3648
1135.318	3650
1137.632	3599
1139.945	3641
1142.258	3624
1144.573	3587
1146.884	3607
1149.196	3618
1151.505	3640
1153.816	3558
1156.124	3594
1158.435	3556
1160.742	3625
1163.051	3615
1165.356	3625
1167.663	3657
1169.97	3697
1172.276	3619
1174.579	3628
1176.881	3703
1179.186	3676
1181.487	3674
1183.79	3592
1186.092	3649
1188.392	3656
1190.691	3678
1192.991	3640
1195.291	3691
1197.588	3640
1199.885	3716
1202.181	3699
1204.479	3704
1206.775	3689
1209.07	3626
1211.363	3710
1213.656	3673
1215.949	3621
1218.241	3594
1220.534	3669
1222.825	3672
1225.115	3607
1227.405	3673
1229.693	3690
1231.984	3657
1234.271	3724
1236.558	3740
1238.845	3774
1241.131	3750
1243.416	3815
1245.703	3758
1247.987	3814
1250.269	3761
1252.552	3755
1254.834	3722
1257.118	3793
1259.399	3767
1261.678	3787
1263.958	3778
1266.237	3810
1268.516	3804
1270.794	3736
1273.072	3727
1275.347	3772
1277.624	3786
1279.899	3782
1282.175	3842
1284.449	3674
1286.722	3836
1288.995	3755
1291.266	3741
1293.54	3780
1295.81	3772
1298.081	3691
1300.35	3731
1302.62	3659
1304.889	3677
1307.156	3716
1309.425	3736
1311.69	3813
1313.957	3810
1316.222	3800
1318.488	3795
1320.751	3738
1323.016	3716
1325.278	3745
1327.54	3728
1329.803	3826
1332.065	3816
1334.325	3799
1336.584	3677
1338.843	3821
1341.101	3748
1343.36	3829
1345.617	3750
1347.876	3712
1350.131	3724
1352.387	3855
1354.643	3802
1356.897	3756
1359.151	3819
1361.403	3709
1363.656	3688
1365.909	3742
1368.16	3741
1370.409	3795
1372.659	3754
1374.909	3690
1377.157	3796
1379.407	3846
1381.655	3897
1383.9	3834
1386.147	3779
1388.393	3818
1390.64	3804
1392.885	3868
1395.127	3779
1397.37	3766
1399.614	3805
1401.854	3847
1404.098	3853
1406.339	3825
1408.578	3794
1410.818	3789
1413.056	3777
1415.297	3887
1417.533	3857
1419.771	3890
1422.006	3950
1424.243	3883
1426.479	3817
1428.715	3858
1430.948	3945
1433.182	3912
1435.414	3916
1437.647	3846
1439.88	3925
1442.11	3924
1444.342	3932
1446.571	3929
1448.799	3859
1451.029	3927
1453.258	3945
1455.485	3959
1457.711	3913
1459.937	3951
1462.164	3952
1464.39	3939
1466.614	3924
1468.838	3898
1471.06	3896
1473.283	3885
1475.506	3813
1477.727	3885
1479.949	3919
1482.169	3826
1484.389	3851
1486.609	3807
1488.828	3782
1491.045	3804
1493.261	3812
1495.477	3870
1497.693	3845
1499.91	3811
1502.125	3809
1504.339	3865
1506.553	3863
1508.766	3785
1510.979	3822
1513.191	3786
1515.402	3781
1517.613	3795
1519.823	3787
1522.033	3891
1524.242	3772
1526.451	3762
1528.657	3782
1530.865	3798
1533.072	3857
1535.278	3841
1537.484	3818
1539.687	3832
1541.892	3825
1544.096	3854
1546.299	3813
1548.502	3930
1550.703	3979
1552.905	3855
1555.104	3879
1557.303	3922
1559.505	3967
1561.703	3866
1563.902	3860
1566.099	3971
1568.295	3889
1570.494	3899
1572.689	3899
1574.883	3878
1577.079	3945
1579.272	3844
1581.467	3860
1583.659	3915
1585.853	3956
1588.044	3939
1590.234	3876
1592.424	3885
1594.615	3928
1596.806	3927
1598.994	3974
1601.182	3894
1603.369	3968
1605.557	3877
1607.744	3912
1609.929	3965
1612.114	4039
1614.298	3974
1616.482	3963
1618.667	4024
1620.85	4013
1623.032	4010
1625.214	3907
1627.395	3993
1629.575	4019
1631.755	3935
1633.935	3970
1636.114	4011
1638.292	3998
1640.471	3949
1642.647	3980
1644.823	3935
1647	3991
1649.175	4071
1651.348	3993
1653.525	3955
1655.698	4052
1657.87	3962
1660.043	4058
1662.213	3927
1664.387	3959
1666.558	4127
1668.727	4070
1670.896	4034
1673.064	4064
1675.233	4029
1677.401	4133
1679.569	4118
1681.735	4033
1683.902	4082
1686.066	3981
1688.233	4063
1690.397	3975
1692.559	3935
1694.723	4070
1696.885	4060
1699.048	3984
1701.21	3980
1703.37	3959
1705.53	4029
1707.689	3872
1709.849	4053
1712.009	4110
1714.166	4001
1716.323	3936
1718.479	3941
1720.634	4008
1722.793	4046
1724.948	4015
1727.102	3994
1729.255	3957
1731.408	4016
1733.562	3957
1735.714	3993
1737.865	4013
1740.016	3953
1742.166	3952
1744.316	3990
1746.467	4046
1748.616	4066
1750.764	3975
1752.911	4021
1755.056	4070
1757.205	4036
1759.35	4009
1761.496	4006
1763.641	4002
1765.785	4048
1767.927	4072
1770.072	4009
1772.214	4023
1774.355	4016
1776.496	4058
1778.637	4064
1780.778	3977
1782.918	4090
1785.057	4050
1787.194	3986
1789.333	4077
1791.472	4013
1793.608	4070
1795.745	4012
1797.879	4113
1800.015	4093
1802.148	3999
1804.284	4006
1806.417	4076
1808.548	4059
1810.682	4083
1812.812	4069
1814.946	4041
1817.075	4062
1819.205	4049
1821.335	3985
1823.463	4027
1825.59	3977
1827.721	4063
1829.847	4039
1831.973	4041
1834.098	4052
1836.223	4104
1838.351	4017
1840.475	4076
1842.598	3993
1844.721	4074
1846.843	4043
1848.966	3913
1851.087	4180
1853.21	4010
1855.33	3919
1857.449	4051
1859.568	3914
1861.688	3993
1863.806	4019
1865.924	3977
1868.039	4045
1870.155	3974
1872.273	3987
1874.388	4039
1876.503	4052
1878.617	4058
1880.73	4036
1882.844	3960
1884.956	4043
1887.068	4098
1889.18	4139
1891.291	4123
1893.4	4096
1895.511	4146
1897.621	4058
1899.73	4051
1901.837	4092
1903.944	4052
1906.053	4130
1908.159	4007
1910.265	4082
1912.369	4076
1914.474	4094
1916.577	4130
1918.683	4127
1920.785	3964
1922.888	4170
1924.989	4130
1927.091	4092
1929.193	4059
1931.294	4101
1933.393	4152
1935.493	4159
1937.59	4147
1939.689	4087
1941.788	4129
1943.884	4120
1945.98	4101
1948.077	4166
1950.171	4080
1952.267	4187
1954.361	4124
1956.455	4090
1958.548	4153
1960.64	4090
1962.733	4138
1964.824	4113
1966.915	4241
1969.005	4158
1971.096	4088
1973.185	4138
1975.275	4084
1977.363	4166
1979.45	4125
1981.537	4018
1983.623	4137
1985.711	4072
1987.796	4175
1989.881	4138
1991.965	4183
1994.047	4105
1996.132	4096
1998.215	4095
2000.297	4133
2002.378	4182
2004.46	4142
2006.54	4120
2008.62	4119
2010.7	4143
2012.779	4069
2014.858	4116
2016.934	4154
2019.013	4063
2021.09	4078
2023.165	4189
2025.241	4147
2027.317	4053
2029.39	4067
2031.466	4075
2033.538	4131
2035.612	4045
2037.683	4070
2039.755	4106
2041.827	4148
2043.898	4094
2045.968	4135
2048.038	4060
2050.106	4127
2052.177	4067
2054.244	4125
2056.313	4201
2058.379	4074
2060.444	4089
2062.511	4099
2064.577	4196
2066.641	4116
2068.705	4045
2070.77	4051
2072.832	4164
2074.896	4176
2076.958	4132
2079.02	4047
2081.081	4168
2083.141	4189
2085.2	4107
2087.261	4158
2089.319	4073
2091.377	4056
2093.435	4109
2095.492	4120
2097.552	4129
2099.607	4176
2101.663	4139
2103.718	4138
2105.771	4183
2107.826	4133
2109.879	4059
2111.932	4134
2113.985	4065
2116.037	4175
2118.088	4051
2120.141	4266
2122.191	4186
2124.239	4190
2126.288	4108
2128.337	4096
2130.387	4123
2132.434	4184
2134.481	4113
2136.528	4209
2138.574	4142
2140.618	4184
2142.665	4095
2144.71	4119
2146.753	4114
2148.797	4066
2150.838	4191
2152.883	4174
2154.923	4179
2156.965	4116
2159.007	4103
2161.046	4205
2163.086	4085
2165.126	4139
2167.163	4194
2169.202	4087
2171.239	4072
2173.277	4107
2175.314	4071
2177.349	4174
2179.385	4166
2181.42	4051
2183.453	4114
2185.49	4071
2187.522	4121
2189.555	4073
2191.586	4122
2193.619	4136
2195.651	4070
2197.682	4096
2199.711	4122
2201.74	4112
2203.769	4155
2205.799	4053
2207.828	4058
2209.855	4075
2211.882	4063
2213.908	4072
2215.934	4030
2217.961	4102
2219.986	4051
2222.01	4167
2224.034	4039
2226.057	4029
2228.08	4069
2230.104	4016
2232.124	4078
2234.145	4036
2236.166	4088
2238.186	4145
2240.207	4031
2242.227	4089
2244.244	4148
2246.262	3988
2248.28	4110
2250.299	4144
2252.314	4037
2254.33	4076
2256.346	4121
2258.36	4130
2260.375	4031
2262.391	3987
2264.403	4153
2266.416	4091
2268.427	4110
2270.44	4144
2272.453	4119
2274.463	4167
2276.474	4056
2278.483	4084
2280.493	4095
2282.501	4026
2284.51	4047
2286.518	4214
2288.524	4117
2290.532	4063
2292.537	4138
2294.544	4030
2296.55	4086
2298.554	4125
2300.557	4038
2302.562	4124
2304.566	4145
2306.568	4109
2308.569	4088
2310.572	4081
2312.573	4052
2314.573	4193
2316.574	4073
2318.573	4042
2320.571	4084
2322.571	4057
2324.569	4054
2326.567	4070
2328.564	4093
2330.56	4009
2332.556	4162
2334.551	4045
2336.546	3987
2338.542	4023
2340.535	4057
2342.529	3986
2344.521	4013
2346.512	4140
2348.505	4010
2350.497	3959
2352.487	3937
2354.478	4059
2356.468	4033
2358.457	4012
2360.446	3966
2362.434	3948
2364.422	4017
2366.408	3977
2368.395	4002
2370.383	4066
2372.369	4060
2374.353	3985
2376.338	4016
2378.321	4042
2380.307	4049
2382.29	4038
2384.272	4067
2386.254	4059
2388.235	3959
2390.218	4073
2392.198	3950
2394.179	3905
2396.157	3971
2398.137	3945
2400.115	3978
2402.095	3936
2404.072	3926
2406.048	4003
2408.026	3959
2410.001	4001
2411.977	4073
2413.953	3917
2415.927	3989
2417.9	4061
2419.875	3979
2421.847	3964
2423.821	4022
2425.792	3920
2427.763	3962
2429.736	3982
2431.706	4011
2433.677	4027
2435.646	3990
2437.615	4046
2439.583	4035
2441.551	3999
2443.519	4029
2445.486	3967
2447.452	3975
2449.418	3995
2451.383	3958
2453.348	3994
2455.314	4030
2457.278	3982
2459.241	3952
2461.205	4025
2463.167	3952
2465.131	3935
2467.091	4016
2469.052	3933
2471.012	3927
2472.972	4057
2474.932	3897
2476.891	3961
2478.85	3981
2480.808	4016
2482.766	4010
2484.722	3936
2486.68	3987
2488.636	3979
2490.591	3937
2492.546	3958
2494.5	3924
2496.456	4002
2498.41	3888
2500.362	3959
2502.315	3806
2504.266	3933
2506.218	3966
2508.169	3875
2510.121	3861
2512.07	3938
2514.019	3906
2515.968	3936
2517.918	3992
2519.866	3864
2521.813	3976
2523.76	3905
2525.707	3991
2527.653	3940
2529.599	3951
2531.543	3954
2533.489	4006
2535.433	3905
2537.376	3929
2539.32	3955
2541.264	3979
2543.205	3959
2545.147	3941
2547.087	3933
2549.029	3882
2550.969	3984
2552.908	3924
2554.847	3934
2556.786	3862
2558.724	3940
2560.663	3921
2562.6	3921
2564.537	4016
2566.473	4001
2568.408	3938
2570.345	3956
2572.28	3903
2574.214	3859
2576.148	3965
2578.081	3960
2580.014	3965
2581.947	3982
2583.879	4016
2585.81	3847
2587.741	3919
2589.67	3949
2591.602	3907
2593.532	3995
2595.461	3965
2597.388	3898
2599.316	4031
2601.244	3962
2603.172	3951
2605.098	3903
2607.023	3939
2608.949	3907
2610.873	3939
2612.8	4062
2614.723	3988
2616.647	4015
2618.569	3965
2620.493	3941
2622.416	4062
2624.338	4072
2626.258	3934
2628.179	4034
2630.099	3906
2632.019	3936
2633.939	4021
2635.857	4040
2637.775	4035
2639.694	4014
2641.61	3982
2643.528	4044
2645.444	3925
2647.361	3951
2649.276	3910
2651.19	3999
2653.105	3925
2655.019	3963
2656.934	4069
2658.846	4056
2660.758	3980
2662.67	3904
2664.583	3939
2666.493	3950
2668.404	3955
2670.313	3922
2672.223	3954
2674.134	3968
2676.042	3912
2677.95	3887
2679.858	4028
2681.765	4031
2683.673	4075
2685.579	3872
2687.483	3967
2689.389	3903
2691.294	3898
2693.198	3926
2695.104	3909
2697.006	3951
2698.909	3927
2700.811	3907
2702.713	3951
2704.615	3922
2706.516	3939
2708.417	3889
2710.316	3917
2712.216	3920
2714.115	3921
2716.014	3896
2717.913	3902
2719.81	3921
2721.707	3915
2723.603	3969
2725.501	3950
2727.396	3891
2729.292	3848
2731.186	3958
2733.081	3956
2734.976	3895
2736.87	3946
2738.762	3890
2740.653	3843
2742.546	3899
2744.437	3945
2746.329	3897
2748.22	3862
2750.11	3907
2751.999	3914
2753.889	3886
2755.778	3922
2757.666	3879
2759.553	3886
2761.44	3893
2763.328	3926
2765.215	3913
2767.101	3877
2768.986	3939
2770.87	3850
2772.754	3896
2774.638	3985
2776.523	3827
2778.405	3886
2780.288	3893
2782.17	3884
2784.051	3942
2785.934	3847
2787.814	3969
2789.694	3804
2791.574	3896
2793.453	3823
2795.332	3889
2797.212	3876
2799.088	3865
2800.966	3877
2802.843	3788
2804.719	3871
2806.597	3890
2808.471	3908
2810.346	3873
2812.221	3917
2814.094	3919
2815.969	3853
2817.843	3858
2819.714	3805
2821.587	3856
2823.459	3813
2825.329	3847
2827.202	3864
2829.072	3818
2830.942	3987
2832.811	3790
2834.68	3957
2836.549	3808
2838.418	3804
2840.284	3813
2842.152	3925
2844.018	3798
2845.885	3914
2847.751	3967
2849.616	3919
2851.482	3773
2853.345	3760
2855.208	3908
2857.074	3882
2858.937	3918
2860.799	3905
2862.66	3931
2864.522	3905
2866.385	3836
2868.245	3898
2870.104	3909
2871.964	3964
2873.824	3971
2875.683	3988
2877.542	3966
2879.4	3910
2881.257	3969
2883.114	4050
2884.97	4084
2886.827	3974
2888.683	4111
2890.537	4055
2892.392	4077
2894.246	4062
2896.1	4047
2897.954	4053
2899.807	3955
2901.66	4023
2903.51	4015
2905.362	4010
2907.214	4029
2909.065	4050
2910.915	4116
2912.765	4026
2914.613	4073
2916.463	4056
2918.311	4146
2920.158	4164
2922.006	4122
2923.853	4198
2925.698	4179
2927.546	4280
2929.392	4209
2931.236	4208
2933.081	4319
2934.924	4220
2936.77	4225
2938.613	4306
2940.455	4326
2942.298	4323
2944.139	4328
2945.982	4307
2947.823	4276
2949.662	4272
2951.503	4306
2953.342	4172
2955.182	4215
2957.021	4273
2958.858	4209
2960.697	4102
2962.534	4139
2964.37	4183
2966.207	4178
2968.044	4025
2969.879	4035
2971.714	4130
2973.548	4106
2975.383	4038
2977.218	4059
2979.051	4088
2980.883	3991
2982.715	4084
2984.547	3992
2986.379	4043
2988.21	3996
2990.04	3979
2991.87	3956
2993.7	3986
2995.53	3999
2997.359	3986
2999.187	3854
3001.015	3902
3002.842	3880
3004.669	3944
3006.497	3881
3008.323	3860
3010.148	3842
3011.974	3831
3013.797	3806
3015.623	3804
3017.447	3745
3019.27	3803
3021.094	3808
3022.915	3738
3024.737	3785
3026.56	3788
3028.38	3746
3030.201	3725
3032.022	3774
3033.84	3760
3035.662	3850
3037.481	3766
3039.298	3678
3041.117	3784
3042.933	3684
3044.752	3723
3046.568	3715
3048.385	3719
3050.2	3679
3052.016	3731
3053.83	3668
3055.646	3711
3057.46	3734
3059.272	3733
3061.086	3685
3062.898	3740
3064.711	3632
3066.524	3730
3068.335	3725
3070.145	3645
3071.956	3692
3073.766	3681
3075.576	3757
3077.385	3656
3079.193	3648
3081.002	3719
3082.81	3640
3084.618	3653
3086.425	3703
3088.231	3571
3090.036	3664
3091.842	3661
3093.648	3583
3095.452	3626
3097.257	3680
3099.06	3594
3100.863	3646
3102.666	3726
3104.47	3671
3106.272	3653
3108.073	3606
3109.875	3524
3111.676	3585
3113.477	3546
3115.277	3602
3117.077	3606
3118.874	3607
3120.673	3531
3122.473	3578
3124.271	3531
3126.066	3570
3127.863	3469
3129.66	3561
3131.456	3456
3133.252	3605
3135.047	3558
3136.842	3617
3138.635	3618
3140.429	3553
3142.223	3580
3144.016	3570
3145.808	3585
3147.6	3594
3149.392	3639
3151.183	3558
3152.975	3464
3154.765	3529
3156.553	3608
3158.344	3529
3160.132	3512
3161.922	3562
3163.71	3491
3165.497	3529
3167.285	3605
3169.071	3545
3170.858	3575
3172.645	3565
3174.429	3517
3176.214	3536
3177.998	3534
3179.783	3518
3181.568	3540
3183.351	3513
3185.133	3548
3186.915	3478
3188.698	3499
3190.481	3480
3192.261	3524
3194.042	3537
3195.822	3496
3197.601	3451
3199.381	3441
3201.161	3515
3202.939	3509
3204.717	3491
3206.495	3495
3208.272	3490
3210.05	3457
3211.826	3464
3213.602	3488
3215.376	3472
3217.151	3460
3218.927	3430
3220.702	3539
3222.476	3493
3224.249	3481
3226.021	3482
3227.793	3498
3229.567	3440
3231.339	3521
3233.109	3554
3234.88	3489
3236.651	3417
3238.421	3446
3240.191	3477
3241.96	3455
3243.728	3483
3245.497	3413
3247.263	3460
3249.033	3488
3250.799	3499
3252.566	3443
3254.331	3493
3256.097	3443
3257.863	3512
3259.628	3442
3261.392	3449
3263.156	3457
3264.919	3386
3266.683	3438
3268.447	3483
3270.208	3471
3271.969	3474
3273.731	3518
3275.492	3474
3277.253	3408
3279.013	3431
3280.773	3456
3282.532	3415
3284.291	3473
3286.05	3507
3287.808	3420
3289.566	3407
3291.323	3447
3293.079	3478
3294.835	3551
3296.593	3399
3298.348	3484
3300.102	3470
3301.857	3363
3303.611	3545
3305.366	3553
3307.119	3367
3308.872	3462
3310.624	3494
3312.376	3510
3314.129	3408
3315.881	3487
3317.631	3470
3319.38	3473
3321.13	3432
3322.88	3517
3324.631	3437
3326.379	3378
3328.126	3450
3329.875	3411
3331.622	3539
3333.371	3467
3335.116	3428
3336.863	3460
3338.609	3479
3340.353	3435
3342.1	3507
3343.845	3472
3345.588	3384
3347.332	3476
3349.074	3543
3350.817	3475
3352.56	3430
3354.303	3438
3356.043	3369
3357.785	3435
3359.525	3379
3361.268	3404
3363.007	3462
3364.745	3416
3366.485	3376
3368.223	3547
3369.962	3366
3371.701	3498
3373.438	3405
3375.174	3456
3376.911	3409
3378.647	3438
3380.384	3395
3382.118	3455
3383.854	3300
3385.588	3378
3387.322	3464
3389.057	3457
3390.79	3307
3392.522	3399
3394.255	3328
3395.987	3408
3397.719	3395
3399.451	3307
3401.181	3410
3402.911	3353
3404.641	3416
3406.371	3320
3408.101	3365
3409.83	3404
3411.558	3392
3413.285	3438
3415.011	3423
3416.739	3311
3418.467	3308
3420.193	3344
3421.919	3323
3423.644	3377
3425.368	3321
3427.094	3442
3428.818	3367
3430.542	3377
3432.264	3299
3433.987	3290
3435.712	3303
3437.434	3351
3439.155	3305
3440.876	3337
3442.596	3293
3444.317	3386
3446.039	3320
3447.757	3319
3449.477	3324
3451.195	3352
3452.914	3323
3454.632	3292
3456.35	3247
3458.067	3376
3459.784	3257
3461.5	3303
3463.216	3188
3464.932	3238
3466.647	3233
3468.362	3260
3470.076	3236
3471.789	3270
3473.505	3261
3475.217	3180
3476.929	3275
3478.641	3256
3480.354	3207
3482.066	3219
3483.777	3243
3485.487	3204
3487.197	3174
3488.908	3210
3490.617	3227
3492.327	3143
3494.035	3208
3495.743	3255
3497.451	3237
3499.158	3208
3500.866	3209
3502.572	3163
3504.278	3144
3505.984	3276
3507.689	3112
3509.396	3154
3511.1	3152
3512.804	3152
3514.508	3231
3516.211	3210
3517.913	3159
3519.616	3169
3521.319	3107
3523.021	3187
3524.722	3185
3526.422	3182
3528.124	3238
3529.824	3217
3531.524	3205
3533.222	3165
3534.921	3181
3536.62	3167
3538.318	3167
3540.016	3163
3541.714	3166
3543.41	3142
3545.107	3197
3546.803	3204
3548.5	3212
3550.194	3169
3551.889	3114
3553.583	3111
3555.279	3157
3556.972	3243
3558.666	3080
3560.358	3105
3562.051	3214
3563.742	3229
3565.435	3108
3567.126	3064
3568.817	3097
3570.507	3067
3572.197	3129
3573.888	3095
3575.577	3140
3577.265	3147
3578.954	3104
3580.642	3111
3582.329	3107
3584.017	3065
3585.704	3165
3587.391	3086
3589.077	3098
3590.762	3044
3592.449	3095
3594.133	3101
3595.817	3046
3597.501	3061
3599.185	3087
3600.869	3032
3602.552	3045
3604.234	3111
3605.916	3050
3607.598	3044
3609.279	2952
3610.961	3039
3612.642	3053
3614.321	3044
3616	3036
3617.68	3027
3619.36	3016
3621.039	3047
3622.716	3034
3624.394	2990
3626.071	3047
3627.748	2962
3629.425	3007
3631.102	2987
3632.778	3084
3634.452	3005
3636.127	2983
3637.803	3063
3639.477	3006
3641.151	2975
3642.823	3011
3644.497	2979
3646.171	2965
3647.842	2963
3649.515	3049
3651.185	3030
3652.857	2995
3654.527	2966
3656.198	2948
3657.868	2952
3659.537	2901
3661.207	2921
3662.875	2894
3664.544	2999
3666.212	3021
3667.879	2973
3669.546	2908
3671.212	2964
3672.88	2986
3674.546	2893
3676.211	2874
3677.875	2942
3679.541	2973
3681.205	2953
3682.87	2953
3684.533	2934
3686.196	2949
3687.859	2870
3689.521	2943
3691.184	2900
3692.845	2848
3694.507	2913
3696.167	2894
3697.827	2960
3699.487	2922
3701.148	2936
3702.808	3005
3704.466	2971
3706.125	2988
3707.783	2945
3709.442	2896
3711.099	2951
3712.757	2883
3714.412	2953
3716.068	2896
3717.725	2868
3719.381	3005
3721.036	2896
3722.689	2863
3724.344	2884
3725.998	2883
3727.652	2861
3729.305	2898
3730.958	2897
3732.61	2918
3734.262	2882
3735.915	2843
3737.565	2872
3739.217	2859
3740.866	2876
3742.516	2937
3744.165	2804
3745.816	2894
3747.464	2857
3749.113	2858
3750.761	2876
3752.409	2897
3754.057	2836
3755.703	2930
3757.35	2917
3758.996	2820
3760.641	2809
3762.289	2777
3763.933	2893
3765.577	2805
3767.222	2880
3768.865	2824
3770.508	2839
3772.152	2869
3773.796	2874
3775.438	2796
3777.079	2857
3778.721	2794
3780.363	2855
3782.003	2810
3783.643	2767
3785.283	2826
3786.923	2783
3788.563	2818
3790.203	2801
3791.841	2817
3793.479	2802
3795.115	2815
3796.753	2766
3798.391	2834
3800.027	2765
3801.664	2794
3803.299	2761
3804.935	2834
3806.571	2787
3808.206	2759
3809.839	2757
3811.473	2842
3813.107	2733
3814.74	2777
3816.375	2714
3818.006	2795
3819.638	2751
3821.27	2742
3822.9	2811
3824.532	2729
3826.163	2771
3827.792	2746
3829.423	2815
3831.051	2758
3832.682	2758
3834.311	2744
3835.938	2739
3837.566	2755
3839.193	2737
3840.821	2753
3842.448	2795
3844.075	2776
3845.7	2763
3847.325	2736
3848.951	2785
3850.576	2700
3852.201	2734
3853.825	2694
3855.448	2734
3857.072	2703
3858.694	2708
3860.318	2733
3861.939	2735
3863.562	2702
3865.183	2688
3866.804	2775
3868.426	2732
3870.045	2648
3871.666	2675
3873.285	2675
3874.904	2680
3876.524	2659
3878.142	2680
3879.76	2671
3881.378	2695
3882.995	2645
3884.612	2682
3886.229	2696
3887.845	2621
3889.461	2691
3891.076	2678
3892.691	2700
3894.307	2676
3895.922	2747
3897.536	2633
3899.149	2674
3900.761	2650
3902.374	2710
3903.988	2664
3905.6	2647
3907.212	2637
3908.822	2697
3910.433	2616
3912.045	2691
3913.655	2654
3915.265	2635
3916.875	2658
3918.483	2687
3920.093	2722
3921.702	2683
3923.309	2675
3924.917	2661
3926.523	2567
3928.13	2624
3929.739	2658
3931.344	2689
3932.95	2611
3934.555	2688
3936.159	2614
3937.766	2649
3939.369	2561
3940.974	2708
3942.577	2633
3944.181	2741
3945.783	2589
3947.386	2620
3948.989	2660
3950.59	2628
3952.191	2593
3953.791	2590
3955.394	2571
3956.994	2606
3958.593	2598
3960.192	2612
3961.791	2669
3963.392	2625
3964.99	2616
3966.588	2628
3968.185	2671
3969.782	2596
3971.379	2573
3972.976	2597
3974.572	2607
3976.168	2577
3977.763	2580
3979.358	2589
3980.954	2570
3982.548	2570
3984.142	2622
3985.736	2547
3987.329	2607
3988.922	2574
3990.516	2546
3992.108	2555
3993.698	2531
3995.29	2490
3996.881	2531
3998.473	2599
4000.064	2535
4001.653	2596
4003.242	2512
4004.832	2566
4006.422	2492
4008.01	2565
4009.598	2514
4011.186	2481
4012.773	2458
4014.36	2528
4015.947	2549
4017.534	2533
4019.119	2457
4020.705	2506
4022.291	2451
4023.876	2516
4025.461	2495
4027.044	2507
4028.627	2479
4030.211	2500
4031.795	2514
4033.378	2467
4034.96	2482
4036.542	2477
4038.124	2513
4039.704	2498
4041.286	2502
4042.867	2475
4044.447	2469
4046.026	2519
4047.606	2418
4049.187	2468
4050.765	2553
4052.343	2470
4053.92	2486
4055.498	2472
4057.076	2448
4058.654	2489
4060.23	2440
4061.806	2454
4063.381	2405
4064.957	2564
4066.533	2463
4068.107	2409
4069.682	2417
4071.256	2430
4072.829	2418
4074.404	2434
4075.977	2459
4077.549	2464
4079.121	2385
4080.693	2462
4082.265	2393
4083.836	2467
4085.407	2411
4086.977	2447
4088.547	2419
4090.117	2417
4091.687	2378
4093.256	2403
4094.825	2480
4096.392	2460
4097.96	2419
4099.528	2421
4101.097	2366
4102.663	2418
4104.229	2406
4105.795	2426
4107.361	2411
4108.928	2407
4110.493	2409
4112.058	2444
4113.621	2408
4115.186	2438
4116.75	2419
4118.313	2333
4119.876	2385
4121.438	2421
4123	2354
4124.562	2407
4126.125	2326
4127.686	2369
4129.246	2302
4130.807	2399
4132.367	2397
4133.927	2335
4135.486	2343
4137.046	2388
4138.604	2363
4140.162	2356
4141.72	2356
4143.279	2299
4144.836	2383
4146.393	2333
4147.949	2310
4149.505	2354
4151.062	2406
4152.617	2288
4154.172	2289
4155.727	2372
4157.281	2315
4158.836	2358
4160.39	2277
4161.943	2323
4163.496	2340
4165.048	2268
4166.601	2316
4168.154	2273
4169.706	2285
4171.257	2313
4172.808	2275
4174.358	2346
4175.909	2287
4177.458	2321
4179.008	2329
4180.558	2277
4182.106	2346
4183.655	2289
4185.204	2266
4186.751	2259
4188.298	2274
4189.845	2262
4191.392	2247
4192.939	2261
4194.485	2279
4196.031	2325
4197.576	2301
4199.121	2220
4200.666	2244
4202.211	2256
4203.754	2276
4205.298	2256
4206.84	2269
4208.384	2232
4209.927	2249
4211.47	2284
4213.011	2253
4214.552	2318
4216.094	2252
4217.635	2252
4219.175	2275
4220.716	2268
4222.255	2225
4223.793	2271
4225.335	2289
4226.873	2239
4228.411	2305
4229.948	2259
4231.486	2269
4233.024	2265
4234.562	2235
4236.098	2192
4237.634	2149
4239.169	2303
4240.705	2194
4242.241	2248
4243.776	2226
4245.31	2241
4246.844	2265
4248.378	2224
4249.911	2198
4251.445	2230
4252.978	2242
4254.51	2223
4256.042	2196
4257.574	2194
4259.107	2222
4260.638	2220
4262.169	2232
4263.699	2138
4265.228	2224
4266.759	2242
4268.289	2236
4269.818	2250
4271.345	2259
4272.874	2174
4274.402	2184
4275.931	2187
4277.458	2179
4278.985	2165
4280.512	2186
4282.037	2176
4283.564	2165
4285.089	2228
4286.615	2144
4288.139	2159
4289.664	2194
4291.187	2178
4292.712	2129
4294.235	2213
4295.759	2155
4297.281	2158
4298.804	2211
4300.327	2152
4301.849	2135
4303.37	2106
4304.891	2125
4306.412	2125
4307.933	2152
4309.453	2100
4310.973	2105
4312.492	2103
