398.1873	4119
400.7097	4198
403.2336	4081
405.7547	4098
408.2751	4068
410.7948	4163
413.3138	4181
415.83	4156
418.3497	4284
420.8666	4374
423.3829	4192
425.8985	4301
428.4133	4390
430.9275	4445
433.441	4404
435.9538	4398
438.4639	4394
440.9753	4368
443.4881	4345
445.9982	4399
448.5055	4320
451.0142	4333
453.5201	4390
456.0274	4339
458.5361	4429
461.04	4419
463.5453	4474
466.0478	4406
468.5517	4374
471.0549	4438
473.5574	4388
476.0572	4378
478.5584	4422
481.0568	4422
483.5545	4465
486.0557	4454
488.5521	4468
491.0478	4440
493.5449	4523
496.0392	4469
498.5349	4532
501.0299	4530
503.5222	4414
506.0139	4585
508.5048	4514
510.9991	4616
513.4887	4650
515.9777	4591
518.4659	4616
520.9534	4569
523.4403	4573
525.9306	4537
528.4161	4455
530.9009	4575
533.3851	4545
535.8687	4505
538.3535	4614
540.8356	4701
543.3171	4574
545.7979	4601
548.278	4637
550.7595	4595
553.2383	4697
555.7144	4591
558.1918	4644
560.6685	4729
563.1446	4655
565.6221	4675
568.0968	4697
570.5688	4697
573.0422	4797
575.515	4703
577.989	4770
580.4584	4800
582.9291	4829
585.3991	4776
587.8685	4843
590.3352	4798
592.8052	4895
595.2706	4757
597.7372	4641
600.2033	4740
602.6666	4803
605.1334	4693
607.5953	4730
610.0587	4780
612.5193	4685
614.9814	4733
617.4427	4815
619.9034	4798
622.3615	4754
624.8208	4792
627.2775	4674
629.7335	4699
632.1929	4717
634.6476	4661
637.1016	4733
639.5569	4739
642.0096	4790
644.4637	4780
646.9151	4770
649.3678	4734
651.8179	4721
654.2672	4838
656.7159	4884
659.166	4798
661.6154	4801
664.0622	4802
666.5082	4757
668.9537	4892
671.4005	4845
673.8445	4880
676.288	4811
678.7308	4816
681.1729	4843
683.6163	4873
686.0572	4896
688.4973	4872
690.9368	4916
693.3757	4879
695.8138	4946
698.2534	4897
700.6902	4859
703.1245	4873
705.56	4927
707.9949	4956
710.4311	5023
712.8647	4900
715.2957	4949
717.7279	5048
720.1595	5042
722.5905	5010
725.0208	5010
727.4505	5067
729.8795	4991
732.3058	5064
734.7336	5031
737.1626	5093
739.587	5082
742.0128	5043
744.4359	5161
746.8604	5089
749.2841	5066
751.7073	5212
754.1278	5258
756.5496	5183
758.9688	5224
761.3893	5188
763.8093	5295
766.2285	5127
768.6451	5248
771.0611	5301
773.4784	5270
775.895	5183
778.3091	5277
780.7244	5257
783.1371	5149
785.5493	5283
787.9626	5255
790.3754	5251
792.7856	5342
795.1951	5345
797.6039	5180
800.0121	5251
802.4236	5205
804.8306	5282
807.2369	5260
809.6425	5351
812.0475	5190
814.4538	5319
816.8575	5338
819.2606	5249
821.663	5409
824.0648	5331
826.4659	5365
828.8683	5294
831.2682	5264
833.6674	5313
836.066	5323
838.4639	5326
840.8632	5375
843.2579	5443
845.6539	5431
848.0493	5373
850.444	5429
852.84	5415
855.2315	5397
857.6243	5341
860.0165	5431
862.4081	5403
864.797	5499
867.1892	5488
869.5789	5342
871.9659	5348
874.3542	5546
876.74	5472
879.129	5388
881.5155	5489
883.8994	5419
886.2845	5386
888.6671	5496
891.051	5387
893.4343	5343
895.8169	5401
898.197	5263
900.5783	5520
902.9571	5377
905.3372	5343
907.7167	5354
910.0936	5414
912.4698	5558
914.8474	5489
917.2244	5508
919.5987	5521
921.9744	5531
924.3475	5636
926.72	5570
929.0918	5595
931.4669	5532
933.8375	5548
936.2074	5650
938.5767	5721
940.9454	5724
943.3154	5767
945.6829	5960
948.0497	6039
950.4178	6161
952.7833	6398
955.1483	6622
957.5145	6659
959.8782	6875
962.2412	6663
964.6036	6684
966.9655	6459
969.3266	6132
971.6871	6058
974.0471	5838
976.4064	5763
978.765	5683
981.125	5657
983.4824	5600
985.8373	5642
988.1935	5498
990.549	5507
992.9039	5610
995.2602	5598
997.6119	5529
999.965	5560
1002.317	5606
1004.667	5567
1007.02	5673
1009.371	5507
1011.719	5621
1014.068	5619
1016.415	5644
1018.765	5632
1021.111	5606
1023.458	5671
1025.804	5570
1028.147	5657
1030.49	5599
1032.837	5710
1035.179	5670
1037.522	5671
1039.862	5704
1042.204	5711
1044.546	5801
1046.884	5580
1049.224	5790
1051.562	5709
1053.899	5700
1056.237	5753
1058.575	5731
1060.91	5730
1063.244	5828
1065.58	5785
1067.913	5826
1070.248	5806
1072.579	5897
1074.911	5831
1077.242	5884
1079.572	5887
1081.905	5783
1084.234	5844
1086.562	5761
1088.89	5773
1091.217	5683
1093.544	5782
1095.871	5824
1098.197	5673
1100.521	5718
1102.845	5760
1105.169	5643
1107.491	5708
1109.814	5716
1112.135	5688
1114.456	5672
1116.776	5785
1119.096	5769
1121.415	5708
1123.734	5695
1126.052	5764
1128.369	5727
1130.686	5828
1133.002	5767
1135.318	5679
1137.632	5768
1139.945	5782
1142.258	5752
1144.573	5854
1146.884	5785
1149.196	5716
1151.505	5785
1153.816	5687
1156.124	5773
1158.435	5821
1160.742	5927
1163.051	5705
1165.356	5717
1167.663	5757
1169.97	5789
1172.276	5772
1174.579	5796
1176.881	5673
1179.186	5793
1181.487	5781
1183.79	5771
1186.092	5781
1188.392	5837
1190.691	5733
1192.991	5728
1195.291	5803
1197.588	5829
1199.885	5822
1202.181	5840
1204.479	5844
1206.775	5709
1209.07	5904
1211.363	5759
1213.656	5826
1215.949	5803
1218.241	5918
1220.534	5685
1222.825	5907
1225.115	5815
1227.405	5945
1229.693	5875
1231.984	5963
1234.271	6045
1236.558	6029
1238.845	5880
1241.131	6139
1243.416	5945
1245.703	5952
1247.987	6040
1250.269	5937
1252.552	5978
1254.834	6077
1257.118	5944
1259.399	6049
1261.678	5967
1263.958	6060
1266.237	6003
1268.516	6065
1270.794	5899
1273.072	5984
1275.347	5969
1277.624	5987
1279.899	6002
1282.175	5972
1284.449	5927
1286.722	5896
1288.995	5891
1291.266	5971
1293.54	6035
1295.81	5883
1298.081	5919
1300.35	5920
1302.62	5869
1304.889	5898
1307.156	6026
1309.425	5902
1311.69	5923
1313.957	5916
1316.222	5950
1318.488	5918
1320.751	5849
1323.016	5887
1325.278	5874
1327.54	5923
1329.803	6017
1332.065	5942
1334.325	5981
1336.584	6011
1338.843	5888
1341.101	5980
1343.36	5989
1345.617	5976
1347.876	5836
1350.131	5970
1352.387	5853
1354.643	5965
1356.897	5898
1359.151	6088
1361.403	6059
1363.656	5893
1365.909	5879
1368.16	6058
1370.409	5835
1372.659	5948
1374.909	6024
1377.157	5938
1379.407	6012
1381.655	5956
1383.9	5879
1386.147	5978
1388.393	5975
1390.64	5901
1392.885	6002
1395.127	6052
1397.37	6006
1399.614	6106
1401.854	6056
1404.098	5944
1406.339	6064
1408.578	6112
1410.818	6128
1413.056	6093
1415.297	6011
1417.533	6062
1419.771	5997
1422.006	6063
1424.243	6051
1426.479	6109
1428.715	6145
1430.948	6105
1433.182	6177
1435.414	6141
1437.647	6121
1439.88	6177
1442.11	6219
1444.342	6181
1446.571	6196
1448.799	6166
1451.029	6138
1453.258	6288
1455.485	6274
1457.711	6150
1459.937	6210
1462.164	6268
1464.39	6284
1466.614	6156
1468.838	6195
1471.06	6223
1473.283	6005
1475.506	6122
1477.727	6194
1479.949	6031
1482.169	6167
1484.389	6151
1486.609	6121
1488.828	6000
1491.045	6071
1493.261	6083
1495.477	6058
1497.693	6000
1499.91	6055
1502.125	5976
1504.339	5890
1506.553	6117
1508.766	5968
1510.979	6019
1513.191	5968
1515.402	6008
1517.613	5996
1519.823	5948
1522.033	5984
1524.242	6094
1526.451	6067
1528.657	5995
1530.865	6066
1533.072	6042
1535.278	5906
1537.484	6038
1539.687	6075
1541.892	6102
1544.096	6061
1546.299	5948
1548.502	6084
1550.703	6018
1552.905	6051
1555.104	6096
1557.303	6127
1559.505	6069
1561.703	6079
1563.902	5998
1566.099	6104
1568.295	6171
1570.494	6102
1572.689	6224
1574.883	6136
1577.079	6189
1579.272	6158
1581.467	6137
1583.659	6204
1585.853	6159
1588.044	6269
1590.234	6296
1592.424	6258
1594.615	6197
1596.806	6283
1598.994	6299
1601.182	6189
1603.369	6204
1605.557	6296
1607.744	6256
1609.929	6168
1612.114	6296
1614.298	6085
1616.482	6280
1618.667	6217
1620.85	6360
1623.032	6394
1625.214	6264
1627.395	6410
1629.575	6311
1631.755	6239
1633.935	6347
1636.114	6258
1638.292	6270
1640.471	6319
1642.647	6288
1644.823	6397
1647	6261
1649.175	6428
1651.348	6276
1653.525	6387
1655.698	6273
1657.87	6388
1660.043	6309
1662.213	6363
1664.387	6378
1666.558	6399
1668.727	6390
1670.896	6529
1673.064	6300
1675.233	6366
1677.401	6435
1679.569	6345
1681.735	6456
1683.902	6348
1686.066	6306
1688.233	6414
1690.397	6197
1692.559	6294
1694.723	6263
1696.885	6144
1699.048	6259
1701.21	6256
1703.37	6212
1705.53	6313
1707.689	6289
1709.849	6319
1712.009	6284
1714.166	6302
1716.323	6263
1718.479	6295
1720.634	6246
1722.793	6253
1724.948	6276
1727.102	6236
1729.255	6311
1731.408	6262
1733.562	6136
1735.714	6190
1737.865	6299
1740.016	6226
1742.166	6266
1744.316	6397
1746.467	6310
1748.616	6229
1750.764	6312
1752.911	6282
1755.056	6319
1757.205	6259
1759.35	6356
1761.496	6262
1763.641	6234
1765.785	6277
1767.927	6312
1770.072	6367
1772.214	6455
1774.355	6201
1776.496	6439
1778.637	6390
1780.778	6315
1782.918	6405
1785.057	6397
1787.194	6343
1789.333	6431
1791.472	6348
1793.608	6301
1795.745	6340
1797.879	6314
1800.015	6364
1802.148	6373
1804.284	6464
1806.417	6313
1808.548	6360
1810.682	6398
1812.812	6365
1814.946	6406
1817.075	6375
1819.205	6346
1821.335	6292
1823.463	6473
1825.59	6388
1827.721	6291
1829.847	6316
1831.973	6292
1834.098	6307
1836.223	6361
1838.351	6325
1840.475	6196
1842.598	6343
1844.721	6297
1846.843	6269
1848.966	6319
1851.087	6421
1853.21	6202
1855.33	6236
1857.449	6276
1859.568	6318
1861.688	6403
1863.806	6260
1865.924	6376
1868.039	6298
1870.155	6333
1872.273	6326
1874.388	6315
1876.503	6286
1878.617	6280
1880.73	6381
1882.844	6303
1884.956	6328
1887.068	6460
1889.18	6254
1891.291	6400
1893.4	6388
1895.511	6344
1897.621	6413
1899.73	6425
1901.837	6372
1903.944	6522
1906.053	6434
1908.159	6366
1910.265	6462
1912.369	6561
1914.474	6367
1916.577	6366
1918.683	6484
1920.785	6291
1922.888	6420
1924.989	6430
1927.091	6267
1929.193	6464
1931.294	6468
1933.393	6438
1935.493	6378
1937.59	6480
1939.689	6503
1941.788	6415
1943.884	6537
1945.98	6477
1948.077	6319
1950.171	6421
1952.267	6536
1954.361	6398
1956.455	6372
1958.548	6328
1960.64	6477
1962.733	6463
1964.824	6529
1966.915	6505
1969.005	6545
1971.096	6485
1973.185	6438
1975.275	6483
1977.363	6411
1979.45	6520
1981.537	6424
1983.623	6388
1985.711	6385
1987.796	6378
1989.881	6424
1991.965	6424
1994.047	6506
1996.132	6369
1998.215	6293
2000.297	6370
2002.378	6460
2004.46	6407
2006.54	6404
2008.62	6367
2010.7	6376
2012.779	6459
2014.858	6348
2016.934	6402
2019.013	6324
2021.09	6250
2023.165	6314
2025.241	6396
2027.317	6378
2029.39	6423
2031.466	6349
2033.538	6359
2035.612	6397
2037.683	6476
2039.755	6337
2041.827	6272
2043.898	6397
2045.968	6411
2048.038	6489
2050.106	6470
2052.177	6362
2054.244	6401
2056.313	6394
2058.379	6493
2060.444	6464
2062.511	6338
2064.577	6374
2066.641	6447
2068.705	6454
2070.77	6536
2072.832	6432
2074.896	6342
2076.958	6408
2079.02	6492
2081.081	6351
2083.141	6411
2085.2	6474
2087.261	6531
2089.319	6356
2091.377	6423
2093.435	6445
2095.492	6361
2097.552	6407
2099.607	6492
2101.663	6463
2103.718	6400
2105.771	6507
2107.826	6444
2109.879	6422
2111.932	6428
2113.985	6354
2116.037	6483
2118.088	6550
2120.141	6497
2122.191	6490
2124.239	6462
2126.288	6345
2128.337	6433
2130.387	6353
2132.434	6362
2134.481	6461
2136.528	6490
2138.574	6447
2140.618	6429
2142.665	6455
2144.71	6461
2146.753	6287
2148.797	6368
2150.838	6500
2152.883	6437
2154.923	6385
2156.965	6471
2159.007	6363
2161.046	6292
2163.086	6464
2165.126	6478
2167.163	6322
2169.202	6346
2171.239	6335
2173.277	6378
2175.314	6373
2177.349	6421
2179.385	6389
2181.42	6276
2183.453	6277
2185.49	6293
2187.522	6289
2189.555	6322
2191.586	6281
2193.619	6399
2195.651	6423
2197.682	6206
2199.711	6161
2201.74	6266
2203.769	6334
2205.799	6277
2207.828	6207
2209.855	6327
2211.882	6214
2213.908	6289
2215.934	6448
2217.961	6302
2219.986	6320
2222.01	6300
2224.034	6293
2226.057	6220
2228.08	6340
2230.104	6202
2232.124	6355
2234.145	6220
2236.166	6315
2238.186	6315
2240.207	6240
2242.227	6212
2244.244	6233
2246.262	6324
2248.28	6235
2250.299	6315
2252.314	6282
2254.33	6309
2256.346	6312
2258.36	6362
2260.375	6265
2262.391	6126
2264.403	6371
2266.416	6336
2268.427	6342
2270.44	6391
2272.453	6328
2274.463	6468
2276.474	6310
2278.483	6192
2280.493	6301
2282.501	6215
2284.51	6284
2286.518	6374
2288.524	6212
2290.532	6375
2292.537	6239
2294.544	6238
2296.55	6294
2298.554	6330
2300.557	6335
2302.562	6307
2304.566	6174
2306.568	6256
2308.569	6279
2310.572	6375
2312.573	6318
2314.573	6350
2316.574	6297
2318.573	6226
2320.571	6355
2322.571	6332
2324.569	6239
2326.567	6337
2328.564	6310
2330.56	6310
2332.556	6338
2334.551	6164
2336.546	6311
2338.542	6213
2340.535	6156
2342.529	6217
2344.521	6292
2346.512	6350
2348.505	6269
2350.497	6085
2352.487	6252
2354.478	6273
2356.468	6171
2358.457	6136
2360.446	6162
2362.434	6249
2364.422	6115
2366.408	6302
2368.395	6271
2370.383	6165
2372.369	6174
2374.353	6288
2376.338	6163
2378.321	6268
2380.307	6267
2382.29	6066
2384.272	6199
2386.254	6171
2388.235	6093
2390.218	6145
2392.198	6120
2394.179	6157
2396.157	6207
2398.137	6112
2400.115	6107
2402.095	6162
2404.072	6121
2406.048	6085
2408.026	6125
2410.001	5994
2411.977	6168
2413.953	6092
2415.927	6231
2417.9	6147
2419.875	6182
2421.847	6094
2423.821	6013
2425.792	6158
2427.763	6093
2429.736	6030
2431.706	6118
2433.677	6082
2435.646	6149
2437.615	6123
2439.583	6168
2441.551	6091
2443.519	6114
2445.486	6026
2447.452	6225
2449.418	6051
2451.383	6152
2453.348	6184
2455.314	6084
2457.278	6049
2459.241	6199
2461.205	6156
2463.167	6131
2465.131	6105
2467.091	6060
2469.052	6043
2471.012	5979
2472.972	6107
2474.932	6073
2476.891	6035
2478.85	6100
2480.808	6067
2482.766	6115
2484.722	6136
2486.68	6062
2488.636	6065
2490.591	5928
2492.546	6074
2494.5	6003
2496.456	6036
2498.41	6011
2500.362	6024
2502.315	6079
2504.266	6015
2506.218	6113
2508.169	6054
2510.121	5966
2512.07	6118
2514.019	6008
2515.968	6068
2517.918	5984
2519.866	5983
2521.813	5980
2523.76	5975
2525.707	6016
2527.653	6044
2529.599	6072
2531.543	6041
2533.489	6097
2535.433	6108
2537.376	5927
2539.32	6066
2541.264	6042
2543.205	6036
2545.147	6143
2547.087	6008
2549.029	5969
2550.969	6095
2552.908	6067
2554.847	6072
2556.786	6097
2558.724	5964
2560.663	5956
2562.6	5941
2564.537	5974
2566.473	6042
2568.408	5994
2570.345	5955
2572.28	6045
2574.214	6064
2576.148	5931
2578.081	6095
2580.014	6063
2581.947	5973
2583.879	6038
2585.81	6078
2587.741	6034
2589.67	6011
2591.602	6081
2593.532	6013
2595.461	6032
2597.388	6056
2599.316	6106
2601.244	6004
2603.172	6171
2605.098	6020
2607.023	6120
2608.949	6038
2610.873	6013
2612.8	6122
2614.723	6047
2616.647	6099
2618.569	5905
2620.493	5975
2622.416	6077
2624.338	5916
2626.258	6089
2628.179	6006
2630.099	6047
2632.019	6044
2633.939	6066
2635.857	5966
2637.775	6036
2639.694	6013
2641.61	6013
2643.528	5946
2645.444	6031
2647.361	5977
2649.276	6058
2651.19	6086
2653.105	5978
2655.019	6084
2656.934	6078
2658.846	6100
2660.758	6071
2662.67	6005
2664.583	6009
2666.493	5979
2668.404	6088
2670.313	6095
2672.223	6093
2674.134	6144
2676.042	6044
2677.95	6048
2679.858	6062
2681.765	5944
2683.673	6100
2685.579	6014
2687.483	6159
2689.389	5991
2691.294	6029
2693.198	5950
2695.104	6056
2697.006	6095
2698.909	5896
2700.811	5978
2702.713	6050
2704.615	6046
2706.516	6010
2708.417	6005
2710.316	6006
2712.216	5938
2714.115	6002
2716.014	5907
2717.913	5932
2719.81	5974
2721.707	6006
2723.603	5975
2725.501	5831
2727.396	6010
2729.292	5938
2731.186	5910
2733.081	5989
2734.976	5917
2736.87	6030
2738.762	5948
2740.653	5892
2742.546	5990
2744.437	5952
2746.329	6042
2748.22	6065
2750.11	5965
2751.999	5986
2753.889	5911
2755.778	6018
2757.666	5959
2759.553	5962
2761.44	5841
2763.328	5985
2765.215	5855
2767.101	5860
2768.986	5854
2770.87	5946
2772.754	5934
2774.638	5906
2776.523	5854
2778.405	5883
2780.288	5842
2782.17	5861
2784.051	5915
2785.934	5906
2787.814	5945
2789.694	5909
2791.574	6023
2793.453	5804
2795.332	5915
2797.212	5722
2799.088	5925
2800.966	5875
2802.843	5829
2804.719	5879
2806.597	5911
2808.471	5869
2810.346	5831
2812.221	5836
2814.094	5912
2815.969	5951
2817.843	5819
2819.714	5903
2821.587	5768
2823.459	5880
2825.329	5806
2827.202	5894
2829.072	5781
2830.942	5864
2832.811	5921
2834.68	5912
2836.549	5825
2838.418	5900
2840.284	5796
2842.152	5780
2844.018	5786
2845.885	5776
2847.751	5913
2849.616	5881
2851.482	5826
2853.345	5895
2855.208	5921
2857.074	5938
2858.937	5952
2860.799	5862
2862.66	5900
2864.522	5955
2866.385	5968
2868.245	6072
2870.104	6026
2871.964	6012
2873.824	6061
2875.683	6101
2877.542	6104
2879.4	6156
2881.257	6061
2883.114	6195
2884.97	6289
2886.827	6152
2888.683	6087
2890.537	6178
2892.392	6179
2894.246	6063
2896.1	6130
2897.954	6246
2899.807	6197
2901.66	6090
2903.51	6117
2905.362	6172
2907.214	6191
2909.065	6267
2910.915	6183
2912.765	6177
2914.613	6215
2916.463	6221
2918.311	6256
2920.158	6388
2922.006	6325
2923.853	6370
2925.698	6539
2927.546	6536
2929.392	6549
2931.236	6693
2933.081	6519
2934.924	6633
2936.77	6555
2938.613	6562
2940.455	6751
2942.298	6665
2944.139	6729
2945.982	6728
2947.823	6642
2949.662	6631
2951.503	6758
2953.342	6607
2955.182	6472
2957.021	6471
2958.858	6406
2960.697	6342
2962.534	6516
2964.37	6426
2966.207	6327
2968.044	6325
2969.879	6326
2971.714	6303
2973.548	6256
2975.383	6093
2977.218	6152
2979.051	6302
2980.883	6280
2982.715	6252
2984.547	6195
2986.379	6084
2988.21	6119
2990.04	6185
2991.87	6065
2993.7	6090
2995.53	6077
2997.359	6072
2999.187	5916
3001.015	5887
3002.842	5861
3004.669	6002
3006.497	5876
3008.323	5906
3010.148	5742
3011.974	5818
3013.797	5840
3015.623	5707
3017.447	5761
3019.27	5640
3021.094	5709
3022.915	5676
3024.737	5546
3026.56	5705
3028.38	5745
3030.201	5648
3032.022	5644
3033.84	5569
3035.662	5652
3037.481	5648
3039.298	5640
3041.117	5574
3042.933	5602
3044.752	5644
3046.568	5544
3048.385	5563
3050.2	5559
3052.016	5636
3053.83	5577
3055.646	5678
3057.46	5585
3059.272	5666
3061.086	5612
3062.898	5596
3064.711	5674
3066.524	5713
3068.335	5524
3070.145	5559
3071.956	5550
3073.766	5660
3075.576	5535
3077.385	5500
3079.193	5508
3081.002	5542
3082.81	5480
3084.618	5472
3086.425	5491
3088.231	5518
3090.036	5375
3091.842	5471
3093.648	5501
3095.452	5505
3097.257	5496
3099.06	5527
3100.863	5442
3102.666	5378
3104.47	5466
3106.272	5540
3108.073	5490
3109.875	5452
3111.676	5430
3113.477	5457
3115.277	5401
3117.077	5419
3118.874	5416
3120.673	5386
3122.473	5379
3124.271	5415
3126.066	5337
3127.863	5349
3129.66	5424
3131.456	5335
3133.252	5444
3135.047	5392
3136.842	5350
3138.635	5430
3140.429	5428
3142.223	5283
3144.016	5390
3145.808	5344
3147.6	5288
3149.392	5370
3151.183	5337
3152.975	5268
3154.765	5340
3156.553	5383
3158.344	5262
3160.132	5323
3161.922	5335
3163.71	5309
3165.497	5368
3167.285	5227
3169.071	5267
3170.858	5305
3172.645	5360
3174.429	5319
3176.214	5323
3177.998	5248
3179.783	5292
3181.568	5252
3183.351	5263
3185.133	5151
3186.915	5158
3188.698	5299
3190.481	5289
3192.261	5108
3194.042	5271
3195.822	5149
3197.601	5278
3199.381	5261
3201.161	5320
3202.939	5282
3204.717	5163
3206.495	5255
3208.272	5163
3210.05	5123
3211.826	5288
3213.602	5237
3215.376	5214
3217.151	5224
3218.927	5252
3220.702	5083
3222.476	5290
3224.249	5148
3226.021	5154
3227.793	5151
3229.567	5205
3231.339	5134
3233.109	5261
3234.88	5199
3236.651	5229
3238.421	5207
3240.191	5254
3241.96	5186
3243.728	5370
3245.497	5155
3247.263	5248
3249.033	5266
3250.799	5057
3252.566	5150
3254.331	5277
3256.097	5141
3257.863	5171
3259.628	5214
3261.392	5204
3263.156	5111
3264.919	5123
3266.683	5160
3268.447	5237
3270.208	5214
3271.969	5226
3273.731	5176
3275.492	5182
3277.253	5181
3279.013	5246
3280.773	5192
3282.532	5156
3284.291	5139
3286.05	5226
3287.808	5236
3289.566	5250
3291.323	5206
3293.079	5223
3294.835	5263
3296.593	5202
3298.348	5221
3300.102	5231
3301.857	5223
3303.611	5155
3305.366	5027
3307.119	5207
3308.872	5117
3310.624	5229
3312.376	5155
3314.129	5170
3315.881	5153
3317.631	5158
3319.38	5119
3321.13	5329
3322.88	5167
3324.631	5157
3326.379	5204
3328.126	5261
3329.875	5134
3331.622	5091
3333.371	5125
3335.116	5152
3336.863	5241
3338.609	5138
3340.353	5189
3342.1	5219
3343.845	5165
3345.588	5102
3347.332	5262
3349.074	5063
3350.817	5197
3352.56	5193
3354.303	5038
3356.043	5129
3357.785	5184
3359.525	5133
3361.268	5065
3363.007	5131
3364.745	5105
3366.485	5117
3368.223	5117
3369.962	5107
3371.701	5082
3373.438	5029
3375.174	5096
3376.911	5046
3378.647	5180
3380.384	5091
3382.118	4988
3383.854	5107
3385.588	5015
3387.322	5059
3389.057	5078
3390.79	5089
3392.522	5051
3394.255	5062
3395.987	5011
3397.719	5077
3399.451	5055
3401.181	5065
3402.911	5082
3404.641	5085
3406.371	5041
3408.101	5031
3409.83	5017
3411.558	4992
3413.285	5016
3415.011	5022
3416.739	4969
3418.467	5004
3420.193	4996
3421.919	5063
3423.644	5105
3425.368	4942
3427.094	4949
3428.818	4908
3430.542	5049
3432.264	4928
3433.987	5037
3435.712	4975
3437.434	4899
3439.155	4843
3440.876	5018
3442.596	4940
3444.317	4978
3446.039	4981
3447.757	4903
3449.477	4936
3451.195	4895
3452.914	4818
3454.632	4972
3456.35	4846
3458.067	4896
3459.784	4944
3461.5	4898
3463.216	4869
3464.932	4898
3466.647	4821
3468.362	4861
3470.076	4828
3471.789	4815
3473.505	4853
3475.217	4832
3476.929	4886
3478.641	4797
3480.354	4876
3482.066	4796
3483.777	4796
3485.487	4773
3487.197	4798
3488.908	4792
3490.617	4802
3492.327	4820
3494.035	4706
3495.743	4852
3497.451	4713
3499.158	4737
3500.866	4680
3502.572	4757
3504.278	4818
3505.984	4781
3507.689	4722
3509.396	4784
3511.1	4705
3512.804	4728
3514.508	4740
3516.211	4650
3517.913	4683
3519.616	4745
3521.319	4657
3523.021	4680
3524.722	4724
3526.422	4726
3528.124	4639
3529.824	4707
3531.524	4642
3533.222	4627
3534.921	4611
3536.62	4628
3538.318	4630
3540.016	4673
3541.714	4627
3543.41	4732
3545.107	4669
3546.803	4576
3548.5	4643
3550.194	4567
3551.889	4676
3553.583	4593
3555.279	4636
3556.972	4579
3558.666	4560
3560.358	4592
3562.051	4611
3563.742	4628
3565.435	4566
3567.126	4592
3568.817	4597
3570.507	4540
3572.197	4593
3573.888	4556
3575.577	4589
3577.265	4552
3578.954	4586
3580.642	4656
3582.329	4535
3584.017	4519
3585.704	4561
3587.391	4520
3589.077	4517
3590.762	4584
3592.449	4682
3594.133	4542
3595.817	4547
3597.501	4600
3599.185	4463
3600.869	4536
3602.552	4457
3604.234	4568
3605.916	4507
3607.598	4407
3609.279	4500
3610.961	4474
3612.642	4486
3614.321	4357
3616	4500
3617.68	4408
3619.36	4454
3621.039	4422
3622.716	4424
3624.394	4451
3626.071	4389
3627.748	4366
3629.425	4395
3631.102	4474
3632.778	4281
3634.452	4319
3636.127	4426
3637.803	4311
3639.477	4398
3641.151	4384
3642.823	4320
3644.497	4325
3646.171	4403
3647.842	4355
3649.515	4336
3651.185	4322
3652.857	4311
3654.527	4378
3656.198	4389
3657.868	4301
3659.537	4399
3661.207	4294
3662.875	4307
3664.544	4269
3666.212	4305
3667.879	4335
3669.546	4336
3671.212	4356
3672.88	4297
3674.546	4277
3676.211	4305
3677.875	4339
3679.541	4229
3681.205	4372
3682.87	4419
3684.533	4314
3686.196	4237
3687.859	4332
3689.521	4345
3691.184	4339
3692.845	4243
3694.507	4260
3696.167	4360
3697.827	4257
3699.487	4229
3701.148	4175
3702.808	4295
3704.466	4183
3706.125	4228
3707.783	4303
3709.442	4095
3711.099	4233
3712.757	4218
3714.412	4144
3716.068	4179
3717.725	4170
3719.381	4125
3721.036	4238
3722.689	4214
3724.344	4275
3725.998	4251
3727.652	4144
3729.305	4186
3730.958	4237
3732.61	4193
3734.262	4161
3735.915	4106
3737.565	4114
3739.217	4218
3740.866	4073
3742.516	4280
3744.165	4215
3745.816	4133
3747.464	4153
3749.113	4168
3750.761	4217
3752.409	4229
3754.057	4216
3755.703	4182
3757.35	4159
3758.996	4082
3760.641	4209
3762.289	4099
3763.933	4129
3765.577	4127
3767.222	4118
3768.865	4142
3770.508	4167
3772.152	4197
3773.796	4190
3775.438	4113
3777.079	4132
3778.721	4170
3780.363	4164
3782.003	4099
3783.643	4041
3785.283	4029
3786.923	4051
3788.563	4171
3790.203	4096
3791.841	4181
3793.479	4042
3795.115	4156
3796.753	4080
3798.391	4001
3800.027	4107
3801.664	4138
3803.299	4017
3804.935	4071
3806.571	4032
3808.206	3998
3809.839	4024
3811.473	3965
3813.107	3971
3814.74	4133
3816.375	4027
3818.006	4086
3819.638	3979
3821.27	4075
3822.9	3949
3824.532	4062
3826.163	4028
3827.792	3947
3829.423	3945
3831.051	3987
3832.682	3985
3834.311	3904
3835.938	3984
3837.566	3966
3839.193	3980
3840.821	3981
3842.448	4040
3844.075	4010
3845.7	3922
3847.325	4018
3848.951	3951
3850.576	3966
3852.201	3922
3853.825	3938
3855.448	3908
3857.072	3976
3858.694	3994
3860.318	3874
3861.939	3906
3863.562	3987
3865.183	3923
3866.804	3890
3868.426	3919
3870.045	3942
3871.666	3934
3873.285	3865
3874.904	3885
3876.524	3853
3878.142	3909
3879.76	3924
3881.378	3886
3882.995	3939
3884.612	3801
3886.229	3903
3887.845	3821
3889.461	3841
3891.076	3841
3892.691	3873
3894.307	3825
3895.922	3920
3897.536	3942
3899.149	3892
3900.761	3835
3902.374	3866
3903.988	3871
3905.6	3914
3907.212	3861
3908.822	3738
3910.433	3881
3912.045	3840
3913.655	3846
3915.265	3866
3916.875	3879
3918.483	3809
3920.093	3846
3921.702	3850
3923.309	3778
3924.917	3861
3926.523	3826
3928.13	3887
3929.739	3845
3931.344	3780
3932.95	3813
3934.555	3715
3936.159	3897
3937.766	3773
3939.369	3814
3940.974	3824
3942.577	3754
3944.181	3821
3945.783	3858
3947.386	3756
3948.989	3767
3950.59	3793
3952.191	3769
3953.791	3741
3955.394	3755
3956.994	3797
3958.593	3765
3960.192	3825
3961.791	3780
3963.392	3786
3964.99	3757
3966.588	3697
3968.185	3739
3969.782	3609
3971.379	3753
3972.976	3781
3974.572	3678
3976.168	3778
3977.763	3770
3979.358	3736
3980.954	3714
3982.548	3738
3984.142	3736
3985.736	3728
3987.329	3684
3988.922	3764
3990.516	3746
3992.108	3655
3993.698	3677
3995.29	3720
3996.881	3637
3998.473	3638
4000.064	3629
4001.653	3641
4003.242	3589
4004.832	3618
4006.422	3636
4008.01	3649
4009.598	3638
4011.186	3660
4012.773	3646
4014.36	3550
4015.947	3584
4017.534	3623
4019.119	3573
4020.705	3631
4022.291	3561
4023.876	3563
4025.461	3606
4027.044	3566
4028.627	3597
4030.211	3529
4031.795	3625
4033.378	3535
4034.96	3644
4036.542	3654
4038.124	3550
4039.704	3521
4041.286	3563
4042.867	3569
4044.447	3588
4046.026	3523
4047.606	3597
4049.187	3493
4050.765	3651
4052.343	3544
4053.92	3481
4055.498	3596
4057.076	3429
4058.654	3474
4060.23	3506
4061.806	3476
4063.381	3558
4064.957	3453
4066.533	3467
4068.107	3499
4069.682	3550
4071.256	3504
4072.829	3489
4074.404	3502
4075.977	3484
4077.549	3414
4079.121	3498
4080.693	3453
4082.265	3457
4083.836	3468
4085.407	3492
4086.977	3506
4088.547	3534
4090.117	3488
4091.687	3523
4093.256	3512
4094.825	3320
4096.392	3430
4097.96	3426
4099.528	3431
4101.097	3382
4102.663	3470
4104.229	3465
4105.795	3482
4107.361	3430
4108.928	3456
4110.493	3464
4112.058	3416
4113.621	3378
4115.186	3395
4116.75	3431
4118.313	3337
4119.876	3395
4121.438	3443
4123	3338
4124.562	3381
4126.125	3386
4127.686	3411
4129.246	3400
4130.807	3448
4132.367	3401
4133.927	3357
4135.486	3371
4137.046	3397
4138.604	3353
4140.162	3329
4141.72	3345
4143.279	3337
4144.836	3308
4146.393	3311
4147.949	3327
4149.505	3337
4151.062	3280
4152.617	3350
4154.172	3277
4155.727	3269
4157.281	3342
4158.836	3322
4160.39	3259
4161.943	3242
4163.496	3359
4165.048	3271
4166.601	3331
4168.154	3287
4169.706	3300
4171.257	3378
4172.808	3272
4174.358	3298
4175.909	3210
4177.458	3296
4179.008	3226
4180.558	3332
4182.106	3264
4183.655	3199
4185.204	3209
4186.751	3233
4188.298	3261
4189.845	3210
4191.392	3267
4192.939	3230
4194.485	3195
4196.031	3160
4197.576	3230
4199.121	3274
4200.666	3250
4202.211	3150
4203.754	3243
4205.298	3178
4206.84	3281
4208.384	3224
4209.927	3216
4211.47	3236
4213.011	3171
4214.552	3210
4216.094	3180
4217.635	3177
4219.175	3173
4220.716	3242
4222.255	3154
4223.793	3179
4225.335	3205
4226.873	3164
4228.411	3141
4229.948	3222
4231.486	3225
4233.024	3170
4234.562	3199
4236.098	3152
4237.634	3102
4239.169	3129
4240.705	3181
4242.241	3208
4243.776	3131
4245.31	3124
4246.844	3099
4248.378	3179
4249.911	3162
4251.445	3132
4252.978	3094
4254.51	3075
4256.042	3093
4257.574	3152
4259.107	3131
4260.638	3122
4262.169	3121
4263.699	3201
4265.228	3170
4266.759	3155
4268.289	3124
4269.818	3072
4271.345	3149
4272.874	3091
4274.402	3023
4275.931	3140
4277.458	3054
4278.985	3091
4280.512	3089
4282.037	3079
4283.564	3081
4285.089	3059
4286.615	3073
4288.139	3056
4289.664	3066
4291.187	3134
4292.712	3048
4294.235	3107
4295.759	3062
4297.281	3038
4298.804	3060
4300.327	3058
4301.849	3091
4303.37	3111
4304.891	3096
4306.412	3075
4307.933	3081
4309.453	3024
4310.973	2976
4312.492	2968
