398.1873	2678
400.7097	2631
403.2336	2584
405.7547	2665
408.2751	2604
410.7948	2666
413.3138	2689
415.83	2675
418.3497	2695
420.8666	2722
423.3829	2762
425.8985	2807
428.4133	2782
430.9275	2808
433.441	2862
435.9538	2825
438.4639	2791
440.9753	2853
443.4881	2836
445.9982	2810
448.5055	2784
451.0142	2812
453.5201	2684
456.0274	2835
458.5361	2781
461.04	2770
463.5453	2737
466.0478	2736
468.5517	2780
471.0549	2779
473.5574	2775
476.0572	2745
478.5584	2759
481.0568	2894
483.5545	2747
486.0557	2888
488.5521	2798
491.0478	2854
493.5449	2794
496.0392	2857
498.5349	2826
501.0299	2766
503.5222	2858
506.0139	2815
508.5048	2832
510.9991	2856
513.4887	2914
515.9777	2888
518.4659	2871
520.9534	2792
523.4403	2911
525.9306	2866
528.4161	2920
530.9009	2877
533.3851	2964
535.8687	2910
538.3535	2923
540.8356	2835
543.3171	2839
545.7979	2828
548.278	2834
550.7595	2849
553.2383	2858
555.7144	2946
558.1918	2856
560.6685	2929
563.1446	2917
565.6221	2980
568.0968	2929
570.5688	3010
573.0422	2933
575.515	2964
577.989	2941
580.4584	3003
582.9291	3010
585.3991	2937
587.8685	2910
590.3352	3026
592.8052	2964
595.2706	3010
597.7372	3006
600.2033	2886
602.6666	2948
605.1334	3027
607.5953	2922
610.0587	3019
612.5193	2963
614.9814	2924
617.4427	2945
619.9034	2946
622.3615	2958
624.8208	2933
627.2775	2941
629.7335	2963
632.1929	2843
634.6476	2937
637.1016	2938
639.5569	2958
642.0096	2904
644.4637	2971
646.9151	2964
649.3678	2914
651.8179	2952
654.2672	3086
656.7159	2951
659.166	2933
661.6154	3029
664.0622	2992
666.5082	3103
668.9537	2966
671.4005	3075
673.8445	2965
676.288	3040
678.7308	2981
681.1729	3064
683.6163	3070
686.0572	3008
688.4973	3111
690.9368	3083
693.3757	3044
695.8138	3050
698.2534	3084
700.6902	3090
703.1245	3028
705.56	3020
707.9949	3046
710.4311	3081
712.8647	3048
715.2957	3069
717.7279	3066
720.1595	3069
722.5905	3162
725.0208	3133
727.4505	3121
729.8795	3099
732.3058	3229
734.7336	3217
737.1626	3107
739.587	3178
742.0128	3262
744.4359	3129
746.8604	3253
749.2841	3232
751.7073	3275
754.1278	3205
756.5496	3212
758.9688	3272
761.3893	3244
763.8093	3255
766.2285	3196
768.6451	3242
771.0611	3219
773.4784	3245
775.895	3294
778.3091	3215
780.7244	3236
783.1371	3228
785.5493	3206
787.9626	3208
790.3754	3203
792.7856	3261
795.1951	3328
797.6039	3265
800.0121	3309
802.4236	3282
804.8306	3269
807.2369	3245
809.6425	3300
812.0475	3295
814.4538	3351
816.8575	3289
819.2606	3325
821.663	3308
824.0648	3312
826.4659	3303
828.8683	3322
831.2682	3316
833.6674	3356
836.066	3295
838.4639	3364
840.8632	3280
843.2579	3337
845.6539	3374
848.0493	3319
850.444	3300
852.84	3344
855.2315	3372
857.6243	3313
860.0165	3322
862.4081	3303
864.797	3338
867.1892	3324
869.5789	3421
871.9659	3334
874.3542	3426
876.74	3303
879.129	3338
881.5155	3328
883.8994	3313
886.2845	3290
888.6671	3362
891.051	3323
893.4343	3320
895.8169	3305
898.197	3392
900.5783	3417
902.9571	3343
905.3372	3376
907.7167	3371
910.0936	3382
912.4698	3364
914.8474	3416
917.2244	3440
919.5987	3538
921.9744	3520
924.3475	3513
926.72	3473
929.0918	3458
931.4669	3474
933.8375	3530
936.2074	3438
938.5767	3575
940.9454	3577
943.3154	3618
945.6829	3690
948.0497	3768
950.4178	3802
952.7833	4017
955.1483	4074
957.5145	4195
959.8782	4332
962.2412	4224
964.6036	4119
966.9655	4044
969.3266	3870
971.6871	3833
974.0471	3669
976.4064	3553
978.765	3583
981.125	3525
983.4824	3395
985.8373	3530
988.1935	3464
990.549	3436
992.9039	3472
995.2602	3537
997.6119	3475
999.965	3486
1002.317	3522
1004.667	3519
1007.02	3493
1009.371	3382
1011.719	3539
1014.068	3487
1016.415	3479
1018.765	3512
1021.111	3471
1023.458	3498
1025.804	3561
1028.147	3534
1030.49	3522
1032.837	3517
1035.179	3593
1037.522	3514
1039.862	3627
1042.204	3582
1044.546	3584
1046.884	3568
1049.224	3545
1051.562	3577
1053.899	3543
1056.237	3616
1058.575	3603
1060.91	3543
1063.244	3524
1065.58	3600
1067.913	3630
1070.248	3607
1072.579	3687
1074.911	3607
1077.242	3627
1079.572	3635
1081.905	3681
1084.234	3652
1086.562	3624
1088.89	3631
1091.217	3520
1093.544	3571
1095.871	3552
1098.197	3550
1100.521	3577
1102.845	3584
1105.169	3563
1107.491	3604
1109.814	3596
1112.135	3552
1114.456	3588
1116.776	3526
1119.096	3639
1121.415	3567
1123.734	3564
1126.052	3595
1128.369	3580
1130.686	3623
1133.002	3627
1135.318	3522
1137.632	3598
1139.945	3644
1142.258	3633
1144.573	3600
1146.884	3600
1149.196	3578
1151.505	3516
1153.816	3561
1156.124	3600
1158.435	3625
1160.742	3586
1163.051	3619
1165.356	3587
1167.663	3560
1169.97	3622
1172.276	3546
1174.579	3721
1176.881	3551
1179.186	3595
1181.487	3621
1183.79	3613
1186.092	3549
1188.392	3604
1190.691	3567
1192.991	3549
1195.291	3533
1197.588	3673
1199.885	3615
1202.181	3584
1204.479	3684
1206.775	3612
1209.07	3641
1211.363	3582
1213.656	3586
1215.949	3650
1218.241	3602
1220.534	3619
1222.825	3668
1225.115	3723
1227.405	3735
1229.693	3651
1231.984	3780
1234.271	3742
1236.558	3699
1238.845	3835
1241.131	3738
1243.416	3736
1245.703	3756
1247.987	3793
1250.269	3669
1252.552	3790
1254.834	3736
1257.118	3761
1259.399	3794
1261.678	3782
1263.958	3662
1266.237	3801
1268.516	3821
1270.794	3678
1273.072	3814
1275.347	3698
1277.624	3739
1279.899	3744
1282.175	3777
1284.449	3742
1286.722	3789
1288.995	3666
1291.266	3683
1293.54	3696
1295.81	3785
1298.081	3744
1300.35	3779
1302.62	3683
1304.889	3739
1307.156	3742
1309.425	3783
1311.69	3796
1313.957	3694
1316.222	3773
1318.488	3659
1320.751	3776
1323.016	3790
1325.278	3709
1327.54	3793
1329.803	3732
1332.065	3717
1334.325	3784
1336.584	3708
1338.843	3786
1341.101	3670
1343.36	3724
1345.617	3753
1347.876	3759
1350.131	3769
1352.387	3731
1354.643	3788
1356.897	3772
1359.151	3785
1361.403	3834
1363.656	3692
1365.909	3794
1368.16	3836
1370.409	3806
1372.659	3771
1374.909	3775
1377.157	3798
1379.407	3838
1381.655	3758
1383.9	3885
1386.147	3823
1388.393	3928
1390.64	3736
1392.885	3834
1395.127	3875
1397.37	3821
1399.614	3854
1401.854	3826
1404.098	3837
1406.339	3818
1408.578	3913
1410.818	3845
1413.056	3777
1415.297	3823
1417.533	3789
1419.771	3842
1422.006	3937
1424.243	3836
1426.479	3865
1428.715	3874
1430.948	3977
1433.182	3878
1435.414	3914
1437.647	3953
1439.88	3888
1442.11	3882
1444.342	3891
1446.571	3985
1448.799	3927
1451.029	3981
1453.258	3989
1455.485	3987
1457.711	3987
1459.937	3921
1462.164	3936
1464.39	3959
1466.614	4036
1468.838	3899
1471.06	3919
1473.283	3924
1475.506	4014
1477.727	3889
1479.949	3799
1482.169	3847
1484.389	3790
1486.609	3855
1488.828	3943
1491.045	3844
1493.261	3844
1495.477	3755
1497.693	3831
1499.91	3748
1502.125	3804
1504.339	3767
1506.553	3823
1508.766	3844
1510.979	3782
1513.191	3863
1515.402	3878
1517.613	3814
1519.823	3794
1522.033	3856
1524.242	3809
1526.451	3850
1528.657	3858
1530.865	3832
1533.072	3800
1535.278	3779
1537.484	3791
1539.687	3863
1541.892	3823
1544.096	3868
1546.299	3735
1548.502	3952
1550.703	3803
1552.905	3830
1555.104	3895
1557.303	3797
1559.505	3949
1561.703	3870
1563.902	3826
1566.099	3906
1568.295	3957
1570.494	3883
1572.689	3906
1574.883	3902
1577.079	4005
1579.272	4004
1581.467	3998
1583.659	3932
1585.853	3943
1588.044	3978
1590.234	3927
1592.424	4059
1594.615	3942
1596.806	3967
1598.994	3965
1601.182	3982
1603.369	4006
1605.557	3893
1607.744	4045
1609.929	3947
1612.114	3993
1614.298	3951
1616.482	3952
1618.667	3926
1620.85	4005
1623.032	3972
1625.214	3935
1627.395	4060
1629.575	3968
1631.755	3996
1633.935	3982
1636.114	4019
1638.292	4031
1640.471	3943
1642.647	4131
1644.823	3966
1647	3985
1649.175	3987
1651.348	3986
1653.525	3994
1655.698	4012
1657.87	4057
1660.043	4022
1662.213	3971
1664.387	4051
1666.558	3991
1668.727	4094
1670.896	4013
1673.064	3959
1675.233	4133
1677.401	4090
1679.569	4143
1681.735	4089
1683.902	4018
1686.066	3997
1688.233	4043
1690.397	4038
1692.559	3979
1694.723	3998
1696.885	4031
1699.048	4009
1701.21	4172
1703.37	4043
1705.53	4003
1707.689	3919
1709.849	3960
1712.009	4047
1714.166	3930
1716.323	4013
1718.479	4057
1720.634	3981
1722.793	3947
1724.948	3978
1727.102	4067
1729.255	4002
1731.408	4015
1733.562	4000
1735.714	3995
1737.865	3989
1740.016	3963
1742.166	4028
1744.316	4039
1746.467	4058
1748.616	4004
1750.764	3998
1752.911	4057
1755.056	4069
1757.205	3971
1759.35	3979
1761.496	4069
1763.641	4051
1765.785	4096
1767.927	4117
1770.072	3968
1772.214	4050
1774.355	4013
1776.496	4048
1778.637	4047
1780.778	4061
1782.918	4067
1785.057	4049
1787.194	4146
1789.333	4027
1791.472	4046
1793.608	4102
1795.745	4067
1797.879	4156
1800.015	4027
1802.148	4088
1804.284	4096
1806.417	4041
1808.548	4041
1810.682	4114
1812.812	4159
1814.946	4105
1817.075	4167
1819.205	4142
1821.335	4025
1823.463	4142
1825.59	4068
1827.721	4063
1829.847	4157
1831.973	4131
1834.098	4093
1836.223	4092
1838.351	4154
1840.475	4102
1842.598	4069
1844.721	4089
1846.843	3986
1848.966	4095
1851.087	4025
1853.21	3986
1855.33	4122
1857.449	4100
1859.568	4057
1861.688	4055
1863.806	4059
1865.924	4006
1868.039	4109
1870.155	4066
1872.273	4120
1874.388	4043
1876.503	4132
1878.617	4086
1880.73	4082
1882.844	4054
1884.956	4125
1887.068	4025
1889.18	4118
1891.291	4004
1893.4	4035
1895.511	4146
1897.621	4091
1899.73	4027
1901.837	4063
1903.944	4084
1906.053	4014
1908.159	4052
1910.265	4108
1912.369	4166
1914.474	4098
1916.577	4173
1918.683	4139
1920.785	4225
1922.888	4156
1924.989	4173
1927.091	4205
1929.193	4125
1931.294	4140
1933.393	4130
1935.493	4216
1937.59	4243
1939.689	4247
1941.788	4213
1943.884	4137
1945.98	4182
1948.077	4128
1950.171	4237
1952.267	4218
1954.361	4196
1956.455	4237
1958.548	4200
1960.64	4192
1962.733	4218
1964.824	4203
1966.915	4237
1969.005	4193
1971.096	4163
1973.185	4140
1975.275	4167
1977.363	4141
1979.45	4122
1981.537	4171
1983.623	4123
1985.711	4169
1987.796	4223
1989.881	4139
1991.965	4116
1994.047	4178
1996.132	4138
1998.215	4103
2000.297	4129
2002.378	4145
2004.46	4109
2006.54	4140
2008.62	4121
2010.7	4136
2012.779	4179
2014.858	4131
2016.934	4117
2019.013	4086
2021.09	4159
2023.165	4195
2025.241	4126
2027.317	4155
2029.39	4122
2031.466	4100
2033.538	4162
2035.612	4193
2037.683	4198
2039.755	4182
2041.827	4154
2043.898	4123
2045.968	4151
2048.038	4231
2050.106	4122
2052.177	4173
2054.244	4137
2056.313	4128
2058.379	4236
2060.444	4197
2062.511	4250
2064.577	4141
2066.641	4208
2068.705	4175
2070.77	4184
2072.832	4190
2074.896	4129
2076.958	4247
2079.02	4204
2081.081	4146
2083.141	4158
2085.2	4120
2087.261	4169
2089.319	4158
2091.377	4174
2093.435	4288
2095.492	4185
2097.552	4186
2099.607	4146
2101.663	4224
2103.718	4184
2105.771	4283
2107.826	4203
2109.879	4192
2111.932	4132
2113.985	4180
2116.037	4177
2118.088	4150
2120.141	4274
2122.191	4206
2124.239	4224
2126.288	4303
2128.337	4090
2130.387	4243
2132.434	4236
2134.481	4168
2136.528	4199
2138.574	4199
2140.618	4184
2142.665	4205
2144.71	4228
2146.753	4281
2148.797	4170
2150.838	4204
2152.883	4168
2154.923	4138
2156.965	4253
2159.007	4277
2161.046	4238
2163.086	4204
2165.126	4231
2167.163	4267
2169.202	4208
2171.239	4123
2173.277	4226
2175.314	4265
2177.349	4184
2179.385	4163
2181.42	4206
2183.453	4176
2185.49	4095
2187.522	4163
2189.555	4185
2191.586	4189
2193.619	4223
2195.651	4222
2197.682	4137
2199.711	4215
2201.74	4141
2203.769	4075
2205.799	4124
2207.828	4187
2209.855	4120
2211.882	4046
2213.908	4235
2215.934	4267
2217.961	4166
2219.986	4138
2222.01	4067
2224.034	4233
2226.057	4168
2228.08	4176
2230.104	4057
2232.124	4239
2234.145	4134
2236.166	4196
2238.186	4224
2240.207	4216
2242.227	4183
2244.244	4099
2246.262	4157
2248.28	4114
2250.299	4204
2252.314	4185
2254.33	4142
2256.346	4197
2258.36	4058
2260.375	4242
2262.391	4171
2264.403	4181
2266.416	4234
2268.427	4192
2270.44	4156
2272.453	4232
2274.463	4242
2276.474	4252
2278.483	4269
2280.493	4227
2282.501	4200
2284.51	4253
2286.518	4172
2288.524	4188
2290.532	4196
2292.537	4178
2294.544	4233
2296.55	4173
2298.554	4224
2300.557	4219
2302.562	4211
2304.566	4264
2306.568	4219
2308.569	4172
2310.572	4167
2312.573	4135
2314.573	4196
2316.574	4120
2318.573	4240
2320.571	4177
2322.571	4138
2324.569	4158
2326.567	4152
2328.564	4147
2330.56	4226
2332.556	4209
2334.551	4157
2336.546	4292
2338.542	4122
2340.535	4142
2342.529	4118
2344.521	4137
2346.512	4147
2348.505	4024
2350.497	4138
2352.487	4188
2354.478	4119
2356.468	4220
2358.457	4158
2360.446	4188
2362.434	4173
2364.422	4139
2366.408	4249
2368.395	4134
2370.383	4193
2372.369	4104
2374.353	4099
2376.338	4191
2378.321	4182
2380.307	4119
2382.29	4213
2384.272	4075
2386.254	4200
2388.235	4199
2390.218	4216
2392.198	4185
2394.179	4157
2396.157	4099
2398.137	4220
2400.115	4060
2402.095	4154
2404.072	4146
2406.048	4158
2408.026	4162
2410.001	4174
2411.977	4139
2413.953	4129
2415.927	4197
2417.9	4062
2419.875	4159
2421.847	4080
2423.821	4010
2425.792	4173
2427.763	4086
2429.736	4081
2431.706	4183
2433.677	4047
2435.646	4134
2437.615	4152
2439.583	4138
2441.551	4152
2443.519	4164
2445.486	4098
2447.452	4141
2449.418	4191
2451.383	4160
2453.348	4072
2455.314	4137
2457.278	4057
2459.241	4157
2461.205	4172
2463.167	4160
2465.131	4097
2467.091	4212
2469.052	4153
2471.012	4138
2472.972	4158
2474.932	4080
2476.891	4125
2478.85	4097
2480.808	4210
2482.766	4114
2484.722	4159
2486.68	4163
2488.636	4128
2490.591	4194
2492.546	4131
2494.5	4148
2496.456	4136
2498.41	4132
2500.362	4127
2502.315	4149
2504.266	4160
2506.218	4199
2508.169	4183
2510.121	4097
2512.07	4133
2514.019	4102
2515.968	4154
2517.918	4214
2519.866	4142
2521.813	4149
2523.76	4102
2525.707	4149
2527.653	4089
2529.599	4127
2531.543	4219
2533.489	4060
2535.433	4099
2537.376	4240
2539.32	4197
2541.264	4155
2543.205	4233
2545.147	4146
2547.087	4167
2549.029	4089
2550.969	4160
2552.908	4134
2554.847	4075
2556.786	4196
2558.724	4120
2560.663	4102
2562.6	4222
2564.537	4226
2566.473	4143
2568.408	4179
2570.345	4178
2572.28	4186
2574.214	4165
2576.148	4181
2578.081	4155
2580.014	4206
2581.947	4130
2583.879	4163
2585.81	4125
2587.741	4251
2589.67	4179
2591.602	4092
2593.532	4130
2595.461	4117
2597.388	4219
2599.316	4163
2601.244	4154
2603.172	4183
2605.098	4204
2607.023	4244
2608.949	4145
2610.873	4153
2612.8	4275
2614.723	4207
2616.647	4243
2618.569	4187
2620.493	4221
2622.416	4220
2624.338	4183
2626.258	4189
2628.179	4250
2630.099	4240
2632.019	4364
2633.939	4185
2635.857	4267
2637.775	4210
2639.694	4233
2641.61	4266
2643.528	4239
2645.444	4237
2647.361	4267
2649.276	4235
2651.19	4241
2653.105	4243
2655.019	4250
2656.934	4195
2658.846	4205
2660.758	4222
2662.67	4204
2664.583	4255
2666.493	4181
2668.404	4256
2670.313	4193
2672.223	4182
2674.134	4206
2676.042	4254
2677.95	4185
2679.858	4313
2681.765	4243
2683.673	4235
2685.579	4170
2687.483	4239
2689.389	4142
2691.294	4242
2693.198	4285
2695.104	4236
2697.006	4177
2698.909	4217
2700.811	4269
2702.713	4274
2704.615	4139
2706.516	4264
2708.417	4210
2710.316	4228
2712.216	4170
2714.115	4313
2716.014	4244
2717.913	4138
2719.81	4299
2721.707	4267
2723.603	4371
2725.501	4220
2727.396	4183
2729.292	4160
2731.186	4236
2733.081	4216
2734.976	4177
2736.87	4204
2738.762	4207
2740.653	4203
2742.546	4215
2744.437	4213
2746.329	4334
2748.22	4263
2750.11	4307
2751.999	4254
2753.889	4258
2755.778	4239
2757.666	4259
2759.553	4165
2761.44	4223
2763.328	4273
2765.215	4233
2767.101	4191
2768.986	4237
2770.87	4251
2772.754	4349
2774.638	4227
2776.523	4220
2778.405	4218
2780.288	4190
2782.17	4244
2784.051	4185
2785.934	4181
2787.814	4233
2789.694	4291
2791.574	4292
2793.453	4235
2795.332	4176
2797.212	4235
2799.088	4194
2800.966	4273
2802.843	4199
2804.719	4238
2806.597	4277
2808.471	4209
2810.346	4179
2812.221	4250
2814.094	4244
2815.969	4242
2817.843	4294
2819.714	4231
2821.587	4291
2823.459	4211
2825.329	4188
2827.202	4392
2829.072	4291
2830.942	4274
2832.811	4177
2834.68	4295
2836.549	4319
2838.418	4282
2840.284	4244
2842.152	4255
2844.018	4321
2845.885	4245
2847.751	4282
2849.616	4252
2851.482	4222
2853.345	4377
2855.208	4250
2857.074	4292
2858.937	4359
2860.799	4352
2862.66	4440
2864.522	4415
2866.385	4355
2868.245	4437
2870.104	4475
2871.964	4313
2873.824	4444
2875.683	4475
2877.542	4530
2879.4	4552
2881.257	4545
2883.114	4556
2884.97	4580
2886.827	4516
2888.683	4564
2890.537	4633
2892.392	4600
2894.246	4546
2896.1	4592
2897.954	4524
2899.807	4528
2901.66	4476
2903.51	4551
2905.362	4574
2907.214	4636
2909.065	4608
2910.915	4552
2912.765	4582
2914.613	4571
2916.463	4601
2918.311	4579
2920.158	4687
2922.006	4783
2923.853	4683
2925.698	4668
2927.546	4847
2929.392	4754
2931.236	4840
2933.081	4860
2934.924	4890
2936.77	4861
2938.613	4937
2940.455	4945
2942.298	5052
2944.139	5026
2945.982	4930
2947.823	5012
2949.662	4857
2951.503	5000
2953.342	4898
2955.182	4832
2957.021	4844
2958.858	4907
2960.697	4817
2962.534	4777
2964.37	4841
2966.207	4790
2968.044	4735
2969.879	4697
2971.714	4706
2973.548	4752
2975.383	4640
2977.218	4609
2979.051	4708
2980.883	4590
2982.715	4662
2984.547	4621
2986.379	4722
2988.21	4729
2990.04	4571
2991.87	4440
2993.7	4611
2995.53	4582
2997.359	4577
2999.187	4397
3001.015	4454
3002.842	4365
3004.669	4413
3006.497	4484
3008.323	4477
3010.148	4413
3011.974	4347
3013.797	4386
3015.623	4325
3017.447	4323
3019.27	4353
3021.094	4277
3022.915	4335
3024.737	4391
3026.56	4375
3028.38	4372
3030.201	4329
3032.022	4286
3033.84	4378
3035.662	4327
3037.481	4298
3039.298	4178
3041.117	4242
3042.933	4298
3044.752	4266
3046.568	4290
3048.385	4266
3050.2	4306
3052.016	4365
3053.83	4294
3055.646	4298
3057.46	4205
3059.272	4329
3061.086	4256
3062.898	4269
3064.711	4259
3066.524	4288
3068.335	4210
3070.145	4280
3071.956	4274
3073.766	4173
3075.576	4307
3077.385	4246
3079.193	4261
3081.002	4167
3082.81	4272
3084.618	4263
3086.425	4245
3088.231	4274
3090.036	4267
3091.842	4184
3093.648	4254
3095.452	4217
3097.257	4234
3099.06	4264
3100.863	4133
3102.666	4191
3104.47	4172
3106.272	4229
3108.073	4173
3109.875	4161
3111.676	4215
3113.477	4147
3115.277	4291
3117.077	4188
3118.874	4211
3120.673	4281
3122.473	4204
3124.271	4246
3126.066	4285
3127.863	4136
3129.66	4257
3131.456	4237
3133.252	4283
3135.047	4244
3136.842	4225
3138.635	4186
3140.429	4221
3142.223	4185
3144.016	4093
3145.808	4187
3147.6	4170
3149.392	4171
3151.183	4250
3152.975	4186
3154.765	4175
3156.553	4182
3158.344	4285
3160.132	4182
3161.922	4200
3163.71	4095
3165.497	4178
3167.285	4216
3169.071	4269
3170.858	4247
3172.645	4261
3174.429	4189
3176.214	4240
3177.998	4173
3179.783	4180
3181.568	4202
3183.351	4216
3185.133	4241
3186.915	4143
3188.698	4115
3190.481	4249
3192.261	4184
3194.042	4130
3195.822	4108
3197.601	4217
3199.381	4227
3201.161	4211
3202.939	4265
3204.717	4155
3206.495	4181
3208.272	4216
3210.05	4139
3211.826	4256
3213.602	4180
3215.376	4262
3217.151	4131
3218.927	4109
3220.702	4174
3222.476	4132
3224.249	4229
3226.021	4148
3227.793	4313
3229.567	4149
3231.339	4219
3233.109	4242
3234.88	4260
3236.651	4247
3238.421	4165
3240.191	4239
3241.96	4156
3243.728	4229
3245.497	4154
3247.263	4246
3249.033	4222
3250.799	4255
3252.566	4178
3254.331	4274
3256.097	4169
3257.863	4164
3259.628	4280
3261.392	4250
3263.156	4181
3264.919	4199
3266.683	4308
3268.447	4178
3270.208	4302
3271.969	4181
3273.731	4162
3275.492	4269
3277.253	4265
3279.013	4367
3280.773	4279
3282.532	4193
3284.291	4400
3286.05	4259
3287.808	4251
3289.566	4325
3291.323	4379
3293.079	4258
3294.835	4261
3296.593	4231
3298.348	4350
3300.102	4256
3301.857	4297
3303.611	4300
3305.366	4375
3307.119	4224
3308.872	4324
3310.624	4328
3312.376	4283
3314.129	4310
3315.881	4320
3317.631	4234
3319.38	4417
3321.13	4390
3322.88	4334
3324.631	4345
3326.379	4216
3328.126	4406
3329.875	4174
3331.622	4299
3333.371	4383
3335.116	4432
3336.863	4307
3338.609	4328
3340.353	4349
3342.1	4305
3343.845	4400
3345.588	4316
3347.332	4264
3349.074	4216
3350.817	4293
3352.56	4291
3354.303	4338
3356.043	4442
3357.785	4279
3359.525	4416
3361.268	4308
3363.007	4367
3364.745	4322
3366.485	4388
3368.223	4391
3369.962	4336
3371.701	4291
3373.438	4370
3375.174	4350
3376.911	4294
3378.647	4334
3380.384	4265
3382.118	4404
3383.854	4326
3385.588	4226
3387.322	4388
3389.057	4280
3390.79	4328
3392.522	4380
3394.255	4395
3395.987	4324
3397.719	4322
3399.451	4308
3401.181	4292
3402.911	4304
3404.641	4411
3406.371	4253
3408.101	4363
3409.83	4319
3411.558	4366
3413.285	4409
3415.011	4344
3416.739	4340
3418.467	4345
3420.193	4260
3421.919	4337
3423.644	4279
3425.368	4388
3427.094	4311
3428.818	4354
3430.542	4323
3432.264	4324
3433.987	4429
3435.712	4335
3437.434	4269
3439.155	4349
3440.876	4303
3442.596	4479
3444.317	4307
3446.039	4325
3447.757	4280
3449.477	4302
3451.195	4400
3452.914	4321
3454.632	4355
3456.35	4332
3458.067	4267
3459.784	4360
3461.5	4363
3463.216	4296
3464.932	4304
3466.647	4258
3468.362	4245
3470.076	4321
3471.789	4293
3473.505	4359
3475.217	4204
3476.929	4318
3478.641	4220
3480.354	4252
3482.066	4249
3483.777	4377
3485.487	4262
3487.197	4300
3488.908	4298
3490.617	4278
3492.327	4258
3494.035	4245
3495.743	4248
3497.451	4293
3499.158	4232
3500.866	4298
3502.572	4392
3504.278	4288
3505.984	4309
3507.689	4287
3509.396	4282
3511.1	4187
3512.804	4298
3514.508	4349
3516.211	4362
3517.913	4314
3519.616	4290
3521.319	4250
3523.021	4381
3524.722	4306
3526.422	4266
3528.124	4304
3529.824	4271
3531.524	4286
3533.222	4206
3534.921	4339
3536.62	4311
3538.318	4181
3540.016	4310
3541.714	4291
3543.41	4411
3545.107	4280
3546.803	4256
3548.5	4350
3550.194	4365
3551.889	4281
3553.583	4297
3555.279	4210
3556.972	4385
3558.666	4297
3560.358	4311
3562.051	4338
3563.742	4202
3565.435	4225
3567.126	4355
3568.817	4288
3570.507	4334
3572.197	4274
3573.888	4280
3575.577	4275
3577.265	4296
3578.954	4244
3580.642	4344
3582.329	4405
3584.017	4288
3585.704	4303
3587.391	4185
3589.077	4301
3590.762	4317
3592.449	4238
3594.133	4303
3595.817	4271
3597.501	4345
3599.185	4240
3600.869	4250
3602.552	4252
3604.234	4217
3605.916	4353
3607.598	4186
3609.279	4388
3610.961	4255
3612.642	4331
3614.321	4263
3616	4341
3617.68	4222
3619.36	4267
3621.039	4205
3622.716	4295
3624.394	4301
3626.071	4325
3627.748	4300
3629.425	4335
3631.102	4217
3632.778	4340
3634.452	4347
3636.127	4373
3637.803	4290
3639.477	4242
3641.151	4327
3642.823	4252
3644.497	4372
3646.171	4258
3647.842	4262
3649.515	4252
3651.185	4331
3652.857	4262
3654.527	4334
3656.198	4252
3657.868	4320
3659.537	4308
3661.207	4259
3662.875	4238
3664.544	4396
3666.212	4289
3667.879	4278
3669.546	4282
3671.212	4220
3672.88	4261
3674.546	4313
3676.211	4335
3677.875	4255
3679.541	4315
3681.205	4226
3682.87	4354
3684.533	4307
3686.196	4302
3687.859	4319
3689.521	4406
3691.184	4296
3692.845	4371
3694.507	4270
3696.167	4337
3697.827	4245
3699.487	4296
3701.148	4339
3702.808	4324
3704.466	4327
3706.125	4424
3707.783	4379
3709.442	4389
3711.099	4385
3712.757	4325
3714.412	4290
3716.068	4348
3717.725	4359
3719.381	4324
3721.036	4374
3722.689	4339
3724.344	4352
3725.998	4311
3727.652	4462
3729.305	4302
3730.958	4360
3732.61	4311
3734.262	4364
3735.915	4293
3737.565	4451
3739.217	4365
3740.866	4401
3742.516	4368
3744.165	4373
3745.816	4402
3747.464	4410
3749.113	4353
3750.761	4402
3752.409	4319
3754.057	4444
3755.703	4378
3757.35	4354
3758.996	4393
3760.641	4415
3762.289	4389
3763.933	4361
3765.577	4365
3767.222	4446
3768.865	4320
3770.508	4399
3772.152	4450
3773.796	4405
3775.438	4345
3777.079	4377
3778.721	4359
3780.363	4361
3782.003	4347
3783.643	4376
3785.283	4437
3786.923	4421
3788.563	4335
3790.203	4391
3791.841	4330
3793.479	4360
3795.115	4446
3796.753	4339
3798.391	4388
3800.027	4448
3801.664	4386
3803.299	4303
3804.935	4325
3806.571	4394
3808.206	4357
3809.839	4328
3811.473	4426
3813.107	4382
3814.74	4273
3816.375	4443
3818.006	4347
3819.638	4429
3821.27	4425
3822.9	4364
3824.532	4415
3826.163	4462
3827.792	4399
3829.423	4454
3831.051	4434
3832.682	4372
3834.311	4452
3835.938	4412
3837.566	4408
3839.193	4432
3840.821	4459
3842.448	4431
3844.075	4469
3845.7	4397
3847.325	4433
3848.951	4423
3850.576	4449
3852.201	4456
3853.825	4452
3855.448	4435
3857.072	4484
3858.694	4360
3860.318	4392
3861.939	4463
3863.562	4502
3865.183	4483
3866.804	4443
3868.426	4307
3870.045	4403
3871.666	4407
3873.285	4407
3874.904	4558
3876.524	4414
3878.142	4377
3879.76	4488
3881.378	4406
3882.995	4453
3884.612	4527
3886.229	4480
3887.845	4452
3889.461	4495
3891.076	4450
3892.691	4506
3894.307	4589
3895.922	4471
3897.536	4541
3899.149	4533
3900.761	4438
3902.374	4391
3903.988	4425
3905.6	4596
3907.212	4474
3908.822	4493
3910.433	4523
3912.045	4524
3913.655	4579
3915.265	4533
3916.875	4457
3918.483	4581
3920.093	4526
3921.702	4494
3923.309	4470
3924.917	4480
3926.523	4492
3928.13	4580
3929.739	4421
3931.344	4394
3932.95	4465
3934.555	4478
3936.159	4567
3937.766	4600
3939.369	4510
3940.974	4525
3942.577	4487
3944.181	4630
3945.783	4546
3947.386	4546
3948.989	4545
3950.59	4639
3952.191	4591
3953.791	4508
3955.394	4544
3956.994	4594
3958.593	4635
3960.192	4511
3961.791	4595
3963.392	4629
3964.99	4575
3966.588	4528
3968.185	4522
3969.782	4516
3971.379	4527
3972.976	4513
3974.572	4593
3976.168	4585
3977.763	4608
3979.358	4608
3980.954	4495
3982.548	4626
3984.142	4582
3985.736	4564
3987.329	4590
3988.922	4501
3990.516	4565
3992.108	4516
3993.698	4608
3995.29	4516
3996.881	4591
3998.473	4506
4000.064	4520
4001.653	4518
4003.242	4547
4004.832	4509
4006.422	4535
4008.01	4441
4009.598	4477
4011.186	4534
4012.773	4569
4014.36	4516
4015.947	4464
4017.534	4627
4019.119	4552
4020.705	4452
4022.291	4515
4023.876	4564
4025.461	4545
4027.044	4567
4028.627	4587
4030.211	4554
4031.795	4499
4033.378	4504
4034.96	4484
4036.542	4575
4038.124	4460
4039.704	4539
4041.286	4606
4042.867	4628
4044.447	4585
4046.026	4570
4047.606	4607
4049.187	4574
4050.765	4535
4052.343	4676
4053.92	4543
4055.498	4595
4057.076	4611
4058.654	4521
4060.23	4502
4061.806	4574
4063.381	4594
4064.957	4577
4066.533	4601
4068.107	4603
4069.682	4548
4071.256	4572
4072.829	4610
4074.404	4545
4075.977	4595
4077.549	4560
4079.121	4539
4080.693	4584
4082.265	4609
4083.836	4567
4085.407	4497
4086.977	4589
4088.547	4624
4090.117	4602
4091.687	4599
4093.256	4594
4094.825	4607
4096.392	4726
4097.96	4610
4099.528	4591
4101.097	4699
4102.663	4619
4104.229	4708
4105.795	4644
4107.361	4607
4108.928	4605
4110.493	4725
4112.058	4593
4113.621	4656
4115.186	4610
4116.75	4622
4118.313	4637
4119.876	4710
4121.438	4652
4123	4655
4124.562	4547
4126.125	4674
4127.686	4522
4129.246	4643
4130.807	4612
4132.367	4689
4133.927	4647
4135.486	4672
4137.046	4513
4138.604	4640
4140.162	4639
4141.72	4652
4143.279	4645
4144.836	4657
4146.393	4678
4147.949	4472
4149.505	4643
4151.062	4604
4152.617	4637
4154.172	4607
4155.727	4587
4157.281	4659
4158.836	4501
4160.39	4692
4161.943	4666
4163.496	4623
4165.048	4656
4166.601	4706
4168.154	4619
4169.706	4691
4171.257	4597
4172.808	4587
4174.358	4707
4175.909	4697
4177.458	4751
4179.008	4571
4180.558	4659
4182.106	4632
4183.655	4633
4185.204	4673
4186.751	4527
4188.298	4737
4189.845	4598
4191.392	4712
4192.939	4596
4194.485	4587
4196.031	4646
4197.576	4653
4199.121	4619
4200.666	4718
4202.211	4710
4203.754	4685
4205.298	4687
4206.84	4671
4208.384	4673
4209.927	4686
4211.47	4621
4213.011	4655
4214.552	4634
4216.094	4704
4217.635	4693
4219.175	4715
4220.716	4605
4222.255	4609
4223.793	4631
4225.335	4672
4226.873	4673
4228.411	4711
4229.948	4643
4231.486	4679
4233.024	4736
4234.562	4700
4236.098	4731
4237.634	4735
4239.169	4732
4240.705	4720
4242.241	4738
4243.776	4671
4245.31	4718
4246.844	4702
4248.378	4682
4249.911	4703
4251.445	4721
4252.978	4828
4254.51	4682
4256.042	4633
4257.574	4710
4259.107	4729
4260.638	4739
4262.169	4774
4263.699	4766
4265.228	4777
4266.759	4726
4268.289	4825
4269.818	4838
4271.345	4705
4272.874	4798
4274.402	4778
4275.931	4817
4277.458	4723
4278.985	4727
4280.512	4805
4282.037	4762
4283.564	4689
4285.089	4781
4286.615	4744
4288.139	4793
4289.664	4719
4291.187	4834
4292.712	4839
4294.235	4674
4295.759	4858
4297.281	4878
4298.804	4730
4300.327	4799
4301.849	4870
4303.37	4669
4304.891	4714
4306.412	4793
4307.933	4808
4309.453	4808
4310.973	4776
4312.492	4795
