398.1873	4092
400.7097	4151
403.2336	4075
405.7547	4173
408.2751	4205
410.7948	4276
413.3138	4194
415.83	4223
418.3497	4247
420.8666	4325
423.3829	4419
425.8985	4374
428.4133	4382
430.9275	4413
433.441	4367
435.9538	4366
438.4639	4488
440.9753	4480
443.4881	4428
445.9982	4413
448.5055	4418
451.0142	4437
453.5201	4395
456.0274	4353
458.5361	4325
461.04	4426
463.5453	4480
466.0478	4425
468.5517	4481
471.0549	4456
473.5574	4505
476.0572	4436
478.5584	4385
481.0568	4435
483.5545	4463
486.0557	4494
488.5521	4396
491.0478	4500
493.5449	4434
496.0392	4524
498.5349	4642
501.0299	4491
503.5222	4547
506.0139	4544
508.5048	4542
510.9991	4629
513.4887	4592
515.9777	4575
518.4659	4596
520.9534	4635
523.4403	4631
525.9306	4651
528.4161	4559
530.9009	4757
533.3851	4634
535.8687	4563
538.3535	4595
540.8356	4550
543.3171	4673
545.7979	4633
548.278	4655
550.7595	4601
553.2383	4660
555.7144	4720
558.1918	4724
560.6685	4750
563.1446	4753
565.6221	4700
568.0968	4712
570.5688	4824
573.0422	4782
575.515	4797
577.989	4703
580.4584	4783
582.9291	4803
585.3991	4795
587.8685	4722
590.3352	4808
592.8052	4725
595.2706	4735
597.7372	4752
600.2033	4806
602.6666	4803
605.1334	4788
607.5953	4819
610.0587	4793
612.5193	4757
614.9814	4771
617.4427	4749
619.9034	4704
622.3615	4807
624.8208	4693
627.2775	4742
629.7335	4754
632.1929	4762
634.6476	4795
637.1016	4650
639.5569	4815
642.0096	4773
644.4637	4737
646.9151	4810
649.3678	4792
651.8179	4771
654.2672	4849
656.7159	4748
659.166	4848
661.6154	4966
664.0622	4862
666.5082	4894
668.9537	4898
671.4005	4874
673.8445	4951
676.288	4933
678.7308	4955
681.1729	4916
683.6163	4903
686.0572	4965
688.4973	4931
690.9368	4852
693.3757	4955
695.8138	4926
698.2534	4975
700.6902	5005
703.1245	4970
705.56	5047
707.9949	4933
710.4311	4977
712.8647	5052
715.2957	4917
717.7279	5077
720.1595	5056
722.5905	5108
725.0208	5057
727.4505	5079
729.8795	5077
732.3058	5148
734.7336	5167
737.1626	5035
739.587	5296
742.0128	5092
744.4359	5055
746.8604	5179
749.2841	5284
751.7073	5072
754.1278	5259
756.5496	5211
758.9688	5238
761.3893	5222
763.8093	5213
766.2285	5232
768.6451	5352
771.0611	5324
773.4784	5249
775.895	5275
778.3091	5202
780.7244	5198
783.1371	5301
785.5493	5256
787.9626	5274
790.3754	5321
792.7856	5298
795.1951	5307
797.6039	5332
800.0121	5260
802.4236	5305
804.8306	5336
807.2369	5321
809.6425	5220
812.0475	5293
814.4538	5426
816.8575	5219
819.2606	5488
821.663	5414
824.0648	5399
826.4659	5299
828.8683	5228
831.2682	5376
833.6674	5331
836.066	5353
838.4639	5356
840.8632	5321
843.2579	5401
845.6539	5464
848.0493	5405
850.444	5433
852.84	5447
855.2315	5431
857.6243	5511
860.0165	5350
862.4081	5577
864.797	5497
867.1892	5386
869.5789	5463
871.9659	5525
874.3542	5408
876.74	5422
879.129	5487
881.5155	5393
883.8994	5375
886.2845	5389
888.6671	5436
891.051	5364
893.4343	5307
895.8169	5348
898.197	5418
900.5783	5479
902.9571	5406
905.3372	5376
907.7167	5590
910.0936	5513
912.4698	5497
914.8474	5521
917.2244	5477
919.5987	5619
921.9744	5706
924.3475	5630
926.72	5539
929.0918	5649
931.4669	5760
933.8375	5644
936.2074	5714
938.5767	5713
940.9454	5709
943.3154	5906
945.6829	5889
948.0497	6043
950.4178	6148
952.7833	6334
955.1483	6462
957.5145	6676
959.8782	6780
962.2412	6681
964.6036	6647
966.9655	6263
969.3266	6198
971.6871	6046
974.0471	5824
976.4064	5813
978.765	5672
981.125	5679
983.4824	5653
985.8373	5580
988.1935	5614
990.549	5517
992.9039	5688
995.2602	5673
997.6119	5646
999.965	5653
1002.317	5711
1004.667	5625
1007.02	5674
1009.371	5610
1011.719	5756
1014.068	5721
1016.415	5665
1018.765	5648
1021.111	5707
1023.458	5673
1025.804	5720
1028.147	5798
1030.49	5671
1032.837	5710
1035.179	5682
1037.522	5702
1039.862	5738
1042.204	5667
1044.546	5857
1046.884	5761
1049.224	5794
1051.562	5794
1053.899	5745
1056.237	5757
1058.575	5779
1060.91	5809
1063.244	5724
1065.58	5808
1067.913	5772
1070.248	5826
1072.579	5891
1074.911	5819
1077.242	5941
1079.572	5878
1081.905	5782
1084.234	5805
1086.562	5795
1088.89	5731
1091.217	5695
1093.544	5894
1095.871	5888
1098.197	5789
1100.521	5701
1102.845	5790
1105.169	5783
1107.491	5764
1109.814	5753
1112.135	5851
1114.456	5763
1116.776	5775
1119.096	5864
1121.415	5884
1123.734	5788
1126.052	5874
1128.369	5850
1130.686	5768
1133.002	5818
1135.318	5819
1137.632	5777
1139.945	5789
1142.258	5745
1144.573	5831
1146.884	5870
1149.196	5849
1151.505	5784
1153.816	5879
1156.124	5821
1158.435	5792
1160.742	5900
1163.051	5753
1165.356	5918
1167.663	5812
1169.97	5791
1172.276	5774
1174.579	5803
1176.881	5775
1179.186	5873
1181.487	5773
1183.79	5735
1186.092	5831
1188.392	5775
1190.691	5788
1192.991	5768
1195.291	5850
1197.588	5871
1199.885	5810
1202.181	5775
1204.479	5880
1206.775	5808
1209.07	5780
1211.363	5821
1213.656	5845
1215.949	5739
1218.241	5830
1220.534	5807
1222.825	5835
1225.115	5817
1227.405	5890
1229.693	5869
1231.984	5973
1234.271	6040
1236.558	5923
1238.845	6015
1241.131	6074
1243.416	5948
1245.703	6066
1247.987	6126
1250.269	6082
1252.552	5990
1254.834	6026
1257.118	5985
1259.399	6059
1261.678	5988
1263.958	6069
1266.237	6026
1268.516	5918
1270.794	6015
1273.072	6082
1275.347	6139
1277.624	6030
1279.899	5965
1282.175	5953
1284.449	6029
1286.722	5965
1288.995	5983
1291.266	6106
1293.54	5998
1295.81	6011
1298.081	5967
1300.35	5875
1302.62	6058
1304.889	5995
1307.156	5911
1309.425	5957
1311.69	5961
1313.957	5952
1316.222	5885
1318.488	5956
1320.751	5873
1323.016	5950
1325.278	6022
1327.54	5934
1329.803	5925
1332.065	6090
1334.325	5957
1336.584	5943
1338.843	5959
1341.101	5898
1343.36	5994
1345.617	5911
1347.876	6018
1350.131	6058
1352.387	5944
1354.643	6023
1356.897	5926
1359.151	5934
1361.403	5961
1363.656	5971
1365.909	6018
1368.16	6041
1370.409	6011
1372.659	5832
1374.909	6006
1377.157	6113
1379.407	6017
1381.655	6041
1383.9	6070
1386.147	6060
1388.393	6056
1390.64	6013
1392.885	6062
1395.127	6005
1397.37	5939
1399.614	6045
1401.854	6086
1404.098	6131
1406.339	6113
1408.578	6006
1410.818	6029
1413.056	6045
1415.297	6139
1417.533	6152
1419.771	6081
1422.006	6231
1424.243	6206
1426.479	6091
1428.715	6141
1430.948	6178
1433.182	6173
1435.414	6177
1437.647	6207
1439.88	6154
1442.11	6128
1444.342	6218
1446.571	6197
1448.799	6263
1451.029	6265
1453.258	6401
1455.485	6253
1457.711	6201
1459.937	6249
1462.164	6191
1464.39	6274
1466.614	6235
1468.838	6202
1471.06	6161
1473.283	6068
1475.506	6147
1477.727	5971
1479.949	6084
1482.169	6068
1484.389	6155
1486.609	6103
1488.828	5994
1491.045	5957
1493.261	6019
1495.477	6040
1497.693	6087
1499.91	5984
1502.125	6063
1504.339	5954
1506.553	6091
1508.766	5996
1510.979	6117
1513.191	5907
1515.402	6121
1517.613	5928
1519.823	5990
1522.033	5968
1524.242	6059
1526.451	6135
1528.657	6017
1530.865	5993
1533.072	6084
1535.278	6054
1537.484	6026
1539.687	6033
1541.892	6070
1544.096	5976
1546.299	6130
1548.502	6119
1550.703	6084
1552.905	6045
1555.104	6141
1557.303	6090
1559.505	6195
1561.703	6116
1563.902	6178
1566.099	6211
1568.295	6248
1570.494	6145
1572.689	6155
1574.883	6134
1577.079	6162
1579.272	6180
1581.467	6270
1583.659	6194
1585.853	6288
1588.044	6205
1590.234	6265
1592.424	6102
1594.615	6229
1596.806	6214
1598.994	6282
1601.182	6295
1603.369	6243
1605.557	6214
1607.744	6247
1609.929	6272
1612.114	6325
1614.298	6376
1616.482	6249
1618.667	6349
1620.85	6331
1623.032	6244
1625.214	6291
1627.395	6212
1629.575	6366
1631.755	6302
1633.935	6272
1636.114	6251
1638.292	6306
1640.471	6303
1642.647	6378
1644.823	6327
1647	6248
1649.175	6371
1651.348	6343
1653.525	6402
1655.698	6243
1657.87	6439
1660.043	6289
1662.213	6445
1664.387	6475
1666.558	6397
1668.727	6389
1670.896	6412
1673.064	6479
1675.233	6337
1677.401	6378
1679.569	6374
1681.735	6354
1683.902	6410
1686.066	6375
1688.233	6451
1690.397	6214
1692.559	6332
1694.723	6324
1696.885	6225
1699.048	6232
1701.21	6362
1703.37	6308
1705.53	6237
1707.689	6244
1709.849	6263
1712.009	6248
1714.166	6268
1716.323	6304
1718.479	6198
1720.634	6241
1722.793	6244
1724.948	6320
1727.102	6293
1729.255	6267
1731.408	6230
1733.562	6192
1735.714	6288
1737.865	6231
1740.016	6248
1742.166	6252
1744.316	6393
1746.467	6344
1748.616	6207
1750.764	6279
1752.911	6157
1755.056	6382
1757.205	6299
1759.35	6300
1761.496	6365
1763.641	6274
1765.785	6283
1767.927	6355
1770.072	6449
1772.214	6393
1774.355	6326
1776.496	6344
1778.637	6465
1780.778	6345
1782.918	6318
1785.057	6367
1787.194	6314
1789.333	6337
1791.472	6469
1793.608	6282
1795.745	6329
1797.879	6358
1800.015	6434
1802.148	6490
1804.284	6327
1806.417	6400
1808.548	6266
1810.682	6334
1812.812	6422
1814.946	6388
1817.075	6317
1819.205	6300
1821.335	6314
1823.463	6341
1825.59	6347
1827.721	6366
1829.847	6284
1831.973	6366
1834.098	6346
1836.223	6406
1838.351	6316
1840.475	6241
1842.598	6405
1844.721	6310
1846.843	6326
1848.966	6306
1851.087	6305
1853.21	6300
1855.33	6281
1857.449	6268
1859.568	6229
1861.688	6321
1863.806	6330
1865.924	6295
1868.039	6225
1870.155	6296
1872.273	6288
1874.388	6315
1876.503	6251
1878.617	6406
1880.73	6261
1882.844	6417
1884.956	6407
1887.068	6318
1889.18	6376
1891.291	6403
1893.4	6454
1895.511	6271
1897.621	6322
1899.73	6378
1901.837	6288
1903.944	6384
1906.053	6313
1908.159	6366
1910.265	6311
1912.369	6325
1914.474	6380
1916.577	6398
1918.683	6516
1920.785	6334
1922.888	6447
1924.989	6315
1927.091	6385
1929.193	6425
1931.294	6486
1933.393	6391
1935.493	6336
1937.59	6391
1939.689	6408
1941.788	6554
1943.884	6317
1945.98	6463
1948.077	6511
1950.171	6448
1952.267	6520
1954.361	6454
1956.455	6482
1958.548	6446
1960.64	6438
1962.733	6491
1964.824	6526
1966.915	6501
1969.005	6442
1971.096	6335
1973.185	6461
1975.275	6352
1977.363	6394
1979.45	6430
1981.537	6444
1983.623	6431
1985.711	6378
1987.796	6411
1989.881	6427
1991.965	6535
1994.047	6414
1996.132	6443
1998.215	6340
2000.297	6347
2002.378	6427
2004.46	6437
2006.54	6330
2008.62	6433
2010.7	6447
2012.779	6344
2014.858	6365
2016.934	6407
2019.013	6373
2021.09	6341
2023.165	6523
2025.241	6286
2027.317	6280
2029.39	6436
2031.466	6345
2033.538	6372
2035.612	6258
2037.683	6326
2039.755	6397
2041.827	6284
2043.898	6405
2045.968	6333
2048.038	6436
2050.106	6328
2052.177	6460
2054.244	6434
2056.313	6440
2058.379	6432
2060.444	6368
2062.511	6372
2064.577	6363
2066.641	6475
2068.705	6413
2070.77	6528
2072.832	6380
2074.896	6447
2076.958	6415
2079.02	6528
2081.081	6481
2083.141	6412
2085.2	6410
2087.261	6542
2089.319	6520
2091.377	6477
2093.435	6343
2095.492	6408
2097.552	6478
2099.607	6517
2101.663	6325
2103.718	6401
2105.771	6515
2107.826	6435
2109.879	6332
2111.932	6431
2113.985	6434
2116.037	6487
2118.088	6432
2120.141	6341
2122.191	6388
2124.239	6396
2126.288	6422
2128.337	6400
2130.387	6291
2132.434	6396
2134.481	6376
2136.528	6321
2138.574	6469
2140.618	6320
2142.665	6478
2144.71	6426
2146.753	6415
2148.797	6353
2150.838	6396
2152.883	6305
2154.923	6508
2156.965	6398
2159.007	6376
2161.046	6345
2163.086	6355
2165.126	6355
2167.163	6372
2169.202	6244
2171.239	6371
2173.277	6321
2175.314	6363
2177.349	6416
2179.385	6402
2181.42	6329
2183.453	6381
2185.49	6285
2187.522	6297
2189.555	6337
2191.586	6270
2193.619	6234
2195.651	6247
2197.682	6300
2199.711	6304
2201.74	6373
2203.769	6373
2205.799	6278
2207.828	6245
2209.855	6268
2211.882	6333
2213.908	6267
2215.934	6304
2217.961	6293
2219.986	6223
2222.01	6217
2224.034	6286
2226.057	6169
2228.08	6266
2230.104	6254
2232.124	6320
2234.145	6290
2236.166	6340
2238.186	6301
2240.207	6294
2242.227	6391
2244.244	6297
2246.262	6240
2248.28	6296
2250.299	6164
2252.314	6237
2254.33	6280
2256.346	6221
2258.36	6271
2260.375	6281
2262.391	6260
2264.403	6172
2266.416	6269
2268.427	6249
2270.44	6292
2272.453	6332
2274.463	6225
2276.474	6285
2278.483	6194
2280.493	6335
2282.501	6293
2284.51	6171
2286.518	6406
2288.524	6266
2290.532	6241
2292.537	6126
2294.544	6328
2296.55	6289
2298.554	6205
2300.557	6278
2302.562	6326
2304.566	6300
2306.568	6208
2308.569	6311
2310.572	6373
2312.573	6245
2314.573	6112
2316.574	6330
2318.573	6291
2320.571	6176
2322.571	6336
2324.569	6154
2326.567	6139
2328.564	6272
2330.56	6307
2332.556	6281
2334.551	6236
2336.546	6139
2338.542	6224
2340.535	6218
2342.529	6341
2344.521	6144
2346.512	6164
2348.505	6134
2350.497	6180
2352.487	6169
2354.478	6055
2356.468	6131
2358.457	6130
2360.446	6127
2362.434	6168
2364.422	6185
2366.408	6244
2368.395	6179
2370.383	6147
2372.369	6163
2374.353	6182
2376.338	5996
2378.321	6089
2380.307	6247
2382.29	6254
2384.272	6243
2386.254	6163
2388.235	6174
2390.218	6261
2392.198	6209
2394.179	6002
2396.157	6053
2398.137	6085
2400.115	6059
2402.095	6119
2404.072	6228
2406.048	6077
2408.026	6083
2410.001	6045
2411.977	6093
2413.953	6185
2415.927	6035
2417.9	6172
2419.875	6073
2421.847	6202
2423.821	6015
2425.792	6085
2427.763	6141
2429.736	6031
2431.706	6158
2433.677	6091
2435.646	6089
2437.615	6169
2439.583	6140
2441.551	6094
2443.519	6019
2445.486	6073
2447.452	6120
2449.418	6115
2451.383	6073
2453.348	6042
2455.314	6113
2457.278	6071
2459.241	5993
2461.205	6051
2463.167	6108
2465.131	6114
2467.091	6037
2469.052	6083
2471.012	6097
2472.972	5893
2474.932	6087
2476.891	6077
2478.85	6046
2480.808	5961
2482.766	5999
2484.722	6082
2486.68	6044
2488.636	6026
2490.591	6024
2492.546	6024
2494.5	5938
2496.456	6084
2498.41	5922
2500.362	5922
2502.315	6067
2504.266	6016
2506.218	5982
2508.169	6000
2510.121	5988
2512.07	6066
2514.019	5995
2515.968	6021
2517.918	5930
2519.866	5912
2521.813	5959
2523.76	6028
2525.707	6070
2527.653	6020
2529.599	5952
2531.543	5967
2533.489	5924
2535.433	5986
2537.376	5987
2539.32	6058
2541.264	6045
2543.205	5924
2545.147	5994
2547.087	5954
2549.029	6062
2550.969	5921
2552.908	5980
2554.847	5935
2556.786	6000
2558.724	6002
2560.663	6043
2562.6	5946
2564.537	6038
2566.473	6021
2568.408	5975
2570.345	6009
2572.28	6007
2574.214	5997
2576.148	6111
2578.081	5884
2580.014	5925
2581.947	5936
2583.879	5933
2585.81	5934
2587.741	5992
2589.67	5973
2591.602	6013
2593.532	6039
2595.461	6096
2597.388	5992
2599.316	6016
2601.244	5964
2603.172	5967
2605.098	5950
2607.023	5998
2608.949	5992
2610.873	5934
2612.8	6031
2614.723	5881
2616.647	6003
2618.569	5972
2620.493	6054
2622.416	6078
2624.338	5952
2626.258	5985
2628.179	5991
2630.099	5985
2632.019	5976
2633.939	5952
2635.857	6034
2637.775	6020
2639.694	5882
2641.61	6008
2643.528	6030
2645.444	5964
2647.361	5924
2649.276	5990
2651.19	6069
2653.105	6046
2655.019	6056
2656.934	6026
2658.846	5923
2660.758	5999
2662.67	6041
2664.583	5991
2666.493	6021
2668.404	6035
2670.313	6119
2672.223	5961
2674.134	5962
2676.042	6073
2677.95	5933
2679.858	5985
2681.765	5995
2683.673	5894
2685.579	6057
2687.483	6030
2689.389	5952
2691.294	5984
2693.198	5919
2695.104	5948
2697.006	5913
2698.909	5833
2700.811	5910
2702.713	5896
2704.615	5850
2706.516	5858
2708.417	5860
2710.316	6016
2712.216	5883
2714.115	5917
2716.014	5903
2717.913	6025
2719.81	5920
2721.707	5896
2723.603	5963
2725.501	5928
2727.396	5823
2729.292	5859
2731.186	5840
2733.081	5925
2734.976	5900
2736.87	5864
2738.762	5864
2740.653	5925
2742.546	5828
2744.437	5830
2746.329	5896
2748.22	5966
2750.11	5819
2751.999	5892
2753.889	5794
2755.778	5875
2757.666	5926
2759.553	5915
2761.44	5783
2763.328	5877
2765.215	5822
2767.101	5713
2768.986	5879
2770.87	5824
2772.754	5818
2774.638	5881
2776.523	5701
2778.405	5761
2780.288	5905
2782.17	5919
2784.051	5766
2785.934	5789
2787.814	5986
2789.694	5852
2791.574	5864
2793.453	5748
2795.332	5866
2797.212	5752
2799.088	5819
2800.966	5807
2802.843	5805
2804.719	5813
2806.597	5889
2808.471	5855
2810.346	5855
2812.221	5929
2814.094	5791
2815.969	5769
2817.843	5831
2819.714	5780
2821.587	5736
2823.459	5647
2825.329	5751
2827.202	5803
2829.072	5788
2830.942	5725
2832.811	5722
2834.68	5802
2836.549	5830
2838.418	5821
2840.284	5731
2842.152	5783
2844.018	5836
2845.885	5766
2847.751	5778
2849.616	5788
2851.482	5779
2853.345	5755
2855.208	5854
2857.074	5775
2858.937	5872
2860.799	5801
2862.66	5904
2864.522	5806
2866.385	5887
2868.245	5967
2870.104	6033
2871.964	5930
2873.824	6010
2875.683	6127
2877.542	6046
2879.4	6139
2881.257	6162
2883.114	6137
2884.97	6198
2886.827	6066
2888.683	6091
2890.537	6058
2892.392	6164
2894.246	6059
2896.1	6015
2897.954	6127
2899.807	6178
2901.66	6056
2903.51	5952
2905.362	6099
2907.214	6201
2909.065	6091
2910.915	6177
2912.765	6230
2914.613	6221
2916.463	6152
2918.311	6273
2920.158	6230
2922.006	6202
2923.853	6287
2925.698	6377
2927.546	6385
2929.392	6595
2931.236	6499
2933.081	6485
2934.924	6651
2936.77	6597
2938.613	6490
2940.455	6660
2942.298	6621
2944.139	6580
2945.982	6528
2947.823	6626
2949.662	6552
2951.503	6536
2953.342	6461
2955.182	6461
2957.021	6501
2958.858	6502
2960.697	6281
2962.534	6501
2964.37	6262
2966.207	6220
2968.044	6274
2969.879	6116
2971.714	6225
2973.548	6145
2975.383	6138
2977.218	6172
2979.051	6159
2980.883	6172
2982.715	6122
2984.547	6021
2986.379	6142
2988.21	6159
2990.04	5987
2991.87	6015
2993.7	5958
2995.53	5823
2997.359	6073
2999.187	5895
3001.015	5884
3002.842	5740
3004.669	5839
3006.497	5723
3008.323	5796
3010.148	5888
3011.974	5678
3013.797	5673
3015.623	5732
3017.447	5681
3019.27	5740
3021.094	5657
3022.915	5588
3024.737	5629
3026.56	5532
3028.38	5564
3030.201	5650
3032.022	5605
3033.84	5528
3035.662	5585
3037.481	5553
3039.298	5432
3041.117	5618
3042.933	5497
3044.752	5540
3046.568	5516
3048.385	5546
3050.2	5498
3052.016	5512
3053.83	5563
3055.646	5625
3057.46	5500
3059.272	5448
3061.086	5470
3062.898	5464
3064.711	5557
3066.524	5521
3068.335	5562
3070.145	5590
3071.956	5479
3073.766	5400
3075.576	5391
3077.385	5415
3079.193	5488
3081.002	5415
3082.81	5389
3084.618	5421
3086.425	5395
3088.231	5459
3090.036	5402
3091.842	5487
3093.648	5366
3095.452	5382
3097.257	5435
3099.06	5246
3100.863	5373
3102.666	5301
3104.47	5405
3106.272	5317
3108.073	5472
3109.875	5335
3111.676	5343
3113.477	5291
3115.277	5337
3117.077	5197
3118.874	5364
3120.673	5341
3122.473	5301
3124.271	5235
3126.066	5290
3127.863	5417
3129.66	5336
3131.456	5289
3133.252	5347
3135.047	5375
3136.842	5253
3138.635	5220
3140.429	5215
3142.223	5274
3144.016	5243
3145.808	5315
3147.6	5214
3149.392	5288
3151.183	5233
3152.975	5244
3154.765	5244
3156.553	5203
3158.344	5238
3160.132	5211
3161.922	5178
3163.71	5129
3165.497	5229
3167.285	5316
3169.071	5208
3170.858	5151
3172.645	5229
3174.429	5180
3176.214	5217
3177.998	5175
3179.783	5075
3181.568	5186
3183.351	5185
3185.133	5222
3186.915	5202
3188.698	5165
3190.481	5148
3192.261	5174
3194.042	5201
3195.822	5222
3197.601	5246
3199.381	5110
3201.161	5192
3202.939	5203
3204.717	5149
3206.495	5167
3208.272	5245
3210.05	5110
3211.826	5172
3213.602	5242
3215.376	5081
3217.151	5209
3218.927	5162
3220.702	5164
3222.476	5128
3224.249	5140
3226.021	5108
3227.793	5111
3229.567	5121
3231.339	5141
3233.109	5140
3234.88	5126
3236.651	5136
3238.421	5119
3240.191	5220
3241.96	5068
3243.728	5171
3245.497	5041
3247.263	5203
3249.033	5216
3250.799	5047
3252.566	5021
3254.331	5116
3256.097	5111
3257.863	5038
3259.628	5142
3261.392	5066
3263.156	5087
3264.919	5088
3266.683	5101
3268.447	5103
3270.208	5122
3271.969	5135
3273.731	5104
3275.492	5190
3277.253	5100
3279.013	5018
3280.773	5132
3282.532	5125
3284.291	5100
3286.05	5148
3287.808	5144
3289.566	5132
3291.323	5140
3293.079	5223
3294.835	5092
3296.593	5065
3298.348	5122
3300.102	5221
3301.857	5159
3303.611	5159
3305.366	5081
3307.119	5133
3308.872	5122
3310.624	5021
3312.376	5154
3314.129	5069
3315.881	5076
3317.631	5023
3319.38	5102
3321.13	5124
3322.88	5071
3324.631	5101
3326.379	5036
3328.126	5068
3329.875	4993
3331.622	4945
3333.371	5088
3335.116	5061
3336.863	5083
3338.609	5049
3340.353	4943
3342.1	5066
3343.845	4993
3345.588	5184
3347.332	4996
3349.074	5110
3350.817	5113
3352.56	5046
3354.303	5067
3356.043	4955
3357.785	4979
3359.525	5022
3361.268	5009
3363.007	5103
3364.745	5002
3366.485	4984
3368.223	5041
3369.962	5026
3371.701	5062
3373.438	4955
3375.174	4906
3376.911	5022
3378.647	4952
3380.384	4998
3382.118	4980
3383.854	4982
3385.588	4924
3387.322	4972
3389.057	4954
3390.79	5025
3392.522	5028
3394.255	4983
3395.987	4885
3397.719	4963
3399.451	4944
3401.181	4922
3402.911	4931
3404.641	4954
3406.371	4957
3408.101	5006
3409.83	5008
3411.558	4907
3413.285	4972
3415.011	4892
3416.739	4837
3418.467	4883
3420.193	4934
3421.919	4838
3423.644	4938
3425.368	4871
3427.094	4940
3428.818	4929
3430.542	4881
3432.264	4875
3433.987	4863
3435.712	4776
3437.434	4854
3439.155	4859
3440.876	4823
3442.596	4774
3444.317	4873
3446.039	4744
3447.757	4844
3449.477	4820
3451.195	4752
3452.914	4790
3454.632	4848
3456.35	4807
3458.067	4805
3459.784	4784
3461.5	4904
3463.216	4800
3464.932	4772
3466.647	4712
3468.362	4752
3470.076	4844
3471.789	4724
3473.505	4727
3475.217	4777
3476.929	4697
3478.641	4699
3480.354	4676
3482.066	4693
3483.777	4700
3485.487	4630
3487.197	4671
3488.908	4670
3490.617	4662
3492.327	4665
3494.035	4632
3495.743	4666
3497.451	4681
3499.158	4605
3500.866	4658
3502.572	4839
3504.278	4687
3505.984	4730
3507.689	4628
3509.396	4663
3511.1	4612
3512.804	4624
3514.508	4664
3516.211	4622
3517.913	4633
3519.616	4621
3521.319	4644
3523.021	4665
3524.722	4650
3526.422	4529
3528.124	4541
3529.824	4648
3531.524	4593
3533.222	4489
3534.921	4477
3536.62	4571
3538.318	4635
3540.016	4531
3541.714	4611
3543.41	4613
3545.107	4575
3546.803	4671
3548.5	4435
3550.194	4498
3551.889	4577
3553.583	4567
3555.279	4455
3556.972	4534
3558.666	4474
3560.358	4511
3562.051	4519
3563.742	4450
3565.435	4486
3567.126	4596
3568.817	4573
3570.507	4493
3572.197	4570
3573.888	4490
3575.577	4578
3577.265	4591
3578.954	4444
3580.642	4478
3582.329	4467
3584.017	4452
3585.704	4495
3587.391	4503
3589.077	4539
3590.762	4463
3592.449	4529
3594.133	4454
3595.817	4373
3597.501	4413
3599.185	4394
3600.869	4426
3602.552	4383
3604.234	4311
3605.916	4494
3607.598	4296
3609.279	4439
3610.961	4338
3612.642	4406
3614.321	4461
3616	4359
3617.68	4263
3619.36	4419
3621.039	4389
3622.716	4429
3624.394	4306
3626.071	4355
3627.748	4348
3629.425	4335
3631.102	4318
3632.778	4339
3634.452	4246
3636.127	4282
3637.803	4272
3639.477	4288
3641.151	4329
3642.823	4212
3644.497	4303
3646.171	4310
3647.842	4299
3649.515	4329
3651.185	4256
3652.857	4226
3654.527	4175
3656.198	4263
3657.868	4271
3659.537	4304
3661.207	4302
3662.875	4203
3664.544	4231
3666.212	4208
3667.879	4290
3669.546	4220
3671.212	4201
3672.88	4180
3674.546	4273
3676.211	4288
3677.875	4082
3679.541	4243
3681.205	4112
3682.87	4082
3684.533	4184
3686.196	4125
3687.859	4126
3689.521	4089
3691.184	4204
3692.845	4246
3694.507	4117
3696.167	4166
3697.827	4163
3699.487	4183
3701.148	4124
3702.808	4123
3704.466	4267
3706.125	4163
3707.783	4093
3709.442	4088
3711.099	4214
3712.757	4267
3714.412	4243
3716.068	4139
3717.725	4078
3719.381	4210
3721.036	4140
3722.689	4153
3724.344	4083
3725.998	4036
3727.652	4132
3729.305	4142
3730.958	4153
3732.61	4173
3734.262	4093
3735.915	4095
3737.565	4205
3739.217	4151
3740.866	4097
3742.516	4125
3744.165	4191
3745.816	4107
3747.464	4078
3749.113	4071
3750.761	4074
3752.409	4131
3754.057	4048
3755.703	4031
3757.35	4062
3758.996	4024
3760.641	4149
3762.289	4053
3763.933	3951
3765.577	4046
3767.222	4038
3768.865	4077
3770.508	3994
3772.152	4114
3773.796	3954
3775.438	4070
3777.079	4003
3778.721	4031
3780.363	4031
3782.003	4004
3783.643	4013
3785.283	3956
3786.923	3960
3788.563	3940
3790.203	4152
3791.841	4018
3793.479	3966
3795.115	4029
3796.753	4020
3798.391	3989
3800.027	3904
3801.664	3924
3803.299	3996
3804.935	3896
3806.571	3963
3808.206	3861
3809.839	3910
3811.473	3997
3813.107	3963
3814.74	3968
3816.375	3943
3818.006	3964
3819.638	3852
3821.27	3947
3822.9	3903
3824.532	3886
3826.163	3973
3827.792	3943
3829.423	3811
3831.051	3883
3832.682	3931
3834.311	3855
3835.938	3881
3837.566	3918
3839.193	3923
3840.821	3833
3842.448	4017
3844.075	3842
3845.7	3889
3847.325	3935
3848.951	3888
3850.576	3867
3852.201	3925
3853.825	3873
3855.448	3810
3857.072	3900
3858.694	3799
3860.318	3821
3861.939	3853
3863.562	3776
3865.183	3853
3866.804	3799
3868.426	3807
3870.045	3793
3871.666	3837
3873.285	3791
3874.904	3779
3876.524	3800
3878.142	3870
3879.76	3774
3881.378	3784
3882.995	3824
3884.612	3809
3886.229	3765
3887.845	3848
3889.461	3829
3891.076	3809
3892.691	3844
3894.307	3836
3895.922	3888
3897.536	3821
3899.149	3845
3900.761	3796
3902.374	3727
3903.988	3752
3905.6	3726
3907.212	3868
3908.822	3834
3910.433	3714
3912.045	3752
3913.655	3815
3915.265	3760
3916.875	3648
3918.483	3738
3920.093	3729
3921.702	3726
3923.309	3764
3924.917	3831
3926.523	3630
3928.13	3676
3929.739	3695
3931.344	3712
3932.95	3760
3934.555	3725
3936.159	3710
3937.766	3790
3939.369	3730
3940.974	3740
3942.577	3670
3944.181	3677
3945.783	3690
3947.386	3774
3948.989	3746
3950.59	3719
3952.191	3702
3953.791	3687
3955.394	3722
3956.994	3583
3958.593	3666
3960.192	3712
3961.791	3702
3963.392	3752
3964.99	3657
3966.588	3665
3968.185	3661
3969.782	3651
3971.379	3729
3972.976	3627
3974.572	3614
3976.168	3632
3977.763	3687
3979.358	3643
3980.954	3632
3982.548	3647
3984.142	3698
3985.736	3640
3987.329	3636
3988.922	3650
3990.516	3578
3992.108	3635
3993.698	3541
3995.29	3565
3996.881	3559
3998.473	3552
4000.064	3556
4001.653	3574
4003.242	3524
4004.832	3558
4006.422	3469
4008.01	3648
4009.598	3524
4011.186	3469
4012.773	3492
4014.36	3529
4015.947	3547
4017.534	3548
4019.119	3457
4020.705	3600
4022.291	3566
4023.876	3497
4025.461	3542
4027.044	3557
4028.627	3474
4030.211	3440
4031.795	3451
4033.378	3448
4034.96	3399
4036.542	3528
4038.124	3505
4039.704	3465
4041.286	3446
4042.867	3460
4044.447	3430
4046.026	3447
4047.606	3447
4049.187	3471
4050.765	3452
4052.343	3456
4053.92	3433
4055.498	3427
4057.076	3461
4058.654	3510
4060.23	3450
4061.806	3497
4063.381	3433
4064.957	3433
4066.533	3404
4068.107	3447
4069.682	3485
4071.256	3410
4072.829	3376
4074.404	3401
4075.977	3375
4077.549	3486
4079.121	3366
4080.693	3390
4082.265	3435
4083.836	3404
4085.407	3337
4086.977	3445
4088.547	3382
4090.117	3355
4091.687	3358
4093.256	3313
4094.825	3368
4096.392	3451
4097.96	3371
4099.528	3376
4101.097	3347
4102.663	3402
4104.229	3260
4105.795	3431
4107.361	3369
4108.928	3387
4110.493	3312
4112.058	3343
4113.621	3365
4115.186	3416
4116.75	3337
4118.313	3359
4119.876	3297
4121.438	3249
4123	3266
4124.562	3308
4126.125	3252
4127.686	3261
4129.246	3342
4130.807	3376
4132.367	3269
4133.927	3240
4135.486	3288
4137.046	3323
4138.604	3292
4140.162	3206
4141.72	3250
4143.279	3291
4144.836	3288
4146.393	3214
4147.949	3154
4149.505	3231
4151.062	3256
4152.617	3292
4154.172	3263
4155.727	3305
4157.281	3229
4158.836	3249
4160.39	3286
4161.943	3246
4163.496	3237
4165.048	3225
4166.601	3227
4168.154	3239
4169.706	3177
4171.257	3195
4172.808	3223
4174.358	3164
4175.909	3220
4177.458	3233
4179.008	3134
4180.558	3085
4182.106	3161
4183.655	3252
4185.204	3101
4186.751	3181
4188.298	3141
4189.845	3125
4191.392	3230
4192.939	3214
4194.485	3151
4196.031	3109
4197.576	3102
4199.121	3052
4200.666	3136
4202.211	3110
4203.754	3189
4205.298	3144
4206.84	3114
4208.384	3156
4209.927	3162
4211.47	3060
4213.011	3208
4214.552	3082
4216.094	3156
4217.635	3078
4219.175	3102
4220.716	3115
4222.255	3140
4223.793	3138
4225.335	3063
4226.873	3103
4228.411	3112
4229.948	3072
4231.486	3070
4233.024	3093
4234.562	3164
4236.098	3148
4237.634	3052
4239.169	2996
4240.705	3035
4242.241	3051
4243.776	3066
4245.31	3115
4246.844	3039
4248.378	3031
4249.911	3114
4251.445	3034
4252.978	3074
4254.51	3126
4256.042	3000
4257.574	3067
4259.107	3078
4260.638	3070
4262.169	3029
4263.699	3059
4265.228	2983
4266.759	3087
4268.289	3081
4269.818	3040
4271.345	3071
4272.874	3052
4274.402	2954
4275.931	2999
4277.458	3018
4278.985	3065
4280.512	3046
4282.037	2979
4283.564	2958
4285.089	3052
4286.615	2967
4288.139	3041
4289.664	2969
4291.187	2976
4292.712	3005
4294.235	2994
4295.759	2939
4297.281	2992
4298.804	2937
4300.327	2959
4301.849	3011
4303.37	2986
4304.891	3011
4306.412	2945
4307.933	2993
4309.453	3000
4310.973	3010
4312.492	2931
