398.1873	2829
400.7097	2836
403.2336	2833
405.7547	2777
408.2751	2857
410.7948	2856
413.3138	2842
415.83	2980
418.3497	2894
420.8666	2932
423.3829	2885
425.8985	2995
428.4133	2985
430.9275	2989
433.441	2965
435.9538	2977
438.4639	2906
440.9753	2997
443.4881	3050
445.9982	3025
448.5055	3019
451.0142	3028
453.5201	3042
456.0274	2962
458.5361	2988
461.04	2996
463.5453	3007
466.0478	3039
468.5517	3034
471.0549	3028
473.5574	2968
476.0572	2975
478.5584	2995
481.0568	3016
483.5545	3074
486.0557	2984
488.5521	3055
491.0478	3088
493.5449	3094
496.0392	3073
498.5349	2973
501.0299	3081
503.5222	3019
506.0139	3072
508.5048	3110
510.9991	3060
513.4887	3086
515.9777	3075
518.4659	3125
520.9534	3120
523.4403	3153
525.9306	3095
528.4161	3116
530.9009	3049
533.3851	3114
535.8687	3119
538.3535	3125
540.8356	3144
543.3171	3063
545.7979	3149
548.278	3076
550.7595	3180
553.2383	3137
555.7144	3166
558.1918	3161
560.6685	3087
563.1446	3097
565.6221	3152
568.0968	3151
570.5688	3147
573.0422	3232
575.515	3109
577.989	3261
580.4584	3202
582.9291	3205
585.3991	3207
587.8685	3234
590.3352	3230
592.8052	3254
595.2706	3244
597.7372	3217
600.2033	3112
602.6666	3186
605.1334	3256
607.5953	3240
610.0587	3228
612.5193	3312
614.9814	3198
617.4427	3128
619.9034	3249
622.3615	3186
624.8208	3127
627.2775	3219
629.7335	3125
632.1929	3169
634.6476	3222
637.1016	3180
639.5569	3173
642.0096	3235
644.4637	3219
646.9151	3166
649.3678	3198
651.8179	3285
654.2672	3173
656.7159	3171
659.166	3259
661.6154	3227
664.0622	3228
666.5082	3282
668.9537	3297
671.4005	3273
673.8445	3254
676.288	3286
678.7308	3325
681.1729	3279
683.6163	3287
686.0572	3317
688.4973	3363
690.9368	3268
693.3757	3342
695.8138	3380
698.2534	3314
700.6902	3364
703.1245	3320
705.56	3371
707.9949	3314
710.4311	3260
712.8647	3395
715.2957	3419
717.7279	3393
720.1595	3413
722.5905	3301
725.0208	3412
727.4505	3379
729.8795	3426
732.3058	3457
734.7336	3390
737.1626	3431
739.587	3400
742.0128	3491
744.4359	3364
746.8604	3526
749.2841	3459
751.7073	3381
754.1278	3513
756.5496	3525
758.9688	3497
761.3893	3445
763.8093	3544
766.2285	3504
768.6451	3453
771.0611	3543
773.4784	3502
775.895	3545
778.3091	3459
780.7244	3504
783.1371	3561
785.5493	3514
787.9626	3585
790.3754	3387
792.7856	3508
795.1951	3466
797.6039	3507
800.0121	3508
802.4236	3541
804.8306	3491
807.2369	3516
809.6425	3441
812.0475	3620
814.4538	3594
816.8575	3520
819.2606	3574
821.663	3514
824.0648	3534
826.4659	3507
828.8683	3648
831.2682	3616
833.6674	3649
836.066	3608
838.4639	3534
840.8632	3619
843.2579	3612
845.6539	3667
848.0493	3559
850.444	3628
852.84	3642
855.2315	3585
857.6243	3652
860.0165	3681
862.4081	3597
864.797	3631
867.1892	3619
869.5789	3621
871.9659	3685
874.3542	3582
876.74	3624
879.129	3588
881.5155	3616
883.8994	3650
886.2845	3685
888.6671	3635
891.051	3675
893.4343	3627
895.8169	3645
898.197	3546
900.5783	3727
902.9571	3628
905.3372	3610
907.7167	3630
910.0936	3608
912.4698	3658
914.8474	3730
917.2244	3711
919.5987	3741
921.9744	3766
924.3475	3809
926.72	3767
929.0918	3773
931.4669	3769
933.8375	3855
936.2074	3819
938.5767	3914
940.9454	3896
943.3154	3838
945.6829	4083
948.0497	4031
950.4178	4199
952.7833	4326
955.1483	4407
957.5145	4548
959.8782	4603
962.2412	4620
964.6036	4422
966.9655	4363
969.3266	4233
971.6871	4038
974.0471	3977
976.4064	3787
978.765	3868
981.125	3782
983.4824	3724
985.8373	3824
988.1935	3802
990.549	3778
992.9039	3811
995.2602	3737
997.6119	3727
999.965	3797
1002.317	3777
1004.667	3770
1007.02	3822
1009.371	3768
1011.719	3772
1014.068	3779
1016.415	3780
1018.765	3788
1021.111	3901
1023.458	3799
1025.804	3815
1028.147	3810
1030.49	3814
1032.837	3864
1035.179	3911
1037.522	3773
1039.862	3802
1042.204	3836
1044.546	3830
1046.884	3837
1049.224	3900
1051.562	3910
1053.899	3839
1056.237	3866
1058.575	3895
1060.91	3958
1063.244	3872
1065.58	3896
1067.913	3885
1070.248	3969
1072.579	3890
1074.911	3871
1077.242	3961
1079.572	3952
1081.905	3897
1084.234	3877
1086.562	3834
1088.89	3945
1091.217	3861
1093.544	3876
1095.871	3862
1098.197	3818
1100.521	3853
1102.845	3831
1105.169	3901
1107.491	3882
1109.814	3898
1112.135	3854
1114.456	3916
1116.776	3903
1119.096	3898
1121.415	3866
1123.734	3914
1126.052	3919
1128.369	3881
1130.686	3867
1133.002	3863
1135.318	3852
1137.632	3804
1139.945	3892
1142.258	3842
1144.573	3905
1146.884	3917
1149.196	3878
1151.505	3893
1153.816	3814
1156.124	3889
1158.435	3914
1160.742	3873
1163.051	3881
1165.356	3935
1167.663	3888
1169.97	3973
1172.276	3944
1174.579	3851
1176.881	3969
1179.186	3913
1181.487	3964
1183.79	3846
1186.092	3848
1188.392	3867
1190.691	3826
1192.991	3903
1195.291	3870
1197.588	3915
1199.885	3903
1202.181	3914
1204.479	4020
1206.775	3971
1209.07	3926
1211.363	3880
1213.656	3931
1215.949	3964
1218.241	3934
1220.534	3866
1222.825	3882
1225.115	3985
1227.405	3905
1229.693	3996
1231.984	4070
1234.271	3984
1236.558	3975
1238.845	3996
1241.131	4051
1243.416	3968
1245.703	4054
1247.987	4066
1250.269	4030
1252.552	3951
1254.834	3980
1257.118	4026
1259.399	4177
1261.678	4070
1263.958	4027
1266.237	4062
1268.516	4111
1270.794	4040
1273.072	3956
1275.347	4090
1277.624	3999
1279.899	3998
1282.175	4012
1284.449	3997
1286.722	3981
1288.995	3963
1291.266	4032
1293.54	4054
1295.81	3973
1298.081	4037
1300.35	3939
1302.62	4023
1304.889	4043
1307.156	3969
1309.425	4044
1311.69	3927
1313.957	4091
1316.222	3952
1318.488	3927
1320.751	3971
1323.016	4072
1325.278	4061
1327.54	3977
1329.803	3971
1332.065	4005
1334.325	3999
1336.584	3967
1338.843	4056
1341.101	4066
1343.36	4005
1345.617	3997
1347.876	4001
1350.131	4110
1352.387	4058
1354.643	4042
1356.897	4011
1359.151	4111
1361.403	4055
1363.656	4054
1365.909	3979
1368.16	3976
1370.409	4110
1372.659	4008
1374.909	4059
1377.157	3989
1379.407	4032
1381.655	4027
1383.9	4053
1386.147	3993
1388.393	4120
1390.64	4094
1392.885	4087
1395.127	4068
1397.37	4086
1399.614	4134
1401.854	4073
1404.098	4001
1406.339	4030
1408.578	4144
1410.818	4114
1413.056	4070
1415.297	4137
1417.533	4177
1419.771	4041
1422.006	4104
1424.243	4151
1426.479	4126
1428.715	4074
1430.948	4172
1433.182	4154
1435.414	4229
1437.647	4145
1439.88	4225
1442.11	4169
1444.342	4192
1446.571	4209
1448.799	4189
1451.029	4229
1453.258	4250
1455.485	4238
1457.711	4233
1459.937	4191
1462.164	4117
1464.39	4238
1466.614	4176
1468.838	4165
1471.06	4183
1473.283	4140
1475.506	4204
1477.727	4040
1479.949	4117
1482.169	4187
1484.389	4098
1486.609	4038
1488.828	4099
1491.045	4056
1493.261	4112
1495.477	4032
1497.693	4048
1499.91	4063
1502.125	4075
1504.339	4124
1506.553	4059
1508.766	4059
1510.979	4094
1513.191	4098
1515.402	3961
1517.613	4091
1519.823	4006
1522.033	4037
1524.242	4120
1526.451	4076
1528.657	4096
1530.865	4102
1533.072	4189
1535.278	4171
1537.484	4128
1539.687	4105
1541.892	4107
1544.096	4043
1546.299	4089
1548.502	4160
1550.703	4124
1552.905	4095
1555.104	4185
1557.303	4089
1559.505	4129
1561.703	4119
1563.902	4189
1566.099	4169
1568.295	4256
1570.494	4168
1572.689	4240
1574.883	4121
1577.079	4214
1579.272	4217
1581.467	4140
1583.659	4157
1585.853	4258
1588.044	4177
1590.234	4170
1592.424	4261
1594.615	4254
1596.806	4169
1598.994	4209
1601.182	4217
1603.369	4232
1605.557	4216
1607.744	4228
1609.929	4242
1612.114	4238
1614.298	4275
1616.482	4268
1618.667	4284
1620.85	4273
1623.032	4275
1625.214	4236
1627.395	4270
1629.575	4273
1631.755	4307
1633.935	4299
1636.114	4307
1638.292	4162
1640.471	4288
1642.647	4264
1644.823	4399
1647	4365
1649.175	4367
1651.348	4296
1653.525	4325
1655.698	4324
1657.87	4254
1660.043	4371
1662.213	4263
1664.387	4367
1666.558	4305
1668.727	4381
1670.896	4298
1673.064	4339
1675.233	4400
1677.401	4321
1679.569	4270
1681.735	4278
1683.902	4317
1686.066	4262
1688.233	4266
1690.397	4247
1692.559	4264
1694.723	4299
1696.885	4262
1699.048	4318
1701.21	4322
1703.37	4282
1705.53	4246
1707.689	4355
1709.849	4223
1712.009	4247
1714.166	4305
1716.323	4260
1718.479	4280
1720.634	4253
1722.793	4259
1724.948	4200
1727.102	4182
1729.255	4225
1731.408	4247
1733.562	4216
1735.714	4275
1737.865	4227
1740.016	4210
1742.166	4269
1744.316	4271
1746.467	4285
1748.616	4323
1750.764	4243
1752.911	4219
1755.056	4291
1757.205	4311
1759.35	4284
1761.496	4284
1763.641	4284
1765.785	4305
1767.927	4287
1770.072	4331
1772.214	4250
1774.355	4301
1776.496	4239
1778.637	4264
1780.778	4307
1782.918	4316
1785.057	4307
1787.194	4307
1789.333	4422
1791.472	4367
1793.608	4321
1795.745	4411
1797.879	4423
1800.015	4267
1802.148	4285
1804.284	4261
1806.417	4329
1808.548	4384
1810.682	4367
1812.812	4368
1814.946	4397
1817.075	4353
1819.205	4361
1821.335	4380
1823.463	4306
1825.59	4260
1827.721	4326
1829.847	4356
1831.973	4263
1834.098	4279
1836.223	4368
1838.351	4368
1840.475	4350
1842.598	4294
1844.721	4380
1846.843	4245
1848.966	4377
1851.087	4409
1853.21	4295
1855.33	4245
1857.449	4344
1859.568	4321
1861.688	4270
1863.806	4322
1865.924	4232
1868.039	4284
1870.155	4281
1872.273	4364
1874.388	4333
1876.503	4270
1878.617	4348
1880.73	4261
1882.844	4283
1884.956	4273
1887.068	4338
1889.18	4400
1891.291	4287
1893.4	4307
1895.511	4355
1897.621	4231
1899.73	4377
1901.837	4397
1903.944	4404
1906.053	4387
1908.159	4372
1910.265	4368
1912.369	4332
1914.474	4345
1916.577	4391
1918.683	4370
1920.785	4411
1922.888	4379
1924.989	4437
1927.091	4422
1929.193	4375
1931.294	4379
1933.393	4482
1935.493	4375
1937.59	4442
1939.689	4398
1941.788	4432
1943.884	4282
1945.98	4466
1948.077	4356
1950.171	4336
1952.267	4470
1954.361	4437
1956.455	4361
1958.548	4430
1960.64	4405
1962.733	4424
1964.824	4424
1966.915	4364
1969.005	4355
1971.096	4387
1973.185	4437
1975.275	4300
1977.363	4487
1979.45	4348
1981.537	4437
1983.623	4449
1985.711	4444
1987.796	4396
1989.881	4400
1991.965	4385
1994.047	4310
1996.132	4363
1998.215	4308
2000.297	4279
2002.378	4351
2004.46	4368
2006.54	4386
2008.62	4470
2010.7	4308
2012.779	4413
2014.858	4369
2016.934	4377
2019.013	4404
2021.09	4367
2023.165	4396
2025.241	4386
2027.317	4330
2029.39	4429
2031.466	4428
2033.538	4442
2035.612	4308
2037.683	4383
2039.755	4399
2041.827	4447
2043.898	4357
2045.968	4419
2048.038	4363
2050.106	4445
2052.177	4376
2054.244	4373
2056.313	4379
2058.379	4327
2060.444	4437
2062.511	4427
2064.577	4469
2066.641	4448
2068.705	4352
2070.77	4438
2072.832	4396
2074.896	4377
2076.958	4411
2079.02	4450
2081.081	4413
2083.141	4334
2085.2	4434
2087.261	4343
2089.319	4508
2091.377	4444
2093.435	4479
2095.492	4336
2097.552	4455
2099.607	4351
2101.663	4426
2103.718	4412
2105.771	4440
2107.826	4432
2109.879	4443
2111.932	4350
2113.985	4365
2116.037	4493
2118.088	4499
2120.141	4353
2122.191	4514
2124.239	4490
2126.288	4362
2128.337	4390
2130.387	4339
2132.434	4421
2134.481	4337
2136.528	4380
2138.574	4415
2140.618	4388
2142.665	4377
2144.71	4299
2146.753	4412
2148.797	4396
2150.838	4407
2152.883	4339
2154.923	4495
2156.965	4360
2159.007	4336
2161.046	4544
2163.086	4429
2165.126	4398
2167.163	4380
2169.202	4495
2171.239	4431
2173.277	4431
2175.314	4436
2177.349	4435
2179.385	4472
2181.42	4397
2183.453	4359
2185.49	4426
2187.522	4335
2189.555	4313
2191.586	4392
2193.619	4442
2195.651	4458
2197.682	4370
2199.711	4410
2201.74	4387
2203.769	4344
2205.799	4272
2207.828	4291
2209.855	4397
2211.882	4316
2213.908	4377
2215.934	4355
2217.961	4353
2219.986	4300
2222.01	4357
2224.034	4360
2226.057	4401
2228.08	4341
2230.104	4325
2232.124	4383
2234.145	4269
2236.166	4330
2238.186	4367
2240.207	4352
2242.227	4333
2244.244	4435
2246.262	4367
2248.28	4302
2250.299	4329
2252.314	4335
2254.33	4403
2256.346	4358
2258.36	4349
2260.375	4365
2262.391	4399
2264.403	4397
2266.416	4252
2268.427	4355
2270.44	4367
2272.453	4375
2274.463	4261
2276.474	4245
2278.483	4408
2280.493	4417
2282.501	4279
2284.51	4419
2286.518	4310
2288.524	4390
2290.532	4351
2292.537	4383
2294.544	4350
2296.55	4364
2298.554	4383
2300.557	4402
2302.562	4339
2304.566	4325
2306.568	4400
2308.569	4403
2310.572	4466
2312.573	4320
2314.573	4313
2316.574	4331
2318.573	4353
2320.571	4397
2322.571	4324
2324.569	4281
2326.567	4406
2328.564	4356
2330.56	4286
2332.556	4296
2334.551	4312
2336.546	4309
2338.542	4363
2340.535	4372
2342.529	4411
2344.521	4284
2346.512	4285
2348.505	4282
2350.497	4347
2352.487	4255
2354.478	4344
2356.468	4224
2358.457	4224
2360.446	4287
2362.434	4323
2364.422	4301
2366.408	4303
2368.395	4389
2370.383	4287
2372.369	4243
2374.353	4287
2376.338	4313
2378.321	4230
2380.307	4374
2382.29	4204
2384.272	4237
2386.254	4305
2388.235	4194
2390.218	4244
2392.198	4274
2394.179	4232
2396.157	4240
2398.137	4337
2400.115	4193
2402.095	4200
2404.072	4301
2406.048	4267
2408.026	4288
2410.001	4203
2411.977	4315
2413.953	4263
2415.927	4292
2417.9	4188
2419.875	4220
2421.847	4299
2423.821	4282
2425.792	4291
2427.763	4377
2429.736	4330
2431.706	4216
2433.677	4277
2435.646	4223
2437.615	4331
2439.583	4254
2441.551	4281
2443.519	4280
2445.486	4191
2447.452	4263
2449.418	4231
2451.383	4250
2453.348	4202
2455.314	4249
2457.278	4214
2459.241	4260
2461.205	4202
2463.167	4267
2465.131	4310
2467.091	4300
2469.052	4258
2471.012	4163
2472.972	4302
2474.932	4310
2476.891	4229
2478.85	4236
2480.808	4235
2482.766	4147
2484.722	4253
2486.68	4131
2488.636	4188
2490.591	4183
2492.546	4311
2494.5	4205
2496.456	4236
2498.41	4102
2500.362	4175
2502.315	4206
2504.266	4229
2506.218	4255
2508.169	4225
2510.121	4122
2512.07	4141
2514.019	4337
2515.968	4231
2517.918	4302
2519.866	4263
2521.813	4202
2523.76	4165
2525.707	4222
2527.653	4235
2529.599	4300
2531.543	4138
2533.489	4307
2535.433	4190
2537.376	4261
2539.32	4237
2541.264	4293
2543.205	4203
2545.147	4236
2547.087	4323
2549.029	4121
2550.969	4239
2552.908	4226
2554.847	4172
2556.786	4265
2558.724	4177
2560.663	4204
2562.6	4197
2564.537	4212
2566.473	4190
2568.408	4288
2570.345	4225
2572.28	4274
2574.214	4234
2576.148	4178
2578.081	4157
2580.014	4287
2581.947	4224
2583.879	4250
2585.81	4178
2587.741	4291
2589.67	4175
2591.602	4219
2593.532	4356
2595.461	4169
2597.388	4209
2599.316	4286
2601.244	4193
2603.172	4316
2605.098	4189
2607.023	4202
2608.949	4282
2610.873	4161
2612.8	4281
2614.723	4200
2616.647	4184
2618.569	4228
2620.493	4256
2622.416	4295
2624.338	4275
2626.258	4194
2628.179	4275
2630.099	4221
2632.019	4327
2633.939	4247
2635.857	4248
2637.775	4300
2639.694	4264
2641.61	4253
2643.528	4266
2645.444	4228
2647.361	4198
2649.276	4211
2651.19	4135
2653.105	4274
2655.019	4269
2656.934	4287
2658.846	4237
2660.758	4244
2662.67	4278
2664.583	4220
2666.493	4209
2668.404	4195
2670.313	4188
2672.223	4249
2674.134	4275
2676.042	4224
2677.95	4211
2679.858	4268
2681.765	4213
2683.673	4159
2685.579	4203
2687.483	4287
2689.389	4279
2691.294	4210
2693.198	4230
2695.104	4194
2697.006	4141
2698.909	4149
2700.811	4235
2702.713	4155
2704.615	4213
2706.516	4189
2708.417	4255
2710.316	4200
2712.216	4129
2714.115	4229
2716.014	4191
2717.913	4106
2719.81	4147
2721.707	4251
2723.603	4212
2725.501	4269
2727.396	4209
2729.292	4117
2731.186	4109
2733.081	4206
2734.976	4185
2736.87	4209
2738.762	4132
2740.653	4184
2742.546	4165
2744.437	4180
2746.329	4174
2748.22	4199
2750.11	4196
2751.999	4214
2753.889	4172
2755.778	4072
2757.666	4157
2759.553	4236
2761.44	4155
2763.328	4266
2765.215	4185
2767.101	4194
2768.986	4133
2770.87	4343
2772.754	4073
2774.638	4145
2776.523	4075
2778.405	4158
2780.288	4154
2782.17	4145
2784.051	4164
2785.934	4129
2787.814	4197
2789.694	4201
2791.574	4133
2793.453	4111
2795.332	4271
2797.212	4091
2799.088	4213
2800.966	4180
2802.843	4063
2804.719	4141
2806.597	4128
2808.471	4157
2810.346	4128
2812.221	4051
2814.094	4166
2815.969	4170
2817.843	4180
2819.714	4053
2821.587	4090
2823.459	4138
2825.329	4153
2827.202	4164
2829.072	4044
2830.942	4133
2832.811	4172
2834.68	4227
2836.549	4177
2838.418	4017
2840.284	4171
2842.152	4082
2844.018	4110
2845.885	4126
2847.751	4177
2849.616	4117
2851.482	4184
2853.345	4174
2855.208	4168
2857.074	4189
2858.937	4181
2860.799	4172
2862.66	4211
2864.522	4191
2866.385	4243
2868.245	4236
2870.104	4242
2871.964	4229
2873.824	4381
2875.683	4365
2877.542	4315
2879.4	4332
2881.257	4359
2883.114	4457
2884.97	4397
2886.827	4353
2888.683	4383
2890.537	4377
2892.392	4312
2894.246	4369
2896.1	4352
2897.954	4375
2899.807	4258
2901.66	4395
2903.51	4311
2905.362	4378
2907.214	4383
2909.065	4333
2910.915	4423
2912.765	4352
2914.613	4323
2916.463	4466
2918.311	4498
2920.158	4478
2922.006	4449
2923.853	4471
2925.698	4597
2927.546	4646
2929.392	4591
2931.236	4623
2933.081	4673
2934.924	4728
2936.77	4718
2938.613	4705
2940.455	4715
2942.298	4752
2944.139	4704
2945.982	4718
2947.823	4668
2949.662	4683
2951.503	4757
2953.342	4613
2955.182	4476
2957.021	4497
2958.858	4552
2960.697	4480
2962.534	4641
2964.37	4534
2966.207	4508
2968.044	4432
2969.879	4494
2971.714	4427
2973.548	4406
2975.383	4475
2977.218	4330
2979.051	4491
2980.883	4460
2982.715	4373
2984.547	4390
2986.379	4374
2988.21	4273
2990.04	4355
2991.87	4309
2993.7	4340
2995.53	4316
2997.359	4360
2999.187	4274
3001.015	4239
3002.842	4263
3004.669	4239
3006.497	4225
3008.323	4129
3010.148	4115
3011.974	3993
3013.797	4038
3015.623	4128
3017.447	4092
3019.27	4079
3021.094	4062
3022.915	4054
3024.737	4083
3026.56	4056
3028.38	3995
3030.201	3974
3032.022	4032
3033.84	3939
3035.662	3991
3037.481	4086
3039.298	3999
3041.117	3995
3042.933	4024
3044.752	3937
3046.568	3975
3048.385	3930
3050.2	3949
3052.016	3922
3053.83	3953
3055.646	4111
3057.46	4020
3059.272	3895
3061.086	3971
3062.898	4005
3064.711	3911
3066.524	3968
3068.335	3964
3070.145	4026
3071.956	3982
3073.766	3951
3075.576	3960
3077.385	3896
3079.193	3949
3081.002	3933
3082.81	3949
3084.618	4038
3086.425	3933
3088.231	3962
3090.036	3964
3091.842	3914
3093.648	3947
3095.452	3931
3097.257	3887
3099.06	3891
3100.863	3832
3102.666	3913
3104.47	3861
3106.272	3901
3108.073	3909
3109.875	3913
3111.676	3851
3113.477	3906
3115.277	3821
3117.077	3890
3118.874	3876
3120.673	3862
3122.473	3879
3124.271	3806
3126.066	3894
3127.863	3834
3129.66	3831
3131.456	3864
3133.252	3887
3135.047	3829
3136.842	3877
3138.635	3878
3140.429	3815
3142.223	3815
3144.016	3766
3145.808	3771
3147.6	3795
3149.392	3855
3151.183	3863
3152.975	3796
3154.765	3861
3156.553	3870
3158.344	3821
3160.132	3854
3161.922	3774
3163.71	3831
3165.497	3867
3167.285	3898
3169.071	3770
3170.858	3751
3172.645	3743
3174.429	3758
3176.214	3784
3177.998	3843
3179.783	3768
3181.568	3762
3183.351	3735
3185.133	3743
3186.915	3819
3188.698	3829
3190.481	3790
3192.261	3720
3194.042	3705
3195.822	3705
3197.601	3749
3199.381	3790
3201.161	3760
3202.939	3833
3204.717	3770
3206.495	3738
3208.272	3680
3210.05	3839
3211.826	3682
3213.602	3730
3215.376	3718
3217.151	3854
3218.927	3681
3220.702	3784
3222.476	3769
3224.249	3698
3226.021	3758
3227.793	3679
3229.567	3771
3231.339	3704
3233.109	3811
3234.88	3725
3236.651	3795
3238.421	3826
3240.191	3756
3241.96	3688
3243.728	3686
3245.497	3743
3247.263	3706
3249.033	3840
3250.799	3794
3252.566	3796
3254.331	3684
3256.097	3663
3257.863	3780
3259.628	3674
3261.392	3794
3263.156	3693
3264.919	3724
3266.683	3726
3268.447	3738
3270.208	3810
3271.969	3669
3273.731	3731
3275.492	3757
3277.253	3740
3279.013	3726
3280.773	3741
3282.532	3732
3284.291	3790
3286.05	3736
3287.808	3657
3289.566	3804
3291.323	3734
3293.079	3711
3294.835	3673
3296.593	3718
3298.348	3728
3300.102	3760
3301.857	3740
3303.611	3735
3305.366	3702
3307.119	3736
3308.872	3684
3310.624	3817
3312.376	3732
3314.129	3775
3315.881	3822
3317.631	3793
3319.38	3756
3321.13	3779
3322.88	3782
3324.631	3775
3326.379	3721
3328.126	3741
3329.875	3709
3331.622	3729
3333.371	3719
3335.116	3668
3336.863	3689
3338.609	3695
3340.353	3735
3342.1	3740
3343.845	3642
3345.588	3771
3347.332	3701
3349.074	3725
3350.817	3674
3352.56	3732
3354.303	3746
3356.043	3641
3357.785	3677
3359.525	3670
3361.268	3600
3363.007	3619
3364.745	3722
3366.485	3671
3368.223	3710
3369.962	3650
3371.701	3680
3373.438	3607
3375.174	3744
3376.911	3646
3378.647	3609
3380.384	3614
3382.118	3650
3383.854	3661
3385.588	3609
3387.322	3753
3389.057	3661
3390.79	3638
3392.522	3609
3394.255	3626
3395.987	3674
3397.719	3644
3399.451	3616
3401.181	3657
3402.911	3656
3404.641	3595
3406.371	3659
3408.101	3559
3409.83	3681
3411.558	3683
3413.285	3589
3415.011	3721
3416.739	3599
3418.467	3576
3420.193	3702
3421.919	3645
3423.644	3581
3425.368	3604
3427.094	3597
3428.818	3517
3430.542	3603
3432.264	3614
3433.987	3568
3435.712	3550
3437.434	3578
3439.155	3610
3440.876	3496
3442.596	3629
3444.317	3639
3446.039	3651
3447.757	3542
3449.477	3586
3451.195	3591
3452.914	3541
3454.632	3609
3456.35	3480
3458.067	3611
3459.784	3536
3461.5	3563
3463.216	3556
3464.932	3536
3466.647	3467
3468.362	3519
3470.076	3525
3471.789	3488
3473.505	3552
3475.217	3499
3476.929	3509
3478.641	3523
3480.354	3522
3482.066	3564
3483.777	3512
3485.487	3526
3487.197	3515
3488.908	3454
3490.617	3470
3492.327	3478
3494.035	3512
3495.743	3454
3497.451	3462
3499.158	3465
3500.866	3479
3502.572	3450
3504.278	3482
3505.984	3480
3507.689	3470
3509.396	3486
3511.1	3500
3512.804	3416
3514.508	3344
3516.211	3439
3517.913	3426
3519.616	3404
3521.319	3419
3523.021	3454
3524.722	3443
3526.422	3419
3528.124	3429
3529.824	3475
3531.524	3403
3533.222	3405
3534.921	3465
3536.62	3319
3538.318	3458
3540.016	3335
3541.714	3435
3543.41	3499
3545.107	3437
3546.803	3425
3548.5	3448
3550.194	3414
3551.889	3441
3553.583	3364
3555.279	3424
3556.972	3325
3558.666	3442
3560.358	3425
3562.051	3317
3563.742	3364
3565.435	3406
3567.126	3394
3568.817	3393
3570.507	3324
3572.197	3389
3573.888	3380
3575.577	3336
3577.265	3293
3578.954	3411
3580.642	3369
3582.329	3363
3584.017	3340
3585.704	3352
3587.391	3364
3589.077	3305
3590.762	3289
3592.449	3315
3594.133	3319
3595.817	3322
3597.501	3338
3599.185	3292
3600.869	3333
3602.552	3314
3604.234	3311
3605.916	3241
3607.598	3357
3609.279	3222
3610.961	3295
3612.642	3303
3614.321	3255
3616	3301
3617.68	3244
3619.36	3253
3621.039	3262
3622.716	3277
3624.394	3239
3626.071	3240
3627.748	3226
3629.425	3238
3631.102	3179
3632.778	3204
3634.452	3185
3636.127	3246
3637.803	3252
3639.477	3165
3641.151	3218
3642.823	3147
3644.497	3174
3646.171	3165
3647.842	3153
3649.515	3160
3651.185	3201
3652.857	3188
3654.527	3176
3656.198	3225
3657.868	3215
3659.537	3196
3661.207	3134
3662.875	3176
3664.544	3107
3666.212	3169
3667.879	3197
3669.546	3175
3671.212	3247
3672.88	3170
3674.546	3161
3676.211	3171
3677.875	3186
3679.541	3136
3681.205	3138
3682.87	3149
3684.533	3085
3686.196	3201
3687.859	3195
3689.521	3095
3691.184	3130
3692.845	3113
3694.507	3137
3696.167	3174
3697.827	3185
3699.487	3105
3701.148	3170
3702.808	3138
3704.466	3063
3706.125	3176
3707.783	3128
3709.442	3148
3711.099	3169
3712.757	3075
3714.412	3202
3716.068	3099
3717.725	3202
3719.381	3114
3721.036	3127
3722.689	3090
3724.344	3097
3725.998	3162
3727.652	3106
3729.305	3140
3730.958	3066
3732.61	3100
3734.262	3099
3735.915	3074
3737.565	3154
3739.217	3075
3740.866	3112
3742.516	3113
3744.165	3090
3745.816	3019
3747.464	3011
3749.113	3065
3750.761	3080
3752.409	3052
3754.057	3053
3755.703	3080
3757.35	3163
3758.996	3012
3760.641	2950
3762.289	3003
3763.933	3083
3765.577	3088
3767.222	3095
3768.865	3015
3770.508	3067
3772.152	3077
3773.796	3079
3775.438	2996
3777.079	3013
3778.721	3029
3780.363	3061
3782.003	3027
3783.643	3027
3785.283	2990
3786.923	3027
3788.563	2952
3790.203	3008
3791.841	2953
3793.479	3065
3795.115	3037
3796.753	2977
3798.391	2997
3800.027	3010
3801.664	2989
3803.299	3034
3804.935	2993
3806.571	2985
3808.206	2920
3809.839	3014
3811.473	2976
3813.107	2938
3814.74	2985
3816.375	2969
3818.006	2932
3819.638	3055
3821.27	2938
3822.9	2984
3824.532	2947
3826.163	2974
3827.792	3006
3829.423	2896
3831.051	2967
3832.682	2971
3834.311	2971
3835.938	3004
3837.566	2966
3839.193	2914
3840.821	2968
3842.448	2922
3844.075	2940
3845.7	2841
3847.325	2978
3848.951	2913
3850.576	2907
3852.201	2888
3853.825	2903
3855.448	2956
3857.072	2909
3858.694	2965
3860.318	2917
3861.939	2883
3863.562	2894
3865.183	2934
3866.804	2912
3868.426	2936
3870.045	2816
3871.666	2968
3873.285	2895
3874.904	2827
3876.524	2880
3878.142	2880
3879.76	2855
3881.378	2898
3882.995	2844
3884.612	2848
3886.229	2884
3887.845	2936
3889.461	2876
3891.076	2870
3892.691	2844
3894.307	2903
3895.922	2863
3897.536	2931
3899.149	2910
3900.761	2901
3902.374	2801
3903.988	2923
3905.6	2877
3907.212	2887
3908.822	2882
3910.433	2827
3912.045	2876
3913.655	2881
3915.265	2874
3916.875	2882
3918.483	2829
3920.093	2816
3921.702	2785
3923.309	2860
3924.917	2885
3926.523	2839
3928.13	2930
3929.739	2836
3931.344	2783
3932.95	2876
3934.555	2837
3936.159	2844
3937.766	2826
3939.369	2830
3940.974	2833
3942.577	2831
3944.181	2830
3945.783	2878
3947.386	2866
3948.989	2793
3950.59	2864
3952.191	2862
3953.791	2784
3955.394	2861
3956.994	2782
3958.593	2846
3960.192	2787
3961.791	2820
3963.392	2812
3964.99	2803
3966.588	2828
3968.185	2764
3969.782	2807
3971.379	2768
3972.976	2772
3974.572	2791
3976.168	2810
3977.763	2779
3979.358	2710
3980.954	2793
3982.548	2816
3984.142	2760
3985.736	2719
3987.329	2815
3988.922	2754
3990.516	2775
3992.108	2782
3993.698	2754
3995.29	2750
3996.881	2728
3998.473	2679
4000.064	2738
4001.653	2732
4003.242	2727
4004.832	2687
4006.422	2764
4008.01	2777
4009.598	2725
4011.186	2752
4012.773	2708
4014.36	2721
4015.947	2699
4017.534	2734
4019.119	2715
4020.705	2678
4022.291	2697
4023.876	2639
4025.461	2708
4027.044	2695
4028.627	2680
4030.211	2696
4031.795	2711
4033.378	2601
4034.96	2607
4036.542	2713
4038.124	2675
4039.704	2678
4041.286	2674
4042.867	2743
4044.447	2680
4046.026	2661
4047.606	2712
4049.187	2700
4050.765	2627
4052.343	2625
4053.92	2659
4055.498	2687
4057.076	2651
4058.654	2631
4060.23	2660
4061.806	2593
4063.381	2655
4064.957	2622
4066.533	2701
4068.107	2643
4069.682	2699
4071.256	2607
4072.829	2623
4074.404	2590
4075.977	2590
4077.549	2652
4079.121	2578
4080.693	2634
4082.265	2601
4083.836	2572
4085.407	2607
4086.977	2569
4088.547	2638
4090.117	2638
4091.687	2616
4093.256	2642
4094.825	2586
4096.392	2569
4097.96	2618
4099.528	2609
4101.097	2615
4102.663	2568
4104.229	2592
4105.795	2657
4107.361	2567
4108.928	2489
4110.493	2641
4112.058	2551
4113.621	2557
4115.186	2585
4116.75	2612
4118.313	2566
4119.876	2559
4121.438	2622
4123	2588
4124.562	2576
4126.125	2550
4127.686	2590
4129.246	2511
4130.807	2519
4132.367	2530
4133.927	2502
4135.486	2519
4137.046	2564
4138.604	2609
4140.162	2562
4141.72	2537
4143.279	2500
4144.836	2520
4146.393	2531
4147.949	2477
4149.505	2451
4151.062	2427
4152.617	2510
4154.172	2460
4155.727	2502
4157.281	2547
4158.836	2559
4160.39	2514
4161.943	2503
4163.496	2513
4165.048	2452
4166.601	2470
4168.154	2482
4169.706	2500
4171.257	2419
4172.808	2479
4174.358	2501
4175.909	2506
4177.458	2416
4179.008	2451
4180.558	2474
4182.106	2441
4183.655	2479
4185.204	2472
4186.751	2458
4188.298	2504
4189.845	2475
4191.392	2425
4192.939	2445
4194.485	2493
4196.031	2492
4197.576	2476
4199.121	2518
4200.666	2439
4202.211	2386
4203.754	2458
4205.298	2464
4206.84	2456
4208.384	2382
4209.927	2451
4211.47	2478
4213.011	2398
4214.552	2352
4216.094	2434
4217.635	2471
4219.175	2466
4220.716	2376
4222.255	2403
4223.793	2469
4225.335	2355
4226.873	2416
4228.411	2407
4229.948	2378
4231.486	2378
4233.024	2460
4234.562	2387
4236.098	2369
4237.634	2413
4239.169	2470
4240.705	2352
4242.241	2384
4243.776	2439
4245.31	2400
4246.844	2420
4248.378	2364
4249.911	2361
4251.445	2397
4252.978	2380
4254.51	2404
4256.042	2407
4257.574	2393
4259.107	2390
4260.638	2381
4262.169	2357
4263.699	2386
4265.228	2329
4266.759	2322
4268.289	2402
4269.818	2363
4271.345	2293
4272.874	2371
4274.402	2359
4275.931	2320
4277.458	2425
4278.985	2370
4280.512	2379
4282.037	2370
4283.564	2326
4285.089	2351
4286.615	2323
4288.139	2338
4289.664	2289
4291.187	2304
4292.712	2373
4294.235	2369
4295.759	2293
4297.281	2297
4298.804	2350
4300.327	2347
4301.849	2303
4303.37	2372
4304.891	2253
4306.412	2358
4307.933	2354
4309.453	2359
4310.973	2292
4312.492	2315
