398.1873	4024
400.7097	4002
403.2336	4095
405.7547	4069
408.2751	4076
410.7948	4108
413.3138	3961
415.83	4071
418.3497	4109
420.8666	4226
423.3829	4044
425.8985	4234
428.4133	4215
430.9275	4310
433.441	4253
435.9538	4186
438.4639	4216
440.9753	4327
443.4881	4327
445.9982	4248
448.5055	4256
451.0142	4292
453.5201	4209
456.0274	4254
458.5361	4330
461.04	4281
463.5453	4285
466.0478	4273
468.5517	4232
471.0549	4328
473.5574	4240
476.0572	4263
478.5584	4287
481.0568	4179
483.5545	4363
486.0557	4367
488.5521	4404
491.0478	4300
493.5449	4344
496.0392	4375
498.5349	4386
501.0299	4419
503.5222	4372
506.0139	4359
508.5048	4442
510.9991	4496
513.4887	4421
515.9777	4395
518.4659	4421
520.9534	4427
523.4403	4417
525.9306	4358
528.4161	4482
530.9009	4437
533.3851	4466
535.8687	4383
538.3535	4437
540.8356	4339
543.3171	4428
545.7979	4441
548.278	4520
550.7595	4425
553.2383	4477
555.7144	4427
558.1918	4448
560.6685	4448
563.1446	4517
565.6221	4507
568.0968	4426
570.5688	4530
573.0422	4533
575.515	4561
577.989	4537
580.4584	4696
582.9291	4631
585.3991	4632
587.8685	4636
590.3352	4694
592.8052	4661
595.2706	4684
597.7372	4572
600.2033	4444
602.6666	4564
605.1334	4551
607.5953	4407
610.0587	4583
612.5193	4556
614.9814	4611
617.4427	4631
619.9034	4577
622.3615	4636
624.8208	4504
627.2775	4615
629.7335	4507
632.1929	4520
634.6476	4541
637.1016	4617
639.5569	4597
642.0096	4648
644.4637	4583
646.9151	4600
649.3678	4577
651.8179	4597
654.2672	4653
656.7159	4636
659.166	4706
661.6154	4634
664.0622	4614
666.5082	4699
668.9537	4675
671.4005	4692
673.8445	4648
676.288	4617
678.7308	4752
681.1729	4680
683.6163	4750
686.0572	4777
688.4973	4783
690.9368	4704
693.3757	4711
695.8138	4804
698.2534	4679
700.6902	4736
703.1245	4789
705.56	4698
707.9949	4667
710.4311	4753
712.8647	4830
715.2957	4751
717.7279	4818
720.1595	4818
722.5905	4819
725.0208	4867
727.4505	4799
729.8795	4885
732.3058	4923
734.7336	4887
737.1626	4925
739.587	4912
742.0128	4941
744.4359	4886
746.8604	4832
749.2841	4919
751.7073	4942
754.1278	4903
756.5496	5112
758.9688	5033
761.3893	5030
763.8093	4927
766.2285	5100
768.6451	5060
771.0611	5081
773.4784	5055
775.895	5159
778.3091	5083
780.7244	5018
783.1371	5037
785.5493	5126
787.9626	5020
790.3754	5111
792.7856	5046
795.1951	4961
797.6039	5062
800.0121	4991
802.4236	5083
804.8306	5004
807.2369	5077
809.6425	5168
812.0475	5108
814.4538	5126
816.8575	5044
819.2606	5083
821.663	5146
824.0648	5126
826.4659	5098
828.8683	5215
831.2682	5125
833.6674	5158
836.066	5192
838.4639	5210
840.8632	5218
843.2579	5171
845.6539	5147
848.0493	5189
850.444	5220
852.84	5207
855.2315	5302
857.6243	5247
860.0165	5184
862.4081	5317
864.797	5215
867.1892	5219
869.5789	5287
871.9659	5284
874.3542	5225
876.74	5259
879.129	5186
881.5155	5174
883.8994	5352
886.2845	5276
888.6671	5138
891.051	5138
893.4343	5331
895.8169	5208
898.197	5269
900.5783	5203
902.9571	5230
905.3372	5241
907.7167	5319
910.0936	5330
912.4698	5324
914.8474	5407
917.2244	5386
919.5987	5388
921.9744	5382
924.3475	5395
926.72	5404
929.0918	5424
931.4669	5475
933.8375	5492
936.2074	5416
938.5767	5475
940.9454	5571
943.3154	5517
945.6829	5751
948.0497	5718
950.4178	5852
952.7833	5976
955.1483	6114
957.5145	6274
959.8782	6408
962.2412	6358
964.6036	6177
966.9655	6052
969.3266	5873
971.6871	5807
974.0471	5546
976.4064	5520
978.765	5502
981.125	5434
983.4824	5458
985.8373	5339
988.1935	5413
990.549	5408
992.9039	5369
995.2602	5347
997.6119	5385
999.965	5411
1002.317	5527
1004.667	5427
1007.02	5355
1009.371	5473
1011.719	5321
1014.068	5344
1016.415	5480
1018.765	5460
1021.111	5445
1023.458	5332
1025.804	5482
1028.147	5509
1030.49	5555
1032.837	5487
1035.179	5539
1037.522	5552
1039.862	5424
1042.204	5573
1044.546	5555
1046.884	5528
1049.224	5530
1051.562	5549
1053.899	5569
1056.237	5503
1058.575	5543
1060.91	5500
1063.244	5574
1065.58	5565
1067.913	5586
1070.248	5651
1072.579	5667
1074.911	5644
1077.242	5575
1079.572	5517
1081.905	5530
1084.234	5667
1086.562	5591
1088.89	5554
1091.217	5609
1093.544	5671
1095.871	5623
1098.197	5498
1100.521	5530
1102.845	5598
1105.169	5608
1107.491	5556
1109.814	5492
1112.135	5487
1114.456	5615
1116.776	5589
1119.096	5510
1121.415	5580
1123.734	5525
1126.052	5479
1128.369	5612
1130.686	5645
1133.002	5702
1135.318	5425
1137.632	5613
1139.945	5575
1142.258	5597
1144.573	5521
1146.884	5574
1149.196	5624
1151.505	5517
1153.816	5535
1156.124	5598
1158.435	5595
1160.742	5520
1163.051	5642
1165.356	5578
1167.663	5692
1169.97	5482
1172.276	5717
1174.579	5687
1176.881	5562
1179.186	5598
1181.487	5610
1183.79	5598
1186.092	5676
1188.392	5598
1190.691	5564
1192.991	5771
1195.291	5520
1197.588	5526
1199.885	5597
1202.181	5604
1204.479	5574
1206.775	5618
1209.07	5606
1211.363	5697
1213.656	5653
1215.949	5691
1218.241	5734
1220.534	5664
1222.825	5592
1225.115	5773
1227.405	5712
1229.693	5683
1231.984	5653
1234.271	5679
1236.558	5736
1238.845	5861
1241.131	5793
1243.416	5847
1245.703	5675
1247.987	5923
1250.269	5840
1252.552	5738
1254.834	5838
1257.118	5777
1259.399	5781
1261.678	5794
1263.958	5811
1266.237	5788
1268.516	5882
1270.794	5822
1273.072	5857
1275.347	5867
1277.624	5851
1279.899	5805
1282.175	5881
1284.449	5815
1286.722	5823
1288.995	5695
1291.266	5867
1293.54	5735
1295.81	5781
1298.081	5758
1300.35	5604
1302.62	5802
1304.889	5761
1307.156	5794
1309.425	5701
1311.69	5598
1313.957	5724
1316.222	5753
1318.488	5771
1320.751	5718
1323.016	5718
1325.278	5657
1327.54	5869
1329.803	5868
1332.065	5855
1334.325	5822
1336.584	5753
1338.843	5746
1341.101	5682
1343.36	5807
1345.617	5746
1347.876	5838
1350.131	5861
1352.387	5715
1354.643	5717
1356.897	5758
1359.151	5781
1361.403	5792
1363.656	5673
1365.909	5683
1368.16	5838
1370.409	5827
1372.659	5877
1374.909	5882
1377.157	5794
1379.407	5811
1381.655	5825
1383.9	5867
1386.147	5762
1388.393	5925
1390.64	5880
1392.885	5909
1395.127	5905
1397.37	5938
1399.614	5819
1401.854	5885
1404.098	5887
1406.339	5950
1408.578	5820
1410.818	5981
1413.056	5992
1415.297	5868
1417.533	5929
1419.771	5982
1422.006	5872
1424.243	5986
1426.479	6010
1428.715	6052
1430.948	5951
1433.182	5995
1435.414	6112
1437.647	6074
1439.88	6004
1442.11	5910
1444.342	5981
1446.571	6043
1448.799	6145
1451.029	6125
1453.258	6085
1455.485	6006
1457.711	6054
1459.937	6152
1462.164	6017
1464.39	6082
1466.614	6003
1468.838	6023
1471.06	5962
1473.283	5909
1475.506	6009
1477.727	5929
1479.949	5968
1482.169	5882
1484.389	5832
1486.609	5867
1488.828	5865
1491.045	5816
1493.261	5793
1495.477	5874
1497.693	5810
1499.91	5844
1502.125	5843
1504.339	5872
1506.553	5800
1508.766	5763
1510.979	5814
1513.191	5849
1515.402	5918
1517.613	5859
1519.823	5845
1522.033	5798
1524.242	5818
1526.451	5748
1528.657	5846
1530.865	5898
1533.072	5808
1535.278	5822
1537.484	5879
1539.687	5866
1541.892	5875
1544.096	5898
1546.299	5954
1548.502	5879
1550.703	5969
1552.905	5913
1555.104	5937
1557.303	5832
1559.505	5925
1561.703	5822
1563.902	5885
1566.099	5939
1568.295	6039
1570.494	5958
1572.689	6070
1574.883	5922
1577.079	6031
1579.272	6032
1581.467	5984
1583.659	5972
1585.853	6034
1588.044	6041
1590.234	6139
1592.424	6108
1594.615	6011
1596.806	6058
1598.994	6103
1601.182	6062
1603.369	6108
1605.557	6199
1607.744	6060
1609.929	6072
1612.114	6044
1614.298	6119
1616.482	5949
1618.667	6066
1620.85	6179
1623.032	6118
1625.214	6015
1627.395	6093
1629.575	6170
1631.755	6121
1633.935	6153
1636.114	6202
1638.292	6119
1640.471	6116
1642.647	6099
1644.823	6258
1647	6102
1649.175	6223
1651.348	6085
1653.525	6121
1655.698	6109
1657.87	6144
1660.043	6149
1662.213	6210
1664.387	6188
1666.558	6213
1668.727	6226
1670.896	6186
1673.064	6259
1675.233	6104
1677.401	6168
1679.569	6170
1681.735	6132
1683.902	6214
1686.066	6186
1688.233	6235
1690.397	6126
1692.559	6144
1694.723	6126
1696.885	6036
1699.048	6069
1701.21	6224
1703.37	6175
1705.53	6250
1707.689	6134
1709.849	6092
1712.009	6142
1714.166	6225
1716.323	6113
1718.479	6050
1720.634	6101
1722.793	6104
1724.948	6145
1727.102	6093
1729.255	6127
1731.408	6084
1733.562	6160
1735.714	6057
1737.865	6045
1740.016	6051
1742.166	6071
1744.316	6083
1746.467	6174
1748.616	6080
1750.764	6109
1752.911	6201
1755.056	6160
1757.205	6034
1759.35	6159
1761.496	6154
1763.641	6231
1765.785	6174
1767.927	6131
1770.072	6141
1772.214	6279
1774.355	6193
1776.496	6158
1778.637	6176
1780.778	6120
1782.918	6231
1785.057	6132
1787.194	6168
1789.333	6213
1791.472	6238
1793.608	6200
1795.745	6242
1797.879	6244
1800.015	6252
1802.148	6243
1804.284	6137
1806.417	6194
1808.548	6260
1810.682	6151
1812.812	6141
1814.946	6254
1817.075	6226
1819.205	6343
1821.335	6216
1823.463	6313
1825.59	6315
1827.721	6222
1829.847	6213
1831.973	6213
1834.098	6102
1836.223	6198
1838.351	6303
1840.475	6168
1842.598	6222
1844.721	6271
1846.843	6251
1848.966	6192
1851.087	6050
1853.21	6009
1855.33	6219
1857.449	6081
1859.568	6182
1861.688	6236
1863.806	6090
1865.924	6151
1868.039	6205
1870.155	6248
1872.273	6196
1874.388	6130
1876.503	6069
1878.617	6200
1880.73	6230
1882.844	6175
1884.956	6127
1887.068	6169
1889.18	6159
1891.291	6290
1893.4	6248
1895.511	6132
1897.621	6220
1899.73	6314
1901.837	6273
1903.944	6316
1906.053	6286
1908.159	6241
1910.265	6285
1912.369	6304
1914.474	6316
1916.577	6164
1918.683	6277
1920.785	6234
1922.888	6257
1924.989	6314
1927.091	6361
1929.193	6362
1931.294	6411
1933.393	6277
1935.493	6322
1937.59	6310
1939.689	6360
1941.788	6275
1943.884	6289
1945.98	6402
1948.077	6317
1950.171	6329
1952.267	6332
1954.361	6379
1956.455	6346
1958.548	6280
1960.64	6362
1962.733	6299
1964.824	6316
1966.915	6331
1969.005	6345
1971.096	6423
1973.185	6254
1975.275	6296
1977.363	6276
1979.45	6327
1981.537	6287
1983.623	6214
1985.711	6359
1987.796	6247
1989.881	6169
1991.965	6353
1994.047	6319
1996.132	6325
1998.215	6125
2000.297	6212
2002.378	6287
2004.46	6243
2006.54	6250
2008.62	6331
2010.7	6269
2012.779	6152
2014.858	6172
2016.934	6419
2019.013	6172
2021.09	6333
2023.165	6254
2025.241	6365
2027.317	6203
2029.39	6229
2031.466	6288
2033.538	6238
2035.612	6267
2037.683	6333
2039.755	6285
2041.827	6226
2043.898	6297
2045.968	6240
2048.038	6350
2050.106	6257
2052.177	6250
2054.244	6131
2056.313	6307
2058.379	6279
2060.444	6288
2062.511	6242
2064.577	6298
2066.641	6161
2068.705	6244
2070.77	6365
2072.832	6317
2074.896	6294
2076.958	6356
2079.02	6336
2081.081	6281
2083.141	6343
2085.2	6426
2087.261	6286
2089.319	6385
2091.377	6368
2093.435	6458
2095.492	6196
2097.552	6280
2099.607	6312
2101.663	6264
2103.718	6392
2105.771	6299
2107.826	6229
2109.879	6308
2111.932	6370
2113.985	6338
2116.037	6335
2118.088	6425
2120.141	6415
2122.191	6315
2124.239	6336
2126.288	6200
2128.337	6324
2130.387	6284
2132.434	6224
2134.481	6179
2136.528	6338
2138.574	6450
2140.618	6361
2142.665	6344
2144.71	6323
2146.753	6305
2148.797	6404
2150.838	6366
2152.883	6272
2154.923	6419
2156.965	6317
2159.007	6404
2161.046	6166
2163.086	6238
2165.126	6262
2167.163	6369
2169.202	6418
2171.239	6282
2173.277	6381
2175.314	6224
2177.349	6259
2179.385	6367
2181.42	6253
2183.453	6236
2185.49	6345
2187.522	6200
2189.555	6300
2191.586	6206
2193.619	6230
2195.651	6177
2197.682	6233
2199.711	6205
2201.74	6311
2203.769	6177
2205.799	6266
2207.828	6247
2209.855	6137
2211.882	6118
2213.908	6241
2215.934	6253
2217.961	6234
2219.986	6222
2222.01	6135
2224.034	6293
2226.057	6158
2228.08	6188
2230.104	6206
2232.124	6270
2234.145	6214
2236.166	6222
2238.186	6175
2240.207	6207
2242.227	6250
2244.244	6213
2246.262	6290
2248.28	6295
2250.299	6224
2252.314	6268
2254.33	6182
2256.346	6188
2258.36	6248
2260.375	6339
2262.391	6214
2264.403	6197
2266.416	6224
2268.427	6198
2270.44	6248
2272.453	6130
2274.463	6310
2276.474	6222
2278.483	6193
2280.493	6219
2282.501	6343
2284.51	6146
2286.518	6275
2288.524	6309
2290.532	6230
2292.537	6102
2294.544	6171
2296.55	6113
2298.554	6194
2300.557	6272
2302.562	6137
2304.566	6215
2306.568	6055
2308.569	6211
2310.572	6187
2312.573	6321
2314.573	6181
2316.574	6263
2318.573	6180
2320.571	6298
2322.571	6262
2324.569	6282
2326.567	6189
2328.564	6155
2330.56	6132
2332.556	6259
2334.551	6219
2336.546	6154
2338.542	6212
2340.535	6193
2342.529	6240
2344.521	6303
2346.512	6113
2348.505	6220
2350.497	6117
2352.487	6206
2354.478	6166
2356.468	6149
2358.457	6102
2360.446	6198
2362.434	6053
2364.422	6101
2366.408	6125
2368.395	6082
2370.383	6139
2372.369	6086
2374.353	6235
2376.338	6132
2378.321	6198
2380.307	6227
2382.29	6033
2384.272	6168
2386.254	6034
2388.235	6101
2390.218	6056
2392.198	6062
2394.179	6127
2396.157	6157
2398.137	6190
2400.115	6152
2402.095	6169
2404.072	6084
2406.048	6113
2408.026	5998
2410.001	6052
2411.977	5967
2413.953	6121
2415.927	6006
2417.9	6043
2419.875	6004
2421.847	6201
2423.821	6124
2425.792	6113
2427.763	6072
2429.736	6011
2431.706	6051
2433.677	6094
2435.646	6150
2437.615	6036
2439.583	6026
2441.551	6170
2443.519	6131
2445.486	6038
2447.452	6043
2449.418	6077
2451.383	6140
2453.348	6115
2455.314	6041
2457.278	6178
2459.241	6005
2461.205	6033
2463.167	6112
2465.131	6112
2467.091	6084
2469.052	5968
2471.012	6133
2472.972	6066
2474.932	5967
2476.891	6008
2478.85	6033
2480.808	5993
2482.766	6014
2484.722	5971
2486.68	6083
2488.636	6107
2490.591	5930
2492.546	6055
2494.5	6026
2496.456	5978
2498.41	6044
2500.362	6063
2502.315	6034
2504.266	6106
2506.218	6005
2508.169	6044
2510.121	6104
2512.07	5904
2514.019	6026
2515.968	6050
2517.918	6050
2519.866	6014
2521.813	5903
2523.76	6024
2525.707	6109
2527.653	6034
2529.599	5969
2531.543	6089
2533.489	6016
2535.433	5929
2537.376	5914
2539.32	6155
2541.264	5950
2543.205	5954
2545.147	6071
2547.087	5997
2549.029	5969
2550.969	5989
2552.908	6026
2554.847	6084
2556.786	6026
2558.724	6069
2560.663	5949
2562.6	5982
2564.537	5909
2566.473	5957
2568.408	5984
2570.345	5933
2572.28	6117
2574.214	5945
2576.148	5999
2578.081	5915
2580.014	5906
2581.947	5945
2583.879	6041
2585.81	5957
2587.741	6076
2589.67	6099
2591.602	5968
2593.532	6081
2595.461	5974
2597.388	6075
2599.316	6133
2601.244	6062
2603.172	6142
2605.098	5976
2607.023	6037
2608.949	6116
2610.873	6001
2612.8	6120
2614.723	6108
2616.647	6055
2618.569	6110
2620.493	5947
2622.416	6057
2624.338	6030
2626.258	6032
2628.179	6135
2630.099	6077
2632.019	6147
2633.939	6071
2635.857	6016
2637.775	5991
2639.694	5997
2641.61	6152
2643.528	6060
2645.444	5970
2647.361	6081
2649.276	6026
2651.19	5956
2653.105	5999
2655.019	6170
2656.934	6126
2658.846	6125
2660.758	6076
2662.67	6067
2664.583	6024
2666.493	6077
2668.404	6037
2670.313	6007
2672.223	6032
2674.134	6019
2676.042	6048
2677.95	6064
2679.858	6153
2681.765	5966
2683.673	5902
2685.579	6042
2687.483	6040
2689.389	6004
2691.294	6067
2693.198	6064
2695.104	5904
2697.006	6034
2698.909	5983
2700.811	5931
2702.713	6042
2704.615	6025
2706.516	6021
2708.417	5990
2710.316	6021
2712.216	5938
2714.115	6069
2716.014	6052
2717.913	5950
2719.81	5901
2721.707	6014
2723.603	6032
2725.501	5911
2727.396	6007
2729.292	5892
2731.186	5995
2733.081	6120
2734.976	5931
2736.87	5987
2738.762	5913
2740.653	5822
2742.546	5971
2744.437	5993
2746.329	5925
2748.22	5973
2750.11	5970
2751.999	5886
2753.889	5966
2755.778	5978
2757.666	5958
2759.553	6026
2761.44	6002
2763.328	5944
2765.215	5945
2767.101	5987
2768.986	5943
2770.87	5952
2772.754	5945
2774.638	5905
2776.523	5892
2778.405	5965
2780.288	6023
2782.17	5923
2784.051	5905
2785.934	5988
2787.814	5962
2789.694	5868
2791.574	5915
2793.453	5924
2795.332	5951
2797.212	5846
2799.088	5877
2800.966	5957
2802.843	5843
2804.719	5887
2806.597	5953
2808.471	5839
2810.346	5941
2812.221	5929
2814.094	5941
2815.969	5935
2817.843	5879
2819.714	5967
2821.587	5921
2823.459	6021
2825.329	5953
2827.202	5948
2829.072	5987
2830.942	5920
2832.811	5926
2834.68	5885
2836.549	5845
2838.418	5826
2840.284	5953
2842.152	5836
2844.018	6045
2845.885	5957
2847.751	5955
2849.616	6020
2851.482	5861
2853.345	5898
2855.208	6002
2857.074	6045
2858.937	5967
2860.799	5958
2862.66	6126
2864.522	5953
2866.385	6047
2868.245	6068
2870.104	6054
2871.964	6146
2873.824	6216
2875.683	6137
2877.542	6232
2879.4	6196
2881.257	6283
2883.114	6371
2884.97	6316
2886.827	6136
2888.683	6295
2890.537	6227
2892.392	6301
2894.246	6305
2896.1	6387
2897.954	6256
2899.807	6266
2901.66	6369
2903.51	6301
2905.362	6313
2907.214	6367
2909.065	6231
2910.915	6292
2912.765	6328
2914.613	6228
2916.463	6346
2918.311	6456
2920.158	6426
2922.006	6450
2923.853	6565
2925.698	6586
2927.546	6556
2929.392	6680
2931.236	6644
2933.081	6617
2934.924	6750
2936.77	6610
2938.613	6659
2940.455	6739
2942.298	6744
2944.139	6813
2945.982	6846
2947.823	6917
2949.662	6803
2951.503	6706
2953.342	6700
2955.182	6614
2957.021	6655
2958.858	6672
2960.697	6594
2962.534	6622
2964.37	6461
2966.207	6363
2968.044	6433
2969.879	6489
2971.714	6373
2973.548	6290
2975.383	6301
2977.218	6321
2979.051	6353
2980.883	6238
2982.715	6223
2984.547	6293
2986.379	6290
2988.21	6262
2990.04	6219
2991.87	6166
2993.7	6128
2995.53	6038
2997.359	6144
2999.187	6103
3001.015	6001
3002.842	5983
3004.669	5986
3006.497	5891
3008.323	6018
3010.148	5762
3011.974	5782
3013.797	5918
3015.623	5876
3017.447	5743
3019.27	5733
3021.094	5819
3022.915	5748
3024.737	5725
3026.56	5705
3028.38	5794
3030.201	5636
3032.022	5813
3033.84	5729
3035.662	5660
3037.481	5610
3039.298	5779
3041.117	5682
3042.933	5730
3044.752	5675
3046.568	5718
3048.385	5722
3050.2	5747
3052.016	5744
3053.83	5716
3055.646	5676
3057.46	5612
3059.272	5654
3061.086	5707
3062.898	5698
3064.711	5618
3066.524	5694
3068.335	5623
3070.145	5572
3071.956	5659
3073.766	5641
3075.576	5618
3077.385	5618
3079.193	5589
3081.002	5588
3082.81	5540
3084.618	5545
3086.425	5601
3088.231	5572
3090.036	5506
3091.842	5566
3093.648	5556
3095.452	5574
3097.257	5550
3099.06	5468
3100.863	5466
3102.666	5548
3104.47	5597
3106.272	5517
3108.073	5587
3109.875	5487
3111.676	5614
3113.477	5406
3115.277	5535
3117.077	5522
3118.874	5398
3120.673	5550
3122.473	5493
3124.271	5358
3126.066	5480
3127.863	5500
3129.66	5448
3131.456	5437
3133.252	5432
3135.047	5405
3136.842	5384
3138.635	5408
3140.429	5458
3142.223	5372
3144.016	5452
3145.808	5491
3147.6	5562
3149.392	5429
3151.183	5485
3152.975	5303
3154.765	5406
3156.553	5421
3158.344	5395
3160.132	5359
3161.922	5504
3163.71	5341
3165.497	5259
3167.285	5426
3169.071	5359
3170.858	5382
3172.645	5330
3174.429	5409
3176.214	5349
3177.998	5476
3179.783	5414
3181.568	5241
3183.351	5375
3185.133	5332
3186.915	5315
3188.698	5369
3190.481	5311
3192.261	5316
3194.042	5446
3195.822	5320
3197.601	5311
3199.381	5250
3201.161	5365
3202.939	5379
3204.717	5346
3206.495	5299
3208.272	5178
3210.05	5278
3211.826	5367
3213.602	5327
3215.376	5218
3217.151	5282
3218.927	5272
3220.702	5313
3222.476	5287
3224.249	5314
3226.021	5270
3227.793	5387
3229.567	5288
3231.339	5301
3233.109	5311
3234.88	5419
3236.651	5303
3238.421	5245
3240.191	5287
3241.96	5302
3243.728	5342
3245.497	5340
3247.263	5217
3249.033	5283
3250.799	5360
3252.566	5323
3254.331	5246
3256.097	5316
3257.863	5294
3259.628	5248
3261.392	5311
3263.156	5186
3264.919	5382
3266.683	5252
3268.447	5362
3270.208	5319
3271.969	5261
3273.731	5318
3275.492	5347
3277.253	5311
3279.013	5236
3280.773	5328
3282.532	5297
3284.291	5309
3286.05	5253
3287.808	5256
3289.566	5259
3291.323	5355
3293.079	5253
3294.835	5319
3296.593	5291
3298.348	5298
3300.102	5259
3301.857	5260
3303.611	5222
3305.366	5260
3307.119	5232
3308.872	5292
3310.624	5268
3312.376	5179
3314.129	5183
3315.881	5259
3317.631	5267
3319.38	5287
3321.13	5265
3322.88	5304
3324.631	5269
3326.379	5248
3328.126	5251
3329.875	5281
3331.622	5240
3333.371	5259
3335.116	5102
3336.863	5257
3338.609	5135
3340.353	5250
3342.1	5276
3343.845	5235
3345.588	5225
3347.332	5236
3349.074	5195
3350.817	5213
3352.56	5208
3354.303	5147
3356.043	5274
3357.785	5185
3359.525	5201
3361.268	5180
3363.007	5287
3364.745	5191
3366.485	5251
3368.223	5201
3369.962	5030
3371.701	5184
3373.438	5168
3375.174	5153
3376.911	5122
3378.647	5221
3380.384	5197
3382.118	5095
3383.854	5178
3385.588	5206
3387.322	5100
3389.057	5118
3390.79	5248
3392.522	5028
3394.255	5077
3395.987	5073
3397.719	5221
3399.451	5055
3401.181	5212
3402.911	5162
3404.641	5193
3406.371	5087
3408.101	5076
3409.83	5156
3411.558	5070
3413.285	5112
3415.011	5087
3416.739	5146
3418.467	5121
3420.193	5050
3421.919	5101
3423.644	5070
3425.368	5039
3427.094	5192
3428.818	5078
3430.542	5042
3432.264	5031
3433.987	5043
3435.712	5024
3437.434	5063
3439.155	5129
3440.876	5005
3442.596	4989
3444.317	5054
3446.039	5057
3447.757	4951
3449.477	5004
3451.195	4973
3452.914	5019
3454.632	4993
3456.35	5001
3458.067	4933
3459.784	4905
3461.5	4985
3463.216	5004
3464.932	4939
3466.647	4808
3468.362	5043
3470.076	4908
3471.789	4881
3473.505	4945
3475.217	4824
3476.929	5015
3478.641	4898
3480.354	4861
3482.066	4868
3483.777	5008
3485.487	4926
3487.197	4910
3488.908	4912
3490.617	4752
3492.327	4857
3494.035	4874
3495.743	4807
3497.451	4871
3499.158	4980
3500.866	4827
3502.572	4841
3504.278	4917
3505.984	4880
3507.689	4784
3509.396	4825
3511.1	4814
3512.804	4711
3514.508	4801
3516.211	4918
3517.913	4884
3519.616	4770
3521.319	4771
3523.021	4855
3524.722	4772
3526.422	4677
3528.124	4781
3529.824	4721
3531.524	4797
3533.222	4764
3534.921	4676
3536.62	4868
3538.318	4703
3540.016	4770
3541.714	4727
3543.41	4756
3545.107	4782
3546.803	4775
3548.5	4744
3550.194	4788
3551.889	4782
3553.583	4774
3555.279	4690
3556.972	4742
3558.666	4691
3560.358	4773
3562.051	4748
3563.742	4688
3565.435	4702
3567.126	4761
3568.817	4757
3570.507	4708
3572.197	4718
3573.888	4720
3575.577	4826
3577.265	4573
3578.954	4691
3580.642	4679
3582.329	4625
3584.017	4642
3585.704	4657
3587.391	4590
3589.077	4657
3590.762	4605
3592.449	4660
3594.133	4553
3595.817	4529
3597.501	4650
3599.185	4665
3600.869	4581
3602.552	4527
3604.234	4575
3605.916	4769
3607.598	4644
3609.279	4514
3610.961	4559
3612.642	4556
3614.321	4586
3616	4608
3617.68	4553
3619.36	4575
3621.039	4603
3622.716	4565
3624.394	4596
3626.071	4551
3627.748	4533
3629.425	4576
3631.102	4432
3632.778	4519
3634.452	4564
3636.127	4531
3637.803	4481
3639.477	4549
3641.151	4519
3642.823	4464
3644.497	4475
3646.171	4392
3647.842	4443
3649.515	4459
3651.185	4532
3652.857	4463
3654.527	4443
3656.198	4403
3657.868	4432
3659.537	4393
3661.207	4343
3662.875	4455
3664.544	4510
3666.212	4398
3667.879	4435
3669.546	4516
3671.212	4376
3672.88	4450
3674.546	4375
3676.211	4442
3677.875	4495
3679.541	4385
3681.205	4391
3682.87	4333
3684.533	4451
3686.196	4423
3687.859	4414
3689.521	4442
3691.184	4421
3692.845	4382
3694.507	4412
3696.167	4358
3697.827	4306
3699.487	4418
3701.148	4493
3702.808	4394
3704.466	4444
3706.125	4363
3707.783	4429
3709.442	4328
3711.099	4402
3712.757	4293
3714.412	4394
3716.068	4320
3717.725	4369
3719.381	4344
3721.036	4369
3722.689	4340
3724.344	4444
3725.998	4333
3727.652	4324
3729.305	4359
3730.958	4374
3732.61	4237
3734.262	4346
3735.915	4339
3737.565	4340
3739.217	4268
3740.866	4165
3742.516	4371
3744.165	4329
3745.816	4340
3747.464	4374
3749.113	4311
3750.761	4268
3752.409	4378
3754.057	4318
3755.703	4290
3757.35	4240
3758.996	4355
3760.641	4338
3762.289	4178
3763.933	4336
3765.577	4258
3767.222	4265
3768.865	4306
3770.508	4211
3772.152	4273
3773.796	4207
3775.438	4259
3777.079	4222
3778.721	4246
3780.363	4239
3782.003	4265
3783.643	4180
3785.283	4173
3786.923	4186
3788.563	4189
3790.203	4179
3791.841	4223
3793.479	4174
3795.115	4135
3796.753	4133
3798.391	4195
3800.027	4231
3801.664	4212
3803.299	4205
3804.935	4173
3806.571	4121
3808.206	4127
3809.839	4040
3811.473	4169
3813.107	4215
3814.74	4133
3816.375	4086
3818.006	4189
3819.638	4094
3821.27	4168
3822.9	4083
3824.532	4149
3826.163	4188
3827.792	4071
3829.423	4087
3831.051	4098
3832.682	4081
3834.311	4135
3835.938	3992
3837.566	4059
3839.193	4127
3840.821	4111
3842.448	4110
3844.075	4064
3845.7	4082
3847.325	4048
3848.951	4026
3850.576	4052
3852.201	4066
3853.825	4059
3855.448	4020
3857.072	4071
3858.694	4070
3860.318	4067
3861.939	4083
3863.562	3966
3865.183	4050
3866.804	4031
3868.426	4062
3870.045	3981
3871.666	4043
3873.285	4077
3874.904	4051
3876.524	3960
3878.142	4016
3879.76	3968
3881.378	3989
3882.995	4098
3884.612	4033
3886.229	4027
3887.845	3923
3889.461	4040
3891.076	4044
3892.691	4032
3894.307	4005
3895.922	4041
3897.536	3976
3899.149	3973
3900.761	3977
3902.374	3970
3903.988	4003
3905.6	3956
3907.212	3994
3908.822	4020
3910.433	3983
3912.045	4034
3913.655	3992
3915.265	4060
3916.875	4020
3918.483	3982
3920.093	3931
3921.702	3982
3923.309	4032
3924.917	3953
3926.523	3982
3928.13	3971
3929.739	3928
3931.344	3910
3932.95	4003
3934.555	4054
3936.159	3916
3937.766	3934
3939.369	4037
3940.974	4012
3942.577	4009
3944.181	3960
3945.783	4062
3947.386	3891
3948.989	3950
3950.59	3905
3952.191	3996
3953.791	3913
3955.394	3976
3956.994	3922
3958.593	3935
3960.192	3985
3961.791	3902
3963.392	3869
3964.99	3852
3966.588	3885
3968.185	3919
3969.782	3791
3971.379	3908
3972.976	3927
3974.572	3825
3976.168	3895
3977.763	3833
3979.358	3821
3980.954	3814
3982.548	3772
3984.142	3838
3985.736	3786
3987.329	3778
3988.922	3893
3990.516	3776
3992.108	3886
3993.698	3810
3995.29	3795
3996.881	3852
3998.473	3827
4000.064	3821
4001.653	3781
4003.242	3863
4004.832	3812
4006.422	3833
4008.01	3838
4009.598	3700
4011.186	3838
4012.773	3818
4014.36	3720
4015.947	3716
4017.534	3811
4019.119	3754
4020.705	3691
4022.291	3769
4023.876	3696
4025.461	3754
4027.044	3745
4028.627	3676
4030.211	3693
4031.795	3739
4033.378	3635
4034.96	3651
4036.542	3769
4038.124	3685
4039.704	3681
4041.286	3734
4042.867	3752
4044.447	3718
4046.026	3654
4047.606	3672
4049.187	3739
4050.765	3611
4052.343	3685
4053.92	3666
4055.498	3619
4057.076	3635
4058.654	3697
4060.23	3675
4061.806	3627
4063.381	3655
4064.957	3693
4066.533	3551
4068.107	3625
4069.682	3675
4071.256	3629
4072.829	3606
4074.404	3562
4075.977	3558
4077.549	3693
4079.121	3623
4080.693	3635
4082.265	3622
4083.836	3606
4085.407	3580
4086.977	3667
4088.547	3596
4090.117	3710
4091.687	3588
4093.256	3631
4094.825	3613
4096.392	3602
4097.96	3586
4099.528	3690
4101.097	3625
4102.663	3556
4104.229	3612
4105.795	3585
4107.361	3539
4108.928	3547
4110.493	3619
4112.058	3574
4113.621	3571
4115.186	3513
4116.75	3547
4118.313	3474
4119.876	3501
4121.438	3561
4123	3498
4124.562	3547
4126.125	3502
4127.686	3594
4129.246	3513
4130.807	3598
4132.367	3479
4133.927	3502
4135.486	3531
4137.046	3532
4138.604	3519
4140.162	3457
4141.72	3492
4143.279	3431
4144.836	3498
4146.393	3555
4147.949	3456
4149.505	3521
4151.062	3446
4152.617	3467
4154.172	3512
4155.727	3482
4157.281	3485
4158.836	3368
4160.39	3499
4161.943	3479
4163.496	3450
4165.048	3443
4166.601	3477
4168.154	3503
4169.706	3502
4171.257	3454
4172.808	3469
4174.358	3409
4175.909	3419
4177.458	3428
4179.008	3380
4180.558	3386
4182.106	3401
4183.655	3334
4185.204	3330
4186.751	3408
4188.298	3356
4189.845	3367
4191.392	3381
4192.939	3393
4194.485	3368
4196.031	3311
4197.576	3357
4199.121	3449
4200.666	3378
4202.211	3368
4203.754	3399
4205.298	3324
4206.84	3373
4208.384	3397
4209.927	3326
4211.47	3338
4213.011	3373
4214.552	3311
4216.094	3362
4217.635	3386
4219.175	3290
4220.716	3290
4222.255	3334
4223.793	3322
4225.335	3295
4226.873	3296
4228.411	3338
4229.948	3267
4231.486	3346
4233.024	3339
4234.562	3323
4236.098	3282
4237.634	3253
4239.169	3225
4240.705	3307
4242.241	3293
4243.776	3261
4245.31	3301
4246.844	3283
4248.378	3296
4249.911	3319
4251.445	3323
4252.978	3231
4254.51	3186
4256.042	3262
4257.574	3327
4259.107	3340
4260.638	3243
4262.169	3289
4263.699	3245
4265.228	3248
4266.759	3259
4268.289	3273
4269.818	3294
4271.345	3197
4272.874	3296
4274.402	3205
4275.931	3226
4277.458	3227
4278.985	3223
4280.512	3208
4282.037	3310
4283.564	3206
4285.089	3195
4286.615	3263
4288.139	3246
4289.664	3247
4291.187	3223
4292.712	3233
4294.235	3221
4295.759	3161
4297.281	3153
4298.804	3170
4300.327	3192
4301.849	3126
4303.37	3165
4304.891	3185
4306.412	3173
4307.933	3126
4309.453	3149
4310.973	3141
4312.492	3148
