398.1873	4580
400.7097	4424
403.2336	4517
405.7547	4521
408.2751	4481
410.7948	4633
413.3138	4593
415.83	4556
418.3497	4559
420.8666	4546
423.3829	4686
425.8985	4714
428.4133	4745
430.9275	4775
433.441	4779
435.9538	4798
438.4639	4693
440.9753	4837
443.4881	4897
445.9982	4658
448.5055	4825
451.0142	4779
453.5201	4825
456.0274	4837
458.5361	4768
461.04	4743
463.5453	4806
466.0478	4877
468.5517	4852
471.0549	4724
473.5574	4819
476.0572	4818
478.5584	4736
481.0568	4860
483.5545	4881
486.0557	4855
488.5521	4955
491.0478	4862
493.5449	4878
496.0392	4854
498.5349	4902
501.0299	4890
503.5222	4887
506.0139	4955
508.5048	4969
510.9991	4899
513.4887	5056
515.9777	4945
518.4659	4978
520.9534	4945
523.4403	5108
525.9306	4980
528.4161	4918
530.9009	4978
533.3851	5003
535.8687	4926
538.3535	4927
540.8356	4981
543.3171	5154
545.7979	4960
548.278	5003
550.7595	4957
553.2383	5014
555.7144	4968
558.1918	4985
560.6685	5006
563.1446	5049
565.6221	5069
568.0968	5132
570.5688	5120
573.0422	5081
575.515	5035
577.989	5139
580.4584	5234
582.9291	5186
585.3991	5120
587.8685	5241
590.3352	5257
592.8052	5092
595.2706	5191
597.7372	5219
600.2033	5165
602.6666	5133
605.1334	5183
607.5953	5112
610.0587	5227
612.5193	5097
614.9814	5102
617.4427	5131
619.9034	5110
622.3615	5039
624.8208	5235
627.2775	5088
629.7335	5159
632.1929	5148
634.6476	5181
637.1016	5130
639.5569	5251
642.0096	5140
644.4637	5184
646.9151	5215
649.3678	5257
651.8179	5071
654.2672	5271
656.7159	5263
659.166	5230
661.6154	5271
664.0622	5183
666.5082	5253
668.9537	5380
671.4005	5302
673.8445	5373
676.288	5212
678.7308	5327
681.1729	5301
683.6163	5399
686.0572	5366
688.4973	5345
690.9368	5392
693.3757	5331
695.8138	5321
698.2534	5360
700.6902	5317
703.1245	5292
705.56	5445
707.9949	5406
710.4311	5430
712.8647	5457
715.2957	5441
717.7279	5405
720.1595	5384
722.5905	5525
725.0208	5437
727.4505	5579
729.8795	5507
732.3058	5503
734.7336	5485
737.1626	5549
739.587	5569
742.0128	5546
744.4359	5593
746.8604	5595
749.2841	5589
751.7073	5700
754.1278	5720
756.5496	5630
758.9688	5624
761.3893	5709
763.8093	5742
766.2285	5667
768.6451	5731
771.0611	5655
773.4784	5803
775.895	5825
778.3091	5738
780.7244	5685
783.1371	5738
785.5493	5625
787.9626	5791
790.3754	5817
792.7856	5719
795.1951	5811
797.6039	5677
800.0121	5764
802.4236	5619
804.8306	5812
807.2369	5793
809.6425	5800
812.0475	5850
814.4538	5893
816.8575	5691
819.2606	5793
821.663	5812
824.0648	5747
826.4659	5723
828.8683	5738
831.2682	5886
833.6674	5855
836.066	5867
838.4639	5805
840.8632	5770
843.2579	5790
845.6539	5959
848.0493	5887
850.444	5924
852.84	5906
855.2315	5913
857.6243	5875
860.0165	5860
862.4081	5924
864.797	5865
867.1892	5892
869.5789	5911
871.9659	5879
874.3542	5875
876.74	5888
879.129	5864
881.5155	5842
883.8994	5868
886.2845	5893
888.6671	5894
891.051	5929
893.4343	5895
895.8169	5918
898.197	5788
900.5783	5869
902.9571	5933
905.3372	5913
907.7167	5906
910.0936	6025
912.4698	6020
914.8474	6032
917.2244	6007
919.5987	6105
921.9744	6068
924.3475	6102
926.72	6060
929.0918	6229
931.4669	5998
933.8375	6060
936.2074	6166
938.5767	6214
940.9454	6165
943.3154	6312
945.6829	6309
948.0497	6414
950.4178	6399
952.7833	6697
955.1483	6818
957.5145	7008
959.8782	7030
962.2412	6964
964.6036	6889
966.9655	6707
969.3266	6624
971.6871	6498
974.0471	6291
976.4064	6231
978.765	6198
981.125	6053
983.4824	5972
985.8373	6145
988.1935	6018
990.549	6020
992.9039	6175
995.2602	6160
997.6119	6126
999.965	6042
1002.317	6136
1004.667	5985
1007.02	6123
1009.371	6087
1011.719	6081
1014.068	6109
1016.415	6103
1018.765	6139
1021.111	6071
1023.458	6131
1025.804	6192
1028.147	6100
1030.49	6137
1032.837	6277
1035.179	6282
1037.522	6147
1039.862	6222
1042.204	6143
1044.546	6177
1046.884	6280
1049.224	6135
1051.562	6198
1053.899	6174
1056.237	6150
1058.575	6199
1060.91	6326
1063.244	6241
1065.58	6228
1067.913	6340
1070.248	6238
1072.579	6430
1074.911	6379
1077.242	6283
1079.572	6261
1081.905	6278
1084.234	6312
1086.562	6343
1088.89	6139
1091.217	6177
1093.544	6276
1095.871	6314
1098.197	6229
1100.521	6322
1102.845	6328
1105.169	6241
1107.491	6197
1109.814	6303
1112.135	6329
1114.456	6332
1116.776	6286
1119.096	6271
1121.415	6216
1123.734	6337
1126.052	6409
1128.369	6279
1130.686	6340
1133.002	6348
1135.318	6278
1137.632	6322
1139.945	6348
1142.258	6310
1144.573	6242
1146.884	6320
1149.196	6341
1151.505	6276
1153.816	6289
1156.124	6381
1158.435	6347
1160.742	6277
1163.051	6323
1165.356	6307
1167.663	6341
1169.97	6312
1172.276	6273
1174.579	6295
1176.881	6251
1179.186	6250
1181.487	6316
1183.79	6300
1186.092	6319
1188.392	6281
1190.691	6385
1192.991	6212
1195.291	6316
1197.588	6371
1199.885	6330
1202.181	6357
1204.479	6422
1206.775	6388
1209.07	6387
1211.363	6401
1213.656	6417
1215.949	6325
1218.241	6433
1220.534	6380
1222.825	6465
1225.115	6447
1227.405	6383
1229.693	6401
1231.984	6352
1234.271	6524
1236.558	6450
1238.845	6439
1241.131	6622
1243.416	6485
1245.703	6486
1247.987	6670
1250.269	6532
1252.552	6585
1254.834	6539
1257.118	6468
1259.399	6512
1261.678	6479
1263.958	6431
1266.237	6645
1268.516	6490
1270.794	6592
1273.072	6594
1275.347	6520
1277.624	6496
1279.899	6503
1282.175	6501
1284.449	6591
1286.722	6684
1288.995	6482
1291.266	6481
1293.54	6566
1295.81	6438
1298.081	6474
1300.35	6379
1302.62	6377
1304.889	6556
1307.156	6446
1309.425	6487
1311.69	6513
1313.957	6446
1316.222	6584
1318.488	6473
1320.751	6425
1323.016	6517
1325.278	6493
1327.54	6611
1329.803	6538
1332.065	6524
1334.325	6609
1336.584	6648
1338.843	6550
1341.101	6414
1343.36	6646
1345.617	6606
1347.876	6468
1350.131	6630
1352.387	6477
1354.643	6499
1356.897	6569
1359.151	6570
1361.403	6531
1363.656	6484
1365.909	6590
1368.16	6627
1370.409	6609
1372.659	6536
1374.909	6672
1377.157	6506
1379.407	6672
1381.655	6566
1383.9	6545
1386.147	6577
1388.393	6525
1390.64	6601
1392.885	6583
1395.127	6591
1397.37	6546
1399.614	6653
1401.854	6632
1404.098	6632
1406.339	6580
1408.578	6581
1410.818	6675
1413.056	6649
1415.297	6661
1417.533	6729
1419.771	6714
1422.006	6688
1424.243	6679
1426.479	6763
1428.715	6725
1430.948	6801
1433.182	6875
1435.414	6750
1437.647	6698
1439.88	6779
1442.11	6728
1444.342	6824
1446.571	6880
1448.799	6800
1451.029	6781
1453.258	6796
1455.485	6823
1457.711	6823
1459.937	6770
1462.164	6890
1464.39	6754
1466.614	6685
1468.838	6771
1471.06	6776
1473.283	6773
1475.506	6697
1477.727	6707
1479.949	6710
1482.169	6699
1484.389	6710
1486.609	6656
1488.828	6586
1491.045	6566
1493.261	6520
1495.477	6661
1497.693	6601
1499.91	6694
1502.125	6563
1504.339	6536
1506.553	6540
1508.766	6588
1510.979	6663
1513.191	6545
1515.402	6493
1517.613	6613
1519.823	6520
1522.033	6629
1524.242	6654
1526.451	6565
1528.657	6539
1530.865	6648
1533.072	6460
1535.278	6595
1537.484	6609
1539.687	6638
1541.892	6638
1544.096	6603
1546.299	6605
1548.502	6783
1550.703	6690
1552.905	6623
1555.104	6712
1557.303	6748
1559.505	6692
1561.703	6744
1563.902	6626
1566.099	6626
1568.295	6718
1570.494	6586
1572.689	6791
1574.883	6843
1577.079	6774
1579.272	6793
1581.467	6678
1583.659	6722
1585.853	6878
1588.044	6856
1590.234	6728
1592.424	6803
1594.615	6716
1596.806	6805
1598.994	6790
1601.182	6826
1603.369	6842
1605.557	6810
1607.744	6848
1609.929	6892
1612.114	6855
1614.298	6826
1616.482	6852
1618.667	6887
1620.85	7014
1623.032	6932
1625.214	6831
1627.395	6806
1629.575	6758
1631.755	6824
1633.935	6968
1636.114	6903
1638.292	6933
1640.471	6992
1642.647	6919
1644.823	6922
1647	6893
1649.175	6897
1651.348	6810
1653.525	7041
1655.698	6842
1657.87	6996
1660.043	6884
1662.213	6981
1664.387	6808
1666.558	7003
1668.727	6961
1670.896	6854
1673.064	6913
1675.233	7003
1677.401	6949
1679.569	6901
1681.735	6966
1683.902	6985
1686.066	6943
1688.233	6936
1690.397	7005
1692.559	7070
1694.723	6713
1696.885	6867
1699.048	6823
1701.21	6979
1703.37	6812
1705.53	6816
1707.689	6901
1709.849	6898
1712.009	6866
1714.166	6919
1716.323	6831
1718.479	6756
1720.634	6787
1722.793	7013
1724.948	6801
1727.102	6983
1729.255	6893
1731.408	6942
1733.562	6851
1735.714	6906
1737.865	6844
1740.016	6833
1742.166	6816
1744.316	6797
1746.467	6882
1748.616	6826
1750.764	6917
1752.911	6956
1755.056	6879
1757.205	6920
1759.35	6921
1761.496	6929
1763.641	6892
1765.785	6925
1767.927	6974
1770.072	7025
1772.214	6991
1774.355	6910
1776.496	6955
1778.637	6959
1780.778	6872
1782.918	7019
1785.057	6974
1787.194	6981
1789.333	6964
1791.472	6981
1793.608	7108
1795.745	6984
1797.879	6998
1800.015	7054
1802.148	6971
1804.284	6974
1806.417	7038
1808.548	7116
1810.682	6882
1812.812	6966
1814.946	6907
1817.075	6961
1819.205	7022
1821.335	7045
1823.463	7035
1825.59	6918
1827.721	6981
1829.847	6894
1831.973	6957
1834.098	6862
1836.223	6990
1838.351	6880
1840.475	6857
1842.598	6905
1844.721	6940
1846.843	6959
1848.966	6959
1851.087	6885
1853.21	6889
1855.33	6929
1857.449	6916
1859.568	6907
1861.688	6917
1863.806	6951
1865.924	6852
1868.039	7021
1870.155	6909
1872.273	6953
1874.388	6958
1876.503	6890
1878.617	6871
1880.73	6959
1882.844	6981
1884.956	6975
1887.068	6962
1889.18	6957
1891.291	7006
1893.4	6896
1895.511	6945
1897.621	7060
1899.73	6963
1901.837	6919
1903.944	6975
1906.053	6906
1908.159	6899
1910.265	7130
1912.369	6984
1914.474	7089
1916.577	7020
1918.683	7038
1920.785	7044
1922.888	7140
1924.989	7054
1927.091	7112
1929.193	6934
1931.294	7069
1933.393	7062
1935.493	7022
1937.59	6998
1939.689	7023
1941.788	7211
1943.884	7056
1945.98	7064
1948.077	7088
1950.171	7043
1952.267	7054
1954.361	6989
1956.455	7096
1958.548	7189
1960.64	7037
1962.733	6939
1964.824	7145
1966.915	6992
1969.005	7093
1971.096	7065
1973.185	7108
1975.275	7045
1977.363	6958
1979.45	7052
1981.537	7068
1983.623	7011
1985.711	7051
1987.796	7097
1989.881	7060
1991.965	6968
1994.047	7016
1996.132	7044
1998.215	6993
2000.297	7053
2002.378	6990
2004.46	6887
2006.54	6948
2008.62	6909
2010.7	7021
2012.779	7010
2014.858	6979
2016.934	7078
2019.013	6987
2021.09	7089
2023.165	6944
2025.241	7120
2027.317	6949
2029.39	6982
2031.466	7008
2033.538	7098
2035.612	7014
2037.683	7009
2039.755	7083
2041.827	7074
2043.898	7044
2045.968	7118
2048.038	6939
2050.106	7051
2052.177	6901
2054.244	6997
2056.313	6929
2058.379	6983
2060.444	7027
2062.511	7030
2064.577	6921
2066.641	7065
2068.705	7067
2070.77	7100
2072.832	6992
2074.896	7025
2076.958	7017
2079.02	6991
2081.081	7052
2083.141	7007
2085.2	6948
2087.261	7102
2089.319	7004
2091.377	6977
2093.435	7055
2095.492	7082
2097.552	7030
2099.607	7042
2101.663	7118
2103.718	7152
2105.771	7058
2107.826	7071
2109.879	7066
2111.932	6869
2113.985	7079
2116.037	7004
2118.088	7102
2120.141	6948
2122.191	7033
2124.239	6976
2126.288	7010
2128.337	7085
2130.387	6908
2132.434	7066
2134.481	6951
2136.528	7011
2138.574	7038
2140.618	7047
2142.665	6977
2144.71	7048
2146.753	7116
2148.797	6948
2150.838	6996
2152.883	6955
2154.923	7001
2156.965	6977
2159.007	6993
2161.046	7027
2163.086	6918
2165.126	7024
2167.163	6980
2169.202	6943
2171.239	7004
2173.277	6936
2175.314	6957
2177.349	6916
2179.385	6960
2181.42	6934
2183.453	6845
2185.49	6893
2187.522	6935
2189.555	7014
2191.586	6853
2193.619	7037
2195.651	6907
2197.682	6942
2199.711	6928
2201.74	6959
2203.769	6864
2205.799	6885
2207.828	6866
2209.855	6821
2211.882	6916
2213.908	6870
2215.934	6907
2217.961	6881
2219.986	6825
2222.01	6961
2224.034	6898
2226.057	7031
2228.08	6746
2230.104	6876
2232.124	6897
2234.145	6885
2236.166	6941
2238.186	6939
2240.207	6864
2242.227	7000
2244.244	6824
2246.262	6945
2248.28	6946
2250.299	6849
2252.314	6830
2254.33	6815
2256.346	6801
2258.36	6863
2260.375	6952
2262.391	6924
2264.403	6839
2266.416	6888
2268.427	6903
2270.44	6807
2272.453	6879
2274.463	6896
2276.474	6908
2278.483	6830
2280.493	6913
2282.501	6960
2284.51	6828
2286.518	6839
2288.524	6869
2290.532	6947
2292.537	6932
2294.544	7004
2296.55	6904
2298.554	6911
2300.557	6835
2302.562	6785
2304.566	6920
2306.568	6826
2308.569	6739
2310.572	6950
2312.573	6926
2314.573	6750
2316.574	6809
2318.573	6802
2320.571	6737
2322.571	6882
2324.569	6908
2326.567	6826
2328.564	6814
2330.56	6800
2332.556	6776
2334.551	6895
2336.546	6863
2338.542	6889
2340.535	6670
2342.529	6897
2344.521	6788
2346.512	6875
2348.505	6811
2350.497	6790
2352.487	6902
2354.478	6763
2356.468	6786
2358.457	6774
2360.446	6668
2362.434	6763
2364.422	6728
2366.408	6728
2368.395	6733
2370.383	6866
2372.369	6779
2374.353	6797
2376.338	6795
2378.321	6685
2380.307	6726
2382.29	6792
2384.272	6780
2386.254	6760
2388.235	6804
2390.218	6766
2392.198	6658
2394.179	6633
2396.157	6726
2398.137	6815
2400.115	6705
2402.095	6777
2404.072	6700
2406.048	6841
2408.026	6595
2410.001	6710
2411.977	6700
2413.953	6749
2415.927	6716
2417.9	6628
2419.875	6676
2421.847	6647
2423.821	6739
2425.792	6771
2427.763	6631
2429.736	6755
2431.706	6619
2433.677	6845
2435.646	6661
2437.615	6633
2439.583	6730
2441.551	6728
2443.519	6690
2445.486	6684
2447.452	6780
2449.418	6694
2451.383	6632
2453.348	6712
2455.314	6699
2457.278	6673
2459.241	6538
2461.205	6667
2463.167	6621
2465.131	6727
2467.091	6616
2469.052	6723
2471.012	6678
2472.972	6628
2474.932	6628
2476.891	6634
2478.85	6626
2480.808	6572
2482.766	6622
2484.722	6613
2486.68	6571
2488.636	6678
2490.591	6741
2492.546	6632
2494.5	6632
2496.456	6630
2498.41	6595
2500.362	6618
2502.315	6582
2504.266	6647
2506.218	6657
2508.169	6629
2510.121	6616
2512.07	6633
2514.019	6488
2515.968	6702
2517.918	6558
2519.866	6641
2521.813	6609
2523.76	6548
2525.707	6587
2527.653	6557
2529.599	6623
2531.543	6506
2533.489	6559
2535.433	6509
2537.376	6557
2539.32	6581
2541.264	6626
2543.205	6588
2545.147	6740
2547.087	6577
2549.029	6621
2550.969	6521
2552.908	6661
2554.847	6675
2556.786	6627
2558.724	6531
2560.663	6605
2562.6	6666
2564.537	6484
2566.473	6625
2568.408	6547
2570.345	6561
2572.28	6650
2574.214	6547
2576.148	6600
2578.081	6585
2580.014	6472
2581.947	6676
2583.879	6615
2585.81	6584
2587.741	6651
2589.67	6596
2591.602	6626
2593.532	6635
2595.461	6577
2597.388	6665
2599.316	6609
2601.244	6594
2603.172	6632
2605.098	6474
2607.023	6593
2608.949	6540
2610.873	6707
2612.8	6704
2614.723	6585
2616.647	6592
2618.569	6531
2620.493	6628
2622.416	6652
2624.338	6681
2626.258	6671
2628.179	6631
2630.099	6655
2632.019	6750
2633.939	6721
2635.857	6531
2637.775	6669
2639.694	6674
2641.61	6579
2643.528	6652
2645.444	6639
2647.361	6499
2649.276	6515
2651.19	6572
2653.105	6694
2655.019	6530
2656.934	6585
2658.846	6562
2660.758	6623
2662.67	6603
2664.583	6575
2666.493	6607
2668.404	6604
2670.313	6532
2672.223	6620
2674.134	6571
2676.042	6512
2677.95	6636
2679.858	6659
2681.765	6539
2683.673	6511
2685.579	6473
2687.483	6562
2689.389	6606
2691.294	6690
2693.198	6588
2695.104	6534
2697.006	6588
2698.909	6515
2700.811	6524
2702.713	6492
2704.615	6572
2706.516	6473
2708.417	6490
2710.316	6567
2712.216	6501
2714.115	6458
2716.014	6503
2717.913	6572
2719.81	6524
2721.707	6449
2723.603	6536
2725.501	6516
2727.396	6466
2729.292	6545
2731.186	6503
2733.081	6646
2734.976	6399
2736.87	6561
2738.762	6484
2740.653	6558
2742.546	6568
2744.437	6562
2746.329	6527
2748.22	6454
2750.11	6610
2751.999	6422
2753.889	6385
2755.778	6536
2757.666	6406
2759.553	6384
2761.44	6563
2763.328	6523
2765.215	6425
2767.101	6330
2768.986	6464
2770.87	6582
2772.754	6435
2774.638	6522
2776.523	6433
2778.405	6414
2780.288	6420
2782.17	6295
2784.051	6379
2785.934	6393
2787.814	6494
2789.694	6482
2791.574	6422
2793.453	6425
2795.332	6474
2797.212	6439
2799.088	6382
2800.966	6504
2802.843	6300
2804.719	6451
2806.597	6399
2808.471	6468
2810.346	6461
2812.221	6344
2814.094	6300
2815.969	6345
2817.843	6402
2819.714	6514
2821.587	6396
2823.459	6420
2825.329	6296
2827.202	6413
2829.072	6274
2830.942	6398
2832.811	6398
2834.68	6309
2836.549	6314
2838.418	6343
2840.284	6383
2842.152	6497
2844.018	6452
2845.885	6368
2847.751	6492
2849.616	6419
2851.482	6433
2853.345	6456
2855.208	6520
2857.074	6542
2858.937	6452
2860.799	6455
2862.66	6445
2864.522	6483
2866.385	6446
2868.245	6560
2870.104	6467
2871.964	6573
2873.824	6645
2875.683	6794
2877.542	6705
2879.4	6610
2881.257	6746
2883.114	6729
2884.97	6787
2886.827	6628
2888.683	6696
2890.537	6682
2892.392	6610
2894.246	6728
2896.1	6671
2897.954	6784
2899.807	6580
2901.66	6684
2903.51	6619
2905.362	6620
2907.214	6742
2909.065	6741
2910.915	6666
2912.765	6733
2914.613	6701
2916.463	6813
2918.311	6766
2920.158	6828
2922.006	6822
2923.853	7002
2925.698	6891
2927.546	6849
2929.392	7008
2931.236	7054
2933.081	7036
2934.924	7135
2936.77	7141
2938.613	7036
2940.455	7171
2942.298	7225
2944.139	7192
2945.982	7261
2947.823	7034
2949.662	7109
2951.503	7155
2953.342	7009
2955.182	6961
2957.021	6994
2958.858	7044
2960.697	6960
2962.534	6900
2964.37	6939
2966.207	6781
2968.044	6814
2969.879	6677
2971.714	6851
2973.548	6651
2975.383	6800
2977.218	6740
2979.051	6691
2980.883	6693
2982.715	6672
2984.547	6615
2986.379	6568
2988.21	6759
2990.04	6548
2991.87	6566
2993.7	6591
2995.53	6525
2997.359	6438
2999.187	6484
3001.015	6396
3002.842	6475
3004.669	6368
3006.497	6411
3008.323	6304
3010.148	6344
3011.974	6311
3013.797	6290
3015.623	6202
3017.447	6259
3019.27	6258
3021.094	6165
3022.915	6111
3024.737	6217
3026.56	6142
3028.38	6190
3030.201	6119
3032.022	6181
3033.84	6220
3035.662	6159
3037.481	6142
3039.298	6144
3041.117	6155
3042.933	6170
3044.752	6054
3046.568	6145
3048.385	6120
3050.2	6100
3052.016	6131
3053.83	6143
3055.646	6084
3057.46	6126
3059.272	6123
3061.086	6108
3062.898	6100
3064.711	6024
3066.524	6008
3068.335	6078
3070.145	6078
3071.956	6062
3073.766	6071
3075.576	5958
3077.385	6120
3079.193	6095
3081.002	6016
3082.81	5913
3084.618	6080
3086.425	6042
3088.231	5926
3090.036	5954
3091.842	5997
3093.648	5901
3095.452	6059
3097.257	5941
3099.06	5955
3100.863	5931
3102.666	6055
3104.47	5843
3106.272	5968
3108.073	5974
3109.875	5956
3111.676	5904
3113.477	6035
3115.277	5960
3117.077	5850
3118.874	5909
3120.673	5839
3122.473	5866
3124.271	5759
3126.066	5739
3127.863	5945
3129.66	5863
3131.456	5837
3133.252	5874
3135.047	5926
3136.842	5872
3138.635	5722
3140.429	5954
3142.223	5848
3144.016	5858
3145.808	5826
3147.6	5757
3149.392	5845
3151.183	5795
3152.975	5785
3154.765	5694
3156.553	5826
3158.344	5808
3160.132	5797
3161.922	5855
3163.71	5792
3165.497	5794
3167.285	5713
3169.071	5741
3170.858	5696
3172.645	5722
3174.429	5838
3176.214	5746
3177.998	5632
3179.783	5754
3181.568	5797
3183.351	5664
3185.133	5711
3186.915	5732
3188.698	5723
3190.481	5619
3192.261	5700
3194.042	5801
3195.822	5686
3197.601	5771
3199.381	5688
3201.161	5683
3202.939	5787
3204.717	5612
3206.495	5723
3208.272	5708
3210.05	5650
3211.826	5872
3213.602	5720
3215.376	5628
3217.151	5651
3218.927	5676
3220.702	5623
3222.476	5649
3224.249	5647
3226.021	5697
3227.793	5614
3229.567	5628
3231.339	5720
3233.109	5708
3234.88	5609
3236.651	5648
3238.421	5726
3240.191	5680
3241.96	5730
3243.728	5581
3245.497	5569
3247.263	5651
3249.033	5654
3250.799	5564
3252.566	5725
3254.331	5664
3256.097	5535
3257.863	5638
3259.628	5642
3261.392	5683
3263.156	5550
3264.919	5690
3266.683	5592
3268.447	5444
3270.208	5674
3271.969	5674
3273.731	5657
3275.492	5594
3277.253	5604
3279.013	5523
3280.773	5595
3282.532	5670
3284.291	5555
3286.05	5607
3287.808	5648
3289.566	5588
3291.323	5548
3293.079	5649
3294.835	5678
3296.593	5623
3298.348	5566
3300.102	5699
3301.857	5625
3303.611	5669
3305.366	5432
3307.119	5615
3308.872	5613
3310.624	5670
3312.376	5547
3314.129	5667
3315.881	5644
3317.631	5524
3319.38	5549
3321.13	5606
3322.88	5638
3324.631	5591
3326.379	5598
3328.126	5593
3329.875	5549
3331.622	5676
3333.371	5616
3335.116	5584
3336.863	5586
3338.609	5584
3340.353	5451
3342.1	5620
3343.845	5477
3345.588	5520
3347.332	5600
3349.074	5568
3350.817	5501
3352.56	5500
3354.303	5477
3356.043	5596
3357.785	5395
3359.525	5556
3361.268	5486
3363.007	5508
3364.745	5459
3366.485	5481
3368.223	5565
3369.962	5490
3371.701	5539
3373.438	5491
3375.174	5450
3376.911	5499
3378.647	5543
3380.384	5537
3382.118	5438
3383.854	5593
3385.588	5505
3387.322	5559
3389.057	5543
3390.79	5462
3392.522	5467
3394.255	5522
3395.987	5432
3397.719	5514
3399.451	5460
3401.181	5474
3402.911	5305
3404.641	5409
3406.371	5354
3408.101	5511
3409.83	5447
3411.558	5401
3413.285	5428
3415.011	5380
3416.739	5414
3418.467	5430
3420.193	5466
3421.919	5364
3423.644	5485
3425.368	5479
3427.094	5358
3428.818	5362
3430.542	5370
3432.264	5288
3433.987	5433
3435.712	5269
3437.434	5330
3439.155	5404
3440.876	5451
3442.596	5351
3444.317	5377
3446.039	5303
3447.757	5341
3449.477	5312
3451.195	5311
3452.914	5324
3454.632	5325
3456.35	5257
3458.067	5313
3459.784	5330
3461.5	5190
3463.216	5282
3464.932	5260
3466.647	5209
3468.362	5134
3470.076	5304
3471.789	5337
3473.505	5259
3475.217	5224
3476.929	5199
3478.641	5279
3480.354	5181
3482.066	5161
3483.777	5235
3485.487	5187
3487.197	5259
3488.908	5118
3490.617	5209
3492.327	5301
3494.035	5189
3495.743	5179
3497.451	5188
3499.158	5183
3500.866	5178
3502.572	5128
3504.278	5189
3505.984	5162
3507.689	5165
3509.396	5125
3511.1	5143
3512.804	5110
3514.508	5064
3516.211	5089
3517.913	5199
3519.616	5032
3521.319	5173
3523.021	5210
3524.722	5164
3526.422	5128
3528.124	5136
3529.824	5079
3531.524	5090
3533.222	5031
3534.921	5083
3536.62	5073
3538.318	5070
3540.016	5086
3541.714	5067
3543.41	5053
3545.107	5050
3546.803	5065
3548.5	5067
3550.194	5007
3551.889	5043
3553.583	5155
3555.279	5070
3556.972	5053
3558.666	5023
3560.358	5004
3562.051	5185
3563.742	5016
3565.435	5076
3567.126	4949
3568.817	4984
3570.507	4994
3572.197	4998
3573.888	5018
3575.577	5000
3577.265	5006
3578.954	4970
3580.642	5047
3582.329	5007
3584.017	4934
3585.704	4970
3587.391	4830
3589.077	4987
3590.762	4958
3592.449	4932
3594.133	4907
3595.817	4963
3597.501	5031
3599.185	4826
3600.869	4929
3602.552	4878
3604.234	4872
3605.916	4872
3607.598	4834
3609.279	4906
3610.961	4849
3612.642	4942
3614.321	4931
3616	4882
3617.68	4896
3619.36	4810
3621.039	4917
3622.716	4859
3624.394	4921
3626.071	4726
3627.748	4739
3629.425	4888
3631.102	4834
3632.778	4697
3634.452	4770
3636.127	4839
3637.803	4770
3639.477	4762
3641.151	4777
3642.823	4734
3644.497	4650
3646.171	4733
3647.842	4786
3649.515	4734
3651.185	4720
3652.857	4757
3654.527	4738
3656.198	4770
3657.868	4702
3659.537	4695
3661.207	4728
3662.875	4751
3664.544	4728
3666.212	4746
3667.879	4699
3669.546	4668
3671.212	4713
3672.88	4660
3674.546	4687
3676.211	4734
3677.875	4753
3679.541	4644
3681.205	4712
3682.87	4729
3684.533	4596
3686.196	4650
3687.859	4791
3689.521	4603
3691.184	4659
3692.845	4657
3694.507	4607
3696.167	4554
3697.827	4709
3699.487	4662
3701.148	4686
3702.808	4736
3704.466	4566
3706.125	4607
3707.783	4623
3709.442	4577
3711.099	4614
3712.757	4624
3714.412	4555
3716.068	4651
3717.725	4652
3719.381	4727
3721.036	4583
3722.689	4567
3724.344	4545
3725.998	4631
3727.652	4600
3729.305	4511
3730.958	4570
3732.61	4642
3734.262	4591
3735.915	4570
3737.565	4645
3739.217	4565
3740.866	4581
3742.516	4593
3744.165	4691
3745.816	4497
3747.464	4583
3749.113	4553
3750.761	4596
3752.409	4555
3754.057	4569
3755.703	4546
3757.35	4541
3758.996	4619
3760.641	4528
3762.289	4468
3763.933	4492
3765.577	4598
3767.222	4537
3768.865	4526
3770.508	4443
3772.152	4533
3773.796	4537
3775.438	4529
3777.079	4549
3778.721	4450
3780.363	4489
3782.003	4451
3783.643	4619
3785.283	4458
3786.923	4396
3788.563	4527
3790.203	4441
3791.841	4483
3793.479	4484
3795.115	4438
3796.753	4455
3798.391	4376
3800.027	4391
3801.664	4433
3803.299	4384
3804.935	4403
3806.571	4449
3808.206	4469
3809.839	4470
3811.473	4325
3813.107	4349
3814.74	4348
3816.375	4383
3818.006	4400
3819.638	4436
3821.27	4350
3822.9	4394
3824.532	4385
3826.163	4326
3827.792	4476
3829.423	4358
3831.051	4338
3832.682	4376
3834.311	4324
3835.938	4350
3837.566	4344
3839.193	4419
3840.821	4344
3842.448	4352
3844.075	4345
3845.7	4335
3847.325	4361
3848.951	4392
3850.576	4329
3852.201	4363
3853.825	4320
3855.448	4246
3857.072	4399
3858.694	4308
3860.318	4287
3861.939	4308
3863.562	4300
3865.183	4237
3866.804	4275
3868.426	4266
3870.045	4294
3871.666	4281
3873.285	4221
3874.904	4267
3876.524	4244
3878.142	4259
3879.76	4262
3881.378	4241
3882.995	4265
3884.612	4274
3886.229	4224
3887.845	4196
3889.461	4237
3891.076	4270
3892.691	4263
3894.307	4246
3895.922	4216
3897.536	4233
3899.149	4117
3900.761	4237
3902.374	4208
3903.988	4242
3905.6	4177
3907.212	4267
3908.822	4111
3910.433	4167
3912.045	4173
3913.655	4206
3915.265	4202
3916.875	4288
3918.483	4164
3920.093	4195
3921.702	4178
3923.309	4255
3924.917	4245
3926.523	4180
3928.13	4197
3929.739	4269
3931.344	4190
3932.95	4214
3934.555	4206
3936.159	4175
3937.766	4131
3939.369	4145
3940.974	4174
3942.577	4108
3944.181	4165
3945.783	4146
3947.386	4113
3948.989	4115
3950.59	4149
3952.191	4158
3953.791	4129
3955.394	4162
3956.994	4203
3958.593	4138
3960.192	3987
3961.791	4093
3963.392	4149
3964.99	4050
3966.588	4059
3968.185	4031
3969.782	4105
3971.379	4173
3972.976	4080
3974.572	4108
3976.168	4065
3977.763	4076
3979.358	4095
3980.954	4104
3982.548	4049
3984.142	4036
3985.736	4023
3987.329	3988
3988.922	4071
3990.516	4007
3992.108	3937
3993.698	4036
3995.29	4035
3996.881	4067
3998.473	4000
4000.064	3952
4001.653	3978
4003.242	3981
4004.832	3934
4006.422	4025
4008.01	3964
4009.598	3977
4011.186	3969
4012.773	3982
4014.36	4003
4015.947	3935
4017.534	3950
4019.119	3992
4020.705	3940
4022.291	3889
4023.876	3844
4025.461	3937
4027.044	3909
4028.627	3898
4030.211	3842
4031.795	3924
4033.378	3847
4034.96	3903
4036.542	3857
4038.124	3878
4039.704	3876
4041.286	3906
4042.867	3918
4044.447	3909
4046.026	3817
4047.606	3870
4049.187	3862
4050.765	3909
4052.343	3879
4053.92	3870
4055.498	3899
4057.076	3802
4058.654	3856
4060.23	3828
4061.806	3851
4063.381	3839
4064.957	3821
4066.533	3729
4068.107	3858
4069.682	3885
4071.256	3886
4072.829	3761
4074.404	3847
4075.977	3812
4077.549	3843
4079.121	3754
4080.693	3846
4082.265	3791
4083.836	3798
4085.407	3699
4086.977	3921
4088.547	3815
4090.117	3793
4091.687	3765
4093.256	3801
4094.825	3762
4096.392	3862
4097.96	3812
4099.528	3771
4101.097	3785
4102.663	3791
4104.229	3741
4105.795	3814
4107.361	3774
4108.928	3798
4110.493	3776
4112.058	3760
4113.621	3723
4115.186	3709
4116.75	3785
4118.313	3774
4119.876	3704
4121.438	3738
4123	3781
4124.562	3746
4126.125	3694
4127.686	3718
4129.246	3729
4130.807	3605
4132.367	3685
4133.927	3628
4135.486	3744
4137.046	3647
4138.604	3693
4140.162	3686
4141.72	3692
4143.279	3614
4144.836	3704
4146.393	3620
4147.949	3669
4149.505	3670
4151.062	3587
4152.617	3703
4154.172	3596
4155.727	3652
4157.281	3603
4158.836	3656
4160.39	3609
4161.943	3530
4163.496	3641
4165.048	3594
4166.601	3627
4168.154	3625
4169.706	3605
4171.257	3625
4172.808	3513
4174.358	3628
4175.909	3571
4177.458	3568
4179.008	3585
4180.558	3447
4182.106	3556
4183.655	3565
4185.204	3536
4186.751	3546
4188.298	3564
4189.845	3522
4191.392	3612
4192.939	3539
4194.485	3472
4196.031	3625
4197.576	3500
4199.121	3539
4200.666	3565
4202.211	3527
4203.754	3526
4205.298	3487
4206.84	3545
4208.384	3497
4209.927	3445
4211.47	3486
4213.011	3551
4214.552	3504
4216.094	3561
4217.635	3461
4219.175	3589
4220.716	3484
4222.255	3547
4223.793	3493
4225.335	3463
4226.873	3466
4228.411	3451
4229.948	3442
4231.486	3409
4233.024	3493
4234.562	3435
4236.098	3423
4237.634	3450
4239.169	3363
4240.705	3533
4242.241	3485
4243.776	3459
4245.31	3410
4246.844	3373
4248.378	3522
4249.911	3422
4251.445	3436
4252.978	3430
4254.51	3396
4256.042	3440
4257.574	3492
4259.107	3403
4260.638	3417
4262.169	3366
4263.699	3491
4265.228	3394
4266.759	3427
4268.289	3424
4269.818	3364
4271.345	3418
4272.874	3381
4274.402	3349
4275.931	3367
4277.458	3492
4278.985	3394
4280.512	3321
4282.037	3360
4283.564	3322
4285.089	3344
4286.615	3457
4288.139	3406
4289.664	3413
4291.187	3380
4292.712	3377
4294.235	3385
4295.759	3319
4297.281	3314
4298.804	3304
4300.327	3351
4301.849	3263
4303.37	3338
4304.891	3311
4306.412	3320
4307.933	3320
4309.453	3340
4310.973	3265
4312.492	3320
