398.1873	6259
400.7097	6413
403.2336	6319
405.7547	6348
408.2751	6375
410.7948	6461
413.3138	6482
415.83	6380
418.3497	6525
420.8666	6543
423.3829	6626
425.8985	6662
428.4133	6699
430.9275	6747
433.441	6709
435.9538	6713
438.4639	6834
440.9753	6745
443.4881	6792
445.9982	6795
448.5055	6751
451.0142	6686
453.5201	6683
456.0274	6789
458.5361	6824
461.04	6770
463.5453	6640
466.0478	6720
468.5517	6728
471.0549	6775
473.5574	6874
476.0572	6704
478.5584	6962
481.0568	6716
483.5545	6959
486.0557	6933
488.5521	6930
491.0478	7040
493.5449	6895
496.0392	6884
498.5349	6964
501.0299	6868
503.5222	7052
506.0139	6955
508.5048	7009
510.9991	7070
513.4887	6972
515.9777	6970
518.4659	6978
520.9534	7067
523.4403	6959
525.9306	7055
528.4161	7157
530.9009	7132
533.3851	7022
535.8687	7130
538.3535	7043
540.8356	7051
543.3171	6992
545.7979	7162
548.278	7120
550.7595	7174
553.2383	7147
555.7144	7120
558.1918	7101
560.6685	7116
563.1446	7165
565.6221	7174
568.0968	7227
570.5688	7198
573.0422	7097
575.515	7303
577.989	7279
580.4584	7284
582.9291	7320
585.3991	7348
587.8685	7540
590.3352	7381
592.8052	7348
595.2706	7364
597.7372	7365
600.2033	7363
602.6666	7429
605.1334	7377
607.5953	7430
610.0587	7296
612.5193	7377
614.9814	7374
617.4427	7342
619.9034	7260
622.3615	7341
624.8208	7277
627.2775	7320
629.7335	7425
632.1929	7318
634.6476	7376
637.1016	7245
639.5569	7348
642.0096	7382
644.4637	7406
646.9151	7344
649.3678	7372
651.8179	7436
654.2672	7343
656.7159	7420
659.166	7399
661.6154	7533
664.0622	7420
666.5082	7514
668.9537	7507
671.4005	7570
673.8445	7537
676.288	7562
678.7308	7614
681.1729	7491
683.6163	7621
686.0572	7712
688.4973	7572
690.9368	7593
693.3757	7638
695.8138	7623
698.2534	7676
700.6902	7524
703.1245	7519
705.56	7638
707.9949	7725
710.4311	7678
712.8647	7694
715.2957	7731
717.7279	7833
720.1595	7722
722.5905	7687
725.0208	7824
727.4505	7694
729.8795	7812
732.3058	7938
734.7336	7881
737.1626	7872
739.587	7970
742.0128	7842
744.4359	7969
746.8604	8000
749.2841	8013
751.7073	8089
754.1278	8094
756.5496	8094
758.9688	8054
761.3893	8060
763.8093	8000
766.2285	8081
768.6451	8020
771.0611	8184
773.4784	7940
775.895	8142
778.3091	8141
780.7244	8088
783.1371	8157
785.5493	7984
787.9626	8162
790.3754	8112
792.7856	8054
795.1951	8093
797.6039	8141
800.0121	8026
802.4236	8230
804.8306	8195
807.2369	8160
809.6425	8107
812.0475	8182
814.4538	8231
816.8575	8201
819.2606	8233
821.663	8268
824.0648	8277
826.4659	8163
828.8683	8244
831.2682	8277
833.6674	8132
836.066	8218
838.4639	8298
840.8632	8285
843.2579	8207
845.6539	8329
848.0493	8292
850.444	8309
852.84	8333
855.2315	8425
857.6243	8467
860.0165	8383
862.4081	8315
864.797	8255
867.1892	8395
869.5789	8274
871.9659	8337
874.3542	8239
876.74	8315
879.129	8395
881.5155	8395
883.8994	8309
886.2845	8370
888.6671	8375
891.051	8327
893.4343	8298
895.8169	8364
898.197	8401
900.5783	8314
902.9571	8329
905.3372	8361
907.7167	8432
910.0936	8469
912.4698	8540
914.8474	8648
917.2244	8553
919.5987	8629
921.9744	8724
924.3475	8734
926.72	8601
929.0918	8659
931.4669	8690
933.8375	8743
936.2074	8782
938.5767	8791
940.9454	8820
943.3154	8787
945.6829	9103
948.0497	9245
950.4178	9397
952.7833	9652
955.1483	9810
957.5145	10238
959.8782	10229
962.2412	10161
964.6036	10111
966.9655	9908
969.3266	9483
971.6871	9158
974.0471	9054
976.4064	8843
978.765	9031
981.125	8671
983.4824	8821
985.8373	8753
988.1935	8674
990.549	8612
992.9039	8683
995.2602	8651
997.6119	8671
999.965	8677
1002.317	8581
1004.667	8595
1007.02	8707
1009.371	8611
1011.719	8543
1014.068	8739
1016.415	8722
1018.765	8776
1021.111	8681
1023.458	8767
1025.804	8729
1028.147	8823
1030.49	8935
1032.837	8733
1035.179	8787
1037.522	8653
1039.862	8778
1042.204	8853
1044.546	8835
1046.884	8912
1049.224	8864
1051.562	8837
1053.899	8759
1056.237	8921
1058.575	8889
1060.91	8981
1063.244	8931
1065.58	8903
1067.913	9034
1070.248	8992
1072.579	9001
1074.911	9002
1077.242	8936
1079.572	8782
1081.905	9013
1084.234	8869
1086.562	8893
1088.89	8746
1091.217	8909
1093.544	8879
1095.871	8960
1098.197	8976
1100.521	8958
1102.845	8900
1105.169	8913
1107.491	8951
1109.814	8853
1112.135	8923
1114.456	8920
1116.776	8790
1119.096	8982
1121.415	8881
1123.734	8855
1126.052	8810
1128.369	9112
1130.686	8936
1133.002	8948
1135.318	8981
1137.632	8863
1139.945	8877
1142.258	8923
1144.573	9023
1146.884	8980
1149.196	8957
1151.505	8889
1153.816	8977
1156.124	9037
1158.435	9024
1160.742	8951
1163.051	8887
1165.356	8962
1167.663	8964
1169.97	8988
1172.276	8938
1174.579	8960
1176.881	8939
1179.186	8969
1181.487	8934
1183.79	8933
1186.092	8897
1188.392	8954
1190.691	8964
1192.991	8959
1195.291	8953
1197.588	8956
1199.885	8986
1202.181	8864
1204.479	8925
1206.775	9038
1209.07	8983
1211.363	8943
1213.656	8877
1215.949	8958
1218.241	8993
1220.534	8955
1222.825	9071
1225.115	9056
1227.405	9089
1229.693	9152
1231.984	8998
1234.271	9068
1236.558	9062
1238.845	9245
1241.131	9295
1243.416	9118
1245.703	9098
1247.987	9295
1250.269	9136
1252.552	9192
1254.834	9262
1257.118	9184
1259.399	9263
1261.678	9225
1263.958	9287
1266.237	9316
1268.516	9234
1270.794	9255
1273.072	9258
1275.347	9236
1277.624	9290
1279.899	9218
1282.175	9099
1284.449	9199
1286.722	9212
1288.995	9097
1291.266	9108
1293.54	9152
1295.81	9205
1298.081	9103
1300.35	9175
1302.62	9132
1304.889	9211
1307.156	9029
1309.425	9069
1311.69	9099
1313.957	9143
1316.222	9152
1318.488	9228
1320.751	9139
1323.016	9099
1325.278	9141
1327.54	9308
1329.803	9233
1332.065	9127
1334.325	9253
1336.584	9238
1338.843	9256
1341.101	9170
1343.36	9117
1345.617	9280
1347.876	9341
1350.131	9159
1352.387	9195
1354.643	9264
1356.897	9225
1359.151	9044
1361.403	9158
1363.656	9303
1365.909	9244
1368.16	9210
1370.409	9299
1372.659	9276
1374.909	9336
1377.157	9188
1379.407	9239
1381.655	9368
1383.9	9342
1386.147	9241
1388.393	9469
1390.64	9340
1392.885	9581
1395.127	9331
1397.37	9419
1399.614	9485
1401.854	9441
1404.098	9585
1406.339	9462
1408.578	9482
1410.818	9560
1413.056	9375
1415.297	9330
1417.533	9435
1419.771	9429
1422.006	9666
1424.243	9365
1426.479	9451
1428.715	9457
1430.948	9544
1433.182	9484
1435.414	9548
1437.647	9526
1439.88	9662
1442.11	9515
1444.342	9710
1446.571	9454
1448.799	9496
1451.029	9646
1453.258	9560
1455.485	9624
1457.711	9490
1459.937	9597
1462.164	9489
1464.39	9533
1466.614	9604
1468.838	9503
1471.06	9582
1473.283	9485
1475.506	9545
1477.727	9390
1479.949	9425
1482.169	9292
1484.389	9420
1486.609	9452
1488.828	9425
1491.045	9260
1493.261	9324
1495.477	9285
1497.693	9311
1499.91	9385
1502.125	9378
1504.339	9243
1506.553	9367
1508.766	9295
1510.979	9284
1513.191	9173
1515.402	9261
1517.613	9051
1519.823	9220
1522.033	9418
1524.242	9193
1526.451	9275
1528.657	9314
1530.865	9295
1533.072	9268
1535.278	9267
1537.484	9303
1539.687	9272
1541.892	9253
1544.096	9240
1546.299	9331
1548.502	9304
1550.703	9488
1552.905	9380
1555.104	9432
1557.303	9462
1559.505	9304
1561.703	9381
1563.902	9421
1566.099	9604
1568.295	9502
1570.494	9444
1572.689	9452
1574.883	9391
1577.079	9458
1579.272	9657
1581.467	9562
1583.659	9665
1585.853	9566
1588.044	9578
1590.234	9639
1592.424	9558
1594.615	9629
1596.806	9659
1598.994	9633
1601.182	9484
1603.369	9738
1605.557	9638
1607.744	9629
1609.929	9616
1612.114	9578
1614.298	9614
1616.482	9583
1618.667	9618
1620.85	9625
1623.032	9658
1625.214	9652
1627.395	9717
1629.575	9607
1631.755	9712
1633.935	9739
1636.114	9687
1638.292	9738
1640.471	9753
1642.647	9846
1644.823	9609
1647	9660
1649.175	9669
1651.348	9730
1653.525	9817
1655.698	9749
1657.87	9727
1660.043	9539
1662.213	9941
1664.387	9672
1666.558	9724
1668.727	9847
1670.896	9749
1673.064	9739
1675.233	9807
1677.401	9767
1679.569	9772
1681.735	9717
1683.902	9719
1686.066	9844
1688.233	9657
1690.397	9909
1692.559	9670
1694.723	9748
1696.885	9743
1699.048	9882
1701.21	9766
1703.37	9642
1705.53	9575
1707.689	9787
1709.849	9562
1712.009	9570
1714.166	9722
1716.323	9647
1718.479	9608
1720.634	9691
1722.793	9586
1724.948	9650
1727.102	9724
1729.255	9672
1731.408	9656
1733.562	9571
1735.714	9565
1737.865	9608
1740.016	9757
1742.166	9631
1744.316	9728
1746.467	9535
1748.616	9655
1750.764	9652
1752.911	9670
1755.056	9588
1757.205	9691
1759.35	9671
1761.496	9859
1763.641	9819
1765.785	9660
1767.927	9627
1770.072	9631
1772.214	9762
1774.355	9700
1776.496	9699
1778.637	9687
1780.778	9741
1782.918	9819
1785.057	9789
1787.194	9736
1789.333	9874
1791.472	9639
1793.608	9605
1795.745	9691
1797.879	9733
1800.015	9703
1802.148	9706
1804.284	9817
1806.417	9640
1808.548	9796
1810.682	9780
1812.812	9777
1814.946	9785
1817.075	9708
1819.205	9795
1821.335	9758
1823.463	9849
1825.59	9862
1827.721	9727
1829.847	9796
1831.973	9793
1834.098	9758
1836.223	9638
1838.351	9776
1840.475	9651
1842.598	9710
1844.721	9750
1846.843	9616
1848.966	9740
1851.087	9794
1853.21	9652
1855.33	9598
1857.449	9620
1859.568	9742
1861.688	9632
1863.806	9698
1865.924	9678
1868.039	9688
1870.155	9598
1872.273	9666
1874.388	9771
1876.503	9789
1878.617	9703
1880.73	9724
1882.844	9773
1884.956	9718
1887.068	9737
1889.18	9829
1891.291	9662
1893.4	9680
1895.511	9702
1897.621	9708
1899.73	9926
1901.837	9669
1903.944	9782
1906.053	9868
1908.159	9770
1910.265	9670
1912.369	9869
1914.474	9950
1916.577	9766
1918.683	9786
1920.785	9885
1922.888	9772
1924.989	9859
1927.091	9842
1929.193	9746
1931.294	9805
1933.393	9799
1935.493	9869
1937.59	9854
1939.689	9896
1941.788	9804
1943.884	9804
1945.98	10031
1948.077	9992
1950.171	9964
1952.267	9835
1954.361	9949
1956.455	9857
1958.548	9897
1960.64	9952
1962.733	9892
1964.824	9843
1966.915	9799
1969.005	9916
1971.096	9780
1973.185	9749
1975.275	9860
1977.363	9796
1979.45	9848
1981.537	9934
1983.623	9792
1985.711	9728
1987.796	9843
1989.881	9802
1991.965	9733
1994.047	9767
1996.132	9856
1998.215	9825
2000.297	9871
2002.378	9872
2004.46	9712
2006.54	9668
2008.62	9766
2010.7	9889
2012.779	9840
2014.858	9752
2016.934	9801
2019.013	9675
2021.09	9688
2023.165	9841
2025.241	9925
2027.317	9822
2029.39	9715
2031.466	9737
2033.538	9812
2035.612	9846
2037.683	9818
2039.755	9803
2041.827	9632
2043.898	9876
2045.968	9732
2048.038	9795
2050.106	9755
2052.177	9849
2054.244	9798
2056.313	9657
2058.379	9664
2060.444	9923
2062.511	9771
2064.577	9781
2066.641	9851
2068.705	9914
2070.77	9786
2072.832	9764
2074.896	9731
2076.958	9838
2079.02	9786
2081.081	9826
2083.141	9896
2085.2	9865
2087.261	9891
2089.319	9823
2091.377	9811
2093.435	9835
2095.492	9928
2097.552	9927
2099.607	9804
2101.663	9797
2103.718	9778
2105.771	9873
2107.826	9833
2109.879	9829
2111.932	9929
2113.985	9723
2116.037	9796
2118.088	9864
2120.141	9689
2122.191	9860
2124.239	9819
2126.288	9788
2128.337	9791
2130.387	9774
2132.434	9733
2134.481	9878
2136.528	9902
2138.574	9782
2140.618	9816
2142.665	9715
2144.71	9712
2146.753	9827
2148.797	9799
2150.838	9764
2152.883	9775
2154.923	9741
2156.965	9682
2159.007	9704
2161.046	9724
2163.086	9726
2165.126	9831
2167.163	9655
2169.202	9793
2171.239	9601
2173.277	9590
2175.314	9620
2177.349	9750
2179.385	9725
2181.42	9699
2183.453	9729
2185.49	9689
2187.522	9707
2189.555	9804
2191.586	9663
2193.619	9694
2195.651	9624
2197.682	9612
2199.711	9657
2201.74	9581
2203.769	9673
2205.799	9627
2207.828	9538
2209.855	9599
2211.882	9575
2213.908	9720
2215.934	9589
2217.961	9549
2219.986	9557
2222.01	9660
2224.034	9584
2226.057	9575
2228.08	9668
2230.104	9541
2232.124	9685
2234.145	9543
2236.166	9410
2238.186	9660
2240.207	9550
2242.227	9670
2244.244	9578
2246.262	9538
2248.28	9525
2250.299	9486
2252.314	9557
2254.33	9613
2256.346	9593
2258.36	9625
2260.375	9559
2262.391	9736
2264.403	9470
2266.416	9607
2268.427	9655
2270.44	9605
2272.453	9649
2274.463	9534
2276.474	9579
2278.483	9567
2280.493	9612
2282.501	9573
2284.51	9595
2286.518	9774
2288.524	9618
2290.532	9685
2292.537	9572
2294.544	9520
2296.55	9510
2298.554	9553
2300.557	9542
2302.562	9568
2304.566	9731
2306.568	9566
2308.569	9476
2310.572	9507
2312.573	9558
2314.573	9605
2316.574	9600
2318.573	9536
2320.571	9448
2322.571	9552
2324.569	9372
2326.567	9375
2328.564	9465
2330.56	9509
2332.556	9570
2334.551	9455
2336.546	9446
2338.542	9450
2340.535	9527
2342.529	9340
2344.521	9342
2346.512	9323
2348.505	9592
2350.497	9499
2352.487	9413
2354.478	9413
2356.468	9405
2358.457	9387
2360.446	9402
2362.434	9287
2364.422	9507
2366.408	9446
2368.395	9329
2370.383	9521
2372.369	9392
2374.353	9404
2376.338	9381
2378.321	9416
2380.307	9331
2382.29	9311
2384.272	9453
2386.254	9320
2388.235	9320
2390.218	9431
2392.198	9233
2394.179	9326
2396.157	9341
2398.137	9323
2400.115	9293
2402.095	9479
2404.072	9345
2406.048	9338
2408.026	9359
2410.001	9259
2411.977	9261
2413.953	9370
2415.927	9253
2417.9	9375
2419.875	9119
2421.847	9382
2423.821	9348
2425.792	9276
2427.763	9154
2429.736	9252
2431.706	9336
2433.677	9216
2435.646	9262
2437.615	9358
2439.583	9086
2441.551	9279
2443.519	9388
2445.486	9336
2447.452	9255
2449.418	9187
2451.383	9238
2453.348	9266
2455.314	9400
2457.278	9187
2459.241	9255
2461.205	9176
2463.167	9346
2465.131	9366
2467.091	9272
2469.052	9128
2471.012	9195
2472.972	9380
2474.932	9110
2476.891	9084
2478.85	9237
2480.808	9219
2482.766	9177
2484.722	9092
2486.68	9266
2488.636	9276
2490.591	9168
2492.546	9227
2494.5	9161
2496.456	9111
2498.41	9181
2500.362	9180
2502.315	8990
2504.266	9203
2506.218	9182
2508.169	9092
2510.121	9107
2512.07	9204
2514.019	9112
2515.968	9064
2517.918	9067
2519.866	9202
2521.813	9117
2523.76	9127
2525.707	9125
2527.653	9024
2529.599	9193
2531.543	9146
2533.489	9071
2535.433	9083
2537.376	9067
2539.32	9127
2541.264	9123
2543.205	9083
2545.147	9272
2547.087	9147
2549.029	9122
2550.969	9100
2552.908	9110
2554.847	9033
2556.786	9093
2558.724	9065
2560.663	8988
2562.6	9168
2564.537	9212
2566.473	9190
2568.408	9148
2570.345	9009
2572.28	9205
2574.214	8942
2576.148	9130
2578.081	9021
2580.014	9139
2581.947	9196
2583.879	9117
2585.81	9110
2587.741	9090
2589.67	9033
2591.602	9110
2593.532	9177
2595.461	9200
2597.388	9108
2599.316	9034
2601.244	9104
2603.172	9236
2605.098	9235
2607.023	9257
2608.949	9116
2610.873	9036
2612.8	9151
2614.723	9115
2616.647	9058
2618.569	9219
2620.493	9184
2622.416	9179
2624.338	9129
2626.258	9045
2628.179	9137
2630.099	9126
2632.019	9241
2633.939	9125
2635.857	9190
2637.775	9257
2639.694	9191
2641.61	9130
2643.528	9159
2645.444	9019
2647.361	9075
2649.276	9062
2651.19	9195
2653.105	9218
2655.019	9036
2656.934	9015
2658.846	9082
2660.758	9174
2662.67	9208
2664.583	9139
2666.493	9106
2668.404	9051
2670.313	9116
2672.223	9211
2674.134	9204
2676.042	9060
2677.95	9228
2679.858	9168
2681.765	9090
2683.673	9035
2685.579	9208
2687.483	9003
2689.389	9083
2691.294	9074
2693.198	9131
2695.104	8996
2697.006	9117
2698.909	9108
2700.811	9113
2702.713	9057
2704.615	9015
2706.516	8964
2708.417	9031
2710.316	9068
2712.216	8943
2714.115	8956
2716.014	9005
2717.913	9029
2719.81	9012
2721.707	9042
2723.603	9058
2725.501	9028
2727.396	8914
2729.292	8848
2731.186	9031
2733.081	9043
2734.976	8918
2736.87	9087
2738.762	8991
2740.653	9003
2742.546	8966
2744.437	9011
2746.329	9074
2748.22	9015
2750.11	9024
2751.999	8906
2753.889	9000
2755.778	8952
2757.666	8910
2759.553	8975
2761.44	8983
2763.328	8961
2765.215	8961
2767.101	8858
2768.986	8924
2770.87	8892
2772.754	8902
2774.638	8953
2776.523	8815
2778.405	8914
2780.288	8984
2782.17	8970
2784.051	8815
2785.934	8892
2787.814	8985
2789.694	8704
2791.574	8866
2793.453	8867
2795.332	9049
2797.212	8860
2799.088	8790
2800.966	8889
2802.843	8836
2804.719	8748
2806.597	8839
2808.471	8805
2810.346	8835
2812.221	8836
2814.094	8936
2815.969	8740
2817.843	8853
2819.714	8859
2821.587	8800
2823.459	8927
2825.329	8940
2827.202	9040
2829.072	8927
2830.942	8874
2832.811	8824
2834.68	8834
2836.549	8753
2838.418	8818
2840.284	8781
2842.152	8913
2844.018	8784
2845.885	8837
2847.751	8884
2849.616	8900
2851.482	8897
2853.345	8887
2855.208	8963
2857.074	8840
2858.937	9014
2860.799	8921
2862.66	8979
2864.522	8959
2866.385	8998
2868.245	9177
2870.104	9125
2871.964	9127
2873.824	9094
2875.683	9102
2877.542	9112
2879.4	9345
2881.257	9304
2883.114	9332
2884.97	9445
2886.827	9260
2888.683	9369
2890.537	9293
2892.392	9521
2894.246	9391
2896.1	9423
2897.954	9263
2899.807	9372
2901.66	9216
2903.51	9379
2905.362	9262
2907.214	9279
2909.065	9254
2910.915	9424
2912.765	9340
2914.613	9334
2916.463	9622
2918.311	9484
2920.158	9478
2922.006	9438
2923.853	9562
2925.698	9615
2927.546	9712
2929.392	9739
2931.236	9765
2933.081	9807
2934.924	9744
2936.77	9817
2938.613	9868
2940.455	9979
2942.298	10017
2944.139	10087
2945.982	10266
2947.823	10072
2949.662	9957
2951.503	10023
2953.342	9911
2955.182	9736
2957.021	9743
2958.858	9901
2960.697	9786
2962.534	9702
2964.37	9736
2966.207	9474
2968.044	9554
2969.879	9459
2971.714	9345
2973.548	9330
2975.383	9368
2977.218	9271
2979.051	9305
2980.883	9162
2982.715	9243
2984.547	9168
2986.379	9181
2988.21	9081
2990.04	9070
2991.87	8966
2993.7	9055
2995.53	8844
2997.359	8943
2999.187	8819
3001.015	8930
3002.842	8884
3004.669	8827
3006.497	8799
3008.323	8721
3010.148	8764
3011.974	8574
3013.797	8585
3015.623	8643
3017.447	8631
3019.27	8503
3021.094	8465
3022.915	8590
3024.737	8406
3026.56	8386
3028.38	8543
3030.201	8505
3032.022	8511
3033.84	8394
3035.662	8536
3037.481	8514
3039.298	8403
3041.117	8559
3042.933	8451
3044.752	8353
3046.568	8439
3048.385	8368
3050.2	8421
3052.016	8333
3053.83	8421
3055.646	8408
3057.46	8358
3059.272	8336
3061.086	8359
3062.898	8384
3064.711	8275
3066.524	8338
3068.335	8344
3070.145	8370
3071.956	8282
3073.766	8315
3075.576	8255
3077.385	8226
3079.193	8313
3081.002	8227
3082.81	8191
3084.618	8190
3086.425	8294
3088.231	8229
3090.036	8213
3091.842	8242
3093.648	8166
3095.452	8297
3097.257	8195
3099.06	8234
3100.863	8181
3102.666	8233
3104.47	8336
3106.272	8130
3108.073	8191
3109.875	8209
3111.676	8046
3113.477	8140
3115.277	8109
3117.077	8167
3118.874	8018
3120.673	8074
3122.473	8142
3124.271	8145
3126.066	8056
3127.863	8063
3129.66	8071
3131.456	8050
3133.252	8023
3135.047	8018
3136.842	7984
3138.635	7965
3140.429	8138
3142.223	8091
3144.016	7963
3145.808	7972
3147.6	8037
3149.392	7996
3151.183	7868
3152.975	7921
3154.765	7916
3156.553	8013
3158.344	8102
3160.132	7964
3161.922	7871
3163.71	8027
3165.497	7906
3167.285	7929
3169.071	7840
3170.858	7819
3172.645	7856
3174.429	7835
3176.214	7960
3177.998	7844
3179.783	7856
3181.568	7865
3183.351	7877
3185.133	7915
3186.915	7931
3188.698	7853
3190.481	7779
3192.261	7811
3194.042	7920
3195.822	7956
3197.601	7788
3199.381	7826
3201.161	7787
3202.939	7994
3204.717	7958
3206.495	7840
3208.272	7675
3210.05	7828
3211.826	7729
3213.602	7803
3215.376	7913
3217.151	7781
3218.927	8013
3220.702	7822
3222.476	7783
3224.249	7768
3226.021	7911
3227.793	7785
3229.567	7792
3231.339	7844
3233.109	7722
3234.88	7767
3236.651	7703
3238.421	7712
3240.191	7838
3241.96	7799
3243.728	7759
3245.497	7773
3247.263	7721
3249.033	7772
3250.799	7780
3252.566	7782
3254.331	7749
3256.097	7709
3257.863	7703
3259.628	7758
3261.392	7708
3263.156	7772
3264.919	7823
3266.683	7766
3268.447	7651
3270.208	7684
3271.969	7798
3273.731	7730
3275.492	7805
3277.253	7689
3279.013	7577
3280.773	7699
3282.532	7675
3284.291	7825
3286.05	7638
3287.808	7713
3289.566	7720
3291.323	7772
3293.079	7744
3294.835	7779
3296.593	7691
3298.348	7746
3300.102	7698
3301.857	7747
3303.611	7626
3305.366	7787
3307.119	7794
3308.872	7763
3310.624	7620
3312.376	7667
3314.129	7681
3315.881	7662
3317.631	7721
3319.38	7673
3321.13	7786
3322.88	7713
3324.631	7647
3326.379	7678
3328.126	7707
3329.875	7589
3331.622	7637
3333.371	7547
3335.116	7594
3336.863	7722
3338.609	7631
3340.353	7570
3342.1	7576
3343.845	7601
3345.588	7547
3347.332	7653
3349.074	7590
3350.817	7653
3352.56	7599
3354.303	7573
3356.043	7542
3357.785	7645
3359.525	7465
3361.268	7651
3363.007	7560
3364.745	7407
3366.485	7675
3368.223	7640
3369.962	7489
3371.701	7580
3373.438	7455
3375.174	7604
3376.911	7607
3378.647	7547
3380.384	7508
3382.118	7572
3383.854	7456
3385.588	7465
3387.322	7684
3389.057	7524
3390.79	7507
3392.522	7388
3394.255	7490
3395.987	7481
3397.719	7436
3399.451	7483
3401.181	7442
3402.911	7494
3404.641	7413
3406.371	7460
3408.101	7423
3409.83	7436
3411.558	7469
3413.285	7359
3415.011	7407
3416.739	7429
3418.467	7405
3420.193	7297
3421.919	7365
3423.644	7413
3425.368	7356
3427.094	7327
3428.818	7302
3430.542	7541
3432.264	7387
3433.987	7390
3435.712	7191
3437.434	7342
3439.155	7285
3440.876	7203
3442.596	7262
3444.317	7226
3446.039	7311
3447.757	7298
3449.477	7223
3451.195	7318
3452.914	7287
3454.632	7111
3456.35	7174
3458.067	7126
3459.784	7237
3461.5	7282
3463.216	7152
3464.932	7058
3466.647	7119
3468.362	7046
3470.076	7202
3471.789	7193
3473.505	7088
3475.217	7094
3476.929	7145
3478.641	7122
3480.354	7036
3482.066	6975
3483.777	7091
3485.487	7070
3487.197	7167
3488.908	7031
3490.617	7092
3492.327	6992
3494.035	7027
3495.743	6978
3497.451	7060
3499.158	6987
3500.866	6981
3502.572	6943
3504.278	7055
3505.984	7019
3507.689	6986
3509.396	6948
3511.1	6927
3512.804	7030
3514.508	6962
3516.211	7000
3517.913	6884
3519.616	7023
3521.319	6966
3523.021	6952
3524.722	6936
3526.422	6724
3528.124	6981
3529.824	6823
3531.524	6782
3533.222	6869
3534.921	6896
3536.62	6902
3538.318	6858
3540.016	6906
3541.714	6910
3543.41	6752
3545.107	6859
3546.803	6839
3548.5	6705
3550.194	6852
3551.889	6938
3553.583	6818
3555.279	6809
3556.972	6752
3558.666	6735
3560.358	6774
3562.051	6710
3563.742	6759
3565.435	6796
3567.126	6785
3568.817	6785
3570.507	6770
3572.197	6693
3573.888	6804
3575.577	6778
3577.265	6763
3578.954	6736
3580.642	6797
3582.329	6766
3584.017	6631
3585.704	6710
3587.391	6644
3589.077	6816
3590.762	6783
3592.449	6838
3594.133	6553
3595.817	6600
3597.501	6737
3599.185	6541
3600.869	6565
3602.552	6681
3604.234	6541
3605.916	6586
3607.598	6550
3609.279	6567
3610.961	6641
3612.642	6587
3614.321	6671
3616	6544
3617.68	6321
3619.36	6536
3621.039	6547
3622.716	6560
3624.394	6511
3626.071	6554
3627.748	6336
3629.425	6552
3631.102	6463
3632.778	6425
3634.452	6434
3636.127	6479
3637.803	6570
3639.477	6433
3641.151	6420
3642.823	6454
3644.497	6484
3646.171	6612
3647.842	6381
3649.515	6356
3651.185	6467
3652.857	6314
3654.527	6495
3656.198	6369
3657.868	6366
3659.537	6427
3661.207	6351
3662.875	6396
3664.544	6361
3666.212	6392
3667.879	6360
3669.546	6308
3671.212	6464
3672.88	6343
3674.546	6276
3676.211	6369
3677.875	6352
3679.541	6298
3681.205	6334
3682.87	6255
3684.533	6217
3686.196	6219
3687.859	6414
3689.521	6281
3691.184	6284
3692.845	6321
3694.507	6169
3696.167	6163
3697.827	6280
3699.487	6301
3701.148	6230
3702.808	6274
3704.466	6283
3706.125	6329
3707.783	6187
3709.442	6300
3711.099	6222
3712.757	6255
3714.412	6212
3716.068	6210
3717.725	6276
3719.381	6266
3721.036	6161
3722.689	6163
3724.344	6130
3725.998	6139
3727.652	6070
3729.305	6267
3730.958	6114
3732.61	6100
3734.262	6205
3735.915	6150
3737.565	6123
3739.217	6121
3740.866	6160
3742.516	6125
3744.165	6125
3745.816	6093
3747.464	6079
3749.113	6193
3750.761	6028
3752.409	6097
3754.057	6181
3755.703	6054
3757.35	6059
3758.996	6121
3760.641	6104
3762.289	6041
3763.933	6136
3765.577	6046
3767.222	6060
3768.865	6097
3770.508	6083
3772.152	6125
3773.796	5962
3775.438	6042
3777.079	6028
3778.721	6094
3780.363	6065
3782.003	5958
3783.643	6116
3785.283	5979
3786.923	5955
3788.563	5931
3790.203	5953
3791.841	6011
3793.479	5948
3795.115	5894
3796.753	5960
3798.391	5981
3800.027	5820
3801.664	5897
3803.299	5881
3804.935	5969
3806.571	5829
3808.206	5872
3809.839	5946
3811.473	5791
3813.107	5876
3814.74	5914
3816.375	5903
3818.006	5864
3819.638	5912
3821.27	5838
3822.9	6024
3824.532	5817
3826.163	5879
3827.792	5831
3829.423	5805
3831.051	5837
3832.682	5852
3834.311	5887
3835.938	5897
3837.566	5762
3839.193	5825
3840.821	5752
3842.448	5894
3844.075	5825
3845.7	5832
3847.325	5777
3848.951	5776
3850.576	5778
3852.201	5777
3853.825	5713
3855.448	5687
3857.072	5730
3858.694	5737
3860.318	5760
3861.939	5766
3863.562	5848
3865.183	5589
3866.804	5821
3868.426	5671
3870.045	5793
3871.666	5707
3873.285	5826
3874.904	5630
3876.524	5643
3878.142	5694
3879.76	5654
3881.378	5660
3882.995	5689
3884.612	5677
3886.229	5668
3887.845	5629
3889.461	5682
3891.076	5711
3892.691	5707
3894.307	5731
3895.922	5600
3897.536	5733
3899.149	5605
3900.761	5660
3902.374	5722
3903.988	5606
3905.6	5675
3907.212	5601
3908.822	5605
3910.433	5669
3912.045	5561
3913.655	5644
3915.265	5656
3916.875	5531
3918.483	5688
3920.093	5665
3921.702	5621
3923.309	5542
3924.917	5546
3926.523	5613
3928.13	5544
3929.739	5594
3931.344	5629
3932.95	5609
3934.555	5488
3936.159	5580
3937.766	5660
3939.369	5573
3940.974	5640
3942.577	5637
3944.181	5699
3945.783	5642
3947.386	5608
3948.989	5574
3950.59	5530
3952.191	5536
3953.791	5492
3955.394	5487
3956.994	5502
3958.593	5499
3960.192	5454
3961.791	5490
3963.392	5524
3964.99	5476
3966.588	5547
3968.185	5427
3969.782	5512
3971.379	5474
3972.976	5567
3974.572	5479
3976.168	5447
3977.763	5460
3979.358	5415
3980.954	5436
3982.548	5456
3984.142	5366
3985.736	5350
3987.329	5366
3988.922	5368
3990.516	5394
3992.108	5359
3993.698	5335
3995.29	5389
3996.881	5382
3998.473	5325
4000.064	5355
4001.653	5250
4003.242	5228
4004.832	5243
4006.422	5370
4008.01	5297
4009.598	5234
4011.186	5291
4012.773	5293
4014.36	5393
4015.947	5180
4017.534	5216
4019.119	5347
4020.705	5224
4022.291	5206
4023.876	5215
4025.461	5249
4027.044	5234
4028.627	5097
4030.211	5213
4031.795	5189
4033.378	5152
4034.96	5132
4036.542	5291
4038.124	5115
4039.704	5192
4041.286	5127
4042.867	5176
4044.447	5170
4046.026	5202
4047.606	5149
4049.187	5106
4050.765	5107
4052.343	5169
4053.92	5062
4055.498	5100
4057.076	5114
4058.654	5168
4060.23	5121
4061.806	5224
4063.381	5124
4064.957	5157
4066.533	5075
4068.107	5028
4069.682	5070
4071.256	5089
4072.829	4997
4074.404	5046
4075.977	5010
4077.549	5149
4079.121	5089
4080.693	5087
4082.265	5034
4083.836	5103
4085.407	5029
4086.977	5060
4088.547	4991
4090.117	4970
4091.687	5053
4093.256	4991
4094.825	5054
4096.392	5070
4097.96	5043
4099.528	5056
4101.097	5014
4102.663	4968
4104.229	5034
4105.795	4956
4107.361	4937
4108.928	5007
4110.493	4949
4112.058	4996
4113.621	4894
4115.186	4924
4116.75	5015
4118.313	4820
4119.876	4987
4121.438	4954
4123	4891
4124.562	5030
4126.125	4894
4127.686	4957
4129.246	4877
4130.807	4932
4132.367	4889
4133.927	4924
4135.486	4794
4137.046	4877
4138.604	4860
4140.162	4889
4141.72	4811
4143.279	4848
4144.836	4869
4146.393	4951
4147.949	4863
4149.505	4877
4151.062	4788
4152.617	4801
4154.172	4761
4155.727	4822
4157.281	4808
4158.836	4778
4160.39	4786
4161.943	4805
4163.496	4759
4165.048	4856
4166.601	4805
4168.154	4688
4169.706	4820
4171.257	4713
4172.808	4701
4174.358	4772
4175.909	4701
4177.458	4796
4179.008	4720
4180.558	4729
4182.106	4711
4183.655	4630
4185.204	4700
4186.751	4812
4188.298	4711
4189.845	4626
4191.392	4642
4192.939	4668
4194.485	4644
4196.031	4670
4197.576	4647
4199.121	4618
4200.666	4651
4202.211	4752
4203.754	4697
4205.298	4542
4206.84	4734
4208.384	4663
4209.927	4613
4211.47	4653
4213.011	4586
4214.552	4610
4216.094	4625
4217.635	4574
4219.175	4622
4220.716	4520
4222.255	4611
4223.793	4612
4225.335	4581
4226.873	4585
4228.411	4529
4229.948	4596
4231.486	4522
4233.024	4617
4234.562	4566
4236.098	4558
4237.634	4508
4239.169	4596
4240.705	4520
4242.241	4559
4243.776	4622
4245.31	4542
4246.844	4682
4248.378	4504
4249.911	4566
4251.445	4488
4252.978	4572
4254.51	4534
4256.042	4570
4257.574	4515
4259.107	4570
4260.638	4490
4262.169	4513
4263.699	4497
4265.228	4556
4266.759	4459
4268.289	4484
4269.818	4513
4271.345	4467
4272.874	4451
4274.402	4419
4275.931	4472
4277.458	4494
4278.985	4473
4280.512	4492
4282.037	4535
4283.564	4443
4285.089	4444
4286.615	4415
4288.139	4437
4289.664	4398
4291.187	4451
4292.712	4406
4294.235	4344
4295.759	4350
4297.281	4459
4298.804	4350
4300.327	4339
4301.849	4358
4303.37	4480
4304.891	4429
4306.412	4394
4307.933	4357
4309.453	4318
4310.973	4300
4312.492	4295
