398.1873	7079
400.7097	6986
403.2336	6942
405.7547	7018
408.2751	7080
410.7948	7073
413.3138	7219
415.83	7164
418.3497	7205
420.8666	7271
423.3829	7205
425.8985	7344
428.4133	7427
430.9275	7397
433.441	7435
435.9538	7471
438.4639	7547
440.9753	7527
443.4881	7455
445.9982	7456
448.5055	7543
451.0142	7573
453.5201	7520
456.0274	7633
458.5361	7426
461.04	7487
463.5453	7556
466.0478	7467
468.5517	7504
471.0549	7604
473.5574	7706
476.0572	7533
478.5584	7602
481.0568	7676
483.5545	7714
486.0557	7816
488.5521	7606
491.0478	7783
493.5449	7769
496.0392	7634
498.5349	7902
501.0299	7839
503.5222	7812
506.0139	7860
508.5048	7813
510.9991	8017
513.4887	7949
515.9777	7907
518.4659	7798
520.9534	7909
523.4403	7826
525.9306	7747
528.4161	7835
530.9009	7812
533.3851	7928
535.8687	7829
538.3535	8020
540.8356	7916
543.3171	7844
545.7979	7914
548.278	7859
550.7595	7931
553.2383	7894
555.7144	7898
558.1918	7885
560.6685	8070
563.1446	7960
565.6221	8004
568.0968	8024
570.5688	8019
573.0422	8096
575.515	8166
577.989	8222
580.4584	8227
582.9291	8131
585.3991	8225
587.8685	8249
590.3352	8226
592.8052	8207
595.2706	8173
597.7372	8311
600.2033	8197
602.6666	8222
605.1334	8226
607.5953	8171
610.0587	8068
612.5193	8099
614.9814	8177
617.4427	8104
619.9034	8065
622.3615	8283
624.8208	8249
627.2775	8144
629.7335	8168
632.1929	8146
634.6476	8217
637.1016	8132
639.5569	8168
642.0096	8249
644.4637	8169
646.9151	8224
649.3678	8238
651.8179	8192
654.2672	8370
656.7159	8323
659.166	8206
661.6154	8411
664.0622	8299
666.5082	8349
668.9537	8267
671.4005	8377
673.8445	8420
676.288	8409
678.7308	8332
681.1729	8324
683.6163	8360
686.0572	8453
688.4973	8484
690.9368	8438
693.3757	8503
695.8138	8443
698.2534	8538
700.6902	8474
703.1245	8531
705.56	8500
707.9949	8574
710.4311	8683
712.8647	8570
715.2957	8566
717.7279	8722
720.1595	8518
722.5905	8794
725.0208	8836
727.4505	8659
729.8795	8672
732.3058	8897
734.7336	8735
737.1626	8866
739.587	8909
742.0128	9006
744.4359	8929
746.8604	9061
749.2841	8875
751.7073	8840
754.1278	8985
756.5496	8892
758.9688	8976
761.3893	9130
763.8093	9033
766.2285	8964
768.6451	9006
771.0611	9114
773.4784	9170
775.895	9050
778.3091	9095
780.7244	8927
783.1371	9073
785.5493	8988
787.9626	9073
790.3754	9154
792.7856	9131
795.1951	9217
797.6039	9199
800.0121	9079
802.4236	8978
804.8306	9129
807.2369	9082
809.6425	9270
812.0475	9241
814.4538	9177
816.8575	9049
819.2606	9282
821.663	9336
824.0648	9083
826.4659	9256
828.8683	9202
831.2682	9294
833.6674	9244
836.066	9366
838.4639	9241
840.8632	9349
843.2579	9270
845.6539	9330
848.0493	9348
850.444	9382
852.84	9313
855.2315	9354
857.6243	9402
860.0165	9374
862.4081	9276
864.797	9345
867.1892	9224
869.5789	9205
871.9659	9410
874.3542	9282
876.74	9211
879.129	9331
881.5155	9396
883.8994	9295
886.2845	9411
888.6671	9393
891.051	9297
893.4343	9232
895.8169	9346
898.197	9240
900.5783	9498
902.9571	9327
905.3372	9239
907.7167	9503
910.0936	9439
912.4698	9470
914.8474	9471
917.2244	9522
919.5987	9502
921.9744	9590
924.3475	9588
926.72	9759
929.0918	9769
931.4669	9737
933.8375	9682
936.2074	9752
938.5767	9797
940.9454	9810
943.3154	9897
945.6829	9937
948.0497	10284
950.4178	10390
952.7833	10728
955.1483	10826
957.5145	11184
959.8782	11105
962.2412	11008
964.6036	11007
966.9655	10596
969.3266	10344
971.6871	10164
974.0471	9879
976.4064	9875
978.765	9757
981.125	9710
983.4824	9691
985.8373	9694
988.1935	9705
990.549	9579
992.9039	9658
995.2602	9660
997.6119	9608
999.965	9688
1002.317	9742
1004.667	9634
1007.02	9736
1009.371	9817
1011.719	9775
1014.068	9660
1016.415	9546
1018.765	9760
1021.111	9672
1023.458	9738
1025.804	9805
1028.147	9817
1030.49	9707
1032.837	9805
1035.179	9828
1037.522	9749
1039.862	9887
1042.204	9924
1044.546	9777
1046.884	9853
1049.224	9977
1051.562	9798
1053.899	9872
1056.237	9957
1058.575	9922
1060.91	9981
1063.244	9761
1065.58	9904
1067.913	9950
1070.248	9993
1072.579	10034
1074.911	10106
1077.242	9931
1079.572	9895
1081.905	10026
1084.234	9869
1086.562	9925
1088.89	9886
1091.217	9809
1093.544	9872
1095.871	9885
1098.197	10125
1100.521	9926
1102.845	9902
1105.169	9998
1107.491	9845
1109.814	9825
1112.135	9839
1114.456	9891
1116.776	10012
1119.096	9916
1121.415	9952
1123.734	9957
1126.052	10049
1128.369	10138
1130.686	9958
1133.002	10050
1135.318	9959
1137.632	9985
1139.945	9943
1142.258	9940
1144.573	9901
1146.884	9955
1149.196	10084
1151.505	10026
1153.816	9991
1156.124	10047
1158.435	9951
1160.742	9920
1163.051	9977
1165.356	10058
1167.663	9943
1169.97	9968
1172.276	9997
1174.579	10040
1176.881	9922
1179.186	10074
1181.487	10049
1183.79	9907
1186.092	9992
1188.392	10040
1190.691	10007
1192.991	10091
1195.291	9954
1197.588	10098
1199.885	10160
1202.181	10000
1204.479	10053
1206.775	10128
1209.07	9921
1211.363	10006
1213.656	10083
1215.949	10218
1218.241	10186
1220.534	10022
1222.825	10151
1225.115	10182
1227.405	10138
1229.693	10146
1231.984	10125
1234.271	10305
1236.558	10244
1238.845	10279
1241.131	10336
1243.416	10295
1245.703	10321
1247.987	10227
1250.269	10405
1252.552	10503
1254.834	10248
1257.118	10153
1259.399	10474
1261.678	10418
1263.958	10445
1266.237	10289
1268.516	10295
1270.794	10366
1273.072	10429
1275.347	10323
1277.624	10506
1279.899	10236
1282.175	10287
1284.449	10355
1286.722	10326
1288.995	10256
1291.266	10337
1293.54	10222
1295.81	10314
1298.081	10223
1300.35	10228
1302.62	10213
1304.889	10383
1307.156	10250
1309.425	10193
1311.69	10185
1313.957	10330
1316.222	10349
1318.488	10242
1320.751	10311
1323.016	10473
1325.278	10381
1327.54	10214
1329.803	10254
1332.065	10334
1334.325	10453
1336.584	10369
1338.843	10298
1341.101	10337
1343.36	10427
1345.617	10320
1347.876	10211
1350.131	10260
1352.387	10348
1354.643	10380
1356.897	10371
1359.151	10388
1361.403	10221
1363.656	10297
1365.909	10492
1368.16	10297
1370.409	10318
1372.659	10384
1374.909	10483
1377.157	10446
1379.407	10341
1381.655	10391
1383.9	10427
1386.147	10419
1388.393	10487
1390.64	10592
1392.885	10486
1395.127	10600
1397.37	10512
1399.614	10321
1401.854	10486
1404.098	10328
1406.339	10425
1408.578	10424
1410.818	10590
1413.056	10382
1415.297	10474
1417.533	10628
1419.771	10554
1422.006	10452
1424.243	10550
1426.479	10578
1428.715	10529
1430.948	10666
1433.182	10755
1435.414	10754
1437.647	10741
1439.88	10810
1442.11	10595
1444.342	10774
1446.571	10610
1448.799	10776
1451.029	10876
1453.258	10661
1455.485	10703
1457.711	10774
1459.937	10829
1462.164	10700
1464.39	11042
1466.614	10777
1468.838	10583
1471.06	10756
1473.283	10562
1475.506	10453
1477.727	10675
1479.949	10568
1482.169	10615
1484.389	10600
1486.609	10553
1488.828	10459
1491.045	10474
1493.261	10539
1495.477	10426
1497.693	10604
1499.91	10339
1502.125	10515
1504.339	10422
1506.553	10437
1508.766	10517
1510.979	10460
1513.191	10381
1515.402	10485
1517.613	10423
1519.823	10468
1522.033	10323
1524.242	10426
1526.451	10287
1528.657	10578
1530.865	10332
1533.072	10477
1535.278	10342
1537.484	10525
1539.687	10536
1541.892	10458
1544.096	10433
1546.299	10558
1548.502	10565
1550.703	10473
1552.905	10631
1555.104	10424
1557.303	10568
1559.505	10657
1561.703	10590
1563.902	10651
1566.099	10670
1568.295	10807
1570.494	10736
1572.689	10700
1574.883	10763
1577.079	10746
1579.272	10721
1581.467	10708
1583.659	10757
1585.853	10713
1588.044	10692
1590.234	10669
1592.424	10780
1594.615	10865
1596.806	10801
1598.994	10775
1601.182	10874
1603.369	10829
1605.557	10817
1607.744	10997
1609.929	10863
1612.114	10822
1614.298	10817
1616.482	10915
1618.667	10929
1620.85	10938
1623.032	10755
1625.214	11000
1627.395	10809
1629.575	11062
1631.755	10894
1633.935	10853
1636.114	10826
1638.292	10975
1640.471	10899
1642.647	10979
1644.823	10957
1647	10732
1649.175	10868
1651.348	10946
1653.525	10832
1655.698	10974
1657.87	11055
1660.043	10942
1662.213	10928
1664.387	10859
1666.558	10913
1668.727	10969
1670.896	10967
1673.064	10998
1675.233	11026
1677.401	10968
1679.569	10897
1681.735	10865
1683.902	10959
1686.066	10987
1688.233	11064
1690.397	10873
1692.559	10838
1694.723	10795
1696.885	10926
1699.048	10955
1701.21	11014
1703.37	10858
1705.53	10880
1707.689	10794
1709.849	10653
1712.009	10946
1714.166	10918
1716.323	10802
1718.479	10758
1720.634	10796
1722.793	10880
1724.948	10592
1727.102	10828
1729.255	10919
1731.408	10688
1733.562	10976
1735.714	10865
1737.865	10781
1740.016	10916
1742.166	10769
1744.316	10881
1746.467	10786
1748.616	10748
1750.764	10851
1752.911	10851
1755.056	11040
1757.205	10881
1759.35	11005
1761.496	10980
1763.641	10816
1765.785	10955
1767.927	11034
1770.072	10922
1772.214	10834
1774.355	11056
1776.496	11035
1778.637	10931
1780.778	11081
1782.918	11076
1785.057	10988
1787.194	11001
1789.333	11098
1791.472	10914
1793.608	10870
1795.745	10812
1797.879	10866
1800.015	10937
1802.148	11097
1804.284	10977
1806.417	10924
1808.548	10991
1810.682	10890
1812.812	11060
1814.946	11101
1817.075	10962
1819.205	10889
1821.335	11039
1823.463	11105
1825.59	10876
1827.721	10900
1829.847	10943
1831.973	10989
1834.098	11073
1836.223	10878
1838.351	11023
1840.475	10870
1842.598	11027
1844.721	10916
1846.843	10942
1848.966	10925
1851.087	11055
1853.21	10794
1855.33	10773
1857.449	10907
1859.568	10888
1861.688	10926
1863.806	10974
1865.924	10841
1868.039	11004
1870.155	10978
1872.273	10759
1874.388	10837
1876.503	10892
1878.617	10937
1880.73	10900
1882.844	10828
1884.956	10984
1887.068	10966
1889.18	10982
1891.291	10900
1893.4	10903
1895.511	11009
1897.621	10896
1899.73	10949
1901.837	10954
1903.944	11153
1906.053	11185
1908.159	10870
1910.265	11030
1912.369	11001
1914.474	11067
1916.577	11007
1918.683	11013
1920.785	11009
1922.888	10954
1924.989	10982
1927.091	11213
1929.193	10939
1931.294	11285
1933.393	11215
1935.493	10996
1937.59	11083
1939.689	11199
1941.788	11134
1943.884	11093
1945.98	11124
1948.077	11331
1950.171	11154
1952.267	11158
1954.361	11049
1956.455	10983
1958.548	11186
1960.64	11164
1962.733	11300
1964.824	11231
1966.915	11138
1969.005	11073
1971.096	11237
1973.185	11055
1975.275	11088
1977.363	10896
1979.45	11109
1981.537	11133
1983.623	11155
1985.711	11201
1987.796	11027
1989.881	11130
1991.965	11084
1994.047	10966
1996.132	11201
1998.215	10858
2000.297	11113
2002.378	11026
2004.46	10972
2006.54	11021
2008.62	11008
2010.7	10997
2012.779	11050
2014.858	11019
2016.934	11090
2019.013	11031
2021.09	11230
2023.165	10962
2025.241	11103
2027.317	11047
2029.39	10929
2031.466	10965
2033.538	11083
2035.612	11161
2037.683	11066
2039.755	10978
2041.827	10951
2043.898	11126
2045.968	11034
2048.038	11023
2050.106	10983
2052.177	11125
2054.244	11203
2056.313	11094
2058.379	10934
2060.444	11308
2062.511	11207
2064.577	10945
2066.641	11169
2068.705	11121
2070.77	11262
2072.832	11008
2074.896	11115
2076.958	11056
2079.02	11034
2081.081	11042
2083.141	11004
2085.2	11159
2087.261	11001
2089.319	11034
2091.377	11126
2093.435	11086
2095.492	11048
2097.552	11211
2099.607	11015
2101.663	11122
2103.718	11017
2105.771	11031
2107.826	11034
2109.879	11052
2111.932	11205
2113.985	11113
2116.037	11171
2118.088	11115
2120.141	11054
2122.191	11110
2124.239	11182
2126.288	11005
2128.337	10928
2130.387	11016
2132.434	11175
2134.481	11056
2136.528	11202
2138.574	11182
2140.618	11075
2142.665	11194
2144.71	10855
2146.753	11143
2148.797	10962
2150.838	11025
2152.883	10994
2154.923	11065
2156.965	11107
2159.007	11243
2161.046	10885
2163.086	10936
2165.126	11018
2167.163	10989
2169.202	11024
2171.239	11139
2173.277	11063
2175.314	10820
2177.349	11019
2179.385	11106
2181.42	10874
2183.453	10947
2185.49	10913
2187.522	10978
2189.555	10940
2191.586	10910
2193.619	10822
2195.651	10947
2197.682	10804
2199.711	10899
2201.74	10929
2203.769	10762
2205.799	10792
2207.828	10758
2209.855	10833
2211.882	10819
2213.908	10886
2215.934	10814
2217.961	10907
2219.986	10724
2222.01	10962
2224.034	10805
2226.057	10912
2228.08	10780
2230.104	10575
2232.124	10861
2234.145	10796
2236.166	10743
2238.186	10811
2240.207	10810
2242.227	10795
2244.244	10877
2246.262	10812
2248.28	10812
2250.299	10758
2252.314	10804
2254.33	11025
2256.346	10809
2258.36	10842
2260.375	10849
2262.391	10789
2264.403	10877
2266.416	10829
2268.427	10771
2270.44	10891
2272.453	10835
2274.463	10842
2276.474	11030
2278.483	10934
2280.493	10946
2282.501	10914
2284.51	10973
2286.518	10973
2288.524	10855
2290.532	10928
2292.537	10800
2294.544	10805
2296.55	11018
2298.554	10985
2300.557	10901
2302.562	10762
2304.566	10805
2306.568	10692
2308.569	10865
2310.572	10792
2312.573	10861
2314.573	10848
2316.574	10807
2318.573	10606
2320.571	10612
2322.571	10812
2324.569	10824
2326.567	10848
2328.564	10848
2330.56	10657
2332.556	10759
2334.551	10752
2336.546	10660
2338.542	10713
2340.535	10703
2342.529	10738
2344.521	10758
2346.512	10682
2348.505	10731
2350.497	10577
2352.487	10723
2354.478	10752
2356.468	10737
2358.457	10635
2360.446	10747
2362.434	10546
2364.422	10600
2366.408	10710
2368.395	10538
2370.383	10658
2372.369	10607
2374.353	10689
2376.338	10617
2378.321	10755
2380.307	10524
2382.29	10533
2384.272	10622
2386.254	10736
2388.235	10581
2390.218	10547
2392.198	10525
2394.179	10498
2396.157	10562
2398.137	10718
2400.115	10461
2402.095	10504
2404.072	10625
2406.048	10573
2408.026	10504
2410.001	10656
2411.977	10709
2413.953	10560
2415.927	10511
2417.9	10503
2419.875	10598
2421.847	10545
2423.821	10518
2425.792	10494
2427.763	10593
2429.736	10524
2431.706	10553
2433.677	10307
2435.646	10598
2437.615	10544
2439.583	10548
2441.551	10534
2443.519	10552
2445.486	10480
2447.452	10605
2449.418	10522
2451.383	10559
2453.348	10406
2455.314	10450
2457.278	10466
2459.241	10557
2461.205	10532
2463.167	10465
2465.131	10615
2467.091	10392
2469.052	10503
2471.012	10525
2472.972	10468
2474.932	10378
2476.891	10340
2478.85	10374
2480.808	10287
2482.766	10535
2484.722	10349
2486.68	10478
2488.636	10312
2490.591	10426
2492.546	10340
2494.5	10306
2496.456	10227
2498.41	10436
2500.362	10433
2502.315	10264
2504.266	10504
2506.218	10328
2508.169	10246
2510.121	10369
2512.07	10400
2514.019	10300
2515.968	10313
2517.918	10330
2519.866	10316
2521.813	10255
2523.76	10305
2525.707	10334
2527.653	10319
2529.599	10382
2531.543	10309
2533.489	10264
2535.433	10454
2537.376	10219
2539.32	10377
2541.264	10263
2543.205	10366
2545.147	10384
2547.087	10407
2549.029	10306
2550.969	10423
2552.908	10375
2554.847	10407
2556.786	10419
2558.724	10424
2560.663	10199
2562.6	10442
2564.537	10399
2566.473	10358
2568.408	10249
2570.345	10286
2572.28	10427
2574.214	10274
2576.148	10307
2578.081	10305
2580.014	10342
2581.947	10281
2583.879	10355
2585.81	10478
2587.741	10388
2589.67	10340
2591.602	10299
2593.532	10510
2595.461	10342
2597.388	10441
2599.316	10367
2601.244	10431
2603.172	10188
2605.098	10244
2607.023	10502
2608.949	10498
2610.873	10340
2612.8	10370
2614.723	10393
2616.647	10349
2618.569	10549
2620.493	10429
2622.416	10395
2624.338	10298
2626.258	10485
2628.179	10440
2630.099	10472
2632.019	10506
2633.939	10353
2635.857	10465
2637.775	10311
2639.694	10384
2641.61	10508
2643.528	10527
2645.444	10337
2647.361	10290
2649.276	10390
2651.19	10353
2653.105	10362
2655.019	10475
2656.934	10360
2658.846	10432
2660.758	10279
2662.67	10471
2664.583	10349
2666.493	10345
2668.404	10392
2670.313	10337
2672.223	10449
2674.134	10332
2676.042	10397
2677.95	10486
2679.858	10315
2681.765	10222
2683.673	10346
2685.579	10383
2687.483	10309
2689.389	10307
2691.294	10224
2693.198	10484
2695.104	10345
2697.006	10379
2698.909	10303
2700.811	10350
2702.713	10277
2704.615	10198
2706.516	10395
2708.417	10400
2710.316	10278
2712.216	10203
2714.115	10378
2716.014	10312
2717.913	10228
2719.81	10294
2721.707	10264
2723.603	10358
2725.501	10108
2727.396	10180
2729.292	10211
2731.186	10237
2733.081	10178
2734.976	10179
2736.87	10093
2738.762	10232
2740.653	10205
2742.546	10290
2744.437	10233
2746.329	10288
2748.22	10258
2750.11	10051
2751.999	10055
2753.889	10211
2755.778	10056
2757.666	10249
2759.553	10119
2761.44	10234
2763.328	10113
2765.215	10299
2767.101	10070
2768.986	10050
2770.87	10191
2772.754	10110
2774.638	10163
2776.523	10234
2778.405	10060
2780.288	10029
2782.17	10051
2784.051	10202
2785.934	10153
2787.814	10057
2789.694	10212
2791.574	10050
2793.453	10064
2795.332	10237
2797.212	10170
2799.088	10073
2800.966	10040
2802.843	10071
2804.719	10173
2806.597	10091
2808.471	10069
2810.346	10083
2812.221	10183
2814.094	10156
2815.969	9980
2817.843	10036
2819.714	10165
2821.587	10149
2823.459	10119
2825.329	9956
2827.202	10030
2829.072	10051
2830.942	10185
2832.811	10170
2834.68	10100
2836.549	9932
2838.418	10028
2840.284	10035
2842.152	10029
2844.018	10124
2845.885	10037
2847.751	10100
2849.616	10207
2851.482	10231
2853.345	10076
2855.208	10097
2857.074	10203
2858.937	10050
2860.799	10050
2862.66	10194
2864.522	10280
2866.385	10282
2868.245	10214
2870.104	10279
2871.964	10265
2873.824	10339
2875.683	10335
2877.542	10260
2879.4	10450
2881.257	10583
2883.114	10486
2884.97	10479
2886.827	10480
2888.683	10527
2890.537	10401
2892.392	10599
2894.246	10449
2896.1	10450
2897.954	10556
2899.807	10321
2901.66	10453
2903.51	10541
2905.362	10322
2907.214	10469
2909.065	10359
2910.915	10503
2912.765	10591
2914.613	10544
2916.463	10663
2918.311	10698
2920.158	10541
2922.006	10766
2923.853	10805
2925.698	10686
2927.546	10953
2929.392	10706
2931.236	10716
2933.081	10900
2934.924	10977
2936.77	10891
2938.613	10903
2940.455	11004
2942.298	10919
2944.139	10892
2945.982	11314
2947.823	10953
2949.662	11036
2951.503	11013
2953.342	10823
2955.182	10820
2957.021	10841
2958.858	10977
2960.697	11007
2962.534	10764
2964.37	10752
2966.207	10615
2968.044	10706
2969.879	10565
2971.714	10517
2973.548	10391
2975.383	10418
2977.218	10431
2979.051	10434
2980.883	10321
2982.715	10380
2984.547	10527
2986.379	10174
2988.21	10156
2990.04	10161
2991.87	10143
2993.7	10262
2995.53	10126
2997.359	10296
2999.187	9937
3001.015	10094
3002.842	10010
3004.669	9883
3006.497	10026
3008.323	10057
3010.148	9881
3011.974	9792
3013.797	9905
3015.623	9844
3017.447	9695
3019.27	9705
3021.094	9778
3022.915	9573
3024.737	9675
3026.56	9646
3028.38	9728
3030.201	9503
3032.022	9634
3033.84	9477
3035.662	9671
3037.481	9546
3039.298	9610
3041.117	9569
3042.933	9647
3044.752	9581
3046.568	9691
3048.385	9602
3050.2	9539
3052.016	9528
3053.83	9408
3055.646	9615
3057.46	9433
3059.272	9628
3061.086	9487
3062.898	9456
3064.711	9479
3066.524	9516
3068.335	9480
3070.145	9558
3071.956	9367
3073.766	9430
3075.576	9539
3077.385	9391
3079.193	9512
3081.002	9429
3082.81	9463
3084.618	9548
3086.425	9369
3088.231	9408
3090.036	9221
3091.842	9160
3093.648	9245
3095.452	9319
3097.257	9384
3099.06	9157
3100.863	9373
3102.666	9328
3104.47	9372
3106.272	9203
3108.073	9289
3109.875	9333
3111.676	9230
3113.477	9274
3115.277	9246
3117.077	9254
3118.874	9130
3120.673	9236
3122.473	9270
3124.271	9179
3126.066	9211
3127.863	9139
3129.66	9314
3131.456	9245
3133.252	9129
3135.047	9064
3136.842	9070
3138.635	9100
3140.429	9033
3142.223	8983
3144.016	9060
3145.808	9108
3147.6	9085
3149.392	8975
3151.183	9101
3152.975	9088
3154.765	9039
3156.553	8980
3158.344	9263
3160.132	9142
3161.922	8935
3163.71	8990
3165.497	9159
3167.285	8965
3169.071	8931
3170.858	8932
3172.645	9090
3174.429	9047
3176.214	8915
3177.998	8890
3179.783	8991
3181.568	8953
3183.351	8984
3185.133	9048
3186.915	8987
3188.698	8946
3190.481	8870
3192.261	8971
3194.042	8992
3195.822	8979
3197.601	8906
3199.381	8848
3201.161	8974
3202.939	8904
3204.717	8943
3206.495	8866
3208.272	8753
3210.05	8845
3211.826	8835
3213.602	8899
3215.376	8753
3217.151	8947
3218.927	8840
3220.702	8902
3222.476	8955
3224.249	8778
3226.021	8854
3227.793	9051
3229.567	8797
3231.339	8882
3233.109	8820
3234.88	8819
3236.651	8829
3238.421	8791
3240.191	8776
3241.96	8784
3243.728	8756
3245.497	8857
3247.263	8795
3249.033	8857
3250.799	8734
3252.566	8789
3254.331	8922
3256.097	8804
3257.863	8858
3259.628	8932
3261.392	8800
3263.156	8788
3264.919	8753
3266.683	8773
3268.447	8812
3270.208	8652
3271.969	8871
3273.731	8671
3275.492	8780
3277.253	8809
3279.013	8660
3280.773	8715
3282.532	8918
3284.291	8813
3286.05	8793
3287.808	8789
3289.566	8772
3291.323	8720
3293.079	8833
3294.835	8780
3296.593	8764
3298.348	8694
3300.102	8755
3301.857	8742
3303.611	8825
3305.366	8769
3307.119	8661
3308.872	8648
3310.624	8774
3312.376	8983
3314.129	8723
3315.881	8749
3317.631	8665
3319.38	8647
3321.13	8710
3322.88	8673
3324.631	8628
3326.379	8682
3328.126	8773
3329.875	8669
3331.622	8770
3333.371	8864
3335.116	8635
3336.863	8661
3338.609	8673
3340.353	8729
3342.1	8765
3343.845	8701
3345.588	8643
3347.332	8615
3349.074	8520
3350.817	8666
3352.56	8607
3354.303	8465
3356.043	8583
3357.785	8623
3359.525	8624
3361.268	8698
3363.007	8743
3364.745	8545
3366.485	8513
3368.223	8626
3369.962	8558
3371.701	8529
3373.438	8518
3375.174	8542
3376.911	8585
3378.647	8450
3380.384	8560
3382.118	8393
3383.854	8390
3385.588	8601
3387.322	8612
3389.057	8648
3390.79	8423
3392.522	8519
3394.255	8478
3395.987	8612
3397.719	8500
3399.451	8413
3401.181	8518
3402.911	8481
3404.641	8455
3406.371	8317
3408.101	8307
3409.83	8470
3411.558	8477
3413.285	8453
3415.011	8402
3416.739	8559
3418.467	8399
3420.193	8400
3421.919	8384
3423.644	8422
3425.368	8482
3427.094	8360
3428.818	8370
3430.542	8376
3432.264	8401
3433.987	8330
3435.712	8412
3437.434	8282
3439.155	8326
3440.876	8236
3442.596	8318
3444.317	8239
3446.039	8270
3447.757	8188
3449.477	8161
3451.195	8309
3452.914	8365
3454.632	8302
3456.35	8268
3458.067	8218
3459.784	8196
3461.5	8259
3463.216	8323
3464.932	8245
3466.647	8166
3468.362	8216
3470.076	8197
3471.789	8102
3473.505	8212
3475.217	7973
3476.929	8068
3478.641	7980
3480.354	8066
3482.066	8164
3483.777	8061
3485.487	8078
3487.197	8102
3488.908	8049
3490.617	8120
3492.327	7988
3494.035	7961
3495.743	8020
3497.451	8035
3499.158	7973
3500.866	8003
3502.572	8004
3504.278	7866
3505.984	7964
3507.689	7955
3509.396	7937
3511.1	8028
3512.804	8135
3514.508	7907
3516.211	8045
3517.913	7971
3519.616	7923
3521.319	7877
3523.021	8043
3524.722	7933
3526.422	7885
3528.124	7785
3529.824	7968
3531.524	7908
3533.222	7940
3534.921	7870
3536.62	7881
3538.318	7949
3540.016	7942
3541.714	7980
3543.41	7884
3545.107	7871
3546.803	7963
3548.5	7827
3550.194	7821
3551.889	7892
3553.583	7811
3555.279	7852
3556.972	7908
3558.666	7799
3560.358	7749
3562.051	7860
3563.742	7821
3565.435	7772
3567.126	7931
3568.817	7725
3570.507	7763
3572.197	7863
3573.888	7770
3575.577	7817
3577.265	7800
3578.954	7753
3580.642	7729
3582.329	7807
3584.017	7807
3585.704	7645
3587.391	7567
3589.077	7798
3590.762	7558
3592.449	7643
3594.133	7614
3595.817	7625
3597.501	7639
3599.185	7607
3600.869	7757
3602.552	7704
3604.234	7506
3605.916	7611
3607.598	7567
3609.279	7653
3610.961	7431
3612.642	7665
3614.321	7689
3616	7580
3617.68	7459
3619.36	7482
3621.039	7586
3622.716	7548
3624.394	7465
3626.071	7391
3627.748	7459
3629.425	7483
3631.102	7392
3632.778	7481
3634.452	7403
3636.127	7525
3637.803	7525
3639.477	7430
3641.151	7323
3642.823	7295
3644.497	7514
3646.171	7406
3647.842	7398
3649.515	7392
3651.185	7368
3652.857	7381
3654.527	7344
3656.198	7335
3657.868	7393
3659.537	7430
3661.207	7312
3662.875	7293
3664.544	7382
3666.212	7384
3667.879	7353
3669.546	7420
3671.212	7400
3672.88	7339
3674.546	7251
3676.211	7394
3677.875	7363
3679.541	7305
3681.205	7249
3682.87	7375
3684.533	7239
3686.196	7375
3687.859	7316
3689.521	7241
3691.184	7345
3692.845	7283
3694.507	7327
3696.167	7282
3697.827	7192
3699.487	7266
3701.148	7243
3702.808	7228
3704.466	7240
3706.125	7342
3707.783	7217
3709.442	7251
3711.099	7297
3712.757	7225
3714.412	7266
3716.068	7183
3717.725	7261
3719.381	7113
3721.036	7135
3722.689	7374
3724.344	7093
3725.998	7135
3727.652	7225
3729.305	7148
3730.958	7137
3732.61	7217
3734.262	7145
3735.915	7261
3737.565	7304
3739.217	7196
3740.866	6996
3742.516	7078
3744.165	7242
3745.816	7076
3747.464	7076
3749.113	7186
3750.761	7162
3752.409	7015
3754.057	7074
3755.703	7101
3757.35	7055
3758.996	7061
3760.641	6899
3762.289	6979
3763.933	7050
3765.577	7055
3767.222	7073
3768.865	7064
3770.508	7109
3772.152	7003
3773.796	7047
3775.438	6967
3777.079	6953
3778.721	6952
3780.363	6944
3782.003	6940
3783.643	7025
3785.283	6868
3786.923	6911
3788.563	6828
3790.203	7008
3791.841	6922
3793.479	6899
3795.115	6929
3796.753	6833
3798.391	6993
3800.027	6902
3801.664	6884
3803.299	6870
3804.935	6876
3806.571	6841
3808.206	6858
3809.839	6855
3811.473	6965
3813.107	6889
3814.74	6823
3816.375	6868
3818.006	6796
3819.638	6873
3821.27	6766
3822.9	6797
3824.532	6766
3826.163	6793
3827.792	6664
3829.423	6751
3831.051	6793
3832.682	6801
3834.311	6835
3835.938	6749
3837.566	6713
3839.193	6678
3840.821	6747
3842.448	6693
3844.075	6724
3845.7	6662
3847.325	6731
3848.951	6699
3850.576	6724
3852.201	6678
3853.825	6854
3855.448	6703
3857.072	6783
3858.694	6633
3860.318	6695
3861.939	6696
3863.562	6661
3865.183	6766
3866.804	6735
3868.426	6677
3870.045	6609
3871.666	6614
3873.285	6584
3874.904	6546
3876.524	6661
3878.142	6581
3879.76	6515
3881.378	6684
3882.995	6566
3884.612	6593
3886.229	6651
3887.845	6475
3889.461	6611
3891.076	6638
3892.691	6579
3894.307	6708
3895.922	6583
3897.536	6521
3899.149	6642
3900.761	6485
3902.374	6509
3903.988	6631
3905.6	6592
3907.212	6546
3908.822	6594
3910.433	6553
3912.045	6601
3913.655	6519
3915.265	6497
3916.875	6583
3918.483	6570
3920.093	6591
3921.702	6639
3923.309	6456
3924.917	6559
3926.523	6566
3928.13	6472
3929.739	6553
3931.344	6559
3932.95	6493
3934.555	6443
3936.159	6458
3937.766	6498
3939.369	6492
3940.974	6559
3942.577	6505
3944.181	6638
3945.783	6438
3947.386	6499
3948.989	6416
3950.59	6398
3952.191	6370
3953.791	6520
3955.394	6322
3956.994	6374
3958.593	6452
3960.192	6456
3961.791	6265
3963.392	6513
3964.99	6408
3966.588	6439
3968.185	6363
3969.782	6372
3971.379	6297
3972.976	6305
3974.572	6326
3976.168	6247
3977.763	6344
3979.358	6315
3980.954	6286
3982.548	6258
3984.142	6223
3985.736	6231
3987.329	6297
3988.922	6272
3990.516	6324
3992.108	6313
3993.698	6223
3995.29	6303
3996.881	6310
3998.473	6220
4000.064	6276
4001.653	6206
4003.242	6188
4004.832	6201
4006.422	6133
4008.01	6189
4009.598	6101
4011.186	6160
4012.773	6171
4014.36	6058
4015.947	6086
4017.534	6167
4019.119	6109
4020.705	5965
4022.291	6179
4023.876	6056
4025.461	6053
4027.044	6053
4028.627	6198
4030.211	6129
4031.795	6008
4033.378	5982
4034.96	6171
4036.542	6054
4038.124	5992
4039.704	5988
4041.286	6085
4042.867	5932
4044.447	5933
4046.026	6014
4047.606	6003
4049.187	6051
4050.765	5989
4052.343	5915
4053.92	5955
4055.498	5948
4057.076	5991
4058.654	6033
4060.23	5992
4061.806	6083
4063.381	6048
4064.957	6039
4066.533	5871
4068.107	5936
4069.682	6003
4071.256	5924
4072.829	5944
4074.404	5980
4075.977	5940
4077.549	5983
4079.121	5909
4080.693	5882
4082.265	5878
4083.836	5859
4085.407	5826
4086.977	5911
4088.547	5832
4090.117	5814
4091.687	5919
4093.256	5959
4094.825	5781
4096.392	5932
4097.96	5858
4099.528	5917
4101.097	5863
4102.663	5726
4104.229	5772
4105.795	5811
4107.361	5745
4108.928	5842
4110.493	5788
4112.058	5806
4113.621	5725
4115.186	5811
4116.75	6015
4118.313	5683
4119.876	5736
4121.438	5784
4123	5801
4124.562	5822
4126.125	5586
4127.686	5655
4129.246	5752
4130.807	5691
4132.367	5657
4133.927	5706
4135.486	5731
4137.046	5671
4138.604	5745
4140.162	5712
4141.72	5657
4143.279	5690
4144.836	5640
4146.393	5666
4147.949	5614
4149.505	5680
4151.062	5549
4152.617	5631
4154.172	5585
4155.727	5697
4157.281	5611
4158.836	5705
4160.39	5565
4161.943	5505
4163.496	5595
4165.048	5532
4166.601	5640
4168.154	5528
4169.706	5543
4171.257	5453
4172.808	5496
4174.358	5481
4175.909	5570
4177.458	5528
4179.008	5506
4180.558	5535
4182.106	5491
4183.655	5477
4185.204	5508
4186.751	5530
4188.298	5532
4189.845	5478
4191.392	5641
4192.939	5414
4194.485	5473
4196.031	5405
4197.576	5419
4199.121	5545
4200.666	5505
4202.211	5469
4203.754	5388
4205.298	5423
4206.84	5390
4208.384	5396
4209.927	5512
4211.47	5423
4213.011	5377
4214.552	5454
4216.094	5306
4217.635	5418
4219.175	5334
4220.716	5367
4222.255	5425
4223.793	5316
4225.335	5437
4226.873	5364
4228.411	5297
4229.948	5283
4231.486	5306
4233.024	5316
4234.562	5395
4236.098	5371
4237.634	5322
4239.169	5316
4240.705	5326
4242.241	5308
4243.776	5344
4245.31	5326
4246.844	5245
4248.378	5293
4249.911	5241
4251.445	5318
4252.978	5409
4254.51	5239
4256.042	5313
4257.574	5280
4259.107	5254
4260.638	5243
4262.169	5354
4263.699	5222
4265.228	5247
4266.759	5245
4268.289	5192
4269.818	5143
4271.345	5165
4272.874	5246
4274.402	5201
4275.931	5258
4277.458	5252
4278.985	5237
4280.512	5258
4282.037	5295
4283.564	5267
4285.089	5156
4286.615	5175
4288.139	5185
4289.664	5145
4291.187	5081
4292.712	5268
4294.235	5117
4295.759	5128
4297.281	5209
4298.804	5120
4300.327	5176
4301.849	5095
4303.37	5129
4304.891	5095
4306.412	5231
4307.933	5063
4309.453	5100
4310.973	5070
4312.492	5105
