398.1873	5570
400.7097	5659
403.2336	5492
405.7547	5555
408.2751	5690
410.7948	5712
413.3138	5684
415.83	5804
418.3497	5679
420.8666	5871
423.3829	5885
425.8985	5880
428.4133	6009
430.9275	6048
433.441	6104
435.9538	6018
438.4639	6050
440.9753	5955
443.4881	6022
445.9982	6108
448.5055	6108
451.0142	6040
453.5201	6002
456.0274	6136
458.5361	6053
461.04	6026
463.5453	6042
466.0478	5975
468.5517	6049
471.0549	5995
473.5574	5969
476.0572	5999
478.5584	6162
481.0568	5979
483.5545	5994
486.0557	6089
488.5521	6019
491.0478	6214
493.5449	6145
496.0392	6113
498.5349	6226
501.0299	6124
503.5222	6175
506.0139	6170
508.5048	6253
510.9991	6246
513.4887	6174
515.9777	6300
518.4659	6364
520.9534	6268
523.4403	6214
525.9306	6341
528.4161	6232
530.9009	6179
533.3851	6200
535.8687	6282
538.3535	6269
540.8356	6298
543.3171	6138
545.7979	6299
548.278	6292
550.7595	6278
553.2383	6116
555.7144	6309
558.1918	6278
560.6685	6338
563.1446	6436
565.6221	6365
568.0968	6358
570.5688	6483
573.0422	6449
575.515	6455
577.989	6515
580.4584	6625
582.9291	6535
585.3991	6593
587.8685	6535
590.3352	6591
592.8052	6633
595.2706	6528
597.7372	6573
600.2033	6507
602.6666	6541
605.1334	6577
607.5953	6470
610.0587	6574
612.5193	6421
614.9814	6500
617.4427	6547
619.9034	6358
622.3615	6373
624.8208	6511
627.2775	6376
629.7335	6442
632.1929	6500
634.6476	6357
637.1016	6525
639.5569	6484
642.0096	6419
644.4637	6429
646.9151	6451
649.3678	6676
651.8179	6479
654.2672	6580
656.7159	6594
659.166	6559
661.6154	6583
664.0622	6576
666.5082	6504
668.9537	6668
671.4005	6646
673.8445	6468
676.288	6639
678.7308	6668
681.1729	6736
683.6163	6629
686.0572	6691
688.4973	6755
690.9368	6683
693.3757	6741
695.8138	6840
698.2534	6674
700.6902	6868
703.1245	6724
705.56	6709
707.9949	6680
710.4311	6829
712.8647	6636
715.2957	6716
717.7279	6801
720.1595	6869
722.5905	6864
725.0208	6975
727.4505	6821
729.8795	6912
732.3058	7126
734.7336	6912
737.1626	7021
739.587	7068
742.0128	6970
744.4359	7054
746.8604	7019
749.2841	7084
751.7073	7109
754.1278	7264
756.5496	7100
758.9688	7118
761.3893	7167
763.8093	7201
766.2285	7173
768.6451	7251
771.0611	7176
773.4784	7245
775.895	7122
778.3091	7181
780.7244	7265
783.1371	7265
785.5493	7034
787.9626	7170
790.3754	7145
792.7856	7050
795.1951	7190
797.6039	7256
800.0121	7122
802.4236	7236
804.8306	7274
807.2369	7389
809.6425	7273
812.0475	7254
814.4538	7211
816.8575	7309
819.2606	7271
821.663	7293
824.0648	7160
826.4659	7239
828.8683	7311
831.2682	7225
833.6674	7271
836.066	7249
838.4639	7182
840.8632	7398
843.2579	7456
845.6539	7323
848.0493	7350
850.444	7338
852.84	7462
855.2315	7395
857.6243	7594
860.0165	7227
862.4081	7410
864.797	7521
867.1892	7397
869.5789	7308
871.9659	7366
874.3542	7496
876.74	7345
879.129	7318
881.5155	7384
883.8994	7423
886.2845	7375
888.6671	7469
891.051	7390
893.4343	7358
895.8169	7350
898.197	7364
900.5783	7265
902.9571	7389
905.3372	7323
907.7167	7431
910.0936	7385
912.4698	7469
914.8474	7516
917.2244	7578
919.5987	7623
921.9744	7556
924.3475	7648
926.72	7593
929.0918	7597
931.4669	7785
933.8375	7722
936.2074	7684
938.5767	7763
940.9454	7950
943.3154	8065
945.6829	8134
948.0497	8288
950.4178	8455
952.7833	8902
955.1483	9117
957.5145	9464
959.8782	9660
962.2412	9629
964.6036	9189
966.9655	8950
969.3266	8729
971.6871	8329
974.0471	8156
976.4064	7811
978.765	7880
981.125	7671
983.4824	7578
985.8373	7681
988.1935	7618
990.549	7596
992.9039	7791
995.2602	7665
997.6119	7552
999.965	7726
1002.317	7664
1004.667	7675
1007.02	7713
1009.371	7789
1011.719	7786
1014.068	7741
1016.415	7772
1018.765	7629
1021.111	7654
1023.458	7914
1025.804	7734
1028.147	7737
1030.49	7784
1032.837	7853
1035.179	7809
1037.522	7757
1039.862	7894
1042.204	7942
1044.546	7880
1046.884	7885
1049.224	7815
1051.562	7934
1053.899	7945
1056.237	7884
1058.575	7769
1060.91	7989
1063.244	7994
1065.58	7969
1067.913	7920
1070.248	8203
1072.579	8042
1074.911	8148
1077.242	7905
1079.572	7873
1081.905	7989
1084.234	7927
1086.562	7846
1088.89	7810
1091.217	7794
1093.544	7807
1095.871	7815
1098.197	7919
1100.521	7895
1102.845	7962
1105.169	7900
1107.491	7914
1109.814	7949
1112.135	7767
1114.456	7937
1116.776	7849
1119.096	7905
1121.415	7913
1123.734	7670
1126.052	7894
1128.369	7794
1130.686	7875
1133.002	7828
1135.318	7861
1137.632	7826
1139.945	7882
1142.258	7948
1144.573	7934
1146.884	7894
1149.196	7933
1151.505	7959
1153.816	7800
1156.124	7946
1158.435	7931
1160.742	8024
1163.051	7958
1165.356	7986
1167.663	7978
1169.97	7700
1172.276	7851
1174.579	7859
1176.881	7899
1179.186	7875
1181.487	7879
1183.79	7790
1186.092	7939
1188.392	7769
1190.691	7880
1192.991	7763
1195.291	7890
1197.588	8017
1199.885	7840
1202.181	7827
1204.479	7925
1206.775	7869
1209.07	7970
1211.363	7802
1213.656	7901
1215.949	7891
1218.241	7924
1220.534	7974
1222.825	7962
1225.115	8090
1227.405	8019
1229.693	8049
1231.984	8044
1234.271	7973
1236.558	8158
1238.845	8215
1241.131	8180
1243.416	8147
1245.703	8105
1247.987	8229
1250.269	8198
1252.552	8254
1254.834	8179
1257.118	8111
1259.399	8163
1261.678	8193
1263.958	8108
1266.237	8248
1268.516	8280
1270.794	8156
1273.072	8106
1275.347	8240
1277.624	8096
1279.899	8135
1282.175	8161
1284.449	8206
1286.722	8020
1288.995	8046
1291.266	8155
1293.54	8056
1295.81	8069
1298.081	8075
1300.35	8022
1302.62	8012
1304.889	8188
1307.156	8111
1309.425	8118
1311.69	8163
1313.957	8188
1316.222	8204
1318.488	7973
1320.751	8168
1323.016	8067
1325.278	8120
1327.54	7997
1329.803	7994
1332.065	8073
1334.325	8130
1336.584	8045
1338.843	7969
1341.101	8125
1343.36	8066
1345.617	8056
1347.876	8056
1350.131	8010
1352.387	8019
1354.643	8141
1356.897	8013
1359.151	8022
1361.403	8191
1363.656	8002
1365.909	8098
1368.16	8060
1370.409	8075
1372.659	8014
1374.909	8172
1377.157	8118
1379.407	8124
1381.655	8186
1383.9	8226
1386.147	8187
1388.393	8082
1390.64	8255
1392.885	8188
1395.127	8183
1397.37	8148
1399.614	8135
1401.854	8282
1404.098	8101
1406.339	8172
1408.578	8146
1410.818	8229
1413.056	8430
1415.297	8309
1417.533	8176
1419.771	8247
1422.006	8407
1424.243	8316
1426.479	8412
1428.715	8463
1430.948	8259
1433.182	8416
1435.414	8433
1437.647	8387
1439.88	8553
1442.11	8492
1444.342	8460
1446.571	8424
1448.799	8500
1451.029	8503
1453.258	8632
1455.485	8529
1457.711	8492
1459.937	8403
1462.164	8413
1464.39	8426
1466.614	8345
1468.838	8441
1471.06	8360
1473.283	8447
1475.506	8380
1477.727	8356
1479.949	8403
1482.169	8316
1484.389	8285
1486.609	8133
1488.828	8305
1491.045	8225
1493.261	8104
1495.477	8165
1497.693	8162
1499.91	8289
1502.125	8081
1504.339	8151
1506.553	8122
1508.766	8122
1510.979	8197
1513.191	8180
1515.402	8183
1517.613	8037
1519.823	8160
1522.033	8256
1524.242	8241
1526.451	8167
1528.657	8110
1530.865	8205
1533.072	8194
1535.278	8227
1537.484	8224
1539.687	8311
1541.892	8175
1544.096	8351
1546.299	8251
1548.502	8246
1550.703	8242
1552.905	8303
1555.104	8187
1557.303	8272
1559.505	8391
1561.703	8335
1563.902	8324
1566.099	8392
1568.295	8437
1570.494	8377
1572.689	8352
1574.883	8335
1577.079	8330
1579.272	8449
1581.467	8479
1583.659	8409
1585.853	8413
1588.044	8352
1590.234	8490
1592.424	8513
1594.615	8364
1596.806	8577
1598.994	8484
1601.182	8390
1603.369	8479
1605.557	8413
1607.744	8695
1609.929	8524
1612.114	8510
1614.298	8596
1616.482	8470
1618.667	8387
1620.85	8546
1623.032	8504
1625.214	8492
1627.395	8490
1629.575	8552
1631.755	8668
1633.935	8674
1636.114	8585
1638.292	8617
1640.471	8679
1642.647	8648
1644.823	8592
1647	8468
1649.175	8589
1651.348	8510
1653.525	8574
1655.698	8719
1657.87	8642
1660.043	8643
1662.213	8707
1664.387	8687
1666.558	8729
1668.727	8704
1670.896	8817
1673.064	8696
1675.233	8839
1677.401	8657
1679.569	8665
1681.735	8734
1683.902	8698
1686.066	8691
1688.233	8627
1690.397	8574
1692.559	8675
1694.723	8516
1696.885	8596
1699.048	8609
1701.21	8533
1703.37	8589
1705.53	8603
1707.689	8602
1709.849	8478
1712.009	8453
1714.166	8561
1716.323	8452
1718.479	8487
1720.634	8575
1722.793	8467
1724.948	8511
1727.102	8526
1729.255	8482
1731.408	8536
1733.562	8507
1735.714	8542
1737.865	8769
1740.016	8504
1742.166	8587
1744.316	8478
1746.467	8539
1748.616	8589
1750.764	8506
1752.911	8540
1755.056	8633
1757.205	8454
1759.35	8566
1761.496	8693
1763.641	8638
1765.785	8503
1767.927	8728
1770.072	8652
1772.214	8658
1774.355	8678
1776.496	8553
1778.637	8674
1780.778	8616
1782.918	8676
1785.057	8724
1787.194	8662
1789.333	8741
1791.472	8662
1793.608	8742
1795.745	8596
1797.879	8732
1800.015	8614
1802.148	8581
1804.284	8653
1806.417	8720
1808.548	8606
1810.682	8556
1812.812	8581
1814.946	8683
1817.075	8610
1819.205	8684
1821.335	8553
1823.463	8592
1825.59	8505
1827.721	8568
1829.847	8708
1831.973	8661
1834.098	8608
1836.223	8612
1838.351	8527
1840.475	8633
1842.598	8518
1844.721	8595
1846.843	8613
1848.966	8634
1851.087	8594
1853.21	8592
1855.33	8629
1857.449	8590
1859.568	8569
1861.688	8596
1863.806	8600
1865.924	8635
1868.039	8639
1870.155	8433
1872.273	8573
1874.388	8573
1876.503	8504
1878.617	8602
1880.73	8656
1882.844	8598
1884.956	8578
1887.068	8715
1889.18	8588
1891.291	8653
1893.4	8716
1895.511	8612
1897.621	8726
1899.73	8595
1901.837	8512
1903.944	8730
1906.053	8563
1908.159	8741
1910.265	8559
1912.369	8717
1914.474	8794
1916.577	8678
1918.683	8628
1920.785	8800
1922.888	8876
1924.989	8769
1927.091	8738
1929.193	8719
1931.294	8854
1933.393	8639
1935.493	8714
1937.59	8815
1939.689	8727
1941.788	8728
1943.884	8796
1945.98	8696
1948.077	8769
1950.171	8828
1952.267	8755
1954.361	8748
1956.455	8783
1958.548	8868
1960.64	8820
1962.733	8692
1964.824	8881
1966.915	8687
1969.005	8732
1971.096	8661
1973.185	8642
1975.275	8643
1977.363	8644
1979.45	8781
1981.537	8799
1983.623	8506
1985.711	8820
1987.796	8690
1989.881	8679
1991.965	8711
1994.047	8736
1996.132	8724
1998.215	8626
2000.297	8757
2002.378	8685
2004.46	8601
2006.54	8679
2008.62	8710
2010.7	8668
2012.779	8715
2014.858	8619
2016.934	8683
2019.013	8596
2021.09	8639
2023.165	8641
2025.241	8716
2027.317	8619
2029.39	8690
2031.466	8689
2033.538	8690
2035.612	8688
2037.683	8709
2039.755	8707
2041.827	8728
2043.898	8604
2045.968	8730
2048.038	8676
2050.106	8649
2052.177	8716
2054.244	8554
2056.313	8730
2058.379	8733
2060.444	8844
2062.511	8645
2064.577	8719
2066.641	8736
2068.705	8710
2070.77	8697
2072.832	8558
2074.896	8694
2076.958	8753
2079.02	8676
2081.081	8683
2083.141	8757
2085.2	8802
2087.261	8823
2089.319	8688
2091.377	8661
2093.435	8849
2095.492	8794
2097.552	8900
2099.607	8686
2101.663	8662
2103.718	8801
2105.771	8758
2107.826	8854
2109.879	8765
2111.932	8729
2113.985	8693
2116.037	8733
2118.088	8761
2120.141	8706
2122.191	8665
2124.239	8803
2126.288	8756
2128.337	8808
2130.387	8715
2132.434	8783
2134.481	8685
2136.528	8658
2138.574	8792
2140.618	8653
2142.665	8727
2144.71	8649
2146.753	8768
2148.797	8688
2150.838	8708
2152.883	8618
2154.923	8671
2156.965	8791
2159.007	8630
2161.046	8803
2163.086	8498
2165.126	8771
2167.163	8579
2169.202	8794
2171.239	8704
2173.277	8745
2175.314	8679
2177.349	8575
2179.385	8774
2181.42	8559
2183.453	8583
2185.49	8565
2187.522	8624
2189.555	8657
2191.586	8628
2193.619	8659
2195.651	8529
2197.682	8503
2199.711	8656
2201.74	8595
2203.769	8535
2205.799	8506
2207.828	8615
2209.855	8546
2211.882	8488
2213.908	8592
2215.934	8490
2217.961	8596
2219.986	8686
2222.01	8518
2224.034	8471
2226.057	8560
2228.08	8520
2230.104	8406
2232.124	8649
2234.145	8548
2236.166	8503
2238.186	8462
2240.207	8594
2242.227	8521
2244.244	8477
2246.262	8674
2248.28	8559
2250.299	8458
2252.314	8505
2254.33	8589
2256.346	8544
2258.36	8523
2260.375	8502
2262.391	8554
2264.403	8526
2266.416	8530
2268.427	8601
2270.44	8490
2272.453	8532
2274.463	8649
2276.474	8685
2278.483	8590
2280.493	8674
2282.501	8701
2284.51	8525
2286.518	8539
2288.524	8495
2290.532	8567
2292.537	8618
2294.544	8470
2296.55	8582
2298.554	8594
2300.557	8610
2302.562	8608
2304.566	8535
2306.568	8572
2308.569	8420
2310.572	8544
2312.573	8619
2314.573	8576
2316.574	8423
2318.573	8444
2320.571	8417
2322.571	8560
2324.569	8481
2326.567	8560
2328.564	8444
2330.56	8381
2332.556	8399
2334.551	8540
2336.546	8366
2338.542	8487
2340.535	8440
2342.529	8395
2344.521	8466
2346.512	8531
2348.505	8355
2350.497	8462
2352.487	8451
2354.478	8462
2356.468	8322
2358.457	8402
2360.446	8400
2362.434	8343
2364.422	8439
2366.408	8367
2368.395	8376
2370.383	8399
2372.369	8501
2374.353	8453
2376.338	8305
2378.321	8429
2380.307	8344
2382.29	8475
2384.272	8304
2386.254	8213
2388.235	8324
2390.218	8425
2392.198	8281
2394.179	8150
2396.157	8384
2398.137	8485
2400.115	8341
2402.095	8292
2404.072	8356
2406.048	8314
2408.026	8269
2410.001	8217
2411.977	8320
2413.953	8457
2415.927	8350
2417.9	8377
2419.875	8220
2421.847	8310
2423.821	8351
2425.792	8304
2427.763	8445
2429.736	8330
2431.706	8348
2433.677	8426
2435.646	8263
2437.615	8340
2439.583	8375
2441.551	8354
2443.519	8260
2445.486	8248
2447.452	8285
2449.418	8289
2451.383	8314
2453.348	8361
2455.314	8450
2457.278	8310
2459.241	8283
2461.205	8252
2463.167	8215
2465.131	8141
2467.091	8332
2469.052	8365
2471.012	8282
2472.972	8334
2474.932	8243
2476.891	8196
2478.85	8320
2480.808	8162
2482.766	8360
2484.722	8310
2486.68	8313
2488.636	8336
2490.591	8260
2492.546	8252
2494.5	8312
2496.456	8142
2498.41	8203
2500.362	8166
2502.315	8162
2504.266	8207
2506.218	8051
2508.169	8163
2510.121	8129
2512.07	8110
2514.019	8122
2515.968	8290
2517.918	8184
2519.866	8085
2521.813	8200
2523.76	8071
2525.707	8086
2527.653	8150
2529.599	8144
2531.543	8168
2533.489	8094
2535.433	8054
2537.376	8201
2539.32	8180
2541.264	8284
2543.205	8020
2545.147	8174
2547.087	8236
2549.029	8148
2550.969	8200
2552.908	8185
2554.847	8224
2556.786	8209
2558.724	8126
2560.663	8164
2562.6	8185
2564.537	8242
2566.473	8141
2568.408	8082
2570.345	8158
2572.28	8232
2574.214	8196
2576.148	8144
2578.081	8209
2580.014	8153
2581.947	8053
2583.879	8184
2585.81	8122
2587.741	8364
2589.67	8104
2591.602	8039
2593.532	8120
2595.461	8212
2597.388	8160
2599.316	8187
2601.244	8241
2603.172	8185
2605.098	8206
2607.023	8155
2608.949	8326
2610.873	8045
2612.8	8192
2614.723	8199
2616.647	8076
2618.569	8245
2620.493	8337
2622.416	8236
2624.338	8101
2626.258	8124
2628.179	8173
2630.099	8104
2632.019	8345
2633.939	8194
2635.857	8150
2637.775	8234
2639.694	8148
2641.61	8107
2643.528	8302
2645.444	8250
2647.361	8108
2649.276	8060
2651.19	8100
2653.105	8149
2655.019	8185
2656.934	8153
2658.846	8214
2660.758	8222
2662.67	8186
2664.583	8121
2666.493	8090
2668.404	8197
2670.313	8272
2672.223	8244
2674.134	8158
2676.042	8271
2677.95	8147
2679.858	8182
2681.765	8272
2683.673	8278
2685.579	8206
2687.483	8119
2689.389	8160
2691.294	8156
2693.198	8108
2695.104	8177
2697.006	8215
2698.909	8059
2700.811	8025
2702.713	8160
2704.615	8137
2706.516	7940
2708.417	8138
2710.316	8207
2712.216	8113
2714.115	8075
2716.014	8086
2717.913	8108
2719.81	8011
2721.707	7922
2723.603	8014
2725.501	8002
2727.396	8068
2729.292	8042
2731.186	8093
2733.081	8172
2734.976	7969
2736.87	8019
2738.762	8079
2740.653	8043
2742.546	8070
2744.437	8033
2746.329	8102
2748.22	7998
2750.11	8080
2751.999	8062
2753.889	7881
2755.778	8081
2757.666	8056
2759.553	7996
2761.44	8045
2763.328	8134
2765.215	8119
2767.101	8122
2768.986	7989
2770.87	8013
2772.754	7999
2774.638	8082
2776.523	7952
2778.405	8020
2780.288	8070
2782.17	7929
2784.051	7969
2785.934	7982
2787.814	8035
2789.694	7999
2791.574	8014
2793.453	8017
2795.332	7915
2797.212	7888
2799.088	7959
2800.966	7945
2802.843	7906
2804.719	8029
2806.597	7989
2808.471	7929
2810.346	8053
2812.221	7905
2814.094	7786
2815.969	8032
2817.843	7906
2819.714	7881
2821.587	7844
2823.459	7959
2825.329	7945
2827.202	8007
2829.072	8004
2830.942	7931
2832.811	7963
2834.68	7863
2836.549	7897
2838.418	7897
2840.284	7921
2842.152	7942
2844.018	7927
2845.885	7813
2847.751	7906
2849.616	7918
2851.482	7944
2853.345	8063
2855.208	7989
2857.074	7999
2858.937	7892
2860.799	8036
2862.66	7971
2864.522	8075
2866.385	7925
2868.245	8204
2870.104	8188
2871.964	8273
2873.824	8338
2875.683	8181
2877.542	8280
2879.4	8358
2881.257	8318
2883.114	8529
2884.97	8381
2886.827	8372
2888.683	8339
2890.537	8360
2892.392	8376
2894.246	8369
2896.1	8156
2897.954	8352
2899.807	8307
2901.66	8207
2903.51	8344
2905.362	8412
2907.214	8365
2909.065	8455
2910.915	8393
2912.765	8591
2914.613	8459
2916.463	8581
2918.311	8459
2920.158	8554
2922.006	8645
2923.853	8750
2925.698	8761
2927.546	8897
2929.392	8914
2931.236	8772
2933.081	8874
2934.924	8975
2936.77	8911
2938.613	9034
2940.455	9095
2942.298	9091
2944.139	9106
2945.982	9147
2947.823	8903
2949.662	9050
2951.503	8956
2953.342	8947
2955.182	8860
2957.021	8840
2958.858	8734
2960.697	8703
2962.534	8654
2964.37	8687
2966.207	8630
2968.044	8641
2969.879	8466
2971.714	8494
2973.548	8504
2975.383	8505
2977.218	8357
2979.051	8509
2980.883	8427
2982.715	8347
2984.547	8432
2986.379	8440
2988.21	8275
2990.04	8393
2991.87	8230
2993.7	8228
2995.53	8106
2997.359	8229
2999.187	8144
3001.015	8112
3002.842	8073
3004.669	7928
3006.497	8037
3008.323	7920
3010.148	7945
3011.974	7879
3013.797	7873
3015.623	7768
3017.447	7698
3019.27	7847
3021.094	7757
3022.915	7730
3024.737	7734
3026.56	7714
3028.38	7601
3030.201	7615
3032.022	7691
3033.84	7597
3035.662	7658
3037.481	7713
3039.298	7646
3041.117	7556
3042.933	7614
3044.752	7587
3046.568	7573
3048.385	7601
3050.2	7777
3052.016	7613
3053.83	7439
3055.646	7465
3057.46	7672
3059.272	7513
3061.086	7480
3062.898	7617
3064.711	7516
3066.524	7619
3068.335	7622
3070.145	7498
3071.956	7481
3073.766	7438
3075.576	7542
3077.385	7455
3079.193	7535
3081.002	7471
3082.81	7543
3084.618	7490
3086.425	7401
3088.231	7521
3090.036	7388
3091.842	7480
3093.648	7340
3095.452	7331
3097.257	7429
3099.06	7338
3100.863	7363
3102.666	7424
3104.47	7547
3106.272	7307
3108.073	7337
3109.875	7398
3111.676	7389
3113.477	7402
3115.277	7290
3117.077	7277
3118.874	7333
3120.673	7311
3122.473	7287
3124.271	7278
3126.066	7220
3127.863	7314
3129.66	7251
3131.456	7317
3133.252	7354
3135.047	7329
3136.842	7161
3138.635	7058
3140.429	7307
3142.223	7137
3144.016	7252
3145.808	7178
3147.6	7210
3149.392	7188
3151.183	7127
3152.975	7172
3154.765	7197
3156.553	7174
3158.344	7189
3160.132	7164
3161.922	7154
3163.71	7114
3165.497	7085
3167.285	7218
3169.071	7226
3170.858	7084
3172.645	7101
3174.429	7118
3176.214	7135
3177.998	7117
3179.783	7222
3181.568	7184
3183.351	7155
3185.133	7132
3186.915	7134
3188.698	7116
3190.481	7170
3192.261	7103
3194.042	7037
3195.822	7152
3197.601	7067
3199.381	7082
3201.161	7136
3202.939	7146
3204.717	7114
3206.495	7144
3208.272	7065
3210.05	7069
3211.826	6979
3213.602	7087
3215.376	7034
3217.151	7098
3218.927	7112
3220.702	6940
3222.476	7064
3224.249	7100
3226.021	7053
3227.793	7075
3229.567	7074
3231.339	7029
3233.109	7026
3234.88	7006
3236.651	6988
3238.421	7066
3240.191	7168
3241.96	7105
3243.728	7060
3245.497	6992
3247.263	7061
3249.033	7070
3250.799	6924
3252.566	7048
3254.331	7009
3256.097	7037
3257.863	6993
3259.628	7091
3261.392	7105
3263.156	7065
3264.919	7041
3266.683	7133
3268.447	7187
3270.208	6954
3271.969	6940
3273.731	7036
3275.492	6963
3277.253	7043
3279.013	7056
3280.773	6908
3282.532	6998
3284.291	7116
3286.05	7075
3287.808	7062
3289.566	7025
3291.323	6979
3293.079	7073
3294.835	6979
3296.593	7037
3298.348	7058
3300.102	7004
3301.857	7108
3303.611	7019
3305.366	7037
3307.119	6987
3308.872	6911
3310.624	6921
3312.376	7091
3314.129	7022
3315.881	7010
3317.631	6951
3319.38	6924
3321.13	6932
3322.88	7026
3324.631	6953
3326.379	6979
3328.126	6916
3329.875	6880
3331.622	6973
3333.371	7084
3335.116	6862
3336.863	7000
3338.609	6933
3340.353	6902
3342.1	7031
3343.845	6972
3345.588	6888
3347.332	7122
3349.074	7087
3350.817	6982
3352.56	6970
3354.303	6848
3356.043	6887
3357.785	6846
3359.525	6868
3361.268	6851
3363.007	6963
3364.745	6842
3366.485	6872
3368.223	6905
3369.962	6865
3371.701	6946
3373.438	6815
3375.174	6869
3376.911	6841
3378.647	6868
3380.384	6858
3382.118	6872
3383.854	6881
3385.588	6905
3387.322	6746
3389.057	6776
3390.79	6817
3392.522	6921
3394.255	6757
3395.987	6835
3397.719	6804
3399.451	6884
3401.181	6843
3402.911	6724
3404.641	6658
3406.371	6834
3408.101	6855
3409.83	6860
3411.558	6690
3413.285	6852
3415.011	6788
3416.739	6703
3418.467	6776
3420.193	6671
3421.919	6823
3423.644	6719
3425.368	6803
3427.094	6737
3428.818	6791
3430.542	6662
3432.264	6650
3433.987	6778
3435.712	6657
3437.434	6783
3439.155	6693
3440.876	6720
3442.596	6672
3444.317	6620
3446.039	6663
3447.757	6659
3449.477	6621
3451.195	6635
3452.914	6572
3454.632	6661
3456.35	6624
3458.067	6585
3459.784	6570
3461.5	6705
3463.216	6641
3464.932	6556
3466.647	6516
3468.362	6642
3470.076	6603
3471.789	6614
3473.505	6578
3475.217	6540
3476.929	6485
3478.641	6474
3480.354	6584
3482.066	6441
3483.777	6496
3485.487	6570
3487.197	6502
3488.908	6476
3490.617	6487
3492.327	6373
3494.035	6467
3495.743	6448
3497.451	6424
3499.158	6321
3500.866	6464
3502.572	6453
3504.278	6455
3505.984	6478
3507.689	6367
3509.396	6516
3511.1	6452
3512.804	6457
3514.508	6277
3516.211	6423
3517.913	6441
3519.616	6368
3521.319	6297
3523.021	6455
3524.722	6349
3526.422	6172
3528.124	6364
3529.824	6413
3531.524	6443
3533.222	6239
3534.921	6243
3536.62	6296
3538.318	6404
3540.016	6298
3541.714	6267
3543.41	6357
3545.107	6240
3546.803	6294
3548.5	6211
3550.194	6297
3551.889	6215
3553.583	6336
3555.279	6205
3556.972	6285
3558.666	6259
3560.358	6207
3562.051	6433
3563.742	6278
3565.435	6188
3567.126	6226
3568.817	6263
3570.507	6174
3572.197	6159
3573.888	6244
3575.577	6135
3577.265	6191
3578.954	6164
3580.642	6141
3582.329	6215
3584.017	6107
3585.704	6176
3587.391	6071
3589.077	6147
3590.762	6177
3592.449	6164
3594.133	6089
3595.817	6035
3597.501	5997
3599.185	6074
3600.869	6150
3602.552	6051
3604.234	6114
3605.916	6165
3607.598	6083
3609.279	5944
3610.961	6022
3612.642	6037
3614.321	6018
3616	6050
3617.68	5916
3619.36	5999
3621.039	5985
3622.716	5896
3624.394	6003
3626.071	6015
3627.748	5892
3629.425	6018
3631.102	5770
3632.778	5919
3634.452	5980
3636.127	5860
3637.803	5816
3639.477	5977
3641.151	5951
3642.823	5796
3644.497	5889
3646.171	5960
3647.842	5870
3649.515	5876
3651.185	5879
3652.857	5866
3654.527	5906
3656.198	5787
3657.868	5814
3659.537	5868
3661.207	5802
3662.875	5867
3664.544	5882
3666.212	5845
3667.879	5855
3669.546	5837
3671.212	5714
3672.88	5871
3674.546	5953
3676.211	5733
3677.875	5700
3679.541	5722
3681.205	5780
3682.87	5734
3684.533	5716
3686.196	5628
3687.859	5802
3689.521	5807
3691.184	5770
3692.845	5744
3694.507	5737
3696.167	5741
3697.827	5792
3699.487	5654
3701.148	5694
3702.808	5698
3704.466	5824
3706.125	5726
3707.783	5656
3709.442	5561
3711.099	5716
3712.757	5718
3714.412	5754
3716.068	5498
3717.725	5767
3719.381	5723
3721.036	5588
3722.689	5578
3724.344	5821
3725.998	5675
3727.652	5663
3729.305	5655
3730.958	5634
3732.61	5728
3734.262	5701
3735.915	5706
3737.565	5571
3739.217	5603
3740.866	5488
3742.516	5563
3744.165	5675
3745.816	5586
3747.464	5553
3749.113	5639
3750.761	5594
3752.409	5634
3754.057	5536
3755.703	5568
3757.35	5602
3758.996	5530
3760.641	5540
3762.289	5567
3763.933	5588
3765.577	5507
3767.222	5667
3768.865	5549
3770.508	5529
3772.152	5582
3773.796	5640
3775.438	5433
3777.079	5585
3778.721	5583
3780.363	5628
3782.003	5494
3783.643	5501
3785.283	5612
3786.923	5534
3788.563	5523
3790.203	5500
3791.841	5520
3793.479	5487
3795.115	5504
3796.753	5549
3798.391	5451
3800.027	5435
3801.664	5500
3803.299	5477
3804.935	5517
3806.571	5560
3808.206	5514
3809.839	5367
3811.473	5374
3813.107	5386
3814.74	5484
3816.375	5423
3818.006	5332
3819.638	5444
3821.27	5376
3822.9	5384
3824.532	5286
3826.163	5378
3827.792	5330
3829.423	5281
3831.051	5426
3832.682	5265
3834.311	5338
3835.938	5349
3837.566	5356
3839.193	5295
3840.821	5315
3842.448	5261
3844.075	5236
3845.7	5219
3847.325	5434
3848.951	5306
3850.576	5295
3852.201	5321
3853.825	5244
3855.448	5341
3857.072	5304
3858.694	5265
3860.318	5293
3861.939	5281
3863.562	5313
3865.183	5236
3866.804	5253
3868.426	5269
3870.045	5291
3871.666	5371
3873.285	5288
3874.904	5216
3876.524	5229
3878.142	5245
3879.76	5188
3881.378	5064
3882.995	5219
3884.612	5190
3886.229	5259
3887.845	5162
3889.461	5200
3891.076	5209
3892.691	5309
3894.307	5154
3895.922	5140
3897.536	5127
3899.149	5261
3900.761	5267
3902.374	5174
3903.988	5087
3905.6	5190
3907.212	5226
3908.822	5114
3910.433	5138
3912.045	5109
3913.655	5220
3915.265	5135
3916.875	5149
3918.483	5159
3920.093	5073
3921.702	5166
3923.309	5201
3924.917	5187
3926.523	5124
3928.13	5144
3929.739	5204
3931.344	5100
3932.95	5186
3934.555	5114
3936.159	5101
3937.766	5117
3939.369	5027
3940.974	5079
3942.577	5053
3944.181	5119
3945.783	5158
3947.386	5070
3948.989	5072
3950.59	5067
3952.191	5084
3953.791	5039
3955.394	5021
3956.994	5091
3958.593	5140
3960.192	5104
3961.791	5042
3963.392	5076
3964.99	5056
3966.588	5033
3968.185	5091
3969.782	4973
3971.379	5027
3972.976	4960
3974.572	5050
3976.168	4929
3977.763	5204
3979.358	4871
3980.954	4986
3982.548	4919
3984.142	4977
3985.736	5019
3987.329	5003
3988.922	4892
3990.516	4936
3992.108	4940
3993.698	4977
3995.29	4937
3996.881	4879
3998.473	4897
4000.064	4865
4001.653	4876
4003.242	4968
4004.832	4873
4006.422	4876
4008.01	4926
4009.598	4864
4011.186	4883
4012.773	4889
4014.36	4795
4015.947	4730
4017.534	4817
4019.119	4744
4020.705	4878
4022.291	4852
4023.876	4812
4025.461	4778
4027.044	4900
4028.627	4856
4030.211	4893
4031.795	4807
4033.378	4737
4034.96	4773
4036.542	4743
4038.124	4725
4039.704	4789
4041.286	4861
4042.867	4783
4044.447	4668
4046.026	4745
4047.606	4678
4049.187	4710
4050.765	4783
4052.343	4660
4053.92	4701
4055.498	4693
4057.076	4713
4058.654	4755
4060.23	4666
4061.806	4757
4063.381	4740
4064.957	4688
4066.533	4702
4068.107	4626
4069.682	4722
4071.256	4707
4072.829	4723
4074.404	4689
4075.977	4680
4077.549	4590
4079.121	4716
4080.693	4742
4082.265	4601
4083.836	4649
4085.407	4650
4086.977	4704
4088.547	4631
4090.117	4767
4091.687	4564
4093.256	4647
4094.825	4671
4096.392	4656
4097.96	4675
4099.528	4495
4101.097	4630
4102.663	4529
4104.229	4594
4105.795	4599
4107.361	4626
4108.928	4572
4110.493	4510
4112.058	4500
4113.621	4521
4115.186	4545
4116.75	4578
4118.313	4509
4119.876	4655
4121.438	4485
4123	4488
4124.562	4502
4126.125	4619
4127.686	4576
4129.246	4462
4130.807	4543
4132.367	4532
4133.927	4411
4135.486	4498
4137.046	4550
4138.604	4449
4140.162	4405
4141.72	4499
4143.279	4481
4144.836	4447
4146.393	4402
4147.949	4485
4149.505	4451
4151.062	4405
4152.617	4478
4154.172	4352
4155.727	4278
4157.281	4388
4158.836	4387
4160.39	4428
4161.943	4327
4163.496	4302
4165.048	4391
4166.601	4434
4168.154	4393
4169.706	4376
4171.257	4393
4172.808	4314
4174.358	4402
4175.909	4389
4177.458	4371
4179.008	4340
4180.558	4338
4182.106	4334
4183.655	4327
4185.204	4340
4186.751	4331
4188.298	4361
4189.845	4349
4191.392	4404
4192.939	4247
4194.485	4360
4196.031	4270
4197.576	4363
4199.121	4309
4200.666	4337
4202.211	4386
4203.754	4330
4205.298	4335
4206.84	4304
4208.384	4125
4209.927	4291
4211.47	4244
4213.011	4260
4214.552	4225
4216.094	4216
4217.635	4311
4219.175	4226
4220.716	4192
4222.255	4278
4223.793	4249
4225.335	4321
4226.873	4212
4228.411	4317
4229.948	4230
4231.486	4240
4233.024	4312
4234.562	4270
4236.098	4176
4237.634	4120
4239.169	4246
4240.705	4242
4242.241	4186
4243.776	4222
4245.31	4186
4246.844	4229
4248.378	4217
4249.911	4250
4251.445	4085
4252.978	4209
4254.51	4232
4256.042	4094
4257.574	4156
4259.107	4171
4260.638	4192
4262.169	4243
4263.699	4149
4265.228	4114
4266.759	4133
4268.289	4158
4269.818	4153
4271.345	4172
4272.874	4175
4274.402	4086
4275.931	4145
4277.458	4215
4278.985	4019
4280.512	4072
4282.037	4149
4283.564	4131
4285.089	4043
4286.615	4170
4288.139	4122
4289.664	4143
4291.187	4072
4292.712	4085
4294.235	4100
4295.759	4089
4297.281	4112
4298.804	4057
4300.327	4051
4301.849	4098
4303.37	4161
4304.891	4102
4306.412	4025
4307.933	4103
4309.453	4045
4310.973	4026
4312.492	3976
