398.1873	7887
400.7097	7850
403.2336	7984
405.7547	7841
408.2751	7889
410.7948	8135
413.3138	8036
415.83	8131
418.3497	8071
420.8666	8336
423.3829	8171
425.8985	8279
428.4133	8352
430.9275	8380
433.441	8277
435.9538	8214
438.4639	8425
440.9753	8503
443.4881	8473
445.9982	8500
448.5055	8441
451.0142	8441
453.5201	8574
456.0274	8510
458.5361	8550
461.04	8433
463.5453	8495
466.0478	8462
468.5517	8538
471.0549	8592
473.5574	8493
476.0572	8500
478.5584	8557
481.0568	8667
483.5545	8567
486.0557	8625
488.5521	8667
491.0478	8643
493.5449	8673
496.0392	8951
498.5349	8804
501.0299	8841
503.5222	8806
506.0139	8935
508.5048	8875
510.9991	8922
513.4887	8876
515.9777	8962
518.4659	8956
520.9534	9029
523.4403	8929
525.9306	8969
528.4161	8937
530.9009	8886
533.3851	9012
535.8687	8992
538.3535	8888
540.8356	8798
543.3171	8899
545.7979	8992
548.278	8920
550.7595	8994
553.2383	8906
555.7144	8836
558.1918	8988
560.6685	8979
563.1446	9119
565.6221	9105
568.0968	9082
570.5688	9098
573.0422	9213
575.515	9162
577.989	9276
580.4584	9264
582.9291	9270
585.3991	9259
587.8685	9324
590.3352	9288
592.8052	9160
595.2706	9270
597.7372	9275
600.2033	9156
602.6666	9407
605.1334	9188
607.5953	9295
610.0587	9204
612.5193	9276
614.9814	9217
617.4427	9263
619.9034	9281
622.3615	9220
624.8208	9257
627.2775	9250
629.7335	9255
632.1929	9327
634.6476	9323
637.1016	9246
639.5569	9299
642.0096	9338
644.4637	9417
646.9151	9412
649.3678	9548
651.8179	9311
654.2672	9351
656.7159	9527
659.166	9277
661.6154	9580
664.0622	9516
666.5082	9420
668.9537	9393
671.4005	9451
673.8445	9510
676.288	9598
678.7308	9503
681.1729	9392
683.6163	9645
686.0572	9642
688.4973	9728
690.9368	9495
693.3757	9601
695.8138	9733
698.2534	9515
700.6902	9733
703.1245	9789
705.56	9727
707.9949	9722
710.4311	9734
712.8647	9550
715.2957	9730
717.7279	9770
720.1595	9823
722.5905	9994
725.0208	9836
727.4505	9796
729.8795	9965
732.3058	10017
734.7336	9825
737.1626	10098
739.587	10004
742.0128	10120
744.4359	10113
746.8604	10115
749.2841	10176
751.7073	10134
754.1278	10197
756.5496	10259
758.9688	10271
761.3893	10474
763.8093	10246
766.2285	10274
768.6451	10281
771.0611	10265
773.4784	10199
775.895	10224
778.3091	10435
780.7244	10449
783.1371	10241
785.5493	10399
787.9626	10378
790.3754	10338
792.7856	10446
795.1951	10423
797.6039	10377
800.0121	10415
802.4236	10328
804.8306	10425
807.2369	10276
809.6425	10459
812.0475	10433
814.4538	10528
816.8575	10412
819.2606	10496
821.663	10455
824.0648	10549
826.4659	10417
828.8683	10566
831.2682	10475
833.6674	10552
836.066	10480
838.4639	10296
840.8632	10460
843.2579	10556
845.6539	10581
848.0493	10568
850.444	10563
852.84	10561
855.2315	10565
857.6243	10677
860.0165	10534
862.4081	10670
864.797	10637
867.1892	10610
869.5789	10565
871.9659	10498
874.3542	10665
876.74	10498
879.129	10553
881.5155	10768
883.8994	10472
886.2845	10617
888.6671	10532
891.051	10534
893.4343	10478
895.8169	10561
898.197	10518
900.5783	10620
902.9571	10630
905.3372	10531
907.7167	10725
910.0936	10650
912.4698	10784
914.8474	10643
917.2244	10630
919.5987	10798
921.9744	10882
924.3475	11006
926.72	10866
929.0918	10994
931.4669	11004
933.8375	11003
936.2074	10903
938.5767	11004
940.9454	11131
943.3154	11249
945.6829	11352
948.0497	11350
950.4178	11518
952.7833	11668
955.1483	12062
957.5145	12255
959.8782	12059
962.2412	12313
964.6036	12268
966.9655	12004
969.3266	11692
971.6871	11488
974.0471	11376
976.4064	11190
978.765	11094
981.125	11003
983.4824	10954
985.8373	10923
988.1935	10922
990.549	10804
992.9039	10986
995.2602	10972
997.6119	10981
999.965	10939
1002.317	10928
1004.667	10926
1007.02	11036
1009.371	10956
1011.719	10946
1014.068	11013
1016.415	10966
1018.765	11050
1021.111	10951
1023.458	11066
1025.804	11089
1028.147	10921
1030.49	11047
1032.837	11019
1035.179	11104
1037.522	11090
1039.862	11065
1042.204	11007
1044.546	11134
1046.884	11078
1049.224	11176
1051.562	11053
1053.899	11165
1056.237	11097
1058.575	11083
1060.91	11354
1063.244	11015
1065.58	11108
1067.913	11117
1070.248	11280
1072.579	11320
1074.911	11166
1077.242	11197
1079.572	11074
1081.905	11172
1084.234	11279
1086.562	11131
1088.89	11095
1091.217	11203
1093.544	11180
1095.871	11114
1098.197	11129
1100.521	11258
1102.845	11139
1105.169	11184
1107.491	11235
1109.814	11367
1112.135	11100
1114.456	11256
1116.776	11191
1119.096	11303
1121.415	11280
1123.734	11391
1126.052	11286
1128.369	11404
1130.686	11347
1133.002	11330
1135.318	11390
1137.632	11289
1139.945	11336
1142.258	11361
1144.573	11412
1146.884	11199
1149.196	11365
1151.505	11439
1153.816	11341
1156.124	11351
1158.435	11311
1160.742	11374
1163.051	11424
1165.356	11322
1167.663	11371
1169.97	11414
1172.276	11456
1174.579	11277
1176.881	11253
1179.186	11440
1181.487	11421
1183.79	11313
1186.092	11208
1188.392	11278
1190.691	11282
1192.991	11330
1195.291	11350
1197.588	11328
1199.885	11385
1202.181	11313
1204.479	11240
1206.775	11359
1209.07	11371
1211.363	11415
1213.656	11446
1215.949	11338
1218.241	11481
1220.534	11315
1222.825	11488
1225.115	11512
1227.405	11523
1229.693	11454
1231.984	11582
1234.271	11546
1236.558	11660
1238.845	11675
1241.131	11632
1243.416	11630
1245.703	11703
1247.987	11671
1250.269	11771
1252.552	11581
1254.834	11599
1257.118	11674
1259.399	11660
1261.678	11674
1263.958	11669
1266.237	11669
1268.516	11583
1270.794	11675
1273.072	11806
1275.347	11765
1277.624	11737
1279.899	11622
1282.175	11632
1284.449	11603
1286.722	11572
1288.995	11479
1291.266	11649
1293.54	11662
1295.81	11695
1298.081	11584
1300.35	11390
1302.62	11554
1304.889	11561
1307.156	11724
1309.425	11534
1311.69	11451
1313.957	11721
1316.222	11519
1318.488	11658
1320.751	11734
1323.016	11625
1325.278	11562
1327.54	11522
1329.803	11613
1332.065	11652
1334.325	11561
1336.584	11531
1338.843	11542
1341.101	11444
1343.36	11672
1345.617	11422
1347.876	11674
1350.131	11480
1352.387	11598
1354.643	11542
1356.897	11488
1359.151	11702
1361.403	11704
1363.656	11626
1365.909	11710
1368.16	11797
1370.409	11679
1372.659	11561
1374.909	11743
1377.157	11672
1379.407	11757
1381.655	11712
1383.9	11715
1386.147	11728
1388.393	11644
1390.64	11665
1392.885	11809
1395.127	11758
1397.37	11898
1399.614	11649
1401.854	11775
1404.098	11604
1406.339	11726
1408.578	11876
1410.818	11817
1413.056	11690
1415.297	11812
1417.533	11833
1419.771	11712
1422.006	12018
1424.243	11872
1426.479	11827
1428.715	11946
1430.948	11885
1433.182	11964
1435.414	11885
1437.647	11995
1439.88	12121
1442.11	11952
1444.342	12053
1446.571	11953
1448.799	12105
1451.029	12166
1453.258	11943
1455.485	12068
1457.711	12061
1459.937	11992
1462.164	12001
1464.39	12052
1466.614	11839
1468.838	11887
1471.06	11830
1473.283	11906
1475.506	11842
1477.727	11802
1479.949	11894
1482.169	11733
1484.389	11619
1486.609	11832
1488.828	11811
1491.045	11619
1493.261	11572
1495.477	11937
1497.693	11801
1499.91	11814
1502.125	11836
1504.339	11807
1506.553	11780
1508.766	11701
1510.979	11713
1513.191	11642
1515.402	11732
1517.613	11503
1519.823	11767
1522.033	11775
1524.242	11652
1526.451	11679
1528.657	11616
1530.865	11735
1533.072	11759
1535.278	11561
1537.484	11773
1539.687	11795
1541.892	11649
1544.096	11684
1546.299	11702
1548.502	11833
1550.703	11686
1552.905	11819
1555.104	11675
1557.303	11931
1559.505	12042
1561.703	11876
1563.902	11867
1566.099	12018
1568.295	12013
1570.494	12014
1572.689	12154
1574.883	11879
1577.079	12117
1579.272	12011
1581.467	12081
1583.659	12045
1585.853	12033
1588.044	11927
1590.234	12077
1592.424	12178
1594.615	12060
1596.806	12284
1598.994	11947
1601.182	12119
1603.369	12142
1605.557	12122
1607.744	12170
1609.929	12023
1612.114	12079
1614.298	12108
1616.482	12155
1618.667	11958
1620.85	12067
1623.032	12165
1625.214	12060
1627.395	12140
1629.575	12023
1631.755	12161
1633.935	12165
1636.114	12061
1638.292	12197
1640.471	12203
1642.647	12311
1644.823	12117
1647	12178
1649.175	12357
1651.348	12291
1653.525	12081
1655.698	12233
1657.87	12177
1660.043	12268
1662.213	12209
1664.387	12299
1666.558	12087
1668.727	12069
1670.896	12284
1673.064	12257
1675.233	12183
1677.401	12166
1679.569	12203
1681.735	12206
1683.902	12244
1686.066	12148
1688.233	12261
1690.397	12089
1692.559	12125
1694.723	12216
1696.885	12061
1699.048	12290
1701.21	12285
1703.37	12187
1705.53	12264
1707.689	12232
1709.849	12105
1712.009	12019
1714.166	12042
1716.323	12148
1718.479	12018
1720.634	11980
1722.793	11982
1724.948	11960
1727.102	12217
1729.255	11874
1731.408	11866
1733.562	12153
1735.714	11942
1737.865	12106
1740.016	12124
1742.166	12071
1744.316	12077
1746.467	12036
1748.616	12088
1750.764	12122
1752.911	12203
1755.056	12179
1757.205	12144
1759.35	12218
1761.496	12011
1763.641	12286
1765.785	12328
1767.927	12148
1770.072	12193
1772.214	12202
1774.355	12103
1776.496	12226
1778.637	12166
1780.778	12155
1782.918	12164
1785.057	12116
1787.194	12232
1789.333	12288
1791.472	12327
1793.608	12195
1795.745	12321
1797.879	12300
1800.015	12210
1802.148	12273
1804.284	12298
1806.417	12125
1808.548	12447
1810.682	12033
1812.812	12149
1814.946	12225
1817.075	12087
1819.205	12328
1821.335	12221
1823.463	12143
1825.59	12131
1827.721	12049
1829.847	12185
1831.973	12102
1834.098	12303
1836.223	12046
1838.351	12240
1840.475	11958
1842.598	12162
1844.721	12123
1846.843	12061
1848.966	12047
1851.087	12113
1853.21	12145
1855.33	12156
1857.449	12031
1859.568	11987
1861.688	11913
1863.806	11978
1865.924	12155
1868.039	11909
1870.155	12018
1872.273	12217
1874.388	11829
1876.503	12021
1878.617	12224
1880.73	12004
1882.844	12093
1884.956	12147
1887.068	12101
1889.18	12078
1891.291	11906
1893.4	12270
1895.511	12134
1897.621	12129
1899.73	12045
1901.837	12140
1903.944	12297
1906.053	12111
1908.159	12260
1910.265	12201
1912.369	12251
1914.474	12248
1916.577	12322
1918.683	12295
1920.785	12196
1922.888	12227
1924.989	12079
1927.091	12345
1929.193	12320
1931.294	12421
1933.393	12263
1935.493	12409
1937.59	12215
1939.689	12455
1941.788	12333
1943.884	12268
1945.98	12391
1948.077	12554
1950.171	12386
1952.267	12238
1954.361	12248
1956.455	12215
1958.548	12175
1960.64	12172
1962.733	12301
1964.824	12361
1966.915	12261
1969.005	12212
1971.096	12185
1973.185	12223
1975.275	12210
1977.363	12163
1979.45	12068
1981.537	12209
1983.623	12129
1985.711	12123
1987.796	12081
1989.881	12206
1991.965	12225
1994.047	12071
1996.132	12079
1998.215	12112
2000.297	12218
2002.378	12236
2004.46	12055
2006.54	11945
2008.62	12101
2010.7	12042
2012.779	12088
2014.858	12080
2016.934	12228
2019.013	12157
2021.09	12091
2023.165	12104
2025.241	12111
2027.317	12089
2029.39	12006
2031.466	12018
2033.538	12197
2035.612	12100
2037.683	12161
2039.755	12093
2041.827	12158
2043.898	12254
2045.968	12269
2048.038	12076
2050.106	12267
2052.177	12015
2054.244	12123
2056.313	12094
2058.379	12216
2060.444	11993
2062.511	12086
2064.577	12058
2066.641	12187
2068.705	12085
2070.77	12100
2072.832	12085
2074.896	12062
2076.958	12161
2079.02	11988
2081.081	12088
2083.141	12156
2085.2	12134
2087.261	12169
2089.319	12027
2091.377	12130
2093.435	12312
2095.492	12119
2097.552	12030
2099.607	12046
2101.663	12182
2103.718	12040
2105.771	11973
2107.826	12316
2109.879	11934
2111.932	12147
2113.985	12196
2116.037	12020
2118.088	11973
2120.141	11986
2122.191	12138
2124.239	12125
2126.288	12113
2128.337	12015
2130.387	12020
2132.434	12237
2134.481	12058
2136.528	12006
2138.574	12096
2140.618	12029
2142.665	11981
2144.71	11870
2146.753	12175
2148.797	11992
2150.838	12004
2152.883	11946
2154.923	11892
2156.965	12045
2159.007	12038
2161.046	11959
2163.086	12089
2165.126	12108
2167.163	11976
2169.202	12036
2171.239	11978
2173.277	12005
2175.314	11877
2177.349	11764
2179.385	11942
2181.42	11961
2183.453	11843
2185.49	11878
2187.522	11839
2189.555	11944
2191.586	11932
2193.619	11951
2195.651	11788
2197.682	11821
2199.711	11745
2201.74	11823
2203.769	11895
2205.799	11777
2207.828	11763
2209.855	11721
2211.882	11837
2213.908	11729
2215.934	11642
2217.961	11904
2219.986	11686
2222.01	11745
2224.034	11685
2226.057	11595
2228.08	11772
2230.104	11733
2232.124	11867
2234.145	11780
2236.166	11791
2238.186	11854
2240.207	11630
2242.227	11907
2244.244	11768
2246.262	11649
2248.28	11713
2250.299	11709
2252.314	11649
2254.33	11760
2256.346	11724
2258.36	11815
2260.375	11717
2262.391	11628
2264.403	11707
2266.416	11790
2268.427	11645
2270.44	11843
2272.453	11695
2274.463	11731
2276.474	11800
2278.483	11618
2280.493	11833
2282.501	11743
2284.51	11579
2286.518	11794
2288.524	11628
2290.532	11628
2292.537	11705
2294.544	11530
2296.55	11741
2298.554	11681
2300.557	11878
2302.562	11660
2304.566	11795
2306.568	11793
2308.569	11575
2310.572	11791
2312.573	11675
2314.573	11407
2316.574	11667
2318.573	11580
2320.571	11448
2322.571	11562
2324.569	11684
2326.567	11523
2328.564	11627
2330.56	11542
2332.556	11479
2334.551	11475
2336.546	11632
2338.542	11466
2340.535	11509
2342.529	11600
2344.521	11475
2346.512	11484
2348.505	11523
2350.497	11527
2352.487	11403
2354.478	11495
2356.468	11250
2358.457	11609
2360.446	11323
2362.434	11389
2364.422	11260
2366.408	11516
2368.395	11478
2370.383	11473
2372.369	11369
2374.353	11445
2376.338	11325
2378.321	11566
2380.307	11395
2382.29	11354
2384.272	11450
2386.254	11410
2388.235	11328
2390.218	11347
2392.198	11260
2394.179	11269
2396.157	11205
2398.137	11310
2400.115	11365
2402.095	11279
2404.072	11242
2406.048	11195
2408.026	11164
2410.001	11329
2411.977	11457
2413.953	11236
2415.927	11230
2417.9	11350
2419.875	11256
2421.847	11179
2423.821	11364
2425.792	11296
2427.763	11349
2429.736	11323
2431.706	11164
2433.677	11319
2435.646	11294
2437.615	11213
2439.583	11201
2441.551	11348
2443.519	11335
2445.486	11216
2447.452	11432
2449.418	11228
2451.383	11208
2453.348	11188
2455.314	11211
2457.278	11254
2459.241	11245
2461.205	11252
2463.167	11222
2465.131	11149
2467.091	11195
2469.052	11199
2471.012	11135
2472.972	11187
2474.932	11045
2476.891	11193
2478.85	11212
2480.808	11209
2482.766	11174
2484.722	10998
2486.68	11223
2488.636	11177
2490.591	11071
2492.546	11070
2494.5	11097
2496.456	10939
2498.41	11057
2500.362	11028
2502.315	10852
2504.266	11229
2506.218	10980
2508.169	10903
2510.121	11168
2512.07	11145
2514.019	10967
2515.968	11072
2517.918	11132
2519.866	11018
2521.813	10997
2523.76	11026
2525.707	11101
2527.653	10989
2529.599	10983
2531.543	11144
2533.489	10971
2535.433	10962
2537.376	10915
2539.32	11133
2541.264	11033
2543.205	10970
2545.147	11057
2547.087	11030
2549.029	10920
2550.969	10972
2552.908	10891
2554.847	10983
2556.786	11045
2558.724	10953
2560.663	10808
2562.6	10999
2564.537	11056
2566.473	10977
2568.408	10977
2570.345	10962
2572.28	11048
2574.214	10874
2576.148	11121
2578.081	10985
2580.014	10993
2581.947	11017
2583.879	10932
2585.81	10813
2587.741	11079
2589.67	11028
2591.602	10896
2593.532	11072
2595.461	11061
2597.388	11107
2599.316	10997
2601.244	10820
2603.172	10985
2605.098	10969
2607.023	11103
2608.949	11008
2610.873	11014
2612.8	10992
2614.723	11024
2616.647	10924
2618.569	10964
2620.493	11024
2622.416	11036
2624.338	10795
2626.258	10980
2628.179	11087
2630.099	11006
2632.019	11012
2633.939	11054
2635.857	11035
2637.775	11037
2639.694	11015
2641.61	10978
2643.528	11126
2645.444	11039
2647.361	11058
2649.276	10968
2651.19	11024
2653.105	11114
2655.019	11015
2656.934	11140
2658.846	11118
2660.758	11057
2662.67	10850
2664.583	11020
2666.493	11007
2668.404	10845
2670.313	10848
2672.223	10971
2674.134	11085
2676.042	10856
2677.95	10988
2679.858	10765
2681.765	10929
2683.673	10891
2685.579	10864
2687.483	10984
2689.389	10830
2691.294	10945
2693.198	10834
2695.104	10776
2697.006	10804
2698.909	10754
2700.811	10743
2702.713	10795
2704.615	10708
2706.516	10808
2708.417	10729
2710.316	10894
2712.216	10738
2714.115	10796
2716.014	10747
2717.913	10761
2719.81	10846
2721.707	10877
2723.603	10788
2725.501	10740
2727.396	10848
2729.292	10709
2731.186	10745
2733.081	10807
2734.976	10601
2736.87	10807
2738.762	10635
2740.653	10674
2742.546	10844
2744.437	10753
2746.329	10800
2748.22	10820
2750.11	10753
2751.999	10660
2753.889	10647
2755.778	10596
2757.666	10587
2759.553	10590
2761.44	10643
2763.328	10635
2765.215	10619
2767.101	10562
2768.986	10617
2770.87	10590
2772.754	10605
2774.638	10762
2776.523	10619
2778.405	10404
2780.288	10690
2782.17	10513
2784.051	10567
2785.934	10684
2787.814	10681
2789.694	10630
2791.574	10499
2793.453	10577
2795.332	10607
2797.212	10499
2799.088	10413
2800.966	10584
2802.843	10411
2804.719	10554
2806.597	10634
2808.471	10582
2810.346	10362
2812.221	10623
2814.094	10443
2815.969	10504
2817.843	10476
2819.714	10495
2821.587	10426
2823.459	10368
2825.329	10411
2827.202	10483
2829.072	10530
2830.942	10322
2832.811	10449
2834.68	10405
2836.549	10496
2838.418	10480
2840.284	10502
2842.152	10472
2844.018	10289
2845.885	10409
2847.751	10484
2849.616	10549
2851.482	10499
2853.345	10443
2855.208	10381
2857.074	10424
2858.937	10544
2860.799	10611
2862.66	10605
2864.522	10428
2866.385	10413
2868.245	10603
2870.104	10597
2871.964	10479
2873.824	10567
2875.683	10690
2877.542	10699
2879.4	10693
2881.257	10774
2883.114	10734
2884.97	10750
2886.827	10666
2888.683	10732
2890.537	10792
2892.392	10724
2894.246	10697
2896.1	10834
2897.954	10806
2899.807	10583
2901.66	10782
2903.51	10687
2905.362	10696
2907.214	10709
2909.065	10767
2910.915	10881
2912.765	10846
2914.613	10871
2916.463	10738
2918.311	10942
2920.158	10871
2922.006	10869
2923.853	11051
2925.698	11019
2927.546	11065
2929.392	11159
2931.236	11170
2933.081	11185
2934.924	11119
2936.77	11266
2938.613	11142
2940.455	11289
2942.298	11231
2944.139	11294
2945.982	11327
2947.823	11373
2949.662	11179
2951.503	11180
2953.342	11105
2955.182	11057
2957.021	11057
2958.858	11132
2960.697	11075
2962.534	11029
2964.37	10970
2966.207	10911
2968.044	10781
2969.879	10795
2971.714	10683
2973.548	10831
2975.383	10799
2977.218	10691
2979.051	10607
2980.883	10585
2982.715	10697
2984.547	10631
2986.379	10682
2988.21	10548
2990.04	10567
2991.87	10677
2993.7	10511
2995.53	10422
2997.359	10515
2999.187	10377
3001.015	10363
3002.842	10346
3004.669	10173
3006.497	10368
3008.323	10187
3010.148	10362
3011.974	10045
3013.797	10123
3015.623	10089
3017.447	10120
3019.27	10026
3021.094	10095
3022.915	9971
3024.737	10067
3026.56	9982
3028.38	10093
3030.201	9886
3032.022	9937
3033.84	9844
3035.662	9724
3037.481	9878
3039.298	9910
3041.117	9901
3042.933	9870
3044.752	9888
3046.568	9912
3048.385	9897
3050.2	9813
3052.016	9710
3053.83	9796
3055.646	9921
3057.46	9714
3059.272	9675
3061.086	9826
3062.898	9705
3064.711	9810
3066.524	9896
3068.335	9694
3070.145	9748
3071.956	9620
3073.766	9752
3075.576	9615
3077.385	9649
3079.193	9795
3081.002	9652
3082.81	9688
3084.618	9608
3086.425	9665
3088.231	9731
3090.036	9590
3091.842	9720
3093.648	9442
3095.452	9583
3097.257	9653
3099.06	9501
3100.863	9472
3102.666	9586
3104.47	9536
3106.272	9501
3108.073	9512
3109.875	9461
3111.676	9471
3113.477	9422
3115.277	9415
3117.077	9431
3118.874	9344
3120.673	9464
3122.473	9445
3124.271	9433
3126.066	9282
3127.863	9465
3129.66	9317
3131.456	9359
3133.252	9519
3135.047	9361
3136.842	9444
3138.635	9244
3140.429	9361
3142.223	9302
3144.016	9305
3145.808	9204
3147.6	9336
3149.392	9304
3151.183	9297
3152.975	9335
3154.765	9190
3156.553	9201
3158.344	9179
3160.132	9147
3161.922	9307
3163.71	9249
3165.497	9196
3167.285	9192
3169.071	9242
3170.858	9029
3172.645	9120
3174.429	9153
3176.214	9177
3177.998	9085
3179.783	9106
3181.568	9222
3183.351	9108
3185.133	9091
3186.915	9040
3188.698	9194
3190.481	8959
3192.261	9098
3194.042	9136
3195.822	9134
3197.601	9129
3199.381	9019
3201.161	9156
3202.939	9036
3204.717	8945
3206.495	9102
3208.272	9064
3210.05	8965
3211.826	9000
3213.602	9025
3215.376	9006
3217.151	9036
3218.927	8905
3220.702	8998
3222.476	8998
3224.249	9022
3226.021	9203
3227.793	8959
3229.567	8886
3231.339	8892
3233.109	9065
3234.88	8956
3236.651	9024
3238.421	8930
3240.191	8976
3241.96	8984
3243.728	9027
3245.497	8968
3247.263	8965
3249.033	9008
3250.799	9013
3252.566	9033
3254.331	8946
3256.097	8913
3257.863	9033
3259.628	8910
3261.392	9064
3263.156	8842
3264.919	8987
3266.683	8954
3268.447	8940
3270.208	9007
3271.969	8923
3273.731	8905
3275.492	8927
3277.253	8897
3279.013	8926
3280.773	8947
3282.532	8955
3284.291	8909
3286.05	8881
3287.808	8798
3289.566	8825
3291.323	8908
3293.079	8912
3294.835	8946
3296.593	9045
3298.348	8861
3300.102	8857
3301.857	8885
3303.611	8918
3305.366	8899
3307.119	8843
3308.872	8830
3310.624	8930
3312.376	8888
3314.129	8726
3315.881	8933
3317.631	8948
3319.38	8825
3321.13	8866
3322.88	8656
3324.631	8755
3326.379	8834
3328.126	9000
3329.875	8695
3331.622	8732
3333.371	8792
3335.116	8776
3336.863	8847
3338.609	8683
3340.353	8729
3342.1	8756
3343.845	8763
3345.588	8680
3347.332	8783
3349.074	8660
3350.817	8720
3352.56	8680
3354.303	8576
3356.043	8783
3357.785	8691
3359.525	8646
3361.268	8573
3363.007	8797
3364.745	8689
3366.485	8717
3368.223	8618
3369.962	8505
3371.701	8537
3373.438	8439
3375.174	8599
3376.911	8510
3378.647	8623
3380.384	8603
3382.118	8756
3383.854	8680
3385.588	8662
3387.322	8626
3389.057	8583
3390.79	8569
3392.522	8535
3394.255	8631
3395.987	8632
3397.719	8524
3399.451	8544
3401.181	8503
3402.911	8480
3404.641	8651
3406.371	8516
3408.101	8665
3409.83	8549
3411.558	8506
3413.285	8532
3415.011	8539
3416.739	8458
3418.467	8562
3420.193	8332
3421.919	8459
3423.644	8445
3425.368	8483
3427.094	8441
3428.818	8474
3430.542	8482
3432.264	8399
3433.987	8444
3435.712	8432
3437.434	8465
3439.155	8468
3440.876	8387
3442.596	8360
3444.317	8315
3446.039	8467
3447.757	8287
3449.477	8456
3451.195	8276
3452.914	8254
3454.632	8254
3456.35	8130
3458.067	8220
3459.784	8235
3461.5	8138
3463.216	8259
3464.932	8181
3466.647	8236
3468.362	8284
3470.076	8163
3471.789	8180
3473.505	8117
3475.217	8108
3476.929	8155
3478.641	8104
3480.354	8217
3482.066	8164
3483.777	8087
3485.487	8010
3487.197	8098
3488.908	8082
3490.617	8032
3492.327	8165
3494.035	8087
3495.743	8004
3497.451	8100
3499.158	8111
3500.866	8075
3502.572	8094
3504.278	8017
3505.984	8112
3507.689	7971
3509.396	7960
3511.1	7991
3512.804	8007
3514.508	7937
3516.211	8026
3517.913	7975
3519.616	7867
3521.319	7932
3523.021	7922
3524.722	8021
3526.422	7763
3528.124	7966
3529.824	7932
3531.524	7939
3533.222	7876
3534.921	7914
3536.62	7945
3538.318	7945
3540.016	7907
3541.714	7928
3543.41	7922
3545.107	7776
3546.803	7874
3548.5	7779
3550.194	7884
3551.889	7889
3553.583	7854
3555.279	7789
3556.972	7809
3558.666	7837
3560.358	7860
3562.051	7880
3563.742	8004
3565.435	7843
3567.126	7789
3568.817	7706
3570.507	7782
3572.197	7794
3573.888	7731
3575.577	7678
3577.265	7661
3578.954	7664
3580.642	7807
3582.329	7609
3584.017	7662
3585.704	7718
3587.391	7617
3589.077	7656
3590.762	7621
3592.449	7715
3594.133	7768
3595.817	7662
3597.501	7511
3599.185	7594
3600.869	7622
3602.552	7588
3604.234	7546
3605.916	7573
3607.598	7592
3609.279	7479
3610.961	7475
3612.642	7593
3614.321	7549
3616	7530
3617.68	7527
3619.36	7473
3621.039	7502
3622.716	7503
3624.394	7486
3626.071	7587
3627.748	7340
3629.425	7493
3631.102	7411
3632.778	7326
3634.452	7350
3636.127	7519
3637.803	7357
3639.477	7411
3641.151	7269
3642.823	7326
3644.497	7379
3646.171	7388
3647.842	7343
3649.515	7331
3651.185	7412
3652.857	7349
3654.527	7261
3656.198	7227
3657.868	7277
3659.537	7396
3661.207	7360
3662.875	7202
3664.544	7366
3666.212	7279
3667.879	7172
3669.546	7353
3671.212	7254
3672.88	7282
3674.546	7134
3676.211	7222
3677.875	7161
3679.541	7229
3681.205	7174
3682.87	7169
3684.533	7267
3686.196	7133
3687.859	7191
3689.521	7228
3691.184	7142
3692.845	7179
3694.507	7216
3696.167	7148
3697.827	7245
3699.487	7266
3701.148	7137
3702.808	7056
3704.466	7175
3706.125	7230
3707.783	7189
3709.442	7230
3711.099	7134
3712.757	7214
3714.412	7071
3716.068	7255
3717.725	7084
3719.381	7084
3721.036	7137
3722.689	7136
3724.344	7093
3725.998	7039
3727.652	7084
3729.305	7085
3730.958	6987
3732.61	7236
3734.262	7039
3735.915	7028
3737.565	7111
3739.217	6919
3740.866	7059
3742.516	7093
3744.165	6939
3745.816	6968
3747.464	7070
3749.113	7048
3750.761	7028
3752.409	7061
3754.057	7028
3755.703	6955
3757.35	6978
3758.996	6845
3760.641	6989
3762.289	6835
3763.933	6950
3765.577	6975
3767.222	7080
3768.865	6919
3770.508	6925
3772.152	6882
3773.796	6905
3775.438	7004
3777.079	6905
3778.721	6993
3780.363	6765
3782.003	6767
3783.643	6862
3785.283	6824
3786.923	6878
3788.563	6862
3790.203	6742
3791.841	6845
3793.479	6820
3795.115	6811
3796.753	6774
3798.391	6882
3800.027	6744
3801.664	6833
3803.299	6710
3804.935	6766
3806.571	6831
3808.206	6675
3809.839	6771
3811.473	6725
3813.107	6664
3814.74	6759
3816.375	6859
3818.006	6614
3819.638	6689
3821.27	6704
3822.9	6727
3824.532	6592
3826.163	6696
3827.792	6665
3829.423	6596
3831.051	6577
3832.682	6528
3834.311	6646
3835.938	6591
3837.566	6526
3839.193	6615
3840.821	6709
3842.448	6711
3844.075	6708
3845.7	6649
3847.325	6554
3848.951	6463
3850.576	6436
3852.201	6470
3853.825	6639
3855.448	6621
3857.072	6657
3858.694	6600
3860.318	6449
3861.939	6559
3863.562	6541
3865.183	6538
3866.804	6512
3868.426	6445
3870.045	6456
3871.666	6501
3873.285	6393
3874.904	6440
3876.524	6505
3878.142	6391
3879.76	6395
3881.378	6466
3882.995	6360
3884.612	6491
3886.229	6401
3887.845	6406
3889.461	6370
3891.076	6464
3892.691	6420
3894.307	6413
3895.922	6342
3897.536	6525
3899.149	6396
3900.761	6371
3902.374	6431
3903.988	6452
3905.6	6491
3907.212	6439
3908.822	6362
3910.433	6318
3912.045	6412
3913.655	6365
3915.265	6510
3916.875	6323
3918.483	6392
3920.093	6326
3921.702	6336
3923.309	6372
3924.917	6345
3926.523	6403
3928.13	6376
3929.739	6297
3931.344	6291
3932.95	6309
3934.555	6344
3936.159	6223
3937.766	6384
3939.369	6242
3940.974	6350
3942.577	6230
3944.181	6362
3945.783	6236
3947.386	6286
3948.989	6173
3950.59	6250
3952.191	6262
3953.791	6234
3955.394	6305
3956.994	6194
3958.593	6390
3960.192	6108
3961.791	6196
3963.392	6218
3964.99	6264
3966.588	6167
3968.185	6218
3969.782	6241
3971.379	6166
3972.976	6231
3974.572	6154
3976.168	6145
3977.763	6222
3979.358	6059
3980.954	6138
3982.548	6153
3984.142	6077
3985.736	6015
3987.329	6141
3988.922	6152
3990.516	6076
3992.108	6114
3993.698	6092
3995.29	6016
3996.881	6096
3998.473	5963
4000.064	5987
4001.653	6105
4003.242	6012
4004.832	5899
4006.422	6060
4008.01	5954
4009.598	6065
4011.186	6034
4012.773	5922
4014.36	5975
4015.947	5980
4017.534	5965
4019.119	5799
4020.705	5907
4022.291	6036
4023.876	5938
4025.461	5943
4027.044	5930
4028.627	5933
4030.211	5803
4031.795	5948
4033.378	5854
4034.96	5846
4036.542	5764
4038.124	5883
4039.704	5827
4041.286	5876
4042.867	5999
4044.447	5870
4046.026	5982
4047.606	5833
4049.187	5975
4050.765	5784
4052.343	5705
4053.92	5781
4055.498	5768
4057.076	5758
4058.654	5700
4060.23	5728
4061.806	5783
4063.381	5782
4064.957	5779
4066.533	5669
4068.107	5650
4069.682	5736
4071.256	5657
4072.829	5711
4074.404	5726
4075.977	5718
4077.549	5677
4079.121	5688
4080.693	5713
4082.265	5647
4083.836	5804
4085.407	5703
4086.977	5721
4088.547	5770
4090.117	5672
4091.687	5835
4093.256	5707
4094.825	5711
4096.392	5766
4097.96	5634
4099.528	5611
4101.097	5596
4102.663	5610
4104.229	5548
4105.795	5704
4107.361	5576
4108.928	5637
4110.493	5616
4112.058	5639
4113.621	5416
4115.186	5391
4116.75	5656
4118.313	5596
4119.876	5536
4121.438	5586
4123	5590
4124.562	5526
4126.125	5491
4127.686	5520
4129.246	5430
4130.807	5573
4132.367	5478
4133.927	5525
4135.486	5437
4137.046	5416
4138.604	5474
4140.162	5490
4141.72	5415
4143.279	5552
4144.836	5498
4146.393	5359
4147.949	5331
4149.505	5364
4151.062	5481
4152.617	5428
4154.172	5340
4155.727	5388
4157.281	5362
4158.836	5393
4160.39	5347
4161.943	5368
4163.496	5396
4165.048	5316
4166.601	5482
4168.154	5352
4169.706	5380
4171.257	5293
4172.808	5335
4174.358	5326
4175.909	5312
4177.458	5302
4179.008	5276
4180.558	5278
4182.106	5229
4183.655	5251
4185.204	5258
4186.751	5242
4188.298	5301
4189.845	5313
4191.392	5238
4192.939	5201
4194.485	5095
4196.031	5173
4197.576	5254
4199.121	5267
4200.666	5243
4202.211	5216
4203.754	5220
4205.298	5213
4206.84	5245
4208.384	5203
4209.927	5198
4211.47	5195
4213.011	5206
4214.552	5095
4216.094	5207
4217.635	5146
4219.175	5119
4220.716	5076
4222.255	5161
4223.793	5063
4225.335	5121
4226.873	5212
4228.411	5117
4229.948	5159
4231.486	5129
4233.024	5192
4234.562	5084
4236.098	5162
4237.634	5140
4239.169	5132
4240.705	5058
4242.241	5101
4243.776	5066
4245.31	5038
4246.844	5005
4248.378	5022
4249.911	5074
4251.445	4999
4252.978	5071
4254.51	5063
4256.042	5077
4257.574	5192
4259.107	5096
4260.638	5082
4262.169	5089
4263.699	4960
4265.228	5072
4266.759	5009
4268.289	5044
4269.818	5072
4271.345	4998
4272.874	5062
4274.402	4991
4275.931	4986
4277.458	4932
4278.985	4967
4280.512	4984
4282.037	4947
4283.564	4963
4285.089	5006
4286.615	4903
4288.139	4985
4289.664	4877
4291.187	4961
4292.712	4857
4294.235	4970
4295.759	4959
4297.281	4951
4298.804	4853
4300.327	4951
4301.849	4858
4303.37	4889
4304.891	4887
4306.412	4943
4307.933	4810
4309.453	4900
4310.973	4836
4312.492	4815
