398.1873	9681
400.7097	9885
403.2336	9793
405.7547	9936
408.2751	9845
410.7948	9791
413.3138	9946
415.83	10197
418.3497	10216
420.8666	10223
423.3829	10100
425.8985	10298
428.4133	10365
430.9275	10359
433.441	10442
435.9538	10440
438.4639	10338
440.9753	10411
443.4881	10526
445.9982	10635
448.5055	10554
451.0142	10503
453.5201	10590
456.0274	10713
458.5361	10590
461.04	10628
463.5453	10571
466.0478	10558
468.5517	10736
471.0549	10740
473.5574	10593
476.0572	10816
478.5584	10773
481.0568	10701
483.5545	10883
486.0557	10782
488.5521	11065
491.0478	11121
493.5449	10908
496.0392	11006
498.5349	10851
501.0299	11087
503.5222	11165
506.0139	11015
508.5048	11094
510.9991	11099
513.4887	11147
515.9777	11286
518.4659	11218
520.9534	11086
523.4403	11328
525.9306	11157
528.4161	11233
530.9009	11205
533.3851	11101
535.8687	11307
538.3535	11243
540.8356	11149
543.3171	11242
545.7979	11211
548.278	11298
550.7595	11407
553.2383	11162
555.7144	11265
558.1918	11250
560.6685	11385
563.1446	11156
565.6221	11357
568.0968	11349
570.5688	11481
573.0422	11511
575.515	11461
577.989	11518
580.4584	11696
582.9291	11535
585.3991	11696
587.8685	11658
590.3352	11679
592.8052	11607
595.2706	11598
597.7372	11534
600.2033	11463
602.6666	11723
605.1334	11600
607.5953	11478
610.0587	11548
612.5193	11566
614.9814	11602
617.4427	11483
619.9034	11611
622.3615	11526
624.8208	11519
627.2775	11427
629.7335	11493
632.1929	11528
634.6476	11654
637.1016	11731
639.5569	11758
642.0096	11716
644.4637	11718
646.9151	11814
649.3678	11808
651.8179	11746
654.2672	11814
656.7159	11837
659.166	11753
661.6154	11846
664.0622	11940
666.5082	11877
668.9537	12027
671.4005	11929
673.8445	11983
676.288	11887
678.7308	12105
681.1729	12137
683.6163	12005
686.0572	12130
688.4973	12114
690.9368	12044
693.3757	12054
695.8138	12124
698.2534	12170
700.6902	12143
703.1245	12205
705.56	12227
707.9949	12138
710.4311	12228
712.8647	12193
715.2957	12222
717.7279	12248
720.1595	12269
722.5905	12470
725.0208	12415
727.4505	12529
729.8795	12536
732.3058	12443
734.7336	12502
737.1626	12449
739.587	12663
742.0128	12593
744.4359	12688
746.8604	12633
749.2841	12678
751.7073	12822
754.1278	12916
756.5496	12883
758.9688	12807
761.3893	12784
763.8093	12878
766.2285	12935
768.6451	12907
771.0611	13134
773.4784	13131
775.895	13133
778.3091	12982
780.7244	13046
783.1371	12910
785.5493	12969
787.9626	13054
790.3754	12966
792.7856	13164
795.1951	12803
797.6039	12997
800.0121	12987
802.4236	12898
804.8306	13126
807.2369	13037
809.6425	12953
812.0475	13239
814.4538	13151
816.8575	13070
819.2606	13217
821.663	13106
824.0648	13123
826.4659	13110
828.8683	12984
831.2682	13162
833.6674	13184
836.066	13270
838.4639	13101
840.8632	13184
843.2579	13246
845.6539	13294
848.0493	13403
850.444	13341
852.84	13403
855.2315	13451
857.6243	13334
860.0165	13308
862.4081	13528
864.797	13211
867.1892	13276
869.5789	13180
871.9659	13207
874.3542	13219
876.74	13231
879.129	13218
881.5155	13270
883.8994	13294
886.2845	13401
888.6671	13213
891.051	13159
893.4343	13247
895.8169	13350
898.197	13247
900.5783	13312
902.9571	13302
905.3372	13515
907.7167	13332
910.0936	13283
912.4698	13434
914.8474	13557
917.2244	13629
919.5987	13538
921.9744	13667
924.3475	13701
926.72	13713
929.0918	13720
931.4669	13715
933.8375	13780
936.2074	13870
938.5767	13787
940.9454	14021
943.3154	14058
945.6829	14200
948.0497	14254
950.4178	14412
952.7833	14584
955.1483	15025
957.5145	15322
959.8782	15180
962.2412	15356
964.6036	14959
966.9655	14731
969.3266	14557
971.6871	14429
974.0471	14020
976.4064	13989
978.765	13882
981.125	13670
983.4824	13723
985.8373	13972
988.1935	13628
990.549	13810
992.9039	13770
995.2602	13758
997.6119	13832
999.965	13855
1002.317	14028
1004.667	13880
1007.02	14010
1009.371	13655
1011.719	13710
1014.068	13834
1016.415	13851
1018.765	13792
1021.111	13819
1023.458	13920
1025.804	13993
1028.147	14089
1030.49	14009
1032.837	13762
1035.179	14003
1037.522	13951
1039.862	14084
1042.204	13818
1044.546	14056
1046.884	14124
1049.224	13875
1051.562	14043
1053.899	14120
1056.237	14097
1058.575	14005
1060.91	14159
1063.244	14192
1065.58	14218
1067.913	14124
1070.248	14118
1072.579	14238
1074.911	14284
1077.242	14292
1079.572	14092
1081.905	14071
1084.234	14121
1086.562	14103
1088.89	14073
1091.217	14020
1093.544	14170
1095.871	14160
1098.197	14137
1100.521	14322
1102.845	14025
1105.169	14336
1107.491	14200
1109.814	14234
1112.135	14180
1114.456	14054
1116.776	14289
1119.096	14161
1121.415	14258
1123.734	14302
1126.052	14244
1128.369	14094
1130.686	14321
1133.002	14343
1135.318	14303
1137.632	14190
1139.945	14398
1142.258	14303
1144.573	14396
1146.884	14254
1149.196	14292
1151.505	14458
1153.816	14233
1156.124	14175
1158.435	14319
1160.742	14350
1163.051	14210
1165.356	14316
1167.663	14468
1169.97	14276
1172.276	14354
1174.579	14423
1176.881	14399
1179.186	14360
1181.487	14466
1183.79	14394
1186.092	14303
1188.392	14335
1190.691	14387
1192.991	14255
1195.291	14184
1197.588	14272
1199.885	14237
1202.181	14435
1204.479	14351
1206.775	14333
1209.07	14323
1211.363	14482
1213.656	14478
1215.949	14462
1218.241	14672
1220.534	14337
1222.825	14423
1225.115	14509
1227.405	14516
1229.693	14595
1231.984	14473
1234.271	14689
1236.558	14710
1238.845	14621
1241.131	14801
1243.416	14646
1245.703	14601
1247.987	14725
1250.269	14825
1252.552	14651
1254.834	14795
1257.118	14863
1259.399	14668
1261.678	14808
1263.958	14828
1266.237	14713
1268.516	14760
1270.794	14852
1273.072	14652
1275.347	14830
1277.624	14551
1279.899	14755
1282.175	14669
1284.449	14879
1286.722	14624
1288.995	14602
1291.266	14752
1293.54	14656
1295.81	14741
1298.081	14622
1300.35	14657
1302.62	14563
1304.889	14808
1307.156	14744
1309.425	14723
1311.69	14578
1313.957	14646
1316.222	14779
1318.488	14584
1320.751	14606
1323.016	14752
1325.278	14690
1327.54	14844
1329.803	14768
1332.065	14790
1334.325	14725
1336.584	14754
1338.843	14738
1341.101	14810
1343.36	14862
1345.617	14859
1347.876	14725
1350.131	14729
1352.387	14782
1354.643	14685
1356.897	14778
1359.151	14908
1361.403	14672
1363.656	14714
1365.909	14837
1368.16	14975
1370.409	14882
1372.659	14647
1374.909	14833
1377.157	15024
1379.407	14895
1381.655	15023
1383.9	15015
1386.147	14830
1388.393	15051
1390.64	14939
1392.885	15199
1395.127	14871
1397.37	15008
1399.614	15016
1401.854	15004
1404.098	14990
1406.339	14987
1408.578	14903
1410.818	15069
1413.056	15046
1415.297	15180
1417.533	15012
1419.771	15127
1422.006	15012
1424.243	14886
1426.479	15126
1428.715	15010
1430.948	14990
1433.182	14932
1435.414	15303
1437.647	15425
1439.88	15394
1442.11	15249
1444.342	15512
1446.571	15371
1448.799	15253
1451.029	15234
1453.258	15336
1455.485	15251
1457.711	15359
1459.937	15198
1462.164	15408
1464.39	15332
1466.614	15401
1468.838	15263
1471.06	15247
1473.283	15204
1475.506	15288
1477.727	15206
1479.949	15075
1482.169	15101
1484.389	15204
1486.609	15090
1488.828	15122
1491.045	14903
1493.261	14880
1495.477	14959
1497.693	15127
1499.91	15020
1502.125	15027
1504.339	15206
1506.553	14847
1508.766	14980
1510.979	15005
1513.191	14892
1515.402	15151
1517.613	15044
1519.823	14848
1522.033	15075
1524.242	14989
1526.451	14823
1528.657	14889
1530.865	14833
1533.072	14952
1535.278	14839
1537.484	14981
1539.687	15039
1541.892	15070
1544.096	15076
1546.299	15226
1548.502	15220
1550.703	15288
1552.905	15038
1555.104	15165
1557.303	14987
1559.505	15342
1561.703	15243
1563.902	15278
1566.099	15181
1568.295	15364
1570.494	15325
1572.689	15141
1574.883	15431
1577.079	15355
1579.272	15255
1581.467	15466
1583.659	15687
1585.853	15201
1588.044	15356
1590.234	15571
1592.424	15384
1594.615	15581
1596.806	15626
1598.994	15422
1601.182	15497
1603.369	15406
1605.557	15411
1607.744	15591
1609.929	15690
1612.114	15609
1614.298	15470
1616.482	15614
1618.667	15488
1620.85	15469
1623.032	15600
1625.214	15504
1627.395	15569
1629.575	15565
1631.755	15587
1633.935	15567
1636.114	15572
1638.292	15549
1640.471	15455
1642.647	15598
1644.823	15541
1647	15537
1649.175	15645
1651.348	15562
1653.525	15609
1655.698	15634
1657.87	15628
1660.043	15445
1662.213	15740
1664.387	15447
1666.558	15592
1668.727	15558
1670.896	15538
1673.064	15593
1675.233	15556
1677.401	15580
1679.569	15450
1681.735	15596
1683.902	15579
1686.066	15551
1688.233	15523
1690.397	15598
1692.559	15449
1694.723	15659
1696.885	15518
1699.048	15450
1701.21	15532
1703.37	15656
1705.53	15536
1707.689	15353
1709.849	15479
1712.009	15360
1714.166	15404
1716.323	15429
1718.479	15523
1720.634	15337
1722.793	15342
1724.948	15390
1727.102	15375
1729.255	15406
1731.408	15450
1733.562	15465
1735.714	15335
1737.865	15507
1740.016	15301
1742.166	15586
1744.316	15502
1746.467	15556
1748.616	15522
1750.764	15474
1752.911	15563
1755.056	15543
1757.205	15413
1759.35	15619
1761.496	15505
1763.641	15506
1765.785	15534
1767.927	15491
1770.072	15541
1772.214	15541
1774.355	15661
1776.496	15684
1778.637	15562
1780.778	15594
1782.918	15564
1785.057	15480
1787.194	15729
1789.333	15757
1791.472	15650
1793.608	15788
1795.745	15615
1797.879	15663
1800.015	15539
1802.148	15712
1804.284	15785
1806.417	15683
1808.548	15538
1810.682	15606
1812.812	15606
1814.946	15664
1817.075	15561
1819.205	15644
1821.335	15462
1823.463	15644
1825.59	15598
1827.721	15539
1829.847	15509
1831.973	15549
1834.098	15583
1836.223	15526
1838.351	15306
1840.475	15282
1842.598	15378
1844.721	15565
1846.843	15511
1848.966	15449
1851.087	15677
1853.21	15274
1855.33	15502
1857.449	15555
1859.568	15381
1861.688	15401
1863.806	15298
1865.924	15435
1868.039	15456
1870.155	15328
1872.273	15416
1874.388	15581
1876.503	15402
1878.617	15512
1880.73	15407
1882.844	15311
1884.956	15696
1887.068	15379
1889.18	15625
1891.291	15500
1893.4	15528
1895.511	15584
1897.621	15484
1899.73	15573
1901.837	15535
1903.944	15698
1906.053	15585
1908.159	15598
1910.265	15661
1912.369	15765
1914.474	15651
1916.577	15545
1918.683	15676
1920.785	15680
1922.888	15643
1924.989	15726
1927.091	15647
1929.193	15557
1931.294	15732
1933.393	15601
1935.493	15705
1937.59	15788
1939.689	15840
1941.788	15705
1943.884	15741
1945.98	15720
1948.077	15717
1950.171	15770
1952.267	15694
1954.361	15690
1956.455	15841
1958.548	15705
1960.64	15708
1962.733	15658
1964.824	15832
1966.915	15719
1969.005	15565
1971.096	15747
1973.185	15800
1975.275	15670
1977.363	15623
1979.45	15536
1981.537	15621
1983.623	15689
1985.711	15507
1987.796	15698
1989.881	15530
1991.965	15384
1994.047	15482
1996.132	15379
1998.215	15437
2000.297	15696
2002.378	15477
2004.46	15507
2006.54	15550
2008.62	15554
2010.7	15566
2012.779	15452
2014.858	15656
2016.934	15525
2019.013	15554
2021.09	15484
2023.165	15488
2025.241	15438
2027.317	15505
2029.39	15637
2031.466	15434
2033.538	15477
2035.612	15646
2037.683	15524
2039.755	15514
2041.827	15684
2043.898	15457
2045.968	15467
2048.038	15609
2050.106	15529
2052.177	15642
2054.244	15583
2056.313	15577
2058.379	15357
2060.444	15523
2062.511	15420
2064.577	15404
2066.641	15564
2068.705	15646
2070.77	15364
2072.832	15567
2074.896	15550
2076.958	15652
2079.02	15467
2081.081	15470
2083.141	15437
2085.2	15561
2087.261	15662
2089.319	15410
2091.377	15562
2093.435	15477
2095.492	15494
2097.552	15383
2099.607	15514
2101.663	15514
2103.718	15539
2105.771	15429
2107.826	15514
2109.879	15448
2111.932	15307
2113.985	15530
2116.037	15422
2118.088	15425
2120.141	15442
2122.191	15636
2124.239	15303
2126.288	15598
2128.337	15321
2130.387	15404
2132.434	15409
2134.481	15436
2136.528	15474
2138.574	15516
2140.618	15414
2142.665	15547
2144.71	15386
2146.753	15474
2148.797	15469
2150.838	15650
2152.883	15573
2154.923	15398
2156.965	15479
2159.007	15374
2161.046	15370
2163.086	15444
2165.126	15359
2167.163	15410
2169.202	15195
2171.239	15371
2173.277	15404
2175.314	15203
2177.349	15201
2179.385	15344
2181.42	15251
2183.453	15342
2185.49	15371
2187.522	15360
2189.555	15297
2191.586	15173
2193.619	15100
2195.651	15051
2197.682	15136
2199.711	15100
2201.74	15104
2203.769	15074
2205.799	15277
2207.828	15180
2209.855	15253
2211.882	15137
2213.908	15012
2215.934	15157
2217.961	15083
2219.986	14975
2222.01	15145
2224.034	15072
2226.057	15056
2228.08	14969
2230.104	14977
2232.124	15106
2234.145	15037
2236.166	14965
2238.186	15191
2240.207	14986
2242.227	15090
2244.244	15011
2246.262	14883
2248.28	15012
2250.299	14921
2252.314	15085
2254.33	15011
2256.346	14998
2258.36	15066
2260.375	15002
2262.391	15047
2264.403	15233
2266.416	15077
2268.427	15082
2270.44	15133
2272.453	14989
2274.463	15083
2276.474	15024
2278.483	15249
2280.493	15085
2282.501	14992
2284.51	14886
2286.518	15013
2288.524	14735
2290.532	15028
2292.537	15003
2294.544	14920
2296.55	14971
2298.554	14937
2300.557	14980
2302.562	15087
2304.566	15109
2306.568	15120
2308.569	14942
2310.572	14906
2312.573	14852
2314.573	15054
2316.574	14943
2318.573	14842
2320.571	14779
2322.571	14848
2324.569	14730
2326.567	14983
2328.564	15012
2330.56	14673
2332.556	14830
2334.551	14863
2336.546	15062
2338.542	14893
2340.535	14838
2342.529	14849
2344.521	14862
2346.512	14622
2348.505	14757
2350.497	14807
2352.487	14820
2354.478	14872
2356.468	14766
2358.457	14784
2360.446	14617
2362.434	14726
2364.422	14717
2366.408	14763
2368.395	14494
2370.383	14741
2372.369	14537
2374.353	14783
2376.338	14726
2378.321	14505
2380.307	14850
2382.29	14461
2384.272	14492
2386.254	14487
2388.235	14601
2390.218	14586
2392.198	14518
2394.179	14438
2396.157	14415
2398.137	14556
2400.115	14330
2402.095	14499
2404.072	14592
2406.048	14524
2408.026	14438
2410.001	14406
2411.977	14606
2413.953	14385
2415.927	14667
2417.9	14399
2419.875	14573
2421.847	14184
2423.821	14480
2425.792	14535
2427.763	14473
2429.736	14457
2431.706	14568
2433.677	14408
2435.646	14429
2437.615	14388
2439.583	14383
2441.551	14375
2443.519	14460
2445.486	14480
2447.452	14510
2449.418	14432
2451.383	14283
2453.348	14446
2455.314	14435
2457.278	14411
2459.241	14489
2461.205	14538
2463.167	14557
2465.131	14278
2467.091	14345
2469.052	14462
2471.012	14233
2472.972	14473
2474.932	14477
2476.891	14436
2478.85	14301
2480.808	14400
2482.766	14076
2484.722	14339
2486.68	14386
2488.636	14378
2490.591	14064
2492.546	14170
2494.5	14318
2496.456	14314
2498.41	14189
2500.362	14303
2502.315	14101
2504.266	14250
2506.218	14133
2508.169	14240
2510.121	14210
2512.07	14223
2514.019	14180
2515.968	14205
2517.918	14255
2519.866	14200
2521.813	14192
2523.76	14283
2525.707	13983
2527.653	14082
2529.599	14136
2531.543	14286
2533.489	14063
2535.433	14138
2537.376	14109
2539.32	14285
2541.264	13936
2543.205	14168
2545.147	14253
2547.087	13976
2549.029	14122
2550.969	14123
2552.908	14144
2554.847	14044
2556.786	14090
2558.724	14138
2560.663	14011
2562.6	14255
2564.537	13985
2566.473	14142
2568.408	13947
2570.345	14067
2572.28	14281
2574.214	14052
2576.148	13967
2578.081	14153
2580.014	14132
2581.947	14216
2583.879	14250
2585.81	14201
2587.741	14145
2589.67	14012
2591.602	14068
2593.532	14127
2595.461	14242
2597.388	14075
2599.316	14273
2601.244	14144
2603.172	14245
2605.098	14187
2607.023	14367
2608.949	14196
2610.873	14001
2612.8	14302
2614.723	14084
2616.647	14150
2618.569	14289
2620.493	14124
2622.416	14212
2624.338	14193
2626.258	13963
2628.179	14122
2630.099	14100
2632.019	14424
2633.939	14185
2635.857	14103
2637.775	14160
2639.694	14293
2641.61	14264
2643.528	14190
2645.444	14037
2647.361	14153
2649.276	14138
2651.19	14374
2653.105	14071
2655.019	14342
2656.934	14126
2658.846	14040
2660.758	14084
2662.67	14004
2664.583	14171
2666.493	14206
2668.404	13903
2670.313	14193
2672.223	14221
2674.134	14013
2676.042	14199
2677.95	14251
2679.858	14055
2681.765	14171
2683.673	14103
2685.579	14037
2687.483	14153
2689.389	14082
2691.294	13954
2693.198	13976
2695.104	13966
2697.006	14101
2698.909	14010
2700.811	14028
2702.713	14070
2704.615	13970
2706.516	13775
2708.417	13968
2710.316	13964
2712.216	13942
2714.115	13844
2716.014	14000
2717.913	13968
2719.81	13823
2721.707	13979
2723.603	13930
2725.501	13816
2727.396	13843
2729.292	13882
2731.186	13841
2733.081	13946
2734.976	13945
2736.87	13770
2738.762	13705
2740.653	13807
2742.546	13865
2744.437	14007
2746.329	13887
2748.22	13771
2750.11	13830
2751.999	13664
2753.889	13912
2755.778	13835
2757.666	13762
2759.553	13688
2761.44	13786
2763.328	13791
2765.215	13813
2767.101	13765
2768.986	13622
2770.87	13775
2772.754	13936
2774.638	13811
2776.523	13646
2778.405	13649
2780.288	13700
2782.17	13667
2784.051	13564
2785.934	13797
2787.814	13751
2789.694	13581
2791.574	13664
2793.453	13706
2795.332	13826
2797.212	13686
2799.088	13722
2800.966	13777
2802.843	13527
2804.719	13603
2806.597	13753
2808.471	13496
2810.346	13548
2812.221	13545
2814.094	13758
2815.969	13605
2817.843	13540
2819.714	13714
2821.587	13500
2823.459	13597
2825.329	13548
2827.202	13677
2829.072	13510
2830.942	13567
2832.811	13474
2834.68	13431
2836.549	13638
2838.418	13591
2840.284	13498
2842.152	13642
2844.018	13662
2845.885	13577
2847.751	13563
2849.616	13711
2851.482	13600
2853.345	13586
2855.208	13658
2857.074	13747
2858.937	13674
2860.799	13606
2862.66	13654
2864.522	13780
2866.385	13611
2868.245	13846
2870.104	13827
2871.964	13742
2873.824	13837
2875.683	14013
2877.542	13876
2879.4	13850
2881.257	13918
2883.114	14067
2884.97	13888
2886.827	13894
2888.683	13932
2890.537	13913
2892.392	13916
2894.246	13846
2896.1	14025
2897.954	14090
2899.807	13800
2901.66	13886
2903.51	13846
2905.362	13869
2907.214	13774
2909.065	13809
2910.915	13797
2912.765	13828
2914.613	13892
2916.463	14111
2918.311	14259
2920.158	14077
2922.006	14116
2923.853	14184
2925.698	14307
2927.546	14324
2929.392	14258
2931.236	14543
2933.081	14297
2934.924	14434
2936.77	14479
2938.613	14445
2940.455	14471
2942.298	14364
2944.139	14553
2945.982	14425
2947.823	14615
2949.662	14269
2951.503	14703
2953.342	14302
2955.182	14350
2957.021	14189
2958.858	14307
2960.697	14179
2962.534	14163
2964.37	14221
2966.207	13934
2968.044	13777
2969.879	13912
2971.714	13755
2973.548	13780
2975.383	13855
2977.218	13720
2979.051	13889
2980.883	13735
2982.715	13747
2984.547	13751
2986.379	13656
2988.21	13675
2990.04	13566
2991.87	13665
2993.7	13534
2995.53	13643
2997.359	13529
2999.187	13452
3001.015	13441
3002.842	13343
3004.669	13215
3006.497	13168
3008.323	13230
3010.148	13182
3011.974	13125
3013.797	13249
3015.623	13185
3017.447	13078
3019.27	13132
3021.094	13137
3022.915	13020
3024.737	12951
3026.56	12972
3028.38	12873
3030.201	12788
3032.022	12975
3033.84	12787
3035.662	12904
3037.481	12873
3039.298	12836
3041.117	12948
3042.933	12983
3044.752	12729
3046.568	12757
3048.385	12630
3050.2	12715
3052.016	12703
3053.83	12715
3055.646	12960
3057.46	12738
3059.272	12725
3061.086	12719
3062.898	12706
3064.711	12856
3066.524	12794
3068.335	12798
3070.145	12643
3071.956	12750
3073.766	12532
3075.576	12650
3077.385	12655
3079.193	12579
3081.002	12685
3082.81	12440
3084.618	12458
3086.425	12443
3088.231	12564
3090.036	12396
3091.842	12542
3093.648	12609
3095.452	12293
3097.257	12360
3099.06	12377
3100.863	12266
3102.666	12350
3104.47	12326
3106.272	12402
3108.073	12342
3109.875	12112
3111.676	12375
3113.477	12191
3115.277	12547
3117.077	12244
3118.874	12294
3120.673	12281
3122.473	12125
3124.271	12355
3126.066	12315
3127.863	12197
3129.66	12304
3131.456	12049
3133.252	12177
3135.047	12315
3136.842	12172
3138.635	12080
3140.429	12255
3142.223	11994
3144.016	12107
3145.808	12272
3147.6	12136
3149.392	12114
3151.183	11945
3152.975	12165
3154.765	12019
3156.553	12076
3158.344	12108
3160.132	11909
3161.922	12047
3163.71	11988
3165.497	12031
3167.285	12067
3169.071	11973
3170.858	12057
3172.645	12115
3174.429	12001
3176.214	12026
3177.998	11936
3179.783	11850
3181.568	12015
3183.351	11892
3185.133	11842
3186.915	11828
3188.698	12011
3190.481	11787
3192.261	11949
3194.042	11901
3195.822	11702
3197.601	11907
3199.381	11652
3201.161	11813
3202.939	11898
3204.717	11768
3206.495	11897
3208.272	11673
3210.05	11717
3211.826	11703
3213.602	11835
3215.376	11820
3217.151	11677
3218.927	11773
3220.702	11746
3222.476	11788
3224.249	11621
3226.021	11800
3227.793	11758
3229.567	11772
3231.339	11676
3233.109	11684
3234.88	11766
3236.651	11690
3238.421	11794
3240.191	11795
3241.96	11677
3243.728	11788
3245.497	11664
3247.263	11702
3249.033	11625
3250.799	11648
3252.566	11503
3254.331	11612
3256.097	11596
3257.863	11584
3259.628	11669
3261.392	11748
3263.156	11747
3264.919	11590
3266.683	11448
3268.447	11560
3270.208	11636
3271.969	11498
3273.731	11593
3275.492	11710
3277.253	11513
3279.013	11727
3280.773	11569
3282.532	11611
3284.291	11663
3286.05	11585
3287.808	11409
3289.566	11713
3291.323	11472
3293.079	11687
3294.835	11410
3296.593	11418
3298.348	11510
3300.102	11611
3301.857	11704
3303.611	11561
3305.366	11614
3307.119	11553
3308.872	11522
3310.624	11512
3312.376	11703
3314.129	11532
3315.881	11613
3317.631	11557
3319.38	11511
3321.13	11468
3322.88	11618
3324.631	11560
3326.379	11457
3328.126	11632
3329.875	11503
3331.622	11583
3333.371	11449
3335.116	11424
3336.863	11470
3338.609	11482
3340.353	11341
3342.1	11496
3343.845	11438
3345.588	11171
3347.332	11432
3349.074	11441
3350.817	11347
3352.56	11353
3354.303	11330
3356.043	11421
3357.785	11432
3359.525	11446
3361.268	11297
3363.007	11315
3364.745	11273
3366.485	11287
3368.223	11212
3369.962	11206
3371.701	11348
3373.438	11456
3375.174	11249
3376.911	11262
3378.647	11266
3380.384	11262
3382.118	11123
3383.854	11123
3385.588	11288
3387.322	11212
3389.057	11297
3390.79	11281
3392.522	11134
3394.255	11123
3395.987	11161
3397.719	11118
3399.451	11128
3401.181	11042
3402.911	11058
3404.641	11253
3406.371	11028
3408.101	11039
3409.83	11195
3411.558	11080
3413.285	11210
3415.011	11029
3416.739	11132
3418.467	11125
3420.193	11071
3421.919	10947
3423.644	10951
3425.368	11153
3427.094	11021
3428.818	11147
3430.542	11015
3432.264	10989
3433.987	11004
3435.712	10912
3437.434	11084
3439.155	10991
3440.876	10943
3442.596	10899
3444.317	10912
3446.039	10944
3447.757	10810
3449.477	10872
3451.195	10907
3452.914	10862
3454.632	10818
3456.35	10848
3458.067	10932
3459.784	10628
3461.5	10871
3463.216	10696
3464.932	10740
3466.647	10784
3468.362	10741
3470.076	10891
3471.789	10759
3473.505	10850
3475.217	10754
3476.929	10689
3478.641	10724
3480.354	10551
3482.066	10651
3483.777	10627
3485.487	10612
3487.197	10564
3488.908	10632
3490.617	10543
3492.327	10545
3494.035	10744
3495.743	10592
3497.451	10546
3499.158	10425
3500.866	10597
3502.572	10479
3504.278	10520
3505.984	10373
3507.689	10516
3509.396	10610
3511.1	10445
3512.804	10487
3514.508	10434
3516.211	10501
3517.913	10620
3519.616	10418
3521.319	10538
3523.021	10451
3524.722	10364
3526.422	10355
3528.124	10419
3529.824	10484
3531.524	10459
3533.222	10389
3534.921	10268
3536.62	10532
3538.318	10373
3540.016	10293
3541.714	10246
3543.41	10390
3545.107	10189
3546.803	10394
3548.5	10275
3550.194	10371
3551.889	10285
3553.583	10299
3555.279	10403
3556.972	10346
3558.666	10242
3560.358	10286
3562.051	10299
3563.742	10266
3565.435	10247
3567.126	10277
3568.817	10265
3570.507	10279
3572.197	10160
3573.888	10168
3575.577	10253
3577.265	10088
3578.954	10205
3580.642	10316
3582.329	10165
3584.017	10111
3585.704	10241
3587.391	10159
3589.077	10083
3590.762	10092
3592.449	10084
3594.133	10057
3595.817	10165
3597.501	10063
3599.185	9957
3600.869	10050
3602.552	9895
3604.234	10121
3605.916	9994
3607.598	9927
3609.279	9902
3610.961	9854
3612.642	9947
3614.321	9817
3616	9930
3617.68	9900
3619.36	9887
3621.039	9914
3622.716	9849
3624.394	9895
3626.071	9684
3627.748	9876
3629.425	9848
3631.102	9781
3632.778	9864
3634.452	9799
3636.127	9967
3637.803	9868
3639.477	9736
3641.151	9771
3642.823	9693
3644.497	9794
3646.171	9797
3647.842	9684
3649.515	9706
3651.185	9735
3652.857	9752
3654.527	9582
3656.198	9600
3657.868	9549
3659.537	9740
3661.207	9690
3662.875	9593
3664.544	9635
3666.212	9692
3667.879	9604
3669.546	9628
3671.212	9674
3672.88	9578
3674.546	9549
3676.211	9557
3677.875	9625
3679.541	9660
3681.205	9570
3682.87	9627
3684.533	9650
3686.196	9727
3687.859	9560
3689.521	9511
3691.184	9394
3692.845	9485
3694.507	9407
3696.167	9552
3697.827	9605
3699.487	9473
3701.148	9464
3702.808	9514
3704.466	9540
3706.125	9571
3707.783	9412
3709.442	9466
3711.099	9602
3712.757	9406
3714.412	9454
3716.068	9346
3717.725	9381
3719.381	9429
3721.036	9464
3722.689	9364
3724.344	9490
3725.998	9347
3727.652	9341
3729.305	9429
3730.958	9332
3732.61	9244
3734.262	9471
3735.915	9389
3737.565	9404
3739.217	9373
3740.866	9242
3742.516	9414
3744.165	9258
3745.816	9385
3747.464	9333
3749.113	9431
3750.761	9232
3752.409	9367
3754.057	9295
3755.703	9053
3757.35	9242
3758.996	9286
3760.641	9165
3762.289	9088
3763.933	9238
3765.577	9126
3767.222	9176
3768.865	9253
3770.508	9173
3772.152	9257
3773.796	9140
3775.438	9234
3777.079	9110
3778.721	9200
3780.363	9134
3782.003	9126
3783.643	9143
3785.283	9120
3786.923	9105
3788.563	9161
3790.203	9105
3791.841	9180
3793.479	9142
3795.115	9061
3796.753	9021
3798.391	9105
3800.027	9054
3801.664	8991
3803.299	8938
3804.935	8987
3806.571	8933
3808.206	9050
3809.839	8905
3811.473	8914
3813.107	9007
3814.74	9010
3816.375	8914
3818.006	8976
3819.638	8897
3821.27	8936
3822.9	8750
3824.532	8956
3826.163	8964
3827.792	8921
3829.423	8918
3831.051	8766
3832.682	8662
3834.311	8957
3835.938	8862
3837.566	8912
3839.193	8803
3840.821	8687
3842.448	8861
3844.075	8750
3845.7	8701
3847.325	8862
3848.951	8837
3850.576	8778
3852.201	8720
3853.825	8735
3855.448	8804
3857.072	8822
3858.694	8807
3860.318	8671
3861.939	8799
3863.562	8743
3865.183	8678
3866.804	8753
3868.426	8695
3870.045	8606
3871.666	8730
3873.285	8629
3874.904	8719
3876.524	8674
3878.142	8650
3879.76	8639
3881.378	8603
3882.995	8603
3884.612	8547
3886.229	8664
3887.845	8704
3889.461	8581
3891.076	8683
3892.691	8662
3894.307	8638
3895.922	8620
3897.536	8603
3899.149	8734
3900.761	8542
3902.374	8583
3903.988	8731
3905.6	8681
3907.212	8573
3908.822	8526
3910.433	8668
3912.045	8577
3913.655	8563
3915.265	8491
3916.875	8597
3918.483	8474
3920.093	8507
3921.702	8605
3923.309	8555
3924.917	8622
3926.523	8584
3928.13	8566
3929.739	8455
3931.344	8570
3932.95	8495
3934.555	8456
3936.159	8471
3937.766	8482
3939.369	8611
3940.974	8661
3942.577	8460
3944.181	8432
3945.783	8519
3947.386	8454
3948.989	8412
3950.59	8517
3952.191	8344
3953.791	8407
3955.394	8408
3956.994	8261
3958.593	8392
3960.192	8446
3961.791	8461
3963.392	8304
3964.99	8307
3966.588	8402
3968.185	8288
3969.782	8275
3971.379	8282
3972.976	8300
3974.572	8231
3976.168	8239
3977.763	8296
3979.358	8216
3980.954	8300
3982.548	8226
3984.142	8280
3985.736	8223
3987.329	8291
3988.922	8227
3990.516	8255
3992.108	8183
3993.698	8049
3995.29	8124
3996.881	8268
3998.473	8095
4000.064	8175
4001.653	8169
4003.242	8077
4004.832	8121
4006.422	8065
4008.01	8171
4009.598	8059
4011.186	8076
4012.773	7954
4014.36	8030
4015.947	8064
4017.534	8075
4019.119	8020
4020.705	7947
4022.291	8125
4023.876	7968
4025.461	8022
4027.044	8098
4028.627	7993
4030.211	7868
4031.795	7999
4033.378	7940
4034.96	7909
4036.542	7917
4038.124	7875
4039.704	7984
4041.286	7940
4042.867	7948
4044.447	7864
4046.026	7906
4047.606	7940
4049.187	7824
4050.765	7827
4052.343	7790
4053.92	7963
4055.498	7821
4057.076	7887
4058.654	7756
4060.23	7700
4061.806	7757
4063.381	7633
4064.957	7812
4066.533	7744
4068.107	7709
4069.682	7816
4071.256	7828
4072.829	7738
4074.404	7778
4075.977	7699
4077.549	7656
4079.121	7720
4080.693	7799
4082.265	7780
4083.836	7763
4085.407	7762
4086.977	7686
4088.547	7725
4090.117	7717
4091.687	7705
4093.256	7775
4094.825	7806
4096.392	7630
4097.96	7695
4099.528	7742
4101.097	7677
4102.663	7636
4104.229	7725
4105.795	7634
4107.361	7652
4108.928	7665
4110.493	7556
4112.058	7614
4113.621	7556
4115.186	7481
4116.75	7554
4118.313	7477
4119.876	7612
4121.438	7593
4123	7651
4124.562	7562
4126.125	7433
4127.686	7572
4129.246	7421
4130.807	7405
4132.367	7526
4133.927	7561
4135.486	7410
4137.046	7421
4138.604	7435
4140.162	7436
4141.72	7393
4143.279	7448
4144.836	7511
4146.393	7401
4147.949	7392
4149.505	7443
4151.062	7513
4152.617	7406
4154.172	7447
4155.727	7348
4157.281	7375
4158.836	7318
4160.39	7280
4161.943	7279
4163.496	7348
4165.048	7221
4166.601	7249
4168.154	7254
4169.706	7294
4171.257	7200
4172.808	7244
4174.358	7246
4175.909	7231
4177.458	7176
4179.008	7207
4180.558	7224
4182.106	7324
4183.655	7173
4185.204	7102
4186.751	7148
4188.298	7169
4189.845	7201
4191.392	7160
4192.939	7184
4194.485	7096
4196.031	7044
4197.576	7092
4199.121	7088
4200.666	7271
4202.211	7253
4203.754	7117
4205.298	7064
4206.84	7252
4208.384	7131
4209.927	7067
4211.47	7184
4213.011	7155
4214.552	7057
4216.094	7040
4217.635	7024
4219.175	7068
4220.716	7156
4222.255	7014
4223.793	7047
4225.335	6989
4226.873	7010
4228.411	7080
4229.948	6983
4231.486	6982
4233.024	6998
4234.562	6925
4236.098	7143
4237.634	6960
4239.169	6949
4240.705	6991
4242.241	6969
4243.776	7016
4245.31	7091
4246.844	6982
4248.378	6842
4249.911	6996
4251.445	7011
4252.978	6991
4254.51	6984
4256.042	7021
4257.574	6987
4259.107	6939
4260.638	6933
4262.169	6933
4263.699	6937
4265.228	6981
4266.759	6925
4268.289	6910
4269.818	6868
4271.345	6860
4272.874	6885
4274.402	6863
4275.931	6885
4277.458	6912
4278.985	6918
4280.512	6852
4282.037	6795
4283.564	6867
4285.089	6804
4286.615	6700
4288.139	6836
4289.664	6796
4291.187	6889
4292.712	6877
4294.235	6768
4295.759	6721
4297.281	6798
4298.804	6759
4300.327	6753
4301.849	6803
4303.37	6750
4304.891	6708
4306.412	6611
4307.933	6777
4309.453	6654
4310.973	6711
4312.492	6638
