398.1873	3197
400.7097	3260
403.2336	3277
405.7547	3198
408.2751	3295
410.7948	3285
413.3138	3299
415.83	3253
418.3497	3252
420.8666	3345
423.3829	3291
425.8985	3415
428.4133	3325
430.9275	3423
433.441	3413
435.9538	3483
438.4639	3436
440.9753	3511
443.4881	3430
445.9982	3412
448.5055	3398
451.0142	3377
453.5201	3432
456.0274	3540
458.5361	3505
461.04	3407
463.5453	3431
466.0478	3449
468.5517	3458
471.0549	3508
473.5574	3450
476.0572	3515
478.5584	3459
481.0568	3522
483.5545	3504
486.0557	3493
488.5521	3600
491.0478	3476
493.5449	3581
496.0392	3540
498.5349	3542
501.0299	3551
503.5222	3497
506.0139	3596
508.5048	3507
510.9991	3587
513.4887	3625
515.9777	3588
518.4659	3515
520.9534	3616
523.4403	3589
525.9306	3519
528.4161	3584
530.9009	3620
533.3851	3608
535.8687	3544
538.3535	3661
540.8356	3705
543.3171	3619
545.7979	3554
548.278	3617
550.7595	3643
553.2383	3633
555.7144	3636
558.1918	3648
560.6685	3600
563.1446	3563
565.6221	3649
568.0968	3691
570.5688	3616
573.0422	3645
575.515	3692
577.989	3671
580.4584	3675
582.9291	3806
585.3991	3770
587.8685	3759
590.3352	3755
592.8052	3725
595.2706	3813
597.7372	3734
600.2033	3642
602.6666	3677
605.1334	3704
607.5953	3710
610.0587	3729
612.5193	3714
614.9814	3669
617.4427	3714
619.9034	3783
622.3615	3706
624.8208	3731
627.2775	3716
629.7335	3665
632.1929	3641
634.6476	3594
637.1016	3699
639.5569	3809
642.0096	3646
644.4637	3719
646.9151	3699
649.3678	3824
651.8179	3742
654.2672	3787
656.7159	3782
659.166	3817
661.6154	3717
664.0622	3851
666.5082	3780
668.9537	3809
671.4005	3839
673.8445	3813
676.288	3762
678.7308	3812
681.1729	3918
683.6163	3798
686.0572	3870
688.4973	3844
690.9368	3862
693.3757	3907
695.8138	3866
698.2534	3829
700.6902	3853
703.1245	3893
705.56	3885
707.9949	3833
710.4311	3920
712.8647	3919
715.2957	3819
717.7279	3954
720.1595	3958
722.5905	3929
725.0208	3962
727.4505	3861
729.8795	3871
732.3058	3970
734.7336	3930
737.1626	4017
739.587	4039
742.0128	3933
744.4359	3978
746.8604	3997
749.2841	3997
751.7073	4055
754.1278	4015
756.5496	4064
758.9688	4034
761.3893	4070
763.8093	4098
766.2285	4204
768.6451	4065
771.0611	4145
773.4784	4111
775.895	4056
778.3091	4069
780.7244	4154
783.1371	4101
785.5493	4122
787.9626	4122
790.3754	4069
792.7856	4139
795.1951	4066
797.6039	4059
800.0121	4106
802.4236	4053
804.8306	4111
807.2369	4099
809.6425	4218
812.0475	4132
814.4538	4144
816.8575	4110
819.2606	4198
821.663	4249
824.0648	4098
826.4659	4100
828.8683	4152
831.2682	4161
833.6674	4035
836.066	4128
838.4639	4175
840.8632	4185
843.2579	4209
845.6539	4202
848.0493	4269
850.444	4244
852.84	4266
855.2315	4309
857.6243	4288
860.0165	4090
862.4081	4154
864.797	4223
867.1892	4111
869.5789	4192
871.9659	4210
874.3542	4240
876.74	4195
879.129	4234
881.5155	4131
883.8994	4226
886.2845	4181
888.6671	4228
891.051	4217
893.4343	4209
895.8169	4189
898.197	4160
900.5783	4214
902.9571	4272
905.3372	4252
907.7167	4194
910.0936	4209
912.4698	4197
914.8474	4305
917.2244	4409
919.5987	4395
921.9744	4313
924.3475	4265
926.72	4338
929.0918	4440
931.4669	4312
933.8375	4398
936.2074	4365
938.5767	4368
940.9454	4448
943.3154	4436
945.6829	4501
948.0497	4520
950.4178	4565
952.7833	4603
955.1483	4786
957.5145	4872
959.8782	4810
962.2412	4815
964.6036	4779
966.9655	4807
969.3266	4665
971.6871	4536
974.0471	4449
976.4064	4396
978.765	4336
981.125	4304
983.4824	4324
985.8373	4446
988.1935	4389
990.549	4366
992.9039	4409
995.2602	4295
997.6119	4349
999.965	4332
1002.317	4360
1004.667	4275
1007.02	4406
1009.371	4342
1011.719	4381
1014.068	4373
1016.415	4367
1018.765	4314
1021.111	4382
1023.458	4467
1025.804	4363
1028.147	4388
1030.49	4422
1032.837	4257
1035.179	4412
1037.522	4377
1039.862	4374
1042.204	4392
1044.546	4445
1046.884	4494
1049.224	4429
1051.562	4483
1053.899	4440
1056.237	4513
1058.575	4441
1060.91	4388
1063.244	4468
1065.58	4440
1067.913	4491
1070.248	4435
1072.579	4476
1074.911	4487
1077.242	4397
1079.572	4525
1081.905	4450
1084.234	4448
1086.562	4456
1088.89	4463
1091.217	4417
1093.544	4419
1095.871	4547
1098.197	4516
1100.521	4472
1102.845	4430
1105.169	4441
1107.491	4505
1109.814	4449
1112.135	4551
1114.456	4529
1116.776	4434
1119.096	4515
1121.415	4538
1123.734	4491
1126.052	4418
1128.369	4585
1130.686	4460
1133.002	4432
1135.318	4502
1137.632	4527
1139.945	4461
1142.258	4499
1144.573	4477
1146.884	4530
1149.196	4483
1151.505	4496
1153.816	4441
1156.124	4551
1158.435	4588
1160.742	4568
1163.051	4547
1165.356	4508
1167.663	4533
1169.97	4567
1172.276	4487
1174.579	4521
1176.881	4518
1179.186	4661
1181.487	4475
1183.79	4522
1186.092	4528
1188.392	4417
1190.691	4538
1192.991	4560
1195.291	4577
1197.588	4504
1199.885	4569
1202.181	4424
1204.479	4501
1206.775	4519
1209.07	4530
1211.363	4583
1213.656	4486
1215.949	4660
1218.241	4531
1220.534	4595
1222.825	4618
1225.115	4589
1227.405	4565
1229.693	4612
1231.984	4642
1234.271	4562
1236.558	4727
1238.845	4695
1241.131	4658
1243.416	4660
1245.703	4762
1247.987	4620
1250.269	4631
1252.552	4589
1254.834	4587
1257.118	4667
1259.399	4658
1261.678	4703
1263.958	4662
1266.237	4602
1268.516	4618
1270.794	4659
1273.072	4681
1275.347	4638
1277.624	4583
1279.899	4638
1282.175	4615
1284.449	4671
1286.722	4615
1288.995	4707
1291.266	4611
1293.54	4600
1295.81	4638
1298.081	4636
1300.35	4626
1302.62	4596
1304.889	4701
1307.156	4705
1309.425	4604
1311.69	4644
1313.957	4552
1316.222	4620
1318.488	4637
1320.751	4672
1323.016	4616
1325.278	4653
1327.54	4600
1329.803	4681
1332.065	4664
1334.325	4572
1336.584	4732
1338.843	4716
1341.101	4634
1343.36	4709
1345.617	4729
1347.876	4618
1350.131	4707
1352.387	4642
1354.643	4765
1356.897	4644
1359.151	4703
1361.403	4721
1363.656	4642
1365.909	4745
1368.16	4663
1370.409	4625
1372.659	4646
1374.909	4720
1377.157	4615
1379.407	4655
1381.655	4678
1383.9	4785
1386.147	4651
1388.393	4694
1390.64	4694
1392.885	4772
1395.127	4676
1397.37	4736
1399.614	4756
1401.854	4725
1404.098	4687
1406.339	4751
1408.578	4779
1410.818	4798
1413.056	4842
1415.297	4848
1417.533	4774
1419.771	4807
1422.006	4878
1424.243	4764
1426.479	4861
1428.715	4749
1430.948	4887
1433.182	4922
1435.414	4877
1437.647	4878
1439.88	4836
1442.11	4755
1444.342	4915
1446.571	4790
1448.799	4851
1451.029	4921
1453.258	4856
1455.485	4867
1457.711	4915
1459.937	4878
1462.164	4832
1464.39	4877
1466.614	4802
1468.838	4846
1471.06	4771
1473.283	4817
1475.506	4762
1477.727	4792
1479.949	4728
1482.169	4737
1484.389	4766
1486.609	4752
1488.828	4830
1491.045	4731
1493.261	4813
1495.477	4639
1497.693	4737
1499.91	4797
1502.125	4702
1504.339	4745
1506.553	4804
1508.766	4718
1510.979	4688
1513.191	4643
1515.402	4747
1517.613	4777
1519.823	4704
1522.033	4741
1524.242	4712
1526.451	4709
1528.657	4672
1530.865	4675
1533.072	4715
1535.278	4824
1537.484	4783
1539.687	4751
1541.892	4698
1544.096	4802
1546.299	4700
1548.502	4760
1550.703	4780
1552.905	4832
1555.104	4653
1557.303	4826
1559.505	4723
1561.703	4746
1563.902	4854
1566.099	4826
1568.295	4868
1570.494	4747
1572.689	4831
1574.883	4868
1577.079	4897
1579.272	4945
1581.467	4851
1583.659	4989
1585.853	4791
1588.044	4846
1590.234	4887
1592.424	4825
1594.615	4808
1596.806	4822
1598.994	4945
1601.182	4847
1603.369	4872
1605.557	4887
1607.744	5013
1609.929	4807
1612.114	4904
1614.298	4938
1616.482	4876
1618.667	4988
1620.85	4930
1623.032	4929
1625.214	4958
1627.395	4924
1629.575	4976
1631.755	4875
1633.935	4991
1636.114	5002
1638.292	5030
1640.471	4920
1642.647	4957
1644.823	4934
1647	4883
1649.175	5035
1651.348	4969
1653.525	5036
1655.698	4971
1657.87	4949
1660.043	4815
1662.213	4817
1664.387	5005
1666.558	4865
1668.727	4958
1670.896	4994
1673.064	4986
1675.233	4949
1677.401	5035
1679.569	4921
1681.735	5009
1683.902	4891
1686.066	5006
1688.233	4957
1690.397	5024
1692.559	4898
1694.723	4918
1696.885	4990
1699.048	4916
1701.21	5014
1703.37	4839
1705.53	4935
1707.689	4924
1709.849	4931
1712.009	5005
1714.166	4786
1716.323	4936
1718.479	4951
1720.634	5058
1722.793	4933
1724.948	4870
1727.102	4895
1729.255	4909
1731.408	4932
1733.562	4913
1735.714	4888
1737.865	4976
1740.016	4858
1742.166	4942
1744.316	4961
1746.467	4945
1748.616	5036
1750.764	4961
1752.911	4918
1755.056	4961
1757.205	4980
1759.35	4924
1761.496	4914
1763.641	4901
1765.785	4878
1767.927	4977
1770.072	5106
1772.214	5013
1774.355	4987
1776.496	4981
1778.637	4997
1780.778	4903
1782.918	5038
1785.057	4999
1787.194	5064
1789.333	5046
1791.472	5005
1793.608	4914
1795.745	4915
1797.879	5091
1800.015	5000
1802.148	4958
1804.284	5010
1806.417	4968
1808.548	4975
1810.682	5031
1812.812	5132
1814.946	4940
1817.075	4914
1819.205	4993
1821.335	4918
1823.463	5026
1825.59	5024
1827.721	4939
1829.847	4927
1831.973	4963
1834.098	4902
1836.223	5054
1838.351	4947
1840.475	4994
1842.598	4942
1844.721	4998
1846.843	5025
1848.966	4999
1851.087	5045
1853.21	4861
1855.33	4935
1857.449	4929
1859.568	5018
1861.688	4928
1863.806	4951
1865.924	4983
1868.039	4951
1870.155	4990
1872.273	4944
1874.388	4974
1876.503	4948
1878.617	4915
1880.73	4986
1882.844	5016
1884.956	5018
1887.068	4934
1889.18	5011
1891.291	4989
1893.4	5057
1895.511	5033
1897.621	4975
1899.73	5090
1901.837	5023
1903.944	5108
1906.053	5006
1908.159	4943
1910.265	4978
1912.369	4970
1914.474	5153
1916.577	5104
1918.683	5081
1920.785	5046
1922.888	5101
1924.989	5025
1927.091	5077
1929.193	5022
1931.294	5061
1933.393	5105
1935.493	5104
1937.59	5170
1939.689	5041
1941.788	4998
1943.884	5056
1945.98	4931
1948.077	5184
1950.171	5075
1952.267	5175
1954.361	4994
1956.455	5012
1958.548	5001
1960.64	5067
1962.733	5125
1964.824	5121
1966.915	5029
1969.005	5137
1971.096	5099
1973.185	5036
1975.275	5146
1977.363	4989
1979.45	5104
1981.537	5027
1983.623	5126
1985.711	5062
1987.796	5006
1989.881	5000
1991.965	4982
1994.047	5055
1996.132	5021
1998.215	5000
2000.297	5024
2002.378	5049
2004.46	4969
2006.54	5042
2008.62	5030
2010.7	5099
2012.779	5009
2014.858	5049
2016.934	5067
2019.013	5054
2021.09	5046
2023.165	5005
2025.241	4965
2027.317	5016
2029.39	5075
2031.466	5002
2033.538	5061
2035.612	4996
2037.683	5092
2039.755	5015
2041.827	5002
2043.898	5054
2045.968	4951
2048.038	5024
2050.106	5097
2052.177	5018
2054.244	5189
2056.313	5121
2058.379	4984
2060.444	5020
2062.511	5003
2064.577	5052
2066.641	5085
2068.705	5100
2070.77	5081
2072.832	5030
2074.896	5166
2076.958	5079
2079.02	5097
2081.081	5013
2083.141	5073
2085.2	5072
2087.261	5013
2089.319	5022
2091.377	4989
2093.435	5098
2095.492	5106
2097.552	5005
2099.607	5038
2101.663	5046
2103.718	5040
2105.771	5077
2107.826	5086
2109.879	5103
2111.932	4965
2113.985	5109
2116.037	5026
2118.088	5152
2120.141	5044
2122.191	5065
2124.239	5123
2126.288	5046
2128.337	4991
2130.387	4998
2132.434	5032
2134.481	4932
2136.528	5134
2138.574	5015
2140.618	5069
2142.665	5051
2144.71	4985
2146.753	4985
2148.797	4982
2150.838	5062
2152.883	5128
2154.923	4992
2156.965	5117
2159.007	5057
2161.046	5113
2163.086	4981
2165.126	5060
2167.163	4993
2169.202	5081
2171.239	5083
2173.277	4957
2175.314	4970
2177.349	5053
2179.385	5084
2181.42	5023
2183.453	4959
2185.49	4982
2187.522	4958
2189.555	4989
2191.586	5005
2193.619	5069
2195.651	5043
2197.682	4895
2199.711	5020
2201.74	4938
2203.769	5091
2205.799	4985
2207.828	4868
2209.855	4954
2211.882	5036
2213.908	4936
2215.934	4923
2217.961	4948
2219.986	4977
2222.01	5000
2224.034	4941
2226.057	4859
2228.08	4967
2230.104	4930
2232.124	5041
2234.145	5048
2236.166	4913
2238.186	5014
2240.207	4921
2242.227	5020
2244.244	4903
2246.262	4978
2248.28	4946
2250.299	4918
2252.314	5018
2254.33	5005
2256.346	4932
2258.36	4987
2260.375	5096
2262.391	4997
2264.403	4969
2266.416	4908
2268.427	5032
2270.44	4965
2272.453	5117
2274.463	4927
2276.474	5017
2278.483	4997
2280.493	4967
2282.501	4994
2284.51	4903
2286.518	4908
2288.524	4975
2290.532	4984
2292.537	5000
2294.544	4896
2296.55	4994
2298.554	5050
2300.557	4944
2302.562	4967
2304.566	5006
2306.568	4934
2308.569	5032
2310.572	5018
2312.573	4942
2314.573	4956
2316.574	4943
2318.573	4873
2320.571	4984
2322.571	4975
2324.569	4823
2326.567	4919
2328.564	4972
2330.56	4938
2332.556	4963
2334.551	4967
2336.546	4935
2338.542	4959
2340.535	4968
2342.529	4949
2344.521	4898
2346.512	4956
2348.505	4854
2350.497	4890
2352.487	4959
2354.478	4844
2356.468	4803
2358.457	4901
2360.446	4985
2362.434	4933
2364.422	4913
2366.408	4903
2368.395	4952
2370.383	4895
2372.369	4822
2374.353	4825
2376.338	4863
2378.321	4974
2380.307	4957
2382.29	4920
2384.272	4909
2386.254	4914
2388.235	4906
2390.218	4887
2392.198	4860
2394.179	4921
2396.157	4865
2398.137	4830
2400.115	5010
2402.095	4897
2404.072	4781
2406.048	4847
2408.026	4823
2410.001	4895
2411.977	4819
2413.953	4815
2415.927	4857
2417.9	4901
2419.875	4915
2421.847	4914
2423.821	4952
2425.792	4819
2427.763	4929
2429.736	4844
2431.706	4805
2433.677	4813
2435.646	4939
2437.615	4819
2439.583	4867
2441.551	4893
2443.519	4892
2445.486	4859
2447.452	4896
2449.418	4919
2451.383	4829
2453.348	4695
2455.314	4810
2457.278	4722
2459.241	4911
2461.205	4866
2463.167	4830
2465.131	4806
2467.091	4895
2469.052	4759
2471.012	4796
2472.972	4934
2474.932	4911
2476.891	4810
2478.85	4894
2480.808	4882
2482.766	4812
2484.722	4777
2486.68	4886
2488.636	4817
2490.591	4871
2492.546	4775
2494.5	4689
2496.456	4755
2498.41	4768
2500.362	4803
2502.315	4804
2504.266	4822
2506.218	4753
2508.169	4793
2510.121	4770
2512.07	4848
2514.019	4898
2515.968	4843
2517.918	4744
2519.866	4762
2521.813	4833
2523.76	4804
2525.707	4840
2527.653	4726
2529.599	4718
2531.543	4832
2533.489	4725
2535.433	4838
2537.376	4760
2539.32	4852
2541.264	4757
2543.205	4716
2545.147	4904
2547.087	4737
2549.029	4820
2550.969	4798
2552.908	4830
2554.847	4791
2556.786	4738
2558.724	4807
2560.663	4784
2562.6	4793
2564.537	4861
2566.473	4725
2568.408	4755
2570.345	4830
2572.28	4726
2574.214	4739
2576.148	4745
2578.081	4815
2580.014	4870
2581.947	4869
2583.879	4815
2585.81	4800
2587.741	4782
2589.67	4742
2591.602	4876
2593.532	4834
2595.461	4804
2597.388	4847
2599.316	4803
2601.244	4804
2603.172	4737
2605.098	4890
2607.023	4868
2608.949	4787
2610.873	4737
2612.8	4782
2614.723	4757
2616.647	4777
2618.569	4857
2620.493	4832
2622.416	4865
2624.338	4765
2626.258	4799
2628.179	4866
2630.099	4850
2632.019	4834
2633.939	4867
2635.857	4868
2637.775	4909
2639.694	4804
2641.61	4869
2643.528	4727
2645.444	4877
2647.361	4756
2649.276	4861
2651.19	4795
2653.105	4797
2655.019	4821
2656.934	4793
2658.846	4932
2660.758	4782
2662.67	4809
2664.583	4822
2666.493	4808
2668.404	4774
2670.313	4757
2672.223	4794
2674.134	4864
2676.042	4831
2677.95	4769
2679.858	4657
2681.765	4867
2683.673	4748
2685.579	4780
2687.483	4862
2689.389	4786
2691.294	4756
2693.198	4822
2695.104	4814
2697.006	4727
2698.909	4743
2700.811	4856
2702.713	4776
2704.615	4843
2706.516	4764
2708.417	4706
2710.316	4734
2712.216	4722
2714.115	4706
2716.014	4714
2717.913	4749
2719.81	4750
2721.707	4734
2723.603	4817
2725.501	4729
2727.396	4645
2729.292	4688
2731.186	4901
2733.081	4726
2734.976	4699
2736.87	4747
2738.762	4717
2740.653	4640
2742.546	4700
2744.437	4736
2746.329	4781
2748.22	4720
2750.11	4706
2751.999	4735
2753.889	4695
2755.778	4734
2757.666	4636
2759.553	4704
2761.44	4720
2763.328	4714
2765.215	4730
2767.101	4694
2768.986	4696
2770.87	4638
2772.754	4695
2774.638	4707
2776.523	4713
2778.405	4650
2780.288	4700
2782.17	4783
2784.051	4665
2785.934	4670
2787.814	4732
2789.694	4715
2791.574	4712
2793.453	4711
2795.332	4686
2797.212	4559
2799.088	4637
2800.966	4657
2802.843	4585
2804.719	4659
2806.597	4694
2808.471	4629
2810.346	4689
2812.221	4595
2814.094	4718
2815.969	4671
2817.843	4723
2819.714	4605
2821.587	4693
2823.459	4641
2825.329	4594
2827.202	4741
2829.072	4575
2830.942	4632
2832.811	4715
2834.68	4551
2836.549	4693
2838.418	4704
2840.284	4737
2842.152	4733
2844.018	4704
2845.885	4637
2847.751	4683
2849.616	4713
2851.482	4742
2853.345	4638
2855.208	4692
2857.074	4741
2858.937	4718
2860.799	4712
2862.66	4740
2864.522	4733
2866.385	4718
2868.245	4757
2870.104	4723
2871.964	4760
2873.824	4728
2875.683	4802
2877.542	4807
2879.4	4755
2881.257	4841
2883.114	4843
2884.97	4871
2886.827	4776
2888.683	4949
2890.537	4823
2892.392	4924
2894.246	4914
2896.1	4884
2897.954	4899
2899.807	4832
2901.66	4890
2903.51	4828
2905.362	4729
2907.214	4813
2909.065	4810
2910.915	4845
2912.765	4853
2914.613	4860
2916.463	4834
2918.311	4914
2920.158	4802
2922.006	4957
2923.853	4882
2925.698	4956
2927.546	4911
2929.392	5038
2931.236	4948
2933.081	4967
2934.924	5059
2936.77	5048
2938.613	5030
2940.455	5135
2942.298	5071
2944.139	5176
2945.982	5183
2947.823	5076
2949.662	5079
2951.503	5217
2953.342	5044
2955.182	5024
2957.021	5012
2958.858	4954
2960.697	4956
2962.534	4942
2964.37	5007
2966.207	5013
2968.044	4780
2969.879	4874
2971.714	4788
2973.548	4846
2975.383	4755
2977.218	4771
2979.051	4800
2980.883	4770
2982.715	4775
2984.547	4647
2986.379	4758
2988.21	4684
2990.04	4706
2991.87	4753
2993.7	4676
2995.53	4571
2997.359	4647
2999.187	4669
3001.015	4625
3002.842	4609
3004.669	4584
3006.497	4570
3008.323	4584
3010.148	4562
3011.974	4516
3013.797	4494
3015.623	4527
3017.447	4454
3019.27	4493
3021.094	4467
3022.915	4465
3024.737	4493
3026.56	4441
3028.38	4447
3030.201	4425
3032.022	4503
3033.84	4430
3035.662	4413
3037.481	4511
3039.298	4429
3041.117	4446
3042.933	4445
3044.752	4392
3046.568	4516
3048.385	4413
3050.2	4404
3052.016	4346
3053.83	4360
3055.646	4380
3057.46	4376
3059.272	4396
3061.086	4326
3062.898	4460
3064.711	4395
3066.524	4470
3068.335	4456
3070.145	4399
3071.956	4363
3073.766	4368
3075.576	4405
3077.385	4376
3079.193	4341
3081.002	4358
3082.81	4343
3084.618	4346
3086.425	4381
3088.231	4346
3090.036	4264
3091.842	4325
3093.648	4357
3095.452	4408
3097.257	4319
3099.06	4321
3100.863	4380
3102.666	4259
3104.47	4333
3106.272	4321
3108.073	4223
3109.875	4326
3111.676	4362
3113.477	4233
3115.277	4305
3117.077	4238
3118.874	4346
3120.673	4353
3122.473	4318
3124.271	4273
3126.066	4360
3127.863	4279
3129.66	4212
3131.456	4236
3133.252	4237
3135.047	4242
3136.842	4248
3138.635	4228
3140.429	4213
3142.223	4187
3144.016	4179
3145.808	4297
3147.6	4190
3149.392	4166
3151.183	4259
3152.975	4207
3154.765	4177
3156.553	4317
3158.344	4126
3160.132	4230
3161.922	4157
3163.71	4139
3165.497	4235
3167.285	4124
3169.071	4204
3170.858	4279
3172.645	4116
3174.429	4136
3176.214	4147
3177.998	4109
3179.783	4198
3181.568	4180
3183.351	4099
3185.133	4167
3186.915	4111
3188.698	4136
3190.481	4185
3192.261	4176
3194.042	4200
3195.822	4142
3197.601	4190
3199.381	4208
3201.161	4146
3202.939	4201
3204.717	4097
3206.495	4164
3208.272	4032
3210.05	4143
3211.826	4153
3213.602	4100
3215.376	4143
3217.151	4103
3218.927	4091
3220.702	4104
3222.476	4135
3224.249	4122
3226.021	4131
3227.793	4088
3229.567	4056
3231.339	4215
3233.109	4138
3234.88	4051
3236.651	4047
3238.421	4118
3240.191	4135
3241.96	4162
3243.728	4147
3245.497	4087
3247.263	4147
3249.033	4161
3250.799	4060
3252.566	4095
3254.331	4115
3256.097	4132
3257.863	4183
3259.628	4093
3261.392	4092
3263.156	4026
3264.919	4035
3266.683	4096
3268.447	4049
3270.208	4215
3271.969	4098
3273.731	4106
3275.492	4070
3277.253	4041
3279.013	4071
3280.773	4094
3282.532	4144
3284.291	4024
3286.05	4055
3287.808	4028
3289.566	4114
3291.323	4052
3293.079	4064
3294.835	4111
3296.593	4051
3298.348	4073
3300.102	4063
3301.857	4025
3303.611	4023
3305.366	4150
3307.119	4022
3308.872	4107
3310.624	4038
3312.376	4039
3314.129	4010
3315.881	4071
3317.631	3977
3319.38	4099
3321.13	3996
3322.88	4067
3324.631	3996
3326.379	4073
3328.126	4019
3329.875	4056
3331.622	4066
3333.371	4016
3335.116	3956
3336.863	4023
3338.609	3963
3340.353	4065
3342.1	4026
3343.845	3992
3345.588	4068
3347.332	3933
3349.074	4010
3350.817	3967
3352.56	4082
3354.303	3944
3356.043	4049
3357.785	3916
3359.525	4012
3361.268	3966
3363.007	4100
3364.745	3977
3366.485	3974
3368.223	3984
3369.962	4033
3371.701	3951
3373.438	3982
3375.174	3996
3376.911	4011
3378.647	3982
3380.384	3898
3382.118	4054
3383.854	3985
3385.588	3949
3387.322	3988
3389.057	4027
3390.79	3943
3392.522	3876
3394.255	3972
3395.987	3955
3397.719	3883
3399.451	3926
3401.181	3944
3402.911	3955
3404.641	3896
3406.371	3913
3408.101	3946
3409.83	3912
3411.558	3970
3413.285	3918
3415.011	3946
3416.739	3907
3418.467	3870
3420.193	3965
3421.919	3897
3423.644	3937
3425.368	3961
3427.094	3902
3428.818	3873
3430.542	3956
3432.264	3956
3433.987	3868
3435.712	3813
3437.434	3876
3439.155	3868
3440.876	3815
3442.596	3831
3444.317	3854
3446.039	3816
3447.757	3911
3449.477	3837
3451.195	3878
3452.914	3851
3454.632	3817
3456.35	3738
3458.067	3825
3459.784	3811
3461.5	3827
3463.216	3857
3464.932	3794
3466.647	3749
3468.362	3792
3470.076	3851
3471.789	3814
3473.505	3854
3475.217	3810
3476.929	3741
3478.641	3798
3480.354	3811
3482.066	3750
3483.777	3802
3485.487	3825
3487.197	3805
3488.908	3688
3490.617	3738
3492.327	3717
3494.035	3744
3495.743	3708
3497.451	3725
3499.158	3806
3500.866	3675
3502.572	3752
3504.278	3818
3505.984	3721
3507.689	3664
3509.396	3727
3511.1	3642
3512.804	3783
3514.508	3743
3516.211	3690
3517.913	3691
3519.616	3667
3521.319	3721
3523.021	3677
3524.722	3674
3526.422	3699
3528.124	3629
3529.824	3727
3531.524	3715
3533.222	3640
3534.921	3714
3536.62	3647
3538.318	3650
3540.016	3655
3541.714	3630
3543.41	3659
3545.107	3640
3546.803	3648
3548.5	3735
3550.194	3697
3551.889	3711
3553.583	3660
3555.279	3642
3556.972	3690
3558.666	3635
3560.358	3644
3562.051	3729
3563.742	3595
3565.435	3565
3567.126	3658
3568.817	3625
3570.507	3593
3572.197	3641
3573.888	3581
3575.577	3673
3577.265	3552
3578.954	3530
3580.642	3674
3582.329	3486
3584.017	3627
3585.704	3632
3587.391	3585
3589.077	3629
3590.762	3541
3592.449	3685
3594.133	3568
3595.817	3620
3597.501	3589
3599.185	3469
3600.869	3538
3602.552	3470
3604.234	3514
3605.916	3466
3607.598	3576
3609.279	3530
3610.961	3600
3612.642	3440
3614.321	3458
3616	3485
3617.68	3581
3619.36	3525
3621.039	3472
3622.716	3489
3624.394	3586
3626.071	3500
3627.748	3478
3629.425	3526
3631.102	3535
3632.778	3473
3634.452	3455
3636.127	3404
3637.803	3415
3639.477	3523
3641.151	3457
3642.823	3427
3644.497	3459
3646.171	3404
3647.842	3448
3649.515	3468
3651.185	3447
3652.857	3476
3654.527	3378
3656.198	3474
3657.868	3421
3659.537	3482
3661.207	3409
3662.875	3333
3664.544	3435
3666.212	3481
3667.879	3414
3669.546	3320
3671.212	3465
3672.88	3373
3674.546	3475
3676.211	3355
3677.875	3353
3679.541	3369
3681.205	3390
3682.87	3435
3684.533	3452
3686.196	3362
3687.859	3405
3689.521	3413
3691.184	3419
3692.845	3337
3694.507	3351
3696.167	3366
3697.827	3396
3699.487	3421
3701.148	3327
3702.808	3366
3704.466	3422
3706.125	3495
3707.783	3393
3709.442	3383
3711.099	3411
3712.757	3346
3714.412	3408
3716.068	3363
3717.725	3348
3719.381	3427
3721.036	3343
3722.689	3339
3724.344	3412
3725.998	3335
3727.652	3371
3729.305	3426
3730.958	3352
3732.61	3437
3734.262	3332
3735.915	3318
3737.565	3325
3739.217	3347
3740.866	3288
3742.516	3291
3744.165	3318
3745.816	3364
3747.464	3291
3749.113	3362
3750.761	3272
3752.409	3338
3754.057	3308
3755.703	3338
3757.35	3288
3758.996	3390
3760.641	3294
3762.289	3324
3763.933	3328
3765.577	3324
3767.222	3274
3768.865	3335
3770.508	3193
3772.152	3283
3773.796	3239
3775.438	3261
3777.079	3217
3778.721	3252
3780.363	3297
3782.003	3270
3783.643	3254
3785.283	3232
3786.923	3302
3788.563	3273
3790.203	3202
3791.841	3238
3793.479	3276
3795.115	3336
3796.753	3306
3798.391	3260
3800.027	3233
3801.664	3284
3803.299	3250
3804.935	3214
3806.571	3252
3808.206	3152
3809.839	3245
3811.473	3249
3813.107	3181
3814.74	3254
3816.375	3227
3818.006	3179
3819.638	3252
3821.27	3190
3822.9	3199
3824.532	3181
3826.163	3164
3827.792	3287
3829.423	3234
3831.051	3222
3832.682	3200
3834.311	3140
3835.938	3155
3837.566	3255
3839.193	3187
3840.821	3158
3842.448	3184
3844.075	3169
3845.7	3166
3847.325	3129
3848.951	3176
3850.576	3133
3852.201	3076
3853.825	3195
3855.448	3114
3857.072	3127
3858.694	3219
3860.318	3134
3861.939	3144
3863.562	3096
3865.183	3185
3866.804	3097
3868.426	3137
3870.045	3181
3871.666	3155
3873.285	3131
3874.904	3170
3876.524	3115
3878.142	3115
3879.76	3120
3881.378	3115
3882.995	3155
3884.612	3157
3886.229	3044
3887.845	3144
3889.461	3096
3891.076	3071
3892.691	3083
3894.307	3034
3895.922	3073
3897.536	3059
3899.149	3032
3900.761	3137
3902.374	3116
3903.988	3121
3905.6	3089
3907.212	3041
3908.822	3100
3910.433	3122
3912.045	3106
3913.655	3067
3915.265	3054
3916.875	3066
3918.483	3081
3920.093	3103
3921.702	3081
3923.309	3037
3924.917	3007
3926.523	3094
3928.13	3086
3929.739	3120
3931.344	3116
3932.95	3049
3934.555	3076
3936.159	3083
3937.766	3124
3939.369	3067
3940.974	3032
3942.577	3047
3944.181	3123
3945.783	3030
3947.386	3065
3948.989	3057
3950.59	3010
3952.191	3070
3953.791	3002
3955.394	3080
3956.994	3012
3958.593	3037
3960.192	3070
3961.791	3062
3963.392	3007
3964.99	2979
3966.588	3016
3968.185	2995
3969.782	2991
3971.379	2990
3972.976	2953
3974.572	2952
3976.168	2993
3977.763	2997
3979.358	3013
3980.954	2932
3982.548	2934
3984.142	2957
3985.736	2995
3987.329	2973
3988.922	3014
3990.516	2959
3992.108	2911
3993.698	2981
3995.29	2968
3996.881	2991
3998.473	2848
4000.064	2869
4001.653	2927
4003.242	2912
4004.832	3014
4006.422	2876
4008.01	2907
4009.598	2950
4011.186	2903
4012.773	2839
4014.36	2976
4015.947	2904
4017.534	2863
4019.119	2843
4020.705	2907
4022.291	2891
4023.876	2868
4025.461	2918
4027.044	2921
4028.627	2893
4030.211	2817
4031.795	2894
4033.378	2837
4034.96	2868
4036.542	2822
4038.124	2875
4039.704	2891
4041.286	2835
4042.867	2826
4044.447	2864
4046.026	2857
4047.606	2831
4049.187	2718
4050.765	2822
4052.343	2820
4053.92	2886
4055.498	2831
4057.076	2856
4058.654	2815
4060.23	2827
4061.806	2849
4063.381	2744
4064.957	2822
4066.533	2815
4068.107	2895
4069.682	2875
4071.256	2827
4072.829	2819
4074.404	2814
4075.977	2790
4077.549	2782
4079.121	2748
4080.693	2831
4082.265	2795
4083.836	2813
4085.407	2815
4086.977	2811
4088.547	2769
4090.117	2739
4091.687	2792
4093.256	2791
4094.825	2760
4096.392	2787
4097.96	2798
4099.528	2783
4101.097	2732
4102.663	2696
4104.229	2720
4105.795	2712
4107.361	2780
4108.928	2757
4110.493	2844
4112.058	2796
4113.621	2777
4115.186	2698
4116.75	2858
4118.313	2761
4119.876	2699
4121.438	2669
4123	2731
4124.562	2702
4126.125	2732
4127.686	2695
4129.246	2720
4130.807	2729
4132.367	2776
4133.927	2691
4135.486	2720
4137.046	2757
4138.604	2725
4140.162	2731
4141.72	2730
4143.279	2716
4144.836	2679
4146.393	2696
4147.949	2742
4149.505	2653
4151.062	2690
4152.617	2689
4154.172	2718
4155.727	2633
4157.281	2661
4158.836	2596
4160.39	2667
4161.943	2629
4163.496	2650
4165.048	2646
4166.601	2701
4168.154	2660
4169.706	2642
4171.257	2678
4172.808	2636
4174.358	2636
4175.909	2680
4177.458	2716
4179.008	2613
4180.558	2516
4182.106	2623
4183.655	2589
4185.204	2625
4186.751	2591
4188.298	2647
4189.845	2567
4191.392	2565
4192.939	2626
4194.485	2511
4196.031	2607
4197.576	2565
4199.121	2564
4200.666	2577
4202.211	2577
4203.754	2552
4205.298	2560
4206.84	2624
4208.384	2542
4209.927	2573
4211.47	2523
4213.011	2567
4214.552	2623
4216.094	2593
4217.635	2533
4219.175	2616
4220.716	2623
4222.255	2637
4223.793	2507
4225.335	2527
4226.873	2584
4228.411	2583
4229.948	2528
4231.486	2549
4233.024	2545
4234.562	2586
4236.098	2521
4237.634	2535
4239.169	2525
4240.705	2509
4242.241	2485
4243.776	2579
4245.31	2530
4246.844	2502
4248.378	2611
4249.911	2580
4251.445	2552
4252.978	2547
4254.51	2532
4256.042	2500
4257.574	2522
4259.107	2564
4260.638	2575
4262.169	2527
4263.699	2537
4265.228	2515
4266.759	2521
4268.289	2519
4269.818	2524
4271.345	2522
4272.874	2523
4274.402	2528
4275.931	2439
4277.458	2468
4278.985	2495
4280.512	2429
4282.037	2468
4283.564	2493
4285.089	2433
4286.615	2480
4288.139	2530
4289.664	2452
4291.187	2465
4292.712	2485
4294.235	2450
4295.759	2448
4297.281	2497
4298.804	2483
4300.327	2421
4301.849	2497
4303.37	2470
4304.891	2472
4306.412	2442
4307.933	2453
4309.453	2419
4310.973	2478
4312.492	2500
