398.1873	4896
400.7097	4960
403.2336	4925
405.7547	4962
408.2751	5025
410.7948	4991
413.3138	4942
415.83	5085
418.3497	5024
420.8666	5135
423.3829	5013
425.8985	5139
428.4133	5197
430.9275	5215
433.441	5280
435.9538	5107
438.4639	5143
440.9753	5263
443.4881	5193
445.9982	5150
448.5055	5319
451.0142	5134
453.5201	5268
456.0274	5243
458.5361	5231
461.04	5249
463.5453	5159
466.0478	5092
468.5517	5277
471.0549	5270
473.5574	5309
476.0572	5293
478.5584	5258
481.0568	5408
483.5545	5348
486.0557	5381
488.5521	5336
491.0478	5428
493.5449	5231
496.0392	5349
498.5349	5404
501.0299	5411
503.5222	5394
506.0139	5294
508.5048	5364
510.9991	5355
513.4887	5349
515.9777	5507
518.4659	5420
520.9534	5395
523.4403	5411
525.9306	5442
528.4161	5445
530.9009	5447
533.3851	5550
535.8687	5478
538.3535	5420
540.8356	5464
543.3171	5515
545.7979	5393
548.278	5552
550.7595	5526
553.2383	5520
555.7144	5525
558.1918	5475
560.6685	5485
563.1446	5424
565.6221	5582
568.0968	5539
570.5688	5590
573.0422	5515
575.515	5598
577.989	5687
580.4584	5724
582.9291	5626
585.3991	5623
587.8685	5650
590.3352	5779
592.8052	5760
595.2706	5702
597.7372	5675
600.2033	5699
602.6666	5640
605.1334	5619
607.5953	5675
610.0587	5550
612.5193	5673
614.9814	5687
617.4427	5732
619.9034	5585
622.3615	5649
624.8208	5700
627.2775	5617
629.7335	5620
632.1929	5566
634.6476	5639
637.1016	5726
639.5569	5582
642.0096	5718
644.4637	5683
646.9151	5716
649.3678	5757
651.8179	5719
654.2672	5738
656.7159	5657
659.166	5747
661.6154	5716
664.0622	5766
666.5082	5763
668.9537	5808
671.4005	5703
673.8445	5780
676.288	5679
678.7308	5760
681.1729	5796
683.6163	5836
686.0572	5955
688.4973	5846
690.9368	5786
693.3757	5840
695.8138	5891
698.2534	5811
700.6902	5897
703.1245	5876
705.56	5818
707.9949	5875
710.4311	5978
712.8647	5889
715.2957	5899
717.7279	6153
720.1595	5922
722.5905	5935
725.0208	6097
727.4505	5987
729.8795	6011
732.3058	6095
734.7336	5962
737.1626	6072
739.587	6146
742.0128	6055
744.4359	6060
746.8604	6257
749.2841	6184
751.7073	6162
754.1278	6202
756.5496	6209
758.9688	6181
761.3893	6312
763.8093	6216
766.2285	6277
768.6451	6283
771.0611	6283
773.4784	6244
775.895	6168
778.3091	6316
780.7244	6341
783.1371	6277
785.5493	6289
787.9626	6228
790.3754	6176
792.7856	6177
795.1951	6207
797.6039	6233
800.0121	6388
802.4236	6304
804.8306	6279
807.2369	6323
809.6425	6313
812.0475	6377
814.4538	6406
816.8575	6349
819.2606	6382
821.663	6249
824.0648	6378
826.4659	6350
828.8683	6334
831.2682	6485
833.6674	6314
836.066	6452
838.4639	6303
840.8632	6515
843.2579	6431
845.6539	6426
848.0493	6439
850.444	6512
852.84	6387
855.2315	6404
857.6243	6543
860.0165	6294
862.4081	6437
864.797	6425
867.1892	6459
869.5789	6454
871.9659	6471
874.3542	6449
876.74	6412
879.129	6470
881.5155	6400
883.8994	6470
886.2845	6548
888.6671	6429
891.051	6328
893.4343	6408
895.8169	6565
898.197	6359
900.5783	6401
902.9571	6379
905.3372	6489
907.7167	6522
910.0936	6397
912.4698	6615
914.8474	6548
917.2244	6566
919.5987	6743
921.9744	6773
924.3475	6766
926.72	6734
929.0918	6654
931.4669	6775
933.8375	6776
936.2074	6765
938.5767	6824
940.9454	6848
943.3154	6966
945.6829	6975
948.0497	7068
950.4178	7247
952.7833	7458
955.1483	7588
957.5145	7904
959.8782	7965
962.2412	7729
964.6036	7764
966.9655	7636
969.3266	7281
971.6871	7160
974.0471	7088
976.4064	6906
978.765	6797
981.125	6710
983.4824	6837
985.8373	6716
988.1935	6645
990.549	6622
992.9039	6665
995.2602	6826
997.6119	6749
999.965	6745
1002.317	6716
1004.667	6721
1007.02	6757
1009.371	6631
1011.719	6663
1014.068	6683
1016.415	6831
1018.765	6765
1021.111	6688
1023.458	6735
1025.804	6781
1028.147	6727
1030.49	6935
1032.837	6744
1035.179	6828
1037.522	6805
1039.862	6774
1042.204	6883
1044.546	6835
1046.884	6820
1049.224	6876
1051.562	6802
1053.899	6931
1056.237	6696
1058.575	6837
1060.91	6938
1063.244	6943
1065.58	6858
1067.913	6940
1070.248	7089
1072.579	6943
1074.911	6920
1077.242	6954
1079.572	6979
1081.905	6943
1084.234	6838
1086.562	6924
1088.89	6800
1091.217	6825
1093.544	6841
1095.871	6813
1098.197	6812
1100.521	6774
1102.845	6729
1105.169	6806
1107.491	6951
1109.814	6837
1112.135	6851
1114.456	6938
1116.776	6949
1119.096	7017
1121.415	6887
1123.734	6886
1126.052	6883
1128.369	6921
1130.686	6899
1133.002	6833
1135.318	6940
1137.632	6865
1139.945	6912
1142.258	6924
1144.573	6880
1146.884	6848
1149.196	6823
1151.505	6867
1153.816	6885
1156.124	6943
1158.435	6809
1160.742	6964
1163.051	6915
1165.356	6963
1167.663	6897
1169.97	6848
1172.276	6875
1174.579	6881
1176.881	6908
1179.186	7084
1181.487	7076
1183.79	6867
1186.092	6812
1188.392	6983
1190.691	6881
1192.991	6928
1195.291	6941
1197.588	6865
1199.885	6978
1202.181	6934
1204.479	7083
1206.775	6853
1209.07	6965
1211.363	6955
1213.656	6959
1215.949	6986
1218.241	7026
1220.534	7034
1222.825	6867
1225.115	6962
1227.405	6920
1229.693	6999
1231.984	7057
1234.271	7028
1236.558	6938
1238.845	7086
1241.131	7072
1243.416	7096
1245.703	7082
1247.987	7188
1250.269	7088
1252.552	7222
1254.834	7195
1257.118	7115
1259.399	7250
1261.678	7137
1263.958	7207
1266.237	7092
1268.516	7217
1270.794	7103
1273.072	7301
1275.347	7251
1277.624	7079
1279.899	7120
1282.175	7055
1284.449	7177
1286.722	7060
1288.995	7035
1291.266	7144
1293.54	7036
1295.81	7005
1298.081	7043
1300.35	7146
1302.62	7030
1304.889	7076
1307.156	7062
1309.425	7059
1311.69	7056
1313.957	7140
1316.222	7044
1318.488	7179
1320.751	7105
1323.016	7026
1325.278	7104
1327.54	7150
1329.803	7100
1332.065	7198
1334.325	7107
1336.584	7144
1338.843	7232
1341.101	7150
1343.36	7155
1345.617	7246
1347.876	7189
1350.131	7110
1352.387	7068
1354.643	7200
1356.897	7025
1359.151	7071
1361.403	6969
1363.656	7080
1365.909	7158
1368.16	7125
1370.409	7161
1372.659	7225
1374.909	7234
1377.157	7235
1379.407	7197
1381.655	7230
1383.9	7212
1386.147	7159
1388.393	7125
1390.64	7247
1392.885	7393
1395.127	7238
1397.37	7308
1399.614	7296
1401.854	7325
1404.098	7329
1406.339	7243
1408.578	7253
1410.818	7385
1413.056	7317
1415.297	7305
1417.533	7324
1419.771	7211
1422.006	7403
1424.243	7283
1426.479	7380
1428.715	7410
1430.948	7340
1433.182	7442
1435.414	7451
1437.647	7492
1439.88	7425
1442.11	7320
1444.342	7307
1446.571	7372
1448.799	7485
1451.029	7496
1453.258	7478
1455.485	7362
1457.711	7497
1459.937	7406
1462.164	7415
1464.39	7505
1466.614	7402
1468.838	7402
1471.06	7399
1473.283	7391
1475.506	7348
1477.727	7322
1479.949	7309
1482.169	7344
1484.389	7206
1486.609	7304
1488.828	7288
1491.045	7141
1493.261	7249
1495.477	7275
1497.693	7207
1499.91	7178
1502.125	7214
1504.339	7234
1506.553	7157
1508.766	7152
1510.979	7171
1513.191	7124
1515.402	7221
1517.613	7151
1519.823	7081
1522.033	7171
1524.242	7235
1526.451	7242
1528.657	7191
1530.865	7209
1533.072	7308
1535.278	7173
1537.484	7289
1539.687	7264
1541.892	7401
1544.096	7289
1546.299	7208
1548.502	7263
1550.703	7356
1552.905	7347
1555.104	7311
1557.303	7306
1559.505	7250
1561.703	7314
1563.902	7326
1566.099	7317
1568.295	7428
1570.494	7313
1572.689	7406
1574.883	7373
1577.079	7371
1579.272	7406
1581.467	7397
1583.659	7390
1585.853	7405
1588.044	7436
1590.234	7494
1592.424	7297
1594.615	7402
1596.806	7500
1598.994	7400
1601.182	7496
1603.369	7399
1605.557	7579
1607.744	7480
1609.929	7530
1612.114	7646
1614.298	7450
1616.482	7551
1618.667	7564
1620.85	7492
1623.032	7511
1625.214	7581
1627.395	7464
1629.575	7485
1631.755	7530
1633.935	7629
1636.114	7525
1638.292	7558
1640.471	7506
1642.647	7562
1644.823	7439
1647	7523
1649.175	7637
1651.348	7425
1653.525	7666
1655.698	7577
1657.87	7588
1660.043	7726
1662.213	7652
1664.387	7576
1666.558	7519
1668.727	7687
1670.896	7529
1673.064	7670
1675.233	7605
1677.401	7689
1679.569	7639
1681.735	7634
1683.902	7567
1686.066	7657
1688.233	7495
1690.397	7607
1692.559	7677
1694.723	7517
1696.885	7583
1699.048	7389
1701.21	7463
1703.37	7693
1705.53	7633
1707.689	7501
1709.849	7459
1712.009	7504
1714.166	7510
1716.323	7546
1718.479	7518
1720.634	7451
1722.793	7409
1724.948	7447
1727.102	7489
1729.255	7535
1731.408	7423
1733.562	7568
1735.714	7479
1737.865	7562
1740.016	7525
1742.166	7570
1744.316	7545
1746.467	7374
1748.616	7618
1750.764	7528
1752.911	7464
1755.056	7567
1757.205	7490
1759.35	7644
1761.496	7488
1763.641	7547
1765.785	7531
1767.927	7606
1770.072	7571
1772.214	7616
1774.355	7546
1776.496	7653
1778.637	7661
1780.778	7558
1782.918	7574
1785.057	7693
1787.194	7663
1789.333	7715
1791.472	7559
1793.608	7509
1795.745	7618
1797.879	7610
1800.015	7679
1802.148	7653
1804.284	7540
1806.417	7596
1808.548	7667
1810.682	7682
1812.812	7605
1814.946	7639
1817.075	7649
1819.205	7575
1821.335	7562
1823.463	7645
1825.59	7678
1827.721	7609
1829.847	7519
1831.973	7635
1834.098	7577
1836.223	7528
1838.351	7557
1840.475	7459
1842.598	7555
1844.721	7606
1846.843	7572
1848.966	7561
1851.087	7577
1853.21	7614
1855.33	7632
1857.449	7675
1859.568	7410
1861.688	7565
1863.806	7463
1865.924	7539
1868.039	7494
1870.155	7608
1872.273	7600
1874.388	7425
1876.503	7589
1878.617	7488
1880.73	7528
1882.844	7668
1884.956	7573
1887.068	7612
1889.18	7683
1891.291	7609
1893.4	7592
1895.511	7797
1897.621	7543
1899.73	7674
1901.837	7566
1903.944	7718
1906.053	7819
1908.159	7663
1910.265	7559
1912.369	7654
1914.474	7742
1916.577	7790
1918.683	7744
1920.785	7781
1922.888	7674
1924.989	7714
1927.091	7639
1929.193	7657
1931.294	7689
1933.393	7744
1935.493	7632
1937.59	7787
1939.689	7703
1941.788	7664
1943.884	7657
1945.98	7748
1948.077	7692
1950.171	7605
1952.267	7826
1954.361	7811
1956.455	7644
1958.548	7826
1960.64	7708
1962.733	7706
1964.824	7740
1966.915	7689
1969.005	7734
1971.096	7734
1973.185	7718
1975.275	7678
1977.363	7726
1979.45	7649
1981.537	7693
1983.623	7720
1985.711	7508
1987.796	7713
1989.881	7604
1991.965	7717
1994.047	7648
1996.132	7542
1998.215	7650
2000.297	7659
2002.378	7652
2004.46	7617
2006.54	7723
2008.62	7555
2010.7	7619
2012.779	7648
2014.858	7685
2016.934	7612
2019.013	7604
2021.09	7647
2023.165	7667
2025.241	7644
2027.317	7637
2029.39	7660
2031.466	7695
2033.538	7645
2035.612	7639
2037.683	7632
2039.755	7613
2041.827	7662
2043.898	7584
2045.968	7571
2048.038	7645
2050.106	7694
2052.177	7572
2054.244	7658
2056.313	7765
2058.379	7703
2060.444	7745
2062.511	7679
2064.577	7783
2066.641	7644
2068.705	7722
2070.77	7610
2072.832	7763
2074.896	7821
2076.958	7746
2079.02	7593
2081.081	7748
2083.141	7651
2085.2	7725
2087.261	7677
2089.319	7693
2091.377	7617
2093.435	7684
2095.492	7657
2097.552	7690
2099.607	7754
2101.663	7763
2103.718	7702
2105.771	7638
2107.826	7627
2109.879	7689
2111.932	7659
2113.985	7614
2116.037	7779
2118.088	7749
2120.141	7588
2122.191	7851
2124.239	7668
2126.288	7547
2128.337	7783
2130.387	7636
2132.434	7754
2134.481	7719
2136.528	7586
2138.574	7709
2140.618	7673
2142.665	7618
2144.71	7543
2146.753	7612
2148.797	7524
2150.838	7691
2152.883	7677
2154.923	7640
2156.965	7732
2159.007	7707
2161.046	7696
2163.086	7647
2165.126	7548
2167.163	7557
2169.202	7730
2171.239	7550
2173.277	7580
2175.314	7614
2177.349	7627
2179.385	7545
2181.42	7648
2183.453	7629
2185.49	7620
2187.522	7538
2189.555	7546
2191.586	7601
2193.619	7594
2195.651	7601
2197.682	7611
2199.711	7551
2201.74	7651
2203.769	7597
2205.799	7574
2207.828	7534
2209.855	7552
2211.882	7524
2213.908	7499
2215.934	7611
2217.961	7500
2219.986	7511
2222.01	7389
2224.034	7406
2226.057	7665
2228.08	7492
2230.104	7487
2232.124	7437
2234.145	7451
2236.166	7551
2238.186	7460
2240.207	7400
2242.227	7508
2244.244	7603
2246.262	7479
2248.28	7452
2250.299	7449
2252.314	7450
2254.33	7464
2256.346	7509
2258.36	7434
2260.375	7634
2262.391	7423
2264.403	7411
2266.416	7536
2268.427	7581
2270.44	7540
2272.453	7587
2274.463	7552
2276.474	7491
2278.483	7491
2280.493	7463
2282.501	7754
2284.51	7536
2286.518	7625
2288.524	7708
2290.532	7463
2292.537	7525
2294.544	7514
2296.55	7505
2298.554	7505
2300.557	7483
2302.562	7496
2304.566	7520
2306.568	7585
2308.569	7474
2310.572	7400
2312.573	7432
2314.573	7553
2316.574	7590
2318.573	7511
2320.571	7518
2322.571	7500
2324.569	7346
2326.567	7476
2328.564	7549
2330.56	7312
2332.556	7439
2334.551	7425
2336.546	7363
2338.542	7479
2340.535	7538
2342.529	7322
2344.521	7403
2346.512	7506
2348.505	7341
2350.497	7395
2352.487	7399
2354.478	7413
2356.468	7280
2358.457	7377
2360.446	7414
2362.434	7362
2364.422	7396
2366.408	7300
2368.395	7375
2370.383	7296
2372.369	7238
2374.353	7347
2376.338	7357
2378.321	7309
2380.307	7313
2382.29	7372
2384.272	7516
2386.254	7338
2388.235	7319
2390.218	7276
2392.198	7368
2394.179	7457
2396.157	7250
2398.137	7347
2400.115	7314
2402.095	7398
2404.072	7298
2406.048	7201
2408.026	7274
2410.001	7275
2411.977	7326
2413.953	7395
2415.927	7208
2417.9	7306
2419.875	7282
2421.847	7393
2423.821	7269
2425.792	7236
2427.763	7224
2429.736	7214
2431.706	7396
2433.677	7273
2435.646	7232
2437.615	7299
2439.583	7237
2441.551	7273
2443.519	7349
2445.486	7293
2447.452	7269
2449.418	7190
2451.383	7357
2453.348	7211
2455.314	7358
2457.278	7173
2459.241	7256
2461.205	7337
2463.167	7204
2465.131	7135
2467.091	7300
2469.052	7214
2471.012	7135
2472.972	7342
2474.932	7271
2476.891	7193
2478.85	7323
2480.808	7117
2482.766	7359
2484.722	7208
2486.68	7267
2488.636	7106
2490.591	7259
2492.546	7137
2494.5	7207
2496.456	7325
2498.41	7220
2500.362	7111
2502.315	7199
2504.266	7196
2506.218	7231
2508.169	7213
2510.121	7314
2512.07	7210
2514.019	7224
2515.968	7220
2517.918	7175
2519.866	7239
2521.813	7141
2523.76	7177
2525.707	7043
2527.653	7155
2529.599	7227
2531.543	7285
2533.489	7211
2535.433	7237
2537.376	7170
2539.32	7258
2541.264	7123
2543.205	7147
2545.147	7227
2547.087	7187
2549.029	7119
2550.969	7180
2552.908	7169
2554.847	7112
2556.786	7146
2558.724	7186
2560.663	7171
2562.6	7201
2564.537	7239
2566.473	7188
2568.408	7047
2570.345	7253
2572.28	7112
2574.214	7290
2576.148	7256
2578.081	7173
2580.014	7068
2581.947	7135
2583.879	7134
2585.81	7173
2587.741	7063
2589.67	7193
2591.602	7080
2593.532	7116
2595.461	7196
2597.388	7261
2599.316	7223
2601.244	7192
2603.172	7225
2605.098	7209
2607.023	7058
2608.949	7177
2610.873	7205
2612.8	7255
2614.723	7156
2616.647	7189
2618.569	7192
2620.493	7212
2622.416	7317
2624.338	7146
2626.258	7084
2628.179	7249
2630.099	7208
2632.019	7308
2633.939	7107
2635.857	7153
2637.775	7237
2639.694	7186
2641.61	7266
2643.528	7313
2645.444	7114
2647.361	7229
2649.276	7173
2651.19	7205
2653.105	7131
2655.019	7134
2656.934	7158
2658.846	7213
2660.758	7082
2662.67	7245
2664.583	7159
2666.493	7211
2668.404	7162
2670.313	7224
2672.223	7158
2674.134	7230
2676.042	7203
2677.95	7117
2679.858	7125
2681.765	7155
2683.673	7162
2685.579	7178
2687.483	7198
2689.389	7126
2691.294	7078
2693.198	7092
2695.104	7072
2697.006	7162
2698.909	7163
2700.811	7140
2702.713	7106
2704.615	7072
2706.516	7201
2708.417	7107
2710.316	7248
2712.216	7117
2714.115	7086
2716.014	7123
2717.913	6995
2719.81	7087
2721.707	6949
2723.603	7201
2725.501	7123
2727.396	7079
2729.292	7201
2731.186	7144
2733.081	7128
2734.976	7076
2736.87	7101
2738.762	7119
2740.653	7050
2742.546	6976
2744.437	7077
2746.329	7094
2748.22	7021
2750.11	7017
2751.999	7049
2753.889	6993
2755.778	7018
2757.666	7023
2759.553	7063
2761.44	7030
2763.328	7037
2765.215	7013
2767.101	7008
2768.986	7019
2770.87	7017
2772.754	6996
2774.638	7035
2776.523	7031
2778.405	7043
2780.288	6977
2782.17	7083
2784.051	6940
2785.934	7005
2787.814	7010
2789.694	6993
2791.574	7018
2793.453	6956
2795.332	6957
2797.212	7019
2799.088	7031
2800.966	6970
2802.843	7044
2804.719	7002
2806.597	7082
2808.471	6948
2810.346	6965
2812.221	7049
2814.094	7051
2815.969	6968
2817.843	7002
2819.714	7045
2821.587	6967
2823.459	6965
2825.329	6984
2827.202	7047
2829.072	6955
2830.942	7030
2832.811	6984
2834.68	6890
2836.549	6948
2838.418	7005
2840.284	7028
2842.152	6978
2844.018	7024
2845.885	6902
2847.751	7037
2849.616	7077
2851.482	7033
2853.345	7160
2855.208	7003
2857.074	7030
2858.937	7090
2860.799	7137
2862.66	7207
2864.522	7064
2866.385	7164
2868.245	7033
2870.104	7184
2871.964	7181
2873.824	7189
2875.683	7287
2877.542	7278
2879.4	7368
2881.257	7461
2883.114	7356
2884.97	7428
2886.827	7434
2888.683	7416
2890.537	7562
2892.392	7408
2894.246	7340
2896.1	7421
2897.954	7419
2899.807	7394
2901.66	7446
2903.51	7406
2905.362	7346
2907.214	7387
2909.065	7379
2910.915	7475
2912.765	7367
2914.613	7478
2916.463	7390
2918.311	7580
2920.158	7455
2922.006	7562
2923.853	7561
2925.698	7627
2927.546	7599
2929.392	7748
2931.236	7690
2933.081	7725
2934.924	7707
2936.77	7798
2938.613	7736
2940.455	7856
2942.298	7778
2944.139	7966
2945.982	7993
2947.823	7885
2949.662	7970
2951.503	7842
2953.342	7890
2955.182	7753
2957.021	7831
2958.858	7913
2960.697	7819
2962.534	7701
2964.37	7856
2966.207	7819
2968.044	7603
2969.879	7469
2971.714	7350
2973.548	7520
2975.383	7380
2977.218	7438
2979.051	7360
2980.883	7260
2982.715	7422
2984.547	7103
2986.379	7332
2988.21	7258
2990.04	7199
2991.87	7175
2993.7	7224
2995.53	7036
2997.359	7129
2999.187	7063
3001.015	7027
3002.842	7050
3004.669	6949
3006.497	6959
3008.323	6859
3010.148	6871
3011.974	6879
3013.797	6837
3015.623	6848
3017.447	6742
3019.27	6854
3021.094	6763
3022.915	6816
3024.737	6870
3026.56	6812
3028.38	6688
3030.201	6632
3032.022	6717
3033.84	6722
3035.662	6650
3037.481	6727
3039.298	6539
3041.117	6650
3042.933	6600
3044.752	6621
3046.568	6736
3048.385	6518
3050.2	6697
3052.016	6677
3053.83	6611
3055.646	6659
3057.46	6643
3059.272	6607
3061.086	6633
3062.898	6743
3064.711	6573
3066.524	6680
3068.335	6568
3070.145	6594
3071.956	6555
3073.766	6534
3075.576	6535
3077.385	6601
3079.193	6523
3081.002	6493
3082.81	6535
3084.618	6643
3086.425	6437
3088.231	6565
3090.036	6480
3091.842	6426
3093.648	6507
3095.452	6556
3097.257	6607
3099.06	6363
3100.863	6373
3102.666	6539
3104.47	6516
3106.272	6463
3108.073	6336
3109.875	6396
3111.676	6371
3113.477	6414
3115.277	6379
3117.077	6403
3118.874	6403
3120.673	6431
3122.473	6436
3124.271	6427
3126.066	6394
3127.863	6389
3129.66	6196
3131.456	6395
3133.252	6321
3135.047	6342
3136.842	6370
3138.635	6257
3140.429	6275
3142.223	6253
3144.016	6357
3145.808	6220
3147.6	6415
3149.392	6385
3151.183	6277
3152.975	6342
3154.765	6312
3156.553	6333
3158.344	6267
3160.132	6259
3161.922	6143
3163.71	6305
3165.497	6226
3167.285	6346
3169.071	6266
3170.858	6235
3172.645	6269
3174.429	6258
3176.214	6302
3177.998	6269
3179.783	6219
3181.568	6165
3183.351	6245
3185.133	6208
3186.915	6176
3188.698	6201
3190.481	6220
3192.261	6252
3194.042	6141
3195.822	6176
3197.601	6289
3199.381	6060
3201.161	6181
3202.939	6188
3204.717	6121
3206.495	6132
3208.272	6180
3210.05	6238
3211.826	6177
3213.602	6171
3215.376	6105
3217.151	6181
3218.927	6141
3220.702	6224
3222.476	6054
3224.249	6240
3226.021	6103
3227.793	6169
3229.567	6212
3231.339	6155
3233.109	6148
3234.88	6069
3236.651	6184
3238.421	6164
3240.191	6219
3241.96	6081
3243.728	6158
3245.497	6138
3247.263	6234
3249.033	6127
3250.799	6191
3252.566	6229
3254.331	6112
3256.097	6081
3257.863	6197
3259.628	6051
3261.392	6132
3263.156	6145
3264.919	6103
3266.683	6116
3268.447	6162
3270.208	6155
3271.969	6091
3273.731	6182
3275.492	6134
3277.253	6201
3279.013	6098
3280.773	6120
3282.532	6241
3284.291	6127
3286.05	6110
3287.808	6011
3289.566	6065
3291.323	6144
3293.079	6194
3294.835	6114
3296.593	6158
3298.348	6108
3300.102	6131
3301.857	6196
3303.611	6082
3305.366	6017
3307.119	6114
3308.872	6131
3310.624	6138
3312.376	6179
3314.129	6032
3315.881	6092
3317.631	6045
3319.38	6013
3321.13	6035
3322.88	6137
3324.631	6157
3326.379	6137
3328.126	6140
3329.875	6005
3331.622	6109
3333.371	6097
3335.116	6193
3336.863	6090
3338.609	6022
3340.353	6038
3342.1	5893
3343.845	6041
3345.588	5997
3347.332	6007
3349.074	5982
3350.817	5974
3352.56	5941
3354.303	5951
3356.043	6042
3357.785	5981
3359.525	5864
3361.268	6056
3363.007	5993
3364.745	5916
3366.485	5926
3368.223	6041
3369.962	5901
3371.701	6028
3373.438	5910
3375.174	5893
3376.911	6016
3378.647	5968
3380.384	5918
3382.118	5933
3383.854	5857
3385.588	5920
3387.322	5903
3389.057	5899
3390.79	5889
3392.522	5914
3394.255	5879
3395.987	5810
3397.719	5834
3399.451	5875
3401.181	5840
3402.911	5888
3404.641	5781
3406.371	5818
3408.101	5882
3409.83	5887
3411.558	5765
3413.285	5863
3415.011	5827
3416.739	5817
3418.467	5854
3420.193	5844
3421.919	5965
3423.644	5866
3425.368	5803
3427.094	5750
3428.818	5782
3430.542	5816
3432.264	5807
3433.987	5927
3435.712	5849
3437.434	5780
3439.155	5861
3440.876	5828
3442.596	5717
3444.317	5741
3446.039	5799
3447.757	5789
3449.477	5783
3451.195	5752
3452.914	5839
3454.632	5774
3456.35	5715
3458.067	5717
3459.784	5590
3461.5	5750
3463.216	5694
3464.932	5752
3466.647	5648
3468.362	5629
3470.076	5849
3471.789	5647
3473.505	5770
3475.217	5684
3476.929	5685
3478.641	5640
3480.354	5568
3482.066	5637
3483.777	5665
3485.487	5539
3487.197	5595
3488.908	5571
3490.617	5605
3492.327	5565
3494.035	5558
3495.743	5639
3497.451	5522
3499.158	5531
3500.866	5620
3502.572	5472
3504.278	5490
3505.984	5577
3507.689	5604
3509.396	5611
3511.1	5471
3512.804	5562
3514.508	5485
3516.211	5520
3517.913	5466
3519.616	5510
3521.319	5492
3523.021	5553
3524.722	5439
3526.422	5400
3528.124	5511
3529.824	5452
3531.524	5515
3533.222	5509
3534.921	5535
3536.62	5431
3538.318	5394
3540.016	5395
3541.714	5369
3543.41	5446
3545.107	5550
3546.803	5454
3548.5	5426
3550.194	5327
3551.889	5545
3553.583	5494
3555.279	5426
3556.972	5400
3558.666	5376
3560.358	5374
3562.051	5369
3563.742	5369
3565.435	5383
3567.126	5321
3568.817	5396
3570.507	5407
3572.197	5428
3573.888	5346
3575.577	5393
3577.265	5354
3578.954	5343
3580.642	5369
3582.329	5328
3584.017	5189
3585.704	5360
3587.391	5327
3589.077	5275
3590.762	5270
3592.449	5320
3594.133	5274
3595.817	5244
3597.501	5275
3599.185	5353
3600.869	5258
3602.552	5358
3604.234	5277
3605.916	5305
3607.598	5236
3609.279	5224
3610.961	5341
3612.642	5157
3614.321	5212
3616	5197
3617.68	5154
3619.36	5214
3621.039	5228
3622.716	5128
3624.394	5318
3626.071	5079
3627.748	5159
3629.425	5231
3631.102	5117
3632.778	5179
3634.452	5176
3636.127	5105
3637.803	5160
3639.477	5085
3641.151	5136
3642.823	5076
3644.497	5156
3646.171	5038
3647.842	5146
3649.515	5042
3651.185	5070
3652.857	5059
3654.527	5161
3656.198	5012
3657.868	5047
3659.537	5058
3661.207	5079
3662.875	5058
3664.544	5072
3666.212	5115
3667.879	4998
3669.546	4966
3671.212	4986
3672.88	5090
3674.546	5049
3676.211	5009
3677.875	5065
3679.541	5066
3681.205	5003
3682.87	5019
3684.533	4938
3686.196	5100
3687.859	4959
3689.521	5055
3691.184	4990
3692.845	4943
3694.507	4888
3696.167	4999
3697.827	5005
3699.487	4940
3701.148	4963
3702.808	5011
3704.466	4940
3706.125	5041
3707.783	4929
3709.442	4927
3711.099	5020
3712.757	5091
3714.412	4996
3716.068	4900
3717.725	5003
3719.381	4918
3721.036	4993
3722.689	5028
3724.344	4876
3725.998	4792
3727.652	4961
3729.305	4867
3730.958	4884
3732.61	4948
3734.262	4922
3735.915	4997
3737.565	4850
3739.217	4844
3740.866	4834
3742.516	5002
3744.165	4931
3745.816	4938
3747.464	4894
3749.113	4798
3750.761	4804
3752.409	4822
3754.057	4993
3755.703	4859
3757.35	4816
3758.996	4901
3760.641	4864
3762.289	4897
3763.933	4865
3765.577	4808
3767.222	4779
3768.865	4891
3770.508	4694
3772.152	4747
3773.796	4815
3775.438	4857
3777.079	4671
3778.721	4705
3780.363	4868
3782.003	4746
3783.643	4823
3785.283	4677
3786.923	4783
3788.563	4755
3790.203	4797
3791.841	4681
3793.479	4799
3795.115	4766
3796.753	4777
3798.391	4851
3800.027	4714
3801.664	4743
3803.299	4716
3804.935	4701
3806.571	4679
3808.206	4607
3809.839	4755
3811.473	4654
3813.107	4548
3814.74	4705
3816.375	4754
3818.006	4769
3819.638	4606
3821.27	4655
3822.9	4673
3824.532	4749
3826.163	4670
3827.792	4703
3829.423	4664
3831.051	4635
3832.682	4588
3834.311	4603
3835.938	4654
3837.566	4649
3839.193	4591
3840.821	4658
3842.448	4635
3844.075	4600
3845.7	4666
3847.325	4620
3848.951	4649
3850.576	4603
3852.201	4620
3853.825	4591
3855.448	4597
3857.072	4558
3858.694	4602
3860.318	4590
3861.939	4538
3863.562	4611
3865.183	4597
3866.804	4556
3868.426	4507
3870.045	4558
3871.666	4581
3873.285	4589
3874.904	4562
3876.524	4495
3878.142	4586
3879.76	4398
3881.378	4619
3882.995	4552
3884.612	4562
3886.229	4457
3887.845	4560
3889.461	4552
3891.076	4463
3892.691	4572
3894.307	4559
3895.922	4499
3897.536	4670
3899.149	4515
3900.761	4503
3902.374	4534
3903.988	4449
3905.6	4493
3907.212	4494
3908.822	4460
3910.433	4499
3912.045	4556
3913.655	4504
3915.265	4432
3916.875	4466
3918.483	4455
3920.093	4428
3921.702	4494
3923.309	4491
3924.917	4473
3926.523	4438
3928.13	4466
3929.739	4517
3931.344	4397
3932.95	4459
3934.555	4416
3936.159	4507
3937.766	4402
3939.369	4431
3940.974	4482
3942.577	4368
3944.181	4499
3945.783	4390
3947.386	4416
3948.989	4404
3950.59	4497
3952.191	4379
3953.791	4383
3955.394	4355
3956.994	4391
3958.593	4374
3960.192	4490
3961.791	4408
3963.392	4382
3964.99	4363
3966.588	4363
3968.185	4390
3969.782	4422
3971.379	4364
3972.976	4342
3974.572	4376
3976.168	4342
3977.763	4341
3979.358	4342
3980.954	4386
3982.548	4338
3984.142	4296
3985.736	4240
3987.329	4312
3988.922	4400
3990.516	4310
3992.108	4334
3993.698	4370
3995.29	4238
3996.881	4332
3998.473	4305
4000.064	4239
4001.653	4177
4003.242	4253
4004.832	4255
4006.422	4233
4008.01	4261
4009.598	4245
4011.186	4208
4012.773	4203
4014.36	4199
4015.947	4307
4017.534	4265
4019.119	4288
4020.705	4196
4022.291	4223
4023.876	4236
4025.461	4202
4027.044	4157
4028.627	4140
4030.211	4181
4031.795	4195
4033.378	4109
4034.96	4224
4036.542	4098
4038.124	4045
4039.704	4195
4041.286	4161
4042.867	4141
4044.447	4079
4046.026	4094
4047.606	4089
4049.187	4163
4050.765	4030
4052.343	4019
4053.92	4144
4055.498	4024
4057.076	4147
4058.654	4112
4060.23	4057
4061.806	4105
4063.381	4136
4064.957	4093
4066.533	4075
4068.107	4068
4069.682	4133
4071.256	4032
4072.829	4038
4074.404	4122
4075.977	4016
4077.549	4038
4079.121	4007
4080.693	4032
4082.265	4037
4083.836	4051
4085.407	4018
4086.977	3960
4088.547	4077
4090.117	3975
4091.687	4128
4093.256	3991
4094.825	3994
4096.392	3929
4097.96	4015
4099.528	4010
4101.097	3956
4102.663	3979
4104.229	4052
4105.795	3947
4107.361	4037
4108.928	3933
4110.493	3993
4112.058	3892
4113.621	3987
4115.186	3947
4116.75	4059
4118.313	3995
4119.876	3914
4121.438	3921
4123	3889
4124.562	3949
4126.125	4018
4127.686	3864
4129.246	3947
4130.807	3832
4132.367	3854
4133.927	3949
4135.486	3959
4137.046	3823
4138.604	3866
4140.162	3879
4141.72	3906
4143.279	3860
4144.836	3860
4146.393	3918
4147.949	3837
4149.505	3843
4151.062	3860
4152.617	3811
4154.172	3871
4155.727	3881
4157.281	3806
4158.836	3894
4160.39	3893
4161.943	3842
4163.496	3886
4165.048	3821
4166.601	3838
4168.154	3868
4169.706	3779
4171.257	3798
4172.808	3830
4174.358	3842
4175.909	3794
4177.458	3794
4179.008	3741
4180.558	3733
4182.106	3761
4183.655	3758
4185.204	3753
4186.751	3789
4188.298	3732
4189.845	3710
4191.392	3778
4192.939	3693
4194.485	3786
4196.031	3721
4197.576	3806
4199.121	3749
4200.666	3875
4202.211	3785
4203.754	3765
4205.298	3698
4206.84	3772
4208.384	3795
4209.927	3747
4211.47	3761
4213.011	3711
4214.552	3620
4216.094	3712
4217.635	3642
4219.175	3726
4220.716	3680
4222.255	3655
4223.793	3665
4225.335	3720
4226.873	3680
4228.411	3743
4229.948	3689
4231.486	3643
4233.024	3732
4234.562	3687
4236.098	3776
4237.634	3695
4239.169	3716
4240.705	3654
4242.241	3694
4243.776	3702
4245.31	3703
4246.844	3655
4248.378	3604
4249.911	3653
4251.445	3775
4252.978	3626
4254.51	3611
4256.042	3599
4257.574	3635
4259.107	3596
4260.638	3528
4262.169	3634
4263.699	3624
4265.228	3689
4266.759	3670
4268.289	3624
4269.818	3581
4271.345	3607
4272.874	3570
4274.402	3566
4275.931	3587
4277.458	3626
4278.985	3599
4280.512	3608
4282.037	3474
4283.564	3602
4285.089	3541
4286.615	3549
4288.139	3643
4289.664	3507
4291.187	3538
4292.712	3528
4294.235	3525
4295.759	3481
4297.281	3541
4298.804	3513
4300.327	3510
4301.849	3534
4303.37	3547
4304.891	3535
4306.412	3502
4307.933	3519
4309.453	3465
4310.973	3471
4312.492	3558
