398.1873	2924
400.7097	2973
403.2336	2918
405.7547	2951
408.2751	2966
410.7948	2961
413.3138	3011
415.83	2982
418.3497	3042
420.8666	2992
423.3829	3067
425.8985	3041
428.4133	3128
430.9275	3071
433.441	3108
435.9538	3124
438.4639	3141
440.9753	3035
443.4881	3056
445.9982	3162
448.5055	3169
451.0142	3070
453.5201	3081
456.0274	3110
458.5361	3054
461.04	3049
463.5453	3166
466.0478	3111
468.5517	3189
471.0549	3082
473.5574	3137
476.0572	3153
478.5584	3154
481.0568	3177
483.5545	3165
486.0557	3155
488.5521	3209
491.0478	3137
493.5449	3142
496.0392	3211
498.5349	3198
501.0299	3246
503.5222	3171
506.0139	3197
508.5048	3271
510.9991	3223
513.4887	3215
515.9777	3242
518.4659	3174
520.9534	3323
523.4403	3314
525.9306	3256
528.4161	3284
530.9009	3255
533.3851	3257
535.8687	3174
538.3535	3185
540.8356	3232
543.3171	3208
545.7979	3238
548.278	3223
550.7595	3305
553.2383	3277
555.7144	3259
558.1918	3258
560.6685	3271
563.1446	3306
565.6221	3289
568.0968	3274
570.5688	3338
573.0422	3347
575.515	3342
577.989	3321
580.4584	3369
582.9291	3381
585.3991	3364
587.8685	3393
590.3352	3414
592.8052	3343
595.2706	3324
597.7372	3358
600.2033	3374
602.6666	3391
605.1334	3398
607.5953	3315
610.0587	3350
612.5193	3381
614.9814	3392
617.4427	3371
619.9034	3272
622.3615	3407
624.8208	3380
627.2775	3358
629.7335	3412
632.1929	3301
634.6476	3401
637.1016	3266
639.5569	3343
642.0096	3344
644.4637	3318
646.9151	3299
649.3678	3427
651.8179	3315
654.2672	3384
656.7159	3359
659.166	3311
661.6154	3347
664.0622	3407
666.5082	3399
668.9537	3400
671.4005	3435
673.8445	3379
676.288	3439
678.7308	3471
681.1729	3408
683.6163	3453
686.0572	3406
688.4973	3440
690.9368	3454
693.3757	3396
695.8138	3513
698.2534	3460
700.6902	3478
703.1245	3467
705.56	3495
707.9949	3481
710.4311	3475
712.8647	3526
715.2957	3494
717.7279	3530
720.1595	3528
722.5905	3556
725.0208	3524
727.4505	3484
729.8795	3549
732.3058	3579
734.7336	3551
737.1626	3514
739.587	3599
742.0128	3573
744.4359	3528
746.8604	3598
749.2841	3568
751.7073	3628
754.1278	3612
756.5496	3693
758.9688	3613
761.3893	3664
763.8093	3684
766.2285	3616
768.6451	3613
771.0611	3638
773.4784	3636
775.895	3692
778.3091	3655
780.7244	3691
783.1371	3739
785.5493	3652
787.9626	3715
790.3754	3710
792.7856	3653
795.1951	3692
797.6039	3562
800.0121	3668
802.4236	3776
804.8306	3692
807.2369	3719
809.6425	3649
812.0475	3711
814.4538	3703
816.8575	3735
819.2606	3767
821.663	3725
824.0648	3762
826.4659	3668
828.8683	3697
831.2682	3762
833.6674	3735
836.066	3757
838.4639	3799
840.8632	3737
843.2579	3751
845.6539	3758
848.0493	3762
850.444	3749
852.84	3794
855.2315	3762
857.6243	3839
860.0165	3693
862.4081	3745
864.797	3793
867.1892	3776
869.5789	3770
871.9659	3772
874.3542	3833
876.74	3895
879.129	3814
881.5155	3793
883.8994	3824
886.2845	3734
888.6671	3699
891.051	3784
893.4343	3704
895.8169	3811
898.197	3775
900.5783	3813
902.9571	3754
905.3372	3815
907.7167	3843
910.0936	3827
912.4698	3883
914.8474	3920
917.2244	3849
919.5987	3925
921.9744	3917
924.3475	4033
926.72	3947
929.0918	3891
931.4669	3949
933.8375	4014
936.2074	3942
938.5767	3991
940.9454	4066
943.3154	4112
945.6829	4173
948.0497	4155
950.4178	4365
952.7833	4405
955.1483	4601
957.5145	4716
959.8782	4759
962.2412	4756
964.6036	4759
966.9655	4550
969.3266	4398
971.6871	4164
974.0471	4125
976.4064	4116
978.765	4007
981.125	3971
983.4824	4007
985.8373	3895
988.1935	3930
990.549	3926
992.9039	3897
995.2602	4058
997.6119	3927
999.965	3948
1002.317	4049
1004.667	3958
1007.02	3946
1009.371	3962
1011.719	3943
1014.068	3938
1016.415	3934
1018.765	3946
1021.111	3925
1023.458	3979
1025.804	3932
1028.147	4045
1030.49	4023
1032.837	4046
1035.179	4146
1037.522	4055
1039.862	3983
1042.204	4018
1044.546	4054
1046.884	4086
1049.224	4032
1051.562	3952
1053.899	4040
1056.237	4032
1058.575	4051
1060.91	4046
1063.244	4039
1065.58	4055
1067.913	4089
1070.248	4080
1072.579	4062
1074.911	4270
1077.242	4142
1079.572	4187
1081.905	4129
1084.234	4106
1086.562	4067
1088.89	3984
1091.217	4069
1093.544	4022
1095.871	4057
1098.197	4050
1100.521	4029
1102.845	4034
1105.169	4038
1107.491	4128
1109.814	4024
1112.135	4092
1114.456	4062
1116.776	4041
1119.096	4114
1121.415	4052
1123.734	4097
1126.052	4064
1128.369	4138
1130.686	4046
1133.002	4038
1135.318	4078
1137.632	4061
1139.945	4090
1142.258	4054
1144.573	4044
1146.884	4070
1149.196	4086
1151.505	4125
1153.816	4151
1156.124	4093
1158.435	4202
1160.742	4102
1163.051	4158
1165.356	4149
1167.663	4106
1169.97	4149
1172.276	4062
1174.579	4196
1176.881	4067
1179.186	4145
1181.487	4058
1183.79	4114
1186.092	4122
1188.392	4151
1190.691	4206
1192.991	4029
1195.291	4056
1197.588	4109
1199.885	4129
1202.181	4175
1204.479	4122
1206.775	4140
1209.07	4121
1211.363	4100
1213.656	4114
1215.949	4184
1218.241	4198
1220.534	4147
1222.825	4113
1225.115	4240
1227.405	4211
1229.693	4264
1231.984	4243
1234.271	4244
1236.558	4287
1238.845	4227
1241.131	4288
1243.416	4293
1245.703	4351
1247.987	4360
1250.269	4293
1252.552	4247
1254.834	4328
1257.118	4239
1259.399	4264
1261.678	4307
1263.958	4313
1266.237	4317
1268.516	4251
1270.794	4242
1273.072	4335
1275.347	4300
1277.624	4362
1279.899	4366
1282.175	4305
1284.449	4204
1286.722	4241
1288.995	4167
1291.266	4275
1293.54	4296
1295.81	4260
1298.081	4246
1300.35	4281
1302.62	4233
1304.889	4245
1307.156	4144
1309.425	4287
1311.69	4266
1313.957	4266
1316.222	4272
1318.488	4240
1320.751	4303
1323.016	4256
1325.278	4242
1327.54	4320
1329.803	4298
1332.065	4317
1334.325	4303
1336.584	4246
1338.843	4322
1341.101	4273
1343.36	4322
1345.617	4302
1347.876	4313
1350.131	4271
1352.387	4308
1354.643	4258
1356.897	4248
1359.151	4323
1361.403	4173
1363.656	4340
1365.909	4268
1368.16	4369
1370.409	4423
1372.659	4391
1374.909	4266
1377.157	4287
1379.407	4412
1381.655	4312
1383.9	4375
1386.147	4364
1388.393	4335
1390.64	4327
1392.885	4424
1395.127	4396
1397.37	4401
1399.614	4371
1401.854	4359
1404.098	4454
1406.339	4485
1408.578	4440
1410.818	4476
1413.056	4450
1415.297	4433
1417.533	4423
1419.771	4427
1422.006	4417
1424.243	4476
1426.479	4510
1428.715	4428
1430.948	4486
1433.182	4500
1435.414	4352
1437.647	4421
1439.88	4550
1442.11	4495
1444.342	4541
1446.571	4538
1448.799	4453
1451.029	4600
1453.258	4564
1455.485	4588
1457.711	4572
1459.937	4538
1462.164	4502
1464.39	4615
1466.614	4537
1468.838	4412
1471.06	4399
1473.283	4426
1475.506	4435
1477.727	4344
1479.949	4515
1482.169	4399
1484.389	4293
1486.609	4394
1488.828	4405
1491.045	4395
1493.261	4450
1495.477	4333
1497.693	4399
1499.91	4495
1502.125	4378
1504.339	4473
1506.553	4451
1508.766	4390
1510.979	4299
1513.191	4381
1515.402	4457
1517.613	4376
1519.823	4405
1522.033	4354
1524.242	4374
1526.451	4451
1528.657	4418
1530.865	4382
1533.072	4454
1535.278	4361
1537.484	4412
1539.687	4367
1541.892	4420
1544.096	4402
1546.299	4375
1548.502	4486
1550.703	4427
1552.905	4498
1555.104	4385
1557.303	4446
1559.505	4466
1561.703	4458
1563.902	4506
1566.099	4474
1568.295	4540
1570.494	4446
1572.689	4490
1574.883	4506
1577.079	4441
1579.272	4459
1581.467	4564
1583.659	4589
1585.853	4474
1588.044	4558
1590.234	4535
1592.424	4507
1594.615	4467
1596.806	4548
1598.994	4663
1601.182	4614
1603.369	4582
1605.557	4537
1607.744	4672
1609.929	4548
1612.114	4470
1614.298	4607
1616.482	4656
1618.667	4528
1620.85	4589
1623.032	4513
1625.214	4503
1627.395	4667
1629.575	4651
1631.755	4649
1633.935	4518
1636.114	4687
1638.292	4614
1640.471	4610
1642.647	4629
1644.823	4549
1647	4602
1649.175	4613
1651.348	4661
1653.525	4630
1655.698	4659
1657.87	4642
1660.043	4656
1662.213	4692
1664.387	4637
1666.558	4660
1668.727	4600
1670.896	4645
1673.064	4584
1675.233	4627
1677.401	4694
1679.569	4617
1681.735	4692
1683.902	4712
1686.066	4542
1688.233	4654
1690.397	4733
1692.559	4499
1694.723	4583
1696.885	4696
1699.048	4608
1701.21	4673
1703.37	4534
1705.53	4706
1707.689	4618
1709.849	4539
1712.009	4614
1714.166	4545
1716.323	4552
1718.479	4610
1720.634	4590
1722.793	4492
1724.948	4606
1727.102	4512
1729.255	4538
1731.408	4537
1733.562	4585
1735.714	4564
1737.865	4558
1740.016	4623
1742.166	4643
1744.316	4640
1746.467	4545
1748.616	4593
1750.764	4530
1752.911	4664
1755.056	4638
1757.205	4659
1759.35	4621
1761.496	4606
1763.641	4626
1765.785	4587
1767.927	4672
1770.072	4646
1772.214	4657
1774.355	4647
1776.496	4659
1778.637	4716
1780.778	4658
1782.918	4668
1785.057	4661
1787.194	4662
1789.333	4666
1791.472	4645
1793.608	4641
1795.745	4566
1797.879	4677
1800.015	4658
1802.148	4642
1804.284	4640
1806.417	4614
1808.548	4714
1810.682	4587
1812.812	4687
1814.946	4623
1817.075	4692
1819.205	4655
1821.335	4668
1823.463	4647
1825.59	4612
1827.721	4611
1829.847	4693
1831.973	4664
1834.098	4651
1836.223	4627
1838.351	4703
1840.475	4612
1842.598	4530
1844.721	4699
1846.843	4693
1848.966	4750
1851.087	4496
1853.21	4727
1855.33	4671
1857.449	4665
1859.568	4672
1861.688	4667
1863.806	4640
1865.924	4663
1868.039	4618
1870.155	4619
1872.273	4738
1874.388	4605
1876.503	4604
1878.617	4666
1880.73	4672
1882.844	4599
1884.956	4574
1887.068	4592
1889.18	4711
1891.291	4753
1893.4	4637
1895.511	4646
1897.621	4774
1899.73	4555
1901.837	4559
1903.944	4744
1906.053	4698
1908.159	4648
1910.265	4599
1912.369	4792
1914.474	4748
1916.577	4643
1918.683	4733
1920.785	4651
1922.888	4679
1924.989	4787
1927.091	4749
1929.193	4736
1931.294	4688
1933.393	4820
1935.493	4873
1937.59	4786
1939.689	4679
1941.788	4741
1943.884	4739
1945.98	4842
1948.077	4707
1950.171	4799
1952.267	4672
1954.361	4697
1956.455	4657
1958.548	4656
1960.64	4805
1962.733	4770
1964.824	4682
1966.915	4741
1969.005	4775
1971.096	4789
1973.185	4803
1975.275	4665
1977.363	4803
1979.45	4727
1981.537	4737
1983.623	4707
1985.711	4704
1987.796	4783
1989.881	4891
1991.965	4735
1994.047	4690
1996.132	4708
1998.215	4809
2000.297	4800
2002.378	4716
2004.46	4704
2006.54	4620
2008.62	4731
2010.7	4853
2012.779	4633
2014.858	4606
2016.934	4585
2019.013	4693
2021.09	4767
2023.165	4740
2025.241	4795
2027.317	4725
2029.39	4728
2031.466	4743
2033.538	4712
2035.612	4815
2037.683	4656
2039.755	4751
2041.827	4725
2043.898	4807
2045.968	4824
2048.038	4711
2050.106	4801
2052.177	4759
2054.244	4719
2056.313	4771
2058.379	4836
2060.444	4721
2062.511	4708
2064.577	4760
2066.641	4762
2068.705	4787
2070.77	4821
2072.832	4793
2074.896	4702
2076.958	4795
2079.02	4805
2081.081	4771
2083.141	4741
2085.2	4783
2087.261	4821
2089.319	4647
2091.377	4849
2093.435	4772
2095.492	4687
2097.552	4748
2099.607	4828
2101.663	4660
2103.718	4808
2105.771	4843
2107.826	4823
2109.879	4785
2111.932	4841
2113.985	4734
2116.037	4844
2118.088	4763
2120.141	4816
2122.191	4733
2124.239	4856
2126.288	4789
2128.337	4657
2130.387	4834
2132.434	4837
2134.481	4772
2136.528	4811
2138.574	4723
2140.618	4804
2142.665	4761
2144.71	4708
2146.753	4800
2148.797	4777
2150.838	4758
2152.883	4717
2154.923	4851
2156.965	4889
2159.007	4782
2161.046	4782
2163.086	4786
2165.126	4681
2167.163	4817
2169.202	4794
2171.239	4784
2173.277	4822
2175.314	4731
2177.349	4785
2179.385	4830
2181.42	4762
2183.453	4717
2185.49	4829
2187.522	4754
2189.555	4726
2191.586	4818
2193.619	4767
2195.651	4647
2197.682	4766
2199.711	4668
2201.74	4706
2203.769	4687
2205.799	4803
2207.828	4703
2209.855	4759
2211.882	4688
2213.908	4611
2215.934	4706
2217.961	4692
2219.986	4791
2222.01	4764
2224.034	4580
2226.057	4736
2228.08	4695
2230.104	4751
2232.124	4837
2234.145	4630
2236.166	4655
2238.186	4779
2240.207	4695
2242.227	4728
2244.244	4731
2246.262	4708
2248.28	4764
2250.299	4733
2252.314	4776
2254.33	4796
2256.346	4851
2258.36	4690
2260.375	4788
2262.391	4610
2264.403	4821
2266.416	4713
2268.427	4725
2270.44	4722
2272.453	4737
2274.463	4816
2276.474	4777
2278.483	4799
2280.493	4823
2282.501	4722
2284.51	4696
2286.518	4817
2288.524	4705
2290.532	4716
2292.537	4840
2294.544	4791
2296.55	4774
2298.554	4720
2300.557	4762
2302.562	4763
2304.566	4722
2306.568	4726
2308.569	4754
2310.572	4726
2312.573	4693
2314.573	4842
2316.574	4644
2318.573	4649
2320.571	4789
2322.571	4803
2324.569	4757
2326.567	4814
2328.564	4609
2330.56	4688
2332.556	4721
2334.551	4654
2336.546	4724
2338.542	4858
2340.535	4649
2342.529	4686
2344.521	4736
2346.512	4640
2348.505	4760
2350.497	4798
2352.487	4779
2354.478	4794
2356.468	4603
2358.457	4665
2360.446	4643
2362.434	4720
2364.422	4773
2366.408	4742
2368.395	4686
2370.383	4742
2372.369	4744
2374.353	4737
2376.338	4660
2378.321	4717
2380.307	4735
2382.29	4629
2384.272	4627
2386.254	4620
2388.235	4680
2390.218	4658
2392.198	4685
2394.179	4635
2396.157	4634
2398.137	4683
2400.115	4657
2402.095	4680
2404.072	4690
2406.048	4541
2408.026	4704
2410.001	4596
2411.977	4681
2413.953	4652
2415.927	4639
2417.9	4703
2419.875	4715
2421.847	4597
2423.821	4715
2425.792	4728
2427.763	4749
2429.736	4685
2431.706	4689
2433.677	4728
2435.646	4714
2437.615	4704
2439.583	4651
2441.551	4733
2443.519	4672
2445.486	4633
2447.452	4699
2449.418	4630
2451.383	4642
2453.348	4697
2455.314	4647
2457.278	4632
2459.241	4649
2461.205	4620
2463.167	4590
2465.131	4700
2467.091	4694
2469.052	4619
2471.012	4568
2472.972	4669
2474.932	4692
2476.891	4649
2478.85	4704
2480.808	4718
2482.766	4687
2484.722	4485
2486.68	4671
2488.636	4689
2490.591	4576
2492.546	4679
2494.5	4625
2496.456	4641
2498.41	4625
2500.362	4703
2502.315	4580
2504.266	4632
2506.218	4615
2508.169	4709
2510.121	4676
2512.07	4612
2514.019	4561
2515.968	4545
2517.918	4655
2519.866	4619
2521.813	4696
2523.76	4624
2525.707	4583
2527.653	4636
2529.599	4684
2531.543	4586
2533.489	4567
2535.433	4617
2537.376	4633
2539.32	4673
2541.264	4788
2543.205	4576
2545.147	4640
2547.087	4750
2549.029	4621
2550.969	4663
2552.908	4655
2554.847	4651
2556.786	4696
2558.724	4636
2560.663	4720
2562.6	4705
2564.537	4651
2566.473	4611
2568.408	4505
2570.345	4665
2572.28	4652
2574.214	4580
2576.148	4672
2578.081	4733
2580.014	4672
2581.947	4697
2583.879	4817
2585.81	4662
2587.741	4744
2589.67	4689
2591.602	4639
2593.532	4779
2595.461	4628
2597.388	4802
2599.316	4807
2601.244	4598
2603.172	4614
2605.098	4634
2607.023	4649
2608.949	4707
2610.873	4732
2612.8	4715
2614.723	4722
2616.647	4725
2618.569	4677
2620.493	4642
2622.416	4791
2624.338	4702
2626.258	4754
2628.179	4741
2630.099	4698
2632.019	4658
2633.939	4702
2635.857	4706
2637.775	4639
2639.694	4651
2641.61	4727
2643.528	4741
2645.444	4750
2647.361	4621
2649.276	4702
2651.19	4797
2653.105	4682
2655.019	4734
2656.934	4771
2658.846	4707
2660.758	4811
2662.67	4729
2664.583	4722
2666.493	4721
2668.404	4614
2670.313	4726
2672.223	4750
2674.134	4667
2676.042	4721
2677.95	4656
2679.858	4818
2681.765	4842
2683.673	4675
2685.579	4668
2687.483	4684
2689.389	4706
2691.294	4688
2693.198	4654
2695.104	4729
2697.006	4657
2698.909	4722
2700.811	4627
2702.713	4629
2704.615	4662
2706.516	4704
2708.417	4698
2710.316	4668
2712.216	4681
2714.115	4715
2716.014	4725
2717.913	4660
2719.81	4639
2721.707	4624
2723.603	4672
2725.501	4666
2727.396	4668
2729.292	4733
2731.186	4674
2733.081	4736
2734.976	4686
2736.87	4655
2738.762	4695
2740.653	4665
2742.546	4757
2744.437	4722
2746.329	4666
2748.22	4699
2750.11	4743
2751.999	4594
2753.889	4723
2755.778	4623
2757.666	4696
2759.553	4618
2761.44	4665
2763.328	4726
2765.215	4677
2767.101	4657
2768.986	4552
2770.87	4681
2772.754	4612
2774.638	4732
2776.523	4658
2778.405	4691
2780.288	4624
2782.17	4685
2784.051	4700
2785.934	4662
2787.814	4635
2789.694	4663
2791.574	4658
2793.453	4607
2795.332	4661
2797.212	4722
2799.088	4688
2800.966	4631
2802.843	4639
2804.719	4682
2806.597	4621
2808.471	4629
2810.346	4602
2812.221	4631
2814.094	4746
2815.969	4643
2817.843	4590
2819.714	4689
2821.587	4631
2823.459	4660
2825.329	4639
2827.202	4661
2829.072	4630
2830.942	4766
2832.811	4663
2834.68	4706
2836.549	4765
2838.418	4554
2840.284	4679
2842.152	4653
2844.018	4736
2845.885	4629
2847.751	4671
2849.616	4802
2851.482	4689
2853.345	4742
2855.208	4703
2857.074	4792
2858.937	4755
2860.799	4704
2862.66	4752
2864.522	4730
2866.385	4794
2868.245	4795
2870.104	4758
2871.964	4839
2873.824	4783
2875.683	4905
2877.542	4970
2879.4	4842
2881.257	4874
2883.114	4954
2884.97	4975
2886.827	4992
2888.683	4976
2890.537	4956
2892.392	4950
2894.246	4788
2896.1	4879
2897.954	4944
2899.807	5028
2901.66	5025
2903.51	4945
2905.362	4830
2907.214	4898
2909.065	4980
2910.915	4892
2912.765	5007
2914.613	4909
2916.463	5049
2918.311	5134
2920.158	5065
2922.006	5151
2923.853	5122
2925.698	5155
2927.546	5175
2929.392	5159
2931.236	5081
2933.081	5234
2934.924	5260
2936.77	5276
2938.613	5365
2940.455	5398
2942.298	5244
2944.139	5263
2945.982	5441
2947.823	5388
2949.662	5380
2951.503	5275
2953.342	5218
2955.182	5332
2957.021	5249
2958.858	5251
2960.697	5094
2962.534	5129
2964.37	5241
2966.207	5030
2968.044	5015
2969.879	5015
2971.714	5042
2973.548	4969
2975.383	5091
2977.218	5021
2979.051	4997
2980.883	4976
2982.715	4982
2984.547	5003
2986.379	5006
2988.21	4925
2990.04	4907
2991.87	4975
2993.7	4842
2995.53	4865
2997.359	4830
2999.187	4817
3001.015	4840
3002.842	4781
3004.669	4804
3006.497	4767
3008.323	4802
3010.148	4726
3011.974	4689
3013.797	4615
3015.623	4595
3017.447	4699
3019.27	4504
3021.094	4687
3022.915	4581
3024.737	4613
3026.56	4645
3028.38	4555
3030.201	4599
3032.022	4550
3033.84	4535
3035.662	4539
3037.481	4621
3039.298	4567
3041.117	4457
3042.933	4510
3044.752	4544
3046.568	4477
3048.385	4542
3050.2	4541
3052.016	4577
3053.83	4515
3055.646	4560
3057.46	4534
3059.272	4539
3061.086	4550
3062.898	4473
3064.711	4485
3066.524	4569
3068.335	4482
3070.145	4586
3071.956	4561
3073.766	4573
3075.576	4550
3077.385	4523
3079.193	4475
3081.002	4496
3082.81	4459
3084.618	4466
3086.425	4498
3088.231	4505
3090.036	4487
3091.842	4578
3093.648	4356
3095.452	4465
3097.257	4473
3099.06	4432
3100.863	4351
3102.666	4466
3104.47	4493
3106.272	4441
3108.073	4511
3109.875	4389
3111.676	4466
3113.477	4415
3115.277	4450
3117.077	4308
3118.874	4411
3120.673	4426
3122.473	4396
3124.271	4400
3126.066	4349
3127.863	4292
3129.66	4425
3131.456	4409
3133.252	4299
3135.047	4372
3136.842	4399
3138.635	4308
3140.429	4322
3142.223	4394
3144.016	4242
3145.808	4417
3147.6	4409
3149.392	4403
3151.183	4371
3152.975	4281
3154.765	4376
3156.553	4352
3158.344	4384
3160.132	4283
3161.922	4262
3163.71	4441
3165.497	4357
3167.285	4296
3169.071	4394
3170.858	4404
3172.645	4341
3174.429	4342
3176.214	4322
3177.998	4283
3179.783	4369
3181.568	4358
3183.351	4343
3185.133	4393
3186.915	4281
3188.698	4333
3190.481	4401
3192.261	4257
3194.042	4306
3195.822	4326
3197.601	4268
3199.381	4278
3201.161	4329
3202.939	4353
3204.717	4280
3206.495	4302
3208.272	4329
3210.05	4282
3211.826	4334
3213.602	4325
3215.376	4273
3217.151	4391
3218.927	4299
3220.702	4146
3222.476	4304
3224.249	4343
3226.021	4240
3227.793	4312
3229.567	4435
3231.339	4324
3233.109	4337
3234.88	4290
3236.651	4322
3238.421	4299
3240.191	4364
3241.96	4352
3243.728	4313
3245.497	4263
3247.263	4349
3249.033	4231
3250.799	4244
3252.566	4360
3254.331	4371
3256.097	4317
3257.863	4318
3259.628	4255
3261.392	4282
3263.156	4354
3264.919	4261
3266.683	4246
3268.447	4265
3270.208	4246
3271.969	4305
3273.731	4340
3275.492	4257
3277.253	4338
3279.013	4356
3280.773	4253
3282.532	4338
3284.291	4382
3286.05	4353
3287.808	4250
3289.566	4309
3291.323	4261
3293.079	4283
3294.835	4234
3296.593	4292
3298.348	4299
3300.102	4384
3301.857	4241
3303.611	4394
3305.366	4242
3307.119	4244
3308.872	4254
3310.624	4323
3312.376	4352
3314.129	4199
3315.881	4327
3317.631	4278
3319.38	4347
3321.13	4310
3322.88	4296
3324.631	4305
3326.379	4259
3328.126	4304
3329.875	4229
3331.622	4215
3333.371	4318
3335.116	4381
3336.863	4291
3338.609	4280
3340.353	4281
3342.1	4244
3343.845	4263
3345.588	4263
3347.332	4248
3349.074	4293
3350.817	4377
3352.56	4254
3354.303	4200
3356.043	4325
3357.785	4285
3359.525	4277
3361.268	4240
3363.007	4352
3364.745	4198
3366.485	4312
3368.223	4231
3369.962	4227
3371.701	4265
3373.438	4330
3375.174	4200
3376.911	4253
3378.647	4301
3380.384	4279
3382.118	4190
3383.854	4206
3385.588	4232
3387.322	4177
3389.057	4266
3390.79	4197
3392.522	4156
3394.255	4240
3395.987	4210
3397.719	4271
3399.451	4227
3401.181	4241
3402.911	4196
3404.641	4228
3406.371	4198
3408.101	4289
3409.83	4160
3411.558	4201
3413.285	4230
3415.011	4173
3416.739	4262
3418.467	4216
3420.193	4138
3421.919	4181
3423.644	4313
3425.368	4177
3427.094	4194
3428.818	4143
3430.542	4110
3432.264	4187
3433.987	4147
3435.712	4217
3437.434	4141
3439.155	4177
3440.876	4133
3442.596	4218
3444.317	4110
3446.039	4254
3447.757	4200
3449.477	4148
3451.195	4136
3452.914	4144
3454.632	4056
3456.35	4054
3458.067	4204
3459.784	4168
3461.5	4122
3463.216	4026
3464.932	4089
3466.647	4134
3468.362	4056
3470.076	4101
3471.789	4108
3473.505	4068
3475.217	4115
3476.929	4146
3478.641	4018
3480.354	3987
3482.066	4099
3483.777	4045
3485.487	4042
3487.197	4038
3488.908	4030
3490.617	4028
3492.327	4037
3494.035	3981
3495.743	4008
3497.451	4011
3499.158	4070
3500.866	4096
3502.572	3942
3504.278	4115
3505.984	4018
3507.689	4005
3509.396	4026
3511.1	4019
3512.804	4031
3514.508	3966
3516.211	4024
3517.913	4012
3519.616	4032
3521.319	4054
3523.021	3897
3524.722	4068
3526.422	4018
3528.124	3999
3529.824	4074
3531.524	3867
3533.222	3980
3534.921	3902
3536.62	4045
3538.318	3997
3540.016	3871
3541.714	3987
3543.41	3986
3545.107	3988
3546.803	3955
3548.5	3946
3550.194	3928
3551.889	3986
3553.583	4040
3555.279	3962
3556.972	4032
3558.666	3930
3560.358	3939
3562.051	3984
3563.742	3968
3565.435	3825
3567.126	3927
3568.817	4002
3570.507	3970
3572.197	3968
3573.888	3928
3575.577	3887
3577.265	3930
3578.954	3920
3580.642	3864
3582.329	3900
3584.017	3927
3585.704	3975
3587.391	3827
3589.077	3916
3590.762	3971
3592.449	3924
3594.133	3865
3595.817	3909
3597.501	3888
3599.185	3946
3600.869	3874
3602.552	3922
3604.234	3973
3605.916	3955
3607.598	3849
3609.279	3841
3610.961	3888
3612.642	3816
3614.321	3886
3616	3769
3617.68	3783
3619.36	3867
3621.039	3869
3622.716	3862
3624.394	3888
3626.071	3767
3627.748	3776
3629.425	3772
3631.102	3778
3632.778	3739
3634.452	3815
3636.127	3903
3637.803	3819
3639.477	3780
3641.151	3834
3642.823	3824
3644.497	3818
3646.171	3806
3647.842	3848
3649.515	3737
3651.185	3736
3652.857	3848
3654.527	3752
3656.198	3738
3657.868	3765
3659.537	3755
3661.207	3708
3662.875	3693
3664.544	3759
3666.212	3770
3667.879	3781
3669.546	3708
3671.212	3667
3672.88	3822
3674.546	3692
3676.211	3758
3677.875	3768
3679.541	3749
3681.205	3737
3682.87	3679
3684.533	3706
3686.196	3712
3687.859	3701
3689.521	3764
3691.184	3627
3692.845	3669
3694.507	3753
3696.167	3781
3697.827	3736
3699.487	3719
3701.148	3711
3702.808	3712
3704.466	3779
3706.125	3704
3707.783	3761
3709.442	3697
3711.099	3671
3712.757	3682
3714.412	3746
3716.068	3656
3717.725	3741
3719.381	3694
3721.036	3679
3722.689	3683
3724.344	3659
3725.998	3647
3727.652	3760
3729.305	3734
3730.958	3682
3732.61	3713
3734.262	3696
3735.915	3738
3737.565	3736
3739.217	3642
3740.866	3665
3742.516	3661
3744.165	3732
3745.816	3623
3747.464	3671
3749.113	3615
3750.761	3687
3752.409	3694
3754.057	3637
3755.703	3669
3757.35	3652
3758.996	3689
3760.641	3646
3762.289	3634
3763.933	3613
3765.577	3720
3767.222	3643
3768.865	3619
3770.508	3640
3772.152	3653
3773.796	3611
3775.438	3650
3777.079	3612
3778.721	3572
3780.363	3686
3782.003	3641
3783.643	3629
3785.283	3539
3786.923	3574
3788.563	3568
3790.203	3505
3791.841	3547
3793.479	3561
3795.115	3579
3796.753	3616
3798.391	3588
3800.027	3643
3801.664	3629
3803.299	3553
3804.935	3567
3806.571	3530
3808.206	3599
3809.839	3541
3811.473	3574
3813.107	3527
3814.74	3589
3816.375	3620
3818.006	3539
3819.638	3561
3821.27	3496
3822.9	3540
3824.532	3545
3826.163	3482
3827.792	3500
3829.423	3551
3831.051	3555
3832.682	3538
3834.311	3443
3835.938	3556
3837.566	3516
3839.193	3508
3840.821	3489
3842.448	3470
3844.075	3506
3845.7	3529
3847.325	3464
3848.951	3517
3850.576	3515
3852.201	3572
3853.825	3424
3855.448	3514
3857.072	3493
3858.694	3487
3860.318	3371
3861.939	3488
3863.562	3465
3865.183	3565
3866.804	3412
3868.426	3443
3870.045	3440
3871.666	3535
3873.285	3501
3874.904	3517
3876.524	3462
3878.142	3450
3879.76	3480
3881.378	3513
3882.995	3480
3884.612	3472
3886.229	3506
3887.845	3489
3889.461	3512
3891.076	3429
3892.691	3416
3894.307	3505
3895.922	3471
3897.536	3416
3899.149	3498
3900.761	3498
3902.374	3427
3903.988	3460
3905.6	3489
3907.212	3448
3908.822	3472
3910.433	3426
3912.045	3458
3913.655	3412
3915.265	3508
3916.875	3490
3918.483	3467
3920.093	3506
3921.702	3467
3923.309	3440
3924.917	3388
3926.523	3468
3928.13	3524
3929.739	3424
3931.344	3362
3932.95	3431
3934.555	3394
3936.159	3435
3937.766	3442
3939.369	3440
3940.974	3468
3942.577	3384
3944.181	3545
3945.783	3399
3947.386	3465
3948.989	3440
3950.59	3421
3952.191	3447
3953.791	3435
3955.394	3361
3956.994	3493
3958.593	3474
3960.192	3390
3961.791	3386
3963.392	3382
3964.99	3423
3966.588	3409
3968.185	3358
3969.782	3387
3971.379	3327
3972.976	3416
3974.572	3357
3976.168	3299
3977.763	3419
3979.358	3417
3980.954	3340
3982.548	3427
3984.142	3410
3985.736	3364
3987.329	3325
3988.922	3437
3990.516	3342
3992.108	3402
3993.698	3364
3995.29	3318
3996.881	3351
3998.473	3302
4000.064	3340
4001.653	3327
4003.242	3265
4004.832	3365
4006.422	3257
4008.01	3436
4009.598	3271
4011.186	3312
4012.773	3256
4014.36	3390
4015.947	3357
4017.534	3269
4019.119	3285
4020.705	3306
4022.291	3246
4023.876	3251
4025.461	3233
4027.044	3214
4028.627	3314
4030.211	3314
4031.795	3249
4033.378	3283
4034.96	3286
4036.542	3296
4038.124	3225
4039.704	3203
4041.286	3265
4042.867	3277
4044.447	3311
4046.026	3250
4047.606	3232
4049.187	3302
4050.765	3232
4052.343	3227
4053.92	3297
4055.498	3224
4057.076	3262
4058.654	3246
4060.23	3225
4061.806	3185
4063.381	3325
4064.957	3236
4066.533	3200
4068.107	3140
4069.682	3211
4071.256	3161
4072.829	3188
4074.404	3184
4075.977	3231
4077.549	3252
4079.121	3243
4080.693	3286
4082.265	3188
4083.836	3239
4085.407	3215
4086.977	3173
4088.547	3192
4090.117	3190
4091.687	3160
4093.256	3249
4094.825	3176
4096.392	3200
4097.96	3161
4099.528	3185
4101.097	3150
4102.663	3192
4104.229	3159
4105.795	3180
4107.361	3190
4108.928	3128
4110.493	3214
4112.058	3174
4113.621	3161
4115.186	3214
4116.75	3158
4118.313	3137
4119.876	3168
4121.438	3208
4123	3136
4124.562	3215
4126.125	3133
4127.686	3160
4129.246	3150
4130.807	3107
4132.367	3219
4133.927	3066
4135.486	3145
4137.046	3146
4138.604	3183
4140.162	3149
4141.72	3063
4143.279	3177
4144.836	3127
4146.393	3173
4147.949	3114
4149.505	3095
4151.062	3203
4152.617	3137
4154.172	3067
4155.727	3081
4157.281	3148
4158.836	3102
4160.39	3169
4161.943	3097
4163.496	3014
4165.048	3072
4166.601	3045
4168.154	3116
4169.706	3085
4171.257	3116
4172.808	3104
4174.358	3038
4175.909	3067
4177.458	3071
4179.008	3065
4180.558	3101
4182.106	3094
4183.655	3053
4185.204	3009
4186.751	3069
4188.298	3043
4189.845	3106
4191.392	2998
4192.939	3044
4194.485	3005
4196.031	3091
4197.576	3017
4199.121	3065
4200.666	2949
4202.211	3015
4203.754	3079
4205.298	3018
4206.84	2979
4208.384	3055
4209.927	3009
4211.47	3062
4213.011	3038
4214.552	2966
4216.094	3038
4217.635	2993
4219.175	3007
4220.716	3049
4222.255	3020
4223.793	3000
4225.335	2951
4226.873	2994
4228.411	2976
4229.948	3002
4231.486	3000
4233.024	3027
4234.562	3045
4236.098	2989
4237.634	3008
4239.169	2990
4240.705	3058
4242.241	3025
4243.776	2925
4245.31	2964
4246.844	2974
4248.378	2988
4249.911	2965
4251.445	2988
4252.978	2989
4254.51	3002
4256.042	2969
4257.574	2988
4259.107	2938
4260.638	2958
4262.169	3000
4263.699	3001
4265.228	2980
4266.759	2950
4268.289	2983
4269.818	2939
4271.345	2901
4272.874	2985
4274.402	2903
4275.931	2983
4277.458	2980
4278.985	2928
4280.512	2922
4282.037	2904
4283.564	2907
4285.089	2965
4286.615	2926
4288.139	2936
4289.664	2919
4291.187	2920
4292.712	2910
4294.235	2863
4295.759	2918
4297.281	2989
4298.804	2954
4300.327	2919
4301.849	2913
4303.37	2899
4304.891	2940
4306.412	2885
4307.933	2935
4309.453	2872
4310.973	2845
4312.492	2962
