398.1873	4340
400.7097	4221
403.2336	4356
405.7547	4289
408.2751	4309
410.7948	4386
413.3138	4349
415.83	4372
418.3497	4472
420.8666	4528
423.3829	4503
425.8985	4636
428.4133	4613
430.9275	4689
433.441	4656
435.9538	4649
438.4639	4559
440.9753	4555
443.4881	4652
445.9982	4654
448.5055	4663
451.0142	4609
453.5201	4554
456.0274	4557
458.5361	4523
461.04	4632
463.5453	4603
466.0478	4631
468.5517	4608
471.0549	4643
473.5574	4600
476.0572	4630
478.5584	4659
481.0568	4586
483.5545	4634
486.0557	4615
488.5521	4589
491.0478	4658
493.5449	4642
496.0392	4669
498.5349	4648
501.0299	4797
503.5222	4724
506.0139	4655
508.5048	4725
510.9991	4668
513.4887	4814
515.9777	4682
518.4659	4705
520.9534	4735
523.4403	4808
525.9306	4811
528.4161	4672
530.9009	4701
533.3851	4809
535.8687	4850
538.3535	4764
540.8356	4755
543.3171	4739
545.7979	4741
548.278	4650
550.7595	4837
553.2383	4795
555.7144	4810
558.1918	4866
560.6685	4852
563.1446	4790
565.6221	4834
568.0968	4834
570.5688	4881
573.0422	4845
575.515	5013
577.989	5008
580.4584	5013
582.9291	5020
585.3991	5016
587.8685	4989
590.3352	5009
592.8052	5050
595.2706	5017
597.7372	4947
600.2033	4962
602.6666	5037
605.1334	4950
607.5953	4913
610.0587	5009
612.5193	4965
614.9814	4952
617.4427	5035
619.9034	4838
622.3615	4959
624.8208	4910
627.2775	4850
629.7335	4954
632.1929	4996
634.6476	4909
637.1016	4914
639.5569	4900
642.0096	4905
644.4637	4897
646.9151	4935
649.3678	5084
651.8179	4939
654.2672	4847
656.7159	4994
659.166	4914
661.6154	5058
664.0622	5012
666.5082	5184
668.9537	5050
671.4005	5033
673.8445	5070
676.288	5093
678.7308	5112
681.1729	5113
683.6163	5053
686.0572	5018
688.4973	5130
690.9368	5181
693.3757	5122
695.8138	5128
698.2534	5081
700.6902	5148
703.1245	5135
705.56	5076
707.9949	5136
710.4311	5153
712.8647	5086
715.2957	5075
717.7279	5256
720.1595	5180
722.5905	5263
725.0208	5184
727.4505	5190
729.8795	5218
732.3058	5355
734.7336	5326
737.1626	5345
739.587	5203
742.0128	5278
744.4359	5345
746.8604	5459
749.2841	5442
751.7073	5373
754.1278	5367
756.5496	5441
758.9688	5410
761.3893	5440
763.8093	5481
766.2285	5503
768.6451	5498
771.0611	5490
773.4784	5419
775.895	5575
778.3091	5514
780.7244	5472
783.1371	5369
785.5493	5299
787.9626	5519
790.3754	5451
792.7856	5471
795.1951	5501
797.6039	5495
800.0121	5386
802.4236	5559
804.8306	5401
807.2369	5564
809.6425	5542
812.0475	5575
814.4538	5570
816.8575	5479
819.2606	5565
821.663	5478
824.0648	5445
826.4659	5571
828.8683	5536
831.2682	5547
833.6674	5495
836.066	5630
838.4639	5489
840.8632	5597
843.2579	5639
845.6539	5560
848.0493	5709
850.444	5590
852.84	5613
855.2315	5783
857.6243	5715
860.0165	5642
862.4081	5701
864.797	5519
867.1892	5596
869.5789	5618
871.9659	5675
874.3542	5614
876.74	5602
879.129	5625
881.5155	5652
883.8994	5622
886.2845	5606
888.6671	5707
891.051	5667
893.4343	5610
895.8169	5578
898.197	5636
900.5783	5589
902.9571	5470
905.3372	5603
907.7167	5716
910.0936	5617
912.4698	5663
914.8474	5779
917.2244	5701
919.5987	5820
921.9744	5825
924.3475	5847
926.72	5963
929.0918	5821
931.4669	5825
933.8375	5812
936.2074	5884
938.5767	6069
940.9454	6198
943.3154	6220
945.6829	6309
948.0497	6359
950.4178	6621
952.7833	6859
955.1483	7193
957.5145	7364
959.8782	7538
962.2412	7563
964.6036	7398
966.9655	7066
969.3266	6679
971.6871	6369
974.0471	6194
976.4064	6068
978.765	5959
981.125	5875
983.4824	5981
985.8373	5844
988.1935	5894
990.549	5766
992.9039	5836
995.2602	5864
997.6119	5802
999.965	5942
1002.317	5885
1004.667	5709
1007.02	5918
1009.371	5872
1011.719	5925
1014.068	5821
1016.415	5741
1018.765	5886
1021.111	5798
1023.458	5873
1025.804	5861
1028.147	5990
1030.49	5976
1032.837	6029
1035.179	5983
1037.522	6024
1039.862	5986
1042.204	5905
1044.546	5963
1046.884	6021
1049.224	6020
1051.562	5973
1053.899	5927
1056.237	6020
1058.575	6023
1060.91	6061
1063.244	6066
1065.58	6053
1067.913	6177
1070.248	6143
1072.579	6108
1074.911	6079
1077.242	6165
1079.572	6093
1081.905	6086
1084.234	5989
1086.562	6107
1088.89	5896
1091.217	5933
1093.544	5973
1095.871	5971
1098.197	5875
1100.521	5853
1102.845	6000
1105.169	5973
1107.491	5977
1109.814	6011
1112.135	6009
1114.456	5859
1116.776	5887
1119.096	5892
1121.415	5987
1123.734	6063
1126.052	5953
1128.369	6005
1130.686	5996
1133.002	6106
1135.318	6071
1137.632	6067
1139.945	5981
1142.258	5966
1144.573	6009
1146.884	5973
1149.196	5926
1151.505	5983
1153.816	5983
1156.124	6046
1158.435	5961
1160.742	6002
1163.051	5977
1165.356	6057
1167.663	5962
1169.97	6110
1172.276	5957
1174.579	5957
1176.881	6008
1179.186	6001
1181.487	6025
1183.79	5938
1186.092	6064
1188.392	6084
1190.691	5958
1192.991	5926
1195.291	5971
1197.588	5943
1199.885	6049
1202.181	5938
1204.479	5929
1206.775	6004
1209.07	5971
1211.363	6048
1213.656	6010
1215.949	6100
1218.241	6080
1220.534	5885
1222.825	6122
1225.115	6078
1227.405	6103
1229.693	6125
1231.984	6177
1234.271	6213
1236.558	6166
1238.845	6236
1241.131	6245
1243.416	6247
1245.703	6208
1247.987	6199
1250.269	6296
1252.552	6254
1254.834	6273
1257.118	6134
1259.399	6255
1261.678	6096
1263.958	6177
1266.237	6137
1268.516	6353
1270.794	6160
1273.072	6234
1275.347	6191
1277.624	6194
1279.899	6239
1282.175	6170
1284.449	6172
1286.722	6108
1288.995	6071
1291.266	6110
1293.54	6108
1295.81	6220
1298.081	6141
1300.35	6058
1302.62	6129
1304.889	6114
1307.156	6092
1309.425	6139
1311.69	6083
1313.957	6082
1316.222	6166
1318.488	6152
1320.751	6085
1323.016	6199
1325.278	6206
1327.54	6241
1329.803	6238
1332.065	6118
1334.325	6155
1336.584	6053
1338.843	6171
1341.101	6143
1343.36	6217
1345.617	6171
1347.876	6284
1350.131	6124
1352.387	6027
1354.643	6217
1356.897	6112
1359.151	6186
1361.403	6097
1363.656	6130
1365.909	6116
1368.16	6162
1370.409	6083
1372.659	6236
1374.909	6324
1377.157	6237
1379.407	6226
1381.655	6192
1383.9	6188
1386.147	6263
1388.393	6264
1390.64	6116
1392.885	6229
1395.127	6271
1397.37	6217
1399.614	6282
1401.854	6282
1404.098	6179
1406.339	6289
1408.578	6258
1410.818	6367
1413.056	6379
1415.297	6296
1417.533	6334
1419.771	6329
1422.006	6347
1424.243	6355
1426.479	6361
1428.715	6296
1430.948	6319
1433.182	6312
1435.414	6222
1437.647	6489
1439.88	6389
1442.11	6394
1444.342	6446
1446.571	6373
1448.799	6427
1451.029	6526
1453.258	6554
1455.485	6599
1457.711	6431
1459.937	6440
1462.164	6369
1464.39	6412
1466.614	6452
1468.838	6461
1471.06	6406
1473.283	6336
1475.506	6398
1477.727	6305
1479.949	6353
1482.169	6249
1484.389	6293
1486.609	6232
1488.828	6303
1491.045	6255
1493.261	6185
1495.477	6179
1497.693	6246
1499.91	6249
1502.125	6272
1504.339	6245
1506.553	6140
1508.766	6210
1510.979	6197
1513.191	6158
1515.402	6182
1517.613	6163
1519.823	6107
1522.033	6165
1524.242	6181
1526.451	6242
1528.657	6293
1530.865	6201
1533.072	6265
1535.278	6225
1537.484	6240
1539.687	6265
1541.892	6272
1544.096	6265
1546.299	6232
1548.502	6218
1550.703	6180
1552.905	6286
1555.104	6239
1557.303	6243
1559.505	6323
1561.703	6211
1563.902	6200
1566.099	6463
1568.295	6463
1570.494	6395
1572.689	6321
1574.883	6378
1577.079	6386
1579.272	6293
1581.467	6354
1583.659	6356
1585.853	6417
1588.044	6449
1590.234	6414
1592.424	6299
1594.615	6307
1596.806	6373
1598.994	6476
1601.182	6458
1603.369	6315
1605.557	6494
1607.744	6434
1609.929	6384
1612.114	6525
1614.298	6525
1616.482	6481
1618.667	6419
1620.85	6488
1623.032	6463
1625.214	6347
1627.395	6492
1629.575	6533
1631.755	6627
1633.935	6579
1636.114	6456
1638.292	6606
1640.471	6527
1642.647	6430
1644.823	6529
1647	6476
1649.175	6515
1651.348	6514
1653.525	6615
1655.698	6498
1657.87	6556
1660.043	6562
1662.213	6638
1664.387	6641
1666.558	6622
1668.727	6649
1670.896	6620
1673.064	6608
1675.233	6522
1677.401	6600
1679.569	6506
1681.735	6567
1683.902	6496
1686.066	6585
1688.233	6537
1690.397	6555
1692.559	6437
1694.723	6454
1696.885	6488
1699.048	6566
1701.21	6485
1703.37	6382
1705.53	6647
1707.689	6483
1709.849	6438
1712.009	6394
1714.166	6502
1716.323	6448
1718.479	6407
1720.634	6386
1722.793	6489
1724.948	6326
1727.102	6388
1729.255	6539
1731.408	6508
1733.562	6418
1735.714	6412
1737.865	6524
1740.016	6347
1742.166	6447
1744.316	6565
1746.467	6315
1748.616	6285
1750.764	6462
1752.911	6398
1755.056	6440
1757.205	6529
1759.35	6492
1761.496	6474
1763.641	6439
1765.785	6354
1767.927	6459
1770.072	6556
1772.214	6505
1774.355	6439
1776.496	6524
1778.637	6507
1780.778	6472
1782.918	6514
1785.057	6591
1787.194	6452
1789.333	6554
1791.472	6292
1793.608	6619
1795.745	6518
1797.879	6424
1800.015	6514
1802.148	6450
1804.284	6384
1806.417	6597
1808.548	6456
1810.682	6473
1812.812	6624
1814.946	6505
1817.075	6619
1819.205	6601
1821.335	6443
1823.463	6583
1825.59	6496
1827.721	6444
1829.847	6443
1831.973	6444
1834.098	6529
1836.223	6478
1838.351	6512
1840.475	6512
1842.598	6500
1844.721	6432
1846.843	6372
1848.966	6457
1851.087	6430
1853.21	6366
1855.33	6531
1857.449	6488
1859.568	6495
1861.688	6388
1863.806	6390
1865.924	6459
1868.039	6425
1870.155	6445
1872.273	6359
1874.388	6384
1876.503	6437
1878.617	6565
1880.73	6405
1882.844	6401
1884.956	6366
1887.068	6447
1889.18	6436
1891.291	6456
1893.4	6617
1895.511	6439
1897.621	6492
1899.73	6485
1901.837	6310
1903.944	6610
1906.053	6549
1908.159	6543
1910.265	6549
1912.369	6517
1914.474	6546
1916.577	6547
1918.683	6585
1920.785	6449
1922.888	6529
1924.989	6525
1927.091	6506
1929.193	6654
1931.294	6586
1933.393	6612
1935.493	6552
1937.59	6661
1939.689	6595
1941.788	6718
1943.884	6545
1945.98	6612
1948.077	6540
1950.171	6534
1952.267	6574
1954.361	6683
1956.455	6631
1958.548	6656
1960.64	6660
1962.733	6506
1964.824	6685
1966.915	6492
1969.005	6611
1971.096	6523
1973.185	6670
1975.275	6550
1977.363	6619
1979.45	6530
1981.537	6508
1983.623	6611
1985.711	6539
1987.796	6469
1989.881	6574
1991.965	6627
1994.047	6517
1996.132	6505
1998.215	6391
2000.297	6565
2002.378	6624
2004.46	6606
2006.54	6449
2008.62	6554
2010.7	6542
2012.779	6470
2014.858	6616
2016.934	6623
2019.013	6447
2021.09	6548
2023.165	6502
2025.241	6556
2027.317	6517
2029.39	6545
2031.466	6514
2033.538	6600
2035.612	6506
2037.683	6655
2039.755	6608
2041.827	6524
2043.898	6521
2045.968	6569
2048.038	6533
2050.106	6485
2052.177	6600
2054.244	6553
2056.313	6468
2058.379	6493
2060.444	6542
2062.511	6519
2064.577	6552
2066.641	6575
2068.705	6544
2070.77	6581
2072.832	6604
2074.896	6606
2076.958	6504
2079.02	6589
2081.081	6433
2083.141	6557
2085.2	6564
2087.261	6475
2089.319	6631
2091.377	6523
2093.435	6574
2095.492	6501
2097.552	6529
2099.607	6598
2101.663	6600
2103.718	6520
2105.771	6546
2107.826	6530
2109.879	6593
2111.932	6609
2113.985	6622
2116.037	6512
2118.088	6539
2120.141	6620
2122.191	6459
2124.239	6582
2126.288	6580
2128.337	6552
2130.387	6650
2132.434	6553
2134.481	6445
2136.528	6556
2138.574	6534
2140.618	6498
2142.665	6468
2144.71	6557
2146.753	6589
2148.797	6448
2150.838	6496
2152.883	6400
2154.923	6517
2156.965	6440
2159.007	6486
2161.046	6583
2163.086	6504
2165.126	6612
2167.163	6503
2169.202	6508
2171.239	6451
2173.277	6552
2175.314	6494
2177.349	6492
2179.385	6449
2181.42	6444
2183.453	6398
2185.49	6360
2187.522	6339
2189.555	6426
2191.586	6413
2193.619	6540
2195.651	6448
2197.682	6451
2199.711	6530
2201.74	6414
2203.769	6421
2205.799	6429
2207.828	6476
2209.855	6394
2211.882	6416
2213.908	6387
2215.934	6482
2217.961	6471
2219.986	6457
2222.01	6403
2224.034	6360
2226.057	6396
2228.08	6334
2230.104	6389
2232.124	6424
2234.145	6287
2236.166	6410
2238.186	6367
2240.207	6328
2242.227	6412
2244.244	6380
2246.262	6421
2248.28	6343
2250.299	6283
2252.314	6372
2254.33	6481
2256.346	6366
2258.36	6293
2260.375	6429
2262.391	6352
2264.403	6219
2266.416	6459
2268.427	6416
2270.44	6457
2272.453	6526
2274.463	6442
2276.474	6311
2278.483	6421
2280.493	6421
2282.501	6406
2284.51	6446
2286.518	6376
2288.524	6429
2290.532	6376
2292.537	6426
2294.544	6456
2296.55	6454
2298.554	6381
2300.557	6453
2302.562	6384
2304.566	6450
2306.568	6437
2308.569	6465
2310.572	6561
2312.573	6402
2314.573	6372
2316.574	6431
2318.573	6238
2320.571	6277
2322.571	6259
2324.569	6320
2326.567	6278
2328.564	6335
2330.56	6320
2332.556	6421
2334.551	6239
2336.546	6231
2338.542	6335
2340.535	6243
2342.529	6303
2344.521	6307
2346.512	6293
2348.505	6271
2350.497	6368
2352.487	6291
2354.478	6263
2356.468	6247
2358.457	6221
2360.446	6264
2362.434	6290
2364.422	6364
2366.408	6318
2368.395	6342
2370.383	6284
2372.369	6252
2374.353	6236
2376.338	6247
2378.321	6282
2380.307	6268
2382.29	6235
2384.272	6265
2386.254	6255
2388.235	6201
2390.218	6213
2392.198	6315
2394.179	6160
2396.157	6232
2398.137	6164
2400.115	6195
2402.095	6300
2404.072	6307
2406.048	6275
2408.026	6246
2410.001	6093
2411.977	6213
2413.953	6193
2415.927	6124
2417.9	6171
2419.875	6146
2421.847	6197
2423.821	6213
2425.792	6166
2427.763	6236
2429.736	6172
2431.706	6194
2433.677	6206
2435.646	6291
2437.615	6159
2439.583	6206
2441.551	6277
2443.519	6360
2445.486	6169
2447.452	6238
2449.418	6300
2451.383	6189
2453.348	6117
2455.314	6221
2457.278	6114
2459.241	6147
2461.205	6183
2463.167	6083
2465.131	6124
2467.091	6181
2469.052	6158
2471.012	6162
2472.972	6208
2474.932	6104
2476.891	6212
2478.85	6122
2480.808	6103
2482.766	6076
2484.722	6171
2486.68	6189
2488.636	6130
2490.591	6195
2492.546	6199
2494.5	6136
2496.456	6165
2498.41	6194
2500.362	6095
2502.315	6101
2504.266	6170
2506.218	6187
2508.169	6002
2510.121	6253
2512.07	6046
2514.019	6089
2515.968	6059
2517.918	6070
2519.866	6072
2521.813	6109
2523.76	6039
2525.707	6064
2527.653	6160
2529.599	6160
2531.543	6055
2533.489	6036
2535.433	6102
2537.376	6098
2539.32	6029
2541.264	6113
2543.205	6079
2545.147	6089
2547.087	6122
2549.029	6128
2550.969	6148
2552.908	6105
2554.847	6129
2556.786	6159
2558.724	6167
2560.663	6024
2562.6	6186
2564.537	6056
2566.473	6068
2568.408	6088
2570.345	6112
2572.28	6132
2574.214	6114
2576.148	6056
2578.081	6169
2580.014	6111
2581.947	6144
2583.879	6066
2585.81	6082
2587.741	6096
2589.67	6133
2591.602	6017
2593.532	6088
2595.461	6026
2597.388	6137
2599.316	6058
2601.244	6037
2603.172	6170
2605.098	6092
2607.023	6120
2608.949	6087
2610.873	6069
2612.8	6094
2614.723	6069
2616.647	6084
2618.569	6138
2620.493	6094
2622.416	6131
2624.338	6017
2626.258	6151
2628.179	6212
2630.099	6085
2632.019	6100
2633.939	6062
2635.857	6093
2637.775	6120
2639.694	6087
2641.61	6158
2643.528	6152
2645.444	6204
2647.361	6171
2649.276	5997
2651.19	6085
2653.105	5984
2655.019	6047
2656.934	6067
2658.846	6089
2660.758	6110
2662.67	6102
2664.583	6163
2666.493	6108
2668.404	6094
2670.313	6117
2672.223	6046
2674.134	6088
2676.042	6071
2677.95	6147
2679.858	6144
2681.765	6027
2683.673	6101
2685.579	6095
2687.483	6092
2689.389	6068
2691.294	6019
2693.198	5981
2695.104	6153
2697.006	6081
2698.909	5958
2700.811	6036
2702.713	5970
2704.615	6116
2706.516	5987
2708.417	6070
2710.316	6010
2712.216	5966
2714.115	6153
2716.014	6078
2717.913	6082
2719.81	6038
2721.707	5969
2723.603	6038
2725.501	5969
2727.396	5867
2729.292	5982
2731.186	6136
2733.081	6087
2734.976	6000
2736.87	5971
2738.762	5950
2740.653	5970
2742.546	6013
2744.437	6035
2746.329	5905
2748.22	5953
2750.11	5989
2751.999	5934
2753.889	6004
2755.778	6000
2757.666	5944
2759.553	6024
2761.44	6002
2763.328	5992
2765.215	5960
2767.101	6024
2768.986	6011
2770.87	6023
2772.754	5873
2774.638	5931
2776.523	6016
2778.405	5933
2780.288	5978
2782.17	6017
2784.051	5905
2785.934	5924
2787.814	5980
2789.694	6016
2791.574	5825
2793.453	5961
2795.332	6046
2797.212	5933
2799.088	5906
2800.966	5887
2802.843	5834
2804.719	5896
2806.597	5952
2808.471	5909
2810.346	5858
2812.221	5883
2814.094	5909
2815.969	5840
2817.843	5878
2819.714	5912
2821.587	5894
2823.459	5901
2825.329	5775
2827.202	5925
2829.072	5910
2830.942	5821
2832.811	5943
2834.68	5864
2836.549	5799
2838.418	5963
2840.284	5900
2842.152	5892
2844.018	5840
2845.885	5949
2847.751	5860
2849.616	5932
2851.482	5970
2853.345	5972
2855.208	5880
2857.074	5986
2858.937	5922
2860.799	5991
2862.66	6096
2864.522	6045
2866.385	6110
2868.245	6004
2870.104	6185
2871.964	6119
2873.824	6253
2875.683	6216
2877.542	6235
2879.4	6356
2881.257	6220
2883.114	6313
2884.97	6327
2886.827	6407
2888.683	6485
2890.537	6290
2892.392	6313
2894.246	6444
2896.1	6410
2897.954	6306
2899.807	6322
2901.66	6335
2903.51	6333
2905.362	6347
2907.214	6340
2909.065	6287
2910.915	6424
2912.765	6502
2914.613	6412
2916.463	6549
2918.311	6482
2920.158	6471
2922.006	6728
2923.853	6707
2925.698	6824
2927.546	6801
2929.392	6827
2931.236	6847
2933.081	6969
2934.924	6934
2936.77	7009
2938.613	7124
2940.455	7105
2942.298	7156
2944.139	7083
2945.982	7124
2947.823	6902
2949.662	7056
2951.503	6886
2953.342	6922
2955.182	6878
2957.021	6811
2958.858	6747
2960.697	6735
2962.534	6692
2964.37	6750
2966.207	6694
2968.044	6566
2969.879	6485
2971.714	6586
2973.548	6584
2975.383	6477
2977.218	6483
2979.051	6429
2980.883	6383
2982.715	6481
2984.547	6412
2986.379	6476
2988.21	6356
2990.04	6255
2991.87	6300
2993.7	6231
2995.53	6184
2997.359	6112
2999.187	6079
3001.015	6112
3002.842	6085
3004.669	6102
3006.497	5898
3008.323	5933
3010.148	5886
3011.974	5838
3013.797	5960
3015.623	5719
3017.447	5824
3019.27	5818
3021.094	5767
3022.915	5695
3024.737	5767
3026.56	5718
3028.38	5815
3030.201	5689
3032.022	5598
3033.84	5722
3035.662	5612
3037.481	5646
3039.298	5700
3041.117	5644
3042.933	5748
3044.752	5604
3046.568	5787
3048.385	5759
3050.2	5613
3052.016	5700
3053.83	5598
3055.646	5791
3057.46	5622
3059.272	5637
3061.086	5586
3062.898	5647
3064.711	5623
3066.524	5572
3068.335	5575
3070.145	5504
3071.956	5651
3073.766	5479
3075.576	5578
3077.385	5616
3079.193	5680
3081.002	5563
3082.81	5606
3084.618	5630
3086.425	5550
3088.231	5532
3090.036	5549
3091.842	5535
3093.648	5548
3095.452	5537
3097.257	5533
3099.06	5544
3100.863	5420
3102.666	5526
3104.47	5368
3106.272	5418
3108.073	5428
3109.875	5505
3111.676	5529
3113.477	5462
3115.277	5534
3117.077	5412
3118.874	5458
3120.673	5404
3122.473	5342
3124.271	5398
3126.066	5530
3127.863	5399
3129.66	5408
3131.456	5323
3133.252	5346
3135.047	5221
3136.842	5408
3138.635	5279
3140.429	5452
3142.223	5420
3144.016	5457
3145.808	5379
3147.6	5285
3149.392	5376
3151.183	5469
3152.975	5349
3154.765	5342
3156.553	5406
3158.344	5352
3160.132	5419
3161.922	5263
3163.71	5415
3165.497	5411
3167.285	5257
3169.071	5373
3170.858	5430
3172.645	5235
3174.429	5302
3176.214	5360
3177.998	5239
3179.783	5373
3181.568	5320
3183.351	5280
3185.133	5298
3186.915	5228
3188.698	5407
3190.481	5338
3192.261	5312
3194.042	5415
3195.822	5298
3197.601	5337
3199.381	5307
3201.161	5322
3202.939	5265
3204.717	5291
3206.495	5345
3208.272	5364
3210.05	5276
3211.826	5291
3213.602	5342
3215.376	5247
3217.151	5301
3218.927	5222
3220.702	5227
3222.476	5301
3224.249	5347
3226.021	5253
3227.793	5221
3229.567	5164
3231.339	5125
3233.109	5366
3234.88	5322
3236.651	5326
3238.421	5310
3240.191	5312
3241.96	5208
3243.728	5244
3245.497	5234
3247.263	5233
3249.033	5321
3250.799	5297
3252.566	5247
3254.331	5353
3256.097	5222
3257.863	5277
3259.628	5238
3261.392	5258
3263.156	5262
3264.919	5263
3266.683	5236
3268.447	5268
3270.208	5308
3271.969	5325
3273.731	5308
3275.492	5367
3277.253	5305
3279.013	5201
3280.773	5310
3282.532	5236
3284.291	5222
3286.05	5314
3287.808	5262
3289.566	5322
3291.323	5260
3293.079	5359
3294.835	5195
3296.593	5244
3298.348	5244
3300.102	5307
3301.857	5278
3303.611	5365
3305.366	5249
3307.119	5224
3308.872	5295
3310.624	5224
3312.376	5205
3314.129	5233
3315.881	5191
3317.631	5207
3319.38	5240
3321.13	5274
3322.88	5289
3324.631	5247
3326.379	5303
3328.126	5260
3329.875	5159
3331.622	5284
3333.371	5309
3335.116	5253
3336.863	5305
3338.609	5160
3340.353	5192
3342.1	5259
3343.845	5222
3345.588	5172
3347.332	5099
3349.074	5172
3350.817	5250
3352.56	5184
3354.303	5208
3356.043	5218
3357.785	5072
3359.525	5208
3361.268	5065
3363.007	5220
3364.745	5093
3366.485	5168
3368.223	5138
3369.962	5212
3371.701	5242
3373.438	5098
3375.174	5126
3376.911	5116
3378.647	5131
3380.384	5125
3382.118	5093
3383.854	5002
3385.588	4984
3387.322	5041
3389.057	5041
3390.79	5164
3392.522	5070
3394.255	5152
3395.987	5161
3397.719	5060
3399.451	5088
3401.181	5041
3402.911	5148
3404.641	5040
3406.371	5148
3408.101	5065
3409.83	5161
3411.558	5006
3413.285	5127
3415.011	5087
3416.739	5120
3418.467	5044
3420.193	5002
3421.919	5125
3423.644	5097
3425.368	4988
3427.094	5059
3428.818	4984
3430.542	5057
3432.264	4956
3433.987	4957
3435.712	5015
3437.434	5067
3439.155	4982
3440.876	4959
3442.596	4888
3444.317	5019
3446.039	4959
3447.757	4918
3449.477	4997
3451.195	4934
3452.914	4827
3454.632	4925
3456.35	4934
3458.067	4937
3459.784	5012
3461.5	4906
3463.216	4912
3464.932	4893
3466.647	4895
3468.362	4902
3470.076	4881
3471.789	4835
3473.505	4805
3475.217	4853
3476.929	4907
3478.641	4828
3480.354	4823
3482.066	4763
3483.777	4848
3485.487	4799
3487.197	4766
3488.908	4667
3490.617	4767
3492.327	4766
3494.035	4822
3495.743	4896
3497.451	4748
3499.158	4770
3500.866	4745
3502.572	4782
3504.278	4699
3505.984	4740
3507.689	4833
3509.396	4746
3511.1	4786
3512.804	4729
3514.508	4742
3516.211	4685
3517.913	4732
3519.616	4679
3521.319	4709
3523.021	4758
3524.722	4706
3526.422	4630
3528.124	4791
3529.824	4750
3531.524	4695
3533.222	4689
3534.921	4700
3536.62	4691
3538.318	4518
3540.016	4678
3541.714	4685
3543.41	4682
3545.107	4708
3546.803	4683
3548.5	4687
3550.194	4615
3551.889	4626
3553.583	4657
3555.279	4589
3556.972	4613
3558.666	4614
3560.358	4626
3562.051	4634
3563.742	4569
3565.435	4574
3567.126	4625
3568.817	4616
3570.507	4545
3572.197	4556
3573.888	4605
3575.577	4662
3577.265	4629
3578.954	4562
3580.642	4461
3582.329	4464
3584.017	4454
3585.704	4618
3587.391	4494
3589.077	4542
3590.762	4557
3592.449	4523
3594.133	4478
3595.817	4489
3597.501	4583
3599.185	4381
3600.869	4418
3602.552	4489
3604.234	4541
3605.916	4552
3607.598	4543
3609.279	4457
3610.961	4331
3612.642	4360
3614.321	4453
3616	4381
3617.68	4422
3619.36	4513
3621.039	4432
3622.716	4404
3624.394	4469
3626.071	4381
3627.748	4402
3629.425	4415
3631.102	4366
3632.778	4413
3634.452	4375
3636.127	4361
3637.803	4326
3639.477	4383
3641.151	4319
3642.823	4400
3644.497	4318
3646.171	4379
3647.842	4292
3649.515	4271
3651.185	4266
3652.857	4354
3654.527	4221
3656.198	4298
3657.868	4424
3659.537	4318
3661.207	4332
3662.875	4320
3664.544	4400
3666.212	4262
3667.879	4188
3669.546	4333
3671.212	4336
3672.88	4286
3674.546	4378
3676.211	4248
3677.875	4315
3679.541	4247
3681.205	4254
3682.87	4286
3684.533	4227
3686.196	4336
3687.859	4219
3689.521	4293
3691.184	4248
3692.845	4177
3694.507	4182
3696.167	4194
3697.827	4234
3699.487	4237
3701.148	4262
3702.808	4259
3704.466	4224
3706.125	4233
3707.783	4222
3709.442	4176
3711.099	4273
3712.757	4237
3714.412	4150
3716.068	4167
3717.725	4189
3719.381	4173
3721.036	4081
3722.689	4148
3724.344	4220
3725.998	4165
3727.652	4199
3729.305	4113
3730.958	4185
3732.61	4114
3734.262	4085
3735.915	4232
3737.565	4196
3739.217	4114
3740.866	4118
3742.516	4173
3744.165	4186
3745.816	4138
3747.464	4133
3749.113	4178
3750.761	4130
3752.409	4112
3754.057	4181
3755.703	4172
3757.35	4077
3758.996	4004
3760.641	4126
3762.289	4103
3763.933	3977
3765.577	4119
3767.222	4109
3768.865	4121
3770.508	4030
3772.152	4100
3773.796	4085
3775.438	4081
3777.079	4071
3778.721	4087
3780.363	4046
3782.003	4115
3783.643	4080
3785.283	4061
3786.923	4012
3788.563	4071
3790.203	4067
3791.841	3909
3793.479	4048
3795.115	4069
3796.753	4006
3798.391	3995
3800.027	4042
3801.664	4058
3803.299	4027
3804.935	4058
3806.571	4005
3808.206	4022
3809.839	3929
3811.473	3955
3813.107	3981
3814.74	4004
3816.375	4013
3818.006	3912
3819.638	3912
3821.27	3985
3822.9	3946
3824.532	3919
3826.163	4002
3827.792	3951
3829.423	3950
3831.051	3977
3832.682	4039
3834.311	3900
3835.938	3907
3837.566	3889
3839.193	3883
3840.821	3916
3842.448	3880
3844.075	3904
3845.7	3960
3847.325	3923
3848.951	3953
3850.576	3872
3852.201	3848
3853.825	3882
3855.448	3986
3857.072	3912
3858.694	3960
3860.318	3923
3861.939	3829
3863.562	3922
3865.183	3840
3866.804	3794
3868.426	3890
3870.045	3798
3871.666	3896
3873.285	3850
3874.904	3804
3876.524	3839
3878.142	3874
3879.76	3792
3881.378	3823
3882.995	3819
3884.612	3823
3886.229	3909
3887.845	3789
3889.461	3778
3891.076	3844
3892.691	3842
3894.307	3819
3895.922	3785
3897.536	3853
3899.149	3771
3900.761	3895
3902.374	3800
3903.988	3790
3905.6	3743
3907.212	3877
3908.822	3797
3910.433	3832
3912.045	3834
3913.655	3788
3915.265	3791
3916.875	3827
3918.483	3703
3920.093	3758
3921.702	3785
3923.309	3727
3924.917	3791
3926.523	3732
3928.13	3742
3929.739	3786
3931.344	3751
3932.95	3752
3934.555	3772
3936.159	3714
3937.766	3838
3939.369	3741
3940.974	3653
3942.577	3729
3944.181	3754
3945.783	3722
3947.386	3737
3948.989	3748
3950.59	3706
3952.191	3814
3953.791	3735
3955.394	3762
3956.994	3740
3958.593	3791
3960.192	3634
3961.791	3726
3963.392	3731
3964.99	3664
3966.588	3725
3968.185	3736
3969.782	3705
3971.379	3653
3972.976	3723
3974.572	3668
3976.168	3710
3977.763	3646
3979.358	3672
3980.954	3662
3982.548	3698
3984.142	3652
3985.736	3645
3987.329	3639
3988.922	3640
3990.516	3685
3992.108	3690
3993.698	3664
3995.29	3745
3996.881	3562
3998.473	3629
4000.064	3662
4001.653	3597
4003.242	3675
4004.832	3534
4006.422	3658
4008.01	3562
4009.598	3618
4011.186	3553
4012.773	3598
4014.36	3553
4015.947	3562
4017.534	3499
4019.119	3534
4020.705	3562
4022.291	3526
4023.876	3520
4025.461	3559
4027.044	3453
4028.627	3512
4030.211	3522
4031.795	3474
4033.378	3513
4034.96	3512
4036.542	3527
4038.124	3503
4039.704	3484
4041.286	3516
4042.867	3592
4044.447	3557
4046.026	3506
4047.606	3464
4049.187	3446
4050.765	3466
4052.343	3555
4053.92	3516
4055.498	3505
4057.076	3478
4058.654	3449
4060.23	3466
4061.806	3567
4063.381	3408
4064.957	3395
4066.533	3388
4068.107	3496
4069.682	3424
4071.256	3455
4072.829	3495
4074.404	3463
4075.977	3492
4077.549	3439
4079.121	3404
4080.693	3470
4082.265	3466
4083.836	3461
4085.407	3479
4086.977	3396
4088.547	3393
4090.117	3404
4091.687	3370
4093.256	3441
4094.825	3416
4096.392	3404
4097.96	3405
4099.528	3486
4101.097	3399
4102.663	3383
4104.229	3406
4105.795	3415
4107.361	3342
4108.928	3392
4110.493	3347
4112.058	3398
4113.621	3417
4115.186	3384
4116.75	3369
4118.313	3296
4119.876	3297
4121.438	3305
4123	3282
4124.562	3387
4126.125	3363
4127.686	3337
4129.246	3296
4130.807	3348
4132.367	3322
4133.927	3312
4135.486	3325
4137.046	3214
4138.604	3316
4140.162	3290
4141.72	3285
4143.279	3279
4144.836	3283
4146.393	3318
4147.949	3282
4149.505	3319
4151.062	3267
4152.617	3326
4154.172	3257
4155.727	3243
4157.281	3180
4158.836	3334
4160.39	3269
4161.943	3236
4163.496	3199
4165.048	3256
4166.601	3232
4168.154	3130
4169.706	3150
4171.257	3220
4172.808	3213
4174.358	3253
4175.909	3234
4177.458	3243
4179.008	3209
4180.558	3241
4182.106	3161
4183.655	3197
4185.204	3214
4186.751	3209
4188.298	3238
4189.845	3150
4191.392	3166
4192.939	3263
4194.485	3168
4196.031	3230
4197.576	3171
4199.121	3202
4200.666	3229
4202.211	3181
4203.754	3171
4205.298	3130
4206.84	3070
4208.384	3099
4209.927	3094
4211.47	3122
4213.011	3156
4214.552	3219
4216.094	3115
4217.635	3109
4219.175	3158
4220.716	3111
4222.255	3077
4223.793	3096
4225.335	3153
4226.873	3115
4228.411	3176
4229.948	3069
4231.486	3195
4233.024	3086
4234.562	3079
4236.098	3121
4237.634	3055
4239.169	3076
4240.705	3030
4242.241	3147
4243.776	3106
4245.31	3076
4246.844	3078
4248.378	3043
4249.911	3084
4251.445	3158
4252.978	3096
4254.51	2984
4256.042	3092
4257.574	3028
4259.107	3041
4260.638	3105
4262.169	3004
4263.699	3138
4265.228	3067
4266.759	3062
4268.289	3046
4269.818	3040
4271.345	3022
4272.874	3057
4274.402	3077
4275.931	3097
4277.458	3033
4278.985	3070
4280.512	3050
4282.037	3127
4283.564	3035
4285.089	3052
4286.615	3056
4288.139	3039
4289.664	2964
4291.187	3042
4292.712	3059
4294.235	3053
4295.759	3053
4297.281	2981
4298.804	2987
4300.327	3034
4301.849	3061
4303.37	3026
4304.891	2994
4306.412	3040
4307.933	3048
4309.453	3001
4310.973	2959
4312.492	2935
