398.1873	5584
400.7097	5711
403.2336	5661
405.7547	5627
408.2751	5728
410.7948	5721
413.3138	5719
415.83	5706
418.3497	5822
420.8666	5828
423.3829	5851
425.8985	5868
428.4133	5863
430.9275	5894
433.441	5980
435.9538	6023
438.4639	5823
440.9753	5955
443.4881	5980
445.9982	5947
448.5055	5949
451.0142	5932
453.5201	6030
456.0274	6004
458.5361	5921
461.04	5962
463.5453	5965
466.0478	5966
468.5517	6065
471.0549	5923
473.5574	6030
476.0572	5947
478.5584	6035
481.0568	6061
483.5545	6052
486.0557	6157
488.5521	6065
491.0478	6132
493.5449	6076
496.0392	6139
498.5349	6208
501.0299	6121
503.5222	6276
506.0139	6267
508.5048	6262
510.9991	6227
513.4887	6230
515.9777	6203
518.4659	6253
520.9534	6204
523.4403	6249
525.9306	6198
528.4161	6178
530.9009	6205
533.3851	6276
535.8687	6246
538.3535	6228
540.8356	6258
543.3171	6254
545.7979	6330
548.278	6336
550.7595	6237
553.2383	6295
555.7144	6362
558.1918	6309
560.6685	6279
563.1446	6322
565.6221	6428
568.0968	6296
570.5688	6436
573.0422	6404
575.515	6400
577.989	6395
580.4584	6493
582.9291	6449
585.3991	6578
587.8685	6552
590.3352	6540
592.8052	6615
595.2706	6468
597.7372	6480
600.2033	6549
602.6666	6493
605.1334	6539
607.5953	6440
610.0587	6344
612.5193	6491
614.9814	6385
617.4427	6433
619.9034	6401
622.3615	6595
624.8208	6475
627.2775	6233
629.7335	6434
632.1929	6356
634.6476	6483
637.1016	6397
639.5569	6363
642.0096	6419
644.4637	6557
646.9151	6523
649.3678	6653
651.8179	6464
654.2672	6587
656.7159	6562
659.166	6640
661.6154	6628
664.0622	6541
666.5082	6682
668.9537	6637
671.4005	6640
673.8445	6645
676.288	6636
678.7308	6608
681.1729	6623
683.6163	6650
686.0572	6758
688.4973	6701
690.9368	6608
693.3757	6574
695.8138	6774
698.2534	6710
700.6902	6738
703.1245	6731
705.56	6615
707.9949	6778
710.4311	6884
712.8647	6858
715.2957	6868
717.7279	6825
720.1595	6864
722.5905	6912
725.0208	6859
727.4505	6840
729.8795	6815
732.3058	6970
734.7336	6991
737.1626	6948
739.587	6975
742.0128	6968
744.4359	7014
746.8604	7019
749.2841	7101
751.7073	7092
754.1278	7119
756.5496	7065
758.9688	7117
761.3893	7164
763.8093	7187
766.2285	7040
768.6451	7172
771.0611	7140
773.4784	7185
775.895	7084
778.3091	7207
780.7244	7217
783.1371	7125
785.5493	7184
787.9626	7136
790.3754	7294
792.7856	7152
795.1951	7091
797.6039	7264
800.0121	7240
802.4236	7153
804.8306	7193
807.2369	7116
809.6425	7327
812.0475	7228
814.4538	7189
816.8575	7147
819.2606	7273
821.663	7301
824.0648	7222
826.4659	7315
828.8683	7263
831.2682	7345
833.6674	7315
836.066	7362
838.4639	7262
840.8632	7235
843.2579	7395
845.6539	7249
848.0493	7377
850.444	7383
852.84	7435
855.2315	7386
857.6243	7382
860.0165	7345
862.4081	7324
864.797	7433
867.1892	7372
869.5789	7338
871.9659	7260
874.3542	7394
876.74	7406
879.129	7334
881.5155	7353
883.8994	7304
886.2845	7391
888.6671	7328
891.051	7397
893.4343	7247
895.8169	7352
898.197	7360
900.5783	7256
902.9571	7544
905.3372	7444
907.7167	7393
910.0936	7457
912.4698	7458
914.8474	7558
917.2244	7561
919.5987	7476
921.9744	7458
924.3475	7691
926.72	7568
929.0918	7575
931.4669	7716
933.8375	7649
936.2074	7690
938.5767	7708
940.9454	7679
943.3154	7912
945.6829	7924
948.0497	7979
950.4178	8177
952.7833	8539
955.1483	8647
957.5145	8916
959.8782	8978
962.2412	9017
964.6036	8840
966.9655	8758
969.3266	8236
971.6871	8078
974.0471	7953
976.4064	7779
978.765	7712
981.125	7738
983.4824	7673
985.8373	7734
988.1935	7679
990.549	7598
992.9039	7627
995.2602	7558
997.6119	7658
999.965	7713
1002.317	7668
1004.667	7652
1007.02	7648
1009.371	7689
1011.719	7487
1014.068	7518
1016.415	7552
1018.765	7615
1021.111	7792
1023.458	7702
1025.804	7756
1028.147	7652
1030.49	7857
1032.837	7705
1035.179	7721
1037.522	7713
1039.862	7795
1042.204	7835
1044.546	7731
1046.884	7745
1049.224	7755
1051.562	7769
1053.899	7804
1056.237	7789
1058.575	7694
1060.91	7976
1063.244	7947
1065.58	7966
1067.913	7847
1070.248	7916
1072.579	7897
1074.911	8071
1077.242	7994
1079.572	8041
1081.905	7821
1084.234	7966
1086.562	7912
1088.89	7841
1091.217	7716
1093.544	7938
1095.871	7836
1098.197	7791
1100.521	7822
1102.845	7978
1105.169	7776
1107.491	7844
1109.814	7917
1112.135	7780
1114.456	7863
1116.776	7804
1119.096	7908
1121.415	8095
1123.734	7833
1126.052	7800
1128.369	7876
1130.686	7888
1133.002	7785
1135.318	7859
1137.632	7819
1139.945	7868
1142.258	7935
1144.573	7870
1146.884	7905
1149.196	7825
1151.505	7953
1153.816	7875
1156.124	7932
1158.435	7883
1160.742	7921
1163.051	7836
1165.356	7911
1167.663	7830
1169.97	8050
1172.276	7842
1174.579	7865
1176.881	7907
1179.186	7932
1181.487	7972
1183.79	7857
1186.092	7890
1188.392	7859
1190.691	7881
1192.991	7903
1195.291	7866
1197.588	7852
1199.885	8003
1202.181	7822
1204.479	7871
1206.775	7971
1209.07	7916
1211.363	7869
1213.656	7876
1215.949	7885
1218.241	7896
1220.534	7950
1222.825	7882
1225.115	7921
1227.405	8021
1229.693	7903
1231.984	7951
1234.271	8048
1236.558	8172
1238.845	8036
1241.131	8065
1243.416	8059
1245.703	8164
1247.987	8144
1250.269	8044
1252.552	8062
1254.834	8244
1257.118	8193
1259.399	8178
1261.678	8176
1263.958	8167
1266.237	8252
1268.516	8115
1270.794	8049
1273.072	8150
1275.347	8097
1277.624	8121
1279.899	8018
1282.175	8069
1284.449	8028
1286.722	8029
1288.995	8066
1291.266	8025
1293.54	8170
1295.81	8068
1298.081	8031
1300.35	8072
1302.62	8087
1304.889	7956
1307.156	8062
1309.425	8041
1311.69	8222
1313.957	8141
1316.222	8144
1318.488	8112
1320.751	8156
1323.016	8183
1325.278	8026
1327.54	8064
1329.803	8005
1332.065	8064
1334.325	8128
1336.584	8160
1338.843	8167
1341.101	8046
1343.36	8080
1345.617	8156
1347.876	8019
1350.131	8174
1352.387	8107
1354.643	8254
1356.897	8099
1359.151	8187
1361.403	8021
1363.656	8084
1365.909	8024
1368.16	8108
1370.409	8138
1372.659	8080
1374.909	8078
1377.157	8251
1379.407	8257
1381.655	8161
1383.9	8083
1386.147	8066
1388.393	8355
1390.64	8255
1392.885	8071
1395.127	8211
1397.37	8226
1399.614	8195
1401.854	8126
1404.098	8294
1406.339	8206
1408.578	8089
1410.818	8321
1413.056	8230
1415.297	8291
1417.533	8371
1419.771	8302
1422.006	8314
1424.243	8263
1426.479	8335
1428.715	8279
1430.948	8377
1433.182	8321
1435.414	8315
1437.647	8381
1439.88	8287
1442.11	8385
1444.342	8335
1446.571	8481
1448.799	8516
1451.029	8468
1453.258	8492
1455.485	8402
1457.711	8343
1459.937	8459
1462.164	8528
1464.39	8334
1466.614	8512
1468.838	8303
1471.06	8462
1473.283	8323
1475.506	8205
1477.727	8250
1479.949	8357
1482.169	8383
1484.389	8165
1486.609	8082
1488.828	8347
1491.045	8264
1493.261	8185
1495.477	8295
1497.693	8122
1499.91	8227
1502.125	8041
1504.339	8275
1506.553	8236
1508.766	8324
1510.979	8159
1513.191	8164
1515.402	8198
1517.613	8244
1519.823	8154
1522.033	8224
1524.242	8207
1526.451	8245
1528.657	8020
1530.865	8257
1533.072	8203
1535.278	8259
1537.484	8216
1539.687	8276
1541.892	8179
1544.096	8205
1546.299	8267
1548.502	8207
1550.703	8233
1552.905	8224
1555.104	8171
1557.303	8334
1559.505	8230
1561.703	8420
1563.902	8359
1566.099	8331
1568.295	8494
1570.494	8267
1572.689	8387
1574.883	8495
1577.079	8369
1579.272	8404
1581.467	8332
1583.659	8465
1585.853	8372
1588.044	8507
1590.234	8562
1592.424	8549
1594.615	8506
1596.806	8469
1598.994	8514
1601.182	8602
1603.369	8504
1605.557	8380
1607.744	8658
1609.929	8517
1612.114	8584
1614.298	8495
1616.482	8493
1618.667	8435
1620.85	8579
1623.032	8576
1625.214	8559
1627.395	8619
1629.575	8621
1631.755	8565
1633.935	8674
1636.114	8419
1638.292	8503
1640.471	8591
1642.647	8568
1644.823	8574
1647	8584
1649.175	8527
1651.348	8504
1653.525	8637
1655.698	8378
1657.87	8740
1660.043	8660
1662.213	8705
1664.387	8610
1666.558	8538
1668.727	8620
1670.896	8609
1673.064	8672
1675.233	8607
1677.401	8676
1679.569	8596
1681.735	8685
1683.902	8570
1686.066	8678
1688.233	8528
1690.397	8569
1692.559	8523
1694.723	8661
1696.885	8557
1699.048	8553
1701.21	8516
1703.37	8544
1705.53	8502
1707.689	8459
1709.849	8493
1712.009	8596
1714.166	8682
1716.323	8431
1718.479	8403
1720.634	8562
1722.793	8549
1724.948	8508
1727.102	8431
1729.255	8445
1731.408	8550
1733.562	8681
1735.714	8557
1737.865	8500
1740.016	8626
1742.166	8599
1744.316	8527
1746.467	8529
1748.616	8494
1750.764	8614
1752.911	8552
1755.056	8574
1757.205	8395
1759.35	8565
1761.496	8572
1763.641	8490
1765.785	8571
1767.927	8670
1770.072	8722
1772.214	8714
1774.355	8652
1776.496	8694
1778.637	8691
1780.778	8665
1782.918	8601
1785.057	8596
1787.194	8654
1789.333	8540
1791.472	8568
1793.608	8554
1795.745	8652
1797.879	8696
1800.015	8760
1802.148	8601
1804.284	8523
1806.417	8576
1808.548	8514
1810.682	8525
1812.812	8597
1814.946	8623
1817.075	8493
1819.205	8633
1821.335	8595
1823.463	8633
1825.59	8546
1827.721	8653
1829.847	8510
1831.973	8776
1834.098	8504
1836.223	8577
1838.351	8631
1840.475	8521
1842.598	8695
1844.721	8686
1846.843	8573
1848.966	8588
1851.087	8571
1853.21	8563
1855.33	8616
1857.449	8470
1859.568	8598
1861.688	8619
1863.806	8523
1865.924	8550
1868.039	8573
1870.155	8579
1872.273	8628
1874.388	8547
1876.503	8505
1878.617	8513
1880.73	8668
1882.844	8551
1884.956	8570
1887.068	8651
1889.18	8588
1891.291	8557
1893.4	8605
1895.511	8567
1897.621	8514
1899.73	8648
1901.837	8568
1903.944	8750
1906.053	8666
1908.159	8558
1910.265	8618
1912.369	8745
1914.474	8685
1916.577	8735
1918.683	8590
1920.785	8750
1922.888	8662
1924.989	8672
1927.091	8740
1929.193	8623
1931.294	8770
1933.393	8749
1935.493	8624
1937.59	8726
1939.689	8718
1941.788	8830
1943.884	8711
1945.98	8555
1948.077	8863
1950.171	8734
1952.267	8730
1954.361	8756
1956.455	8731
1958.548	8781
1960.64	8779
1962.733	8750
1964.824	8700
1966.915	8717
1969.005	8713
1971.096	8802
1973.185	8629
1975.275	8758
1977.363	8700
1979.45	8625
1981.537	8654
1983.623	8745
1985.711	8657
1987.796	8682
1989.881	8545
1991.965	8815
1994.047	8610
1996.132	8643
1998.215	8651
2000.297	8718
2002.378	8606
2004.46	8630
2006.54	8667
2008.62	8527
2010.7	8725
2012.779	8641
2014.858	8624
2016.934	8641
2019.013	8567
2021.09	8590
2023.165	8597
2025.241	8718
2027.317	8516
2029.39	8669
2031.466	8674
2033.538	8605
2035.612	8598
2037.683	8645
2039.755	8675
2041.827	8670
2043.898	8650
2045.968	8482
2048.038	8586
2050.106	8610
2052.177	8568
2054.244	8735
2056.313	8675
2058.379	8725
2060.444	8674
2062.511	8730
2064.577	8526
2066.641	8800
2068.705	8492
2070.77	8670
2072.832	8569
2074.896	8677
2076.958	8669
2079.02	8633
2081.081	8719
2083.141	8692
2085.2	8593
2087.261	8640
2089.319	8748
2091.377	8640
2093.435	8768
2095.492	8601
2097.552	8652
2099.607	8746
2101.663	8709
2103.718	8701
2105.771	8665
2107.826	8682
2109.879	8732
2111.932	8602
2113.985	8558
2116.037	8753
2118.088	8769
2120.141	8713
2122.191	8680
2124.239	8792
2126.288	8652
2128.337	8588
2130.387	8649
2132.434	8760
2134.481	8600
2136.528	8653
2138.574	8742
2140.618	8597
2142.665	8623
2144.71	8746
2146.753	8656
2148.797	8723
2150.838	8588
2152.883	8607
2154.923	8723
2156.965	8637
2159.007	8663
2161.046	8617
2163.086	8602
2165.126	8612
2167.163	8512
2169.202	8574
2171.239	8493
2173.277	8636
2175.314	8520
2177.349	8621
2179.385	8532
2181.42	8518
2183.453	8539
2185.49	8412
2187.522	8541
2189.555	8542
2191.586	8590
2193.619	8462
2195.651	8520
2197.682	8508
2199.711	8487
2201.74	8631
2203.769	8518
2205.799	8477
2207.828	8553
2209.855	8442
2211.882	8446
2213.908	8577
2215.934	8531
2217.961	8495
2219.986	8419
2222.01	8480
2224.034	8521
2226.057	8414
2228.08	8414
2230.104	8493
2232.124	8596
2234.145	8500
2236.166	8367
2238.186	8556
2240.207	8572
2242.227	8410
2244.244	8387
2246.262	8525
2248.28	8419
2250.299	8476
2252.314	8461
2254.33	8363
2256.346	8292
2258.36	8422
2260.375	8440
2262.391	8564
2264.403	8417
2266.416	8490
2268.427	8398
2270.44	8450
2272.453	8377
2274.463	8345
2276.474	8414
2278.483	8436
2280.493	8454
2282.501	8538
2284.51	8507
2286.518	8381
2288.524	8582
2290.532	8563
2292.537	8471
2294.544	8365
2296.55	8548
2298.554	8506
2300.557	8480
2302.562	8289
2304.566	8376
2306.568	8453
2308.569	8450
2310.572	8499
2312.573	8387
2314.573	8460
2316.574	8466
2318.573	8490
2320.571	8386
2322.571	8456
2324.569	8385
2326.567	8318
2328.564	8489
2330.56	8433
2332.556	8464
2334.551	8347
2336.546	8342
2338.542	8458
2340.535	8397
2342.529	8381
2344.521	8392
2346.512	8389
2348.505	8337
2350.497	8455
2352.487	8300
2354.478	8349
2356.468	8254
2358.457	8324
2360.446	8394
2362.434	8271
2364.422	8198
2366.408	8386
2368.395	8288
2370.383	8372
2372.369	8251
2374.353	8334
2376.338	8330
2378.321	8262
2380.307	8201
2382.29	8351
2384.272	8107
2386.254	8209
2388.235	8241
2390.218	8367
2392.198	8119
2394.179	8347
2396.157	8260
2398.137	8295
2400.115	8124
2402.095	8307
2404.072	8311
2406.048	8404
2408.026	8164
2410.001	8297
2411.977	8138
2413.953	8342
2415.927	8192
2417.9	8321
2419.875	8174
2421.847	8114
2423.821	8286
2425.792	8186
2427.763	8304
2429.736	8292
2431.706	8193
2433.677	8131
2435.646	8286
2437.615	8223
2439.583	8127
2441.551	8322
2443.519	8243
2445.486	8245
2447.452	8163
2449.418	8081
2451.383	8219
2453.348	8132
2455.314	8161
2457.278	8185
2459.241	8239
2461.205	8204
2463.167	8151
2465.131	8072
2467.091	8233
2469.052	8122
2471.012	8184
2472.972	8240
2474.932	8230
2476.891	8088
2478.85	8183
2480.808	8234
2482.766	8189
2484.722	8056
2486.68	8099
2488.636	8131
2490.591	8049
2492.546	8088
2494.5	8129
2496.456	7978
2498.41	8135
2500.362	7931
2502.315	8187
2504.266	8065
2506.218	8186
2508.169	8075
2510.121	8089
2512.07	8034
2514.019	8012
2515.968	8001
2517.918	8051
2519.866	8068
2521.813	8045
2523.76	8021
2525.707	8002
2527.653	7929
2529.599	7882
2531.543	8140
2533.489	8001
2535.433	7989
2537.376	8076
2539.32	8120
2541.264	8075
2543.205	8053
2545.147	7866
2547.087	7968
2549.029	8093
2550.969	8117
2552.908	8098
2554.847	8102
2556.786	8102
2558.724	8061
2560.663	8088
2562.6	8160
2564.537	8019
2566.473	8060
2568.408	8055
2570.345	8048
2572.28	8053
2574.214	7988
2576.148	8062
2578.081	7980
2580.014	8114
2581.947	7987
2583.879	8138
2585.81	7920
2587.741	8071
2589.67	8059
2591.602	8052
2593.532	8229
2595.461	7846
2597.388	8008
2599.316	8083
2601.244	8061
2603.172	8169
2605.098	8169
2607.023	8023
2608.949	8157
2610.873	8085
2612.8	8181
2614.723	8013
2616.647	8036
2618.569	8072
2620.493	8093
2622.416	8221
2624.338	8056
2626.258	7950
2628.179	8119
2630.099	8063
2632.019	8190
2633.939	7986
2635.857	8099
2637.775	8231
2639.694	8044
2641.61	8065
2643.528	8014
2645.444	8112
2647.361	8033
2649.276	8042
2651.19	7973
2653.105	8122
2655.019	8066
2656.934	8091
2658.846	8047
2660.758	8077
2662.67	7984
2664.583	8101
2666.493	8130
2668.404	8008
2670.313	8092
2672.223	8124
2674.134	8032
2676.042	8051
2677.95	8010
2679.858	8040
2681.765	7948
2683.673	8020
2685.579	8023
2687.483	7989
2689.389	8098
2691.294	7988
2693.198	7964
2695.104	8000
2697.006	8101
2698.909	8062
2700.811	7984
2702.713	7961
2704.615	7948
2706.516	8053
2708.417	7970
2710.316	7883
2712.216	7889
2714.115	7952
2716.014	7899
2717.913	7914
2719.81	7914
2721.707	7966
2723.603	7931
2725.501	8048
2727.396	7916
2729.292	8075
2731.186	7949
2733.081	7945
2734.976	7816
2736.87	7945
2738.762	7811
2740.653	7912
2742.546	7884
2744.437	7976
2746.329	7947
2748.22	7865
2750.11	7990
2751.999	7863
2753.889	7977
2755.778	7885
2757.666	7892
2759.553	7917
2761.44	7843
2763.328	7886
2765.215	7952
2767.101	7769
2768.986	7862
2770.87	7783
2772.754	7926
2774.638	7979
2776.523	7735
2778.405	7802
2780.288	7791
2782.17	7871
2784.051	7728
2785.934	7822
2787.814	7863
2789.694	7886
2791.574	7847
2793.453	7874
2795.332	7768
2797.212	7912
2799.088	7756
2800.966	7855
2802.843	7838
2804.719	7763
2806.597	7850
2808.471	7853
2810.346	7920
2812.221	7928
2814.094	7749
2815.969	7711
2817.843	7799
2819.714	7696
2821.587	7741
2823.459	7745
2825.329	7735
2827.202	7796
2829.072	7738
2830.942	7791
2832.811	7730
2834.68	7844
2836.549	7798
2838.418	7827
2840.284	7707
2842.152	7729
2844.018	7797
2845.885	7826
2847.751	7702
2849.616	7883
2851.482	7729
2853.345	7761
2855.208	7948
2857.074	7952
2858.937	7805
2860.799	7915
2862.66	7933
2864.522	7936
2866.385	7942
2868.245	8018
2870.104	7924
2871.964	7852
2873.824	8122
2875.683	8054
2877.542	8105
2879.4	8076
2881.257	8172
2883.114	8115
2884.97	8136
2886.827	8193
2888.683	8177
2890.537	8178
2892.392	8133
2894.246	8166
2896.1	8210
2897.954	8150
2899.807	7982
2901.66	8277
2903.51	8058
2905.362	7989
2907.214	8037
2909.065	8007
2910.915	8102
2912.765	8115
2914.613	8251
2916.463	8197
2918.311	8265
2920.158	8287
2922.006	8351
2923.853	8437
2925.698	8526
2927.546	8435
2929.392	8570
2931.236	8710
2933.081	8494
2934.924	8631
2936.77	8668
2938.613	8679
2940.455	8811
2942.298	8775
2944.139	8694
2945.982	8780
2947.823	8684
2949.662	8696
2951.503	8635
2953.342	8595
2955.182	8468
2957.021	8465
2958.858	8528
2960.697	8289
2962.534	8484
2964.37	8437
2966.207	8282
2968.044	8171
2969.879	8326
2971.714	8107
2973.548	8137
2975.383	8143
2977.218	8139
2979.051	8240
2980.883	8114
2982.715	8128
2984.547	8089
2986.379	8118
2988.21	7985
2990.04	8001
2991.87	8017
2993.7	8039
2995.53	7919
2997.359	7950
2999.187	7892
3001.015	7829
3002.842	7760
3004.669	7778
3006.497	7610
3008.323	7749
3010.148	7676
3011.974	7611
3013.797	7574
3015.623	7566
3017.447	7607
3019.27	7565
3021.094	7576
3022.915	7470
3024.737	7498
3026.56	7513
3028.38	7447
3030.201	7419
3032.022	7526
3033.84	7439
3035.662	7400
3037.481	7471
3039.298	7293
3041.117	7369
3042.933	7433
3044.752	7437
3046.568	7343
3048.385	7368
3050.2	7394
3052.016	7374
3053.83	7367
3055.646	7401
3057.46	7294
3059.272	7388
3061.086	7389
3062.898	7481
3064.711	7348
3066.524	7218
3068.335	7415
3070.145	7255
3071.956	7320
3073.766	7406
3075.576	7363
3077.385	7366
3079.193	7387
3081.002	7312
3082.81	7246
3084.618	7256
3086.425	7226
3088.231	7192
3090.036	7136
3091.842	7242
3093.648	7123
3095.452	7123
3097.257	7163
3099.06	7118
3100.863	7198
3102.666	7186
3104.47	7156
3106.272	7097
3108.073	7054
3109.875	7138
3111.676	7209
3113.477	7084
3115.277	7157
3117.077	7080
3118.874	7088
3120.673	7109
3122.473	7049
3124.271	7114
3126.066	7109
3127.863	7161
3129.66	7091
3131.456	7092
3133.252	7114
3135.047	7144
3136.842	7036
3138.635	7140
3140.429	6912
3142.223	7083
3144.016	7053
3145.808	7032
3147.6	7024
3149.392	7040
3151.183	7018
3152.975	6871
3154.765	7003
3156.553	7003
3158.344	7043
3160.132	7073
3161.922	6970
3163.71	6982
3165.497	6960
3167.285	6946
3169.071	6970
3170.858	6973
3172.645	6884
3174.429	6839
3176.214	6891
3177.998	7066
3179.783	6974
3181.568	6919
3183.351	6959
3185.133	6921
3186.915	6881
3188.698	6837
3190.481	7000
3192.261	6944
3194.042	7016
3195.822	6809
3197.601	6970
3199.381	6999
3201.161	6933
3202.939	6854
3204.717	6886
3206.495	6860
3208.272	6846
3210.05	6827
3211.826	6822
3213.602	6884
3215.376	6819
3217.151	6829
3218.927	6817
3220.702	6763
3222.476	6904
3224.249	6867
3226.021	6867
3227.793	6823
3229.567	6751
3231.339	6869
3233.109	6746
3234.88	6915
3236.651	6781
3238.421	6844
3240.191	6752
3241.96	6932
3243.728	6874
3245.497	6697
3247.263	6854
3249.033	6865
3250.799	6841
3252.566	6871
3254.331	6833
3256.097	6854
3257.863	6747
3259.628	6812
3261.392	6744
3263.156	6851
3264.919	6858
3266.683	6854
3268.447	6775
3270.208	6900
3271.969	6725
3273.731	6849
3275.492	6822
3277.253	6732
3279.013	6778
3280.773	6772
3282.532	6847
3284.291	6790
3286.05	6926
3287.808	6831
3289.566	6734
3291.323	6798
3293.079	6728
3294.835	6780
3296.593	6712
3298.348	6857
3300.102	6874
3301.857	6713
3303.611	6863
3305.366	6877
3307.119	6715
3308.872	6813
3310.624	6783
3312.376	6752
3314.129	6864
3315.881	6837
3317.631	6670
3319.38	6718
3321.13	6775
3322.88	6763
3324.631	6708
3326.379	6743
3328.126	6879
3329.875	6804
3331.622	6744
3333.371	6718
3335.116	6792
3336.863	6774
3338.609	6757
3340.353	6796
3342.1	6835
3343.845	6730
3345.588	6704
3347.332	6717
3349.074	6698
3350.817	6759
3352.56	6670
3354.303	6668
3356.043	6793
3357.785	6763
3359.525	6639
3361.268	6626
3363.007	6709
3364.745	6689
3366.485	6689
3368.223	6806
3369.962	6652
3371.701	6664
3373.438	6658
3375.174	6717
3376.911	6684
3378.647	6637
3380.384	6644
3382.118	6680
3383.854	6591
3385.588	6583
3387.322	6714
3389.057	6745
3390.79	6558
3392.522	6554
3394.255	6661
3395.987	6534
3397.719	6658
3399.451	6590
3401.181	6524
3402.911	6487
3404.641	6527
3406.371	6471
3408.101	6631
3409.83	6689
3411.558	6508
3413.285	6575
3415.011	6476
3416.739	6554
3418.467	6548
3420.193	6497
3421.919	6489
3423.644	6552
3425.368	6436
3427.094	6506
3428.818	6445
3430.542	6443
3432.264	6404
3433.987	6566
3435.712	6404
3437.434	6455
3439.155	6474
3440.876	6460
3442.596	6395
3444.317	6427
3446.039	6473
3447.757	6343
3449.477	6413
3451.195	6393
3452.914	6391
3454.632	6274
3456.35	6417
3458.067	6309
3459.784	6460
3461.5	6356
3463.216	6305
3464.932	6334
3466.647	6326
3468.362	6314
3470.076	6316
3471.789	6170
3473.505	6214
3475.217	6362
3476.929	6348
3478.641	6326
3480.354	6192
3482.066	6262
3483.777	6249
3485.487	6090
3487.197	6422
3488.908	6261
3490.617	6305
3492.327	6252
3494.035	6255
3495.743	6169
3497.451	6286
3499.158	6177
3500.866	6106
3502.572	6201
3504.278	6204
3505.984	6073
3507.689	6195
3509.396	6233
3511.1	6158
3512.804	6117
3514.508	6164
3516.211	6171
3517.913	6203
3519.616	6169
3521.319	6130
3523.021	6204
3524.722	6096
3526.422	6072
3528.124	6128
3529.824	6170
3531.524	6168
3533.222	6102
3534.921	6040
3536.62	6078
3538.318	6154
3540.016	6105
3541.714	6112
3543.41	6158
3545.107	6048
3546.803	6077
3548.5	6111
3550.194	5994
3551.889	6065
3553.583	6025
3555.279	6149
3556.972	6032
3558.666	5981
3560.358	6003
3562.051	6097
3563.742	6106
3565.435	6038
3567.126	6030
3568.817	5976
3570.507	5952
3572.197	6097
3573.888	5921
3575.577	5885
3577.265	5923
3578.954	5902
3580.642	5958
3582.329	5966
3584.017	5911
3585.704	5838
3587.391	5917
3589.077	5962
3590.762	5983
3592.449	5900
3594.133	5901
3595.817	5852
3597.501	5904
3599.185	5948
3600.869	5752
3602.552	5801
3604.234	5825
3605.916	5822
3607.598	5917
3609.279	5796
3610.961	5873
3612.642	5894
3614.321	5840
3616	5937
3617.68	5726
3619.36	5799
3621.039	5802
3622.716	5816
3624.394	5742
3626.071	5658
3627.748	5745
3629.425	5766
3631.102	5757
3632.778	5777
3634.452	5669
3636.127	5828
3637.803	5778
3639.477	5745
3641.151	5644
3642.823	5691
3644.497	5704
3646.171	5725
3647.842	5702
3649.515	5595
3651.185	5634
3652.857	5631
3654.527	5664
3656.198	5858
3657.868	5589
3659.537	5719
3661.207	5537
3662.875	5615
3664.544	5677
3666.212	5645
3667.879	5616
3669.546	5620
3671.212	5545
3672.88	5628
3674.546	5552
3676.211	5718
3677.875	5639
3679.541	5552
3681.205	5570
3682.87	5616
3684.533	5556
3686.196	5514
3687.859	5625
3689.521	5500
3691.184	5600
3692.845	5573
3694.507	5455
3696.167	5497
3697.827	5543
3699.487	5573
3701.148	5615
3702.808	5538
3704.466	5616
3706.125	5653
3707.783	5527
3709.442	5456
3711.099	5604
3712.757	5559
3714.412	5437
3716.068	5498
3717.725	5434
3719.381	5475
3721.036	5424
3722.689	5445
3724.344	5478
3725.998	5437
3727.652	5466
3729.305	5513
3730.958	5443
3732.61	5453
3734.262	5494
3735.915	5392
3737.565	5439
3739.217	5448
3740.866	5497
3742.516	5472
3744.165	5505
3745.816	5439
3747.464	5545
3749.113	5410
3750.761	5358
3752.409	5423
3754.057	5382
3755.703	5413
3757.35	5279
3758.996	5455
3760.641	5525
3762.289	5384
3763.933	5367
3765.577	5448
3767.222	5250
3768.865	5329
3770.508	5348
3772.152	5479
3773.796	5341
3775.438	5347
3777.079	5458
3778.721	5374
3780.363	5247
3782.003	5234
3783.643	5397
3785.283	5283
3786.923	5316
3788.563	5313
3790.203	5212
3791.841	5304
3793.479	5341
3795.115	5312
3796.753	5306
3798.391	5269
3800.027	5213
3801.664	5156
3803.299	5210
3804.935	5202
3806.571	5351
3808.206	5178
3809.839	5176
3811.473	5231
3813.107	5154
3814.74	5200
3816.375	5252
3818.006	5280
3819.638	5306
3821.27	5296
3822.9	5268
3824.532	5227
3826.163	5155
3827.792	5025
3829.423	5135
3831.051	5151
3832.682	5094
3834.311	5132
3835.938	5117
3837.566	5207
3839.193	5128
3840.821	5244
3842.448	5199
3844.075	5054
3845.7	5170
3847.325	5152
3848.951	5134
3850.576	5202
3852.201	5103
3853.825	5092
3855.448	5066
3857.072	5064
3858.694	5142
3860.318	5056
3861.939	5167
3863.562	5116
3865.183	5167
3866.804	5026
3868.426	5087
3870.045	5075
3871.666	5111
3873.285	5143
3874.904	5063
3876.524	5078
3878.142	5095
3879.76	4998
3881.378	5053
3882.995	4989
3884.612	5088
3886.229	4999
3887.845	5006
3889.461	5057
3891.076	5083
3892.691	5054
3894.307	5028
3895.922	5044
3897.536	5054
3899.149	4910
3900.761	4946
3902.374	5046
3903.988	5053
3905.6	5035
3907.212	4912
3908.822	5028
3910.433	4929
3912.045	4934
3913.655	5003
3915.265	4926
3916.875	5006
3918.483	4981
3920.093	5057
3921.702	4991
3923.309	4990
3924.917	4982
3926.523	4898
3928.13	5060
3929.739	5022
3931.344	5010
3932.95	4936
3934.555	4979
3936.159	4936
3937.766	4992
3939.369	4828
3940.974	5041
3942.577	4924
3944.181	4883
3945.783	4960
3947.386	4891
3948.989	4954
3950.59	4934
3952.191	4861
3953.791	4856
3955.394	4907
3956.994	4952
3958.593	4906
3960.192	4957
3961.791	4913
3963.392	4773
3964.99	4828
3966.588	4860
3968.185	4936
3969.782	4819
3971.379	4850
3972.976	4837
3974.572	4854
3976.168	4843
3977.763	4866
3979.358	4793
3980.954	4809
3982.548	4894
3984.142	4864
3985.736	4811
3987.329	4763
3988.922	4774
3990.516	4752
3992.108	4809
3993.698	4750
3995.29	4713
3996.881	4757
3998.473	4773
4000.064	4725
4001.653	4730
4003.242	4710
4004.832	4702
4006.422	4689
4008.01	4725
4009.598	4707
4011.186	4642
4012.773	4719
4014.36	4656
4015.947	4670
4017.534	4673
4019.119	4688
4020.705	4694
4022.291	4709
4023.876	4733
4025.461	4606
4027.044	4628
4028.627	4665
4030.211	4567
4031.795	4648
4033.378	4640
4034.96	4682
4036.542	4635
4038.124	4714
4039.704	4515
4041.286	4540
4042.867	4642
4044.447	4584
4046.026	4671
4047.606	4512
4049.187	4558
4050.765	4541
4052.343	4582
4053.92	4653
4055.498	4529
4057.076	4565
4058.654	4417
4060.23	4508
4061.806	4529
4063.381	4523
4064.957	4553
4066.533	4537
4068.107	4569
4069.682	4512
4071.256	4529
4072.829	4496
4074.404	4544
4075.977	4539
4077.549	4605
4079.121	4567
4080.693	4468
4082.265	4493
4083.836	4446
4085.407	4521
4086.977	4467
4088.547	4534
4090.117	4510
4091.687	4492
4093.256	4455
4094.825	4519
4096.392	4479
4097.96	4529
4099.528	4412
4101.097	4492
4102.663	4373
4104.229	4485
4105.795	4439
4107.361	4425
4108.928	4467
4110.493	4448
4112.058	4300
4113.621	4399
4115.186	4363
4116.75	4414
4118.313	4394
4119.876	4398
4121.438	4409
4123	4536
4124.562	4359
4126.125	4377
4127.686	4397
4129.246	4485
4130.807	4309
4132.367	4231
4133.927	4251
4135.486	4339
4137.046	4294
4138.604	4347
4140.162	4391
4141.72	4318
4143.279	4316
4144.836	4334
4146.393	4371
4147.949	4223
4149.505	4260
4151.062	4303
4152.617	4304
4154.172	4274
4155.727	4244
4157.281	4270
4158.836	4303
4160.39	4352
4161.943	4212
4163.496	4275
4165.048	4339
4166.601	4248
4168.154	4231
4169.706	4276
4171.257	4248
4172.808	4207
4174.358	4167
4175.909	4207
4177.458	4205
4179.008	4250
4180.558	4228
4182.106	4241
4183.655	4223
4185.204	4191
4186.751	4168
4188.298	4079
4189.845	4122
4191.392	4154
4192.939	4223
4194.485	4116
4196.031	4135
4197.576	4184
4199.121	4214
4200.666	4158
4202.211	4134
4203.754	4225
4205.298	4093
4206.84	4143
4208.384	4078
4209.927	4077
4211.47	4009
4213.011	4125
4214.552	4023
4216.094	4168
4217.635	4087
4219.175	4106
4220.716	4077
4222.255	4055
4223.793	4081
4225.335	4131
4226.873	4160
4228.411	4044
4229.948	4152
4231.486	4073
4233.024	4100
4234.562	4089
4236.098	4020
4237.634	4109
4239.169	4058
4240.705	4126
4242.241	3962
4243.776	4063
4245.31	4040
4246.844	4092
4248.378	4121
4249.911	3955
4251.445	4167
4252.978	4032
4254.51	4040
4256.042	4093
4257.574	4004
4259.107	4054
4260.638	4020
4262.169	3968
4263.699	4039
4265.228	4008
4266.759	3985
4268.289	4036
4269.818	3952
4271.345	4055
4272.874	4027
4274.402	4001
4275.931	3939
4277.458	3963
4278.985	3989
4280.512	3986
4282.037	3976
4283.564	3913
4285.089	3978
4286.615	3960
4288.139	3921
4289.664	3905
4291.187	3989
4292.712	3840
4294.235	4005
4295.759	3921
4297.281	3937
4298.804	3928
4300.327	3906
4301.849	3948
4303.37	3898
4304.891	3903
4306.412	3913
4307.933	3985
4309.453	3858
4310.973	3831
4312.492	3891
