398.1873	3563
400.7097	3668
403.2336	3663
405.7547	3643
408.2751	3595
410.7948	3657
413.3138	3783
415.83	3664
418.3497	3730
420.8666	3842
423.3829	3721
425.8985	3781
428.4133	3828
430.9275	3887
433.441	3901
435.9538	3784
438.4639	3917
440.9753	3848
443.4881	3778
445.9982	3827
448.5055	3886
451.0142	3883
453.5201	3878
456.0274	3948
458.5361	3865
461.04	3995
463.5453	3863
466.0478	3869
468.5517	3793
471.0549	3873
473.5574	3875
476.0572	3946
478.5584	3962
481.0568	3953
483.5545	3890
486.0557	3982
488.5521	3924
491.0478	3892
493.5449	3932
496.0392	3938
498.5349	3957
501.0299	3949
503.5222	4000
506.0139	3992
508.5048	4064
510.9991	4012
513.4887	4055
515.9777	3929
518.4659	3932
520.9534	4004
523.4403	3973
525.9306	4002
528.4161	3999
530.9009	4131
533.3851	4073
535.8687	4030
538.3535	4079
540.8356	4019
543.3171	4029
545.7979	4009
548.278	4025
550.7595	4111
553.2383	4080
555.7144	4048
558.1918	4048
560.6685	4109
563.1446	4133
565.6221	4146
568.0968	4079
570.5688	4119
573.0422	4165
575.515	4158
577.989	4128
580.4584	4248
582.9291	4130
585.3991	4165
587.8685	4244
590.3352	4166
592.8052	4128
595.2706	4207
597.7372	4139
600.2033	4074
602.6666	4112
605.1334	4136
607.5953	4241
610.0587	4164
612.5193	4163
614.9814	4121
617.4427	4083
619.9034	4137
622.3615	4177
624.8208	4223
627.2775	4159
629.7335	4124
632.1929	4080
634.6476	4115
637.1016	4021
639.5569	4048
642.0096	4184
644.4637	4175
646.9151	4298
649.3678	4277
651.8179	4051
654.2672	4251
656.7159	4279
659.166	4251
661.6154	4236
664.0622	4179
666.5082	4251
668.9537	4248
671.4005	4163
673.8445	4347
676.288	4226
678.7308	4245
681.1729	4213
683.6163	4270
686.0572	4335
688.4973	4271
690.9368	4287
693.3757	4306
695.8138	4281
698.2534	4257
700.6902	4315
703.1245	4310
705.56	4344
707.9949	4356
710.4311	4376
712.8647	4357
715.2957	4319
717.7279	4502
720.1595	4353
722.5905	4391
725.0208	4464
727.4505	4484
729.8795	4415
732.3058	4499
734.7336	4445
737.1626	4461
739.587	4463
742.0128	4539
744.4359	4438
746.8604	4557
749.2841	4513
751.7073	4536
754.1278	4533
756.5496	4593
758.9688	4577
761.3893	4612
763.8093	4523
766.2285	4599
768.6451	4603
771.0611	4586
773.4784	4512
775.895	4567
778.3091	4566
780.7244	4575
783.1371	4547
785.5493	4600
787.9626	4598
790.3754	4538
792.7856	4549
795.1951	4582
797.6039	4662
800.0121	4645
802.4236	4624
804.8306	4722
807.2369	4706
809.6425	4661
812.0475	4666
814.4538	4702
816.8575	4673
819.2606	4691
821.663	4623
824.0648	4678
826.4659	4610
828.8683	4610
831.2682	4589
833.6674	4605
836.066	4604
838.4639	4691
840.8632	4622
843.2579	4525
845.6539	4711
848.0493	4730
850.444	4724
852.84	4660
855.2315	4758
857.6243	4691
860.0165	4688
862.4081	4696
864.797	4691
867.1892	4767
869.5789	4648
871.9659	4708
874.3542	4746
876.74	4782
879.129	4679
881.5155	4769
883.8994	4721
886.2845	4777
888.6671	4686
891.051	4657
893.4343	4635
895.8169	4729
898.197	4553
900.5783	4687
902.9571	4755
905.3372	4701
907.7167	4769
910.0936	4707
912.4698	4781
914.8474	4875
917.2244	4881
919.5987	4749
921.9744	4868
924.3475	4885
926.72	4858
929.0918	4860
931.4669	4852
933.8375	4896
936.2074	5000
938.5767	5022
940.9454	5051
943.3154	5122
945.6829	5138
948.0497	5218
950.4178	5414
952.7833	5456
955.1483	5636
957.5145	5849
959.8782	5899
962.2412	5814
964.6036	5645
966.9655	5626
969.3266	5412
971.6871	5232
974.0471	5118
976.4064	5104
978.765	4995
981.125	4965
983.4824	4975
985.8373	4922
988.1935	4871
990.549	4962
992.9039	4877
995.2602	5008
997.6119	4818
999.965	4972
1002.317	4855
1004.667	4923
1007.02	4974
1009.371	4948
1011.719	4847
1014.068	4926
1016.415	4960
1018.765	4979
1021.111	4961
1023.458	4965
1025.804	4929
1028.147	5032
1030.49	4923
1032.837	5008
1035.179	5058
1037.522	5009
1039.862	5053
1042.204	5005
1044.546	5070
1046.884	5002
1049.224	4953
1051.562	5041
1053.899	4964
1056.237	5048
1058.575	5080
1060.91	5096
1063.244	5139
1065.58	5079
1067.913	5161
1070.248	5119
1072.579	5045
1074.911	5162
1077.242	5055
1079.572	4940
1081.905	5068
1084.234	5007
1086.562	5095
1088.89	4946
1091.217	5029
1093.544	5051
1095.871	5055
1098.197	5054
1100.521	5073
1102.845	5082
1105.169	5000
1107.491	5021
1109.814	5028
1112.135	5098
1114.456	5021
1116.776	5089
1119.096	5139
1121.415	5024
1123.734	5083
1126.052	5133
1128.369	5046
1130.686	5004
1133.002	5131
1135.318	5039
1137.632	5076
1139.945	5073
1142.258	5088
1144.573	5065
1146.884	5013
1149.196	5098
1151.505	5045
1153.816	5046
1156.124	5036
1158.435	5067
1160.742	5091
1163.051	5153
1165.356	5065
1167.663	5087
1169.97	5029
1172.276	5158
1174.579	5057
1176.881	5124
1179.186	5116
1181.487	5081
1183.79	5188
1186.092	5041
1188.392	5166
1190.691	5110
1192.991	5055
1195.291	5108
1197.588	5106
1199.885	5067
1202.181	5130
1204.479	5099
1206.775	5096
1209.07	5084
1211.363	5122
1213.656	5096
1215.949	5066
1218.241	5115
1220.534	5110
1222.825	5150
1225.115	5117
1227.405	5181
1229.693	5172
1231.984	5227
1234.271	5262
1236.558	5217
1238.845	5294
1241.131	5249
1243.416	5345
1245.703	5206
1247.987	5256
1250.269	5168
1252.552	5299
1254.834	5222
1257.118	5149
1259.399	5195
1261.678	5267
1263.958	5165
1266.237	5250
1268.516	5257
1270.794	5310
1273.072	5335
1275.347	5202
1277.624	5270
1279.899	5287
1282.175	5304
1284.449	5215
1286.722	5200
1288.995	5288
1291.266	5230
1293.54	5266
1295.81	5299
1298.081	5159
1300.35	5198
1302.62	5299
1304.889	5203
1307.156	5151
1309.425	5270
1311.69	5204
1313.957	5307
1316.222	5204
1318.488	5144
1320.751	5201
1323.016	5309
1325.278	5244
1327.54	5323
1329.803	5255
1332.065	5306
1334.325	5263
1336.584	5293
1338.843	5242
1341.101	5325
1343.36	5235
1345.617	5283
1347.876	5250
1350.131	5266
1352.387	5261
1354.643	5216
1356.897	5267
1359.151	5291
1361.403	5296
1363.656	5242
1365.909	5382
1368.16	5369
1370.409	5317
1372.659	5320
1374.909	5312
1377.157	5321
1379.407	5306
1381.655	5370
1383.9	5270
1386.147	5341
1388.393	5339
1390.64	5358
1392.885	5379
1395.127	5282
1397.37	5402
1399.614	5335
1401.854	5359
1404.098	5375
1406.339	5488
1408.578	5345
1410.818	5433
1413.056	5295
1415.297	5405
1417.533	5450
1419.771	5375
1422.006	5425
1424.243	5420
1426.479	5378
1428.715	5402
1430.948	5388
1433.182	5377
1435.414	5341
1437.647	5504
1439.88	5505
1442.11	5360
1444.342	5386
1446.571	5418
1448.799	5495
1451.029	5459
1453.258	5522
1455.485	5498
1457.711	5449
1459.937	5450
1462.164	5385
1464.39	5457
1466.614	5500
1468.838	5419
1471.06	5339
1473.283	5339
1475.506	5440
1477.727	5434
1479.949	5425
1482.169	5303
1484.389	5347
1486.609	5431
1488.828	5384
1491.045	5304
1493.261	5428
1495.477	5406
1497.693	5380
1499.91	5405
1502.125	5432
1504.339	5331
1506.553	5398
1508.766	5277
1510.979	5277
1513.191	5403
1515.402	5450
1517.613	5320
1519.823	5281
1522.033	5374
1524.242	5372
1526.451	5405
1528.657	5340
1530.865	5306
1533.072	5451
1535.278	5378
1537.484	5409
1539.687	5422
1541.892	5495
1544.096	5374
1546.299	5330
1548.502	5461
1550.703	5470
1552.905	5377
1555.104	5331
1557.303	5487
1559.505	5381
1561.703	5482
1563.902	5463
1566.099	5427
1568.295	5519
1570.494	5493
1572.689	5403
1574.883	5508
1577.079	5510
1579.272	5467
1581.467	5536
1583.659	5528
1585.853	5576
1588.044	5526
1590.234	5503
1592.424	5501
1594.615	5564
1596.806	5604
1598.994	5546
1601.182	5534
1603.369	5613
1605.557	5622
1607.744	5498
1609.929	5578
1612.114	5570
1614.298	5598
1616.482	5577
1618.667	5516
1620.85	5655
1623.032	5580
1625.214	5613
1627.395	5605
1629.575	5607
1631.755	5615
1633.935	5650
1636.114	5515
1638.292	5630
1640.471	5624
1642.647	5572
1644.823	5630
1647	5547
1649.175	5672
1651.348	5693
1653.525	5675
1655.698	5666
1657.87	5602
1660.043	5707
1662.213	5642
1664.387	5619
1666.558	5745
1668.727	5676
1670.896	5656
1673.064	5567
1675.233	5669
1677.401	5506
1679.569	5542
1681.735	5735
1683.902	5665
1686.066	5671
1688.233	5609
1690.397	5609
1692.559	5581
1694.723	5617
1696.885	5618
1699.048	5626
1701.21	5695
1703.37	5582
1705.53	5705
1707.689	5651
1709.849	5606
1712.009	5546
1714.166	5550
1716.323	5656
1718.479	5545
1720.634	5470
1722.793	5567
1724.948	5612
1727.102	5583
1729.255	5557
1731.408	5675
1733.562	5546
1735.714	5595
1737.865	5583
1740.016	5692
1742.166	5635
1744.316	5526
1746.467	5562
1748.616	5701
1750.764	5536
1752.911	5543
1755.056	5644
1757.205	5623
1759.35	5642
1761.496	5620
1763.641	5534
1765.785	5655
1767.927	5696
1770.072	5745
1772.214	5657
1774.355	5664
1776.496	5556
1778.637	5740
1780.778	5642
1782.918	5684
1785.057	5602
1787.194	5696
1789.333	5730
1791.472	5753
1793.608	5686
1795.745	5713
1797.879	5784
1800.015	5761
1802.148	5733
1804.284	5787
1806.417	5706
1808.548	5673
1810.682	5705
1812.812	5654
1814.946	5702
1817.075	5766
1819.205	5750
1821.335	5671
1823.463	5675
1825.59	5681
1827.721	5664
1829.847	5699
1831.973	5603
1834.098	5628
1836.223	5614
1838.351	5660
1840.475	5609
1842.598	5610
1844.721	5649
1846.843	5676
1848.966	5719
1851.087	5671
1853.21	5695
1855.33	5761
1857.449	5552
1859.568	5661
1861.688	5762
1863.806	5633
1865.924	5657
1868.039	5678
1870.155	5659
1872.273	5706
1874.388	5603
1876.503	5590
1878.617	5691
1880.73	5766
1882.844	5592
1884.956	5704
1887.068	5743
1889.18	5629
1891.291	5725
1893.4	5609
1895.511	5668
1897.621	5807
1899.73	5822
1901.837	5752
1903.944	5857
1906.053	5735
1908.159	5757
1910.265	5819
1912.369	5845
1914.474	5719
1916.577	5737
1918.683	5763
1920.785	5739
1922.888	5799
1924.989	5838
1927.091	5801
1929.193	5788
1931.294	5758
1933.393	5761
1935.493	5694
1937.59	5839
1939.689	5865
1941.788	5865
1943.884	5803
1945.98	5821
1948.077	5863
1950.171	5829
1952.267	5762
1954.361	5897
1956.455	5779
1958.548	5797
1960.64	5756
1962.733	5805
1964.824	5760
1966.915	5865
1969.005	5730
1971.096	5764
1973.185	5865
1975.275	5666
1977.363	5860
1979.45	5760
1981.537	5762
1983.623	5854
1985.711	5740
1987.796	5750
1989.881	5808
1991.965	5870
1994.047	5824
1996.132	5772
1998.215	5854
2000.297	5740
2002.378	5757
2004.46	5742
2006.54	5782
2008.62	5711
2010.7	5828
2012.779	5722
2014.858	5756
2016.934	5761
2019.013	5739
2021.09	5777
2023.165	5781
2025.241	5839
2027.317	5749
2029.39	5756
2031.466	5792
2033.538	5719
2035.612	5926
2037.683	5628
2039.755	5849
2041.827	5686
2043.898	5766
2045.968	5778
2048.038	5676
2050.106	5769
2052.177	5784
2054.244	5871
2056.313	5863
2058.379	5894
2060.444	5739
2062.511	5799
2064.577	5819
2066.641	5932
2068.705	5933
2070.77	5794
2072.832	5790
2074.896	5816
2076.958	5737
2079.02	5755
2081.081	5889
2083.141	5715
2085.2	5888
2087.261	5745
2089.319	5777
2091.377	5804
2093.435	5920
2095.492	5943
2097.552	5783
2099.607	5702
2101.663	5839
2103.718	5820
2105.771	5838
2107.826	5880
2109.879	5771
2111.932	5818
2113.985	5838
2116.037	5767
2118.088	5885
2120.141	5721
2122.191	5848
2124.239	5872
2126.288	5838
2128.337	5795
2130.387	5704
2132.434	5806
2134.481	5893
2136.528	5906
2138.574	5797
2140.618	5856
2142.665	5868
2144.71	5785
2146.753	5848
2148.797	5758
2150.838	5929
2152.883	5759
2154.923	5870
2156.965	5768
2159.007	5867
2161.046	5743
2163.086	5910
2165.126	5726
2167.163	5823
2169.202	5812
2171.239	5730
2173.277	5741
2175.314	5872
2177.349	5692
2179.385	5625
2181.42	5692
2183.453	5768
2185.49	5674
2187.522	5745
2189.555	5796
2191.586	5780
2193.619	5693
2195.651	5730
2197.682	5754
2199.711	5690
2201.74	5719
2203.769	5732
2205.799	5752
2207.828	5712
2209.855	5686
2211.882	5726
2213.908	5707
2215.934	5743
2217.961	5765
2219.986	5717
2222.01	5717
2224.034	5707
2226.057	5694
2228.08	5732
2230.104	5730
2232.124	5749
2234.145	5662
2236.166	5673
2238.186	5711
2240.207	5728
2242.227	5748
2244.244	5641
2246.262	5756
2248.28	5828
2250.299	5720
2252.314	5698
2254.33	5761
2256.346	5800
2258.36	5717
2260.375	5725
2262.391	5689
2264.403	5687
2266.416	5822
2268.427	5728
2270.44	5751
2272.453	5745
2274.463	5713
2276.474	5686
2278.483	5820
2280.493	5719
2282.501	5731
2284.51	5772
2286.518	5741
2288.524	5676
2290.532	5735
2292.537	5773
2294.544	5770
2296.55	5698
2298.554	5738
2300.557	5744
2302.562	5732
2304.566	5788
2306.568	5779
2308.569	5698
2310.572	5823
2312.573	5707
2314.573	5736
2316.574	5744
2318.573	5744
2320.571	5796
2322.571	5735
2324.569	5660
2326.567	5737
2328.564	5773
2330.56	5744
2332.556	5701
2334.551	5711
2336.546	5697
2338.542	5682
2340.535	5697
2342.529	5648
2344.521	5728
2346.512	5655
2348.505	5711
2350.497	5657
2352.487	5759
2354.478	5607
2356.468	5638
2358.457	5565
2360.446	5690
2362.434	5628
2364.422	5661
2366.408	5721
2368.395	5700
2370.383	5639
2372.369	5604
2374.353	5587
2376.338	5736
2378.321	5609
2380.307	5653
2382.29	5591
2384.272	5639
2386.254	5637
2388.235	5598
2390.218	5580
2392.198	5592
2394.179	5664
2396.157	5597
2398.137	5693
2400.115	5606
2402.095	5662
2404.072	5634
2406.048	5671
2408.026	5572
2410.001	5611
2411.977	5727
2413.953	5561
2415.927	5583
2417.9	5673
2419.875	5680
2421.847	5633
2423.821	5586
2425.792	5565
2427.763	5615
2429.736	5663
2431.706	5598
2433.677	5613
2435.646	5654
2437.615	5678
2439.583	5640
2441.551	5717
2443.519	5653
2445.486	5576
2447.452	5730
2449.418	5613
2451.383	5592
2453.348	5605
2455.314	5626
2457.278	5630
2459.241	5614
2461.205	5615
2463.167	5605
2465.131	5635
2467.091	5717
2469.052	5599
2471.012	5558
2472.972	5588
2474.932	5556
2476.891	5605
2478.85	5702
2480.808	5648
2482.766	5713
2484.722	5488
2486.68	5622
2488.636	5629
2490.591	5609
2492.546	5556
2494.5	5617
2496.456	5576
2498.41	5620
2500.362	5668
2502.315	5519
2504.266	5565
2506.218	5561
2508.169	5499
2510.121	5511
2512.07	5721
2514.019	5658
2515.968	5524
2517.918	5490
2519.866	5570
2521.813	5577
2523.76	5662
2525.707	5590
2527.653	5567
2529.599	5591
2531.543	5586
2533.489	5573
2535.433	5504
2537.376	5540
2539.32	5445
2541.264	5568
2543.205	5545
2545.147	5592
2547.087	5449
2549.029	5579
2550.969	5525
2552.908	5534
2554.847	5585
2556.786	5576
2558.724	5559
2560.663	5575
2562.6	5624
2564.537	5656
2566.473	5599
2568.408	5548
2570.345	5544
2572.28	5536
2574.214	5573
2576.148	5455
2578.081	5475
2580.014	5605
2581.947	5545
2583.879	5582
2585.81	5556
2587.741	5529
2589.67	5590
2591.602	5551
2593.532	5548
2595.461	5629
2597.388	5659
2599.316	5598
2601.244	5553
2603.172	5647
2605.098	5635
2607.023	5715
2608.949	5569
2610.873	5673
2612.8	5577
2614.723	5520
2616.647	5699
2618.569	5736
2620.493	5692
2622.416	5536
2624.338	5619
2626.258	5613
2628.179	5665
2630.099	5590
2632.019	5589
2633.939	5562
2635.857	5682
2637.775	5658
2639.694	5604
2641.61	5692
2643.528	5634
2645.444	5708
2647.361	5610
2649.276	5614
2651.19	5621
2653.105	5641
2655.019	5649
2656.934	5530
2658.846	5548
2660.758	5567
2662.67	5565
2664.583	5646
2666.493	5592
2668.404	5559
2670.313	5585
2672.223	5626
2674.134	5544
2676.042	5655
2677.95	5563
2679.858	5619
2681.765	5503
2683.673	5623
2685.579	5618
2687.483	5491
2689.389	5638
2691.294	5591
2693.198	5604
2695.104	5586
2697.006	5664
2698.909	5637
2700.811	5593
2702.713	5612
2704.615	5578
2706.516	5402
2708.417	5604
2710.316	5498
2712.216	5499
2714.115	5651
2716.014	5603
2717.913	5601
2719.81	5519
2721.707	5580
2723.603	5581
2725.501	5561
2727.396	5550
2729.292	5454
2731.186	5500
2733.081	5627
2734.976	5493
2736.87	5687
2738.762	5444
2740.653	5527
2742.546	5540
2744.437	5537
2746.329	5492
2748.22	5545
2750.11	5548
2751.999	5466
2753.889	5515
2755.778	5607
2757.666	5451
2759.553	5605
2761.44	5600
2763.328	5510
2765.215	5423
2767.101	5599
2768.986	5575
2770.87	5538
2772.754	5502
2774.638	5598
2776.523	5529
2778.405	5539
2780.288	5450
2782.17	5644
2784.051	5557
2785.934	5459
2787.814	5539
2789.694	5471
2791.574	5571
2793.453	5567
2795.332	5534
2797.212	5491
2799.088	5514
2800.966	5426
2802.843	5511
2804.719	5472
2806.597	5575
2808.471	5564
2810.346	5568
2812.221	5530
2814.094	5487
2815.969	5432
2817.843	5389
2819.714	5502
2821.587	5494
2823.459	5492
2825.329	5559
2827.202	5486
2829.072	5496
2830.942	5559
2832.811	5465
2834.68	5590
2836.549	5438
2838.418	5394
2840.284	5458
2842.152	5581
2844.018	5460
2845.885	5322
2847.751	5523
2849.616	5412
2851.482	5420
2853.345	5600
2855.208	5577
2857.074	5555
2858.937	5618
2860.799	5547
2862.66	5500
2864.522	5576
2866.385	5627
2868.245	5607
2870.104	5600
2871.964	5705
2873.824	5612
2875.683	5644
2877.542	5738
2879.4	5565
2881.257	5695
2883.114	5754
2884.97	5687
2886.827	5703
2888.683	5762
2890.537	5663
2892.392	5714
2894.246	5788
2896.1	5779
2897.954	5740
2899.807	5688
2901.66	5772
2903.51	5680
2905.362	5745
2907.214	5640
2909.065	5742
2910.915	5763
2912.765	5775
2914.613	5758
2916.463	5861
2918.311	5715
2920.158	5826
2922.006	5970
2923.853	5836
2925.698	5895
2927.546	5939
2929.392	5952
2931.236	5916
2933.081	6023
2934.924	6043
2936.77	6048
2938.613	5976
2940.455	5969
2942.298	6077
2944.139	6071
2945.982	6120
2947.823	6138
2949.662	6122
2951.503	6049
2953.342	6110
2955.182	6031
2957.021	6042
2958.858	6096
2960.697	5950
2962.534	5842
2964.37	5959
2966.207	5754
2968.044	5789
2969.879	5901
2971.714	5742
2973.548	5684
2975.383	5819
2977.218	5699
2979.051	5726
2980.883	5729
2982.715	5692
2984.547	5626
2986.379	5598
2988.21	5646
2990.04	5620
2991.87	5664
2993.7	5520
2995.53	5562
2997.359	5581
2999.187	5632
3001.015	5528
3002.842	5599
3004.669	5498
3006.497	5568
3008.323	5471
3010.148	5348
3011.974	5352
3013.797	5452
3015.623	5325
3017.447	5421
3019.27	5376
3021.094	5493
3022.915	5378
3024.737	5364
3026.56	5350
3028.38	5388
3030.201	5390
3032.022	5404
3033.84	5250
3035.662	5355
3037.481	5343
3039.298	5299
3041.117	5357
3042.933	5351
3044.752	5160
3046.568	5360
3048.385	5340
3050.2	5360
3052.016	5363
3053.83	5277
3055.646	5314
3057.46	5235
3059.272	5333
3061.086	5305
3062.898	5277
3064.711	5152
3066.524	5329
3068.335	5209
3070.145	5339
3071.956	5280
3073.766	5254
3075.576	5317
3077.385	5291
3079.193	5245
3081.002	5178
3082.81	5207
3084.618	5313
3086.425	5182
3088.231	5152
3090.036	5175
3091.842	5268
3093.648	5223
3095.452	5174
3097.257	5285
3099.06	5181
3100.863	5210
3102.666	5199
3104.47	5214
3106.272	5113
3108.073	5279
3109.875	5144
3111.676	5195
3113.477	5086
3115.277	5104
3117.077	5123
3118.874	5115
3120.673	5099
3122.473	5158
3124.271	5151
3126.066	5039
3127.863	5010
3129.66	5124
3131.456	5143
3133.252	5220
3135.047	5149
3136.842	5128
3138.635	5089
3140.429	5125
3142.223	5033
3144.016	5110
3145.808	5030
3147.6	5111
3149.392	5077
3151.183	5093
3152.975	5103
3154.765	5126
3156.553	4968
3158.344	5059
3160.132	5124
3161.922	5096
3163.71	5068
3165.497	5066
3167.285	5029
3169.071	5089
3170.858	5015
3172.645	5002
3174.429	5039
3176.214	5049
3177.998	4889
3179.783	4982
3181.568	5018
3183.351	5044
3185.133	5097
3186.915	5004
3188.698	5050
3190.481	5034
3192.261	5006
3194.042	5047
3195.822	4989
3197.601	4981
3199.381	5017
3201.161	4982
3202.939	5014
3204.717	5069
3206.495	5021
3208.272	4973
3210.05	5026
3211.826	5023
3213.602	5011
3215.376	4948
3217.151	5100
3218.927	5038
3220.702	4996
3222.476	5047
3224.249	5141
3226.021	4950
3227.793	5000
3229.567	5036
3231.339	5024
3233.109	4882
3234.88	4978
3236.651	5050
3238.421	4988
3240.191	5026
3241.96	4995
3243.728	4907
3245.497	4815
3247.263	5038
3249.033	4967
3250.799	4832
3252.566	4966
3254.331	4901
3256.097	5017
3257.863	5006
3259.628	4957
3261.392	4972
3263.156	4908
3264.919	4883
3266.683	4982
3268.447	4986
3270.208	4902
3271.969	4917
3273.731	4958
3275.492	5015
3277.253	4918
3279.013	4965
3280.773	4911
3282.532	5078
3284.291	4970
3286.05	4996
3287.808	5050
3289.566	4962
3291.323	5019
3293.079	4833
3294.835	4986
3296.593	5030
3298.348	4931
3300.102	4957
3301.857	4947
3303.611	4998
3305.366	5049
3307.119	4918
3308.872	4922
3310.624	4930
3312.376	4866
3314.129	4959
3315.881	4870
3317.631	4937
3319.38	4967
3321.13	4937
3322.88	4888
3324.631	5050
3326.379	4849
3328.126	4915
3329.875	4887
3331.622	4896
3333.371	4960
3335.116	4894
3336.863	4872
3338.609	4868
3340.353	4990
3342.1	4902
3343.845	4861
3345.588	4963
3347.332	4903
3349.074	4862
3350.817	4919
3352.56	4819
3354.303	4898
3356.043	4890
3357.785	4820
3359.525	4844
3361.268	4880
3363.007	5007
3364.745	4888
3366.485	4841
3368.223	5010
3369.962	4775
3371.701	4893
3373.438	4888
3375.174	4798
3376.911	4786
3378.647	4856
3380.384	4961
3382.118	4864
3383.854	4878
3385.588	4716
3387.322	4926
3389.057	4793
3390.79	4865
3392.522	4811
3394.255	4869
3395.987	4908
3397.719	4801
3399.451	4813
3401.181	4938
3402.911	4835
3404.641	4786
3406.371	4840
3408.101	4838
3409.83	4773
3411.558	4796
3413.285	4873
3415.011	4830
3416.739	4844
3418.467	4798
3420.193	4804
3421.919	4800
3423.644	4790
3425.368	4827
3427.094	4753
3428.818	4684
3430.542	4705
3432.264	4811
3433.987	4648
3435.712	4778
3437.434	4783
3439.155	4785
3440.876	4729
3442.596	4647
3444.317	4781
3446.039	4832
3447.757	4706
3449.477	4660
3451.195	4796
3452.914	4683
3454.632	4675
3456.35	4652
3458.067	4768
3459.784	4673
3461.5	4699
3463.216	4601
3464.932	4673
3466.647	4774
3468.362	4721
3470.076	4734
3471.789	4745
3473.505	4681
3475.217	4648
3476.929	4668
3478.641	4624
3480.354	4676
3482.066	4612
3483.777	4614
3485.487	4589
3487.197	4648
3488.908	4495
3490.617	4608
3492.327	4635
3494.035	4750
3495.743	4576
3497.451	4538
3499.158	4631
3500.866	4572
3502.572	4561
3504.278	4671
3505.984	4565
3507.689	4483
3509.396	4617
3511.1	4618
3512.804	4561
3514.508	4559
3516.211	4620
3517.913	4556
3519.616	4567
3521.319	4608
3523.021	4484
3524.722	4555
3526.422	4508
3528.124	4552
3529.824	4561
3531.524	4586
3533.222	4492
3534.921	4444
3536.62	4555
3538.318	4427
3540.016	4541
3541.714	4496
3543.41	4536
3545.107	4462
3546.803	4529
3548.5	4575
3550.194	4428
3551.889	4499
3553.583	4520
3555.279	4517
3556.972	4533
3558.666	4428
3560.358	4409
3562.051	4488
3563.742	4493
3565.435	4511
3567.126	4448
3568.817	4452
3570.507	4475
3572.197	4413
3573.888	4482
3575.577	4551
3577.265	4428
3578.954	4474
3580.642	4415
3582.329	4432
3584.017	4449
3585.704	4353
3587.391	4402
3589.077	4444
3590.762	4515
3592.449	4365
3594.133	4481
3595.817	4387
3597.501	4463
3599.185	4427
3600.869	4369
3602.552	4401
3604.234	4361
3605.916	4335
3607.598	4379
3609.279	4347
3610.961	4385
3612.642	4337
3614.321	4323
3616	4327
3617.68	4364
3619.36	4415
3621.039	4292
3622.716	4285
3624.394	4242
3626.071	4341
3627.748	4307
3629.425	4326
3631.102	4333
3632.778	4322
3634.452	4221
3636.127	4321
3637.803	4237
3639.477	4306
3641.151	4304
3642.823	4333
3644.497	4344
3646.171	4221
3647.842	4211
3649.515	4275
3651.185	4266
3652.857	4327
3654.527	4297
3656.198	4215
3657.868	4169
3659.537	4252
3661.207	4274
3662.875	4249
3664.544	4267
3666.212	4255
3667.879	4050
3669.546	4198
3671.212	4170
3672.88	4279
3674.546	4184
3676.211	4263
3677.875	4199
3679.541	4256
3681.205	4304
3682.87	4145
3684.533	4279
3686.196	4114
3687.859	4230
3689.521	4203
3691.184	4147
3692.845	4244
3694.507	4274
3696.167	4219
3697.827	4217
3699.487	4177
3701.148	4293
3702.808	4082
3704.466	4200
3706.125	4156
3707.783	4180
3709.442	4152
3711.099	4201
3712.757	4128
3714.412	4141
3716.068	4217
3717.725	4229
3719.381	4239
3721.036	4218
3722.689	4094
3724.344	4129
3725.998	4098
3727.652	4122
3729.305	4147
3730.958	4169
3732.61	4170
3734.262	4054
3735.915	4178
3737.565	4213
3739.217	4042
3740.866	4186
3742.516	4121
3744.165	4152
3745.816	4089
3747.464	4089
3749.113	4115
3750.761	4205
3752.409	4217
3754.057	4067
3755.703	4119
3757.35	4080
3758.996	4090
3760.641	4083
3762.289	4056
3763.933	4168
3765.577	4063
3767.222	4006
3768.865	4078
3770.508	4124
3772.152	4107
3773.796	4034
3775.438	4033
3777.079	4069
3778.721	4019
3780.363	4040
3782.003	4057
3783.643	3994
3785.283	4031
3786.923	4051
3788.563	3991
3790.203	4136
3791.841	3981
3793.479	4042
3795.115	4078
3796.753	3976
3798.391	3993
3800.027	4008
3801.664	4023
3803.299	4004
3804.935	3965
3806.571	4054
3808.206	4026
3809.839	3956
3811.473	4017
3813.107	4004
3814.74	4054
3816.375	3984
3818.006	3930
3819.638	3908
3821.27	3967
3822.9	3941
3824.532	3971
3826.163	3953
3827.792	3932
3829.423	3951
3831.051	4022
3832.682	3963
3834.311	3947
3835.938	3932
3837.566	3964
3839.193	3900
3840.821	3960
3842.448	3895
3844.075	3902
3845.7	3937
3847.325	3914
3848.951	3997
3850.576	3905
3852.201	3948
3853.825	3912
3855.448	3909
3857.072	3869
3858.694	3854
3860.318	3911
3861.939	3844
3863.562	3905
3865.183	3973
3866.804	3880
3868.426	3868
3870.045	3907
3871.666	3941
3873.285	3858
3874.904	3916
3876.524	3861
3878.142	3878
3879.76	3823
3881.378	3820
3882.995	3845
3884.612	3837
3886.229	3841
3887.845	3900
3889.461	3852
3891.076	3854
3892.691	3896
3894.307	3878
3895.922	3856
3897.536	3973
3899.149	3783
3900.761	3883
3902.374	3988
3903.988	3825
3905.6	3733
3907.212	3864
3908.822	3844
3910.433	3844
3912.045	3853
3913.655	3699
3915.265	3872
3916.875	3763
3918.483	3850
3920.093	3840
3921.702	3916
3923.309	3875
3924.917	3872
3926.523	3859
3928.13	3819
3929.739	3858
3931.344	3825
3932.95	3812
3934.555	3801
3936.159	3679
3937.766	3771
3939.369	3806
3940.974	3837
3942.577	3731
3944.181	3771
3945.783	3802
3947.386	3792
3948.989	3769
3950.59	3829
3952.191	3808
3953.791	3715
3955.394	3890
3956.994	3729
3958.593	3765
3960.192	3757
3961.791	3820
3963.392	3757
3964.99	3847
3966.588	3810
3968.185	3824
3969.782	3751
3971.379	3707
3972.976	3732
3974.572	3694
3976.168	3741
3977.763	3732
3979.358	3794
3980.954	3725
3982.548	3752
3984.142	3580
3985.736	3697
3987.329	3673
3988.922	3727
3990.516	3745
3992.108	3704
3993.698	3685
3995.29	3676
3996.881	3685
3998.473	3668
4000.064	3659
4001.653	3620
4003.242	3597
4004.832	3624
4006.422	3698
4008.01	3601
4009.598	3656
4011.186	3647
4012.773	3607
4014.36	3669
4015.947	3630
4017.534	3634
4019.119	3652
4020.705	3527
4022.291	3600
4023.876	3665
4025.461	3606
4027.044	3678
4028.627	3603
4030.211	3592
4031.795	3632
4033.378	3545
4034.96	3622
4036.542	3596
4038.124	3574
4039.704	3584
4041.286	3480
4042.867	3555
4044.447	3532
4046.026	3555
4047.606	3628
4049.187	3632
4050.765	3582
4052.343	3535
4053.92	3517
4055.498	3511
4057.076	3547
4058.654	3564
4060.23	3539
4061.806	3638
4063.381	3537
4064.957	3509
4066.533	3486
4068.107	3546
4069.682	3552
4071.256	3542
4072.829	3437
4074.404	3583
4075.977	3487
4077.549	3498
4079.121	3543
4080.693	3494
4082.265	3527
4083.836	3453
4085.407	3583
4086.977	3490
4088.547	3591
4090.117	3427
4091.687	3550
4093.256	3459
4094.825	3470
4096.392	3493
4097.96	3474
4099.528	3539
4101.097	3504
4102.663	3509
4104.229	3514
4105.795	3457
4107.361	3473
4108.928	3512
4110.493	3502
4112.058	3421
4113.621	3480
4115.186	3427
4116.75	3451
4118.313	3427
4119.876	3466
4121.438	3408
4123	3408
4124.562	3456
4126.125	3374
4127.686	3420
4129.246	3368
4130.807	3494
4132.367	3444
4133.927	3436
4135.486	3367
4137.046	3379
4138.604	3411
4140.162	3356
4141.72	3342
4143.279	3401
4144.836	3470
4146.393	3381
4147.949	3423
4149.505	3294
4151.062	3391
4152.617	3292
4154.172	3418
4155.727	3320
4157.281	3349
4158.836	3348
4160.39	3361
4161.943	3314
4163.496	3399
4165.048	3345
4166.601	3259
4168.154	3330
4169.706	3362
4171.257	3369
4172.808	3345
4174.358	3344
4175.909	3386
4177.458	3338
4179.008	3353
4180.558	3329
4182.106	3294
4183.655	3301
4185.204	3281
4186.751	3371
4188.298	3283
4189.845	3302
4191.392	3271
4192.939	3371
4194.485	3293
4196.031	3345
4197.576	3268
4199.121	3308
4200.666	3306
4202.211	3286
4203.754	3281
4205.298	3234
4206.84	3287
4208.384	3276
4209.927	3264
4211.47	3306
4213.011	3274
4214.552	3185
4216.094	3316
4217.635	3259
4219.175	3192
4220.716	3212
4222.255	3231
4223.793	3281
4225.335	3203
4226.873	3262
4228.411	3210
4229.948	3192
4231.486	3256
4233.024	3172
4234.562	3201
4236.098	3240
4237.634	3164
4239.169	3247
4240.705	3161
4242.241	3279
4243.776	3172
4245.31	3195
4246.844	3219
4248.378	3202
4249.911	3256
4251.445	3229
4252.978	3222
4254.51	3195
4256.042	3170
4257.574	3180
4259.107	3160
4260.638	3233
4262.169	3176
4263.699	3176
4265.228	3200
4266.759	3147
4268.289	3222
4269.818	3207
4271.345	3144
4272.874	3210
4274.402	3194
4275.931	3073
4277.458	3225
4278.985	3097
4280.512	3107
4282.037	3151
4283.564	3109
4285.089	3093
4286.615	3205
4288.139	3118
4289.664	3187
4291.187	3164
4292.712	3215
4294.235	3053
4295.759	3078
4297.281	3107
4298.804	3229
4300.327	3121
4301.849	3087
4303.37	3149
4304.891	3121
4306.412	3082
4307.933	3100
4309.453	3159
4310.973	3203
4312.492	3099
