398.1873	7639
400.7097	7430
403.2336	7576
405.7547	7610
408.2751	7616
410.7948	7762
413.3138	7671
415.83	7743
418.3497	7738
420.8666	7738
423.3829	7873
425.8985	7908
428.4133	8023
430.9275	7978
433.441	8095
435.9538	8215
438.4639	8113
440.9753	8085
443.4881	8030
445.9982	8154
448.5055	8160
451.0142	8175
453.5201	8147
456.0274	8087
458.5361	8114
461.04	8129
463.5453	8145
466.0478	8214
468.5517	8137
471.0549	8262
473.5574	8253
476.0572	8293
478.5584	8336
481.0568	8246
483.5545	8378
486.0557	8192
488.5521	8259
491.0478	8257
493.5449	8354
496.0392	8378
498.5349	8492
501.0299	8461
503.5222	8425
506.0139	8294
508.5048	8401
510.9991	8446
513.4887	8501
515.9777	8444
518.4659	8578
520.9534	8473
523.4403	8550
525.9306	8526
528.4161	8520
530.9009	8617
533.3851	8481
535.8687	8617
538.3535	8480
540.8356	8597
543.3171	8518
545.7979	8530
548.278	8545
550.7595	8599
553.2383	8777
555.7144	8581
558.1918	8677
560.6685	8692
563.1446	8513
565.6221	8649
568.0968	8778
570.5688	8685
573.0422	8697
575.515	8861
577.989	8804
580.4584	8915
582.9291	8849
585.3991	9029
587.8685	8898
590.3352	8845
592.8052	8913
595.2706	8861
597.7372	8810
600.2033	8755
602.6666	8892
605.1334	8893
607.5953	8924
610.0587	8847
612.5193	8769
614.9814	8736
617.4427	8855
619.9034	8806
622.3615	8756
624.8208	8871
627.2775	8760
629.7335	8892
632.1929	8816
634.6476	8644
637.1016	8764
639.5569	8851
642.0096	8875
644.4637	8863
646.9151	8837
649.3678	8858
651.8179	8978
654.2672	8896
656.7159	8969
659.166	8952
661.6154	8943
664.0622	9078
666.5082	8971
668.9537	8965
671.4005	9057
673.8445	9116
676.288	9167
678.7308	9051
681.1729	9029
683.6163	9141
686.0572	9158
688.4973	9146
690.9368	9049
693.3757	9117
695.8138	9220
698.2534	9182
700.6902	9154
703.1245	9232
705.56	9234
707.9949	9309
710.4311	9439
712.8647	9191
715.2957	9223
717.7279	9325
720.1595	9387
722.5905	9387
725.0208	9522
727.4505	9358
729.8795	9437
732.3058	9491
734.7336	9540
737.1626	9412
739.587	9468
742.0128	9562
744.4359	9539
746.8604	9886
749.2841	9671
751.7073	9816
754.1278	9646
756.5496	9705
758.9688	9841
761.3893	9825
763.8093	9724
766.2285	9744
768.6451	9768
771.0611	9887
773.4784	9820
775.895	9760
778.3091	9781
780.7244	9953
783.1371	9815
785.5493	9873
787.9626	9919
790.3754	9920
792.7856	9742
795.1951	9871
797.6039	9787
800.0121	9922
802.4236	9871
804.8306	9973
807.2369	9829
809.6425	9993
812.0475	9992
814.4538	9975
816.8575	10021
819.2606	9956
821.663	10019
824.0648	9916
826.4659	9918
828.8683	9979
831.2682	9870
833.6674	9882
836.066	10182
838.4639	10113
840.8632	10155
843.2579	10129
845.6539	10096
848.0493	10155
850.444	10200
852.84	10165
855.2315	10104
857.6243	10146
860.0165	10018
862.4081	10190
864.797	10084
867.1892	10023
869.5789	10188
871.9659	10119
874.3542	10166
876.74	10107
879.129	10056
881.5155	9996
883.8994	10113
886.2845	10106
888.6671	10195
891.051	10255
893.4343	9999
895.8169	10091
898.197	10128
900.5783	9882
902.9571	10211
905.3372	10257
907.7167	10278
910.0936	10171
912.4698	10199
914.8474	10322
917.2244	10465
919.5987	10516
921.9744	10415
924.3475	10499
926.72	10559
929.0918	10609
931.4669	10478
933.8375	10551
936.2074	10569
938.5767	10746
940.9454	10680
943.3154	10777
945.6829	10851
948.0497	11074
950.4178	11179
952.7833	11478
955.1483	11780
957.5145	12088
959.8782	12046
962.2412	12406
964.6036	11876
966.9655	11803
969.3266	11356
971.6871	11137
974.0471	10817
976.4064	10661
978.765	10507
981.125	10483
983.4824	10428
985.8373	10402
988.1935	10421
990.549	10457
992.9039	10400
995.2602	10561
997.6119	10452
999.965	10475
1002.317	10449
1004.667	10539
1007.02	10352
1009.371	10414
1011.719	10419
1014.068	10455
1016.415	10516
1018.765	10604
1021.111	10464
1023.458	10601
1025.804	10463
1028.147	10613
1030.49	10510
1032.837	10688
1035.179	10623
1037.522	10661
1039.862	10670
1042.204	10556
1044.546	10605
1046.884	10552
1049.224	10692
1051.562	10702
1053.899	10703
1056.237	10633
1058.575	10677
1060.91	10679
1063.244	10851
1065.58	10637
1067.913	10770
1070.248	10713
1072.579	10731
1074.911	10650
1077.242	10949
1079.572	10698
1081.905	10626
1084.234	10743
1086.562	10676
1088.89	10626
1091.217	10695
1093.544	10790
1095.871	10750
1098.197	10527
1100.521	10619
1102.845	10605
1105.169	10549
1107.491	10702
1109.814	10664
1112.135	10709
1114.456	10612
1116.776	10645
1119.096	10744
1121.415	10904
1123.734	10835
1126.052	10812
1128.369	10821
1130.686	10677
1133.002	10893
1135.318	10748
1137.632	10752
1139.945	10697
1142.258	10785
1144.573	10780
1146.884	10681
1149.196	10783
1151.505	10822
1153.816	10796
1156.124	10848
1158.435	10706
1160.742	10816
1163.051	10765
1165.356	10897
1167.663	10831
1169.97	10790
1172.276	10777
1174.579	10742
1176.881	10685
1179.186	10857
1181.487	10704
1183.79	10814
1186.092	10802
1188.392	10780
1190.691	10841
1192.991	10918
1195.291	10692
1197.588	10807
1199.885	10786
1202.181	10743
1204.479	10836
1206.775	10728
1209.07	10741
1211.363	10753
1213.656	10708
1215.949	10762
1218.241	10947
1220.534	10827
1222.825	10848
1225.115	11025
1227.405	10889
1229.693	10930
1231.984	10910
1234.271	10949
1236.558	11162
1238.845	11100
1241.131	11178
1243.416	11198
1245.703	11020
1247.987	11223
1250.269	11200
1252.552	11252
1254.834	11063
1257.118	11194
1259.399	11108
1261.678	11042
1263.958	11138
1266.237	11238
1268.516	11090
1270.794	11214
1273.072	11116
1275.347	11106
1277.624	11023
1279.899	10919
1282.175	11057
1284.449	11238
1286.722	11035
1288.995	10993
1291.266	10919
1293.54	11000
1295.81	10933
1298.081	11024
1300.35	10938
1302.62	10960
1304.889	11034
1307.156	10921
1309.425	10904
1311.69	11023
1313.957	11056
1316.222	10919
1318.488	10838
1320.751	10939
1323.016	10937
1325.278	11004
1327.54	11032
1329.803	11198
1332.065	11170
1334.325	11185
1336.584	11038
1338.843	11172
1341.101	11005
1343.36	11041
1345.617	10929
1347.876	10911
1350.131	10935
1352.387	11095
1354.643	10986
1356.897	10917
1359.151	11140
1361.403	10940
1363.656	11023
1365.909	11025
1368.16	11142
1370.409	11170
1372.659	11020
1374.909	11147
1377.157	11057
1379.407	11197
1381.655	11097
1383.9	11281
1386.147	11179
1388.393	11182
1390.64	11238
1392.885	10984
1395.127	11312
1397.37	11265
1399.614	11083
1401.854	11258
1404.098	11244
1406.339	11180
1408.578	11136
1410.818	11155
1413.056	11264
1415.297	11239
1417.533	11409
1419.771	11158
1422.006	11296
1424.243	11412
1426.479	11231
1428.715	11493
1430.948	11285
1433.182	11391
1435.414	11511
1437.647	11302
1439.88	11363
1442.11	11484
1444.342	11514
1446.571	11611
1448.799	11368
1451.029	11521
1453.258	11503
1455.485	11609
1457.711	11637
1459.937	11404
1462.164	11522
1464.39	11511
1466.614	11508
1468.838	11559
1471.06	11270
1473.283	11410
1475.506	11281
1477.727	11292
1479.949	11342
1482.169	11282
1484.389	11168
1486.609	11136
1488.828	11274
1491.045	11066
1493.261	11057
1495.477	11198
1497.693	11216
1499.91	11168
1502.125	11171
1504.339	11148
1506.553	11141
1508.766	11159
1510.979	11032
1513.191	11032
1515.402	11119
1517.613	11184
1519.823	11199
1522.033	11188
1524.242	11102
1526.451	11174
1528.657	11069
1530.865	11170
1533.072	11067
1535.278	10917
1537.484	11173
1539.687	11108
1541.892	11106
1544.096	11224
1546.299	11190
1548.502	11256
1550.703	11239
1552.905	11094
1555.104	11306
1557.303	11346
1559.505	11364
1561.703	11428
1563.902	11262
1566.099	11381
1568.295	11298
1570.494	11303
1572.689	11364
1574.883	11370
1577.079	11520
1579.272	11598
1581.467	11637
1583.659	11474
1585.853	11469
1588.044	11378
1590.234	11510
1592.424	11567
1594.615	11408
1596.806	11580
1598.994	11442
1601.182	11541
1603.369	11414
1605.557	11576
1607.744	11582
1609.929	11608
1612.114	11692
1614.298	11420
1616.482	11582
1618.667	11492
1620.85	11669
1623.032	11544
1625.214	11500
1627.395	11640
1629.575	11491
1631.755	11544
1633.935	11582
1636.114	11658
1638.292	11548
1640.471	11580
1642.647	11724
1644.823	11715
1647	11559
1649.175	11663
1651.348	11667
1653.525	11673
1655.698	11749
1657.87	11788
1660.043	11597
1662.213	11828
1664.387	11765
1666.558	11622
1668.727	11744
1670.896	11610
1673.064	11661
1675.233	11531
1677.401	11588
1679.569	11545
1681.735	11577
1683.902	11565
1686.066	11746
1688.233	11555
1690.397	11683
1692.559	11615
1694.723	11674
1696.885	11830
1699.048	11751
1701.21	11572
1703.37	11302
1705.53	11528
1707.689	11646
1709.849	11508
1712.009	11482
1714.166	11633
1716.323	11454
1718.479	11500
1720.634	11437
1722.793	11596
1724.948	11392
1727.102	11481
1729.255	11539
1731.408	11486
1733.562	11379
1735.714	11549
1737.865	11474
1740.016	11574
1742.166	11496
1744.316	11688
1746.467	11399
1748.616	11654
1750.764	11528
1752.911	11296
1755.056	11498
1757.205	11502
1759.35	11631
1761.496	11616
1763.641	11704
1765.785	11631
1767.927	11481
1770.072	11637
1772.214	11624
1774.355	11557
1776.496	11673
1778.637	11668
1780.778	11563
1782.918	11768
1785.057	11672
1787.194	11585
1789.333	11654
1791.472	11653
1793.608	11576
1795.745	11570
1797.879	11792
1800.015	11757
1802.148	11707
1804.284	11585
1806.417	11568
1808.548	11644
1810.682	11717
1812.812	11675
1814.946	11657
1817.075	11609
1819.205	11686
1821.335	11537
1823.463	11711
1825.59	11681
1827.721	11698
1829.847	11610
1831.973	11667
1834.098	11586
1836.223	11605
1838.351	11563
1840.475	11498
1842.598	11610
1844.721	11658
1846.843	11649
1848.966	11688
1851.087	11492
1853.21	11510
1855.33	11422
1857.449	11473
1859.568	11521
1861.688	11443
1863.806	11579
1865.924	11477
1868.039	11515
1870.155	11530
1872.273	11432
1874.388	11636
1876.503	11465
1878.617	11552
1880.73	11633
1882.844	11627
1884.956	11526
1887.068	11478
1889.18	11554
1891.291	11774
1893.4	11366
1895.511	11719
1897.621	11544
1899.73	11527
1901.837	11565
1903.944	11608
1906.053	11568
1908.159	11528
1910.265	11586
1912.369	11689
1914.474	11746
1916.577	11639
1918.683	11711
1920.785	11660
1922.888	11744
1924.989	11820
1927.091	11907
1929.193	11792
1931.294	11779
1933.393	11821
1935.493	11644
1937.59	11670
1939.689	11798
1941.788	11759
1943.884	11709
1945.98	11822
1948.077	11747
1950.171	11767
1952.267	11797
1954.361	11745
1956.455	11812
1958.548	11815
1960.64	11632
1962.733	11746
1964.824	11799
1966.915	11743
1969.005	11783
1971.096	11620
1973.185	11741
1975.275	11779
1977.363	11784
1979.45	11621
1981.537	11602
1983.623	11563
1985.711	11589
1987.796	11585
1989.881	11496
1991.965	11656
1994.047	11786
1996.132	11604
1998.215	11612
2000.297	11549
2002.378	11622
2004.46	11539
2006.54	11579
2008.62	11650
2010.7	11594
2012.779	11535
2014.858	11643
2016.934	11560
2019.013	11509
2021.09	11594
2023.165	11529
2025.241	11633
2027.317	11546
2029.39	11626
2031.466	11691
2033.538	11563
2035.612	11515
2037.683	11626
2039.755	11685
2041.827	11632
2043.898	11746
2045.968	11553
2048.038	11620
2050.106	11564
2052.177	11597
2054.244	11643
2056.313	11663
2058.379	11453
2060.444	11608
2062.511	11865
2064.577	11740
2066.641	11564
2068.705	11604
2070.77	11698
2072.832	11648
2074.896	11680
2076.958	11741
2079.02	11766
2081.081	11463
2083.141	11395
2085.2	11548
2087.261	11581
2089.319	11570
2091.377	11636
2093.435	11869
2095.492	11626
2097.552	11775
2099.607	11591
2101.663	11845
2103.718	11760
2105.771	11663
2107.826	11623
2109.879	11661
2111.932	11455
2113.985	11606
2116.037	11723
2118.088	11527
2120.141	11606
2122.191	11616
2124.239	11620
2126.288	11574
2128.337	11664
2130.387	11571
2132.434	11690
2134.481	11597
2136.528	11591
2138.574	11487
2140.618	11557
2142.665	11653
2144.71	11524
2146.753	11497
2148.797	11604
2150.838	11666
2152.883	11453
2154.923	11636
2156.965	11590
2159.007	11469
2161.046	11523
2163.086	11533
2165.126	11486
2167.163	11490
2169.202	11452
2171.239	11385
2173.277	11496
2175.314	11556
2177.349	11515
2179.385	11468
2181.42	11474
2183.453	11406
2185.49	11343
2187.522	11470
2189.555	11460
2191.586	11390
2193.619	11358
2195.651	11318
2197.682	11328
2199.711	11338
2201.74	11362
2203.769	11312
2205.799	11227
2207.828	11420
2209.855	11373
2211.882	11377
2213.908	11280
2215.934	11302
2217.961	11238
2219.986	11388
2222.01	11322
2224.034	11227
2226.057	11288
2228.08	11107
2230.104	11263
2232.124	11370
2234.145	11308
2236.166	11163
2238.186	11329
2240.207	11441
2242.227	11377
2244.244	11354
2246.262	11307
2248.28	11313
2250.299	11292
2252.314	11320
2254.33	11209
2256.346	11339
2258.36	11319
2260.375	11430
2262.391	11321
2264.403	11292
2266.416	11447
2268.427	11347
2270.44	11284
2272.453	11284
2274.463	11168
2276.474	11292
2278.483	11237
2280.493	11397
2282.501	11268
2284.51	11180
2286.518	11404
2288.524	11353
2290.532	11228
2292.537	11163
2294.544	11227
2296.55	11215
2298.554	11286
2300.557	11223
2302.562	11198
2304.566	11153
2306.568	11256
2308.569	11348
2310.572	10981
2312.573	11253
2314.573	11209
2316.574	11291
2318.573	11244
2320.571	11256
2322.571	11254
2324.569	11103
2326.567	11037
2328.564	11123
2330.56	11108
2332.556	11204
2334.551	11130
2336.546	10881
2338.542	11214
2340.535	11094
2342.529	10897
2344.521	11138
2346.512	11002
2348.505	11001
2350.497	11166
2352.487	10951
2354.478	11010
2356.468	11143
2358.457	11020
2360.446	10993
2362.434	11028
2364.422	10965
2366.408	10891
2368.395	10999
2370.383	11082
2372.369	10972
2374.353	11190
2376.338	10948
2378.321	10915
2380.307	11021
2382.29	11025
2384.272	10995
2386.254	11016
2388.235	10855
2390.218	10992
2392.198	10937
2394.179	10989
2396.157	10770
2398.137	10998
2400.115	10845
2402.095	10870
2404.072	10874
2406.048	10883
2408.026	10796
2410.001	10898
2411.977	10983
2413.953	10976
2415.927	10896
2417.9	10864
2419.875	10786
2421.847	10901
2423.821	10822
2425.792	10892
2427.763	10924
2429.736	10857
2431.706	10833
2433.677	10879
2435.646	10858
2437.615	10873
2439.583	10758
2441.551	11078
2443.519	10892
2445.486	10770
2447.452	10844
2449.418	10944
2451.383	10621
2453.348	10978
2455.314	10914
2457.278	10758
2459.241	10915
2461.205	10755
2463.167	10769
2465.131	10716
2467.091	10830
2469.052	10767
2471.012	10923
2472.972	10809
2474.932	10672
2476.891	10899
2478.85	10912
2480.808	10721
2482.766	10724
2484.722	10591
2486.68	10922
2488.636	10788
2490.591	10759
2492.546	10749
2494.5	10870
2496.456	10687
2498.41	10718
2500.362	10721
2502.315	10742
2504.266	10697
2506.218	10780
2508.169	10738
2510.121	10706
2512.07	10719
2514.019	10692
2515.968	10753
2517.918	10657
2519.866	10673
2521.813	10624
2523.76	10613
2525.707	10595
2527.653	10664
2529.599	10669
2531.543	10644
2533.489	10705
2535.433	10580
2537.376	10675
2539.32	10673
2541.264	10592
2543.205	10594
2545.147	10753
2547.087	10458
2549.029	10737
2550.969	10714
2552.908	10714
2554.847	10612
2556.786	10626
2558.724	10562
2560.663	10580
2562.6	10632
2564.537	10580
2566.473	10642
2568.408	10559
2570.345	10599
2572.28	10743
2574.214	10631
2576.148	10715
2578.081	10577
2580.014	10757
2581.947	10606
2583.879	10773
2585.81	10704
2587.741	10813
2589.67	10709
2591.602	10679
2593.532	10621
2595.461	10535
2597.388	10669
2599.316	10607
2601.244	10567
2603.172	10592
2605.098	10584
2607.023	10701
2608.949	10634
2610.873	10661
2612.8	10682
2614.723	10693
2616.647	10615
2618.569	10803
2620.493	10816
2622.416	10765
2624.338	10587
2626.258	10598
2628.179	10677
2630.099	10700
2632.019	10710
2633.939	10686
2635.857	10578
2637.775	10681
2639.694	10707
2641.61	10640
2643.528	10757
2645.444	10674
2647.361	10575
2649.276	10619
2651.19	10811
2653.105	10722
2655.019	10717
2656.934	10599
2658.846	10681
2660.758	10573
2662.67	10622
2664.583	10545
2666.493	10592
2668.404	10640
2670.313	10452
2672.223	10587
2674.134	10712
2676.042	10599
2677.95	10532
2679.858	10451
2681.765	10504
2683.673	10544
2685.579	10544
2687.483	10477
2689.389	10592
2691.294	10491
2693.198	10541
2695.104	10437
2697.006	10567
2698.909	10511
2700.811	10450
2702.713	10568
2704.615	10413
2706.516	10357
2708.417	10463
2710.316	10542
2712.216	10294
2714.115	10516
2716.014	10595
2717.913	10505
2719.81	10351
2721.707	10411
2723.603	10530
2725.501	10463
2727.396	10356
2729.292	10375
2731.186	10552
2733.081	10546
2734.976	10350
2736.87	10334
2738.762	10515
2740.653	10475
2742.546	10428
2744.437	10332
2746.329	10363
2748.22	10442
2750.11	10350
2751.999	10386
2753.889	10347
2755.778	10459
2757.666	10317
2759.553	10397
2761.44	10461
2763.328	10517
2765.215	10387
2767.101	10226
2768.986	10262
2770.87	10291
2772.754	10413
2774.638	10355
2776.523	10316
2778.405	10312
2780.288	10343
2782.17	10263
2784.051	10151
2785.934	10202
2787.814	10283
2789.694	10417
2791.574	10155
2793.453	10283
2795.332	10426
2797.212	10371
2799.088	10170
2800.966	10254
2802.843	10120
2804.719	10320
2806.597	10288
2808.471	10315
2810.346	10105
2812.221	10313
2814.094	10237
2815.969	10185
2817.843	10276
2819.714	10224
2821.587	10079
2823.459	10277
2825.329	10153
2827.202	10221
2829.072	10101
2830.942	10298
2832.811	10154
2834.68	10335
2836.549	10061
2838.418	10266
2840.284	10300
2842.152	10172
2844.018	10204
2845.885	10080
2847.751	10289
2849.616	10290
2851.482	10162
2853.345	10230
2855.208	10124
2857.074	10255
2858.937	10421
2860.799	10239
2862.66	10291
2864.522	10368
2866.385	10287
2868.245	10467
2870.104	10436
2871.964	10479
2873.824	10487
2875.683	10690
2877.542	10693
2879.4	10702
2881.257	10648
2883.114	10839
2884.97	10760
2886.827	10658
2888.683	10865
2890.537	10710
2892.392	10815
2894.246	10786
2896.1	10669
2897.954	10660
2899.807	10639
2901.66	10538
2903.51	10719
2905.362	10560
2907.214	10719
2909.065	10679
2910.915	10828
2912.765	10833
2914.613	10694
2916.463	10821
2918.311	10849
2920.158	10762
2922.006	10995
2923.853	11119
2925.698	11204
2927.546	11176
2929.392	11127
2931.236	11285
2933.081	11220
2934.924	11268
2936.77	11334
2938.613	11319
2940.455	11391
2942.298	11440
2944.139	11441
2945.982	11480
2947.823	11192
2949.662	11492
2951.503	11411
2953.342	11394
2955.182	11189
2957.021	11174
2958.858	11180
2960.697	11105
2962.534	11051
2964.37	11015
2966.207	10962
2968.044	10885
2969.879	10731
2971.714	10863
2973.548	10541
2975.383	10750
2977.218	10714
2979.051	10681
2980.883	10649
2982.715	10697
2984.547	10630
2986.379	10554
2988.21	10523
2990.04	10352
2991.87	10518
2993.7	10476
2995.53	10242
2997.359	10300
2999.187	10301
3001.015	10164
3002.842	10047
3004.669	10022
3006.497	10023
3008.323	10026
3010.148	9919
3011.974	10040
3013.797	9956
3015.623	9914
3017.447	9882
3019.27	9847
3021.094	9723
3022.915	9794
3024.737	9721
3026.56	9595
3028.38	9764
3030.201	9861
3032.022	9733
3033.84	9837
3035.662	9723
3037.481	9716
3039.298	9759
3041.117	9606
3042.933	9629
3044.752	9668
3046.568	9580
3048.385	9652
3050.2	9530
3052.016	9686
3053.83	9667
3055.646	9636
3057.46	9630
3059.272	9689
3061.086	9591
3062.898	9595
3064.711	9446
3066.524	9720
3068.335	9633
3070.145	9540
3071.956	9549
3073.766	9481
3075.576	9642
3077.385	9525
3079.193	9546
3081.002	9520
3082.81	9355
3084.618	9582
3086.425	9440
3088.231	9449
3090.036	9268
3091.842	9345
3093.648	9346
3095.452	9317
3097.257	9513
3099.06	9267
3100.863	9282
3102.666	9390
3104.47	9385
3106.272	9371
3108.073	9403
3109.875	9261
3111.676	9259
3113.477	9207
3115.277	9300
3117.077	9276
3118.874	9223
3120.673	9149
3122.473	9089
3124.271	9375
3126.066	9149
3127.863	9240
3129.66	9297
3131.456	9133
3133.252	9257
3135.047	9161
3136.842	9251
3138.635	9206
3140.429	9120
3142.223	9117
3144.016	9152
3145.808	9047
3147.6	9123
3149.392	9139
3151.183	9192
3152.975	9006
3154.765	9106
3156.553	9089
3158.344	9114
3160.132	9161
3161.922	9050
3163.71	9164
3165.497	9216
3167.285	8979
3169.071	9090
3170.858	9076
3172.645	9037
3174.429	9144
3176.214	8969
3177.998	8959
3179.783	8887
3181.568	9084
3183.351	9004
3185.133	8954
3186.915	8934
3188.698	9015
3190.481	8990
3192.261	8976
3194.042	9055
3195.822	8819
3197.601	8894
3199.381	8893
3201.161	8986
3202.939	8950
3204.717	8906
3206.495	8851
3208.272	8932
3210.05	8904
3211.826	8846
3213.602	8932
3215.376	8798
3217.151	8858
3218.927	9041
3220.702	8876
3222.476	8812
3224.249	8804
3226.021	8762
3227.793	8935
3229.567	8826
3231.339	8812
3233.109	8773
3234.88	8857
3236.651	8825
3238.421	8854
3240.191	8990
3241.96	8747
3243.728	8951
3245.497	8720
3247.263	8768
3249.033	8845
3250.799	8855
3252.566	8684
3254.331	8873
3256.097	8833
3257.863	8773
3259.628	8945
3261.392	8807
3263.156	8935
3264.919	8746
3266.683	8884
3268.447	8758
3270.208	8705
3271.969	8745
3273.731	8885
3275.492	8689
3277.253	8796
3279.013	8825
3280.773	8852
3282.532	8760
3284.291	8881
3286.05	8695
3287.808	8635
3289.566	8774
3291.323	8767
3293.079	8778
3294.835	8724
3296.593	8793
3298.348	8772
3300.102	8625
3301.857	8818
3303.611	8771
3305.366	8674
3307.119	8689
3308.872	8729
3310.624	8748
3312.376	8615
3314.129	8709
3315.881	8906
3317.631	8709
3319.38	8813
3321.13	8731
3322.88	8610
3324.631	8700
3326.379	8739
3328.126	8865
3329.875	8613
3331.622	8759
3333.371	8633
3335.116	8641
3336.863	8714
3338.609	8707
3340.353	8523
3342.1	8501
3343.845	8544
3345.588	8642
3347.332	8675
3349.074	8635
3350.817	8675
3352.56	8581
3354.303	8626
3356.043	8615
3357.785	8600
3359.525	8597
3361.268	8539
3363.007	8639
3364.745	8441
3366.485	8581
3368.223	8604
3369.962	8409
3371.701	8547
3373.438	8478
3375.174	8549
3376.911	8566
3378.647	8626
3380.384	8534
3382.118	8512
3383.854	8526
3385.588	8528
3387.322	8495
3389.057	8470
3390.79	8447
3392.522	8469
3394.255	8472
3395.987	8508
3397.719	8498
3399.451	8330
3401.181	8502
3402.911	8419
3404.641	8479
3406.371	8234
3408.101	8532
3409.83	8344
3411.558	8429
3413.285	8433
3415.011	8416
3416.739	8352
3418.467	8443
3420.193	8429
3421.919	8380
3423.644	8348
3425.368	8265
3427.094	8300
3428.818	8364
3430.542	8330
3432.264	8138
3433.987	8373
3435.712	8303
3437.434	8418
3439.155	8198
3440.876	8275
3442.596	8127
3444.317	8232
3446.039	8350
3447.757	8166
3449.477	8153
3451.195	8240
3452.914	8304
3454.632	8209
3456.35	8213
3458.067	8137
3459.784	8244
3461.5	8164
3463.216	8114
3464.932	8228
3466.647	8140
3468.362	8116
3470.076	8013
3471.789	8082
3473.505	8145
3475.217	8122
3476.929	8122
3478.641	7986
3480.354	7969
3482.066	8074
3483.777	7953
3485.487	7947
3487.197	8049
3488.908	8047
3490.617	8023
3492.327	7821
3494.035	7942
3495.743	7929
3497.451	7898
3499.158	7882
3500.866	7955
3502.572	7932
3504.278	7852
3505.984	8006
3507.689	7751
3509.396	8058
3511.1	7889
3512.804	7957
3514.508	7796
3516.211	7837
3517.913	7820
3519.616	7920
3521.319	7828
3523.021	7898
3524.722	7789
3526.422	7721
3528.124	7776
3529.824	7837
3531.524	7872
3533.222	7783
3534.921	7920
3536.62	7799
3538.318	7674
3540.016	7758
3541.714	7760
3543.41	7732
3545.107	7768
3546.803	7732
3548.5	7679
3550.194	7767
3551.889	7773
3553.583	7778
3555.279	7685
3556.972	8000
3558.666	7623
3560.358	7676
3562.051	7657
3563.742	7561
3565.435	7804
3567.126	7762
3568.817	7647
3570.507	7775
3572.197	7587
3573.888	7778
3575.577	7677
3577.265	7660
3578.954	7605
3580.642	7600
3582.329	7448
3584.017	7567
3585.704	7527
3587.391	7576
3589.077	7505
3590.762	7447
3592.449	7519
3594.133	7492
3595.817	7521
3597.501	7490
3599.185	7542
3600.869	7527
3602.552	7488
3604.234	7370
3605.916	7589
3607.598	7491
3609.279	7445
3610.961	7458
3612.642	7320
3614.321	7400
3616	7451
3617.68	7447
3619.36	7429
3621.039	7350
3622.716	7416
3624.394	7375
3626.071	7212
3627.748	7358
3629.425	7393
3631.102	7283
3632.778	7350
3634.452	7170
3636.127	7375
3637.803	7342
3639.477	7289
3641.151	7306
3642.823	7149
3644.497	7301
3646.171	7258
3647.842	7295
3649.515	7176
3651.185	7324
3652.857	7273
3654.527	7296
3656.198	7215
3657.868	7276
3659.537	7247
3661.207	7197
3662.875	7180
3664.544	7206
3666.212	7148
3667.879	7092
3669.546	7052
3671.212	7127
3672.88	7196
3674.546	7076
3676.211	7101
3677.875	7138
3679.541	7008
3681.205	7170
3682.87	7069
3684.533	7068
3686.196	7070
3687.859	7167
3689.521	7052
3691.184	7185
3692.845	7143
3694.507	7020
3696.167	7154
3697.827	7107
3699.487	7018
3701.148	7014
3702.808	7045
3704.466	7138
3706.125	7131
3707.783	7030
3709.442	6933
3711.099	7002
3712.757	7109
3714.412	7061
3716.068	7031
3717.725	7047
3719.381	7116
3721.036	6910
3722.689	7039
3724.344	6915
3725.998	6964
3727.652	6892
3729.305	6968
3730.958	7035
3732.61	6885
3734.262	6974
3735.915	6984
3737.565	6892
3739.217	6999
3740.866	6919
3742.516	6954
3744.165	6861
3745.816	6808
3747.464	6958
3749.113	6983
3750.761	6925
3752.409	6955
3754.057	6924
3755.703	6863
3757.35	6954
3758.996	6911
3760.641	6912
3762.289	6792
3763.933	6902
3765.577	6740
3767.222	6920
3768.865	6877
3770.508	6710
3772.152	6880
3773.796	6715
3775.438	6753
3777.079	6768
3778.721	6722
3780.363	6779
3782.003	6740
3783.643	6700
3785.283	6730
3786.923	6738
3788.563	6733
3790.203	6669
3791.841	6752
3793.479	6715
3795.115	6666
3796.753	6676
3798.391	6722
3800.027	6659
3801.664	6737
3803.299	6668
3804.935	6687
3806.571	6618
3808.206	6583
3809.839	6680
3811.473	6706
3813.107	6501
3814.74	6658
3816.375	6647
3818.006	6567
3819.638	6529
3821.27	6688
3822.9	6606
3824.532	6602
3826.163	6572
3827.792	6601
3829.423	6554
3831.051	6677
3832.682	6498
3834.311	6552
3835.938	6537
3837.566	6584
3839.193	6570
3840.821	6594
3842.448	6601
3844.075	6476
3845.7	6521
3847.325	6452
3848.951	6419
3850.576	6441
3852.201	6480
3853.825	6495
3855.448	6529
3857.072	6490
3858.694	6379
3860.318	6412
3861.939	6509
3863.562	6400
3865.183	6353
3866.804	6434
3868.426	6506
3870.045	6401
3871.666	6408
3873.285	6492
3874.904	6402
3876.524	6399
3878.142	6425
3879.76	6371
3881.378	6402
3882.995	6404
3884.612	6328
3886.229	6502
3887.845	6271
3889.461	6326
3891.076	6475
3892.691	6294
3894.307	6492
3895.922	6343
3897.536	6452
3899.149	6318
3900.761	6437
3902.374	6260
3903.988	6369
3905.6	6280
3907.212	6359
3908.822	6302
3910.433	6260
3912.045	6317
3913.655	6167
3915.265	6295
3916.875	6269
3918.483	6214
3920.093	6301
3921.702	6250
3923.309	6280
3924.917	6211
3926.523	6303
3928.13	6217
3929.739	6226
3931.344	6313
3932.95	6262
3934.555	6222
3936.159	6245
3937.766	6219
3939.369	6271
3940.974	6293
3942.577	6094
3944.181	6213
3945.783	6209
3947.386	6369
3948.989	6345
3950.59	6205
3952.191	6159
3953.791	6142
3955.394	6258
3956.994	6175
3958.593	6192
3960.192	6081
3961.791	6188
3963.392	6109
3964.99	6202
3966.588	6213
3968.185	6191
3969.782	6184
3971.379	6065
3972.976	6072
3974.572	5994
3976.168	5936
3977.763	6109
3979.358	6045
3980.954	6042
3982.548	6248
3984.142	5965
3985.736	6089
3987.329	5934
3988.922	5987
3990.516	5934
3992.108	6003
3993.698	6108
3995.29	5906
3996.881	6008
3998.473	6059
4000.064	5971
4001.653	5951
4003.242	5989
4004.832	5986
4006.422	5881
4008.01	6028
4009.598	5971
4011.186	5967
4012.773	5960
4014.36	5903
4015.947	5787
4017.534	5884
4019.119	5842
4020.705	5771
4022.291	5912
4023.876	5943
4025.461	5929
4027.044	5835
4028.627	5928
4030.211	5749
4031.795	5739
4033.378	5792
4034.96	5745
4036.542	5814
4038.124	5809
4039.704	5743
4041.286	5696
4042.867	5732
4044.447	5704
4046.026	5748
4047.606	5736
4049.187	5841
4050.765	5772
4052.343	5689
4053.92	5668
4055.498	5888
4057.076	5703
4058.654	5717
4060.23	5724
4061.806	5779
4063.381	5647
4064.957	5644
4066.533	5652
4068.107	5652
4069.682	5674
4071.256	5668
4072.829	5703
4074.404	5709
4075.977	5553
4077.549	5716
4079.121	5632
4080.693	5668
4082.265	5721
4083.836	5625
4085.407	5653
4086.977	5569
4088.547	5661
4090.117	5724
4091.687	5718
4093.256	5567
4094.825	5600
4096.392	5647
4097.96	5598
4099.528	5634
4101.097	5515
4102.663	5525
4104.229	5513
4105.795	5506
4107.361	5519
4108.928	5598
4110.493	5613
4112.058	5587
4113.621	5485
4115.186	5526
4116.75	5580
4118.313	5535
4119.876	5531
4121.438	5616
4123	5432
4124.562	5469
4126.125	5605
4127.686	5407
4129.246	5464
4130.807	5404
4132.367	5474
4133.927	5396
4135.486	5373
4137.046	5420
4138.604	5404
4140.162	5313
4141.72	5475
4143.279	5352
4144.836	5370
4146.393	5284
4147.949	5403
4149.505	5432
4151.062	5351
4152.617	5274
4154.172	5366
4155.727	5299
4157.281	5232
4158.836	5368
4160.39	5308
4161.943	5277
4163.496	5264
4165.048	5267
4166.601	5376
4168.154	5378
4169.706	5247
4171.257	5390
4172.808	5258
4174.358	5240
4175.909	5264
4177.458	5273
4179.008	5308
4180.558	5218
4182.106	5277
4183.655	5276
4185.204	5244
4186.751	5287
4188.298	5237
4189.845	5202
4191.392	5333
4192.939	5114
4194.485	5284
4196.031	5157
4197.576	5259
4199.121	5209
4200.666	5170
4202.211	5099
4203.754	5148
4205.298	5167
4206.84	5205
4208.384	5151
4209.927	5184
4211.47	5099
4213.011	5150
4214.552	5084
4216.094	5073
4217.635	5196
4219.175	5120
4220.716	5124
4222.255	5130
4223.793	5153
4225.335	5092
4226.873	5070
4228.411	5112
4229.948	5169
4231.486	5053
4233.024	5160
4234.562	5035
4236.098	5037
4237.634	5050
4239.169	5115
4240.705	5164
4242.241	4950
4243.776	5065
4245.31	5018
4246.844	5072
4248.378	5054
4249.911	5095
4251.445	5106
4252.978	5055
4254.51	5002
4256.042	5112
4257.574	5019
4259.107	5043
4260.638	4911
4262.169	5101
4263.699	5041
4265.228	4953
4266.759	4951
4268.289	4895
4269.818	4954
4271.345	5046
4272.874	5004
4274.402	4922
4275.931	5011
4277.458	4984
4278.985	5010
4280.512	4898
4282.037	4898
4283.564	4976
4285.089	4843
4286.615	4968
4288.139	4954
4289.664	4899
4291.187	5016
4292.712	4848
4294.235	4929
4295.759	4893
4297.281	4853
4298.804	4870
4300.327	4888
4301.849	4879
4303.37	4889
4304.891	4823
4306.412	4910
4307.933	4792
4309.453	4903
4310.973	4796
4312.492	4847
