398.1873	7867
400.7097	7733
403.2336	7812
405.7547	7948
408.2751	7819
410.7948	7768
413.3138	7797
415.83	7856
418.3497	8054
420.8666	7978
423.3829	8101
425.8985	8136
428.4133	8100
430.9275	8152
433.441	8226
435.9538	8213
438.4639	8142
440.9753	8335
443.4881	8260
445.9982	8316
448.5055	8198
451.0142	8335
453.5201	8148
456.0274	8279
458.5361	8183
461.04	8361
463.5453	8460
466.0478	8347
468.5517	8487
471.0549	8322
473.5574	8358
476.0572	8321
478.5584	8390
481.0568	8476
483.5545	8359
486.0557	8526
488.5521	8505
491.0478	8664
493.5449	8545
496.0392	8599
498.5349	8710
501.0299	8592
503.5222	8640
506.0139	8609
508.5048	8720
510.9991	8702
513.4887	8744
515.9777	8691
518.4659	8760
520.9534	8632
523.4403	8713
525.9306	8669
528.4161	8741
530.9009	8666
533.3851	8852
535.8687	8748
538.3535	8725
540.8356	8787
543.3171	8860
545.7979	8777
548.278	8736
550.7595	8634
553.2383	8806
555.7144	8869
558.1918	8742
560.6685	8895
563.1446	8768
565.6221	8756
568.0968	8929
570.5688	8973
573.0422	8975
575.515	9209
577.989	8977
580.4584	8951
582.9291	8968
585.3991	8972
587.8685	9093
590.3352	9219
592.8052	8990
595.2706	9011
597.7372	8942
600.2033	9065
602.6666	9055
605.1334	8946
607.5953	8960
610.0587	9090
612.5193	9041
614.9814	9154
617.4427	9028
619.9034	9094
622.3615	9131
624.8208	9100
627.2775	9031
629.7335	9074
632.1929	9007
634.6476	9109
637.1016	9029
639.5569	9202
642.0096	9110
644.4637	9213
646.9151	9150
649.3678	9156
651.8179	9213
654.2672	9062
656.7159	9215
659.166	9139
661.6154	9211
664.0622	9203
666.5082	9325
668.9537	9338
671.4005	9276
673.8445	9421
676.288	9406
678.7308	9322
681.1729	9478
683.6163	9446
686.0572	9274
688.4973	9375
690.9368	9354
693.3757	9483
695.8138	9528
698.2534	9442
700.6902	9468
703.1245	9441
705.56	9610
707.9949	9492
710.4311	9653
712.8647	9436
715.2957	9630
717.7279	9652
720.1595	9500
722.5905	9592
725.0208	9715
727.4505	9560
729.8795	9624
732.3058	9622
734.7336	9671
737.1626	9736
739.587	9773
742.0128	9913
744.4359	9989
746.8604	9864
749.2841	9978
751.7073	9821
754.1278	9944
756.5496	10017
758.9688	9955
761.3893	10034
763.8093	9986
766.2285	10117
768.6451	10124
771.0611	10025
773.4784	9967
775.895	10060
778.3091	10137
780.7244	10027
783.1371	10229
785.5493	10180
787.9626	10137
790.3754	10114
792.7856	10059
795.1951	10145
797.6039	10078
800.0121	10013
802.4236	10257
804.8306	10127
807.2369	10224
809.6425	10127
812.0475	10053
814.4538	10074
816.8575	10180
819.2606	10315
821.663	10149
824.0648	10182
826.4659	10256
828.8683	10211
831.2682	10245
833.6674	10238
836.066	10398
838.4639	10250
840.8632	10393
843.2579	10227
845.6539	10353
848.0493	10427
850.444	10409
852.84	10306
855.2315	10372
857.6243	10419
860.0165	10286
862.4081	10377
864.797	10175
867.1892	10370
869.5789	10327
871.9659	10260
874.3542	10462
876.74	10363
879.129	10352
881.5155	10416
883.8994	10326
886.2845	10363
888.6671	10276
891.051	10278
893.4343	10404
895.8169	10372
898.197	10280
900.5783	10374
902.9571	10438
905.3372	10344
907.7167	10457
910.0936	10468
912.4698	10472
914.8474	10619
917.2244	10500
919.5987	10529
921.9744	10652
924.3475	10751
926.72	10890
929.0918	10718
931.4669	10570
933.8375	10782
936.2074	10791
938.5767	10890
940.9454	10807
943.3154	10929
945.6829	10840
948.0497	11252
950.4178	11233
952.7833	11711
955.1483	11824
957.5145	12077
959.8782	12140
962.2412	12119
964.6036	11961
966.9655	11538
969.3266	11444
971.6871	11194
974.0471	10975
976.4064	10822
978.765	10878
981.125	10690
983.4824	10654
985.8373	10631
988.1935	10647
990.549	10812
992.9039	10618
995.2602	10628
997.6119	10808
999.965	10690
1002.317	10674
1004.667	10746
1007.02	10763
1009.371	10705
1011.719	10724
1014.068	10627
1016.415	10726
1018.765	10754
1021.111	10704
1023.458	10739
1025.804	10857
1028.147	10893
1030.49	10738
1032.837	10844
1035.179	10759
1037.522	10865
1039.862	10755
1042.204	10877
1044.546	10897
1046.884	10944
1049.224	10778
1051.562	10944
1053.899	10915
1056.237	10966
1058.575	10869
1060.91	10939
1063.244	10968
1065.58	11124
1067.913	11063
1070.248	10983
1072.579	11084
1074.911	11031
1077.242	10975
1079.572	11066
1081.905	10967
1084.234	10910
1086.562	10957
1088.89	10901
1091.217	10964
1093.544	11097
1095.871	10903
1098.197	10953
1100.521	10885
1102.845	11017
1105.169	10945
1107.491	10943
1109.814	10970
1112.135	10988
1114.456	11137
1116.776	10951
1119.096	11072
1121.415	10973
1123.734	10994
1126.052	11152
1128.369	10993
1130.686	10944
1133.002	11093
1135.318	11024
1137.632	10990
1139.945	11087
1142.258	11066
1144.573	11048
1146.884	10976
1149.196	10909
1151.505	11134
1153.816	11049
1156.124	10981
1158.435	11147
1160.742	11101
1163.051	11132
1165.356	11082
1167.663	11164
1169.97	11150
1172.276	11016
1174.579	11147
1176.881	10927
1179.186	10977
1181.487	11124
1183.79	11056
1186.092	11007
1188.392	11071
1190.691	11052
1192.991	11069
1195.291	10986
1197.588	11083
1199.885	10931
1202.181	11006
1204.479	11093
1206.775	11006
1209.07	11064
1211.363	11116
1213.656	11131
1215.949	11091
1218.241	11107
1220.534	11070
1222.825	11157
1225.115	11247
1227.405	11080
1229.693	11174
1231.984	11336
1234.271	11347
1236.558	11157
1238.845	11290
1241.131	11267
1243.416	11461
1245.703	11410
1247.987	11429
1250.269	11290
1252.552	11367
1254.834	11272
1257.118	11418
1259.399	11410
1261.678	11328
1263.958	11312
1266.237	11455
1268.516	11378
1270.794	11343
1273.072	11395
1275.347	11415
1277.624	11425
1279.899	11493
1282.175	11323
1284.449	11384
1286.722	11340
1288.995	11269
1291.266	11134
1293.54	11338
1295.81	11321
1298.081	11213
1300.35	11155
1302.62	11159
1304.889	11443
1307.156	11332
1309.425	11323
1311.69	11251
1313.957	11348
1316.222	11058
1318.488	11352
1320.751	11283
1323.016	11330
1325.278	11196
1327.54	11259
1329.803	11443
1332.065	11224
1334.325	11312
1336.584	11302
1338.843	11336
1341.101	11315
1343.36	11353
1345.617	11335
1347.876	11335
1350.131	11331
1352.387	11271
1354.643	11375
1356.897	11265
1359.151	11190
1361.403	11328
1363.656	11384
1365.909	11259
1368.16	11476
1370.409	11304
1372.659	11240
1374.909	11503
1377.157	11240
1379.407	11354
1381.655	11497
1383.9	11430
1386.147	11251
1388.393	11422
1390.64	11384
1392.885	11557
1395.127	11493
1397.37	11448
1399.614	11567
1401.854	11427
1404.098	11754
1406.339	11406
1408.578	11526
1410.818	11581
1413.056	11471
1415.297	11502
1417.533	11611
1419.771	11620
1422.006	11650
1424.243	11605
1426.479	11504
1428.715	11542
1430.948	11748
1433.182	11427
1435.414	11591
1437.647	11711
1439.88	11631
1442.11	11669
1444.342	11593
1446.571	11710
1448.799	11662
1451.029	11634
1453.258	11790
1455.485	11923
1457.711	11658
1459.937	11526
1462.164	11549
1464.39	11844
1466.614	11700
1468.838	11596
1471.06	11731
1473.283	11593
1475.506	11498
1477.727	11561
1479.949	11463
1482.169	11647
1484.389	11417
1486.609	11491
1488.828	11533
1491.045	11253
1493.261	11392
1495.477	11317
1497.693	11525
1499.91	11539
1502.125	11382
1504.339	11418
1506.553	11433
1508.766	11178
1510.979	11412
1513.191	11307
1515.402	11376
1517.613	11431
1519.823	11260
1522.033	11291
1524.242	11331
1526.451	11435
1528.657	11398
1530.865	11398
1533.072	11272
1535.278	11346
1537.484	11470
1539.687	11527
1541.892	11340
1544.096	11387
1546.299	11525
1548.502	11434
1550.703	11372
1552.905	11594
1555.104	11663
1557.303	11548
1559.505	11622
1561.703	11495
1563.902	11680
1566.099	11516
1568.295	11729
1570.494	11607
1572.689	11606
1574.883	11682
1577.079	11750
1579.272	11667
1581.467	11772
1583.659	11737
1585.853	11592
1588.044	11863
1590.234	11780
1592.424	11695
1594.615	11768
1596.806	11669
1598.994	11825
1601.182	11820
1603.369	11855
1605.557	11697
1607.744	11811
1609.929	11775
1612.114	11727
1614.298	11843
1616.482	11689
1618.667	11691
1620.85	11783
1623.032	11759
1625.214	11721
1627.395	11783
1629.575	11719
1631.755	12027
1633.935	11868
1636.114	11855
1638.292	11937
1640.471	11873
1642.647	11937
1644.823	12068
1647	11778
1649.175	11978
1651.348	11755
1653.525	11849
1655.698	11739
1657.87	11926
1660.043	11635
1662.213	11925
1664.387	11947
1666.558	11783
1668.727	12042
1670.896	11992
1673.064	11854
1675.233	11877
1677.401	11849
1679.569	11870
1681.735	12049
1683.902	11949
1686.066	11884
1688.233	11851
1690.397	11937
1692.559	11827
1694.723	11908
1696.885	11760
1699.048	11674
1701.21	11943
1703.37	11580
1705.53	11819
1707.689	11799
1709.849	11744
1712.009	11707
1714.166	11753
1716.323	11519
1718.479	11601
1720.634	11794
1722.793	11617
1724.948	11778
1727.102	11544
1729.255	11790
1731.408	11562
1733.562	11710
1735.714	11744
1737.865	11691
1740.016	11697
1742.166	11820
1744.316	11807
1746.467	11619
1748.616	11902
1750.764	11838
1752.911	11668
1755.056	11891
1757.205	11763
1759.35	11722
1761.496	11739
1763.641	11669
1765.785	11740
1767.927	11846
1770.072	11943
1772.214	11887
1774.355	11877
1776.496	11734
1778.637	11938
1780.778	11826
1782.918	11947
1785.057	11839
1787.194	11888
1789.333	11894
1791.472	11823
1793.608	12063
1795.745	11844
1797.879	11790
1800.015	11941
1802.148	11924
1804.284	12029
1806.417	11875
1808.548	11737
1810.682	11873
1812.812	11845
1814.946	11909
1817.075	11901
1819.205	11877
1821.335	11988
1823.463	11738
1825.59	11852
1827.721	11833
1829.847	11771
1831.973	11775
1834.098	11783
1836.223	11642
1838.351	11885
1840.475	11716
1842.598	11810
1844.721	11732
1846.843	11725
1848.966	11650
1851.087	11676
1853.21	11703
1855.33	11719
1857.449	11707
1859.568	11670
1861.688	11644
1863.806	11761
1865.924	11616
1868.039	11606
1870.155	11800
1872.273	11632
1874.388	11751
1876.503	11701
1878.617	11764
1880.73	11708
1882.844	11784
1884.956	11704
1887.068	11718
1889.18	11816
1891.291	11846
1893.4	11755
1895.511	11866
1897.621	11830
1899.73	11935
1901.837	11594
1903.944	11964
1906.053	11866
1908.159	11666
1910.265	11821
1912.369	11850
1914.474	11870
1916.577	11725
1918.683	11916
1920.785	11911
1922.888	11897
1924.989	11925
1927.091	11973
1929.193	11900
1931.294	11842
1933.393	11731
1935.493	11783
1937.59	11881
1939.689	12049
1941.788	11846
1943.884	11853
1945.98	11929
1948.077	11937
1950.171	11878
1952.267	12047
1954.361	11792
1956.455	11949
1958.548	11732
1960.64	11830
1962.733	11736
1964.824	11713
1966.915	11788
1969.005	11723
1971.096	11887
1973.185	11803
1975.275	11811
1977.363	11833
1979.45	11826
1981.537	11811
1983.623	11806
1985.711	11761
1987.796	11612
1989.881	11862
1991.965	11702
1994.047	11843
1996.132	11697
1998.215	11796
2000.297	11905
2002.378	11933
2004.46	11788
2006.54	11568
2008.62	11742
2010.7	11787
2012.779	11704
2014.858	11706
2016.934	11700
2019.013	11870
2021.09	11651
2023.165	11718
2025.241	11783
2027.317	11658
2029.39	11822
2031.466	11719
2033.538	11679
2035.612	11745
2037.683	11792
2039.755	11855
2041.827	11841
2043.898	11695
2045.968	11811
2048.038	11693
2050.106	11755
2052.177	11813
2054.244	11716
2056.313	11672
2058.379	11834
2060.444	11794
2062.511	11714
2064.577	11715
2066.641	11897
2068.705	11724
2070.77	11788
2072.832	11660
2074.896	11809
2076.958	11800
2079.02	11662
2081.081	11660
2083.141	11927
2085.2	11806
2087.261	11832
2089.319	11737
2091.377	11748
2093.435	11909
2095.492	11811
2097.552	11741
2099.607	11797
2101.663	11762
2103.718	11858
2105.771	11628
2107.826	11832
2109.879	11787
2111.932	11653
2113.985	11768
2116.037	11741
2118.088	11714
2120.141	11670
2122.191	11883
2124.239	11821
2126.288	11700
2128.337	11654
2130.387	11727
2132.434	11771
2134.481	11616
2136.528	11613
2138.574	11596
2140.618	11699
2142.665	11714
2144.71	11733
2146.753	11721
2148.797	11627
2150.838	11648
2152.883	11735
2154.923	11547
2156.965	11584
2159.007	11684
2161.046	11605
2163.086	11553
2165.126	11558
2167.163	11589
2169.202	11803
2171.239	11459
2173.277	11613
2175.314	11473
2177.349	11488
2179.385	11672
2181.42	11399
2183.453	11577
2185.49	11489
2187.522	11572
2189.555	11514
2191.586	11447
2193.619	11470
2195.651	11458
2197.682	11636
2199.711	11400
2201.74	11294
2203.769	11503
2205.799	11497
2207.828	11538
2209.855	11502
2211.882	11343
2213.908	11403
2215.934	11362
2217.961	11367
2219.986	11309
2222.01	11254
2224.034	11435
2226.057	11449
2228.08	11440
2230.104	11532
2232.124	11462
2234.145	11309
2236.166	11313
2238.186	11403
2240.207	11403
2242.227	11439
2244.244	11377
2246.262	11286
2248.28	11392
2250.299	11290
2252.314	11345
2254.33	11293
2256.346	11305
2258.36	11458
2260.375	11424
2262.391	11319
2264.403	11331
2266.416	11314
2268.427	11515
2270.44	11246
2272.453	11416
2274.463	11571
2276.474	11417
2278.483	11218
2280.493	11284
2282.501	11444
2284.51	11259
2286.518	11345
2288.524	11127
2290.532	11235
2292.537	11225
2294.544	11160
2296.55	11233
2298.554	11368
2300.557	11236
2302.562	11212
2304.566	11280
2306.568	11308
2308.569	11262
2310.572	11271
2312.573	11290
2314.573	11200
2316.574	11230
2318.573	11198
2320.571	11134
2322.571	11123
2324.569	11350
2326.567	11327
2328.564	11027
2330.56	11073
2332.556	11188
2334.551	11055
2336.546	11222
2338.542	11084
2340.535	11295
2342.529	11142
2344.521	11128
2346.512	11033
2348.505	11216
2350.497	11209
2352.487	11058
2354.478	10995
2356.468	11174
2358.457	11106
2360.446	10956
2362.434	11207
2364.422	11088
2366.408	11012
2368.395	11024
2370.383	11139
2372.369	11081
2374.353	11206
2376.338	11073
2378.321	10993
2380.307	11132
2382.29	11100
2384.272	11096
2386.254	11010
2388.235	10907
2390.218	10955
2392.198	10906
2394.179	11014
2396.157	10924
2398.137	10894
2400.115	10928
2402.095	10935
2404.072	10972
2406.048	11022
2408.026	11145
2410.001	10848
2411.977	10895
2413.953	10917
2415.927	10897
2417.9	10964
2419.875	11068
2421.847	10878
2423.821	10921
2425.792	11048
2427.763	10887
2429.736	10901
2431.706	10929
2433.677	11097
2435.646	11020
2437.615	11078
2439.583	10780
2441.551	10929
2443.519	10939
2445.486	10925
2447.452	10770
2449.418	10816
2451.383	10698
2453.348	11040
2455.314	10839
2457.278	10719
2459.241	10738
2461.205	10957
2463.167	10859
2465.131	10706
2467.091	10790
2469.052	10912
2471.012	10745
2472.972	10817
2474.932	10786
2476.891	10715
2478.85	10823
2480.808	10741
2482.766	10848
2484.722	10724
2486.68	10715
2488.636	10709
2490.591	10707
2492.546	10751
2494.5	10828
2496.456	10750
2498.41	10694
2500.362	10705
2502.315	10678
2504.266	10834
2506.218	10581
2508.169	10610
2510.121	10706
2512.07	10641
2514.019	10700
2515.968	10671
2517.918	10492
2519.866	10728
2521.813	10599
2523.76	10789
2525.707	10539
2527.653	10719
2529.599	10608
2531.543	10637
2533.489	10545
2535.433	10816
2537.376	10645
2539.32	10723
2541.264	10650
2543.205	10627
2545.147	10608
2547.087	10558
2549.029	10635
2550.969	10621
2552.908	10504
2554.847	10684
2556.786	10576
2558.724	10575
2560.663	10677
2562.6	10716
2564.537	10705
2566.473	10724
2568.408	10526
2570.345	10644
2572.28	10623
2574.214	10659
2576.148	10580
2578.081	10610
2580.014	10603
2581.947	10563
2583.879	10679
2585.81	10653
2587.741	10746
2589.67	10591
2591.602	10544
2593.532	10804
2595.461	10645
2597.388	10673
2599.316	10592
2601.244	10545
2603.172	10547
2605.098	10772
2607.023	10544
2608.949	10574
2610.873	10575
2612.8	10628
2614.723	10550
2616.647	10718
2618.569	10692
2620.493	10484
2622.416	10454
2624.338	10554
2626.258	10612
2628.179	10521
2630.099	10623
2632.019	10639
2633.939	10642
2635.857	10656
2637.775	10884
2639.694	10602
2641.61	10574
2643.528	10662
2645.444	10760
2647.361	10604
2649.276	10523
2651.19	10531
2653.105	10482
2655.019	10698
2656.934	10632
2658.846	10721
2660.758	10574
2662.67	10663
2664.583	10582
2666.493	10566
2668.404	10556
2670.313	10492
2672.223	10625
2674.134	10613
2676.042	10554
2677.95	10590
2679.858	10547
2681.765	10515
2683.673	10665
2685.579	10425
2687.483	10568
2689.389	10494
2691.294	10575
2693.198	10447
2695.104	10425
2697.006	10416
2698.909	10338
2700.811	10410
2702.713	10488
2704.615	10443
2706.516	10380
2708.417	10386
2710.316	10342
2712.216	10333
2714.115	10310
2716.014	10382
2717.913	10491
2719.81	10338
2721.707	10273
2723.603	10491
2725.501	10362
2727.396	10376
2729.292	10237
2731.186	10373
2733.081	10427
2734.976	10234
2736.87	10417
2738.762	10438
2740.653	10150
2742.546	10412
2744.437	10325
2746.329	10271
2748.22	10283
2750.11	10285
2751.999	10183
2753.889	10367
2755.778	10279
2757.666	10195
2759.553	10238
2761.44	10308
2763.328	10262
2765.215	10272
2767.101	10159
2768.986	10269
2770.87	10271
2772.754	10287
2774.638	10310
2776.523	10354
2778.405	10276
2780.288	10354
2782.17	10359
2784.051	10207
2785.934	10258
2787.814	10290
2789.694	10160
2791.574	10175
2793.453	10228
2795.332	10315
2797.212	10329
2799.088	10197
2800.966	10190
2802.843	10169
2804.719	10275
2806.597	10018
2808.471	10209
2810.346	10156
2812.221	10163
2814.094	10169
2815.969	10180
2817.843	10051
2819.714	10202
2821.587	10013
2823.459	10130
2825.329	10105
2827.202	10118
2829.072	10232
2830.942	10049
2832.811	10152
2834.68	10174
2836.549	10131
2838.418	10129
2840.284	10068
2842.152	10170
2844.018	10186
2845.885	9949
2847.751	10169
2849.616	10061
2851.482	10179
2853.345	10109
2855.208	10186
2857.074	10207
2858.937	10232
2860.799	10325
2862.66	10242
2864.522	10231
2866.385	10229
2868.245	10338
2870.104	10421
2871.964	10302
2873.824	10511
2875.683	10414
2877.542	10358
2879.4	10483
2881.257	10481
2883.114	10607
2884.97	10775
2886.827	10444
2888.683	10607
2890.537	10483
2892.392	10848
2894.246	10622
2896.1	10554
2897.954	10447
2899.807	10500
2901.66	10698
2903.51	10530
2905.362	10650
2907.214	10531
2909.065	10541
2910.915	10655
2912.765	10657
2914.613	10441
2916.463	10872
2918.311	10676
2920.158	10832
2922.006	10751
2923.853	10950
2925.698	11062
2927.546	10787
2929.392	10888
2931.236	11016
2933.081	11022
2934.924	11174
2936.77	11061
2938.613	11062
2940.455	11196
2942.298	11266
2944.139	11187
2945.982	11276
2947.823	11352
2949.662	11198
2951.503	11357
2953.342	11073
2955.182	11022
2957.021	11051
2958.858	10936
2960.697	10980
2962.534	10842
2964.37	10838
2966.207	10754
2968.044	10627
2969.879	10742
2971.714	10567
2973.548	10471
2975.383	10556
2977.218	10458
2979.051	10700
2980.883	10438
2982.715	10298
2984.547	10571
2986.379	10290
2988.21	10364
2990.04	10250
2991.87	10281
2993.7	10250
2995.53	10211
2997.359	10152
2999.187	10181
3001.015	10010
3002.842	10165
3004.669	10099
3006.497	9794
3008.323	9986
3010.148	9817
3011.974	9835
3013.797	9790
3015.623	9728
3017.447	9621
3019.27	9855
3021.094	9743
3022.915	9795
3024.737	9837
3026.56	9683
3028.38	9639
3030.201	9513
3032.022	9652
3033.84	9566
3035.662	9719
3037.481	9526
3039.298	9627
3041.117	9511
3042.933	9473
3044.752	9664
3046.568	9434
3048.385	9500
3050.2	9619
3052.016	9398
3053.83	9419
3055.646	9537
3057.46	9414
3059.272	9419
3061.086	9515
3062.898	9391
3064.711	9431
3066.524	9554
3068.335	9415
3070.145	9511
3071.956	9312
3073.766	9393
3075.576	9241
3077.385	9434
3079.193	9480
3081.002	9395
3082.81	9200
3084.618	9362
3086.425	9292
3088.231	9345
3090.036	9313
3091.842	9367
3093.648	9195
3095.452	9245
3097.257	9165
3099.06	9225
3100.863	9299
3102.666	9193
3104.47	9154
3106.272	9146
3108.073	9228
3109.875	9056
3111.676	9219
3113.477	9162
3115.277	9140
3117.077	9198
3118.874	9200
3120.673	9151
3122.473	9052
3124.271	9314
3126.066	8945
3127.863	9210
3129.66	9028
3131.456	8978
3133.252	8999
3135.047	9088
3136.842	8998
3138.635	8832
3140.429	9080
3142.223	8964
3144.016	9096
3145.808	9023
3147.6	9047
3149.392	9071
3151.183	9018
3152.975	8825
3154.765	8897
3156.553	9003
3158.344	9031
3160.132	8890
3161.922	8902
3163.71	8855
3165.497	8858
3167.285	9007
3169.071	8967
3170.858	8847
3172.645	8908
3174.429	8911
3176.214	8930
3177.998	8820
3179.783	8865
3181.568	8806
3183.351	8841
3185.133	8762
3186.915	8784
3188.698	8779
3190.481	8801
3192.261	8849
3194.042	8751
3195.822	8703
3197.601	8608
3199.381	8704
3201.161	8840
3202.939	8751
3204.717	8704
3206.495	8782
3208.272	8774
3210.05	8670
3211.826	8799
3213.602	8805
3215.376	8729
3217.151	8758
3218.927	8739
3220.702	8706
3222.476	8801
3224.249	8943
3226.021	8610
3227.793	8826
3229.567	8667
3231.339	8738
3233.109	8792
3234.88	8722
3236.651	8649
3238.421	8549
3240.191	8686
3241.96	8708
3243.728	8778
3245.497	8647
3247.263	8623
3249.033	8553
3250.799	8694
3252.566	8674
3254.331	8632
3256.097	8581
3257.863	8612
3259.628	8730
3261.392	8664
3263.156	8492
3264.919	8469
3266.683	8791
3268.447	8751
3270.208	8758
3271.969	8643
3273.731	8543
3275.492	8717
3277.253	8490
3279.013	8594
3280.773	8654
3282.532	8585
3284.291	8727
3286.05	8665
3287.808	8533
3289.566	8674
3291.323	8719
3293.079	8727
3294.835	8598
3296.593	8612
3298.348	8457
3300.102	8642
3301.857	8535
3303.611	8599
3305.366	8548
3307.119	8599
3308.872	8641
3310.624	8545
3312.376	8757
3314.129	8557
3315.881	8516
3317.631	8497
3319.38	8646
3321.13	8658
3322.88	8533
3324.631	8595
3326.379	8480
3328.126	8697
3329.875	8544
3331.622	8581
3333.371	8457
3335.116	8353
3336.863	8598
3338.609	8482
3340.353	8405
3342.1	8581
3343.845	8421
3345.588	8539
3347.332	8356
3349.074	8490
3350.817	8306
3352.56	8388
3354.303	8451
3356.043	8330
3357.785	8421
3359.525	8501
3361.268	8350
3363.007	8433
3364.745	8308
3366.485	8329
3368.223	8399
3369.962	8349
3371.701	8404
3373.438	8255
3375.174	8434
3376.911	8338
3378.647	8184
3380.384	8306
3382.118	8367
3383.854	8199
3385.588	8248
3387.322	8325
3389.057	8291
3390.79	8313
3392.522	8183
3394.255	8187
3395.987	8279
3397.719	8256
3399.451	8302
3401.181	8248
3402.911	8137
3404.641	8188
3406.371	8169
3408.101	8256
3409.83	8159
3411.558	8147
3413.285	8133
3415.011	8110
3416.739	8238
3418.467	8195
3420.193	8208
3421.919	8101
3423.644	8087
3425.368	8229
3427.094	8200
3428.818	8102
3430.542	8191
3432.264	8183
3433.987	8116
3435.712	7998
3437.434	8024
3439.155	8089
3440.876	8094
3442.596	8021
3444.317	8141
3446.039	8084
3447.757	7878
3449.477	8062
3451.195	8097
3452.914	7997
3454.632	7959
3456.35	8003
3458.067	7961
3459.784	7825
3461.5	7996
3463.216	7974
3464.932	7943
3466.647	7820
3468.362	7915
3470.076	7825
3471.789	8003
3473.505	7841
3475.217	7863
3476.929	7853
3478.641	7810
3480.354	7748
3482.066	7833
3483.777	7880
3485.487	7765
3487.197	7709
3488.908	7807
3490.617	7828
3492.327	7817
3494.035	7788
3495.743	7795
3497.451	7786
3499.158	7714
3500.866	7746
3502.572	7819
3504.278	7626
3505.984	7800
3507.689	7732
3509.396	7685
3511.1	7633
3512.804	7640
3514.508	7661
3516.211	7674
3517.913	7644
3519.616	7696
3521.319	7693
3523.021	7664
3524.722	7625
3526.422	7621
3528.124	7674
3529.824	7696
3531.524	7544
3533.222	7548
3534.921	7604
3536.62	7561
3538.318	7537
3540.016	7555
3541.714	7559
3543.41	7536
3545.107	7727
3546.803	7556
3548.5	7485
3550.194	7597
3551.889	7594
3553.583	7526
3555.279	7564
3556.972	7576
3558.666	7506
3560.358	7512
3562.051	7557
3563.742	7489
3565.435	7357
3567.126	7604
3568.817	7477
3570.507	7385
3572.197	7574
3573.888	7554
3575.577	7350
3577.265	7626
3578.954	7274
3580.642	7499
3582.329	7364
3584.017	7451
3585.704	7345
3587.391	7377
3589.077	7406
3590.762	7216
3592.449	7310
3594.133	7284
3595.817	7317
3597.501	7451
3599.185	7280
3600.869	7242
3602.552	7245
3604.234	7341
3605.916	7306
3607.598	7192
3609.279	7214
3610.961	7182
3612.642	7189
3614.321	7221
3616	7190
3617.68	7152
3619.36	7151
3621.039	7200
3622.716	7119
3624.394	7080
3626.071	7115
3627.748	7217
3629.425	7112
3631.102	7088
3632.778	7125
3634.452	7008
3636.127	6999
3637.803	7157
3639.477	7027
3641.151	7099
3642.823	6974
3644.497	7177
3646.171	7117
3647.842	7073
3649.515	6990
3651.185	6877
3652.857	7153
3654.527	6940
3656.198	7001
3657.868	6948
3659.537	6996
3661.207	6942
3662.875	7012
3664.544	6989
3666.212	6954
3667.879	6953
3669.546	6906
3671.212	6919
3672.88	6939
3674.546	6888
3676.211	7014
3677.875	7001
3679.541	6947
3681.205	6986
3682.87	6941
3684.533	6876
3686.196	6868
3687.859	6930
3689.521	7042
3691.184	6968
3692.845	6952
3694.507	6941
3696.167	6920
3697.827	6920
3699.487	6896
3701.148	6887
3702.808	6935
3704.466	6973
3706.125	6818
3707.783	6623
3709.442	6784
3711.099	6765
3712.757	6769
3714.412	6828
3716.068	6871
3717.725	6826
3719.381	6784
3721.036	6814
3722.689	6674
3724.344	6739
3725.998	6797
3727.652	6832
3729.305	6827
3730.958	6822
3732.61	6791
3734.262	6793
3735.915	6773
3737.565	6783
3739.217	6689
3740.866	6741
3742.516	6794
3744.165	6704
3745.816	6756
3747.464	6737
3749.113	6708
3750.761	6694
3752.409	6740
3754.057	6648
3755.703	6698
3757.35	6767
3758.996	6660
3760.641	6598
3762.289	6702
3763.933	6724
3765.577	6650
3767.222	6712
3768.865	6726
3770.508	6638
3772.152	6563
3773.796	6682
3775.438	6546
3777.079	6615
3778.721	6519
3780.363	6582
3782.003	6557
3783.643	6660
3785.283	6649
3786.923	6643
3788.563	6633
3790.203	6536
3791.841	6433
3793.479	6621
3795.115	6592
3796.753	6473
3798.391	6446
3800.027	6561
3801.664	6468
3803.299	6366
3804.935	6532
3806.571	6479
3808.206	6543
3809.839	6382
3811.473	6444
3813.107	6430
3814.74	6350
3816.375	6430
3818.006	6412
3819.638	6429
3821.27	6501
3822.9	6341
3824.532	6416
3826.163	6354
3827.792	6404
3829.423	6334
3831.051	6422
3832.682	6353
3834.311	6253
3835.938	6486
3837.566	6408
3839.193	6288
3840.821	6317
3842.448	6307
3844.075	6258
3845.7	6351
3847.325	6221
3848.951	6137
3850.576	6242
3852.201	6351
3853.825	6292
3855.448	6233
3857.072	6331
3858.694	6183
3860.318	6188
3861.939	6279
3863.562	6294
3865.183	6351
3866.804	6255
3868.426	6190
3870.045	6117
3871.666	6248
3873.285	6354
3874.904	6101
3876.524	6205
3878.142	6274
3879.76	6224
3881.378	6173
3882.995	6286
3884.612	6202
3886.229	6097
3887.845	6222
3889.461	6152
3891.076	6159
3892.691	6179
3894.307	6173
3895.922	6198
3897.536	5992
3899.149	6198
3900.761	6069
3902.374	6075
3903.988	6100
3905.6	6013
3907.212	6191
3908.822	5969
3910.433	6148
3912.045	6236
3913.655	6184
3915.265	6080
3916.875	5987
3918.483	6094
3920.093	6075
3921.702	6093
3923.309	6027
3924.917	6034
3926.523	6093
3928.13	6030
3929.739	6028
3931.344	6004
3932.95	6006
3934.555	6028
3936.159	6194
3937.766	6046
3939.369	6093
3940.974	6167
3942.577	5944
3944.181	6013
3945.783	6052
3947.386	6088
3948.989	6164
3950.59	6047
3952.191	6106
3953.791	5907
3955.394	6002
3956.994	5908
3958.593	6009
3960.192	5946
3961.791	5828
3963.392	5931
3964.99	5888
3966.588	5944
3968.185	5920
3969.782	5957
3971.379	5942
3972.976	5904
3974.572	5939
3976.168	5834
3977.763	5903
3979.358	5861
3980.954	5910
3982.548	5948
3984.142	5779
3985.736	5848
3987.329	5894
3988.922	5770
3990.516	5841
3992.108	5758
3993.698	5875
3995.29	5792
3996.881	5851
3998.473	5834
4000.064	5744
4001.653	5809
4003.242	5679
4004.832	5763
4006.422	5619
4008.01	5738
4009.598	5645
4011.186	5720
4012.773	5758
4014.36	5707
4015.947	5642
4017.534	5775
4019.119	5747
4020.705	5580
4022.291	5651
4023.876	5600
4025.461	5704
4027.044	5719
4028.627	5535
4030.211	5634
4031.795	5664
4033.378	5639
4034.96	5569
4036.542	5444
4038.124	5500
4039.704	5552
4041.286	5554
4042.867	5537
4044.447	5508
4046.026	5544
4047.606	5560
4049.187	5580
4050.765	5552
4052.343	5591
4053.92	5621
4055.498	5560
4057.076	5517
4058.654	5593
4060.23	5477
4061.806	5529
4063.381	5424
4064.957	5460
4066.533	5458
4068.107	5462
4069.682	5554
4071.256	5612
4072.829	5527
4074.404	5397
4075.977	5423
4077.549	5543
4079.121	5506
4080.693	5497
4082.265	5455
4083.836	5521
4085.407	5471
4086.977	5437
4088.547	5417
4090.117	5469
4091.687	5355
4093.256	5473
4094.825	5489
4096.392	5376
4097.96	5425
4099.528	5362
4101.097	5371
4102.663	5391
4104.229	5337
4105.795	5434
4107.361	5362
4108.928	5420
4110.493	5424
4112.058	5315
4113.621	5384
4115.186	5195
4116.75	5336
4118.313	5289
4119.876	5238
4121.438	5301
4123	5282
4124.562	5382
4126.125	5361
4127.686	5307
4129.246	5279
4130.807	5295
4132.367	5149
4133.927	5306
4135.486	5180
4137.046	5273
4138.604	5238
4140.162	5215
4141.72	5225
4143.279	5278
4144.836	5202
4146.393	5114
4147.949	5187
4149.505	5312
4151.062	5163
4152.617	5236
4154.172	5086
4155.727	5114
4157.281	5152
4158.836	5169
4160.39	5089
4161.943	5053
4163.496	5155
4165.048	5177
4166.601	5189
4168.154	5113
4169.706	5109
4171.257	5112
4172.808	5124
4174.358	5079
4175.909	5092
4177.458	5129
4179.008	5003
4180.558	5086
4182.106	5103
4183.655	4889
4185.204	5094
4186.751	4962
4188.298	5088
4189.845	5032
4191.392	5006
4192.939	4977
4194.485	4959
4196.031	5055
4197.576	5014
4199.121	5111
4200.666	5084
4202.211	5015
4203.754	5046
4205.298	5080
4206.84	4893
4208.384	4935
4209.927	5033
4211.47	4890
4213.011	5020
4214.552	4977
4216.094	4887
4217.635	4924
4219.175	4892
4220.716	4948
4222.255	4937
4223.793	4934
4225.335	4966
4226.873	4940
4228.411	4868
4229.948	4978
4231.486	4910
4233.024	4887
4234.562	4932
4236.098	4941
4237.634	4961
4239.169	4869
4240.705	5032
4242.241	4822
4243.776	4752
4245.31	4896
4246.844	4838
4248.378	4840
4249.911	4900
4251.445	4931
4252.978	4863
4254.51	4904
4256.042	4777
4257.574	4830
4259.107	4822
4260.638	4754
4262.169	4930
4263.699	4796
4265.228	4780
4266.759	4780
4268.289	4885
4269.818	4779
4271.345	4797
4272.874	4748
4274.402	4790
4275.931	4849
4277.458	4798
4278.985	4835
4280.512	4800
4282.037	4831
4283.564	4799
4285.089	4746
4286.615	4708
4288.139	4775
4289.664	4686
4291.187	4777
4292.712	4706
4294.235	4733
4295.759	4643
4297.281	4714
4298.804	4682
4300.327	4733
4301.849	4719
4303.37	4712
4304.891	4734
4306.412	4626
4307.933	4697
4309.453	4659
4310.973	4653
4312.492	4621
