398.1873	3118
400.7097	3060
403.2336	3046
405.7547	3042
408.2751	3102
410.7948	3104
413.3138	3067
415.83	3173
418.3497	3100
420.8666	3186
423.3829	3151
425.8985	3220
428.4133	3220
430.9275	3155
433.441	3178
435.9538	3286
438.4639	3178
440.9753	3221
443.4881	3309
445.9982	3278
448.5055	3262
451.0142	3234
453.5201	3250
456.0274	3307
458.5361	3262
461.04	3299
463.5453	3314
466.0478	3231
468.5517	3268
471.0549	3240
473.5574	3291
476.0572	3338
478.5584	3352
481.0568	3297
483.5545	3232
486.0557	3287
488.5521	3366
491.0478	3335
493.5449	3360
496.0392	3354
498.5349	3307
501.0299	3335
503.5222	3374
506.0139	3396
508.5048	3378
510.9991	3410
513.4887	3425
515.9777	3401
518.4659	3407
520.9534	3384
523.4403	3379
525.9306	3434
528.4161	3462
530.9009	3345
533.3851	3448
535.8687	3406
538.3535	3425
540.8356	3409
543.3171	3418
545.7979	3370
548.278	3429
550.7595	3395
553.2383	3417
555.7144	3386
558.1918	3365
560.6685	3439
563.1446	3389
565.6221	3477
568.0968	3468
570.5688	3494
573.0422	3530
575.515	3474
577.989	3559
580.4584	3505
582.9291	3486
585.3991	3570
587.8685	3513
590.3352	3648
592.8052	3523
595.2706	3544
597.7372	3500
600.2033	3506
602.6666	3505
605.1334	3507
607.5953	3498
610.0587	3528
612.5193	3471
614.9814	3449
617.4427	3569
619.9034	3490
622.3615	3527
624.8208	3534
627.2775	3447
629.7335	3520
632.1929	3478
634.6476	3489
637.1016	3493
639.5569	3435
642.0096	3499
644.4637	3487
646.9151	3574
649.3678	3515
651.8179	3534
654.2672	3625
656.7159	3511
659.166	3485
661.6154	3525
664.0622	3610
666.5082	3550
668.9537	3549
671.4005	3672
673.8445	3588
676.288	3603
678.7308	3619
681.1729	3535
683.6163	3547
686.0572	3598
688.4973	3594
690.9368	3625
693.3757	3615
695.8138	3600
698.2534	3548
700.6902	3594
703.1245	3591
705.56	3634
707.9949	3663
710.4311	3786
712.8647	3672
715.2957	3685
717.7279	3701
720.1595	3746
722.5905	3641
725.0208	3660
727.4505	3743
729.8795	3780
732.3058	3743
734.7336	3697
737.1626	3740
739.587	3832
742.0128	3780
744.4359	3821
746.8604	3758
749.2841	3749
751.7073	3844
754.1278	3791
756.5496	3789
758.9688	3739
761.3893	3788
763.8093	3842
766.2285	3813
768.6451	3827
771.0611	3900
773.4784	3895
775.895	3842
778.3091	3889
780.7244	3835
783.1371	3876
785.5493	3854
787.9626	3909
790.3754	3847
792.7856	3833
795.1951	3761
797.6039	3849
800.0121	3945
802.4236	3903
804.8306	3807
807.2369	3899
809.6425	3937
812.0475	3848
814.4538	3810
816.8575	3958
819.2606	4016
821.663	3936
824.0648	3839
826.4659	4020
828.8683	3872
831.2682	3983
833.6674	3960
836.066	4011
838.4639	3922
840.8632	4037
843.2579	3888
845.6539	3958
848.0493	3929
850.444	3955
852.84	3960
855.2315	3918
857.6243	3954
860.0165	4007
862.4081	4055
864.797	4012
867.1892	3985
869.5789	3940
871.9659	3929
874.3542	3940
876.74	3910
879.129	3914
881.5155	3984
883.8994	3975
886.2845	4064
888.6671	3960
891.051	3976
893.4343	3949
895.8169	3984
898.197	4020
900.5783	3982
902.9571	4025
905.3372	4069
907.7167	3947
910.0936	3970
912.4698	3916
914.8474	4011
917.2244	4078
919.5987	4085
921.9744	4081
924.3475	4046
926.72	4030
929.0918	4079
931.4669	4069
933.8375	4206
936.2074	4130
938.5767	4154
940.9454	4176
943.3154	4294
945.6829	4266
948.0497	4331
950.4178	4440
952.7833	4499
955.1483	4602
957.5145	4722
959.8782	4749
962.2412	4735
964.6036	4737
966.9655	4615
969.3266	4409
971.6871	4385
974.0471	4310
976.4064	4189
978.765	4263
981.125	4171
983.4824	4114
985.8373	4119
988.1935	4114
990.549	4135
992.9039	4048
995.2602	4049
997.6119	4089
999.965	4125
1002.317	4184
1004.667	4112
1007.02	4184
1009.371	4152
1011.719	4182
1014.068	4145
1016.415	4174
1018.765	4199
1021.111	4210
1023.458	4170
1025.804	4085
1028.147	4205
1030.49	4230
1032.837	4267
1035.179	4151
1037.522	4189
1039.862	4133
1042.204	4118
1044.546	4153
1046.884	4108
1049.224	4270
1051.562	4254
1053.899	4270
1056.237	4235
1058.575	4303
1060.91	4153
1063.244	4227
1065.58	4260
1067.913	4271
1070.248	4355
1072.579	4333
1074.911	4275
1077.242	4263
1079.572	4221
1081.905	4246
1084.234	4193
1086.562	4234
1088.89	4264
1091.217	4226
1093.544	4225
1095.871	4264
1098.197	4257
1100.521	4231
1102.845	4221
1105.169	4334
1107.491	4243
1109.814	4349
1112.135	4114
1114.456	4282
1116.776	4171
1119.096	4205
1121.415	4331
1123.734	4180
1126.052	4273
1128.369	4335
1130.686	4236
1133.002	4289
1135.318	4251
1137.632	4252
1139.945	4269
1142.258	4231
1144.573	4362
1146.884	4239
1149.196	4197
1151.505	4232
1153.816	4172
1156.124	4289
1158.435	4243
1160.742	4229
1163.051	4294
1165.356	4327
1167.663	4322
1169.97	4235
1172.276	4292
1174.579	4267
1176.881	4223
1179.186	4231
1181.487	4231
1183.79	4285
1186.092	4203
1188.392	4394
1190.691	4287
1192.991	4251
1195.291	4284
1197.588	4276
1199.885	4290
1202.181	4295
1204.479	4157
1206.775	4310
1209.07	4327
1211.363	4239
1213.656	4216
1215.949	4289
1218.241	4460
1220.534	4312
1222.825	4306
1225.115	4383
1227.405	4285
1229.693	4396
1231.984	4432
1234.271	4294
1236.558	4366
1238.845	4360
1241.131	4413
1243.416	4405
1245.703	4305
1247.987	4474
1250.269	4416
1252.552	4387
1254.834	4453
1257.118	4435
1259.399	4352
1261.678	4352
1263.958	4446
1266.237	4420
1268.516	4496
1270.794	4376
1273.072	4454
1275.347	4432
1277.624	4397
1279.899	4392
1282.175	4403
1284.449	4443
1286.722	4377
1288.995	4379
1291.266	4380
1293.54	4347
1295.81	4373
1298.081	4324
1300.35	4395
1302.62	4413
1304.889	4315
1307.156	4388
1309.425	4307
1311.69	4384
1313.957	4372
1316.222	4389
1318.488	4407
1320.751	4360
1323.016	4423
1325.278	4350
1327.54	4368
1329.803	4342
1332.065	4447
1334.325	4380
1336.584	4433
1338.843	4401
1341.101	4491
1343.36	4427
1345.617	4422
1347.876	4398
1350.131	4459
1352.387	4450
1354.643	4333
1356.897	4366
1359.151	4393
1361.403	4482
1363.656	4508
1365.909	4425
1368.16	4433
1370.409	4337
1372.659	4486
1374.909	4404
1377.157	4504
1379.407	4399
1381.655	4549
1383.9	4489
1386.147	4396
1388.393	4480
1390.64	4422
1392.885	4427
1395.127	4410
1397.37	4523
1399.614	4469
1401.854	4495
1404.098	4501
1406.339	4543
1408.578	4513
1410.818	4595
1413.056	4485
1415.297	4545
1417.533	4532
1419.771	4505
1422.006	4548
1424.243	4431
1426.479	4519
1428.715	4515
1430.948	4591
1433.182	4492
1435.414	4576
1437.647	4679
1439.88	4605
1442.11	4474
1444.342	4677
1446.571	4450
1448.799	4630
1451.029	4602
1453.258	4612
1455.485	4575
1457.711	4601
1459.937	4592
1462.164	4611
1464.39	4672
1466.614	4614
1468.838	4590
1471.06	4540
1473.283	4592
1475.506	4578
1477.727	4468
1479.949	4582
1482.169	4560
1484.389	4542
1486.609	4503
1488.828	4483
1491.045	4492
1493.261	4484
1495.477	4400
1497.693	4472
1499.91	4440
1502.125	4458
1504.339	4498
1506.553	4425
1508.766	4539
1510.979	4483
1513.191	4440
1515.402	4519
1517.613	4447
1519.823	4430
1522.033	4414
1524.242	4485
1526.451	4484
1528.657	4434
1530.865	4466
1533.072	4476
1535.278	4421
1537.484	4500
1539.687	4493
1541.892	4434
1544.096	4549
1546.299	4504
1548.502	4515
1550.703	4541
1552.905	4557
1555.104	4514
1557.303	4578
1559.505	4448
1561.703	4571
1563.902	4556
1566.099	4534
1568.295	4591
1570.494	4613
1572.689	4571
1574.883	4603
1577.079	4483
1579.272	4545
1581.467	4515
1583.659	4532
1585.853	4590
1588.044	4606
1590.234	4695
1592.424	4707
1594.615	4592
1596.806	4688
1598.994	4638
1601.182	4601
1603.369	4648
1605.557	4744
1607.744	4700
1609.929	4610
1612.114	4700
1614.298	4680
1616.482	4625
1618.667	4649
1620.85	4618
1623.032	4660
1625.214	4620
1627.395	4787
1629.575	4599
1631.755	4716
1633.935	4681
1636.114	4654
1638.292	4675
1640.471	4709
1642.647	4542
1644.823	4780
1647	4693
1649.175	4675
1651.348	4719
1653.525	4707
1655.698	4640
1657.87	4797
1660.043	4761
1662.213	4673
1664.387	4678
1666.558	4641
1668.727	4704
1670.896	4774
1673.064	4706
1675.233	4841
1677.401	4666
1679.569	4734
1681.735	4768
1683.902	4662
1686.066	4761
1688.233	4725
1690.397	4715
1692.559	4727
1694.723	4731
1696.885	4819
1699.048	4688
1701.21	4701
1703.37	4669
1705.53	4743
1707.689	4769
1709.849	4721
1712.009	4628
1714.166	4602
1716.323	4764
1718.479	4694
1720.634	4757
1722.793	4739
1724.948	4682
1727.102	4628
1729.255	4694
1731.408	4596
1733.562	4730
1735.714	4611
1737.865	4696
1740.016	4748
1742.166	4627
1744.316	4650
1746.467	4650
1748.616	4690
1750.764	4764
1752.911	4739
1755.056	4712
1757.205	4782
1759.35	4626
1761.496	4775
1763.641	4729
1765.785	4674
1767.927	4674
1770.072	4749
1772.214	4602
1774.355	4715
1776.496	4719
1778.637	4713
1780.778	4796
1782.918	4927
1785.057	4722
1787.194	4683
1789.333	4689
1791.472	4659
1793.608	4684
1795.745	4695
1797.879	4782
1800.015	4694
1802.148	4703
1804.284	4683
1806.417	4807
1808.548	4701
1810.682	4805
1812.812	4805
1814.946	4656
1817.075	4766
1819.205	4763
1821.335	4660
1823.463	4646
1825.59	4715
1827.721	4733
1829.847	4714
1831.973	4761
1834.098	4822
1836.223	4770
1838.351	4713
1840.475	4749
1842.598	4814
1844.721	4729
1846.843	4706
1848.966	4707
1851.087	4665
1853.21	4729
1855.33	4701
1857.449	4677
1859.568	4662
1861.688	4730
1863.806	4725
1865.924	4697
1868.039	4765
1870.155	4661
1872.273	4690
1874.388	4640
1876.503	4718
1878.617	4630
1880.73	4798
1882.844	4744
1884.956	4807
1887.068	4834
1889.18	4686
1891.291	4749
1893.4	4774
1895.511	4743
1897.621	4777
1899.73	4752
1901.837	4751
1903.944	4810
1906.053	4757
1908.159	4816
1910.265	4849
1912.369	4751
1914.474	4789
1916.577	4809
1918.683	4777
1920.785	4776
1922.888	4761
1924.989	4910
1927.091	4717
1929.193	4892
1931.294	4842
1933.393	4780
1935.493	4820
1937.59	4893
1939.689	4791
1941.788	4816
1943.884	4850
1945.98	4828
1948.077	5018
1950.171	4773
1952.267	4768
1954.361	4863
1956.455	4841
1958.548	4864
1960.64	4724
1962.733	4746
1964.824	4832
1966.915	4774
1969.005	4786
1971.096	4822
1973.185	4796
1975.275	4865
1977.363	4857
1979.45	4878
1981.537	4846
1983.623	4837
1985.711	4775
1987.796	4784
1989.881	4795
1991.965	4902
1994.047	4808
1996.132	4795
1998.215	4790
2000.297	4797
2002.378	4807
2004.46	4692
2006.54	4817
2008.62	4848
2010.7	4852
2012.779	4766
2014.858	4784
2016.934	4853
2019.013	4728
2021.09	4767
2023.165	4797
2025.241	4795
2027.317	4827
2029.39	4824
2031.466	4840
2033.538	4756
2035.612	4815
2037.683	4855
2039.755	4766
2041.827	4867
2043.898	4744
2045.968	4726
2048.038	4819
2050.106	4794
2052.177	4792
2054.244	4818
2056.313	4845
2058.379	4739
2060.444	4799
2062.511	4804
2064.577	4872
2066.641	4771
2068.705	4903
2070.77	4789
2072.832	4786
2074.896	4806
2076.958	4750
2079.02	4776
2081.081	4782
2083.141	4938
2085.2	4857
2087.261	4769
2089.319	4743
2091.377	4856
2093.435	4793
2095.492	4796
2097.552	4888
2099.607	4899
2101.663	4806
2103.718	4754
2105.771	4832
2107.826	4807
2109.879	4783
2111.932	4924
2113.985	4801
2116.037	4854
2118.088	4845
2120.141	4765
2122.191	4879
2124.239	4919
2126.288	4799
2128.337	4803
2130.387	4901
2132.434	4875
2134.481	4777
2136.528	4756
2138.574	4787
2140.618	4766
2142.665	4814
2144.71	4837
2146.753	4818
2148.797	4775
2150.838	4804
2152.883	4819
2154.923	4844
2156.965	4820
2159.007	4844
2161.046	4786
2163.086	4799
2165.126	4877
2167.163	4786
2169.202	4846
2171.239	4850
2173.277	4821
2175.314	4717
2177.349	4781
2179.385	4848
2181.42	4836
2183.453	4830
2185.49	4845
2187.522	4839
2189.555	4759
2191.586	4782
2193.619	4685
2195.651	4853
2197.682	4820
2199.711	4767
2201.74	4729
2203.769	4741
2205.799	4783
2207.828	4697
2209.855	4819
2211.882	4726
2213.908	4732
2215.934	4728
2217.961	4683
2219.986	4778
2222.01	4742
2224.034	4691
2226.057	4674
2228.08	4718
2230.104	4742
2232.124	4782
2234.145	4779
2236.166	4671
2238.186	4788
2240.207	4805
2242.227	4648
2244.244	4761
2246.262	4786
2248.28	4704
2250.299	4747
2252.314	4663
2254.33	4851
2256.346	4808
2258.36	4733
2260.375	4751
2262.391	4744
2264.403	4758
2266.416	4702
2268.427	4795
2270.44	4793
2272.453	4744
2274.463	4745
2276.474	4772
2278.483	4732
2280.493	4792
2282.501	4710
2284.51	4723
2286.518	4723
2288.524	4662
2290.532	4781
2292.537	4801
2294.544	4746
2296.55	4757
2298.554	4760
2300.557	4770
2302.562	4672
2304.566	4759
2306.568	4693
2308.569	4704
2310.572	4779
2312.573	4762
2314.573	4552
2316.574	4806
2318.573	4696
2320.571	4757
2322.571	4708
2324.569	4861
2326.567	4731
2328.564	4684
2330.56	4639
2332.556	4699
2334.551	4686
2336.546	4689
2338.542	4652
2340.535	4764
2342.529	4666
2344.521	4728
2346.512	4723
2348.505	4708
2350.497	4643
2352.487	4667
2354.478	4700
2356.468	4697
2358.457	4698
2360.446	4664
2362.434	4631
2364.422	4680
2366.408	4693
2368.395	4715
2370.383	4719
2372.369	4630
2374.353	4742
2376.338	4595
2378.321	4658
2380.307	4703
2382.29	4573
2384.272	4680
2386.254	4721
2388.235	4728
2390.218	4611
2392.198	4577
2394.179	4646
2396.157	4682
2398.137	4743
2400.115	4642
2402.095	4609
2404.072	4656
2406.048	4644
2408.026	4610
2410.001	4562
2411.977	4699
2413.953	4647
2415.927	4679
2417.9	4721
2419.875	4659
2421.847	4715
2423.821	4684
2425.792	4620
2427.763	4655
2429.736	4711
2431.706	4617
2433.677	4641
2435.646	4576
2437.615	4735
2439.583	4648
2441.551	4683
2443.519	4697
2445.486	4680
2447.452	4657
2449.418	4618
2451.383	4628
2453.348	4719
2455.314	4655
2457.278	4699
2459.241	4670
2461.205	4638
2463.167	4550
2465.131	4602
2467.091	4586
2469.052	4622
2471.012	4604
2472.972	4726
2474.932	4590
2476.891	4649
2478.85	4662
2480.808	4602
2482.766	4602
2484.722	4564
2486.68	4639
2488.636	4605
2490.591	4605
2492.546	4649
2494.5	4569
2496.456	4577
2498.41	4601
2500.362	4592
2502.315	4546
2504.266	4640
2506.218	4613
2508.169	4542
2510.121	4568
2512.07	4598
2514.019	4642
2515.968	4670
2517.918	4556
2519.866	4654
2521.813	4600
2523.76	4642
2525.707	4612
2527.653	4577
2529.599	4528
2531.543	4542
2533.489	4607
2535.433	4513
2537.376	4605
2539.32	4650
2541.264	4581
2543.205	4652
2545.147	4602
2547.087	4612
2549.029	4546
2550.969	4537
2552.908	4602
2554.847	4638
2556.786	4650
2558.724	4609
2560.663	4539
2562.6	4603
2564.537	4600
2566.473	4621
2568.408	4665
2570.345	4615
2572.28	4646
2574.214	4627
2576.148	4575
2578.081	4605
2580.014	4611
2581.947	4541
2583.879	4576
2585.81	4612
2587.741	4545
2589.67	4515
2591.602	4586
2593.532	4618
2595.461	4672
2597.388	4522
2599.316	4592
2601.244	4589
2603.172	4621
2605.098	4549
2607.023	4563
2608.949	4599
2610.873	4561
2612.8	4541
2614.723	4581
2616.647	4583
2618.569	4634
2620.493	4648
2622.416	4555
2624.338	4603
2626.258	4640
2628.179	4660
2630.099	4603
2632.019	4705
2633.939	4609
2635.857	4627
2637.775	4624
2639.694	4666
2641.61	4617
2643.528	4639
2645.444	4646
2647.361	4601
2649.276	4617
2651.19	4682
2653.105	4643
2655.019	4605
2656.934	4567
2658.846	4632
2660.758	4611
2662.67	4561
2664.583	4637
2666.493	4663
2668.404	4694
2670.313	4575
2672.223	4627
2674.134	4610
2676.042	4666
2677.95	4662
2679.858	4560
2681.765	4591
2683.673	4561
2685.579	4698
2687.483	4581
2689.389	4554
2691.294	4574
2693.198	4679
2695.104	4526
2697.006	4555
2698.909	4557
2700.811	4667
2702.713	4545
2704.615	4617
2706.516	4555
2708.417	4550
2710.316	4506
2712.216	4542
2714.115	4611
2716.014	4588
2717.913	4497
2719.81	4533
2721.707	4608
2723.603	4596
2725.501	4559
2727.396	4478
2729.292	4545
2731.186	4495
2733.081	4563
2734.976	4539
2736.87	4522
2738.762	4567
2740.653	4607
2742.546	4586
2744.437	4588
2746.329	4505
2748.22	4542
2750.11	4602
2751.999	4519
2753.889	4566
2755.778	4694
2757.666	4537
2759.553	4575
2761.44	4478
2763.328	4501
2765.215	4560
2767.101	4497
2768.986	4506
2770.87	4515
2772.754	4528
2774.638	4494
2776.523	4548
2778.405	4652
2780.288	4501
2782.17	4534
2784.051	4479
2785.934	4578
2787.814	4527
2789.694	4530
2791.574	4477
2793.453	4552
2795.332	4469
2797.212	4555
2799.088	4404
2800.966	4470
2802.843	4530
2804.719	4497
2806.597	4507
2808.471	4489
2810.346	4429
2812.221	4458
2814.094	4545
2815.969	4459
2817.843	4520
2819.714	4612
2821.587	4509
2823.459	4484
2825.329	4477
2827.202	4560
2829.072	4479
2830.942	4534
2832.811	4504
2834.68	4545
2836.549	4480
2838.418	4544
2840.284	4488
2842.152	4551
2844.018	4557
2845.885	4445
2847.751	4566
2849.616	4515
2851.482	4479
2853.345	4527
2855.208	4538
2857.074	4480
2858.937	4522
2860.799	4485
2862.66	4587
2864.522	4593
2866.385	4535
2868.245	4689
2870.104	4701
2871.964	4627
2873.824	4744
2875.683	4659
2877.542	4677
2879.4	4650
2881.257	4688
2883.114	4801
2884.97	4710
2886.827	4704
2888.683	4783
2890.537	4775
2892.392	4733
2894.246	4885
2896.1	4807
2897.954	4728
2899.807	4670
2901.66	4692
2903.51	4696
2905.362	4641
2907.214	4727
2909.065	4717
2910.915	4796
2912.765	4688
2914.613	4695
2916.463	4877
2918.311	4837
2920.158	4805
2922.006	4796
2923.853	4840
2925.698	4848
2927.546	4877
2929.392	4956
2931.236	4981
2933.081	5027
2934.924	5007
2936.77	4969
2938.613	5082
2940.455	5016
2942.298	5053
2944.139	5050
2945.982	5107
2947.823	5077
2949.662	5034
2951.503	5021
2953.342	5052
2955.182	5095
2957.021	4995
2958.858	4929
2960.697	4912
2962.534	4951
2964.37	4869
2966.207	4849
2968.044	4815
2969.879	4797
2971.714	4819
2973.548	4877
2975.383	4791
2977.218	4752
2979.051	4728
2980.883	4668
2982.715	4712
2984.547	4668
2986.379	4688
2988.21	4644
2990.04	4696
2991.87	4569
2993.7	4630
2995.53	4623
2997.359	4762
2999.187	4510
3001.015	4571
3002.842	4524
3004.669	4512
3006.497	4560
3008.323	4463
3010.148	4513
3011.974	4449
3013.797	4335
3015.623	4398
3017.447	4494
3019.27	4466
3021.094	4411
3022.915	4304
3024.737	4395
3026.56	4329
3028.38	4379
3030.201	4289
3032.022	4388
3033.84	4336
3035.662	4344
3037.481	4418
3039.298	4387
3041.117	4319
3042.933	4354
3044.752	4306
3046.568	4336
3048.385	4314
3050.2	4324
3052.016	4349
3053.83	4323
3055.646	4276
3057.46	4304
3059.272	4277
3061.086	4319
3062.898	4230
3064.711	4249
3066.524	4259
3068.335	4269
3070.145	4322
3071.956	4214
3073.766	4325
3075.576	4258
3077.385	4233
3079.193	4360
3081.002	4266
3082.81	4310
3084.618	4238
3086.425	4285
3088.231	4236
3090.036	4240
3091.842	4218
3093.648	4175
3095.452	4232
3097.257	4241
3099.06	4241
3100.863	4237
3102.666	4242
3104.47	4296
3106.272	4204
3108.073	4249
3109.875	4233
3111.676	4170
3113.477	4147
3115.277	4170
3117.077	4131
3118.874	4118
3120.673	4259
3122.473	4163
3124.271	4174
3126.066	4106
3127.863	4176
3129.66	4117
3131.456	4178
3133.252	4164
3135.047	4159
3136.842	4113
3138.635	4133
3140.429	4160
3142.223	4036
3144.016	4143
3145.808	4138
3147.6	4081
3149.392	4114
3151.183	4157
3152.975	4071
3154.765	4125
3156.553	4059
3158.344	4084
3160.132	4120
3161.922	4082
3163.71	4101
3165.497	4104
3167.285	4098
3169.071	4125
3170.858	4144
3172.645	4224
3174.429	4065
3176.214	4107
3177.998	3991
3179.783	4053
3181.568	4054
3183.351	4116
3185.133	4074
3186.915	4027
3188.698	4120
3190.481	4142
3192.261	4028
3194.042	4042
3195.822	4058
3197.601	4082
3199.381	4035
3201.161	4096
3202.939	4024
3204.717	4030
3206.495	4086
3208.272	4095
3210.05	4124
3211.826	4056
3213.602	3998
3215.376	4139
3217.151	4054
3218.927	3965
3220.702	4137
3222.476	3986
3224.249	4017
3226.021	4079
3227.793	4045
3229.567	4030
3231.339	4053
3233.109	4080
3234.88	4086
3236.651	4021
3238.421	4087
3240.191	4040
3241.96	4071
3243.728	4070
3245.497	4042
3247.263	4040
3249.033	4030
3250.799	4086
3252.566	4074
3254.331	4048
3256.097	4032
3257.863	4081
3259.628	4037
3261.392	4010
3263.156	4019
3264.919	4105
3266.683	4100
3268.447	4074
3270.208	4053
3271.969	4028
3273.731	4021
3275.492	3974
3277.253	3991
3279.013	4040
3280.773	4054
3282.532	4079
3284.291	4036
3286.05	3979
3287.808	3998
3289.566	4110
3291.323	3988
3293.079	4024
3294.835	4100
3296.593	4095
3298.348	3988
3300.102	4052
3301.857	3992
3303.611	4009
3305.366	3981
3307.119	4082
3308.872	3983
3310.624	4054
3312.376	3978
3314.129	3996
3315.881	4068
3317.631	3966
3319.38	4020
3321.13	4006
3322.88	4085
3324.631	4004
3326.379	4042
3328.126	4065
3329.875	4047
3331.622	4018
3333.371	4018
3335.116	3932
3336.863	4116
3338.609	3938
3340.353	3932
3342.1	3990
3343.845	4006
3345.588	3995
3347.332	3943
3349.074	3933
3350.817	3959
3352.56	3994
3354.303	4028
3356.043	4047
3357.785	4009
3359.525	3953
3361.268	3920
3363.007	3962
3364.745	3973
3366.485	3960
3368.223	3971
3369.962	3973
3371.701	3816
3373.438	3922
3375.174	3906
3376.911	3934
3378.647	3938
3380.384	3879
3382.118	3990
3383.854	3981
3385.588	3936
3387.322	3882
3389.057	3902
3390.79	3967
3392.522	3839
3394.255	3910
3395.987	3917
3397.719	3984
3399.451	3884
3401.181	3879
3402.911	3864
3404.641	3931
3406.371	3831
3408.101	3879
3409.83	3943
3411.558	3905
3413.285	3845
3415.011	3945
3416.739	3964
3418.467	3784
3420.193	3856
3421.919	3865
3423.644	3847
3425.368	3770
3427.094	3864
3428.818	3892
3430.542	3914
3432.264	3862
3433.987	3850
3435.712	3869
3437.434	3885
3439.155	3860
3440.876	3867
3442.596	3866
3444.317	3835
3446.039	3848
3447.757	3806
3449.477	3765
3451.195	3779
3452.914	3808
3454.632	3816
3456.35	3745
3458.067	3856
3459.784	3731
3461.5	3832
3463.216	3782
3464.932	3801
3466.647	3750
3468.362	3728
3470.076	3834
3471.789	3762
3473.505	3878
3475.217	3763
3476.929	3773
3478.641	3823
3480.354	3773
3482.066	3691
3483.777	3766
3485.487	3800
3487.197	3763
3488.908	3724
3490.617	3739
3492.327	3724
3494.035	3716
3495.743	3744
3497.451	3685
3499.158	3686
3500.866	3671
3502.572	3758
3504.278	3727
3505.984	3638
3507.689	3662
3509.396	3709
3511.1	3690
3512.804	3708
3514.508	3697
3516.211	3738
3517.913	3662
3519.616	3671
3521.319	3649
3523.021	3650
3524.722	3680
3526.422	3684
3528.124	3619
3529.824	3708
3531.524	3654
3533.222	3604
3534.921	3637
3536.62	3692
3538.318	3680
3540.016	3687
3541.714	3633
3543.41	3681
3545.107	3607
3546.803	3699
3548.5	3577
3550.194	3560
3551.889	3640
3553.583	3666
3555.279	3708
3556.972	3615
3558.666	3646
3560.358	3682
3562.051	3726
3563.742	3602
3565.435	3669
3567.126	3619
3568.817	3621
3570.507	3582
3572.197	3658
3573.888	3648
3575.577	3603
3577.265	3602
3578.954	3552
3580.642	3574
3582.329	3569
3584.017	3569
3585.704	3544
3587.391	3557
3589.077	3566
3590.762	3565
3592.449	3617
3594.133	3480
3595.817	3515
3597.501	3531
3599.185	3592
3600.869	3489
3602.552	3500
3604.234	3508
3605.916	3594
3607.598	3517
3609.279	3549
3610.961	3543
3612.642	3482
3614.321	3644
3616	3478
3617.68	3456
3619.36	3517
3621.039	3428
3622.716	3493
3624.394	3429
3626.071	3491
3627.748	3445
3629.425	3468
3631.102	3458
3632.778	3494
3634.452	3377
3636.127	3479
3637.803	3416
3639.477	3416
3641.151	3469
3642.823	3362
3644.497	3370
3646.171	3423
3647.842	3408
3649.515	3438
3651.185	3398
3652.857	3436
3654.527	3453
3656.198	3410
3657.868	3391
3659.537	3410
3661.207	3478
3662.875	3370
3664.544	3508
3666.212	3395
3667.879	3372
3669.546	3394
3671.212	3379
3672.88	3397
3674.546	3432
3676.211	3382
3677.875	3370
3679.541	3302
3681.205	3380
3682.87	3344
3684.533	3347
3686.196	3442
3687.859	3407
3689.521	3364
3691.184	3380
3692.845	3395
3694.507	3315
3696.167	3485
3697.827	3378
3699.487	3381
3701.148	3443
3702.808	3359
3704.466	3306
3706.125	3270
3707.783	3305
3709.442	3427
3711.099	3314
3712.757	3321
3714.412	3416
3716.068	3355
3717.725	3331
3719.381	3400
3721.036	3288
3722.689	3370
3724.344	3398
3725.998	3322
3727.652	3340
3729.305	3322
3730.958	3320
3732.61	3255
3734.262	3344
3735.915	3379
3737.565	3306
3739.217	3354
3740.866	3307
3742.516	3355
3744.165	3328
3745.816	3308
3747.464	3254
3749.113	3255
3750.761	3317
3752.409	3286
3754.057	3367
3755.703	3247
3757.35	3310
3758.996	3292
3760.641	3267
3762.289	3298
3763.933	3233
3765.577	3265
3767.222	3244
3768.865	3280
3770.508	3261
3772.152	3211
3773.796	3293
3775.438	3264
3777.079	3151
3778.721	3230
3780.363	3238
3782.003	3145
3783.643	3243
3785.283	3170
3786.923	3226
3788.563	3248
3790.203	3240
3791.841	3272
3793.479	3243
3795.115	3204
3796.753	3216
3798.391	3178
3800.027	3193
3801.664	3177
3803.299	3143
3804.935	3193
3806.571	3204
3808.206	3226
3809.839	3182
3811.473	3208
3813.107	3237
3814.74	3155
3816.375	3170
3818.006	3197
3819.638	3215
3821.27	3229
3822.9	3131
3824.532	3207
3826.163	3161
3827.792	3185
3829.423	3202
3831.051	3148
3832.682	3151
3834.311	3126
3835.938	3146
3837.566	3134
3839.193	3088
3840.821	3207
3842.448	3152
3844.075	3088
3845.7	3185
3847.325	3146
3848.951	3101
3850.576	3204
3852.201	3063
3853.825	3094
3855.448	3125
3857.072	3143
3858.694	3077
3860.318	3090
3861.939	3144
3863.562	3140
3865.183	3071
3866.804	3086
3868.426	3078
3870.045	3085
3871.666	3105
3873.285	3184
3874.904	3079
3876.524	3152
3878.142	3012
3879.76	3059
3881.378	3141
3882.995	3126
3884.612	3098
3886.229	3127
3887.845	3071
3889.461	3092
3891.076	3040
3892.691	3045
3894.307	3142
3895.922	3062
3897.536	3106
3899.149	3073
3900.761	3101
3902.374	3164
3903.988	3030
3905.6	2979
3907.212	3092
3908.822	3015
3910.433	3084
3912.045	3088
3913.655	3101
3915.265	3077
3916.875	3147
3918.483	3098
3920.093	3021
3921.702	3075
3923.309	3082
3924.917	3027
3926.523	3054
3928.13	3072
3929.739	3070
3931.344	3055
3932.95	3104
3934.555	3056
3936.159	3039
3937.766	3043
3939.369	3059
3940.974	2999
3942.577	2950
3944.181	3042
3945.783	3022
3947.386	3081
3948.989	3038
3950.59	3070
3952.191	2979
3953.791	3015
3955.394	3046
3956.994	3009
3958.593	2971
3960.192	3029
3961.791	2991
3963.392	2942
3964.99	2985
3966.588	3049
3968.185	2969
3969.782	3041
3971.379	2981
3972.976	3048
3974.572	2982
3976.168	2893
3977.763	2936
3979.358	2958
3980.954	2985
3982.548	2934
3984.142	2966
3985.736	2955
3987.329	2934
3988.922	2972
3990.516	2981
3992.108	2956
3993.698	3001
3995.29	2965
3996.881	2891
3998.473	2949
4000.064	2921
4001.653	2934
4003.242	2943
4004.832	2883
4006.422	2840
4008.01	2968
4009.598	2891
4011.186	2935
4012.773	2859
4014.36	2873
4015.947	2827
4017.534	2916
4019.119	2891
4020.705	2790
4022.291	2895
4023.876	2867
4025.461	2898
4027.044	2914
4028.627	2822
4030.211	2794
4031.795	2868
4033.378	2854
4034.96	2788
4036.542	2879
4038.124	2829
4039.704	2788
4041.286	2851
4042.867	2868
4044.447	2801
4046.026	2818
4047.606	2868
4049.187	2839
4050.765	2890
4052.343	2849
4053.92	2862
4055.498	2834
4057.076	2844
4058.654	2900
4060.23	2799
4061.806	2852
4063.381	2852
4064.957	2793
4066.533	2881
4068.107	2808
4069.682	2817
4071.256	2819
4072.829	2760
4074.404	2807
4075.977	2785
4077.549	2861
4079.121	2774
4080.693	2733
4082.265	2808
4083.836	2824
4085.407	2742
4086.977	2759
4088.547	2847
4090.117	2689
4091.687	2860
4093.256	2834
4094.825	2820
4096.392	2779
4097.96	2805
4099.528	2780
4101.097	2735
4102.663	2767
4104.229	2708
4105.795	2801
4107.361	2738
4108.928	2789
4110.493	2746
4112.058	2755
4113.621	2784
4115.186	2790
4116.75	2708
4118.313	2727
4119.876	2724
4121.438	2692
4123	2723
4124.562	2782
4126.125	2714
4127.686	2738
4129.246	2771
4130.807	2688
4132.367	2684
4133.927	2775
4135.486	2759
4137.046	2766
4138.604	2713
4140.162	2724
4141.72	2648
4143.279	2758
4144.836	2632
4146.393	2726
4147.949	2693
4149.505	2737
4151.062	2753
4152.617	2671
4154.172	2667
4155.727	2688
4157.281	2677
4158.836	2660
4160.39	2675
4161.943	2658
4163.496	2690
4165.048	2646
4166.601	2696
4168.154	2665
4169.706	2613
4171.257	2655
4172.808	2686
4174.358	2655
4175.909	2583
4177.458	2622
4179.008	2653
4180.558	2636
4182.106	2624
4183.655	2679
4185.204	2621
4186.751	2612
4188.298	2594
4189.845	2596
4191.392	2607
4192.939	2631
4194.485	2615
4196.031	2657
4197.576	2656
4199.121	2558
4200.666	2602
4202.211	2603
4203.754	2563
4205.298	2572
4206.84	2620
4208.384	2599
4209.927	2626
4211.47	2561
4213.011	2632
4214.552	2639
4216.094	2613
4217.635	2611
4219.175	2543
4220.716	2528
4222.255	2573
4223.793	2577
4225.335	2535
4226.873	2495
4228.411	2574
4229.948	2592
4231.486	2568
4233.024	2594
4234.562	2589
4236.098	2572
4237.634	2571
4239.169	2548
4240.705	2583
4242.241	2528
4243.776	2635
4245.31	2548
4246.844	2581
4248.378	2518
4249.911	2510
4251.445	2542
4252.978	2550
4254.51	2532
4256.042	2584
4257.574	2477
4259.107	2528
4260.638	2533
4262.169	2519
4263.699	2490
4265.228	2552
4266.759	2518
4268.289	2500
4269.818	2527
4271.345	2533
4272.874	2500
4274.402	2545
4275.931	2551
4277.458	2519
4278.985	2489
4280.512	2498
4282.037	2513
4283.564	2516
4285.089	2495
4286.615	2431
4288.139	2491
4289.664	2473
4291.187	2479
4292.712	2453
4294.235	2505
4295.759	2456
4297.281	2555
4298.804	2460
4300.327	2422
4301.849	2451
4303.37	2450
4304.891	2468
4306.412	2440
4307.933	2439
4309.453	2429
4310.973	2532
4312.492	2474
