398.1873	3155
400.7097	3106
403.2336	3110
405.7547	3076
408.2751	3115
410.7948	3115
413.3138	3149
415.83	3141
418.3497	3176
420.8666	3189
423.3829	3242
425.8985	3147
428.4133	3207
430.9275	3256
433.441	3264
435.9538	3271
438.4639	3206
440.9753	3273
443.4881	3306
445.9982	3340
448.5055	3267
451.0142	3306
453.5201	3307
456.0274	3310
458.5361	3341
461.04	3206
463.5453	3339
466.0478	3395
468.5517	3378
471.0549	3371
473.5574	3337
476.0572	3306
478.5584	3337
481.0568	3419
483.5545	3393
486.0557	3336
488.5521	3437
491.0478	3412
493.5449	3473
496.0392	3484
498.5349	3376
501.0299	3465
503.5222	3408
506.0139	3480
508.5048	3527
510.9991	3448
513.4887	3404
515.9777	3431
518.4659	3384
520.9534	3427
523.4403	3456
525.9306	3391
528.4161	3418
530.9009	3396
533.3851	3466
535.8687	3376
538.3535	3437
540.8356	3431
543.3171	3446
545.7979	3494
548.278	3372
550.7595	3429
553.2383	3474
555.7144	3498
558.1918	3427
560.6685	3507
563.1446	3506
565.6221	3531
568.0968	3519
570.5688	3578
573.0422	3502
575.515	3507
577.989	3521
580.4584	3527
582.9291	3627
585.3991	3610
587.8685	3569
590.3352	3560
592.8052	3578
595.2706	3596
597.7372	3624
600.2033	3536
602.6666	3605
605.1334	3591
607.5953	3599
610.0587	3488
612.5193	3547
614.9814	3533
617.4427	3567
619.9034	3575
622.3615	3527
624.8208	3562
627.2775	3460
629.7335	3552
632.1929	3605
634.6476	3592
637.1016	3624
639.5569	3513
642.0096	3584
644.4637	3636
646.9151	3642
649.3678	3515
651.8179	3561
654.2672	3676
656.7159	3669
659.166	3614
661.6154	3643
664.0622	3641
666.5082	3663
668.9537	3633
671.4005	3704
673.8445	3669
676.288	3608
678.7308	3693
681.1729	3619
683.6163	3693
686.0572	3756
688.4973	3703
690.9368	3648
693.3757	3637
695.8138	3764
698.2534	3763
700.6902	3698
703.1245	3683
705.56	3751
707.9949	3638
710.4311	3764
712.8647	3689
715.2957	3715
717.7279	3744
720.1595	3763
722.5905	3780
725.0208	3818
727.4505	3813
729.8795	3824
732.3058	3788
734.7336	3789
737.1626	3802
739.587	3790
742.0128	3851
744.4359	3844
746.8604	3877
749.2841	3854
751.7073	3966
754.1278	3925
756.5496	3794
758.9688	3954
761.3893	3986
763.8093	3924
766.2285	3958
768.6451	3856
771.0611	4046
773.4784	3938
775.895	3930
778.3091	4049
780.7244	3953
783.1371	3918
785.5493	3927
787.9626	3948
790.3754	3905
792.7856	3933
795.1951	3951
797.6039	3951
800.0121	4009
802.4236	3942
804.8306	3902
807.2369	4044
809.6425	3964
812.0475	3964
814.4538	4063
816.8575	3984
819.2606	3971
821.663	3993
824.0648	3976
826.4659	4023
828.8683	3944
831.2682	3990
833.6674	4053
836.066	4051
838.4639	4003
840.8632	3999
843.2579	3995
845.6539	4035
848.0493	3966
850.444	4015
852.84	4053
855.2315	4041
857.6243	4047
860.0165	4025
862.4081	4045
864.797	4018
867.1892	4022
869.5789	4053
871.9659	4039
874.3542	4017
876.74	4063
879.129	4050
881.5155	4013
883.8994	4057
886.2845	4066
888.6671	4010
891.051	3972
893.4343	4061
895.8169	4095
898.197	4017
900.5783	4033
902.9571	4004
905.3372	4158
907.7167	4080
910.0936	4029
912.4698	4037
914.8474	4227
917.2244	4049
919.5987	4163
921.9744	4147
924.3475	4162
926.72	4169
929.0918	4170
931.4669	4118
933.8375	4212
936.2074	4181
938.5767	4178
940.9454	4244
943.3154	4269
945.6829	4292
948.0497	4233
950.4178	4361
952.7833	4449
955.1483	4570
957.5145	4636
959.8782	4690
962.2412	4649
964.6036	4539
966.9655	4573
969.3266	4435
971.6871	4325
974.0471	4316
976.4064	4255
978.765	4172
981.125	4263
983.4824	4242
985.8373	4104
988.1935	4189
990.549	4254
992.9039	4231
995.2602	4085
997.6119	4134
999.965	4180
1002.317	4198
1004.667	4219
1007.02	4162
1009.371	4175
1011.719	4241
1014.068	4178
1016.415	4192
1018.765	4218
1021.111	4255
1023.458	4236
1025.804	4188
1028.147	4229
1030.49	4176
1032.837	4244
1035.179	4229
1037.522	4254
1039.862	4290
1042.204	4184
1044.546	4274
1046.884	4255
1049.224	4258
1051.562	4163
1053.899	4198
1056.237	4235
1058.575	4314
1060.91	4329
1063.244	4356
1065.58	4294
1067.913	4395
1070.248	4323
1072.579	4314
1074.911	4280
1077.242	4319
1079.572	4240
1081.905	4324
1084.234	4305
1086.562	4313
1088.89	4227
1091.217	4235
1093.544	4254
1095.871	4278
1098.197	4292
1100.521	4295
1102.845	4331
1105.169	4381
1107.491	4313
1109.814	4227
1112.135	4304
1114.456	4247
1116.776	4299
1119.096	4371
1121.415	4407
1123.734	4351
1126.052	4368
1128.369	4295
1130.686	4308
1133.002	4376
1135.318	4430
1137.632	4359
1139.945	4398
1142.258	4409
1144.573	4332
1146.884	4337
1149.196	4330
1151.505	4275
1153.816	4307
1156.124	4349
1158.435	4407
1160.742	4322
1163.051	4305
1165.356	4345
1167.663	4361
1169.97	4366
1172.276	4327
1174.579	4348
1176.881	4295
1179.186	4353
1181.487	4325
1183.79	4310
1186.092	4360
1188.392	4364
1190.691	4353
1192.991	4382
1195.291	4290
1197.588	4336
1199.885	4303
1202.181	4364
1204.479	4347
1206.775	4404
1209.07	4331
1211.363	4370
1213.656	4423
1215.949	4348
1218.241	4429
1220.534	4387
1222.825	4418
1225.115	4466
1227.405	4338
1229.693	4492
1231.984	4473
1234.271	4479
1236.558	4364
1238.845	4480
1241.131	4484
1243.416	4415
1245.703	4455
1247.987	4440
1250.269	4481
1252.552	4535
1254.834	4469
1257.118	4491
1259.399	4561
1261.678	4475
1263.958	4468
1266.237	4473
1268.516	4576
1270.794	4486
1273.072	4548
1275.347	4418
1277.624	4463
1279.899	4549
1282.175	4471
1284.449	4476
1286.722	4430
1288.995	4442
1291.266	4527
1293.54	4389
1295.81	4414
1298.081	4524
1300.35	4491
1302.62	4444
1304.889	4486
1307.156	4464
1309.425	4452
1311.69	4521
1313.957	4507
1316.222	4438
1318.488	4523
1320.751	4374
1323.016	4437
1325.278	4420
1327.54	4445
1329.803	4485
1332.065	4505
1334.325	4615
1336.584	4412
1338.843	4508
1341.101	4568
1343.36	4523
1345.617	4450
1347.876	4534
1350.131	4429
1352.387	4462
1354.643	4580
1356.897	4444
1359.151	4430
1361.403	4427
1363.656	4410
1365.909	4471
1368.16	4412
1370.409	4501
1372.659	4509
1374.909	4600
1377.157	4534
1379.407	4497
1381.655	4464
1383.9	4626
1386.147	4478
1388.393	4535
1390.64	4586
1392.885	4583
1395.127	4549
1397.37	4519
1399.614	4490
1401.854	4660
1404.098	4610
1406.339	4596
1408.578	4553
1410.818	4699
1413.056	4575
1415.297	4594
1417.533	4582
1419.771	4624
1422.006	4640
1424.243	4638
1426.479	4712
1428.715	4594
1430.948	4604
1433.182	4655
1435.414	4595
1437.647	4636
1439.88	4678
1442.11	4678
1444.342	4634
1446.571	4575
1448.799	4782
1451.029	4695
1453.258	4766
1455.485	4713
1457.711	4675
1459.937	4644
1462.164	4617
1464.39	4626
1466.614	4601
1468.838	4631
1471.06	4594
1473.283	4635
1475.506	4613
1477.727	4629
1479.949	4609
1482.169	4575
1484.389	4624
1486.609	4592
1488.828	4561
1491.045	4530
1493.261	4577
1495.477	4519
1497.693	4701
1499.91	4601
1502.125	4560
1504.339	4538
1506.553	4592
1508.766	4492
1510.979	4550
1513.191	4610
1515.402	4607
1517.613	4581
1519.823	4567
1522.033	4636
1524.242	4576
1526.451	4545
1528.657	4601
1530.865	4583
1533.072	4558
1535.278	4539
1537.484	4614
1539.687	4671
1541.892	4473
1544.096	4640
1546.299	4584
1548.502	4761
1550.703	4650
1552.905	4674
1555.104	4604
1557.303	4699
1559.505	4705
1561.703	4615
1563.902	4671
1566.099	4663
1568.295	4677
1570.494	4694
1572.689	4629
1574.883	4623
1577.079	4726
1579.272	4631
1581.467	4732
1583.659	4752
1585.853	4747
1588.044	4828
1590.234	4785
1592.424	4777
1594.615	4680
1596.806	4791
1598.994	4660
1601.182	4703
1603.369	4803
1605.557	4661
1607.744	4740
1609.929	4738
1612.114	4807
1614.298	4644
1616.482	4913
1618.667	4782
1620.85	4737
1623.032	4771
1625.214	4754
1627.395	4723
1629.575	4733
1631.755	4687
1633.935	4738
1636.114	4772
1638.292	4729
1640.471	4760
1642.647	4698
1644.823	4711
1647	4704
1649.175	4750
1651.348	4785
1653.525	4802
1655.698	4822
1657.87	4765
1660.043	4783
1662.213	4814
1664.387	4777
1666.558	4825
1668.727	4855
1670.896	4778
1673.064	4810
1675.233	4799
1677.401	4745
1679.569	4858
1681.735	4758
1683.902	4687
1686.066	4770
1688.233	4812
1690.397	4838
1692.559	4796
1694.723	4789
1696.885	4815
1699.048	4835
1701.21	4837
1703.37	4851
1705.53	4838
1707.689	4800
1709.849	4829
1712.009	4725
1714.166	4800
1716.323	4719
1718.479	4813
1720.634	4786
1722.793	4802
1724.948	4755
1727.102	4808
1729.255	4756
1731.408	4864
1733.562	4825
1735.714	4729
1737.865	4841
1740.016	4744
1742.166	4804
1744.316	4796
1746.467	4729
1748.616	4816
1750.764	4818
1752.911	4743
1755.056	4886
1757.205	4792
1759.35	4779
1761.496	4840
1763.641	4872
1765.785	4843
1767.927	4862
1770.072	4879
1772.214	4873
1774.355	4904
1776.496	4963
1778.637	4862
1780.778	4792
1782.918	4907
1785.057	4891
1787.194	4733
1789.333	4923
1791.472	4830
1793.608	4883
1795.745	4851
1797.879	4867
1800.015	4954
1802.148	4846
1804.284	4894
1806.417	4884
1808.548	4871
1810.682	4874
1812.812	4870
1814.946	4904
1817.075	4822
1819.205	4824
1821.335	4929
1823.463	4841
1825.59	4926
1827.721	4875
1829.847	4799
1831.973	4795
1834.098	4856
1836.223	4863
1838.351	4835
1840.475	4774
1842.598	4796
1844.721	4969
1846.843	4849
1848.966	4954
1851.087	4809
1853.21	4878
1855.33	4798
1857.449	4856
1859.568	4801
1861.688	4829
1863.806	4860
1865.924	4839
1868.039	4855
1870.155	4781
1872.273	4790
1874.388	4755
1876.503	4876
1878.617	4886
1880.73	4887
1882.844	4857
1884.956	4895
1887.068	4884
1889.18	4821
1891.291	4893
1893.4	4818
1895.511	4810
1897.621	4784
1899.73	4915
1901.837	4857
1903.944	4935
1906.053	4881
1908.159	4965
1910.265	5039
1912.369	4988
1914.474	4909
1916.577	4916
1918.683	4947
1920.785	4915
1922.888	4891
1924.989	4846
1927.091	5004
1929.193	4942
1931.294	5034
1933.393	4977
1935.493	5038
1937.59	5000
1939.689	4984
1941.788	5006
1943.884	4906
1945.98	4974
1948.077	4917
1950.171	4951
1952.267	4859
1954.361	5027
1956.455	4907
1958.548	4971
1960.64	4869
1962.733	5031
1964.824	4956
1966.915	4987
1969.005	5003
1971.096	4846
1973.185	4912
1975.275	4922
1977.363	4953
1979.45	4902
1981.537	4934
1983.623	4870
1985.711	4911
1987.796	4937
1989.881	4894
1991.965	4766
1994.047	4900
1996.132	4867
1998.215	4958
2000.297	4960
2002.378	4959
2004.46	4867
2006.54	4915
2008.62	4918
2010.7	4838
2012.779	4960
2014.858	4852
2016.934	4843
2019.013	4866
2021.09	4936
2023.165	4914
2025.241	4933
2027.317	5005
2029.39	4917
2031.466	4936
2033.538	4938
2035.612	5037
2037.683	4900
2039.755	4924
2041.827	4956
2043.898	4934
2045.968	4986
2048.038	4920
2050.106	4949
2052.177	4918
2054.244	4891
2056.313	4958
2058.379	4888
2060.444	4984
2062.511	4888
2064.577	4953
2066.641	4974
2068.705	5001
2070.77	4944
2072.832	4833
2074.896	4963
2076.958	4963
2079.02	5029
2081.081	4896
2083.141	4848
2085.2	4922
2087.261	4882
2089.319	4949
2091.377	4949
2093.435	4924
2095.492	5015
2097.552	4992
2099.607	4886
2101.663	5007
2103.718	4959
2105.771	4912
2107.826	4963
2109.879	4941
2111.932	4995
2113.985	5014
2116.037	4972
2118.088	4996
2120.141	4905
2122.191	4903
2124.239	4928
2126.288	4958
2128.337	5033
2130.387	4961
2132.434	4999
2134.481	4931
2136.528	5014
2138.574	5014
2140.618	5036
2142.665	4953
2144.71	4967
2146.753	4958
2148.797	4959
2150.838	5041
2152.883	4876
2154.923	5048
2156.965	5023
2159.007	4902
2161.046	4910
2163.086	4938
2165.126	4984
2167.163	4840
2169.202	4866
2171.239	4928
2173.277	4958
2175.314	4913
2177.349	4889
2179.385	4834
2181.42	4860
2183.453	4942
2185.49	4898
2187.522	4898
2189.555	4828
2191.586	4885
2193.619	4935
2195.651	4958
2197.682	4848
2199.711	4932
2201.74	4910
2203.769	4939
2205.799	4846
2207.828	4896
2209.855	4850
2211.882	4884
2213.908	4791
2215.934	4835
2217.961	4851
2219.986	4837
2222.01	4850
2224.034	4769
2226.057	4807
2228.08	4865
2230.104	4889
2232.124	4834
2234.145	4844
2236.166	4905
2238.186	4929
2240.207	4860
2242.227	4975
2244.244	4926
2246.262	4925
2248.28	4889
2250.299	4866
2252.314	4844
2254.33	4883
2256.346	4812
2258.36	4824
2260.375	4833
2262.391	4978
2264.403	4833
2266.416	4909
2268.427	4979
2270.44	4952
2272.453	4894
2274.463	4890
2276.474	4896
2278.483	4914
2280.493	4929
2282.501	4975
2284.51	4795
2286.518	4854
2288.524	4784
2290.532	4953
2292.537	4864
2294.544	4828
2296.55	4826
2298.554	4812
2300.557	4881
2302.562	4836
2304.566	4774
2306.568	4801
2308.569	4859
2310.572	4893
2312.573	4915
2314.573	4853
2316.574	4877
2318.573	4895
2320.571	4943
2322.571	4891
2324.569	4856
2326.567	4808
2328.564	4846
2330.56	4921
2332.556	4891
2334.551	4802
2336.546	4875
2338.542	4848
2340.535	4796
2342.529	4839
2344.521	4890
2346.512	4886
2348.505	4846
2350.497	4779
2352.487	4793
2354.478	4760
2356.468	4704
2358.457	4912
2360.446	4879
2362.434	4818
2364.422	4821
2366.408	4784
2368.395	4836
2370.383	4801
2372.369	4706
2374.353	4845
2376.338	4776
2378.321	4810
2380.307	4864
2382.29	4811
2384.272	4820
2386.254	4768
2388.235	4808
2390.218	4871
2392.198	4644
2394.179	4756
2396.157	4858
2398.137	4739
2400.115	4747
2402.095	4700
2404.072	4800
2406.048	4696
2408.026	4861
2410.001	4744
2411.977	4891
2413.953	4805
2415.927	4696
2417.9	4778
2419.875	4756
2421.847	4746
2423.821	4734
2425.792	4765
2427.763	4777
2429.736	4748
2431.706	4813
2433.677	4788
2435.646	4858
2437.615	4754
2439.583	4727
2441.551	4781
2443.519	4765
2445.486	4722
2447.452	4804
2449.418	4802
2451.383	4671
2453.348	4881
2455.314	4804
2457.278	4834
2459.241	4677
2461.205	4711
2463.167	4802
2465.131	4786
2467.091	4782
2469.052	4768
2471.012	4778
2472.972	4720
2474.932	4715
2476.891	4768
2478.85	4710
2480.808	4675
2482.766	4696
2484.722	4761
2486.68	4771
2488.636	4729
2490.591	4731
2492.546	4732
2494.5	4679
2496.456	4789
2498.41	4753
2500.362	4600
2502.315	4723
2504.266	4636
2506.218	4620
2508.169	4689
2510.121	4791
2512.07	4741
2514.019	4768
2515.968	4770
2517.918	4709
2519.866	4663
2521.813	4655
2523.76	4692
2525.707	4733
2527.653	4666
2529.599	4692
2531.543	4593
2533.489	4747
2535.433	4671
2537.376	4600
2539.32	4650
2541.264	4695
2543.205	4740
2545.147	4680
2547.087	4711
2549.029	4694
2550.969	4660
2552.908	4782
2554.847	4742
2556.786	4692
2558.724	4656
2560.663	4660
2562.6	4697
2564.537	4703
2566.473	4678
2568.408	4643
2570.345	4696
2572.28	4703
2574.214	4744
2576.148	4613
2578.081	4742
2580.014	4634
2581.947	4719
2583.879	4636
2585.81	4711
2587.741	4726
2589.67	4665
2591.602	4616
2593.532	4698
2595.461	4762
2597.388	4759
2599.316	4707
2601.244	4701
2603.172	4629
2605.098	4761
2607.023	4685
2608.949	4791
2610.873	4725
2612.8	4819
2614.723	4749
2616.647	4717
2618.569	4682
2620.493	4735
2622.416	4693
2624.338	4796
2626.258	4684
2628.179	4707
2630.099	4653
2632.019	4859
2633.939	4703
2635.857	4702
2637.775	4668
2639.694	4807
2641.61	4688
2643.528	4729
2645.444	4698
2647.361	4759
2649.276	4758
2651.19	4718
2653.105	4716
2655.019	4741
2656.934	4736
2658.846	4711
2660.758	4764
2662.67	4598
2664.583	4750
2666.493	4716
2668.404	4653
2670.313	4737
2672.223	4782
2674.134	4723
2676.042	4760
2677.95	4673
2679.858	4725
2681.765	4766
2683.673	4714
2685.579	4801
2687.483	4723
2689.389	4725
2691.294	4648
2693.198	4673
2695.104	4727
2697.006	4718
2698.909	4630
2700.811	4709
2702.713	4796
2704.615	4644
2706.516	4589
2708.417	4677
2710.316	4636
2712.216	4698
2714.115	4718
2716.014	4677
2717.913	4645
2719.81	4671
2721.707	4654
2723.603	4705
2725.501	4653
2727.396	4640
2729.292	4702
2731.186	4694
2733.081	4661
2734.976	4694
2736.87	4678
2738.762	4718
2740.653	4640
2742.546	4662
2744.437	4628
2746.329	4686
2748.22	4665
2750.11	4674
2751.999	4569
2753.889	4634
2755.778	4746
2757.666	4590
2759.553	4652
2761.44	4647
2763.328	4704
2765.215	4646
2767.101	4641
2768.986	4611
2770.87	4570
2772.754	4662
2774.638	4569
2776.523	4627
2778.405	4567
2780.288	4577
2782.17	4682
2784.051	4602
2785.934	4588
2787.814	4708
2789.694	4643
2791.574	4556
2793.453	4611
2795.332	4604
2797.212	4550
2799.088	4635
2800.966	4701
2802.843	4595
2804.719	4616
2806.597	4647
2808.471	4623
2810.346	4654
2812.221	4628
2814.094	4616
2815.969	4569
2817.843	4580
2819.714	4505
2821.587	4643
2823.459	4584
2825.329	4612
2827.202	4623
2829.072	4592
2830.942	4648
2832.811	4592
2834.68	4545
2836.549	4592
2838.418	4624
2840.284	4589
2842.152	4611
2844.018	4664
2845.885	4531
2847.751	4584
2849.616	4676
2851.482	4574
2853.345	4623
2855.208	4661
2857.074	4567
2858.937	4593
2860.799	4538
2862.66	4690
2864.522	4572
2866.385	4561
2868.245	4695
2870.104	4595
2871.964	4695
2873.824	4756
2875.683	4690
2877.542	4670
2879.4	4663
2881.257	4753
2883.114	4823
2884.97	4686
2886.827	4680
2888.683	4687
2890.537	4732
2892.392	4744
2894.246	4728
2896.1	4675
2897.954	4830
2899.807	4706
2901.66	4751
2903.51	4672
2905.362	4731
2907.214	4682
2909.065	4834
2910.915	4773
2912.765	4730
2914.613	4667
2916.463	4751
2918.311	4681
2920.158	4808
2922.006	4723
2923.853	4860
2925.698	4816
2927.546	4828
2929.392	4839
2931.236	4855
2933.081	4818
2934.924	4807
2936.77	4990
2938.613	4854
2940.455	4877
2942.298	4971
2944.139	4910
2945.982	4937
2947.823	4884
2949.662	4829
2951.503	4990
2953.342	4832
2955.182	4853
2957.021	4837
2958.858	4777
2960.697	4908
2962.534	4821
2964.37	4781
2966.207	4773
2968.044	4797
2969.879	4747
2971.714	4760
2973.548	4767
2975.383	4722
2977.218	4728
2979.051	4711
2980.883	4683
2982.715	4619
2984.547	4607
2986.379	4631
2988.21	4672
2990.04	4648
2991.87	4554
2993.7	4605
2995.53	4564
2997.359	4559
2999.187	4558
3001.015	4546
3002.842	4491
3004.669	4470
3006.497	4521
3008.323	4553
3010.148	4540
3011.974	4539
3013.797	4591
3015.623	4404
3017.447	4433
3019.27	4413
3021.094	4526
3022.915	4523
3024.737	4343
3026.56	4420
3028.38	4398
3030.201	4479
3032.022	4452
3033.84	4371
3035.662	4383
3037.481	4423
3039.298	4379
3041.117	4391
3042.933	4368
3044.752	4337
3046.568	4428
3048.385	4386
3050.2	4423
3052.016	4409
3053.83	4368
3055.646	4375
3057.46	4369
3059.272	4386
3061.086	4409
3062.898	4422
3064.711	4380
3066.524	4423
3068.335	4346
3070.145	4263
3071.956	4429
3073.766	4385
3075.576	4315
3077.385	4348
3079.193	4340
3081.002	4337
3082.81	4215
3084.618	4357
3086.425	4307
3088.231	4303
3090.036	4214
3091.842	4233
3093.648	4253
3095.452	4303
3097.257	4325
3099.06	4253
3100.863	4195
3102.666	4346
3104.47	4395
3106.272	4258
3108.073	4197
3109.875	4265
3111.676	4202
3113.477	4299
3115.277	4294
3117.077	4209
3118.874	4230
3120.673	4302
3122.473	4239
3124.271	4225
3126.066	4271
3127.863	4315
3129.66	4235
3131.456	4235
3133.252	4230
3135.047	4179
3136.842	4242
3138.635	4155
3140.429	4205
3142.223	4158
3144.016	4122
3145.808	4175
3147.6	4219
3149.392	4149
3151.183	4199
3152.975	4161
3154.765	4171
3156.553	4217
3158.344	4228
3160.132	4154
3161.922	4165
3163.71	4079
3165.497	4235
3167.285	4180
3169.071	4139
3170.858	4174
3172.645	4180
3174.429	4177
3176.214	4125
3177.998	4158
3179.783	4110
3181.568	4161
3183.351	4116
3185.133	4211
3186.915	4168
3188.698	4154
3190.481	4038
3192.261	4193
3194.042	4072
3195.822	4061
3197.601	4183
3199.381	4100
3201.161	4182
3202.939	4119
3204.717	4047
3206.495	4069
3208.272	4085
3210.05	4115
3211.826	4083
3213.602	4163
3215.376	4076
3217.151	4050
3218.927	4102
3220.702	4072
3222.476	4154
3224.249	4089
3226.021	3995
3227.793	4054
3229.567	4064
3231.339	3972
3233.109	4000
3234.88	4078
3236.651	4080
3238.421	4077
3240.191	4056
3241.96	4118
3243.728	4102
3245.497	4078
3247.263	4094
3249.033	4134
3250.799	4019
3252.566	4091
3254.331	4012
3256.097	4178
3257.863	4039
3259.628	3953
3261.392	4154
3263.156	4075
3264.919	4030
3266.683	4028
3268.447	3923
3270.208	4027
3271.969	4100
3273.731	4038
3275.492	4082
3277.253	4066
3279.013	4016
3280.773	4096
3282.532	4106
3284.291	4024
3286.05	4041
3287.808	4020
3289.566	4119
3291.323	3998
3293.079	4071
3294.835	4097
3296.593	4060
3298.348	4068
3300.102	4011
3301.857	4045
3303.611	4084
3305.366	3991
3307.119	4047
3308.872	4013
3310.624	4045
3312.376	3992
3314.129	3951
3315.881	3999
3317.631	3958
3319.38	4068
3321.13	3940
3322.88	4121
3324.631	3973
3326.379	4057
3328.126	3986
3329.875	3998
3331.622	4081
3333.371	4007
3335.116	4003
3336.863	4011
3338.609	4073
3340.353	3896
3342.1	4019
3343.845	4020
3345.588	3926
3347.332	3956
3349.074	3977
3350.817	3944
3352.56	3972
3354.303	4003
3356.043	4064
3357.785	3912
3359.525	4016
3361.268	3986
3363.007	3950
3364.745	3930
3366.485	3987
3368.223	3976
3369.962	3953
3371.701	4036
3373.438	3920
3375.174	3909
3376.911	3950
3378.647	3930
3380.384	3934
3382.118	4006
3383.854	3945
3385.588	3869
3387.322	3873
3389.057	3972
3390.79	3879
3392.522	3863
3394.255	3843
3395.987	3876
3397.719	3868
3399.451	3952
3401.181	4048
3402.911	3902
3404.641	3958
3406.371	3964
3408.101	3991
3409.83	3836
3411.558	3910
3413.285	3928
3415.011	3914
3416.739	3990
3418.467	3857
3420.193	3909
3421.919	3836
3423.644	3927
3425.368	3970
3427.094	3917
3428.818	3893
3430.542	3935
3432.264	3823
3433.987	3825
3435.712	3918
3437.434	3891
3439.155	3977
3440.876	3836
3442.596	3781
3444.317	3835
3446.039	3807
3447.757	3848
3449.477	3827
3451.195	3858
3452.914	3848
3454.632	3765
3456.35	3839
3458.067	3790
3459.784	3859
3461.5	3760
3463.216	3862
3464.932	3866
3466.647	3856
3468.362	3875
3470.076	3823
3471.789	3701
3473.505	3801
3475.217	3808
3476.929	3765
3478.641	3840
3480.354	3732
3482.066	3818
3483.777	3744
3485.487	3749
3487.197	3787
3488.908	3794
3490.617	3761
3492.327	3800
3494.035	3746
3495.743	3699
3497.451	3837
3499.158	3698
3500.866	3749
3502.572	3664
3504.278	3785
3505.984	3718
3507.689	3790
3509.396	3738
3511.1	3710
3512.804	3741
3514.508	3694
3516.211	3722
3517.913	3664
3519.616	3672
3521.319	3740
3523.021	3685
3524.722	3659
3526.422	3807
3528.124	3628
3529.824	3717
3531.524	3665
3533.222	3703
3534.921	3692
3536.62	3707
3538.318	3672
3540.016	3720
3541.714	3705
3543.41	3666
3545.107	3661
3546.803	3632
3548.5	3664
3550.194	3739
3551.889	3567
3553.583	3693
3555.279	3689
3556.972	3667
3558.666	3710
3560.358	3628
3562.051	3696
3563.742	3603
3565.435	3682
3567.126	3764
3568.817	3714
3570.507	3580
3572.197	3610
3573.888	3614
3575.577	3732
3577.265	3618
3578.954	3535
3580.642	3634
3582.329	3588
3584.017	3650
3585.704	3696
3587.391	3610
3589.077	3654
3590.762	3551
3592.449	3501
3594.133	3643
3595.817	3594
3597.501	3639
3599.185	3577
3600.869	3647
3602.552	3555
3604.234	3573
3605.916	3593
3607.598	3616
3609.279	3585
3610.961	3553
3612.642	3549
3614.321	3577
3616	3537
3617.68	3610
3619.36	3506
3621.039	3585
3622.716	3584
3624.394	3495
3626.071	3507
3627.748	3526
3629.425	3564
3631.102	3492
3632.778	3434
3634.452	3508
3636.127	3468
3637.803	3518
3639.477	3466
3641.151	3477
3642.823	3475
3644.497	3492
3646.171	3537
3647.842	3411
3649.515	3462
3651.185	3458
3652.857	3432
3654.527	3501
3656.198	3399
3657.868	3448
3659.537	3532
3661.207	3479
3662.875	3497
3664.544	3485
3666.212	3460
3667.879	3449
3669.546	3416
3671.212	3461
3672.88	3420
3674.546	3457
3676.211	3433
3677.875	3326
3679.541	3365
3681.205	3345
3682.87	3473
3684.533	3393
3686.196	3367
3687.859	3517
3689.521	3466
3691.184	3416
3692.845	3402
3694.507	3353
3696.167	3424
3697.827	3417
3699.487	3356
3701.148	3432
3702.808	3386
3704.466	3388
3706.125	3351
3707.783	3402
3709.442	3459
3711.099	3373
3712.757	3344
3714.412	3347
3716.068	3361
3717.725	3401
3719.381	3420
3721.036	3357
3722.689	3314
3724.344	3390
3725.998	3393
3727.652	3391
3729.305	3341
3730.958	3393
3732.61	3415
3734.262	3358
3735.915	3420
3737.565	3377
3739.217	3336
3740.866	3394
3742.516	3347
3744.165	3324
3745.816	3345
3747.464	3378
3749.113	3392
3750.761	3308
3752.409	3319
3754.057	3349
3755.703	3305
3757.35	3322
3758.996	3291
3760.641	3390
3762.289	3367
3763.933	3367
3765.577	3347
3767.222	3326
3768.865	3336
3770.508	3324
3772.152	3312
3773.796	3343
3775.438	3304
3777.079	3303
3778.721	3343
3780.363	3341
3782.003	3295
3783.643	3266
3785.283	3247
3786.923	3285
3788.563	3270
3790.203	3337
3791.841	3291
3793.479	3303
3795.115	3255
3796.753	3297
3798.391	3254
3800.027	3235
3801.664	3268
3803.299	3263
3804.935	3252
3806.571	3202
3808.206	3217
3809.839	3210
3811.473	3245
3813.107	3199
3814.74	3243
3816.375	3196
3818.006	3224
3819.638	3193
3821.27	3246
3822.9	3144
3824.532	3192
3826.163	3189
3827.792	3203
3829.423	3230
3831.051	3141
3832.682	3237
3834.311	3195
3835.938	3228
3837.566	3168
3839.193	3222
3840.821	3193
3842.448	3174
3844.075	3116
3845.7	3199
3847.325	3094
3848.951	3220
3850.576	3209
3852.201	3216
3853.825	3227
3855.448	3100
3857.072	3164
3858.694	3118
3860.318	3176
3861.939	3143
3863.562	3145
3865.183	3076
3866.804	3136
3868.426	3166
3870.045	3160
3871.666	3167
3873.285	3158
3874.904	3139
3876.524	3131
3878.142	3100
3879.76	3104
3881.378	3081
3882.995	3105
3884.612	3100
3886.229	3080
3887.845	3086
3889.461	3061
3891.076	3052
3892.691	3093
3894.307	3148
3895.922	3097
3897.536	3063
3899.149	3185
3900.761	3151
3902.374	3132
3903.988	3120
3905.6	3100
3907.212	3127
3908.822	3047
3910.433	3111
3912.045	3046
3913.655	3132
3915.265	3126
3916.875	3020
3918.483	3095
3920.093	3109
3921.702	3053
3923.309	3089
3924.917	2990
3926.523	3106
3928.13	3043
3929.739	3075
3931.344	3055
3932.95	3118
3934.555	3085
3936.159	3105
3937.766	3052
3939.369	3078
3940.974	3092
3942.577	3118
3944.181	3086
3945.783	3016
3947.386	3044
3948.989	3078
3950.59	3055
3952.191	3015
3953.791	3095
3955.394	3137
3956.994	3000
3958.593	3058
3960.192	3033
3961.791	3087
3963.392	3063
3964.99	3108
3966.588	2998
3968.185	2979
3969.782	2990
3971.379	3008
3972.976	2998
3974.572	3040
3976.168	3009
3977.763	3030
3979.358	2952
3980.954	2963
3982.548	2997
3984.142	2943
3985.736	3048
3987.329	3020
3988.922	3052
3990.516	2966
3992.108	2991
3993.698	2889
3995.29	2977
3996.881	2990
3998.473	2928
4000.064	2965
4001.653	2951
4003.242	2896
4004.832	2871
4006.422	2941
4008.01	2956
4009.598	2900
4011.186	2947
4012.773	2916
4014.36	3052
4015.947	2917
4017.534	2925
4019.119	2916
4020.705	2993
4022.291	2908
4023.876	2922
4025.461	2908
4027.044	2923
4028.627	2892
4030.211	2876
4031.795	2883
4033.378	2860
4034.96	2917
4036.542	2864
4038.124	2884
4039.704	2894
4041.286	2839
4042.867	2832
4044.447	2891
4046.026	2839
4047.606	2856
4049.187	2856
4050.765	2775
4052.343	2895
4053.92	2818
4055.498	2867
4057.076	2808
4058.654	2910
4060.23	2840
4061.806	2858
4063.381	2823
4064.957	2821
4066.533	2822
4068.107	2837
4069.682	2803
4071.256	2800
4072.829	2810
4074.404	2852
4075.977	2839
4077.549	2856
4079.121	2793
4080.693	2856
4082.265	2881
4083.836	2849
4085.407	2774
4086.977	2771
4088.547	2795
4090.117	2823
4091.687	2800
4093.256	2851
4094.825	2805
4096.392	2864
4097.96	2798
4099.528	2784
4101.097	2860
4102.663	2738
4104.229	2814
4105.795	2825
4107.361	2761
4108.928	2730
4110.493	2804
4112.058	2767
4113.621	2787
4115.186	2732
4116.75	2800
4118.313	2753
4119.876	2805
4121.438	2769
4123	2764
4124.562	2758
4126.125	2791
4127.686	2789
4129.246	2702
4130.807	2726
4132.367	2764
4133.927	2811
4135.486	2713
4137.046	2756
4138.604	2767
4140.162	2703
4141.72	2727
4143.279	2756
4144.836	2691
4146.393	2796
4147.949	2685
4149.505	2692
4151.062	2675
4152.617	2685
4154.172	2656
4155.727	2721
4157.281	2673
4158.836	2755
4160.39	2648
4161.943	2693
4163.496	2655
4165.048	2706
4166.601	2691
4168.154	2620
4169.706	2632
4171.257	2650
4172.808	2695
4174.358	2606
4175.909	2668
4177.458	2665
4179.008	2567
4180.558	2662
4182.106	2568
4183.655	2713
4185.204	2670
4186.751	2599
4188.298	2618
4189.845	2645
4191.392	2606
4192.939	2596
4194.485	2648
4196.031	2548
4197.576	2623
4199.121	2603
4200.666	2560
4202.211	2560
4203.754	2621
4205.298	2546
4206.84	2593
4208.384	2669
4209.927	2629
4211.47	2628
4213.011	2617
4214.552	2600
4216.094	2583
4217.635	2655
4219.175	2582
4220.716	2549
4222.255	2636
4223.793	2558
4225.335	2580
4226.873	2533
4228.411	2624
4229.948	2518
4231.486	2584
4233.024	2605
4234.562	2569
4236.098	2595
4237.634	2556
4239.169	2557
4240.705	2588
4242.241	2616
4243.776	2577
4245.31	2562
4246.844	2558
4248.378	2563
4249.911	2604
4251.445	2604
4252.978	2531
4254.51	2456
4256.042	2584
4257.574	2525
4259.107	2590
4260.638	2524
4262.169	2576
4263.699	2538
4265.228	2555
4266.759	2581
4268.289	2530
4269.818	2512
4271.345	2573
4272.874	2552
4274.402	2565
4275.931	2531
4277.458	2501
4278.985	2470
4280.512	2529
4282.037	2573
4283.564	2448
4285.089	2498
4286.615	2462
4288.139	2474
4289.664	2536
4291.187	2469
4292.712	2479
4294.235	2459
4295.759	2535
4297.281	2491
4298.804	2463
4300.327	2434
4301.849	2402
4303.37	2524
4304.891	2526
4306.412	2472
4307.933	2440
4309.453	2417
4310.973	2483
4312.492	2443
