398.1873	13594
400.7097	13749
403.2336	13719
405.7547	13829
408.2751	13945
410.7948	13807
413.3138	13988
415.83	13962
418.3497	14026
420.8666	14068
423.3829	14434
425.8985	14434
428.4133	14367
430.9275	14626
433.441	14629
435.9538	14470
438.4639	14554
440.9753	14620
443.4881	14731
445.9982	14666
448.5055	14525
451.0142	14601
453.5201	14629
456.0274	14596
458.5361	14835
461.04	14785
463.5453	14915
466.0478	14933
468.5517	14951
471.0549	14946
473.5574	14976
476.0572	15239
478.5584	15116
481.0568	15127
483.5545	15184
486.0557	15349
488.5521	15273
491.0478	15354
493.5449	15357
496.0392	15551
498.5349	15385
501.0299	15674
503.5222	15547
506.0139	15581
508.5048	15614
510.9991	15633
513.4887	15617
515.9777	15632
518.4659	15810
520.9534	15839
523.4403	15714
525.9306	15626
528.4161	15789
530.9009	15720
533.3851	15586
535.8687	15795
538.3535	15740
540.8356	15614
543.3171	15601
545.7979	15850
548.278	15654
550.7595	15772
553.2383	15752
555.7144	15638
558.1918	15754
560.6685	15871
563.1446	15776
565.6221	15919
568.0968	16001
570.5688	15927
573.0422	15892
575.515	15997
577.989	16047
580.4584	16067
582.9291	16113
585.3991	16009
587.8685	16129
590.3352	16380
592.8052	16173
595.2706	16314
597.7372	16108
600.2033	16222
602.6666	16271
605.1334	16202
607.5953	16313
610.0587	16174
612.5193	16121
614.9814	16241
617.4427	16082
619.9034	16350
622.3615	16095
624.8208	16353
627.2775	15991
629.7335	16103
632.1929	16205
634.6476	16220
637.1016	16411
639.5569	16384
642.0096	16418
644.4637	16341
646.9151	16556
649.3678	16526
651.8179	16623
654.2672	16651
656.7159	16693
659.166	16586
661.6154	16623
664.0622	16620
666.5082	16646
668.9537	16744
671.4005	16716
673.8445	16802
676.288	16922
678.7308	16834
681.1729	17009
683.6163	16809
686.0572	16962
688.4973	17252
690.9368	16961
693.3757	17103
695.8138	17085
698.2534	16971
700.6902	17073
703.1245	17067
705.56	17162
707.9949	17097
710.4311	17206
712.8647	17182
715.2957	17226
717.7279	17406
720.1595	17190
722.5905	17306
725.0208	17391
727.4505	17462
729.8795	17410
732.3058	17653
734.7336	17728
737.1626	17783
739.587	17913
742.0128	17729
744.4359	17952
746.8604	17783
749.2841	18087
751.7073	17926
754.1278	17913
756.5496	18099
758.9688	18144
761.3893	18102
763.8093	18089
766.2285	18005
768.6451	18244
771.0611	18134
773.4784	18227
775.895	18310
778.3091	18327
780.7244	18403
783.1371	18410
785.5493	18179
787.9626	18117
790.3754	18314
792.7856	18331
795.1951	18217
797.6039	18379
800.0121	18285
802.4236	18239
804.8306	18469
807.2369	18276
809.6425	18412
812.0475	18290
814.4538	18404
816.8575	18533
819.2606	18539
821.663	18431
824.0648	18442
826.4659	18506
828.8683	18385
831.2682	18465
833.6674	18603
836.066	18678
838.4639	18487
840.8632	18623
843.2579	18493
845.6539	18607
848.0493	18766
850.444	18903
852.84	18713
855.2315	18624
857.6243	18996
860.0165	18645
862.4081	18579
864.797	18593
867.1892	18823
869.5789	18592
871.9659	18547
874.3542	18770
876.74	18592
879.129	18298
881.5155	18648
883.8994	18580
886.2845	18585
888.6671	18682
891.051	18616
893.4343	18686
895.8169	18594
898.197	18421
900.5783	18672
902.9571	18824
905.3372	18691
907.7167	18780
910.0936	18719
912.4698	18843
914.8474	19000
917.2244	19070
919.5987	19056
921.9744	19013
924.3475	19299
926.72	19304
929.0918	19011
931.4669	19087
933.8375	19256
936.2074	19340
938.5767	19413
940.9454	19463
943.3154	19674
945.6829	19626
948.0497	19897
950.4178	19866
952.7833	20322
955.1483	20552
957.5145	20831
959.8782	21017
962.2412	20933
964.6036	20896
966.9655	20439
969.3266	20201
971.6871	19906
974.0471	19818
976.4064	19356
978.765	19375
981.125	19229
983.4824	19103
985.8373	19290
988.1935	19057
990.549	19135
992.9039	19396
995.2602	19073
997.6119	19527
999.965	19345
1002.317	19338
1004.667	19175
1007.02	19378
1009.371	19387
1011.719	19435
1014.068	19367
1016.415	19374
1018.765	19378
1021.111	19335
1023.458	19502
1025.804	19353
1028.147	19527
1030.49	19338
1032.837	19502
1035.179	19495
1037.522	19502
1039.862	19602
1042.204	19535
1044.546	19643
1046.884	19686
1049.224	19636
1051.562	19322
1053.899	19543
1056.237	19504
1058.575	19646
1060.91	19733
1063.244	19805
1065.58	19708
1067.913	20038
1070.248	19993
1072.579	19937
1074.911	19967
1077.242	19847
1079.572	19670
1081.905	19830
1084.234	19626
1086.562	19627
1088.89	19920
1091.217	19752
1093.544	19998
1095.871	19796
1098.197	19790
1100.521	19882
1102.845	19960
1105.169	20042
1107.491	19792
1109.814	19838
1112.135	19965
1114.456	19836
1116.776	20076
1119.096	19861
1121.415	20055
1123.734	19829
1126.052	20031
1128.369	19848
1130.686	20045
1133.002	20159
1135.318	20086
1137.632	19931
1139.945	20023
1142.258	20187
1144.573	20181
1146.884	20150
1149.196	20058
1151.505	20080
1153.816	20080
1156.124	20048
1158.435	19916
1160.742	20100
1163.051	20059
1165.356	20190
1167.663	20117
1169.97	20216
1172.276	20012
1174.579	20136
1176.881	20114
1179.186	20100
1181.487	20055
1183.79	20134
1186.092	20198
1188.392	19901
1190.691	20042
1192.991	19914
1195.291	20081
1197.588	20207
1199.885	20187
1202.181	19993
1204.479	20164
1206.775	20066
1209.07	20091
1211.363	20100
1213.656	20098
1215.949	20235
1218.241	20172
1220.534	20063
1222.825	20248
1225.115	20276
1227.405	20301
1229.693	20590
1231.984	20395
1234.271	20292
1236.558	20626
1238.845	20691
1241.131	20538
1243.416	20490
1245.703	20830
1247.987	20694
1250.269	20553
1252.552	20598
1254.834	20595
1257.118	20603
1259.399	20560
1261.678	20609
1263.958	20373
1266.237	20635
1268.516	20756
1270.794	20586
1273.072	20819
1275.347	20757
1277.624	20777
1279.899	20697
1282.175	20591
1284.449	20786
1286.722	20412
1288.995	20448
1291.266	20538
1293.54	20646
1295.81	20682
1298.081	20416
1300.35	20492
1302.62	20600
1304.889	20708
1307.156	20423
1309.425	20466
1311.69	20672
1313.957	20527
1316.222	20504
1318.488	20637
1320.751	20515
1323.016	20544
1325.278	20736
1327.54	20367
1329.803	20670
1332.065	20766
1334.325	20462
1336.584	20679
1338.843	20584
1341.101	20494
1343.36	20742
1345.617	20558
1347.876	20517
1350.131	20495
1352.387	20695
1354.643	20831
1356.897	20440
1359.151	20605
1361.403	20631
1363.656	20475
1365.909	20607
1368.16	20657
1370.409	20785
1372.659	20516
1374.909	20899
1377.157	20520
1379.407	20642
1381.655	20885
1383.9	20778
1386.147	20772
1388.393	20766
1390.64	20842
1392.885	20882
1395.127	20983
1397.37	20897
1399.614	21053
1401.854	21038
1404.098	20819
1406.339	20805
1408.578	20881
1410.818	20942
1413.056	20772
1415.297	20792
1417.533	21049
1419.771	21179
1422.006	21084
1424.243	21129
1426.479	21226
1428.715	21072
1430.948	21076
1433.182	21096
1435.414	21071
1437.647	21258
1439.88	21203
1442.11	21330
1444.342	21045
1446.571	21445
1448.799	21509
1451.029	21214
1453.258	21436
1455.485	21353
1457.711	21343
1459.937	21162
1462.164	21334
1464.39	21065
1466.614	21283
1468.838	21164
1471.06	21120
1473.283	21214
1475.506	21183
1477.727	20980
1479.949	21271
1482.169	21110
1484.389	20851
1486.609	21258
1488.828	21001
1491.045	20991
1493.261	20816
1495.477	20978
1497.693	20892
1499.91	20906
1502.125	20895
1504.339	20822
1506.553	20723
1508.766	20799
1510.979	20857
1513.191	20906
1515.402	20769
1517.613	20827
1519.823	20628
1522.033	20861
1524.242	20757
1526.451	20665
1528.657	20811
1530.865	20997
1533.072	20891
1535.278	20712
1537.484	21044
1539.687	20881
1541.892	20845
1544.096	20705
1546.299	20982
1548.502	21033
1550.703	21059
1552.905	20977
1555.104	21032
1557.303	21175
1559.505	21347
1561.703	21110
1563.902	21022
1566.099	21145
1568.295	21507
1570.494	21289
1572.689	21217
1574.883	21317
1577.079	21253
1579.272	21377
1581.467	21266
1583.659	21323
1585.853	21430
1588.044	21505
1590.234	21641
1592.424	21340
1594.615	21511
1596.806	21327
1598.994	21557
1601.182	21595
1603.369	21413
1605.557	21577
1607.744	21546
1609.929	21527
1612.114	21658
1614.298	21672
1616.482	21564
1618.667	21741
1620.85	21625
1623.032	21442
1625.214	21357
1627.395	21492
1629.575	21475
1631.755	21706
1633.935	21687
1636.114	21672
1638.292	21243
1640.471	21510
1642.647	21565
1644.823	21513
1647	21546
1649.175	21704
1651.348	21530
1653.525	21603
1655.698	21623
1657.87	21862
1660.043	21411
1662.213	21425
1664.387	21472
1666.558	21641
1668.727	21691
1670.896	21746
1673.064	21630
1675.233	21752
1677.401	21762
1679.569	21469
1681.735	21403
1683.902	21674
1686.066	21774
1688.233	21631
1690.397	21509
1692.559	21370
1694.723	21571
1696.885	21364
1699.048	21487
1701.21	21502
1703.37	21346
1705.53	21511
1707.689	21466
1709.849	21476
1712.009	21382
1714.166	21605
1716.323	21358
1718.479	21465
1720.634	21280
1722.793	21370
1724.948	21424
1727.102	21420
1729.255	21431
1731.408	21496
1733.562	21365
1735.714	21200
1737.865	21511
1740.016	21628
1742.166	21368
1744.316	21402
1746.467	21472
1748.616	21670
1750.764	21463
1752.911	21738
1755.056	21798
1757.205	21568
1759.35	21584
1761.496	21662
1763.641	21423
1765.785	21278
1767.927	21601
1770.072	21663
1772.214	21701
1774.355	21489
1776.496	21725
1778.637	21782
1780.778	21663
1782.918	21743
1785.057	21568
1787.194	21669
1789.333	21747
1791.472	21977
1793.608	21626
1795.745	21766
1797.879	21618
1800.015	21761
1802.148	21793
1804.284	21473
1806.417	21787
1808.548	21644
1810.682	21714
1812.812	21811
1814.946	21562
1817.075	21683
1819.205	21650
1821.335	21447
1823.463	21490
1825.59	21544
1827.721	21538
1829.847	21551
1831.973	21599
1834.098	21662
1836.223	21401
1838.351	21412
1840.475	21492
1842.598	21339
1844.721	21580
1846.843	21516
1848.966	21272
1851.087	21661
1853.21	21198
1855.33	21492
1857.449	21314
1859.568	21454
1861.688	21416
1863.806	21350
1865.924	21388
1868.039	21502
1870.155	21245
1872.273	21282
1874.388	21382
1876.503	21379
1878.617	21349
1880.73	21444
1882.844	21503
1884.956	21188
1887.068	21410
1889.18	21518
1891.291	21525
1893.4	21478
1895.511	21592
1897.621	21503
1899.73	21541
1901.837	21734
1903.944	21627
1906.053	21549
1908.159	21764
1910.265	21333
1912.369	21572
1914.474	21729
1916.577	21777
1918.683	21688
1920.785	21570
1922.888	21832
1924.989	21847
1927.091	21914
1929.193	21708
1931.294	21381
1933.393	21550
1935.493	21756
1937.59	21814
1939.689	21632
1941.788	21620
1943.884	21722
1945.98	21851
1948.077	21892
1950.171	21592
1952.267	21776
1954.361	21843
1956.455	21875
1958.548	21907
1960.64	21688
1962.733	21617
1964.824	21481
1966.915	21661
1969.005	21553
1971.096	21592
1973.185	21655
1975.275	21591
1977.363	21711
1979.45	21501
1981.537	21362
1983.623	21646
1985.711	21628
1987.796	21370
1989.881	21482
1991.965	21564
1994.047	21473
1996.132	21344
1998.215	21507
2000.297	21387
2002.378	21612
2004.46	21384
2006.54	21676
2008.62	21548
2010.7	21495
2012.779	21343
2014.858	21445
2016.934	21400
2019.013	21271
2021.09	21496
2023.165	21220
2025.241	21413
2027.317	21420
2029.39	21289
2031.466	21419
2033.538	21589
2035.612	21264
2037.683	21283
2039.755	21287
2041.827	21312
2043.898	21526
2045.968	21171
2048.038	21436
2050.106	21297
2052.177	21534
2054.244	21741
2056.313	21253
2058.379	21352
2060.444	21343
2062.511	21312
2064.577	21439
2066.641	21516
2068.705	21564
2070.77	21552
2072.832	21558
2074.896	21330
2076.958	21408
2079.02	21639
2081.081	21467
2083.141	21531
2085.2	21399
2087.261	21230
2089.319	21281
2091.377	21351
2093.435	21396
2095.492	21564
2097.552	21257
2099.607	21335
2101.663	21588
2103.718	21356
2105.771	21479
2107.826	21489
2109.879	21360
2111.932	21539
2113.985	21451
2116.037	21591
2118.088	21507
2120.141	21245
2122.191	21472
2124.239	21399
2126.288	21604
2128.337	21390
2130.387	21290
2132.434	21601
2134.481	21518
2136.528	21399
2138.574	21190
2140.618	21372
2142.665	21134
2144.71	21307
2146.753	21194
2148.797	21221
2150.838	21305
2152.883	21200
2154.923	21255
2156.965	21179
2159.007	21177
2161.046	21365
2163.086	21187
2165.126	21232
2167.163	21130
2169.202	21229
2171.239	21186
2173.277	21118
2175.314	21093
2177.349	20967
2179.385	21167
2181.42	21052
2183.453	21020
2185.49	21003
2187.522	20956
2189.555	21186
2191.586	21125
2193.619	21018
2195.651	20841
2197.682	20785
2199.711	20827
2201.74	20784
2203.769	20980
2205.799	20794
2207.828	20728
2209.855	20513
2211.882	20887
2213.908	20785
2215.934	21003
2217.961	20739
2219.986	20863
2222.01	20796
2224.034	20695
2226.057	20679
2228.08	20402
2230.104	20429
2232.124	20792
2234.145	20705
2236.166	20700
2238.186	20667
2240.207	20684
2242.227	20679
2244.244	20683
2246.262	20490
2248.28	20734
2250.299	20558
2252.314	20733
2254.33	20936
2256.346	20611
2258.36	20708
2260.375	20585
2262.391	20615
2264.403	20616
2266.416	20776
2268.427	20824
2270.44	20729
2272.453	20919
2274.463	20676
2276.474	20640
2278.483	20478
2280.493	20692
2282.501	20625
2284.51	20635
2286.518	20606
2288.524	20425
2290.532	20826
2292.537	20397
2294.544	20533
2296.55	20635
2298.554	20805
2300.557	20643
2302.562	20625
2304.566	20981
2306.568	20389
2308.569	20647
2310.572	20637
2312.573	20694
2314.573	20446
2316.574	20525
2318.573	20497
2320.571	20448
2322.571	20376
2324.569	20401
2326.567	20505
2328.564	20297
2330.56	20368
2332.556	20450
2334.551	20374
2336.546	20211
2338.542	20343
2340.535	20270
2342.529	20336
2344.521	20358
2346.512	20046
2348.505	20344
2350.497	20240
2352.487	20470
2354.478	20304
2356.468	20130
2358.457	20382
2360.446	20165
2362.434	20240
2364.422	20207
2366.408	20053
2368.395	20156
2370.383	20268
2372.369	19890
2374.353	20234
2376.338	20059
2378.321	20072
2380.307	20183
2382.29	20149
2384.272	20034
2386.254	20054
2388.235	19933
2390.218	20045
2392.198	19779
2394.179	20055
2396.157	20042
2398.137	20045
2400.115	19980
2402.095	19772
2404.072	19826
2406.048	19958
2408.026	19915
2410.001	19748
2411.977	19836
2413.953	19832
2415.927	19995
2417.9	19791
2419.875	19963
2421.847	19996
2423.821	19895
2425.792	19808
2427.763	19728
2429.736	19809
2431.706	19996
2433.677	19980
2435.646	19763
2437.615	19909
2439.583	19926
2441.551	19839
2443.519	19803
2445.486	19796
2447.452	19696
2449.418	19831
2451.383	19586
2453.348	19724
2455.314	19780
2457.278	19759
2459.241	19883
2461.205	19731
2463.167	19763
2465.131	19590
2467.091	19805
2469.052	19571
2471.012	19621
2472.972	19925
2474.932	19559
2476.891	19562
2478.85	19754
2480.808	19520
2482.766	19687
2484.722	19729
2486.68	19276
2488.636	19619
2490.591	19601
2492.546	19634
2494.5	19388
2496.456	19383
2498.41	19431
2500.362	19415
2502.315	19517
2504.266	19575
2506.218	19313
2508.169	19295
2510.121	19496
2512.07	19310
2514.019	19520
2515.968	19640
2517.918	19371
2519.866	19412
2521.813	19368
2523.76	19441
2525.707	19246
2527.653	19405
2529.599	19384
2531.543	19514
2533.489	19368
2535.433	19352
2537.376	19309
2539.32	19558
2541.264	19301
2543.205	19302
2545.147	19317
2547.087	19291
2549.029	19177
2550.969	19252
2552.908	19529
2554.847	19366
2556.786	19298
2558.724	19312
2560.663	19249
2562.6	19593
2564.537	19532
2566.473	19379
2568.408	19411
2570.345	19443
2572.28	19584
2574.214	19344
2576.148	19337
2578.081	19342
2580.014	19273
2581.947	19415
2583.879	19562
2585.81	19191
2587.741	19561
2589.67	19303
2591.602	19615
2593.532	19281
2595.461	19248
2597.388	19281
2599.316	19539
2601.244	19063
2603.172	19652
2605.098	19306
2607.023	19324
2608.949	19591
2610.873	19245
2612.8	19431
2614.723	19534
2616.647	19303
2618.569	19608
2620.493	19312
2622.416	19205
2624.338	19350
2626.258	19432
2628.179	19159
2630.099	19189
2632.019	19591
2633.939	19384
2635.857	19327
2637.775	19595
2639.694	19297
2641.61	19433
2643.528	19392
2645.444	19261
2647.361	19039
2649.276	19341
2651.19	19515
2653.105	19352
2655.019	19520
2656.934	19519
2658.846	19153
2660.758	19369
2662.67	19337
2664.583	19443
2666.493	19305
2668.404	19100
2670.313	19351
2672.223	19341
2674.134	19419
2676.042	19216
2677.95	19428
2679.858	19120
2681.765	19110
2683.673	19396
2685.579	19048
2687.483	19082
2689.389	19004
2691.294	19209
2693.198	18991
2695.104	19148
2697.006	19091
2698.909	18917
2700.811	19112
2702.713	18767
2704.615	19005
2706.516	19020
2708.417	19040
2710.316	18997
2712.216	18996
2714.115	19079
2716.014	19117
2717.913	18781
2719.81	19057
2721.707	18858
2723.603	19028
2725.501	18956
2727.396	18593
2729.292	18714
2731.186	18975
2733.081	18947
2734.976	18739
2736.87	18718
2738.762	18730
2740.653	18881
2742.546	18988
2744.437	18774
2746.329	18868
2748.22	18833
2750.11	18759
2751.999	18634
2753.889	18765
2755.778	18665
2757.666	18675
2759.553	18949
2761.44	18698
2763.328	18725
2765.215	18807
2767.101	18707
2768.986	18681
2770.87	18700
2772.754	18713
2774.638	18838
2776.523	18690
2778.405	18712
2780.288	18708
2782.17	18900
2784.051	18506
2785.934	18688
2787.814	18594
2789.694	18796
2791.574	18621
2793.453	18745
2795.332	18488
2797.212	18564
2799.088	18652
2800.966	18495
2802.843	18436
2804.719	18609
2806.597	18606
2808.471	18377
2810.346	18340
2812.221	18428
2814.094	18572
2815.969	18542
2817.843	18574
2819.714	18531
2821.587	18392
2823.459	18589
2825.329	18144
2827.202	18635
2829.072	18404
2830.942	18428
2832.811	18486
2834.68	18415
2836.549	18534
2838.418	18381
2840.284	18260
2842.152	18370
2844.018	18247
2845.885	18359
2847.751	18432
2849.616	18485
2851.482	18319
2853.345	18637
2855.208	18254
2857.074	18543
2858.937	18389
2860.799	18460
2862.66	18387
2864.522	18450
2866.385	18303
2868.245	18477
2870.104	18634
2871.964	18480
2873.824	18633
2875.683	18748
2877.542	18736
2879.4	18673
2881.257	18702
2883.114	18865
2884.97	18763
2886.827	18800
2888.683	18687
2890.537	18717
2892.392	18650
2894.246	18884
2896.1	18750
2897.954	18815
2899.807	18678
2901.66	18599
2903.51	18558
2905.362	18529
2907.214	18607
2909.065	18566
2910.915	18622
2912.765	18652
2914.613	18632
2916.463	18795
2918.311	18796
2920.158	18728
2922.006	18834
2923.853	18791
2925.698	19209
2927.546	18845
2929.392	19053
2931.236	19252
2933.081	19184
2934.924	19025
2936.77	19412
2938.613	19195
2940.455	19368
2942.298	19356
2944.139	19283
2945.982	19305
2947.823	19207
2949.662	19036
2951.503	19345
2953.342	18788
2955.182	18932
2957.021	18834
2958.858	18971
2960.697	18870
2962.534	18792
2964.37	18692
2966.207	18703
2968.044	18551
2969.879	18675
2971.714	18555
2973.548	18341
2975.383	18366
2977.218	18368
2979.051	18437
2980.883	18380
2982.715	18394
2984.547	18323
2986.379	18417
2988.21	18265
2990.04	18126
2991.87	18229
2993.7	18056
2995.53	18035
2997.359	17975
2999.187	17869
3001.015	18043
3002.842	17706
3004.669	18017
3006.497	17627
3008.323	17673
3010.148	17900
3011.974	17603
3013.797	17551
3015.623	17513
3017.447	17535
3019.27	17703
3021.094	17665
3022.915	17424
3024.737	17348
3026.56	17297
3028.38	17437
3030.201	17246
3032.022	17455
3033.84	17317
3035.662	17417
3037.481	17341
3039.298	17384
3041.117	17193
3042.933	17175
3044.752	17321
3046.568	17117
3048.385	17301
3050.2	17347
3052.016	17200
3053.83	17145
3055.646	17488
3057.46	17281
3059.272	17249
3061.086	17009
3062.898	17177
3064.711	17138
3066.524	17208
3068.335	17023
3070.145	16925
3071.956	17116
3073.766	17115
3075.576	16881
3077.385	16786
3079.193	17100
3081.002	17019
3082.81	16783
3084.618	16825
3086.425	16728
3088.231	16995
3090.036	16799
3091.842	16893
3093.648	16595
3095.452	16729
3097.257	16636
3099.06	16702
3100.863	16736
3102.666	16837
3104.47	16614
3106.272	16654
3108.073	16583
3109.875	16623
3111.676	16527
3113.477	16572
3115.277	16622
3117.077	16492
3118.874	16597
3120.673	16498
3122.473	16548
3124.271	16479
3126.066	16383
3127.863	16394
3129.66	16442
3131.456	16148
3133.252	16435
3135.047	16147
3136.842	16468
3138.635	16348
3140.429	16101
3142.223	16268
3144.016	16229
3145.808	16314
3147.6	16118
3149.392	16261
3151.183	16361
3152.975	16074
3154.765	16143
3156.553	16206
3158.344	16210
3160.132	16049
3161.922	16100
3163.71	16070
3165.497	16099
3167.285	16201
3169.071	16166
3170.858	16076
3172.645	16029
3174.429	15929
3176.214	15955
3177.998	15976
3179.783	16030
3181.568	16108
3183.351	15868
3185.133	15738
3186.915	15908
3188.698	15877
3190.481	15884
3192.261	15913
3194.042	15978
3195.822	15895
3197.601	15866
3199.381	15695
3201.161	15875
3202.939	15817
3204.717	15917
3206.495	15930
3208.272	15667
3210.05	15587
3211.826	15978
3213.602	15621
3215.376	15774
3217.151	15814
3218.927	15843
3220.702	15620
3222.476	15904
3224.249	15857
3226.021	15817
3227.793	15742
3229.567	15721
3231.339	15730
3233.109	15588
3234.88	15708
3236.651	15819
3238.421	15642
3240.191	15657
3241.96	15622
3243.728	15561
3245.497	15586
3247.263	15588
3249.033	15594
3250.799	15417
3252.566	15431
3254.331	15618
3256.097	15602
3257.863	15657
3259.628	15528
3261.392	15658
3263.156	15524
3264.919	15616
3266.683	15432
3268.447	15495
3270.208	15598
3271.969	15548
3273.731	15533
3275.492	15404
3277.253	15470
3279.013	15650
3280.773	15602
3282.532	15606
3284.291	15531
3286.05	15430
3287.808	15356
3289.566	15668
3291.323	15592
3293.079	15422
3294.835	15384
3296.593	15535
3298.348	15357
3300.102	15525
3301.857	15268
3303.611	15549
3305.366	15377
3307.119	15371
3308.872	15397
3310.624	15474
3312.376	15371
3314.129	15417
3315.881	15426
3317.631	15397
3319.38	15242
3321.13	15255
3322.88	15382
3324.631	15296
3326.379	15163
3328.126	15490
3329.875	15215
3331.622	15160
3333.371	15187
3335.116	15173
3336.863	15150
3338.609	15347
3340.353	15112
3342.1	15137
3343.845	15278
3345.588	15343
3347.332	15132
3349.074	15179
3350.817	15070
3352.56	15154
3354.303	15108
3356.043	15227
3357.785	15107
3359.525	15160
3361.268	15043
3363.007	15184
3364.745	14812
3366.485	14941
3368.223	15241
3369.962	14991
3371.701	15175
3373.438	14962
3375.174	15122
3376.911	15101
3378.647	14975
3380.384	14978
3382.118	14822
3383.854	14811
3385.588	14836
3387.322	14910
3389.057	14834
3390.79	14983
3392.522	14991
3394.255	15025
3395.987	14794
3397.719	14945
3399.451	14946
3401.181	14865
3402.911	14756
3404.641	14860
3406.371	14732
3408.101	14798
3409.83	14983
3411.558	14745
3413.285	14733
3415.011	14869
3416.739	14653
3418.467	14747
3420.193	14773
3421.919	14849
3423.644	14733
3425.368	14757
3427.094	14482
3428.818	14598
3430.542	14730
3432.264	14649
3433.987	14603
3435.712	14503
3437.434	14437
3439.155	14503
3440.876	14540
3442.596	14366
3444.317	14450
3446.039	14533
3447.757	14364
3449.477	14418
3451.195	14379
3452.914	14585
3454.632	14326
3456.35	14312
3458.067	14474
3459.784	14457
3461.5	14447
3463.216	14389
3464.932	14351
3466.647	14135
3468.362	14280
3470.076	14260
3471.789	14234
3473.505	14228
3475.217	14035
3476.929	14298
3478.641	14164
3480.354	14116
3482.066	14156
3483.777	14242
3485.487	14052
3487.197	14210
3488.908	14023
3490.617	14028
3492.327	13963
3494.035	14123
3495.743	13989
3497.451	14072
3499.158	14040
3500.866	13941
3502.572	14031
3504.278	14181
3505.984	14206
3507.689	13961
3509.396	14002
3511.1	13868
3512.804	13934
3514.508	13837
3516.211	13916
3517.913	13828
3519.616	13857
3521.319	14050
3523.021	13809
3524.722	13843
3526.422	13764
3528.124	13903
3529.824	13881
3531.524	13834
3533.222	13715
3534.921	13682
3536.62	13773
3538.318	13638
3540.016	13562
3541.714	13727
3543.41	13768
3545.107	13855
3546.803	13634
3548.5	13565
3550.194	13691
3551.889	13598
3553.583	13555
3555.279	13608
3556.972	13654
3558.666	13647
3560.358	13773
3562.051	13576
3563.742	13632
3565.435	13609
3567.126	13560
3568.817	13568
3570.507	13462
3572.197	13529
3573.888	13665
3575.577	13541
3577.265	13641
3578.954	13519
3580.642	13604
3582.329	13389
3584.017	13322
3585.704	13512
3587.391	13306
3589.077	13506
3590.762	13447
3592.449	13433
3594.133	13328
3595.817	13380
3597.501	13558
3599.185	13260
3600.869	13393
3602.552	13388
3604.234	13435
3605.916	13271
3607.598	13344
3609.279	13384
3610.961	13227
3612.642	13125
3614.321	13032
3616	13079
3617.68	13060
3619.36	13020
3621.039	13189
3622.716	13116
3624.394	13156
3626.071	12978
3627.748	13048
3629.425	13180
3631.102	12977
3632.778	12953
3634.452	12968
3636.127	12870
3637.803	12991
3639.477	13000
3641.151	12992
3642.823	12854
3644.497	12975
3646.171	12942
3647.842	13015
3649.515	12825
3651.185	12898
3652.857	12871
3654.527	13008
3656.198	12915
3657.868	12692
3659.537	12789
3661.207	12741
3662.875	12671
3664.544	12987
3666.212	12804
3667.879	12768
3669.546	12835
3671.212	12795
3672.88	12854
3674.546	12699
3676.211	12830
3677.875	12717
3679.541	12639
3681.205	12940
3682.87	12795
3684.533	12693
3686.196	12573
3687.859	12745
3689.521	12754
3691.184	12708
3692.845	12725
3694.507	12486
3696.167	12699
3697.827	12729
3699.487	12777
3701.148	12701
3702.808	12699
3704.466	12620
3706.125	12508
3707.783	12475
3709.442	12594
3711.099	12521
3712.757	12749
3714.412	12462
3716.068	12611
3717.725	12766
3719.381	12574
3721.036	12572
3722.689	12444
3724.344	12596
3725.998	12252
3727.652	12506
3729.305	12571
3730.958	12462
3732.61	12498
3734.262	12455
3735.915	12395
3737.565	12387
3739.217	12344
3740.866	12423
3742.516	12540
3744.165	12449
3745.816	12445
3747.464	12480
3749.113	12250
3750.761	12289
3752.409	12411
3754.057	12382
3755.703	12213
3757.35	12239
3758.996	12274
3760.641	12296
3762.289	12242
3763.933	12223
3765.577	12290
3767.222	12181
3768.865	12462
3770.508	12023
3772.152	12128
3773.796	12271
3775.438	12098
3777.079	11936
3778.721	12236
3780.363	12084
3782.003	12019
3783.643	12040
3785.283	12021
3786.923	12013
3788.563	11875
3790.203	11990
3791.841	12121
3793.479	12073
3795.115	11994
3796.753	11944
3798.391	11832
3800.027	12031
3801.664	11931
3803.299	11910
3804.935	11950
3806.571	11971
3808.206	11878
3809.839	11787
3811.473	11988
3813.107	11801
3814.74	11837
3816.375	11822
3818.006	11850
3819.638	11693
3821.27	11823
3822.9	11807
3824.532	11795
3826.163	11816
3827.792	11757
3829.423	11601
3831.051	11717
3832.682	11625
3834.311	11930
3835.938	11717
3837.566	11546
3839.193	11776
3840.821	11772
3842.448	11809
3844.075	11641
3845.7	11607
3847.325	11633
3848.951	11633
3850.576	11594
3852.201	11395
3853.825	11706
3855.448	11606
3857.072	11546
3858.694	11627
3860.318	11657
3861.939	11393
3863.562	11466
3865.183	11546
3866.804	11311
3868.426	11529
3870.045	11360
3871.666	11375
3873.285	11431
3874.904	11483
3876.524	11412
3878.142	11402
3879.76	11446
3881.378	11471
3882.995	11156
3884.612	11506
3886.229	11380
3887.845	11335
3889.461	11433
3891.076	11488
3892.691	11436
3894.307	11281
3895.922	11218
3897.536	11452
3899.149	11294
3900.761	11317
3902.374	11363
3903.988	11403
3905.6	11303
3907.212	11517
3908.822	11224
3910.433	11256
3912.045	11285
3913.655	11255
3915.265	11378
3916.875	11274
3918.483	11160
3920.093	11267
3921.702	11252
3923.309	11201
3924.917	11253
3926.523	11209
3928.13	11222
3929.739	11291
3931.344	11247
3932.95	11276
3934.555	11229
3936.159	11188
3937.766	11324
3939.369	11193
3940.974	11189
3942.577	11217
3944.181	11174
3945.783	11145
3947.386	11159
3948.989	11014
3950.59	11036
3952.191	11098
3953.791	11058
3955.394	11010
3956.994	11053
3958.593	11008
3960.192	11193
3961.791	10949
3963.392	10877
3964.99	11022
3966.588	11055
3968.185	10887
3969.782	10913
3971.379	10933
3972.976	10994
3974.572	11045
3976.168	10794
3977.763	10720
3979.358	10797
3980.954	10796
3982.548	11069
3984.142	10724
3985.736	10881
3987.329	10819
3988.922	10859
3990.516	10555
3992.108	10840
3993.698	10755
3995.29	10775
3996.881	10680
3998.473	10695
4000.064	10598
4001.653	10698
4003.242	10710
4004.832	10600
4006.422	10525
4008.01	10573
4009.598	10484
4011.186	10516
4012.773	10481
4014.36	10677
4015.947	10426
4017.534	10430
4019.119	10424
4020.705	10482
4022.291	10540
4023.876	10443
4025.461	10467
4027.044	10615
4028.627	10432
4030.211	10320
4031.795	10349
4033.378	10425
4034.96	10282
4036.542	10536
4038.124	10438
4039.704	10406
4041.286	10374
4042.867	10416
4044.447	10320
4046.026	10429
4047.606	10359
4049.187	10209
4050.765	10244
4052.343	10261
4053.92	10325
4055.498	10280
4057.076	10161
4058.654	10175
4060.23	10112
4061.806	10261
4063.381	10244
4064.957	10359
4066.533	10135
4068.107	10181
4069.682	10146
4071.256	10196
4072.829	10188
4074.404	10122
4075.977	9917
4077.549	10187
4079.121	10133
4080.693	10085
4082.265	10228
4083.836	10149
4085.407	10106
4086.977	9992
4088.547	9991
4090.117	10112
4091.687	10110
4093.256	10014
4094.825	10060
4096.392	9890
4097.96	10062
4099.528	10149
4101.097	10001
4102.663	10051
4104.229	9948
4105.795	9875
4107.361	10017
4108.928	9834
4110.493	9926
4112.058	10014
4113.621	9835
4115.186	9905
4116.75	9907
4118.313	9936
4119.876	9834
4121.438	9765
4123	9834
4124.562	9749
4126.125	9816
4127.686	9770
4129.246	9804
4130.807	9760
4132.367	9695
4133.927	9841
4135.486	9778
4137.046	9845
4138.604	9696
4140.162	9588
4141.72	9638
4143.279	9529
4144.836	9617
4146.393	9606
4147.949	9709
4149.505	9630
4151.062	9714
4152.617	9595
4154.172	9566
4155.727	9592
4157.281	9651
4158.836	9423
4160.39	9520
4161.943	9539
4163.496	9430
4165.048	9585
4166.601	9532
4168.154	9613
4169.706	9560
4171.257	9470
4172.808	9368
4174.358	9506
4175.909	9494
4177.458	9409
4179.008	9375
4180.558	9385
4182.106	9218
4183.655	9342
4185.204	9463
4186.751	9330
4188.298	9465
4189.845	9369
4191.392	9413
4192.939	9330
4194.485	9238
4196.031	9190
4197.576	9221
4199.121	9152
4200.666	9232
4202.211	9196
4203.754	9188
4205.298	9232
4206.84	9257
4208.384	9201
4209.927	9153
4211.47	9266
4213.011	9316
4214.552	9147
4216.094	9239
4217.635	9129
4219.175	9138
4220.716	9058
4222.255	9137
4223.793	9205
4225.335	9096
4226.873	9040
4228.411	9070
4229.948	8954
4231.486	9103
4233.024	9198
4234.562	9037
4236.098	9234
4237.634	9136
4239.169	9089
4240.705	9062
4242.241	8973
4243.776	9099
4245.31	9081
4246.844	8840
4248.378	8993
4249.911	9127
4251.445	8962
4252.978	9010
4254.51	8958
4256.042	9196
4257.574	9010
4259.107	8953
4260.638	8986
4262.169	8956
4263.699	8810
4265.228	8939
4266.759	8897
4268.289	8975
4269.818	8936
4271.345	8842
4272.874	9022
4274.402	9080
4275.931	8845
4277.458	8869
4278.985	8897
4280.512	8830
4282.037	8904
4283.564	8843
4285.089	8698
4286.615	8828
4288.139	8820
4289.664	8824
4291.187	8934
4292.712	8846
4294.235	8760
4295.759	8780
4297.281	8903
4298.804	8610
4300.327	8824
4301.849	8618
4303.37	8792
4304.891	8693
4306.412	8637
4307.933	8723
4309.453	8729
4310.973	8636
4312.492	8666
