398.1873	3462
400.7097	3411
403.2336	3356
405.7547	3482
408.2751	3478
410.7948	3487
413.3138	3445
415.83	3430
418.3497	3472
420.8666	3516
423.3829	3579
425.8985	3558
428.4133	3644
430.9275	3618
433.441	3528
435.9538	3665
438.4639	3542
440.9753	3670
443.4881	3633
445.9982	3688
448.5055	3708
451.0142	3596
453.5201	3620
456.0274	3558
458.5361	3630
461.04	3701
463.5453	3588
466.0478	3554
468.5517	3678
471.0549	3693
473.5574	3587
476.0572	3632
478.5584	3636
481.0568	3673
483.5545	3715
486.0557	3675
488.5521	3676
491.0478	3797
493.5449	3818
496.0392	3773
498.5349	3741
501.0299	3789
503.5222	3776
506.0139	3831
508.5048	3737
510.9991	3681
513.4887	3780
515.9777	3824
518.4659	3783
520.9534	3739
523.4403	3792
525.9306	3820
528.4161	3820
530.9009	3783
533.3851	3734
535.8687	3833
538.3535	3789
540.8356	3779
543.3171	3794
545.7979	3776
548.278	3805
550.7595	3887
553.2383	3863
555.7144	3866
558.1918	3781
560.6685	3840
563.1446	3853
565.6221	3909
568.0968	3808
570.5688	3841
573.0422	3974
575.515	3876
577.989	3994
580.4584	3895
582.9291	3908
585.3991	3893
587.8685	3920
590.3352	3972
592.8052	3992
595.2706	3939
597.7372	3880
600.2033	3926
602.6666	3946
605.1334	3966
607.5953	3925
610.0587	3993
612.5193	3812
614.9814	3915
617.4427	3927
619.9034	3920
622.3615	3985
624.8208	3845
627.2775	3910
629.7335	3951
632.1929	3856
634.6476	3930
637.1016	3805
639.5569	3889
642.0096	3976
644.4637	4022
646.9151	3929
649.3678	3981
651.8179	3958
654.2672	3955
656.7159	3980
659.166	4011
661.6154	3967
664.0622	3952
666.5082	3961
668.9537	4048
671.4005	4032
673.8445	3985
676.288	4035
678.7308	4060
681.1729	4043
683.6163	4062
686.0572	4143
688.4973	4062
690.9368	3980
693.3757	4025
695.8138	3980
698.2534	4064
700.6902	4033
703.1245	4110
705.56	4095
707.9949	4094
710.4311	4189
712.8647	4082
715.2957	4107
717.7279	4170
720.1595	4161
722.5905	4178
725.0208	4145
727.4505	4193
729.8795	4241
732.3058	4276
734.7336	4184
737.1626	4154
739.587	4122
742.0128	4148
744.4359	4369
746.8604	4200
749.2841	4310
751.7073	4304
754.1278	4275
756.5496	4342
758.9688	4239
761.3893	4256
763.8093	4334
766.2285	4324
768.6451	4278
771.0611	4341
773.4784	4331
775.895	4298
778.3091	4342
780.7244	4349
783.1371	4332
785.5493	4323
787.9626	4335
790.3754	4426
792.7856	4315
795.1951	4417
797.6039	4330
800.0121	4391
802.4236	4321
804.8306	4334
807.2369	4300
809.6425	4403
812.0475	4320
814.4538	4424
816.8575	4410
819.2606	4467
821.663	4384
824.0648	4422
826.4659	4503
828.8683	4332
831.2682	4288
833.6674	4366
836.066	4441
838.4639	4325
840.8632	4472
843.2579	4385
845.6539	4488
848.0493	4522
850.444	4476
852.84	4556
855.2315	4476
857.6243	4491
860.0165	4535
862.4081	4450
864.797	4391
867.1892	4417
869.5789	4436
871.9659	4448
874.3542	4426
876.74	4436
879.129	4408
881.5155	4481
883.8994	4508
886.2845	4515
888.6671	4429
891.051	4459
893.4343	4459
895.8169	4494
898.197	4462
900.5783	4549
902.9571	4509
905.3372	4569
907.7167	4557
910.0936	4580
912.4698	4510
914.8474	4622
917.2244	4547
919.5987	4639
921.9744	4723
924.3475	4740
926.72	4661
929.0918	4650
931.4669	4746
933.8375	4672
936.2074	4587
938.5767	4774
940.9454	4687
943.3154	4667
945.6829	4647
948.0497	4756
950.4178	4843
952.7833	4980
955.1483	4953
957.5145	5078
959.8782	5185
962.2412	5189
964.6036	5072
966.9655	5005
969.3266	4899
971.6871	4746
974.0471	4746
976.4064	4728
978.765	4758
981.125	4668
983.4824	4624
985.8373	4634
988.1935	4659
990.549	4634
992.9039	4664
995.2602	4544
997.6119	4669
999.965	4720
1002.317	4649
1004.667	4706
1007.02	4682
1009.371	4652
1011.719	4616
1014.068	4658
1016.415	4670
1018.765	4738
1021.111	4572
1023.458	4669
1025.804	4675
1028.147	4757
1030.49	4668
1032.837	4684
1035.179	4666
1037.522	4705
1039.862	4813
1042.204	4648
1044.546	4692
1046.884	4659
1049.224	4781
1051.562	4660
1053.899	4749
1056.237	4746
1058.575	4748
1060.91	4703
1063.244	4834
1065.58	4701
1067.913	4860
1070.248	4886
1072.579	4754
1074.911	4661
1077.242	4809
1079.572	4795
1081.905	4745
1084.234	4827
1086.562	4755
1088.89	4752
1091.217	4705
1093.544	4692
1095.871	4707
1098.197	4779
1100.521	4853
1102.845	4754
1105.169	4729
1107.491	4721
1109.814	4742
1112.135	4829
1114.456	4748
1116.776	4787
1119.096	4796
1121.415	4744
1123.734	4782
1126.052	4801
1128.369	4752
1130.686	4720
1133.002	4884
1135.318	4852
1137.632	4776
1139.945	4864
1142.258	4849
1144.573	4680
1146.884	4708
1149.196	4842
1151.505	4923
1153.816	4807
1156.124	4754
1158.435	4814
1160.742	4841
1163.051	4807
1165.356	4849
1167.663	4840
1169.97	4861
1172.276	4846
1174.579	4813
1176.881	4819
1179.186	4834
1181.487	4820
1183.79	4879
1186.092	4809
1188.392	4824
1190.691	4795
1192.991	4792
1195.291	4780
1197.588	4789
1199.885	4793
1202.181	4779
1204.479	4830
1206.775	4928
1209.07	4857
1211.363	4831
1213.656	4882
1215.949	4853
1218.241	4879
1220.534	4787
1222.825	4997
1225.115	4891
1227.405	4882
1229.693	4896
1231.984	4977
1234.271	5011
1236.558	4995
1238.845	4909
1241.131	5048
1243.416	4898
1245.703	4999
1247.987	5004
1250.269	5038
1252.552	5062
1254.834	5137
1257.118	5044
1259.399	4987
1261.678	5004
1263.958	5011
1266.237	5027
1268.516	4962
1270.794	5068
1273.072	5012
1275.347	5038
1277.624	4917
1279.899	5081
1282.175	4920
1284.449	4964
1286.722	4899
1288.995	4912
1291.266	5040
1293.54	4993
1295.81	5025
1298.081	4993
1300.35	4986
1302.62	4948
1304.889	4985
1307.156	4919
1309.425	4945
1311.69	5027
1313.957	4991
1316.222	5030
1318.488	5043
1320.751	4994
1323.016	5033
1325.278	5036
1327.54	4990
1329.803	5055
1332.065	5103
1334.325	4977
1336.584	5061
1338.843	4913
1341.101	5028
1343.36	5082
1345.617	5051
1347.876	4936
1350.131	5019
1352.387	4998
1354.643	4962
1356.897	5065
1359.151	5079
1361.403	5022
1363.656	5009
1365.909	4939
1368.16	4995
1370.409	5064
1372.659	5087
1374.909	5130
1377.157	5024
1379.407	5061
1381.655	5152
1383.9	5127
1386.147	5019
1388.393	5142
1390.64	5199
1392.885	5085
1395.127	5187
1397.37	5258
1399.614	5198
1401.854	5275
1404.098	5196
1406.339	5201
1408.578	5215
1410.818	5048
1413.056	5072
1415.297	5124
1417.533	5134
1419.771	5246
1422.006	5153
1424.243	5122
1426.479	5228
1428.715	5174
1430.948	5136
1433.182	5228
1435.414	5230
1437.647	5281
1439.88	5253
1442.11	5206
1444.342	5251
1446.571	5182
1448.799	5147
1451.029	5215
1453.258	5275
1455.485	5342
1457.711	5199
1459.937	5279
1462.164	5221
1464.39	5363
1466.614	5194
1468.838	5257
1471.06	5331
1473.283	5187
1475.506	5189
1477.727	5149
1479.949	5117
1482.169	5160
1484.389	5162
1486.609	5036
1488.828	5116
1491.045	5051
1493.261	5095
1495.477	5122
1497.693	5049
1499.91	5049
1502.125	5082
1504.339	5112
1506.553	5044
1508.766	5035
1510.979	5051
1513.191	5034
1515.402	5137
1517.613	5035
1519.823	5028
1522.033	5108
1524.242	5100
1526.451	5110
1528.657	5051
1530.865	5038
1533.072	5046
1535.278	5053
1537.484	5067
1539.687	5120
1541.892	5170
1544.096	5060
1546.299	5176
1548.502	5210
1550.703	5092
1552.905	5086
1555.104	5096
1557.303	5170
1559.505	5245
1561.703	5180
1563.902	5188
1566.099	5212
1568.295	5271
1570.494	5189
1572.689	5313
1574.883	5225
1577.079	5156
1579.272	5305
1581.467	5296
1583.659	5203
1585.853	5234
1588.044	5211
1590.234	5258
1592.424	5249
1594.615	5292
1596.806	5265
1598.994	5243
1601.182	5223
1603.369	5246
1605.557	5324
1607.744	5290
1609.929	5264
1612.114	5297
1614.298	5224
1616.482	5308
1618.667	5273
1620.85	5233
1623.032	5272
1625.214	5188
1627.395	5258
1629.575	5280
1631.755	5228
1633.935	5364
1636.114	5270
1638.292	5321
1640.471	5376
1642.647	5296
1644.823	5316
1647	5290
1649.175	5374
1651.348	5266
1653.525	5372
1655.698	5387
1657.87	5395
1660.043	5353
1662.213	5312
1664.387	5283
1666.558	5272
1668.727	5341
1670.896	5246
1673.064	5296
1675.233	5341
1677.401	5268
1679.569	5345
1681.735	5246
1683.902	5316
1686.066	5300
1688.233	5293
1690.397	5293
1692.559	5398
1694.723	5290
1696.885	5328
1699.048	5314
1701.21	5245
1703.37	5222
1705.53	5198
1707.689	5261
1709.849	5265
1712.009	5338
1714.166	5238
1716.323	5253
1718.479	5161
1720.634	5261
1722.793	5298
1724.948	5229
1727.102	5248
1729.255	5145
1731.408	5276
1733.562	5267
1735.714	5167
1737.865	5310
1740.016	5183
1742.166	5229
1744.316	5258
1746.467	5338
1748.616	5254
1750.764	5196
1752.911	5256
1755.056	5279
1757.205	5286
1759.35	5283
1761.496	5403
1763.641	5322
1765.785	5234
1767.927	5282
1770.072	5287
1772.214	5277
1774.355	5312
1776.496	5400
1778.637	5370
1780.778	5254
1782.918	5206
1785.057	5252
1787.194	5465
1789.333	5454
1791.472	5382
1793.608	5149
1795.745	5331
1797.879	5305
1800.015	5353
1802.148	5279
1804.284	5349
1806.417	5292
1808.548	5385
1810.682	5324
1812.812	5341
1814.946	5366
1817.075	5313
1819.205	5340
1821.335	5308
1823.463	5334
1825.59	5275
1827.721	5329
1829.847	5304
1831.973	5369
1834.098	5313
1836.223	5334
1838.351	5264
1840.475	5334
1842.598	5270
1844.721	5359
1846.843	5244
1848.966	5322
1851.087	5254
1853.21	5411
1855.33	5281
1857.449	5288
1859.568	5261
1861.688	5344
1863.806	5341
1865.924	5259
1868.039	5374
1870.155	5246
1872.273	5294
1874.388	5328
1876.503	5337
1878.617	5286
1880.73	5320
1882.844	5299
1884.956	5295
1887.068	5243
1889.18	5274
1891.291	5312
1893.4	5471
1895.511	5299
1897.621	5335
1899.73	5402
1901.837	5358
1903.944	5403
1906.053	5405
1908.159	5385
1910.265	5409
1912.369	5324
1914.474	5325
1916.577	5311
1918.683	5373
1920.785	5498
1922.888	5377
1924.989	5449
1927.091	5392
1929.193	5500
1931.294	5382
1933.393	5380
1935.493	5408
1937.59	5513
1939.689	5367
1941.788	5490
1943.884	5429
1945.98	5393
1948.077	5509
1950.171	5338
1952.267	5431
1954.361	5511
1956.455	5338
1958.548	5407
1960.64	5510
1962.733	5383
1964.824	5498
1966.915	5406
1969.005	5358
1971.096	5338
1973.185	5385
1975.275	5427
1977.363	5478
1979.45	5304
1981.537	5454
1983.623	5387
1985.711	5417
1987.796	5427
1989.881	5446
1991.965	5466
1994.047	5401
1996.132	5495
1998.215	5332
2000.297	5413
2002.378	5337
2004.46	5375
2006.54	5362
2008.62	5390
2010.7	5359
2012.779	5399
2014.858	5354
2016.934	5515
2019.013	5327
2021.09	5421
2023.165	5323
2025.241	5272
2027.317	5449
2029.39	5342
2031.466	5393
2033.538	5332
2035.612	5374
2037.683	5389
2039.755	5381
2041.827	5414
2043.898	5367
2045.968	5347
2048.038	5487
2050.106	5448
2052.177	5383
2054.244	5379
2056.313	5375
2058.379	5447
2060.444	5370
2062.511	5338
2064.577	5270
2066.641	5376
2068.705	5433
2070.77	5362
2072.832	5300
2074.896	5377
2076.958	5497
2079.02	5317
2081.081	5495
2083.141	5478
2085.2	5407
2087.261	5357
2089.319	5477
2091.377	5460
2093.435	5543
2095.492	5433
2097.552	5375
2099.607	5478
2101.663	5481
2103.718	5381
2105.771	5415
2107.826	5463
2109.879	5300
2111.932	5434
2113.985	5407
2116.037	5465
2118.088	5339
2120.141	5418
2122.191	5514
2124.239	5471
2126.288	5425
2128.337	5420
2130.387	5362
2132.434	5421
2134.481	5418
2136.528	5452
2138.574	5463
2140.618	5431
2142.665	5316
2144.71	5385
2146.753	5402
2148.797	5425
2150.838	5439
2152.883	5450
2154.923	5373
2156.965	5452
2159.007	5435
2161.046	5399
2163.086	5446
2165.126	5397
2167.163	5446
2169.202	5433
2171.239	5388
2173.277	5510
2175.314	5414
2177.349	5389
2179.385	5390
2181.42	5398
2183.453	5340
2185.49	5340
2187.522	5330
2189.555	5415
2191.586	5314
2193.619	5319
2195.651	5400
2197.682	5339
2199.711	5331
2201.74	5446
2203.769	5275
2205.799	5376
2207.828	5433
2209.855	5317
2211.882	5327
2213.908	5298
2215.934	5345
2217.961	5301
2219.986	5249
2222.01	5421
2224.034	5286
2226.057	5264
2228.08	5324
2230.104	5232
2232.124	5314
2234.145	5500
2236.166	5259
2238.186	5309
2240.207	5314
2242.227	5458
2244.244	5360
2246.262	5364
2248.28	5359
2250.299	5300
2252.314	5346
2254.33	5346
2256.346	5339
2258.36	5356
2260.375	5390
2262.391	5303
2264.403	5380
2266.416	5424
2268.427	5347
2270.44	5346
2272.453	5340
2274.463	5373
2276.474	5340
2278.483	5379
2280.493	5435
2282.501	5354
2284.51	5336
2286.518	5434
2288.524	5332
2290.532	5373
2292.537	5366
2294.544	5326
2296.55	5295
2298.554	5332
2300.557	5338
2302.562	5282
2304.566	5520
2306.568	5328
2308.569	5441
2310.572	5426
2312.573	5449
2314.573	5429
2316.574	5440
2318.573	5392
2320.571	5312
2322.571	5307
2324.569	5330
2326.567	5331
2328.564	5316
2330.56	5310
2332.556	5408
2334.551	5341
2336.546	5299
2338.542	5350
2340.535	5265
2342.529	5342
2344.521	5296
2346.512	5313
2348.505	5284
2350.497	5224
2352.487	5319
2354.478	5230
2356.468	5316
2358.457	5285
2360.446	5264
2362.434	5293
2364.422	5286
2366.408	5336
2368.395	5446
2370.383	5311
2372.369	5273
2374.353	5273
2376.338	5389
2378.321	5359
2380.307	5227
2382.29	5214
2384.272	5280
2386.254	5186
2388.235	5234
2390.218	5338
2392.198	5232
2394.179	5247
2396.157	5135
2398.137	5302
2400.115	5225
2402.095	5263
2404.072	5191
2406.048	5212
2408.026	5220
2410.001	5221
2411.977	5295
2413.953	5357
2415.927	5267
2417.9	5293
2419.875	5291
2421.847	5281
2423.821	5152
2425.792	5299
2427.763	5300
2429.736	5279
2431.706	5380
2433.677	5191
2435.646	5362
2437.615	5228
2439.583	5302
2441.551	5260
2443.519	5287
2445.486	5239
2447.452	5174
2449.418	5304
2451.383	5157
2453.348	5301
2455.314	5209
2457.278	5155
2459.241	5204
2461.205	5164
2463.167	5260
2465.131	5217
2467.091	5267
2469.052	5243
2471.012	5225
2472.972	5246
2474.932	5264
2476.891	5082
2478.85	5260
2480.808	5136
2482.766	5220
2484.722	5181
2486.68	5208
2488.636	5212
2490.591	5239
2492.546	5245
2494.5	5270
2496.456	5233
2498.41	5141
2500.362	5286
2502.315	5211
2504.266	5256
2506.218	5206
2508.169	5231
2510.121	5122
2512.07	5102
2514.019	5180
2515.968	5262
2517.918	5193
2519.866	5194
2521.813	5141
2523.76	5160
2525.707	5181
2527.653	5176
2529.599	5272
2531.543	5235
2533.489	5201
2535.433	5213
2537.376	5267
2539.32	5175
2541.264	5230
2543.205	5302
2545.147	5148
2547.087	5189
2549.029	5139
2550.969	5224
2552.908	5205
2554.847	5192
2556.786	5198
2558.724	5243
2560.663	5229
2562.6	5238
2564.537	5178
2566.473	5210
2568.408	5147
2570.345	5237
2572.28	5279
2574.214	5170
2576.148	5173
2578.081	5268
2580.014	5226
2581.947	5316
2583.879	5154
2585.81	5289
2587.741	5277
2589.67	5194
2591.602	5292
2593.532	5284
2595.461	5201
2597.388	5232
2599.316	5254
2601.244	5225
2603.172	5201
2605.098	5293
2607.023	5324
2608.949	5283
2610.873	5210
2612.8	5228
2614.723	5281
2616.647	5442
2618.569	5273
2620.493	5278
2622.416	5226
2624.338	5183
2626.258	5239
2628.179	5255
2630.099	5190
2632.019	5276
2633.939	5302
2635.857	5241
2637.775	5381
2639.694	5241
2641.61	5233
2643.528	5272
2645.444	5184
2647.361	5291
2649.276	5310
2651.19	5313
2653.105	5216
2655.019	5360
2656.934	5313
2658.846	5212
2660.758	5300
2662.67	5272
2664.583	5331
2666.493	5242
2668.404	5255
2670.313	5265
2672.223	5268
2674.134	5269
2676.042	5272
2677.95	5261
2679.858	5290
2681.765	5242
2683.673	5265
2685.579	5217
2687.483	5172
2689.389	5314
2691.294	5227
2693.198	5247
2695.104	5160
2697.006	5253
2698.909	5216
2700.811	5255
2702.713	5236
2704.615	5242
2706.516	5255
2708.417	5308
2710.316	5229
2712.216	5183
2714.115	5191
2716.014	5224
2717.913	5284
2719.81	5222
2721.707	5215
2723.603	5214
2725.501	5242
2727.396	5240
2729.292	5168
2731.186	5262
2733.081	5246
2734.976	5254
2736.87	5365
2738.762	5229
2740.653	5157
2742.546	5250
2744.437	5185
2746.329	5223
2748.22	5164
2750.11	5226
2751.999	5168
2753.889	5181
2755.778	5140
2757.666	5229
2759.553	5213
2761.44	5071
2763.328	5239
2765.215	5232
2767.101	5219
2768.986	5186
2770.87	5176
2772.754	5236
2774.638	5253
2776.523	5117
2778.405	5199
2780.288	5275
2782.17	5161
2784.051	5125
2785.934	5184
2787.814	5124
2789.694	5155
2791.574	5158
2793.453	5112
2795.332	5144
2797.212	5177
2799.088	5233
2800.966	5195
2802.843	5033
2804.719	5233
2806.597	5244
2808.471	5142
2810.346	5190
2812.221	5197
2814.094	5182
2815.969	5192
2817.843	5213
2819.714	5207
2821.587	5183
2823.459	5230
2825.329	5085
2827.202	5226
2829.072	5188
2830.942	5191
2832.811	5153
2834.68	5192
2836.549	5293
2838.418	5295
2840.284	5213
2842.152	5263
2844.018	5265
2845.885	5287
2847.751	5225
2849.616	5394
2851.482	5358
2853.345	5324
2855.208	5406
2857.074	5398
2858.937	5354
2860.799	5379
2862.66	5392
2864.522	5384
2866.385	5342
2868.245	5498
2870.104	5444
2871.964	5358
2873.824	5461
2875.683	5468
2877.542	5479
2879.4	5580
2881.257	5496
2883.114	5613
2884.97	5574
2886.827	5619
2888.683	5716
2890.537	5616
2892.392	5678
2894.246	5647
2896.1	5630
2897.954	5644
2899.807	5572
2901.66	5591
2903.51	5701
2905.362	5544
2907.214	5626
2909.065	5590
2910.915	5689
2912.765	5659
2914.613	5565
2916.463	5625
2918.311	5658
2920.158	5735
2922.006	5620
2923.853	5791
2925.698	5874
2927.546	5810
2929.392	5697
2931.236	5694
2933.081	5833
2934.924	5861
2936.77	5818
2938.613	5770
2940.455	5870
2942.298	5960
2944.139	5897
2945.982	5996
2947.823	5938
2949.662	5882
2951.503	5941
2953.342	5831
2955.182	5794
2957.021	5908
2958.858	5890
2960.697	5888
2962.534	5919
2964.37	5851
2966.207	5755
2968.044	5743
2969.879	5554
2971.714	5569
2973.548	5624
2975.383	5656
2977.218	5446
2979.051	5538
2980.883	5439
2982.715	5376
2984.547	5299
2986.379	5406
2988.21	5347
2990.04	5298
2991.87	5239
2993.7	5291
2995.53	5266
2997.359	5228
2999.187	5240
3001.015	5171
3002.842	5232
3004.669	5163
3006.497	5039
3008.323	5234
3010.148	5172
3011.974	5094
3013.797	5071
3015.623	5154
3017.447	5064
3019.27	5113
3021.094	5139
3022.915	5121
3024.737	5084
3026.56	5042
3028.38	5113
3030.201	5024
3032.022	5047
3033.84	5005
3035.662	4947
3037.481	5171
3039.298	5018
3041.117	5016
3042.933	5141
3044.752	5056
3046.568	5088
3048.385	5063
3050.2	5065
3052.016	5008
3053.83	4942
3055.646	5011
3057.46	4938
3059.272	4950
3061.086	4998
3062.898	5055
3064.711	4987
3066.524	4983
3068.335	4918
3070.145	4972
3071.956	5032
3073.766	5049
3075.576	4912
3077.385	5042
3079.193	5008
3081.002	4926
3082.81	4844
3084.618	4950
3086.425	4986
3088.231	4914
3090.036	4994
3091.842	5035
3093.648	5057
3095.452	4948
3097.257	4849
3099.06	4810
3100.863	4875
3102.666	4920
3104.47	4997
3106.272	4895
3108.073	4952
3109.875	4889
3111.676	4958
3113.477	4847
3115.277	4841
3117.077	4884
3118.874	4871
3120.673	4902
3122.473	4869
3124.271	4896
3126.066	4828
3127.863	4813
3129.66	4885
3131.456	4849
3133.252	4771
3135.047	4821
3136.842	4847
3138.635	4903
3140.429	4954
3142.223	4791
3144.016	4822
3145.808	4801
3147.6	4866
3149.392	4800
3151.183	4896
3152.975	4936
3154.765	4823
3156.553	4790
3158.344	4807
3160.132	4780
3161.922	4864
3163.71	4757
3165.497	4828
3167.285	4798
3169.071	4712
3170.858	4819
3172.645	4773
3174.429	4845
3176.214	4731
3177.998	4760
3179.783	4766
3181.568	4812
3183.351	4769
3185.133	4825
3186.915	4868
3188.698	4806
3190.481	4805
3192.261	4738
3194.042	4917
3195.822	4826
3197.601	4789
3199.381	4821
3201.161	4770
3202.939	4730
3204.717	4735
3206.495	4845
3208.272	4781
3210.05	4717
3211.826	4760
3213.602	4785
3215.376	4721
3217.151	4761
3218.927	4841
3220.702	4727
3222.476	4679
3224.249	4771
3226.021	4745
3227.793	4693
3229.567	4684
3231.339	4689
3233.109	4700
3234.88	4728
3236.651	4768
3238.421	4768
3240.191	4740
3241.96	4778
3243.728	4722
3245.497	4689
3247.263	4758
3249.033	4810
3250.799	4666
3252.566	4798
3254.331	4692
3256.097	4757
3257.863	4717
3259.628	4773
3261.392	4823
3263.156	4786
3264.919	4725
3266.683	4758
3268.447	4695
3270.208	4736
3271.969	4731
3273.731	4701
3275.492	4794
3277.253	4753
3279.013	4741
3280.773	4699
3282.532	4779
3284.291	4680
3286.05	4789
3287.808	4703
3289.566	4832
3291.323	4854
3293.079	4824
3294.835	4737
3296.593	4717
3298.348	4744
3300.102	4780
3301.857	4758
3303.611	4749
3305.366	4724
3307.119	4667
3308.872	4657
3310.624	4803
3312.376	4720
3314.129	4605
3315.881	4762
3317.631	4660
3319.38	4699
3321.13	4699
3322.88	4725
3324.631	4651
3326.379	4658
3328.126	4800
3329.875	4782
3331.622	4747
3333.371	4791
3335.116	4799
3336.863	4687
3338.609	4741
3340.353	4638
3342.1	4602
3343.845	4807
3345.588	4734
3347.332	4837
3349.074	4750
3350.817	4747
3352.56	4863
3354.303	4777
3356.043	4654
3357.785	4614
3359.525	4629
3361.268	4665
3363.007	4710
3364.745	4719
3366.485	4610
3368.223	4746
3369.962	4679
3371.701	4755
3373.438	4702
3375.174	4670
3376.911	4723
3378.647	4690
3380.384	4673
3382.118	4727
3383.854	4646
3385.588	4611
3387.322	4717
3389.057	4662
3390.79	4700
3392.522	4698
3394.255	4658
3395.987	4641
3397.719	4683
3399.451	4681
3401.181	4676
3402.911	4787
3404.641	4739
3406.371	4611
3408.101	4646
3409.83	4654
3411.558	4643
3413.285	4635
3415.011	4646
3416.739	4721
3418.467	4571
3420.193	4629
3421.919	4571
3423.644	4623
3425.368	4669
3427.094	4647
3428.818	4616
3430.542	4671
3432.264	4548
3433.987	4625
3435.712	4659
3437.434	4637
3439.155	4622
3440.876	4599
3442.596	4627
3444.317	4586
3446.039	4606
3447.757	4616
3449.477	4641
3451.195	4553
3452.914	4654
3454.632	4624
3456.35	4615
3458.067	4527
3459.784	4550
3461.5	4619
3463.216	4608
3464.932	4613
3466.647	4597
3468.362	4579
3470.076	4579
3471.789	4542
3473.505	4620
3475.217	4573
3476.929	4477
3478.641	4542
3480.354	4484
3482.066	4479
3483.777	4487
3485.487	4520
3487.197	4539
3488.908	4461
3490.617	4501
3492.327	4496
3494.035	4490
3495.743	4534
3497.451	4486
3499.158	4543
3500.866	4489
3502.572	4469
3504.278	4463
3505.984	4566
3507.689	4447
3509.396	4404
3511.1	4480
3512.804	4408
3514.508	4486
3516.211	4396
3517.913	4538
3519.616	4464
3521.319	4525
3523.021	4525
3524.722	4425
3526.422	4511
3528.124	4549
3529.824	4519
3531.524	4403
3533.222	4484
3534.921	4500
3536.62	4415
3538.318	4462
3540.016	4463
3541.714	4453
3543.41	4472
3545.107	4441
3546.803	4438
3548.5	4447
3550.194	4445
3551.889	4369
3553.583	4456
3555.279	4397
3556.972	4380
3558.666	4346
3560.358	4509
3562.051	4475
3563.742	4413
3565.435	4481
3567.126	4434
3568.817	4413
3570.507	4426
3572.197	4359
3573.888	4383
3575.577	4357
3577.265	4346
3578.954	4419
3580.642	4445
3582.329	4399
3584.017	4461
3585.704	4398
3587.391	4335
3589.077	4403
3590.762	4339
3592.449	4376
3594.133	4375
3595.817	4438
3597.501	4422
3599.185	4418
3600.869	4444
3602.552	4361
3604.234	4386
3605.916	4401
3607.598	4420
3609.279	4297
3610.961	4327
3612.642	4397
3614.321	4346
3616	4321
3617.68	4393
3619.36	4396
3621.039	4309
3622.716	4285
3624.394	4309
3626.071	4344
3627.748	4376
3629.425	4338
3631.102	4272
3632.778	4326
3634.452	4179
3636.127	4331
3637.803	4432
3639.477	4404
3641.151	4230
3642.823	4306
3644.497	4338
3646.171	4241
3647.842	4260
3649.515	4360
3651.185	4312
3652.857	4232
3654.527	4249
3656.198	4304
3657.868	4326
3659.537	4324
3661.207	4287
3662.875	4239
3664.544	4218
3666.212	4323
3667.879	4315
3669.546	4347
3671.212	4299
3672.88	4281
3674.546	4305
3676.211	4384
3677.875	4329
3679.541	4272
3681.205	4288
3682.87	4295
3684.533	4204
3686.196	4233
3687.859	4309
3689.521	4344
3691.184	4223
3692.845	4222
3694.507	4290
3696.167	4299
3697.827	4323
3699.487	4206
3701.148	4286
3702.808	4258
3704.466	4348
3706.125	4314
3707.783	4250
3709.442	4234
3711.099	4308
3712.757	4261
3714.412	4241
3716.068	4231
3717.725	4221
3719.381	4254
3721.036	4324
3722.689	4249
3724.344	4278
3725.998	4226
3727.652	4207
3729.305	4389
3730.958	4247
3732.61	4257
3734.262	4327
3735.915	4301
3737.565	4335
3739.217	4185
3740.866	4263
3742.516	4307
3744.165	4375
3745.816	4216
3747.464	4188
3749.113	4230
3750.761	4136
3752.409	4290
3754.057	4284
3755.703	4231
3757.35	4266
3758.996	4231
3760.641	4215
3762.289	4283
3763.933	4205
3765.577	4371
3767.222	4148
3768.865	4233
3770.508	4228
3772.152	4239
3773.796	4220
3775.438	4229
3777.079	4227
3778.721	4309
3780.363	4243
3782.003	4170
3783.643	4223
3785.283	4096
3786.923	4204
3788.563	4217
3790.203	4203
3791.841	4111
3793.479	4190
3795.115	4249
3796.753	4255
3798.391	4143
3800.027	4114
3801.664	4234
3803.299	4282
3804.935	4144
3806.571	4161
3808.206	4196
3809.839	4230
3811.473	4222
3813.107	4174
3814.74	4247
3816.375	4233
3818.006	4220
3819.638	4078
3821.27	4126
3822.9	4155
3824.532	4183
3826.163	4158
3827.792	4199
3829.423	4065
3831.051	4176
3832.682	4163
3834.311	4152
3835.938	4170
3837.566	4190
3839.193	4141
3840.821	4104
3842.448	4242
3844.075	4117
3845.7	4157
3847.325	4066
3848.951	4151
3850.576	4131
3852.201	4167
3853.825	4085
3855.448	4241
3857.072	4146
3858.694	4149
3860.318	4125
3861.939	4124
3863.562	4145
3865.183	4124
3866.804	4120
3868.426	4227
3870.045	4118
3871.666	4113
3873.285	4158
3874.904	4110
3876.524	4133
3878.142	4161
3879.76	4123
3881.378	4117
3882.995	4188
3884.612	4175
3886.229	4114
3887.845	4065
3889.461	4140
3891.076	4127
3892.691	4159
3894.307	4105
3895.922	4080
3897.536	4135
3899.149	4177
3900.761	4098
3902.374	4123
3903.988	4163
3905.6	4056
3907.212	4141
3908.822	4071
3910.433	4180
3912.045	4146
3913.655	4155
3915.265	4099
3916.875	4120
3918.483	3984
3920.093	4099
3921.702	4179
3923.309	4087
3924.917	4219
3926.523	4142
3928.13	4121
3929.739	4130
3931.344	4043
3932.95	4147
3934.555	4160
3936.159	4123
3937.766	4090
3939.369	4092
3940.974	4110
3942.577	4259
3944.181	4086
3945.783	4120
3947.386	3999
3948.989	4150
3950.59	4187
3952.191	4074
3953.791	4076
3955.394	4123
3956.994	4105
3958.593	4050
3960.192	4076
3961.791	4044
3963.392	4161
3964.99	4071
3966.588	4040
3968.185	4157
3969.782	4006
3971.379	4077
3972.976	4043
3974.572	4041
3976.168	4023
3977.763	4040
3979.358	4100
3980.954	4013
3982.548	4150
3984.142	4008
3985.736	3982
3987.329	4006
3988.922	4040
3990.516	4042
3992.108	4030
3993.698	4110
3995.29	3965
3996.881	4080
3998.473	3952
4000.064	3974
4001.653	4104
4003.242	4049
4004.832	3999
4006.422	4024
4008.01	3984
4009.598	4070
4011.186	4057
4012.773	4046
4014.36	4014
4015.947	4033
4017.534	4025
4019.119	3943
4020.705	3980
4022.291	4043
4023.876	3986
4025.461	3977
4027.044	4064
4028.627	4046
4030.211	3953
4031.795	3978
4033.378	3954
4034.96	3968
4036.542	3992
4038.124	3923
4039.704	3968
4041.286	3927
4042.867	3913
4044.447	3945
4046.026	3944
4047.606	3848
4049.187	3969
4050.765	3927
4052.343	3987
4053.92	3980
4055.498	3956
4057.076	3899
4058.654	3948
4060.23	3971
4061.806	3985
4063.381	4021
4064.957	3931
4066.533	3886
4068.107	4004
4069.682	4045
4071.256	3918
4072.829	4069
4074.404	4028
4075.977	3884
4077.549	3956
4079.121	3921
4080.693	3865
4082.265	3924
4083.836	3897
4085.407	3992
4086.977	3919
4088.547	3902
4090.117	3932
4091.687	3884
4093.256	3931
4094.825	3886
4096.392	3913
4097.96	3902
4099.528	3958
4101.097	3979
4102.663	3955
4104.229	3929
4105.795	3977
4107.361	3980
4108.928	4005
4110.493	3953
4112.058	3961
4113.621	3870
4115.186	3968
4116.75	3863
4118.313	3916
4119.876	3974
4121.438	3970
4123	4025
4124.562	3902
4126.125	4004
4127.686	3790
4129.246	3870
4130.807	3900
4132.367	3910
4133.927	3914
4135.486	3916
4137.046	3857
4138.604	3921
4140.162	3854
4141.72	3870
4143.279	3873
4144.836	3901
4146.393	3865
4147.949	3888
4149.505	3870
4151.062	3802
4152.617	3875
4154.172	3882
4155.727	3902
4157.281	3951
4158.836	3746
4160.39	3925
4161.943	3886
4163.496	3930
4165.048	3873
4166.601	3805
4168.154	3827
4169.706	3878
4171.257	3861
4172.808	3843
4174.358	3904
4175.909	3787
4177.458	3840
4179.008	3725
4180.558	3859
4182.106	3827
4183.655	3760
4185.204	3797
4186.751	3779
4188.298	3867
4189.845	3762
4191.392	3849
4192.939	3846
4194.485	3822
4196.031	3817
4197.576	3878
4199.121	3795
4200.666	3763
4202.211	3792
4203.754	3830
4205.298	3843
4206.84	3840
4208.384	3809
4209.927	3751
4211.47	3827
4213.011	3894
4214.552	3773
4216.094	3865
4217.635	3871
4219.175	3820
4220.716	3863
4222.255	3920
4223.793	3820
4225.335	3807
4226.873	3720
4228.411	3862
4229.948	3756
4231.486	3829
4233.024	3827
4234.562	3863
4236.098	3828
4237.634	3913
4239.169	3796
4240.705	3795
4242.241	3894
4243.776	3775
4245.31	3893
4246.844	3808
4248.378	3839
4249.911	3774
4251.445	3843
4252.978	3792
4254.51	3823
4256.042	3808
4257.574	3866
4259.107	3827
4260.638	3764
4262.169	3924
4263.699	3785
4265.228	3820
4266.759	3795
4268.289	3802
4269.818	3796
4271.345	3685
4272.874	3786
4274.402	3851
4275.931	3775
4277.458	3704
4278.985	3826
4280.512	3751
4282.037	3766
4283.564	3796
4285.089	3767
4286.615	3862
4288.139	3788
4289.664	3783
4291.187	3762
4292.712	3816
4294.235	3862
4295.759	3739
4297.281	3763
4298.804	3795
4300.327	3763
4301.849	3812
4303.37	3767
4304.891	3780
4306.412	3736
4307.933	3683
4309.453	3862
4310.973	3709
4312.492	3794
