398.1873	7510
400.7097	7554
403.2336	7522
405.7547	7574
408.2751	7528
410.7948	7606
413.3138	7683
415.83	7666
418.3497	7798
420.8666	7722
423.3829	7960
425.8985	7910
428.4133	7883
430.9275	7879
433.441	7906
435.9538	8164
438.4639	7930
440.9753	8054
443.4881	7933
445.9982	8145
448.5055	7969
451.0142	7995
453.5201	7950
456.0274	8079
458.5361	8092
461.04	8205
463.5453	8168
466.0478	8043
468.5517	8067
471.0549	8088
473.5574	8141
476.0572	8023
478.5584	8189
481.0568	8190
483.5545	8168
486.0557	8303
488.5521	8258
491.0478	8311
493.5449	8332
496.0392	8380
498.5349	8438
501.0299	8456
503.5222	8530
506.0139	8449
508.5048	8418
510.9991	8438
513.4887	8388
515.9777	8508
518.4659	8483
520.9534	8449
523.4403	8390
525.9306	8550
528.4161	8365
530.9009	8375
533.3851	8471
535.8687	8441
538.3535	8503
540.8356	8329
543.3171	8469
545.7979	8363
548.278	8567
550.7595	8546
553.2383	8563
555.7144	8461
558.1918	8440
560.6685	8571
563.1446	8596
565.6221	8573
568.0968	8544
570.5688	8690
573.0422	8738
575.515	8652
577.989	8764
580.4584	8742
582.9291	8863
585.3991	8711
587.8685	8882
590.3352	8813
592.8052	8900
595.2706	8784
597.7372	8828
600.2033	8804
602.6666	8742
605.1334	8671
607.5953	8773
610.0587	8916
612.5193	8747
614.9814	8742
617.4427	8652
619.9034	8688
622.3615	8668
624.8208	8805
627.2775	8768
629.7335	8789
632.1929	8719
634.6476	8787
637.1016	8883
639.5569	8779
642.0096	8728
644.4637	8842
646.9151	8858
649.3678	8937
651.8179	8897
654.2672	8913
656.7159	8893
659.166	8875
661.6154	8770
664.0622	8919
666.5082	8993
668.9537	8897
671.4005	8922
673.8445	8987
676.288	9021
678.7308	8882
681.1729	9026
683.6163	9210
686.0572	9171
688.4973	9073
690.9368	9174
693.3757	8984
695.8138	9028
698.2534	9075
700.6902	9189
703.1245	9235
705.56	9116
707.9949	9222
710.4311	9139
712.8647	9245
715.2957	9121
717.7279	9244
720.1595	9169
722.5905	9359
725.0208	9391
727.4505	9264
729.8795	9375
732.3058	9426
734.7336	9361
737.1626	9422
739.587	9531
742.0128	9517
744.4359	9428
746.8604	9513
749.2841	9664
751.7073	9637
754.1278	9672
756.5496	9576
758.9688	9697
761.3893	9603
763.8093	9688
766.2285	9653
768.6451	9753
771.0611	9712
773.4784	9766
775.895	9608
778.3091	9680
780.7244	9889
783.1371	9702
785.5493	9699
787.9626	9811
790.3754	9721
792.7856	9733
795.1951	9815
797.6039	9827
800.0121	9798
802.4236	9839
804.8306	9848
807.2369	9678
809.6425	9927
812.0475	9898
814.4538	9845
816.8575	9874
819.2606	9925
821.663	9910
824.0648	10009
826.4659	9879
828.8683	9785
831.2682	10046
833.6674	9805
836.066	9939
838.4639	9854
840.8632	9882
843.2579	9913
845.6539	10032
848.0493	10005
850.444	10030
852.84	10088
855.2315	10047
857.6243	10144
860.0165	9942
862.4081	10054
864.797	9983
867.1892	9883
869.5789	9983
871.9659	10010
874.3542	9876
876.74	9862
879.129	9956
881.5155	9991
883.8994	10093
886.2845	10108
888.6671	10088
891.051	9927
893.4343	9998
895.8169	10080
898.197	10004
900.5783	9998
902.9571	10007
905.3372	9986
907.7167	9895
910.0936	10006
912.4698	10085
914.8474	10186
917.2244	10359
919.5987	10056
921.9744	10292
924.3475	10318
926.72	10341
929.0918	10296
931.4669	10395
933.8375	10382
936.2074	10390
938.5767	10552
940.9454	10554
943.3154	10583
945.6829	11047
948.0497	11030
950.4178	11310
952.7833	11352
955.1483	11507
957.5145	11806
959.8782	11870
962.2412	11994
964.6036	11743
966.9655	11526
969.3266	11094
971.6871	10884
974.0471	10772
976.4064	10484
978.765	10391
981.125	10462
983.4824	10381
985.8373	10459
988.1935	10315
990.549	10355
992.9039	10179
995.2602	10498
997.6119	10237
999.965	10384
1002.317	10304
1004.667	10314
1007.02	10385
1009.371	10233
1011.719	10389
1014.068	10234
1016.415	10362
1018.765	10476
1021.111	10609
1023.458	10486
1025.804	10416
1028.147	10476
1030.49	10454
1032.837	10403
1035.179	10517
1037.522	10484
1039.862	10540
1042.204	10647
1044.546	10554
1046.884	10553
1049.224	10556
1051.562	10615
1053.899	10641
1056.237	10708
1058.575	10528
1060.91	10647
1063.244	10652
1065.58	10835
1067.913	10798
1070.248	10634
1072.579	10744
1074.911	10765
1077.242	10647
1079.572	10580
1081.905	10628
1084.234	10540
1086.562	10587
1088.89	10461
1091.217	10481
1093.544	10615
1095.871	10665
1098.197	10693
1100.521	10567
1102.845	10615
1105.169	10700
1107.491	10696
1109.814	10676
1112.135	10490
1114.456	10578
1116.776	10597
1119.096	10648
1121.415	10562
1123.734	10667
1126.052	10681
1128.369	10692
1130.686	10691
1133.002	10711
1135.318	10638
1137.632	10791
1139.945	10639
1142.258	10602
1144.573	10664
1146.884	10582
1149.196	10618
1151.505	10706
1153.816	10709
1156.124	10652
1158.435	10614
1160.742	10715
1163.051	10607
1165.356	10682
1167.663	10588
1169.97	10699
1172.276	10671
1174.579	10545
1176.881	10489
1179.186	10600
1181.487	10759
1183.79	10641
1186.092	10672
1188.392	10700
1190.691	10700
1192.991	10700
1195.291	10643
1197.588	10702
1199.885	10534
1202.181	10551
1204.479	10669
1206.775	10607
1209.07	10556
1211.363	10529
1213.656	10703
1215.949	10742
1218.241	10704
1220.534	10732
1222.825	10823
1225.115	10966
1227.405	10866
1229.693	10819
1231.984	10943
1234.271	10915
1236.558	10877
1238.845	10958
1241.131	10979
1243.416	10996
1245.703	11070
1247.987	11022
1250.269	11092
1252.552	11063
1254.834	10846
1257.118	11062
1259.399	11003
1261.678	10910
1263.958	11032
1266.237	10982
1268.516	11081
1270.794	11001
1273.072	11226
1275.347	10986
1277.624	10890
1279.899	11085
1282.175	10874
1284.449	10990
1286.722	11077
1288.995	10876
1291.266	10735
1293.54	10911
1295.81	11077
1298.081	10741
1300.35	11005
1302.62	10921
1304.889	10975
1307.156	10886
1309.425	10870
1311.69	10855
1313.957	10971
1316.222	10878
1318.488	10923
1320.751	10838
1323.016	10978
1325.278	10847
1327.54	10848
1329.803	10938
1332.065	10840
1334.325	10805
1336.584	10937
1338.843	11049
1341.101	10865
1343.36	11088
1345.617	10904
1347.876	11113
1350.131	11056
1352.387	10942
1354.643	10867
1356.897	10934
1359.151	11053
1361.403	10973
1363.656	10679
1365.909	10991
1368.16	10905
1370.409	10945
1372.659	11121
1374.909	11061
1377.157	10895
1379.407	11104
1381.655	10940
1383.9	11189
1386.147	10894
1388.393	11064
1390.64	10962
1392.885	11178
1395.127	11174
1397.37	10933
1399.614	11092
1401.854	11193
1404.098	11123
1406.339	11032
1408.578	11105
1410.818	11066
1413.056	11184
1415.297	11282
1417.533	11180
1419.771	11177
1422.006	11181
1424.243	11155
1426.479	11069
1428.715	11305
1430.948	11392
1433.182	11238
1435.414	11256
1437.647	11350
1439.88	11324
1442.11	11271
1444.342	11340
1446.571	11318
1448.799	11380
1451.029	11332
1453.258	11396
1455.485	11553
1457.711	11398
1459.937	11246
1462.164	11318
1464.39	11340
1466.614	11354
1468.838	11384
1471.06	11260
1473.283	11271
1475.506	11244
1477.727	11184
1479.949	11223
1482.169	11335
1484.389	11106
1486.609	11175
1488.828	11147
1491.045	11170
1493.261	10907
1495.477	11075
1497.693	11074
1499.91	11089
1502.125	11039
1504.339	11060
1506.553	11050
1508.766	11043
1510.979	10970
1513.191	11143
1515.402	11161
1517.613	10913
1519.823	11171
1522.033	11101
1524.242	10988
1526.451	10969
1528.657	11051
1530.865	11049
1533.072	11010
1535.278	11092
1537.484	11034
1539.687	11019
1541.892	11234
1544.096	11115
1546.299	11036
1548.502	11133
1550.703	11277
1552.905	11104
1555.104	11145
1557.303	11167
1559.505	11080
1561.703	11283
1563.902	11241
1566.099	11136
1568.295	11367
1570.494	11258
1572.689	11272
1574.883	11363
1577.079	11185
1579.272	11387
1581.467	11462
1583.659	11332
1585.853	11332
1588.044	11247
1590.234	11331
1592.424	11310
1594.615	11505
1596.806	11236
1598.994	11432
1601.182	11415
1603.369	11629
1605.557	11429
1607.744	11436
1609.929	11524
1612.114	11480
1614.298	11500
1616.482	11480
1618.667	11454
1620.85	11458
1623.032	11517
1625.214	11398
1627.395	11403
1629.575	11389
1631.755	11543
1633.935	11598
1636.114	11498
1638.292	11385
1640.471	11465
1642.647	11519
1644.823	11372
1647	11415
1649.175	11347
1651.348	11602
1653.525	11561
1655.698	11618
1657.87	11610
1660.043	11527
1662.213	11517
1664.387	11561
1666.558	11582
1668.727	11535
1670.896	11554
1673.064	11543
1675.233	11665
1677.401	11680
1679.569	11543
1681.735	11550
1683.902	11583
1686.066	11486
1688.233	11518
1690.397	11605
1692.559	11501
1694.723	11297
1696.885	11633
1699.048	11529
1701.21	11340
1703.37	11396
1705.53	11511
1707.689	11473
1709.849	11495
1712.009	11494
1714.166	11415
1716.323	11385
1718.479	11519
1720.634	11475
1722.793	11418
1724.948	11438
1727.102	11391
1729.255	11352
1731.408	11271
1733.562	11456
1735.714	11366
1737.865	11558
1740.016	11374
1742.166	11422
1744.316	11331
1746.467	11555
1748.616	11533
1750.764	11368
1752.911	11483
1755.056	11436
1757.205	11453
1759.35	11417
1761.496	11651
1763.641	11419
1765.785	11363
1767.927	11570
1770.072	11582
1772.214	11576
1774.355	11643
1776.496	11549
1778.637	11619
1780.778	11430
1782.918	11667
1785.057	11560
1787.194	11485
1789.333	11629
1791.472	11555
1793.608	11596
1795.745	11698
1797.879	11564
1800.015	11549
1802.148	11530
1804.284	11665
1806.417	11585
1808.548	11532
1810.682	11611
1812.812	11727
1814.946	11546
1817.075	11499
1819.205	11439
1821.335	11355
1823.463	11532
1825.59	11511
1827.721	11498
1829.847	11492
1831.973	11548
1834.098	11481
1836.223	11389
1838.351	11569
1840.475	11495
1842.598	11450
1844.721	11470
1846.843	11366
1848.966	11552
1851.087	11404
1853.21	11372
1855.33	11427
1857.449	11451
1859.568	11538
1861.688	11581
1863.806	11418
1865.924	11529
1868.039	11469
1870.155	11522
1872.273	11537
1874.388	11503
1876.503	11554
1878.617	11354
1880.73	11536
1882.844	11412
1884.956	11500
1887.068	11410
1889.18	11480
1891.291	11521
1893.4	11507
1895.511	11448
1897.621	11586
1899.73	11548
1901.837	11442
1903.944	11617
1906.053	11650
1908.159	11548
1910.265	11486
1912.369	11684
1914.474	11605
1916.577	11627
1918.683	11672
1920.785	11656
1922.888	11629
1924.989	11633
1927.091	11662
1929.193	11683
1931.294	11551
1933.393	11547
1935.493	11452
1937.59	11865
1939.689	11801
1941.788	11661
1943.884	11639
1945.98	11706
1948.077	11543
1950.171	11687
1952.267	11487
1954.361	11603
1956.455	11683
1958.548	11527
1960.64	11694
1962.733	11582
1964.824	11708
1966.915	11792
1969.005	11675
1971.096	11681
1973.185	11705
1975.275	11591
1977.363	11578
1979.45	11620
1981.537	11714
1983.623	11491
1985.711	11516
1987.796	11513
1989.881	11437
1991.965	11604
1994.047	11406
1996.132	11493
1998.215	11602
2000.297	11415
2002.378	11541
2004.46	11503
2006.54	11460
2008.62	11675
2010.7	11432
2012.779	11460
2014.858	11447
2016.934	11461
2019.013	11379
2021.09	11545
2023.165	11610
2025.241	11472
2027.317	11625
2029.39	11494
2031.466	11500
2033.538	11549
2035.612	11561
2037.683	11397
2039.755	11503
2041.827	11425
2043.898	11795
2045.968	11619
2048.038	11558
2050.106	11442
2052.177	11575
2054.244	11567
2056.313	11598
2058.379	11565
2060.444	11541
2062.511	11434
2064.577	11474
2066.641	11587
2068.705	11613
2070.77	11453
2072.832	11591
2074.896	11593
2076.958	11330
2079.02	11523
2081.081	11471
2083.141	11617
2085.2	11642
2087.261	11662
2089.319	11631
2091.377	11602
2093.435	11609
2095.492	11613
2097.552	11552
2099.607	11563
2101.663	11541
2103.718	11537
2105.771	11479
2107.826	11643
2109.879	11367
2111.932	11508
2113.985	11506
2116.037	11697
2118.088	11490
2120.141	11599
2122.191	11505
2124.239	11485
2126.288	11451
2128.337	11499
2130.387	11521
2132.434	11527
2134.481	11469
2136.528	11488
2138.574	11535
2140.618	11442
2142.665	11303
2144.71	11460
2146.753	11576
2148.797	11448
2150.838	11607
2152.883	11470
2154.923	11491
2156.965	11660
2159.007	11523
2161.046	11385
2163.086	11519
2165.126	11318
2167.163	11340
2169.202	11470
2171.239	11423
2173.277	11467
2175.314	11335
2177.349	11496
2179.385	11551
2181.42	11402
2183.453	11314
2185.49	11358
2187.522	11402
2189.555	11393
2191.586	11288
2193.619	11349
2195.651	11143
2197.682	11336
2199.711	11128
2201.74	11347
2203.769	11316
2205.799	11142
2207.828	11427
2209.855	11329
2211.882	11127
2213.908	11280
2215.934	11200
2217.961	11243
2219.986	11318
2222.01	11313
2224.034	11184
2226.057	11176
2228.08	11254
2230.104	11236
2232.124	11334
2234.145	11218
2236.166	11127
2238.186	11214
2240.207	11209
2242.227	11342
2244.244	11167
2246.262	11112
2248.28	11078
2250.299	11176
2252.314	11074
2254.33	11111
2256.346	11228
2258.36	11311
2260.375	11259
2262.391	11168
2264.403	11322
2266.416	11270
2268.427	11234
2270.44	11122
2272.453	11346
2274.463	11224
2276.474	11141
2278.483	11178
2280.493	11437
2282.501	11187
2284.51	11040
2286.518	11209
2288.524	11088
2290.532	11304
2292.537	11267
2294.544	11157
2296.55	11346
2298.554	11132
2300.557	11197
2302.562	11209
2304.566	11254
2306.568	11098
2308.569	11059
2310.572	11317
2312.573	11158
2314.573	11135
2316.574	11029
2318.573	11106
2320.571	11055
2322.571	11171
2324.569	11104
2326.567	11155
2328.564	11068
2330.56	11010
2332.556	11078
2334.551	11106
2336.546	11188
2338.542	11111
2340.535	11099
2342.529	10887
2344.521	11082
2346.512	10969
2348.505	10913
2350.497	11005
2352.487	10941
2354.478	11040
2356.468	10871
2358.457	10995
2360.446	10934
2362.434	10928
2364.422	11032
2366.408	10863
2368.395	10956
2370.383	11082
2372.369	10771
2374.353	10969
2376.338	10919
2378.321	11001
2380.307	11025
2382.29	10935
2384.272	10963
2386.254	10856
2388.235	10942
2390.218	10940
2392.198	10708
2394.179	10826
2396.157	10805
2398.137	10860
2400.115	10868
2402.095	10673
2404.072	10879
2406.048	10712
2408.026	10785
2410.001	10747
2411.977	10850
2413.953	10752
2415.927	10707
2417.9	10940
2419.875	10819
2421.847	10839
2423.821	10806
2425.792	10741
2427.763	10889
2429.736	10710
2431.706	10846
2433.677	10801
2435.646	10730
2437.615	10921
2439.583	10853
2441.551	10922
2443.519	10906
2445.486	10797
2447.452	10676
2449.418	10868
2451.383	10764
2453.348	10683
2455.314	10786
2457.278	10830
2459.241	10806
2461.205	10827
2463.167	10759
2465.131	10714
2467.091	10533
2469.052	10735
2471.012	10742
2472.972	10760
2474.932	10745
2476.891	10611
2478.85	10798
2480.808	10705
2482.766	10649
2484.722	10613
2486.68	10718
2488.636	10672
2490.591	10676
2492.546	10767
2494.5	10671
2496.456	10561
2498.41	10718
2500.362	10651
2502.315	10563
2504.266	10597
2506.218	10575
2508.169	10657
2510.121	10626
2512.07	10647
2514.019	10604
2515.968	10597
2517.918	10565
2519.866	10766
2521.813	10617
2523.76	10593
2525.707	10544
2527.653	10623
2529.599	10605
2531.543	10673
2533.489	10580
2535.433	10713
2537.376	10569
2539.32	10527
2541.264	10538
2543.205	10637
2545.147	10430
2547.087	10537
2549.029	10579
2550.969	10468
2552.908	10457
2554.847	10631
2556.786	10633
2558.724	10547
2560.663	10431
2562.6	10683
2564.537	10624
2566.473	10567
2568.408	10625
2570.345	10415
2572.28	10556
2574.214	10518
2576.148	10480
2578.081	10524
2580.014	10530
2581.947	10602
2583.879	10534
2585.81	10452
2587.741	10657
2589.67	10477
2591.602	10547
2593.532	10636
2595.461	10505
2597.388	10614
2599.316	10732
2601.244	10506
2603.172	10645
2605.098	10603
2607.023	10543
2608.949	10460
2610.873	10646
2612.8	10578
2614.723	10666
2616.647	10613
2618.569	10517
2620.493	10591
2622.416	10521
2624.338	10537
2626.258	10585
2628.179	10649
2630.099	10719
2632.019	10602
2633.939	10641
2635.857	10592
2637.775	10646
2639.694	10566
2641.61	10667
2643.528	10670
2645.444	10696
2647.361	10567
2649.276	10710
2651.19	10568
2653.105	10536
2655.019	10592
2656.934	10627
2658.846	10556
2660.758	10626
2662.67	10424
2664.583	10568
2666.493	10580
2668.404	10598
2670.313	10402
2672.223	10511
2674.134	10478
2676.042	10577
2677.95	10508
2679.858	10554
2681.765	10254
2683.673	10569
2685.579	10313
2687.483	10402
2689.389	10511
2691.294	10382
2693.198	10355
2695.104	10450
2697.006	10463
2698.909	10465
2700.811	10410
2702.713	10475
2704.615	10528
2706.516	10266
2708.417	10372
2710.316	10475
2712.216	10323
2714.115	10470
2716.014	10320
2717.913	10522
2719.81	10365
2721.707	10415
2723.603	10349
2725.501	10384
2727.396	10358
2729.292	10363
2731.186	10258
2733.081	10385
2734.976	10262
2736.87	10332
2738.762	10376
2740.653	10268
2742.546	10301
2744.437	10407
2746.329	10337
2748.22	10381
2750.11	10374
2751.999	10300
2753.889	10269
2755.778	10435
2757.666	10260
2759.553	10411
2761.44	10381
2763.328	10456
2765.215	10337
2767.101	10184
2768.986	10304
2770.87	10211
2772.754	10312
2774.638	10360
2776.523	10170
2778.405	10220
2780.288	10252
2782.17	10367
2784.051	10071
2785.934	10328
2787.814	10234
2789.694	10228
2791.574	10225
2793.453	10240
2795.332	10359
2797.212	10143
2799.088	10216
2800.966	10246
2802.843	10097
2804.719	10286
2806.597	10281
2808.471	10000
2810.346	10253
2812.221	10142
2814.094	10360
2815.969	10164
2817.843	10122
2819.714	10179
2821.587	10045
2823.459	10159
2825.329	10123
2827.202	10294
2829.072	10021
2830.942	9959
2832.811	10367
2834.68	9991
2836.549	10109
2838.418	10149
2840.284	10078
2842.152	10100
2844.018	10183
2845.885	10177
2847.751	10219
2849.616	10190
2851.482	10091
2853.345	10251
2855.208	10279
2857.074	10284
2858.937	10216
2860.799	10135
2862.66	10342
2864.522	10361
2866.385	10335
2868.245	10383
2870.104	10499
2871.964	10433
2873.824	10535
2875.683	10606
2877.542	10550
2879.4	10580
2881.257	10454
2883.114	10656
2884.97	10573
2886.827	10446
2888.683	10517
2890.537	10681
2892.392	10631
2894.246	10486
2896.1	10535
2897.954	10651
2899.807	10558
2901.66	10527
2903.51	10485
2905.362	10448
2907.214	10543
2909.065	10439
2910.915	10576
2912.765	10579
2914.613	10626
2916.463	10743
2918.311	10674
2920.158	10759
2922.006	10919
2923.853	10845
2925.698	10993
2927.546	11070
2929.392	11014
2931.236	11105
2933.081	11128
2934.924	11092
2936.77	11122
2938.613	11117
2940.455	11407
2942.298	11369
2944.139	11287
2945.982	11227
2947.823	11333
2949.662	11269
2951.503	11311
2953.342	10990
2955.182	11188
2957.021	10967
2958.858	11047
2960.697	10918
2962.534	10823
2964.37	10791
2966.207	10741
2968.044	10720
2969.879	10586
2971.714	10525
2973.548	10470
2975.383	10595
2977.218	10440
2979.051	10453
2980.883	10541
2982.715	10513
2984.547	10466
2986.379	10489
2988.21	10403
2990.04	10429
2991.87	10450
2993.7	10354
2995.53	10229
2997.359	10295
2999.187	10131
3001.015	10347
3002.842	10045
3004.669	10065
3006.497	9963
3008.323	9957
3010.148	9924
3011.974	9782
3013.797	9931
3015.623	9859
3017.447	9955
3019.27	9857
3021.094	9906
3022.915	9739
3024.737	9803
3026.56	9696
3028.38	9645
3030.201	9740
3032.022	9904
3033.84	9649
3035.662	9595
3037.481	9704
3039.298	9626
3041.117	9687
3042.933	9557
3044.752	9639
3046.568	9544
3048.385	9622
3050.2	9552
3052.016	9597
3053.83	9529
3055.646	9658
3057.46	9561
3059.272	9678
3061.086	9591
3062.898	9635
3064.711	9490
3066.524	9539
3068.335	9552
3070.145	9656
3071.956	9669
3073.766	9493
3075.576	9537
3077.385	9442
3079.193	9507
3081.002	9451
3082.81	9286
3084.618	9471
3086.425	9294
3088.231	9524
3090.036	9337
3091.842	9308
3093.648	9387
3095.452	9500
3097.257	9422
3099.06	9303
3100.863	9162
3102.666	9399
3104.47	9339
3106.272	9274
3108.073	9258
3109.875	9219
3111.676	9312
3113.477	9182
3115.277	9348
3117.077	9182
3118.874	9147
3120.673	9219
3122.473	9133
3124.271	9098
3126.066	9043
3127.863	9172
3129.66	9124
3131.456	9040
3133.252	9147
3135.047	9199
3136.842	9105
3138.635	9123
3140.429	9093
3142.223	9174
3144.016	9077
3145.808	9091
3147.6	9028
3149.392	9108
3151.183	9053
3152.975	9056
3154.765	8950
3156.553	8986
3158.344	9034
3160.132	9021
3161.922	8953
3163.71	9014
3165.497	9019
3167.285	8979
3169.071	9093
3170.858	9075
3172.645	9017
3174.429	8929
3176.214	8932
3177.998	9004
3179.783	8800
3181.568	8941
3183.351	9030
3185.133	8952
3186.915	9022
3188.698	8920
3190.481	8929
3192.261	8928
3194.042	8834
3195.822	8673
3197.601	8889
3199.381	8905
3201.161	8844
3202.939	8884
3204.717	8738
3206.495	8869
3208.272	8887
3210.05	8880
3211.826	8930
3213.602	8911
3215.376	8916
3217.151	8846
3218.927	8864
3220.702	8757
3222.476	8849
3224.249	8812
3226.021	8898
3227.793	8855
3229.567	8845
3231.339	8827
3233.109	8850
3234.88	8856
3236.651	8912
3238.421	8721
3240.191	8808
3241.96	8843
3243.728	8878
3245.497	8734
3247.263	8770
3249.033	8764
3250.799	8665
3252.566	8750
3254.331	8848
3256.097	8809
3257.863	8662
3259.628	8842
3261.392	8867
3263.156	8851
3264.919	8762
3266.683	8779
3268.447	8776
3270.208	8598
3271.969	8733
3273.731	8678
3275.492	8719
3277.253	8807
3279.013	8653
3280.773	8754
3282.532	8693
3284.291	8887
3286.05	8751
3287.808	8705
3289.566	8757
3291.323	8678
3293.079	8780
3294.835	8795
3296.593	8823
3298.348	8716
3300.102	8709
3301.857	8733
3303.611	8904
3305.366	8713
3307.119	8674
3308.872	8684
3310.624	8808
3312.376	8719
3314.129	8802
3315.881	8742
3317.631	8760
3319.38	8730
3321.13	8525
3322.88	8710
3324.631	8604
3326.379	8621
3328.126	8788
3329.875	8610
3331.622	8729
3333.371	8709
3335.116	8721
3336.863	8617
3338.609	8661
3340.353	8682
3342.1	8601
3343.845	8592
3345.588	8661
3347.332	8555
3349.074	8517
3350.817	8662
3352.56	8625
3354.303	8652
3356.043	8607
3357.785	8574
3359.525	8469
3361.268	8556
3363.007	8512
3364.745	8511
3366.485	8519
3368.223	8484
3369.962	8484
3371.701	8535
3373.438	8429
3375.174	8569
3376.911	8433
3378.647	8560
3380.384	8497
3382.118	8426
3383.854	8424
3385.588	8380
3387.322	8578
3389.057	8422
3390.79	8468
3392.522	8452
3394.255	8419
3395.987	8420
3397.719	8404
3399.451	8379
3401.181	8405
3402.911	8238
3404.641	8443
3406.371	8332
3408.101	8455
3409.83	8339
3411.558	8348
3413.285	8418
3415.011	8424
3416.739	8309
3418.467	8213
3420.193	8376
3421.919	8264
3423.644	8249
3425.368	8312
3427.094	8176
3428.818	8373
3430.542	8290
3432.264	8341
3433.987	8335
3435.712	8221
3437.434	8225
3439.155	8215
3440.876	8376
3442.596	8130
3444.317	8187
3446.039	8217
3447.757	8254
3449.477	8257
3451.195	8170
3452.914	8181
3454.632	8137
3456.35	8178
3458.067	8128
3459.784	8041
3461.5	8169
3463.216	8106
3464.932	8137
3466.647	8086
3468.362	8092
3470.076	8175
3471.789	8032
3473.505	7979
3475.217	8053
3476.929	8074
3478.641	8008
3480.354	7919
3482.066	8009
3483.777	8014
3485.487	8015
3487.197	8104
3488.908	7800
3490.617	7827
3492.327	7971
3494.035	7946
3495.743	7925
3497.451	7794
3499.158	7868
3500.866	7990
3502.572	7883
3504.278	7921
3505.984	8059
3507.689	7927
3509.396	7998
3511.1	7715
3512.804	7827
3514.508	7856
3516.211	7784
3517.913	7895
3519.616	7812
3521.319	7669
3523.021	7814
3524.722	7832
3526.422	7819
3528.124	7758
3529.824	7817
3531.524	7829
3533.222	7777
3534.921	7740
3536.62	7702
3538.318	7729
3540.016	7788
3541.714	7799
3543.41	7690
3545.107	7776
3546.803	7769
3548.5	7755
3550.194	7695
3551.889	7700
3553.583	7813
3555.279	7742
3556.972	7734
3558.666	7564
3560.358	7581
3562.051	7677
3563.742	7700
3565.435	7695
3567.126	7567
3568.817	7667
3570.507	7630
3572.197	7680
3573.888	7579
3575.577	7649
3577.265	7638
3578.954	7649
3580.642	7716
3582.329	7666
3584.017	7483
3585.704	7609
3587.391	7600
3589.077	7536
3590.762	7591
3592.449	7581
3594.133	7531
3595.817	7504
3597.501	7487
3599.185	7513
3600.869	7371
3602.552	7510
3604.234	7518
3605.916	7588
3607.598	7370
3609.279	7345
3610.961	7369
3612.642	7430
3614.321	7549
3616	7367
3617.68	7379
3619.36	7441
3621.039	7430
3622.716	7281
3624.394	7393
3626.071	7367
3627.748	7331
3629.425	7338
3631.102	7290
3632.778	7324
3634.452	7282
3636.127	7214
3637.803	7386
3639.477	7293
3641.151	7186
3642.823	7222
3644.497	7295
3646.171	7259
3647.842	7250
3649.515	7128
3651.185	7209
3652.857	7173
3654.527	7166
3656.198	7224
3657.868	7307
3659.537	7209
3661.207	7188
3662.875	7046
3664.544	7190
3666.212	7116
3667.879	7114
3669.546	7124
3671.212	7206
3672.88	7221
3674.546	7129
3676.211	7193
3677.875	7167
3679.541	7057
3681.205	7137
3682.87	7136
3684.533	7112
3686.196	7199
3687.859	7110
3689.521	7050
3691.184	7043
3692.845	7068
3694.507	7047
3696.167	7094
3697.827	7146
3699.487	7004
3701.148	7135
3702.808	7093
3704.466	7105
3706.125	7065
3707.783	6973
3709.442	6884
3711.099	7040
3712.757	7024
3714.412	6971
3716.068	6993
3717.725	7004
3719.381	7055
3721.036	6972
3722.689	7028
3724.344	7096
3725.998	7048
3727.652	7036
3729.305	6952
3730.958	6910
3732.61	6915
3734.262	6964
3735.915	6975
3737.565	7023
3739.217	6817
3740.866	6877
3742.516	7005
3744.165	6862
3745.816	6919
3747.464	6996
3749.113	6882
3750.761	6768
3752.409	6882
3754.057	6813
3755.703	6869
3757.35	6860
3758.996	6983
3760.641	6915
3762.289	6850
3763.933	6813
3765.577	6791
3767.222	6833
3768.865	6714
3770.508	6841
3772.152	6846
3773.796	6761
3775.438	6845
3777.079	6716
3778.721	6752
3780.363	6780
3782.003	6779
3783.643	6786
3785.283	6661
3786.923	6763
3788.563	6712
3790.203	6748
3791.841	6702
3793.479	6694
3795.115	6820
3796.753	6701
3798.391	6756
3800.027	6680
3801.664	6635
3803.299	6785
3804.935	6691
3806.571	6738
3808.206	6713
3809.839	6679
3811.473	6679
3813.107	6647
3814.74	6680
3816.375	6618
3818.006	6633
3819.638	6573
3821.27	6661
3822.9	6642
3824.532	6543
3826.163	6577
3827.792	6563
3829.423	6670
3831.051	6573
3832.682	6502
3834.311	6599
3835.938	6630
3837.566	6443
3839.193	6553
3840.821	6504
3842.448	6549
3844.075	6620
3845.7	6503
3847.325	6593
3848.951	6431
3850.576	6560
3852.201	6528
3853.825	6419
3855.448	6463
3857.072	6612
3858.694	6342
3860.318	6402
3861.939	6450
3863.562	6389
3865.183	6436
3866.804	6479
3868.426	6401
3870.045	6359
3871.666	6447
3873.285	6408
3874.904	6427
3876.524	6403
3878.142	6375
3879.76	6364
3881.378	6412
3882.995	6346
3884.612	6350
3886.229	6292
3887.845	6460
3889.461	6357
3891.076	6259
3892.691	6398
3894.307	6299
3895.922	6416
3897.536	6451
3899.149	6304
3900.761	6311
3902.374	6300
3903.988	6445
3905.6	6323
3907.212	6351
3908.822	6205
3910.433	6353
3912.045	6332
3913.655	6299
3915.265	6238
3916.875	6327
3918.483	6325
3920.093	6320
3921.702	6315
3923.309	6344
3924.917	6347
3926.523	6257
3928.13	6309
3929.739	6203
3931.344	6155
3932.95	6174
3934.555	6260
3936.159	6235
3937.766	6189
3939.369	6307
3940.974	6336
3942.577	6122
3944.181	6355
3945.783	6320
3947.386	6191
3948.989	6259
3950.59	6225
3952.191	6245
3953.791	6125
3955.394	6277
3956.994	6265
3958.593	6105
3960.192	6270
3961.791	6088
3963.392	6107
3964.99	6127
3966.588	6079
3968.185	6175
3969.782	6155
3971.379	6052
3972.976	6102
3974.572	6076
3976.168	6071
3977.763	6099
3979.358	5947
3980.954	6095
3982.548	6003
3984.142	5972
3985.736	5990
3987.329	6011
3988.922	6018
3990.516	5952
3992.108	6033
3993.698	5999
3995.29	5953
3996.881	5889
3998.473	5945
4000.064	6079
4001.653	5889
4003.242	5976
4004.832	5990
4006.422	5992
4008.01	5870
4009.598	5849
4011.186	5996
4012.773	5893
4014.36	5852
4015.947	5907
4017.534	5839
4019.119	5834
4020.705	5836
4022.291	5812
4023.876	5899
4025.461	5812
4027.044	5860
4028.627	5784
4030.211	5886
4031.795	5756
4033.378	5772
4034.96	5805
4036.542	5823
4038.124	5790
4039.704	5824
4041.286	5901
4042.867	5832
4044.447	5762
4046.026	5644
4047.606	5800
4049.187	5837
4050.765	5766
4052.343	5740
4053.92	5735
4055.498	5637
4057.076	5678
4058.654	5796
4060.23	5704
4061.806	5665
4063.381	5682
4064.957	5662
4066.533	5659
4068.107	5681
4069.682	5723
4071.256	5625
4072.829	5719
4074.404	5644
4075.977	5673
4077.549	5615
4079.121	5587
4080.693	5651
4082.265	5612
4083.836	5709
4085.407	5608
4086.977	5605
4088.547	5604
4090.117	5614
4091.687	5577
4093.256	5644
4094.825	5613
4096.392	5581
4097.96	5531
4099.528	5497
4101.097	5583
4102.663	5573
4104.229	5556
4105.795	5634
4107.361	5487
4108.928	5623
4110.493	5564
4112.058	5438
4113.621	5499
4115.186	5449
4116.75	5506
4118.313	5494
4119.876	5568
4121.438	5490
4123	5519
4124.562	5474
4126.125	5457
4127.686	5535
4129.246	5436
4130.807	5482
4132.367	5485
4133.927	5434
4135.486	5350
4137.046	5452
4138.604	5496
4140.162	5442
4141.72	5401
4143.279	5407
4144.836	5312
4146.393	5376
4147.949	5395
4149.505	5338
4151.062	5423
4152.617	5288
4154.172	5307
4155.727	5314
4157.281	5297
4158.836	5331
4160.39	5332
4161.943	5329
4163.496	5402
4165.048	5277
4166.601	5331
4168.154	5452
4169.706	5263
4171.257	5354
4172.808	5329
4174.358	5277
4175.909	5310
4177.458	5339
4179.008	5249
4180.558	5240
4182.106	5307
4183.655	5351
4185.204	5139
4186.751	5247
4188.298	5323
4189.845	5177
4191.392	5159
4192.939	5137
4194.485	5234
4196.031	5215
4197.576	5245
4199.121	5126
4200.666	5186
4202.211	5045
4203.754	5229
4205.298	5113
4206.84	5120
4208.384	5077
4209.927	5095
4211.47	5130
4213.011	5124
4214.552	5144
4216.094	5120
4217.635	5089
4219.175	5017
4220.716	5108
4222.255	5159
4223.793	5045
4225.335	5113
4226.873	5123
4228.411	5073
4229.948	5009
4231.486	5020
4233.024	5088
4234.562	5140
4236.098	5053
4237.634	5106
4239.169	5036
4240.705	5148
4242.241	5036
4243.776	5061
4245.31	5083
4246.844	5006
4248.378	4967
4249.911	5064
4251.445	5012
4252.978	5014
4254.51	5016
4256.042	5104
4257.574	4902
4259.107	5054
4260.638	5038
4262.169	4991
4263.699	4890
4265.228	5072
4266.759	4924
4268.289	4907
4269.818	4923
4271.345	4965
4272.874	4952
4274.402	4859
4275.931	4998
4277.458	4844
4278.985	5003
4280.512	4918
4282.037	4907
4283.564	4860
4285.089	4861
4286.615	4910
4288.139	4936
4289.664	4828
4291.187	4915
4292.712	4956
4294.235	4927
4295.759	4831
4297.281	5009
4298.804	4952
4300.327	4861
4301.849	4842
4303.37	4900
4304.891	4794
4306.412	4896
4307.933	4744
4309.453	4960
4310.973	4865
4312.492	4917
