398.1873	3748
400.7097	3721
403.2336	3783
405.7547	3754
408.2751	3799
410.7948	3720
413.3138	3754
415.83	3828
418.3497	3882
420.8666	3886
423.3829	3942
425.8985	3931
428.4133	4049
430.9275	3928
433.441	3902
435.9538	3932
438.4639	4029
440.9753	4000
443.4881	3976
445.9982	3923
448.5055	3977
451.0142	3964
453.5201	3967
456.0274	4057
458.5361	3980
461.04	3961
463.5453	3929
466.0478	3960
468.5517	3948
471.0549	3930
473.5574	4009
476.0572	3976
478.5584	4062
481.0568	4073
483.5545	4045
486.0557	3985
488.5521	4046
491.0478	4013
493.5449	4086
496.0392	4054
498.5349	4050
501.0299	4028
503.5222	4059
506.0139	4024
508.5048	4076
510.9991	4102
513.4887	4093
515.9777	4170
518.4659	4050
520.9534	4171
523.4403	4163
525.9306	4076
528.4161	4035
530.9009	4024
533.3851	4097
535.8687	4141
538.3535	4063
540.8356	4117
543.3171	4110
545.7979	4130
548.278	4088
550.7595	4125
553.2383	4171
555.7144	4119
558.1918	4134
560.6685	4200
563.1446	4167
565.6221	4143
568.0968	4171
570.5688	4128
573.0422	4243
575.515	4264
577.989	4235
580.4584	4316
582.9291	4317
585.3991	4285
587.8685	4390
590.3352	4339
592.8052	4416
595.2706	4252
597.7372	4210
600.2033	4302
602.6666	4270
605.1334	4271
607.5953	4233
610.0587	4307
612.5193	4281
614.9814	4241
617.4427	4298
619.9034	4245
622.3615	4318
624.8208	4200
627.2775	4174
629.7335	4218
632.1929	4265
634.6476	4241
637.1016	4267
639.5569	4162
642.0096	4231
644.4637	4254
646.9151	4284
649.3678	4278
651.8179	4237
654.2672	4279
656.7159	4333
659.166	4284
661.6154	4306
664.0622	4284
666.5082	4390
668.9537	4333
671.4005	4348
673.8445	4360
676.288	4367
678.7308	4437
681.1729	4355
683.6163	4381
686.0572	4415
688.4973	4315
690.9368	4424
693.3757	4358
695.8138	4359
698.2534	4377
700.6902	4448
703.1245	4499
705.56	4311
707.9949	4435
710.4311	4385
712.8647	4377
715.2957	4451
717.7279	4448
720.1595	4473
722.5905	4454
725.0208	4420
727.4505	4442
729.8795	4591
732.3058	4498
734.7336	4507
737.1626	4565
739.587	4585
742.0128	4577
744.4359	4548
746.8604	4568
749.2841	4685
751.7073	4629
754.1278	4610
756.5496	4588
758.9688	4719
761.3893	4655
763.8093	4638
766.2285	4633
768.6451	4684
771.0611	4709
773.4784	4717
775.895	4730
778.3091	4633
780.7244	4668
783.1371	4659
785.5493	4654
787.9626	4674
790.3754	4713
792.7856	4616
795.1951	4758
797.6039	4746
800.0121	4726
802.4236	4718
804.8306	4664
807.2369	4806
809.6425	4694
812.0475	4785
814.4538	4729
816.8575	4744
819.2606	4641
821.663	4779
824.0648	4798
826.4659	4821
828.8683	4763
831.2682	4743
833.6674	4794
836.066	4801
838.4639	4810
840.8632	4802
843.2579	4777
845.6539	4737
848.0493	4837
850.444	4892
852.84	4867
855.2315	4791
857.6243	4866
860.0165	4842
862.4081	4899
864.797	4938
867.1892	4861
869.5789	4815
871.9659	4899
874.3542	4915
876.74	4981
879.129	4845
881.5155	4844
883.8994	4877
886.2845	4949
888.6671	4776
891.051	4846
893.4343	4828
895.8169	4851
898.197	4818
900.5783	4734
902.9571	4806
905.3372	4861
907.7167	4775
910.0936	4873
912.4698	4912
914.8474	4897
917.2244	4974
919.5987	4934
921.9744	5005
924.3475	5029
926.72	5079
929.0918	5103
931.4669	4967
933.8375	5134
936.2074	5101
938.5767	5117
940.9454	5196
943.3154	5166
945.6829	5311
948.0497	5431
950.4178	5648
952.7833	5750
955.1483	6005
957.5145	6193
959.8782	6257
962.2412	6226
964.6036	6089
966.9655	5862
969.3266	5670
971.6871	5461
974.0471	5388
976.4064	5140
978.765	5148
981.125	5001
983.4824	5082
985.8373	5147
988.1935	4873
990.549	4919
992.9039	5035
995.2602	4961
997.6119	5044
999.965	5056
1002.317	5062
1004.667	5060
1007.02	5103
1009.371	5009
1011.719	5028
1014.068	5078
1016.415	4962
1018.765	5099
1021.111	5032
1023.458	5095
1025.804	5102
1028.147	5090
1030.49	5089
1032.837	5085
1035.179	5200
1037.522	5202
1039.862	4935
1042.204	5160
1044.546	5145
1046.884	5236
1049.224	5174
1051.562	5199
1053.899	5176
1056.237	5073
1058.575	5095
1060.91	5203
1063.244	5266
1065.58	5140
1067.913	5280
1070.248	5313
1072.579	5182
1074.911	5274
1077.242	5264
1079.572	5238
1081.905	5224
1084.234	5204
1086.562	5179
1088.89	5082
1091.217	5151
1093.544	5200
1095.871	5148
1098.197	5115
1100.521	5129
1102.845	5099
1105.169	5134
1107.491	5120
1109.814	5071
1112.135	5188
1114.456	5174
1116.776	5187
1119.096	5113
1121.415	5060
1123.734	5122
1126.052	5157
1128.369	5136
1130.686	5062
1133.002	5227
1135.318	5225
1137.632	5202
1139.945	5089
1142.258	5138
1144.573	5191
1146.884	5106
1149.196	5164
1151.505	5107
1153.816	5098
1156.124	5259
1158.435	5145
1160.742	5218
1163.051	5156
1165.356	5220
1167.663	5100
1169.97	5154
1172.276	5216
1174.579	5200
1176.881	5182
1179.186	5093
1181.487	5180
1183.79	5119
1186.092	5165
1188.392	5139
1190.691	5114
1192.991	5239
1195.291	5203
1197.588	5196
1199.885	5130
1202.181	5244
1204.479	5146
1206.775	5314
1209.07	5213
1211.363	5174
1213.656	5256
1215.949	5261
1218.241	5427
1220.534	5335
1222.825	5233
1225.115	5226
1227.405	5268
1229.693	5280
1231.984	5268
1234.271	5471
1236.558	5310
1238.845	5270
1241.131	5394
1243.416	5344
1245.703	5422
1247.987	5453
1250.269	5413
1252.552	5399
1254.834	5541
1257.118	5346
1259.399	5337
1261.678	5433
1263.958	5352
1266.237	5416
1268.516	5391
1270.794	5351
1273.072	5402
1275.347	5354
1277.624	5445
1279.899	5357
1282.175	5318
1284.449	5331
1286.722	5329
1288.995	5311
1291.266	5314
1293.54	5349
1295.81	5405
1298.081	5379
1300.35	5299
1302.62	5362
1304.889	5230
1307.156	5335
1309.425	5258
1311.69	5280
1313.957	5354
1316.222	5414
1318.488	5303
1320.751	5230
1323.016	5314
1325.278	5267
1327.54	5316
1329.803	5292
1332.065	5268
1334.325	5315
1336.584	5449
1338.843	5288
1341.101	5335
1343.36	5371
1345.617	5316
1347.876	5312
1350.131	5329
1352.387	5358
1354.643	5407
1356.897	5232
1359.151	5317
1361.403	5435
1363.656	5315
1365.909	5412
1368.16	5293
1370.409	5337
1372.659	5333
1374.909	5414
1377.157	5350
1379.407	5407
1381.655	5475
1383.9	5332
1386.147	5336
1388.393	5388
1390.64	5464
1392.885	5375
1395.127	5415
1397.37	5453
1399.614	5407
1401.854	5491
1404.098	5558
1406.339	5497
1408.578	5493
1410.818	5385
1413.056	5379
1415.297	5464
1417.533	5385
1419.771	5425
1422.006	5537
1424.243	5511
1426.479	5456
1428.715	5535
1430.948	5460
1433.182	5552
1435.414	5532
1437.647	5561
1439.88	5629
1442.11	5556
1444.342	5569
1446.571	5575
1448.799	5696
1451.029	5632
1453.258	5610
1455.485	5661
1457.711	5509
1459.937	5669
1462.164	5537
1464.39	5618
1466.614	5556
1468.838	5581
1471.06	5459
1473.283	5519
1475.506	5483
1477.727	5535
1479.949	5452
1482.169	5464
1484.389	5507
1486.609	5448
1488.828	5464
1491.045	5425
1493.261	5440
1495.477	5430
1497.693	5380
1499.91	5430
1502.125	5363
1504.339	5328
1506.553	5424
1508.766	5418
1510.979	5370
1513.191	5293
1515.402	5338
1517.613	5397
1519.823	5451
1522.033	5405
1524.242	5501
1526.451	5407
1528.657	5455
1530.865	5352
1533.072	5495
1535.278	5304
1537.484	5444
1539.687	5473
1541.892	5389
1544.096	5352
1546.299	5464
1548.502	5544
1550.703	5397
1552.905	5595
1555.104	5454
1557.303	5487
1559.505	5458
1561.703	5495
1563.902	5497
1566.099	5500
1568.295	5499
1570.494	5607
1572.689	5437
1574.883	5589
1577.079	5613
1579.272	5570
1581.467	5536
1583.659	5462
1585.853	5598
1588.044	5487
1590.234	5629
1592.424	5601
1594.615	5581
1596.806	5659
1598.994	5588
1601.182	5601
1603.369	5617
1605.557	5520
1607.744	5661
1609.929	5686
1612.114	5669
1614.298	5670
1616.482	5688
1618.667	5540
1620.85	5721
1623.032	5642
1625.214	5563
1627.395	5712
1629.575	5591
1631.755	5554
1633.935	5599
1636.114	5755
1638.292	5642
1640.471	5707
1642.647	5680
1644.823	5793
1647	5700
1649.175	5796
1651.348	5746
1653.525	5615
1655.698	5681
1657.87	5806
1660.043	5731
1662.213	5705
1664.387	5694
1666.558	5790
1668.727	5836
1670.896	5746
1673.064	5691
1675.233	5735
1677.401	5809
1679.569	5741
1681.735	5781
1683.902	5658
1686.066	5723
1688.233	5727
1690.397	5610
1692.559	5649
1694.723	5605
1696.885	5732
1699.048	5688
1701.21	5791
1703.37	5677
1705.53	5613
1707.689	5760
1709.849	5715
1712.009	5703
1714.166	5598
1716.323	5653
1718.479	5670
1720.634	5620
1722.793	5648
1724.948	5603
1727.102	5603
1729.255	5474
1731.408	5655
1733.562	5633
1735.714	5586
1737.865	5647
1740.016	5752
1742.166	5702
1744.316	5603
1746.467	5681
1748.616	5677
1750.764	5642
1752.911	5722
1755.056	5696
1757.205	5574
1759.35	5741
1761.496	5676
1763.641	5723
1765.785	5605
1767.927	5695
1770.072	5713
1772.214	5656
1774.355	5837
1776.496	5787
1778.637	5650
1780.778	5714
1782.918	5663
1785.057	5763
1787.194	5626
1789.333	5675
1791.472	5721
1793.608	5661
1795.745	5723
1797.879	5670
1800.015	5704
1802.148	5875
1804.284	5687
1806.417	5767
1808.548	5737
1810.682	5709
1812.812	5752
1814.946	5759
1817.075	5674
1819.205	5737
1821.335	5707
1823.463	5662
1825.59	5645
1827.721	5735
1829.847	5693
1831.973	5727
1834.098	5686
1836.223	5711
1838.351	5800
1840.475	5697
1842.598	5621
1844.721	5711
1846.843	5595
1848.966	5662
1851.087	5628
1853.21	5770
1855.33	5735
1857.449	5736
1859.568	5650
1861.688	5727
1863.806	5728
1865.924	5681
1868.039	5719
1870.155	5742
1872.273	5664
1874.388	5729
1876.503	5727
1878.617	5739
1880.73	5723
1882.844	5735
1884.956	5726
1887.068	5712
1889.18	5722
1891.291	5783
1893.4	5727
1895.511	5697
1897.621	5850
1899.73	5721
1901.837	5645
1903.944	5741
1906.053	5815
1908.159	5750
1910.265	5881
1912.369	5755
1914.474	5761
1916.577	5839
1918.683	5746
1920.785	5831
1922.888	5869
1924.989	5894
1927.091	5858
1929.193	5815
1931.294	5686
1933.393	5880
1935.493	5735
1937.59	5748
1939.689	5857
1941.788	5734
1943.884	5699
1945.98	5835
1948.077	5798
1950.171	5848
1952.267	5863
1954.361	5825
1956.455	5862
1958.548	5789
1960.64	5780
1962.733	5722
1964.824	5841
1966.915	5773
1969.005	5795
1971.096	5853
1973.185	5812
1975.275	5816
1977.363	5858
1979.45	5873
1981.537	5872
1983.623	5812
1985.711	5893
1987.796	5799
1989.881	5800
1991.965	5798
1994.047	5760
1996.132	5800
1998.215	5744
2000.297	5872
2002.378	5877
2004.46	5671
2006.54	5713
2008.62	5800
2010.7	5777
2012.779	5872
2014.858	5707
2016.934	5789
2019.013	5810
2021.09	5772
2023.165	5725
2025.241	5820
2027.317	5757
2029.39	5817
2031.466	5730
2033.538	5917
2035.612	5816
2037.683	5798
2039.755	5808
2041.827	5855
2043.898	5892
2045.968	5819
2048.038	5727
2050.106	5765
2052.177	5783
2054.244	5779
2056.313	5770
2058.379	5837
2060.444	5878
2062.511	5886
2064.577	5825
2066.641	5761
2068.705	5860
2070.77	5793
2072.832	5823
2074.896	5764
2076.958	5879
2079.02	5848
2081.081	5839
2083.141	5884
2085.2	5909
2087.261	5822
2089.319	5924
2091.377	5878
2093.435	5888
2095.492	5905
2097.552	5814
2099.607	5862
2101.663	5945
2103.718	5892
2105.771	5822
2107.826	5863
2109.879	5930
2111.932	5909
2113.985	5829
2116.037	5900
2118.088	5847
2120.141	5803
2122.191	5883
2124.239	5791
2126.288	5838
2128.337	5754
2130.387	5847
2132.434	5902
2134.481	5854
2136.528	5838
2138.574	5832
2140.618	5866
2142.665	5898
2144.71	5823
2146.753	5844
2148.797	5838
2150.838	5840
2152.883	5856
2154.923	5852
2156.965	5735
2159.007	5727
2161.046	5830
2163.086	5851
2165.126	5781
2167.163	5708
2169.202	5794
2171.239	5845
2173.277	5714
2175.314	5809
2177.349	5652
2179.385	5846
2181.42	5734
2183.453	5884
2185.49	5817
2187.522	5710
2189.555	5781
2191.586	5691
2193.619	5741
2195.651	5735
2197.682	5835
2199.711	5721
2201.74	5686
2203.769	5800
2205.799	5750
2207.828	5751
2209.855	5725
2211.882	5697
2213.908	5639
2215.934	5735
2217.961	5770
2219.986	5753
2222.01	5664
2224.034	5662
2226.057	5677
2228.08	5785
2230.104	5707
2232.124	5768
2234.145	5794
2236.166	5752
2238.186	5845
2240.207	5606
2242.227	5767
2244.244	5771
2246.262	5778
2248.28	5767
2250.299	5857
2252.314	5628
2254.33	5675
2256.346	5728
2258.36	5749
2260.375	5737
2262.391	5632
2264.403	5701
2266.416	5713
2268.427	5770
2270.44	5664
2272.453	5727
2274.463	5766
2276.474	5841
2278.483	5833
2280.493	5804
2282.501	5752
2284.51	5818
2286.518	5773
2288.524	5815
2290.532	5689
2292.537	5705
2294.544	5749
2296.55	5769
2298.554	5785
2300.557	5797
2302.562	5697
2304.566	5813
2306.568	5650
2308.569	5691
2310.572	5824
2312.573	5754
2314.573	5658
2316.574	5766
2318.573	5788
2320.571	5734
2322.571	5746
2324.569	5699
2326.567	5770
2328.564	5739
2330.56	5671
2332.556	5690
2334.551	5594
2336.546	5798
2338.542	5767
2340.535	5681
2342.529	5716
2344.521	5666
2346.512	5581
2348.505	5726
2350.497	5661
2352.487	5665
2354.478	5676
2356.468	5560
2358.457	5754
2360.446	5616
2362.434	5632
2364.422	5663
2366.408	5645
2368.395	5573
2370.383	5686
2372.369	5604
2374.353	5702
2376.338	5591
2378.321	5647
2380.307	5611
2382.29	5733
2384.272	5631
2386.254	5614
2388.235	5721
2390.218	5510
2392.198	5585
2394.179	5619
2396.157	5526
2398.137	5722
2400.115	5617
2402.095	5526
2404.072	5676
2406.048	5671
2408.026	5680
2410.001	5603
2411.977	5706
2413.953	5621
2415.927	5589
2417.9	5574
2419.875	5607
2421.847	5575
2423.821	5516
2425.792	5668
2427.763	5709
2429.736	5625
2431.706	5606
2433.677	5686
2435.646	5648
2437.615	5669
2439.583	5773
2441.551	5617
2443.519	5518
2445.486	5584
2447.452	5529
2449.418	5533
2451.383	5597
2453.348	5500
2455.314	5653
2457.278	5528
2459.241	5669
2461.205	5599
2463.167	5681
2465.131	5592
2467.091	5568
2469.052	5521
2471.012	5564
2472.972	5608
2474.932	5585
2476.891	5541
2478.85	5583
2480.808	5537
2482.766	5562
2484.722	5464
2486.68	5507
2488.636	5550
2490.591	5640
2492.546	5503
2494.5	5566
2496.456	5576
2498.41	5548
2500.362	5379
2502.315	5707
2504.266	5558
2506.218	5540
2508.169	5472
2510.121	5632
2512.07	5628
2514.019	5644
2515.968	5556
2517.918	5654
2519.866	5615
2521.813	5501
2523.76	5639
2525.707	5598
2527.653	5508
2529.599	5557
2531.543	5445
2533.489	5526
2535.433	5487
2537.376	5567
2539.32	5555
2541.264	5491
2543.205	5549
2545.147	5482
2547.087	5543
2549.029	5517
2550.969	5433
2552.908	5597
2554.847	5508
2556.786	5489
2558.724	5612
2560.663	5448
2562.6	5567
2564.537	5499
2566.473	5584
2568.408	5532
2570.345	5543
2572.28	5602
2574.214	5580
2576.148	5628
2578.081	5652
2580.014	5573
2581.947	5503
2583.879	5617
2585.81	5522
2587.741	5568
2589.67	5613
2591.602	5538
2593.532	5568
2595.461	5588
2597.388	5650
2599.316	5562
2601.244	5517
2603.172	5539
2605.098	5549
2607.023	5557
2608.949	5652
2610.873	5552
2612.8	5609
2614.723	5547
2616.647	5487
2618.569	5553
2620.493	5579
2622.416	5526
2624.338	5634
2626.258	5634
2628.179	5625
2630.099	5660
2632.019	5639
2633.939	5666
2635.857	5603
2637.775	5634
2639.694	5655
2641.61	5619
2643.528	5586
2645.444	5576
2647.361	5581
2649.276	5623
2651.19	5477
2653.105	5559
2655.019	5607
2656.934	5552
2658.846	5534
2660.758	5569
2662.67	5465
2664.583	5600
2666.493	5557
2668.404	5548
2670.313	5583
2672.223	5547
2674.134	5591
2676.042	5628
2677.95	5623
2679.858	5690
2681.765	5643
2683.673	5603
2685.579	5644
2687.483	5624
2689.389	5640
2691.294	5614
2693.198	5538
2695.104	5610
2697.006	5524
2698.909	5626
2700.811	5576
2702.713	5547
2704.615	5497
2706.516	5508
2708.417	5597
2710.316	5462
2712.216	5522
2714.115	5574
2716.014	5543
2717.913	5529
2719.81	5448
2721.707	5495
2723.603	5571
2725.501	5590
2727.396	5516
2729.292	5496
2731.186	5469
2733.081	5553
2734.976	5526
2736.87	5545
2738.762	5474
2740.653	5427
2742.546	5533
2744.437	5465
2746.329	5554
2748.22	5490
2750.11	5627
2751.999	5469
2753.889	5579
2755.778	5485
2757.666	5428
2759.553	5624
2761.44	5397
2763.328	5474
2765.215	5492
2767.101	5543
2768.986	5413
2770.87	5548
2772.754	5443
2774.638	5484
2776.523	5504
2778.405	5526
2780.288	5516
2782.17	5534
2784.051	5517
2785.934	5375
2787.814	5538
2789.694	5510
2791.574	5554
2793.453	5525
2795.332	5517
2797.212	5541
2799.088	5393
2800.966	5421
2802.843	5414
2804.719	5482
2806.597	5497
2808.471	5488
2810.346	5393
2812.221	5409
2814.094	5498
2815.969	5480
2817.843	5444
2819.714	5477
2821.587	5465
2823.459	5577
2825.329	5515
2827.202	5511
2829.072	5389
2830.942	5462
2832.811	5521
2834.68	5550
2836.549	5482
2838.418	5464
2840.284	5489
2842.152	5475
2844.018	5442
2845.885	5484
2847.751	5484
2849.616	5486
2851.482	5543
2853.345	5638
2855.208	5560
2857.074	5462
2858.937	5531
2860.799	5521
2862.66	5677
2864.522	5505
2866.385	5659
2868.245	5704
2870.104	5730
2871.964	5744
2873.824	5711
2875.683	5686
2877.542	5797
2879.4	5789
2881.257	5784
2883.114	5786
2884.97	5895
2886.827	5877
2888.683	5864
2890.537	5771
2892.392	5853
2894.246	5837
2896.1	5806
2897.954	5783
2899.807	5775
2901.66	5872
2903.51	5819
2905.362	5797
2907.214	5893
2909.065	5837
2910.915	5895
2912.765	5901
2914.613	5930
2916.463	6020
2918.311	6082
2920.158	5964
2922.006	6071
2923.853	6134
2925.698	6155
2927.546	6183
2929.392	6198
2931.236	6419
2933.081	6168
2934.924	6290
2936.77	6430
2938.613	6350
2940.455	6438
2942.298	6366
2944.139	6343
2945.982	6456
2947.823	6395
2949.662	6380
2951.503	6413
2953.342	6228
2955.182	6218
2957.021	6289
2958.858	6252
2960.697	6191
2962.534	6158
2964.37	6113
2966.207	6032
2968.044	6070
2969.879	6011
2971.714	6040
2973.548	5978
2975.383	6025
2977.218	5971
2979.051	5832
2980.883	5827
2982.715	5898
2984.547	5751
2986.379	5883
2988.21	5684
2990.04	5761
2991.87	5823
2993.7	5835
2995.53	5767
2997.359	5635
2999.187	5650
3001.015	5543
3002.842	5600
3004.669	5601
3006.497	5523
3008.323	5584
3010.148	5528
3011.974	5464
3013.797	5416
3015.623	5373
3017.447	5466
3019.27	5389
3021.094	5368
3022.915	5332
3024.737	5364
3026.56	5354
3028.38	5370
3030.201	5342
3032.022	5214
3033.84	5325
3035.662	5352
3037.481	5314
3039.298	5246
3041.117	5274
3042.933	5242
3044.752	5252
3046.568	5231
3048.385	5245
3050.2	5370
3052.016	5348
3053.83	5236
3055.646	5316
3057.46	5367
3059.272	5209
3061.086	5222
3062.898	5259
3064.711	5249
3066.524	5350
3068.335	5230
3070.145	5352
3071.956	5201
3073.766	5195
3075.576	5163
3077.385	5076
3079.193	5261
3081.002	5242
3082.81	5184
3084.618	5134
3086.425	5118
3088.231	5216
3090.036	5168
3091.842	5229
3093.648	5113
3095.452	5228
3097.257	5099
3099.06	5099
3100.863	5017
3102.666	5136
3104.47	5169
3106.272	5216
3108.073	5138
3109.875	5110
3111.676	5170
3113.477	5129
3115.277	5014
3117.077	5110
3118.874	5018
3120.673	5006
3122.473	5011
3124.271	5086
3126.066	5059
3127.863	5048
3129.66	5175
3131.456	5031
3133.252	5024
3135.047	5094
3136.842	5073
3138.635	4972
3140.429	5077
3142.223	4938
3144.016	5134
3145.808	5009
3147.6	5041
3149.392	5153
3151.183	5052
3152.975	5006
3154.765	4919
3156.553	5051
3158.344	5006
3160.132	5010
3161.922	5005
3163.71	5018
3165.497	4995
3167.285	4985
3169.071	5089
3170.858	4982
3172.645	5029
3174.429	5047
3176.214	4957
3177.998	4932
3179.783	4902
3181.568	4919
3183.351	4942
3185.133	4915
3186.915	4952
3188.698	4901
3190.481	4998
3192.261	4977
3194.042	4980
3195.822	4942
3197.601	4944
3199.381	4927
3201.161	4871
3202.939	4976
3204.717	4913
3206.495	4943
3208.272	4976
3210.05	4928
3211.826	4950
3213.602	4891
3215.376	4934
3217.151	4893
3218.927	4924
3220.702	4972
3222.476	4951
3224.249	4982
3226.021	4932
3227.793	4884
3229.567	4842
3231.339	4949
3233.109	4872
3234.88	4987
3236.651	5032
3238.421	4974
3240.191	5003
3241.96	4939
3243.728	4978
3245.497	4987
3247.263	4890
3249.033	4939
3250.799	4853
3252.566	4893
3254.331	5004
3256.097	4985
3257.863	4991
3259.628	4993
3261.392	4927
3263.156	4848
3264.919	4993
3266.683	4898
3268.447	4967
3270.208	4947
3271.969	4983
3273.731	4971
3275.492	4926
3277.253	5005
3279.013	4865
3280.773	4973
3282.532	4911
3284.291	4898
3286.05	4973
3287.808	4934
3289.566	5002
3291.323	4970
3293.079	4964
3294.835	4918
3296.593	4880
3298.348	4854
3300.102	4903
3301.857	4832
3303.611	4851
3305.366	4874
3307.119	4818
3308.872	4920
3310.624	4963
3312.376	4906
3314.129	4852
3315.881	4975
3317.631	4877
3319.38	4962
3321.13	4980
3322.88	4922
3324.631	4875
3326.379	4828
3328.126	4988
3329.875	4923
3331.622	4936
3333.371	4931
3335.116	4924
3336.863	4851
3338.609	4973
3340.353	4868
3342.1	4775
3343.845	4979
3345.588	4938
3347.332	4968
3349.074	4828
3350.817	4915
3352.56	4815
3354.303	4929
3356.043	4787
3357.785	4895
3359.525	4881
3361.268	4841
3363.007	4892
3364.745	4781
3366.485	4859
3368.223	4821
3369.962	4813
3371.701	4733
3373.438	4721
3375.174	4839
3376.911	4791
3378.647	4890
3380.384	4743
3382.118	4831
3383.854	4842
3385.588	4844
3387.322	4850
3389.057	4734
3390.79	4915
3392.522	4780
3394.255	4851
3395.987	4775
3397.719	4774
3399.451	4822
3401.181	4866
3402.911	4799
3404.641	4769
3406.371	4688
3408.101	4737
3409.83	4834
3411.558	4802
3413.285	4758
3415.011	4818
3416.739	4762
3418.467	4706
3420.193	4735
3421.919	4830
3423.644	4782
3425.368	4639
3427.094	4731
3428.818	4777
3430.542	4699
3432.264	4753
3433.987	4665
3435.712	4671
3437.434	4728
3439.155	4630
3440.876	4652
3442.596	4612
3444.317	4630
3446.039	4705
3447.757	4606
3449.477	4730
3451.195	4545
3452.914	4781
3454.632	4623
3456.35	4640
3458.067	4636
3459.784	4681
3461.5	4622
3463.216	4551
3464.932	4688
3466.647	4604
3468.362	4640
3470.076	4642
3471.789	4529
3473.505	4653
3475.217	4526
3476.929	4576
3478.641	4569
3480.354	4487
3482.066	4601
3483.777	4505
3485.487	4520
3487.197	4633
3488.908	4493
3490.617	4539
3492.327	4524
3494.035	4547
3495.743	4671
3497.451	4515
3499.158	4478
3500.866	4594
3502.572	4469
3504.278	4470
3505.984	4532
3507.689	4530
3509.396	4545
3511.1	4530
3512.804	4561
3514.508	4591
3516.211	4443
3517.913	4510
3519.616	4530
3521.319	4488
3523.021	4500
3524.722	4475
3526.422	4548
3528.124	4544
3529.824	4445
3531.524	4566
3533.222	4394
3534.921	4477
3536.62	4533
3538.318	4431
3540.016	4432
3541.714	4394
3543.41	4406
3545.107	4479
3546.803	4474
3548.5	4402
3550.194	4425
3551.889	4511
3553.583	4530
3555.279	4408
3556.972	4423
3558.666	4416
3560.358	4456
3562.051	4492
3563.742	4407
3565.435	4311
3567.126	4387
3568.817	4327
3570.507	4345
3572.197	4327
3573.888	4368
3575.577	4308
3577.265	4362
3578.954	4412
3580.642	4384
3582.329	4404
3584.017	4388
3585.704	4361
3587.391	4327
3589.077	4326
3590.762	4333
3592.449	4386
3594.133	4372
3595.817	4334
3597.501	4304
3599.185	4248
3600.869	4296
3602.552	4266
3604.234	4317
3605.916	4308
3607.598	4332
3609.279	4201
3610.961	4346
3612.642	4298
3614.321	4230
3616	4179
3617.68	4251
3619.36	4270
3621.039	4208
3622.716	4228
3624.394	4257
3626.071	4247
3627.748	4133
3629.425	4169
3631.102	4187
3632.778	4241
3634.452	4179
3636.127	4226
3637.803	4170
3639.477	4113
3641.151	4210
3642.823	4183
3644.497	4187
3646.171	4176
3647.842	4147
3649.515	4196
3651.185	4212
3652.857	4203
3654.527	4283
3656.198	4224
3657.868	4214
3659.537	4172
3661.207	4179
3662.875	4100
3664.544	4199
3666.212	4060
3667.879	4153
3669.546	4133
3671.212	4134
3672.88	4080
3674.546	4045
3676.211	4174
3677.875	4093
3679.541	4080
3681.205	4123
3682.87	4085
3684.533	4111
3686.196	4119
3687.859	4089
3689.521	4088
3691.184	4047
3692.845	4135
3694.507	4025
3696.167	4081
3697.827	4132
3699.487	4036
3701.148	4088
3702.808	4088
3704.466	4058
3706.125	4093
3707.783	4025
3709.442	4105
3711.099	4108
3712.757	4167
3714.412	3946
3716.068	4053
3717.725	4035
3719.381	4041
3721.036	4050
3722.689	4028
3724.344	4073
3725.998	4094
3727.652	4064
3729.305	3997
3730.958	4016
3732.61	4003
3734.262	4044
3735.915	4007
3737.565	3972
3739.217	3994
3740.866	4001
3742.516	4053
3744.165	4002
3745.816	4039
3747.464	4048
3749.113	3897
3750.761	3998
3752.409	4011
3754.057	4076
3755.703	3989
3757.35	4070
3758.996	4052
3760.641	3987
3762.289	3949
3763.933	3995
3765.577	4005
3767.222	3935
3768.865	4041
3770.508	4003
3772.152	3911
3773.796	4032
3775.438	3945
3777.079	3863
3778.721	3995
3780.363	3891
3782.003	3960
3783.643	3984
3785.283	3960
3786.923	3904
3788.563	4020
3790.203	3910
3791.841	3941
3793.479	3873
3795.115	3863
3796.753	3974
3798.391	3838
3800.027	3992
3801.664	3947
3803.299	3865
3804.935	3840
3806.571	3941
3808.206	3883
3809.839	3840
3811.473	3917
3813.107	3874
3814.74	3852
3816.375	3924
3818.006	3861
3819.638	3911
3821.27	3858
3822.9	3830
3824.532	3988
3826.163	3857
3827.792	3765
3829.423	3846
3831.051	3813
3832.682	3840
3834.311	3819
3835.938	3810
3837.566	3837
3839.193	3826
3840.821	3814
3842.448	3888
3844.075	3794
3845.7	3845
3847.325	3844
3848.951	3867
3850.576	3810
3852.201	3807
3853.825	3816
3855.448	3773
3857.072	3806
3858.694	3781
3860.318	3787
3861.939	3827
3863.562	3711
3865.183	3698
3866.804	3685
3868.426	3753
3870.045	3842
3871.666	3855
3873.285	3838
3874.904	3719
3876.524	3698
3878.142	3793
3879.76	3801
3881.378	3841
3882.995	3709
3884.612	3754
3886.229	3714
3887.845	3678
3889.461	3814
3891.076	3753
3892.691	3789
3894.307	3835
3895.922	3718
3897.536	3739
3899.149	3811
3900.761	3705
3902.374	3765
3903.988	3748
3905.6	3740
3907.212	3684
3908.822	3674
3910.433	3724
3912.045	3687
3913.655	3753
3915.265	3676
3916.875	3749
3918.483	3656
3920.093	3689
3921.702	3799
3923.309	3719
3924.917	3799
3926.523	3679
3928.13	3713
3929.739	3775
3931.344	3663
3932.95	3776
3934.555	3734
3936.159	3654
3937.766	3765
3939.369	3645
3940.974	3709
3942.577	3651
3944.181	3716
3945.783	3634
3947.386	3721
3948.989	3694
3950.59	3674
3952.191	3713
3953.791	3698
3955.394	3633
3956.994	3675
3958.593	3635
3960.192	3661
3961.791	3608
3963.392	3686
3964.99	3699
3966.588	3649
3968.185	3578
3969.782	3631
3971.379	3608
3972.976	3582
3974.572	3662
3976.168	3593
3977.763	3590
3979.358	3623
3980.954	3628
3982.548	3642
3984.142	3541
3985.736	3550
3987.329	3537
3988.922	3601
3990.516	3552
3992.108	3540
3993.698	3643
3995.29	3587
3996.881	3558
3998.473	3525
4000.064	3436
4001.653	3582
4003.242	3602
4004.832	3585
4006.422	3572
4008.01	3529
4009.598	3596
4011.186	3472
4012.773	3593
4014.36	3476
4015.947	3511
4017.534	3541
4019.119	3563
4020.705	3463
4022.291	3441
4023.876	3478
4025.461	3571
4027.044	3532
4028.627	3496
4030.211	3451
4031.795	3485
4033.378	3432
4034.96	3480
4036.542	3504
4038.124	3499
4039.704	3427
4041.286	3493
4042.867	3490
4044.447	3466
4046.026	3535
4047.606	3403
4049.187	3427
4050.765	3476
4052.343	3504
4053.92	3476
4055.498	3381
4057.076	3472
4058.654	3508
4060.23	3452
4061.806	3481
4063.381	3425
4064.957	3411
4066.533	3345
4068.107	3447
4069.682	3445
4071.256	3334
4072.829	3387
4074.404	3439
4075.977	3454
4077.549	3426
4079.121	3437
4080.693	3342
4082.265	3363
4083.836	3479
4085.407	3404
4086.977	3362
4088.547	3365
4090.117	3409
4091.687	3298
4093.256	3416
4094.825	3381
4096.392	3461
4097.96	3337
4099.528	3411
4101.097	3290
4102.663	3429
4104.229	3364
4105.795	3382
4107.361	3337
4108.928	3417
4110.493	3388
4112.058	3388
4113.621	3231
4115.186	3340
4116.75	3349
4118.313	3344
4119.876	3268
4121.438	3384
4123	3320
4124.562	3365
4126.125	3269
4127.686	3361
4129.246	3261
4130.807	3348
4132.367	3298
4133.927	3268
4135.486	3268
4137.046	3310
4138.604	3218
4140.162	3282
4141.72	3270
4143.279	3331
4144.836	3287
4146.393	3339
4147.949	3185
4149.505	3230
4151.062	3216
4152.617	3243
4154.172	3230
4155.727	3233
4157.281	3307
4158.836	3209
4160.39	3230
4161.943	3220
4163.496	3282
4165.048	3190
4166.601	3204
4168.154	3218
4169.706	3206
4171.257	3187
4172.808	3208
4174.358	3236
4175.909	3177
4177.458	3191
4179.008	3207
4180.558	3199
4182.106	3155
4183.655	3190
4185.204	3204
4186.751	3103
4188.298	3178
4189.845	3184
4191.392	3192
4192.939	3204
4194.485	3208
4196.031	3211
4197.576	3157
4199.121	3141
4200.666	3159
4202.211	3153
4203.754	3175
4205.298	3088
4206.84	3150
4208.384	3181
4209.927	3172
4211.47	3122
4213.011	3140
4214.552	3197
4216.094	3178
4217.635	3168
4219.175	3093
4220.716	3177
4222.255	3112
4223.793	3138
4225.335	3082
4226.873	3103
4228.411	3086
4229.948	3163
4231.486	3143
4233.024	3122
4234.562	3106
4236.098	3175
4237.634	3095
4239.169	3129
4240.705	3065
4242.241	3129
4243.776	3129
4245.31	3086
4246.844	3073
4248.378	3058
4249.911	3148
4251.445	3118
4252.978	3082
4254.51	3080
4256.042	3101
4257.574	3108
4259.107	3131
4260.638	3068
4262.169	3163
4263.699	3075
4265.228	3160
4266.759	3054
4268.289	3038
4269.818	3026
4271.345	3026
4272.874	3054
4274.402	3024
4275.931	3002
4277.458	3108
4278.985	2988
4280.512	3067
4282.037	3021
4283.564	3139
4285.089	3050
4286.615	3040
4288.139	3064
4289.664	3072
4291.187	3003
4292.712	3072
4294.235	2930
4295.759	3014
4297.281	3086
4298.804	3062
4300.327	3043
4301.849	3106
4303.37	2976
4304.891	3021
4306.412	3055
4307.933	3000
4309.453	2999
4310.973	2993
4312.492	3065
