398.1873	5548
400.7097	5652
403.2336	5550
405.7547	5649
408.2751	5634
410.7948	5581
413.3138	5705
415.83	5554
418.3497	5744
420.8666	5804
423.3829	5742
425.8985	5809
428.4133	5875
430.9275	5844
433.441	5919
435.9538	5950
438.4639	5899
440.9753	5877
443.4881	5936
445.9982	5850
448.5055	6013
451.0142	5921
453.5201	5948
456.0274	6040
458.5361	5908
461.04	5920
463.5453	5973
466.0478	5969
468.5517	6067
471.0549	5978
473.5574	6055
476.0572	6054
478.5584	6020
481.0568	6049
483.5545	5900
486.0557	6097
488.5521	6125
491.0478	5988
493.5449	6098
496.0392	6121
498.5349	6107
501.0299	6195
503.5222	6150
506.0139	6197
508.5048	6160
510.9991	6018
513.4887	6211
515.9777	6296
518.4659	6211
520.9534	6236
523.4403	6222
525.9306	6250
528.4161	6227
530.9009	6289
533.3851	6108
535.8687	6251
538.3535	6182
540.8356	6225
543.3171	6314
545.7979	6176
548.278	6237
550.7595	6362
553.2383	6231
555.7144	6296
558.1918	6296
560.6685	6344
563.1446	6297
565.6221	6278
568.0968	6332
570.5688	6360
573.0422	6443
575.515	6550
577.989	6449
580.4584	6488
582.9291	6466
585.3991	6462
587.8685	6521
590.3352	6513
592.8052	6491
595.2706	6581
597.7372	6487
600.2033	6417
602.6666	6485
605.1334	6533
607.5953	6479
610.0587	6534
612.5193	6389
614.9814	6408
617.4427	6389
619.9034	6431
622.3615	6469
624.8208	6465
627.2775	6386
629.7335	6524
632.1929	6502
634.6476	6438
637.1016	6523
639.5569	6506
642.0096	6512
644.4637	6466
646.9151	6525
649.3678	6480
651.8179	6511
654.2672	6548
656.7159	6500
659.166	6638
661.6154	6502
664.0622	6636
666.5082	6701
668.9537	6532
671.4005	6748
673.8445	6590
676.288	6683
678.7308	6601
681.1729	6654
683.6163	6627
686.0572	6664
688.4973	6652
690.9368	6649
693.3757	6652
695.8138	6710
698.2534	6723
700.6902	6721
703.1245	6770
705.56	6795
707.9949	6808
710.4311	6884
712.8647	6759
715.2957	6757
717.7279	6893
720.1595	6691
722.5905	6791
725.0208	6836
727.4505	6880
729.8795	6910
732.3058	6873
734.7336	6914
737.1626	7095
739.587	7029
742.0128	7056
744.4359	7080
746.8604	7088
749.2841	7086
751.7073	7076
754.1278	7001
756.5496	7146
758.9688	7060
761.3893	7136
763.8093	7123
766.2285	7071
768.6451	7228
771.0611	7222
773.4784	7101
775.895	7143
778.3091	7152
780.7244	7091
783.1371	7097
785.5493	7071
787.9626	7217
790.3754	7217
792.7856	7193
795.1951	7152
797.6039	7158
800.0121	7101
802.4236	7194
804.8306	7175
807.2369	7028
809.6425	7181
812.0475	7205
814.4538	7216
816.8575	7266
819.2606	7203
821.663	7250
824.0648	7201
826.4659	7190
828.8683	7240
831.2682	7215
833.6674	7240
836.066	7186
838.4639	7309
840.8632	7306
843.2579	7409
845.6539	7209
848.0493	7459
850.444	7410
852.84	7465
855.2315	7373
857.6243	7383
860.0165	7303
862.4081	7404
864.797	7316
867.1892	7454
869.5789	7375
871.9659	7366
874.3542	7355
876.74	7362
879.129	7340
881.5155	7385
883.8994	7397
886.2845	7377
888.6671	7317
891.051	7283
893.4343	7290
895.8169	7484
898.197	7321
900.5783	7311
902.9571	7519
905.3372	7323
907.7167	7435
910.0936	7442
912.4698	7608
914.8474	7473
917.2244	7583
919.5987	7546
921.9744	7713
924.3475	7668
926.72	7665
929.0918	7542
931.4669	7610
933.8375	7700
936.2074	7625
938.5767	7725
940.9454	7757
943.3154	7882
945.6829	7872
948.0497	8046
950.4178	8257
952.7833	8422
955.1483	8652
957.5145	8889
959.8782	9171
962.2412	8977
964.6036	8748
966.9655	8572
969.3266	8262
971.6871	8196
974.0471	7900
976.4064	7839
978.765	7736
981.125	7618
983.4824	7642
985.8373	7654
988.1935	7517
990.549	7494
992.9039	7645
995.2602	7678
997.6119	7705
999.965	7621
1002.317	7711
1004.667	7636
1007.02	7651
1009.371	7746
1011.719	7666
1014.068	7717
1016.415	7681
1018.765	7746
1021.111	7746
1023.458	7679
1025.804	7736
1028.147	7859
1030.49	7828
1032.837	7693
1035.179	7811
1037.522	7778
1039.862	7775
1042.204	7628
1044.546	7886
1046.884	7567
1049.224	7807
1051.562	7715
1053.899	7887
1056.237	7788
1058.575	7762
1060.91	7837
1063.244	7891
1065.58	8026
1067.913	7801
1070.248	7996
1072.579	7961
1074.911	7890
1077.242	7812
1079.572	8021
1081.905	7972
1084.234	7812
1086.562	7755
1088.89	7754
1091.217	7837
1093.544	7796
1095.871	7805
1098.197	7831
1100.521	7759
1102.845	7815
1105.169	7808
1107.491	7911
1109.814	7730
1112.135	7882
1114.456	7798
1116.776	7899
1119.096	7904
1121.415	7995
1123.734	7911
1126.052	7917
1128.369	7941
1130.686	7810
1133.002	7883
1135.318	7904
1137.632	7882
1139.945	7992
1142.258	7801
1144.573	7948
1146.884	7890
1149.196	7763
1151.505	7941
1153.816	8071
1156.124	7977
1158.435	8019
1160.742	7965
1163.051	7838
1165.356	7941
1167.663	8010
1169.97	8005
1172.276	7837
1174.579	7896
1176.881	7957
1179.186	7935
1181.487	7940
1183.79	7945
1186.092	7996
1188.392	7883
1190.691	7945
1192.991	7831
1195.291	7796
1197.588	7897
1199.885	7873
1202.181	7970
1204.479	8062
1206.775	7981
1209.07	7870
1211.363	7966
1213.656	8058
1215.949	7912
1218.241	8012
1220.534	7908
1222.825	8019
1225.115	8032
1227.405	7973
1229.693	7994
1231.984	8022
1234.271	8142
1236.558	8226
1238.845	8073
1241.131	8146
1243.416	8139
1245.703	8121
1247.987	8250
1250.269	8037
1252.552	8087
1254.834	8178
1257.118	8189
1259.399	8010
1261.678	8134
1263.958	8265
1266.237	8063
1268.516	8209
1270.794	8177
1273.072	8168
1275.347	8197
1277.624	8133
1279.899	8111
1282.175	8179
1284.449	8104
1286.722	8163
1288.995	7974
1291.266	8147
1293.54	8026
1295.81	8090
1298.081	8181
1300.35	8042
1302.62	7996
1304.889	8187
1307.156	8115
1309.425	8006
1311.69	8061
1313.957	8205
1316.222	8153
1318.488	8157
1320.751	8013
1323.016	8115
1325.278	7999
1327.54	8107
1329.803	8086
1332.065	8224
1334.325	8008
1336.584	8246
1338.843	8236
1341.101	8088
1343.36	8165
1345.617	8123
1347.876	8076
1350.131	8161
1352.387	8114
1354.643	8185
1356.897	8076
1359.151	8058
1361.403	8107
1363.656	8027
1365.909	8177
1368.16	8110
1370.409	8058
1372.659	8123
1374.909	8180
1377.157	8178
1379.407	8173
1381.655	8335
1383.9	8216
1386.147	8340
1388.393	8180
1390.64	8147
1392.885	8225
1395.127	8323
1397.37	8200
1399.614	8273
1401.854	8252
1404.098	8402
1406.339	8317
1408.578	8273
1410.818	8361
1413.056	8333
1415.297	8287
1417.533	8324
1419.771	8465
1422.006	8411
1424.243	8276
1426.479	8271
1428.715	8373
1430.948	8368
1433.182	8396
1435.414	8385
1437.647	8472
1439.88	8530
1442.11	8557
1444.342	8427
1446.571	8549
1448.799	8505
1451.029	8491
1453.258	8620
1455.485	8540
1457.711	8443
1459.937	8549
1462.164	8609
1464.39	8515
1466.614	8404
1468.838	8479
1471.06	8314
1473.283	8398
1475.506	8435
1477.727	8389
1479.949	8263
1482.169	8319
1484.389	8283
1486.609	8342
1488.828	8203
1491.045	8217
1493.261	8271
1495.477	8165
1497.693	8344
1499.91	8309
1502.125	8192
1504.339	8265
1506.553	8233
1508.766	8259
1510.979	8119
1513.191	8283
1515.402	8160
1517.613	8233
1519.823	8164
1522.033	8321
1524.242	8144
1526.451	8172
1528.657	8246
1530.865	8265
1533.072	8324
1535.278	8275
1537.484	8177
1539.687	8259
1541.892	8286
1544.096	8339
1546.299	8394
1548.502	8322
1550.703	8279
1552.905	8360
1555.104	8390
1557.303	8318
1559.505	8262
1561.703	8410
1563.902	8329
1566.099	8375
1568.295	8351
1570.494	8459
1572.689	8395
1574.883	8600
1577.079	8391
1579.272	8470
1581.467	8503
1583.659	8461
1585.853	8467
1588.044	8564
1590.234	8539
1592.424	8485
1594.615	8435
1596.806	8507
1598.994	8509
1601.182	8546
1603.369	8637
1605.557	8526
1607.744	8559
1609.929	8659
1612.114	8697
1614.298	8540
1616.482	8532
1618.667	8644
1620.85	8587
1623.032	8535
1625.214	8716
1627.395	8627
1629.575	8549
1631.755	8652
1633.935	8576
1636.114	8655
1638.292	8684
1640.471	8627
1642.647	8487
1644.823	8667
1647	8611
1649.175	8701
1651.348	8718
1653.525	8556
1655.698	8561
1657.87	8787
1660.043	8564
1662.213	8695
1664.387	8558
1666.558	8670
1668.727	8794
1670.896	8774
1673.064	8761
1675.233	8752
1677.401	8687
1679.569	8690
1681.735	8665
1683.902	8699
1686.066	8753
1688.233	8669
1690.397	8588
1692.559	8702
1694.723	8612
1696.885	8636
1699.048	8541
1701.21	8596
1703.37	8511
1705.53	8616
1707.689	8489
1709.849	8682
1712.009	8610
1714.166	8642
1716.323	8635
1718.479	8571
1720.634	8516
1722.793	8481
1724.948	8411
1727.102	8581
1729.255	8641
1731.408	8623
1733.562	8713
1735.714	8601
1737.865	8576
1740.016	8576
1742.166	8535
1744.316	8586
1746.467	8556
1748.616	8661
1750.764	8589
1752.911	8678
1755.056	8576
1757.205	8617
1759.35	8570
1761.496	8672
1763.641	8584
1765.785	8582
1767.927	8572
1770.072	8537
1772.214	8599
1774.355	8701
1776.496	8746
1778.637	8727
1780.778	8612
1782.918	8655
1785.057	8608
1787.194	8690
1789.333	8713
1791.472	8640
1793.608	8805
1795.745	8635
1797.879	8744
1800.015	8598
1802.148	8764
1804.284	8706
1806.417	8675
1808.548	8686
1810.682	8681
1812.812	8792
1814.946	8718
1817.075	8777
1819.205	8651
1821.335	8732
1823.463	8692
1825.59	8711
1827.721	8602
1829.847	8735
1831.973	8566
1834.098	8608
1836.223	8656
1838.351	8823
1840.475	8504
1842.598	8574
1844.721	8653
1846.843	8687
1848.966	8635
1851.087	8638
1853.21	8502
1855.33	8633
1857.449	8628
1859.568	8603
1861.688	8589
1863.806	8530
1865.924	8663
1868.039	8711
1870.155	8592
1872.273	8717
1874.388	8550
1876.503	8597
1878.617	8663
1880.73	8673
1882.844	8638
1884.956	8602
1887.068	8559
1889.18	8684
1891.291	8599
1893.4	8635
1895.511	8663
1897.621	8602
1899.73	8668
1901.837	8845
1903.944	8733
1906.053	8732
1908.159	8734
1910.265	8873
1912.369	8776
1914.474	8763
1916.577	8804
1918.683	8803
1920.785	8796
1922.888	8792
1924.989	8800
1927.091	8741
1929.193	8874
1931.294	8783
1933.393	8793
1935.493	8754
1937.59	8872
1939.689	8843
1941.788	8820
1943.884	8838
1945.98	8766
1948.077	8892
1950.171	8756
1952.267	8683
1954.361	8896
1956.455	8828
1958.548	8778
1960.64	8826
1962.733	8840
1964.824	8842
1966.915	8734
1969.005	8733
1971.096	8734
1973.185	8896
1975.275	8678
1977.363	8829
1979.45	8798
1981.537	8722
1983.623	8737
1985.711	8715
1987.796	8735
1989.881	8772
1991.965	8827
1994.047	8879
1996.132	8739
1998.215	8756
2000.297	8703
2002.378	8828
2004.46	8645
2006.54	8648
2008.62	8686
2010.7	8790
2012.779	8635
2014.858	8727
2016.934	8644
2019.013	8750
2021.09	8613
2023.165	8598
2025.241	8846
2027.317	8748
2029.39	8701
2031.466	8721
2033.538	8792
2035.612	8747
2037.683	8724
2039.755	8656
2041.827	8734
2043.898	8651
2045.968	8774
2048.038	8679
2050.106	8760
2052.177	8652
2054.244	8787
2056.313	8759
2058.379	8739
2060.444	8747
2062.511	8722
2064.577	8904
2066.641	8775
2068.705	8794
2070.77	8983
2072.832	8647
2074.896	8706
2076.958	8759
2079.02	8702
2081.081	8636
2083.141	8760
2085.2	8717
2087.261	8814
2089.319	8774
2091.377	8717
2093.435	8735
2095.492	8878
2097.552	8782
2099.607	8715
2101.663	8542
2103.718	8832
2105.771	8703
2107.826	8884
2109.879	8711
2111.932	8854
2113.985	8853
2116.037	8775
2118.088	8736
2120.141	8536
2122.191	8840
2124.239	8822
2126.288	8808
2128.337	8778
2130.387	8723
2132.434	8757
2134.481	8785
2136.528	8847
2138.574	8869
2140.618	8702
2142.665	8765
2144.71	8740
2146.753	8862
2148.797	8752
2150.838	8653
2152.883	8555
2154.923	8783
2156.965	8713
2159.007	8833
2161.046	8709
2163.086	8901
2165.126	8705
2167.163	8688
2169.202	8598
2171.239	8626
2173.277	8738
2175.314	8665
2177.349	8724
2179.385	8698
2181.42	8832
2183.453	8671
2185.49	8545
2187.522	8705
2189.555	8598
2191.586	8666
2193.619	8608
2195.651	8610
2197.682	8651
2199.711	8518
2201.74	8537
2203.769	8552
2205.799	8629
2207.828	8666
2209.855	8615
2211.882	8602
2213.908	8616
2215.934	8596
2217.961	8623
2219.986	8492
2222.01	8583
2224.034	8561
2226.057	8706
2228.08	8367
2230.104	8631
2232.124	8637
2234.145	8585
2236.166	8746
2238.186	8587
2240.207	8526
2242.227	8649
2244.244	8706
2246.262	8525
2248.28	8603
2250.299	8621
2252.314	8454
2254.33	8671
2256.346	8534
2258.36	8674
2260.375	8519
2262.391	8538
2264.403	8510
2266.416	8525
2268.427	8686
2270.44	8577
2272.453	8583
2274.463	8643
2276.474	8643
2278.483	8600
2280.493	8582
2282.501	8615
2284.51	8533
2286.518	8651
2288.524	8586
2290.532	8523
2292.537	8539
2294.544	8571
2296.55	8580
2298.554	8590
2300.557	8575
2302.562	8552
2304.566	8491
2306.568	8601
2308.569	8455
2310.572	8665
2312.573	8604
2314.573	8595
2316.574	8560
2318.573	8565
2320.571	8462
2322.571	8442
2324.569	8471
2326.567	8556
2328.564	8468
2330.56	8433
2332.556	8434
2334.551	8530
2336.546	8379
2338.542	8384
2340.535	8467
2342.529	8562
2344.521	8581
2346.512	8360
2348.505	8518
2350.497	8431
2352.487	8340
2354.478	8514
2356.468	8513
2358.457	8487
2360.446	8374
2362.434	8510
2364.422	8436
2366.408	8566
2368.395	8415
2370.383	8517
2372.369	8534
2374.353	8402
2376.338	8419
2378.321	8386
2380.307	8389
2382.29	8223
2384.272	8305
2386.254	8523
2388.235	8368
2390.218	8467
2392.198	8354
2394.179	8349
2396.157	8396
2398.137	8393
2400.115	8229
2402.095	8451
2404.072	8388
2406.048	8417
2408.026	8303
2410.001	8431
2411.977	8416
2413.953	8314
2415.927	8316
2417.9	8214
2419.875	8219
2421.847	8426
2423.821	8432
2425.792	8400
2427.763	8389
2429.736	8364
2431.706	8353
2433.677	8377
2435.646	8370
2437.615	8357
2439.583	8354
2441.551	8322
2443.519	8362
2445.486	8304
2447.452	8358
2449.418	8283
2451.383	8327
2453.348	8353
2455.314	8262
2457.278	8362
2459.241	8278
2461.205	8314
2463.167	8267
2465.131	8334
2467.091	8385
2469.052	8273
2471.012	8381
2472.972	8330
2474.932	8252
2476.891	8348
2478.85	8211
2480.808	8245
2482.766	8245
2484.722	8273
2486.68	8311
2488.636	8389
2490.591	8197
2492.546	8155
2494.5	8280
2496.456	8383
2498.41	8349
2500.362	8188
2502.315	8219
2504.266	8228
2506.218	8163
2508.169	8155
2510.121	8153
2512.07	8205
2514.019	8278
2515.968	8158
2517.918	8070
2519.866	8199
2521.813	8206
2523.76	8125
2525.707	8205
2527.653	8306
2529.599	8088
2531.543	8141
2533.489	8190
2535.433	8148
2537.376	8125
2539.32	8312
2541.264	8137
2543.205	8120
2545.147	8245
2547.087	8181
2549.029	8086
2550.969	8185
2552.908	8299
2554.847	8106
2556.786	8195
2558.724	8235
2560.663	8233
2562.6	8206
2564.537	8305
2566.473	8032
2568.408	8237
2570.345	8164
2572.28	8265
2574.214	8150
2576.148	8151
2578.081	8290
2580.014	8258
2581.947	8214
2583.879	8278
2585.81	8246
2587.741	8297
2589.67	8095
2591.602	8277
2593.532	8273
2595.461	8217
2597.388	8356
2599.316	8182
2601.244	8258
2603.172	8179
2605.098	8204
2607.023	8187
2608.949	8264
2610.873	8282
2612.8	8115
2614.723	8166
2616.647	8159
2618.569	8292
2620.493	8184
2622.416	8218
2624.338	8156
2626.258	8361
2628.179	8185
2630.099	8333
2632.019	8276
2633.939	8347
2635.857	8192
2637.775	8323
2639.694	8185
2641.61	8306
2643.528	8307
2645.444	8093
2647.361	8222
2649.276	8318
2651.19	8309
2653.105	8194
2655.019	8416
2656.934	8250
2658.846	8199
2660.758	8313
2662.67	8278
2664.583	8278
2666.493	8178
2668.404	8189
2670.313	8193
2672.223	8125
2674.134	8102
2676.042	8249
2677.95	8119
2679.858	8182
2681.765	8213
2683.673	8107
2685.579	8208
2687.483	8152
2689.389	8263
2691.294	8183
2693.198	8098
2695.104	8264
2697.006	8158
2698.909	8183
2700.811	8140
2702.713	8225
2704.615	8268
2706.516	8108
2708.417	8131
2710.316	8148
2712.216	8137
2714.115	8163
2716.014	8050
2717.913	8189
2719.81	8066
2721.707	8157
2723.603	8105
2725.501	8005
2727.396	8147
2729.292	8097
2731.186	8009
2733.081	8242
2734.976	8164
2736.87	8053
2738.762	8098
2740.653	8105
2742.546	8046
2744.437	8164
2746.329	8124
2748.22	7972
2750.11	8136
2751.999	8056
2753.889	7966
2755.778	8095
2757.666	7992
2759.553	8060
2761.44	8126
2763.328	7993
2765.215	8105
2767.101	8038
2768.986	7979
2770.87	8045
2772.754	8004
2774.638	8034
2776.523	7902
2778.405	7930
2780.288	8102
2782.17	8118
2784.051	8086
2785.934	8106
2787.814	8120
2789.694	8063
2791.574	8106
2793.453	7952
2795.332	8045
2797.212	8017
2799.088	7919
2800.966	8065
2802.843	7967
2804.719	7924
2806.597	7939
2808.471	7942
2810.346	8013
2812.221	7985
2814.094	7976
2815.969	7959
2817.843	8011
2819.714	7928
2821.587	7884
2823.459	7967
2825.329	7963
2827.202	8007
2829.072	7998
2830.942	7871
2832.811	7966
2834.68	8034
2836.549	8030
2838.418	7986
2840.284	8046
2842.152	7893
2844.018	7920
2845.885	7892
2847.751	7956
2849.616	7975
2851.482	8037
2853.345	7988
2855.208	8001
2857.074	8069
2858.937	8077
2860.799	7887
2862.66	8127
2864.522	8083
2866.385	8018
2868.245	8190
2870.104	8136
2871.964	8282
2873.824	8313
2875.683	8263
2877.542	8385
2879.4	8359
2881.257	8357
2883.114	8235
2884.97	8469
2886.827	8308
2888.683	8380
2890.537	8427
2892.392	8395
2894.246	8225
2896.1	8328
2897.954	8329
2899.807	8431
2901.66	8455
2903.51	8252
2905.362	8276
2907.214	8448
2909.065	8281
2910.915	8316
2912.765	8364
2914.613	8443
2916.463	8430
2918.311	8591
2920.158	8454
2922.006	8584
2923.853	8613
2925.698	8625
2927.546	8558
2929.392	8652
2931.236	8745
2933.081	8793
2934.924	8695
2936.77	8727
2938.613	8818
2940.455	8902
2942.298	8957
2944.139	8937
2945.982	8967
2947.823	8796
2949.662	8962
2951.503	8890
2953.342	8922
2955.182	8882
2957.021	8804
2958.858	8842
2960.697	8761
2962.534	8576
2964.37	8603
2966.207	8549
2968.044	8508
2969.879	8450
2971.714	8453
2973.548	8358
2975.383	8465
2977.218	8368
2979.051	8236
2980.883	8239
2982.715	8290
2984.547	8301
2986.379	8235
2988.21	8260
2990.04	8178
2991.87	8160
2993.7	8141
2995.53	8024
2997.359	8073
2999.187	8005
3001.015	7943
3002.842	8015
3004.669	8052
3006.497	7978
3008.323	7973
3010.148	7898
3011.974	7734
3013.797	7922
3015.623	7860
3017.447	7660
3019.27	7688
3021.094	7794
3022.915	7704
3024.737	7645
3026.56	7698
3028.38	7777
3030.201	7596
3032.022	7709
3033.84	7787
3035.662	7646
3037.481	7609
3039.298	7577
3041.117	7546
3042.933	7647
3044.752	7575
3046.568	7601
3048.385	7621
3050.2	7585
3052.016	7587
3053.83	7674
3055.646	7582
3057.46	7604
3059.272	7521
3061.086	7584
3062.898	7656
3064.711	7549
3066.524	7591
3068.335	7658
3070.145	7522
3071.956	7546
3073.766	7504
3075.576	7471
3077.385	7441
3079.193	7435
3081.002	7511
3082.81	7409
3084.618	7328
3086.425	7379
3088.231	7393
3090.036	7398
3091.842	7464
3093.648	7410
3095.452	7443
3097.257	7387
3099.06	7370
3100.863	7318
3102.666	7476
3104.47	7412
3106.272	7401
3108.073	7497
3109.875	7353
3111.676	7361
3113.477	7342
3115.277	7202
3117.077	7389
3118.874	7245
3120.673	7408
3122.473	7248
3124.271	7291
3126.066	7226
3127.863	7331
3129.66	7263
3131.456	7308
3133.252	7263
3135.047	7375
3136.842	7196
3138.635	7300
3140.429	7218
3142.223	7190
3144.016	7173
3145.808	7249
3147.6	7236
3149.392	7078
3151.183	7257
3152.975	7303
3154.765	7158
3156.553	7135
3158.344	7255
3160.132	7262
3161.922	7161
3163.71	7296
3165.497	7143
3167.285	7182
3169.071	7072
3170.858	7149
3172.645	7126
3174.429	7075
3176.214	7137
3177.998	7170
3179.783	7176
3181.568	7177
3183.351	7190
3185.133	7003
3186.915	7005
3188.698	7085
3190.481	7180
3192.261	7123
3194.042	7064
3195.822	7007
3197.601	7223
3199.381	7061
3201.161	7119
3202.939	7038
3204.717	7035
3206.495	7146
3208.272	7066
3210.05	7087
3211.826	7068
3213.602	7131
3215.376	7108
3217.151	7017
3218.927	7092
3220.702	7069
3222.476	7046
3224.249	7110
3226.021	6985
3227.793	7073
3229.567	7025
3231.339	7120
3233.109	6962
3234.88	7025
3236.651	7078
3238.421	7045
3240.191	7053
3241.96	7096
3243.728	7084
3245.497	7026
3247.263	7021
3249.033	7006
3250.799	6878
3252.566	6939
3254.331	6973
3256.097	6914
3257.863	7028
3259.628	7082
3261.392	7039
3263.156	7038
3264.919	7028
3266.683	6917
3268.447	7010
3270.208	7022
3271.969	7003
3273.731	7150
3275.492	7013
3277.253	6943
3279.013	6843
3280.773	6916
3282.532	7051
3284.291	7042
3286.05	7006
3287.808	6886
3289.566	7013
3291.323	6999
3293.079	7030
3294.835	6948
3296.593	7087
3298.348	6949
3300.102	6947
3301.857	6970
3303.611	7120
3305.366	6905
3307.119	6958
3308.872	6972
3310.624	7019
3312.376	6995
3314.129	6967
3315.881	7002
3317.631	6974
3319.38	6978
3321.13	6917
3322.88	6906
3324.631	6978
3326.379	6975
3328.126	7091
3329.875	6913
3331.622	6805
3333.371	7090
3335.116	6867
3336.863	6880
3338.609	6927
3340.353	6944
3342.1	7063
3343.845	6826
3345.588	6828
3347.332	6939
3349.074	6895
3350.817	6835
3352.56	6900
3354.303	6858
3356.043	6885
3357.785	6968
3359.525	6962
3361.268	6799
3363.007	6833
3364.745	6799
3366.485	6881
3368.223	6839
3369.962	6739
3371.701	6867
3373.438	6786
3375.174	6866
3376.911	6761
3378.647	6852
3380.384	6780
3382.118	6873
3383.854	6772
3385.588	6746
3387.322	6883
3389.057	6735
3390.79	6778
3392.522	6596
3394.255	6735
3395.987	6719
3397.719	6731
3399.451	6765
3401.181	6831
3402.911	6676
3404.641	6781
3406.371	6571
3408.101	6797
3409.83	6742
3411.558	6624
3413.285	6790
3415.011	6574
3416.739	6653
3418.467	6646
3420.193	6692
3421.919	6791
3423.644	6697
3425.368	6621
3427.094	6701
3428.818	6675
3430.542	6688
3432.264	6804
3433.987	6687
3435.712	6676
3437.434	6602
3439.155	6613
3440.876	6575
3442.596	6545
3444.317	6554
3446.039	6619
3447.757	6483
3449.477	6614
3451.195	6624
3452.914	6607
3454.632	6627
3456.35	6584
3458.067	6468
3459.784	6549
3461.5	6476
3463.216	6516
3464.932	6441
3466.647	6488
3468.362	6435
3470.076	6545
3471.789	6468
3473.505	6532
3475.217	6461
3476.929	6397
3478.641	6537
3480.354	6534
3482.066	6392
3483.777	6473
3485.487	6455
3487.197	6491
3488.908	6483
3490.617	6542
3492.327	6394
3494.035	6354
3495.743	6340
3497.451	6334
3499.158	6385
3500.866	6408
3502.572	6291
3504.278	6320
3505.984	6407
3507.689	6348
3509.396	6387
3511.1	6422
3512.804	6293
3514.508	6328
3516.211	6297
3517.913	6258
3519.616	6331
3521.319	6322
3523.021	6358
3524.722	6348
3526.422	6336
3528.124	6248
3529.824	6329
3531.524	6260
3533.222	6273
3534.921	6333
3536.62	6308
3538.318	6216
3540.016	6219
3541.714	6264
3543.41	6274
3545.107	6397
3546.803	6338
3548.5	6219
3550.194	6253
3551.889	6209
3553.583	6237
3555.279	6211
3556.972	6191
3558.666	6220
3560.358	6303
3562.051	6273
3563.742	6172
3565.435	6267
3567.126	6154
3568.817	6216
3570.507	6174
3572.197	6133
3573.888	6168
3575.577	6223
3577.265	6141
3578.954	6167
3580.642	6145
3582.329	6095
3584.017	6108
3585.704	6119
3587.391	6065
3589.077	6215
3590.762	6048
3592.449	6077
3594.133	6051
3595.817	6015
3597.501	6182
3599.185	6041
3600.869	6047
3602.552	6012
3604.234	6022
3605.916	6088
3607.598	6061
3609.279	5960
3610.961	6002
3612.642	6142
3614.321	5926
3616	5993
3617.68	5927
3619.36	6038
3621.039	5998
3622.716	5979
3624.394	6054
3626.071	5880
3627.748	5952
3629.425	6039
3631.102	5858
3632.778	5905
3634.452	5904
3636.127	5902
3637.803	5984
3639.477	6002
3641.151	5911
3642.823	5862
3644.497	5891
3646.171	5800
3647.842	5834
3649.515	5825
3651.185	5781
3652.857	5783
3654.527	5873
3656.198	5822
3657.868	5818
3659.537	5927
3661.207	5762
3662.875	5772
3664.544	5893
3666.212	5802
3667.879	5784
3669.546	5755
3671.212	5722
3672.88	5797
3674.546	5782
3676.211	5809
3677.875	5788
3679.541	5909
3681.205	5798
3682.87	5810
3684.533	5781
3686.196	5856
3687.859	5829
3689.521	5702
3691.184	5774
3692.845	5781
3694.507	5721
3696.167	5790
3697.827	5753
3699.487	5800
3701.148	5723
3702.808	5746
3704.466	5759
3706.125	5783
3707.783	5740
3709.442	5676
3711.099	5751
3712.757	5695
3714.412	5718
3716.068	5664
3717.725	5713
3719.381	5680
3721.036	5585
3722.689	5718
3724.344	5606
3725.998	5680
3727.652	5756
3729.305	5667
3730.958	5715
3732.61	5606
3734.262	5656
3735.915	5600
3737.565	5690
3739.217	5575
3740.866	5621
3742.516	5597
3744.165	5732
3745.816	5633
3747.464	5652
3749.113	5650
3750.761	5474
3752.409	5589
3754.057	5662
3755.703	5633
3757.35	5552
3758.996	5663
3760.641	5661
3762.289	5628
3763.933	5592
3765.577	5636
3767.222	5624
3768.865	5555
3770.508	5615
3772.152	5642
3773.796	5538
3775.438	5528
3777.079	5638
3778.721	5579
3780.363	5533
3782.003	5547
3783.643	5483
3785.283	5619
3786.923	5474
3788.563	5524
3790.203	5493
3791.841	5409
3793.479	5571
3795.115	5521
3796.753	5350
3798.391	5455
3800.027	5399
3801.664	5418
3803.299	5471
3804.935	5478
3806.571	5306
3808.206	5414
3809.839	5460
3811.473	5426
3813.107	5403
3814.74	5450
3816.375	5422
3818.006	5454
3819.638	5235
3821.27	5323
3822.9	5378
3824.532	5349
3826.163	5464
3827.792	5312
3829.423	5500
3831.051	5294
3832.682	5375
3834.311	5438
3835.938	5370
3837.566	5440
3839.193	5341
3840.821	5333
3842.448	5402
3844.075	5281
3845.7	5379
3847.325	5346
3848.951	5337
3850.576	5207
3852.201	5287
3853.825	5283
3855.448	5266
3857.072	5243
3858.694	5307
3860.318	5207
3861.939	5161
3863.562	5296
3865.183	5190
3866.804	5313
3868.426	5368
3870.045	5320
3871.666	5232
3873.285	5244
3874.904	5222
3876.524	5179
3878.142	5258
3879.76	5262
3881.378	5182
3882.995	5199
3884.612	5193
3886.229	5248
3887.845	5220
3889.461	5176
3891.076	5177
3892.691	5158
3894.307	5257
3895.922	5032
3897.536	5190
3899.149	5167
3900.761	5168
3902.374	5170
3903.988	5232
3905.6	5174
3907.212	5175
3908.822	5249
3910.433	5150
3912.045	5228
3913.655	5181
3915.265	5132
3916.875	5148
3918.483	5115
3920.093	5102
3921.702	5168
3923.309	5238
3924.917	5218
3926.523	5206
3928.13	5183
3929.739	5136
3931.344	5101
3932.95	5103
3934.555	5170
3936.159	5126
3937.766	5093
3939.369	5032
3940.974	5114
3942.577	5062
3944.181	5152
3945.783	5090
3947.386	5092
3948.989	5058
3950.59	5134
3952.191	5006
3953.791	5059
3955.394	5126
3956.994	5123
3958.593	5104
3960.192	5068
3961.791	5137
3963.392	5099
3964.99	5125
3966.588	4976
3968.185	5126
3969.782	4983
3971.379	4982
3972.976	4990
3974.572	5038
3976.168	4981
3977.763	5073
3979.358	4950
3980.954	4997
3982.548	4903
3984.142	4896
3985.736	4947
3987.329	4964
3988.922	4977
3990.516	5023
3992.108	5000
3993.698	4969
3995.29	4834
3996.881	4876
3998.473	4899
4000.064	4909
4001.653	4874
4003.242	4890
4004.832	4904
4006.422	4829
4008.01	4806
4009.598	4940
4011.186	4835
4012.773	4791
4014.36	4959
4015.947	4926
4017.534	4889
4019.119	4853
4020.705	4778
4022.291	4797
4023.876	4844
4025.461	4860
4027.044	4790
4028.627	4871
4030.211	4830
4031.795	4762
4033.378	4841
4034.96	4727
4036.542	4794
4038.124	4771
4039.704	4823
4041.286	4762
4042.867	4729
4044.447	4748
4046.026	4814
4047.606	4867
4049.187	4692
4050.765	4732
4052.343	4742
4053.92	4769
4055.498	4755
4057.076	4700
4058.654	4673
4060.23	4697
4061.806	4672
4063.381	4737
4064.957	4726
4066.533	4741
4068.107	4778
4069.682	4733
4071.256	4775
4072.829	4648
4074.404	4750
4075.977	4712
4077.549	4693
4079.121	4604
4080.693	4747
4082.265	4683
4083.836	4699
4085.407	4756
4086.977	4671
4088.547	4664
4090.117	4674
4091.687	4609
4093.256	4584
4094.825	4621
4096.392	4680
4097.96	4648
4099.528	4665
4101.097	4554
4102.663	4655
4104.229	4585
4105.795	4697
4107.361	4563
4108.928	4488
4110.493	4596
4112.058	4576
4113.621	4591
4115.186	4585
4116.75	4588
4118.313	4587
4119.876	4435
4121.438	4543
4123	4534
4124.562	4497
4126.125	4608
4127.686	4506
4129.246	4566
4130.807	4520
4132.367	4597
4133.927	4473
4135.486	4519
4137.046	4570
4138.604	4513
4140.162	4505
4141.72	4471
4143.279	4456
4144.836	4544
4146.393	4481
4147.949	4470
4149.505	4492
4151.062	4563
4152.617	4422
4154.172	4422
4155.727	4438
4157.281	4408
4158.836	4476
4160.39	4407
4161.943	4398
4163.496	4395
4165.048	4428
4166.601	4434
4168.154	4415
4169.706	4383
4171.257	4339
4172.808	4457
4174.358	4369
4175.909	4294
4177.458	4382
4179.008	4363
4180.558	4303
4182.106	4301
4183.655	4423
4185.204	4346
4186.751	4378
4188.298	4219
4189.845	4313
4191.392	4345
4192.939	4400
4194.485	4351
4196.031	4277
4197.576	4299
4199.121	4355
4200.666	4355
4202.211	4218
4203.754	4274
4205.298	4303
4206.84	4253
4208.384	4316
4209.927	4278
4211.47	4270
4213.011	4302
4214.552	4318
4216.094	4240
4217.635	4293
4219.175	4241
4220.716	4311
4222.255	4255
4223.793	4264
4225.335	4200
4226.873	4246
4228.411	4342
4229.948	4236
4231.486	4266
4233.024	4251
4234.562	4223
4236.098	4223
4237.634	4262
4239.169	4220
4240.705	4169
4242.241	4253
4243.776	4221
4245.31	4176
4246.844	4213
4248.378	4289
4249.911	4246
4251.445	4185
4252.978	4193
4254.51	4110
4256.042	4163
4257.574	4242
4259.107	4169
4260.638	4225
4262.169	4202
4263.699	4183
4265.228	4157
4266.759	4183
4268.289	4139
4269.818	4202
4271.345	4171
4272.874	4130
4274.402	4126
4275.931	4157
4277.458	4168
4278.985	4135
4280.512	4245
4282.037	4099
4283.564	4148
4285.089	4118
4286.615	4190
4288.139	4117
4289.664	4143
4291.187	4122
4292.712	4036
4294.235	4068
4295.759	4144
4297.281	4220
4298.804	4122
4300.327	4145
4301.849	3996
4303.37	4054
4304.891	4034
4306.412	4112
4307.933	4127
4309.453	4050
4310.973	4051
4312.492	4030
