398.1873	3209
400.7097	3230
403.2336	3302
405.7547	3224
408.2751	3254
410.7948	3197
413.3138	3284
415.83	3239
418.3497	3346
420.8666	3371
423.3829	3368
425.8985	3410
428.4133	3330
430.9275	3336
433.441	3443
435.9538	3467
438.4639	3356
440.9753	3386
443.4881	3470
445.9982	3409
448.5055	3509
451.0142	3423
453.5201	3394
456.0274	3428
458.5361	3407
461.04	3401
463.5453	3493
466.0478	3391
468.5517	3383
471.0549	3363
473.5574	3444
476.0572	3372
478.5584	3446
481.0568	3493
483.5545	3473
486.0557	3517
488.5521	3465
491.0478	3557
493.5449	3467
496.0392	3508
498.5349	3462
501.0299	3438
503.5222	3521
506.0139	3531
508.5048	3541
510.9991	3602
513.4887	3555
515.9777	3545
518.4659	3519
520.9534	3602
523.4403	3575
525.9306	3553
528.4161	3549
530.9009	3556
533.3851	3694
535.8687	3594
538.3535	3593
540.8356	3560
543.3171	3533
545.7979	3543
548.278	3535
550.7595	3558
553.2383	3497
555.7144	3595
558.1918	3621
560.6685	3562
563.1446	3618
565.6221	3644
568.0968	3673
570.5688	3673
573.0422	3622
575.515	3688
577.989	3708
580.4584	3685
582.9291	3719
585.3991	3612
587.8685	3715
590.3352	3789
592.8052	3726
595.2706	3767
597.7372	3674
600.2033	3674
602.6666	3805
605.1334	3630
607.5953	3647
610.0587	3631
612.5193	3738
614.9814	3658
617.4427	3678
619.9034	3634
622.3615	3704
624.8208	3704
627.2775	3581
629.7335	3752
632.1929	3556
634.6476	3689
637.1016	3743
639.5569	3633
642.0096	3727
644.4637	3700
646.9151	3768
649.3678	3753
651.8179	3714
654.2672	3651
656.7159	3760
659.166	3729
661.6154	3753
664.0622	3730
666.5082	3666
668.9537	3814
671.4005	3831
673.8445	3781
676.288	3809
678.7308	3806
681.1729	3792
683.6163	3861
686.0572	3805
688.4973	3772
690.9368	3872
693.3757	3828
695.8138	3875
698.2534	3836
700.6902	3736
703.1245	3788
705.56	3739
707.9949	3844
710.4311	3873
712.8647	3846
715.2957	3868
717.7279	3846
720.1595	3918
722.5905	3862
725.0208	3906
727.4505	3935
729.8795	3951
732.3058	3930
734.7336	3935
737.1626	3907
739.587	3998
742.0128	3962
744.4359	3967
746.8604	3992
749.2841	4007
751.7073	4008
754.1278	4094
756.5496	3985
758.9688	4062
761.3893	4091
763.8093	3990
766.2285	4090
768.6451	4014
771.0611	4097
773.4784	4116
775.895	4032
778.3091	4138
780.7244	4085
783.1371	4142
785.5493	4047
787.9626	4051
790.3754	4037
792.7856	4024
795.1951	4035
797.6039	4157
800.0121	4077
802.4236	4016
804.8306	4172
807.2369	4062
809.6425	4061
812.0475	4118
814.4538	4172
816.8575	4050
819.2606	4097
821.663	4078
824.0648	4138
826.4659	4096
828.8683	4059
831.2682	4115
833.6674	4173
836.066	4136
838.4639	4140
840.8632	4162
843.2579	4210
845.6539	4139
848.0493	4100
850.444	4247
852.84	4182
855.2315	4161
857.6243	4200
860.0165	4145
862.4081	4126
864.797	4225
867.1892	4241
869.5789	4126
871.9659	4248
874.3542	4144
876.74	4095
879.129	4269
881.5155	4333
883.8994	4170
886.2845	4076
888.6671	4123
891.051	4213
893.4343	4167
895.8169	4172
898.197	4165
900.5783	4200
902.9571	4278
905.3372	4136
907.7167	4195
910.0936	4186
912.4698	4307
914.8474	4335
917.2244	4244
919.5987	4216
921.9744	4274
924.3475	4321
926.72	4353
929.0918	4321
931.4669	4423
933.8375	4363
936.2074	4399
938.5767	4398
940.9454	4410
943.3154	4455
945.6829	4511
948.0497	4636
950.4178	4641
952.7833	4819
955.1483	4849
957.5145	5023
959.8782	4991
962.2412	4934
964.6036	4981
966.9655	4839
969.3266	4726
971.6871	4582
974.0471	4581
976.4064	4486
978.765	4406
981.125	4365
983.4824	4392
985.8373	4330
988.1935	4373
990.549	4246
992.9039	4343
995.2602	4336
997.6119	4281
999.965	4280
1002.317	4412
1004.667	4288
1007.02	4279
1009.371	4370
1011.719	4319
1014.068	4376
1016.415	4385
1018.765	4359
1021.111	4307
1023.458	4236
1025.804	4370
1028.147	4327
1030.49	4356
1032.837	4452
1035.179	4435
1037.522	4360
1039.862	4469
1042.204	4429
1044.546	4335
1046.884	4401
1049.224	4471
1051.562	4423
1053.899	4413
1056.237	4329
1058.575	4370
1060.91	4439
1063.244	4431
1065.58	4513
1067.913	4490
1070.248	4467
1072.579	4414
1074.911	4450
1077.242	4426
1079.572	4481
1081.905	4458
1084.234	4468
1086.562	4450
1088.89	4377
1091.217	4456
1093.544	4402
1095.871	4461
1098.197	4412
1100.521	4502
1102.845	4414
1105.169	4413
1107.491	4455
1109.814	4418
1112.135	4485
1114.456	4446
1116.776	4469
1119.096	4453
1121.415	4515
1123.734	4554
1126.052	4499
1128.369	4499
1130.686	4524
1133.002	4455
1135.318	4526
1137.632	4499
1139.945	4434
1142.258	4424
1144.573	4464
1146.884	4539
1149.196	4445
1151.505	4461
1153.816	4499
1156.124	4438
1158.435	4556
1160.742	4456
1163.051	4511
1165.356	4425
1167.663	4554
1169.97	4477
1172.276	4482
1174.579	4438
1176.881	4490
1179.186	4436
1181.487	4520
1183.79	4514
1186.092	4512
1188.392	4471
1190.691	4443
1192.991	4531
1195.291	4533
1197.588	4524
1199.885	4339
1202.181	4470
1204.479	4555
1206.775	4467
1209.07	4450
1211.363	4525
1213.656	4521
1215.949	4568
1218.241	4580
1220.534	4537
1222.825	4489
1225.115	4613
1227.405	4607
1229.693	4528
1231.984	4503
1234.271	4724
1236.558	4598
1238.845	4537
1241.131	4623
1243.416	4573
1245.703	4680
1247.987	4684
1250.269	4610
1252.552	4791
1254.834	4563
1257.118	4713
1259.399	4614
1261.678	4668
1263.958	4684
1266.237	4663
1268.516	4702
1270.794	4682
1273.072	4682
1275.347	4666
1277.624	4707
1279.899	4664
1282.175	4637
1284.449	4593
1286.722	4611
1288.995	4558
1291.266	4599
1293.54	4624
1295.81	4601
1298.081	4569
1300.35	4596
1302.62	4549
1304.889	4610
1307.156	4644
1309.425	4620
1311.69	4576
1313.957	4631
1316.222	4653
1318.488	4570
1320.751	4569
1323.016	4611
1325.278	4639
1327.54	4595
1329.803	4563
1332.065	4597
1334.325	4549
1336.584	4615
1338.843	4642
1341.101	4600
1343.36	4647
1345.617	4642
1347.876	4626
1350.131	4702
1352.387	4585
1354.643	4580
1356.897	4612
1359.151	4661
1361.403	4673
1363.656	4699
1365.909	4584
1368.16	4644
1370.409	4692
1372.659	4635
1374.909	4660
1377.157	4685
1379.407	4606
1381.655	4679
1383.9	4647
1386.147	4584
1388.393	4714
1390.64	4587
1392.885	4656
1395.127	4629
1397.37	4720
1399.614	4687
1401.854	4696
1404.098	4684
1406.339	4627
1408.578	4698
1410.818	4707
1413.056	4684
1415.297	4760
1417.533	4736
1419.771	4676
1422.006	4781
1424.243	4718
1426.479	4744
1428.715	4824
1430.948	4779
1433.182	4832
1435.414	4787
1437.647	4797
1439.88	4774
1442.11	4873
1444.342	4802
1446.571	4812
1448.799	4908
1451.029	4735
1453.258	4870
1455.485	4929
1457.711	4870
1459.937	4938
1462.164	4799
1464.39	4780
1466.614	4818
1468.838	4829
1471.06	4750
1473.283	4728
1475.506	4800
1477.727	4770
1479.949	4647
1482.169	4703
1484.389	4729
1486.609	4758
1488.828	4753
1491.045	4656
1493.261	4821
1495.477	4699
1497.693	4658
1499.91	4638
1502.125	4637
1504.339	4725
1506.553	4569
1508.766	4676
1510.979	4727
1513.191	4732
1515.402	4682
1517.613	4649
1519.823	4703
1522.033	4709
1524.242	4691
1526.451	4635
1528.657	4659
1530.865	4716
1533.072	4683
1535.278	4759
1537.484	4713
1539.687	4620
1541.892	4811
1544.096	4702
1546.299	4690
1548.502	4817
1550.703	4783
1552.905	4754
1555.104	4757
1557.303	4766
1559.505	4691
1561.703	4693
1563.902	4653
1566.099	4737
1568.295	4785
1570.494	4792
1572.689	4725
1574.883	4836
1577.079	4850
1579.272	4828
1581.467	4845
1583.659	4832
1585.853	4802
1588.044	4848
1590.234	4897
1592.424	4921
1594.615	4838
1596.806	4912
1598.994	4845
1601.182	4833
1603.369	4806
1605.557	4846
1607.744	4838
1609.929	4891
1612.114	4869
1614.298	4862
1616.482	4879
1618.667	4848
1620.85	4828
1623.032	4961
1625.214	4903
1627.395	4874
1629.575	4908
1631.755	4966
1633.935	4908
1636.114	4993
1638.292	4918
1640.471	4928
1642.647	5032
1644.823	4890
1647	4954
1649.175	4905
1651.348	4969
1653.525	4881
1655.698	5019
1657.87	4994
1660.043	4920
1662.213	5072
1664.387	4930
1666.558	4894
1668.727	4957
1670.896	4929
1673.064	4889
1675.233	4919
1677.401	4972
1679.569	4840
1681.735	4920
1683.902	4963
1686.066	4905
1688.233	5015
1690.397	4934
1692.559	4923
1694.723	4926
1696.885	4889
1699.048	4910
1701.21	4904
1703.37	4820
1705.53	4847
1707.689	4957
1709.849	4831
1712.009	4901
1714.166	4966
1716.323	4816
1718.479	4852
1720.634	4765
1722.793	4882
1724.948	4910
1727.102	4866
1729.255	4942
1731.408	4874
1733.562	4864
1735.714	4830
1737.865	4824
1740.016	4867
1742.166	4953
1744.316	4959
1746.467	4901
1748.616	4981
1750.764	4970
1752.911	4868
1755.056	4998
1757.205	4901
1759.35	4862
1761.496	4862
1763.641	4943
1765.785	4831
1767.927	4945
1770.072	4931
1772.214	4956
1774.355	4932
1776.496	4949
1778.637	4876
1780.778	4905
1782.918	4873
1785.057	4993
1787.194	4966
1789.333	4872
1791.472	4943
1793.608	4850
1795.745	4944
1797.879	4980
1800.015	5014
1802.148	4899
1804.284	4975
1806.417	4914
1808.548	4938
1810.682	4931
1812.812	4991
1814.946	4955
1817.075	4977
1819.205	4878
1821.335	4904
1823.463	4986
1825.59	4980
1827.721	4895
1829.847	4875
1831.973	4924
1834.098	4891
1836.223	4912
1838.351	4893
1840.475	4918
1842.598	4951
1844.721	4922
1846.843	4855
1848.966	4965
1851.087	4929
1853.21	4933
1855.33	4902
1857.449	4970
1859.568	4868
1861.688	4878
1863.806	4916
1865.924	4955
1868.039	4896
1870.155	4983
1872.273	4960
1874.388	4828
1876.503	4913
1878.617	5012
1880.73	4813
1882.844	4898
1884.956	4922
1887.068	4906
1889.18	5010
1891.291	5006
1893.4	4890
1895.511	4958
1897.621	5016
1899.73	4995
1901.837	4860
1903.944	4994
1906.053	4950
1908.159	4930
1910.265	4991
1912.369	5043
1914.474	4999
1916.577	4997
1918.683	4958
1920.785	5092
1922.888	4999
1924.989	5003
1927.091	4971
1929.193	5068
1931.294	5060
1933.393	5056
1935.493	5051
1937.59	5019
1939.689	4976
1941.788	5093
1943.884	5051
1945.98	4981
1948.077	5089
1950.171	5145
1952.267	5028
1954.361	4962
1956.455	4995
1958.548	5044
1960.64	4987
1962.733	4982
1964.824	5026
1966.915	5109
1969.005	5101
1971.096	5000
1973.185	4983
1975.275	4954
1977.363	5130
1979.45	4942
1981.537	4962
1983.623	5053
1985.711	5061
1987.796	5048
1989.881	4955
1991.965	4861
1994.047	4947
1996.132	5061
1998.215	5074
2000.297	4991
2002.378	5022
2004.46	4959
2006.54	5070
2008.62	5011
2010.7	4914
2012.779	4960
2014.858	4952
2016.934	5012
2019.013	5012
2021.09	4889
2023.165	5031
2025.241	4986
2027.317	4938
2029.39	5030
2031.466	5031
2033.538	5005
2035.612	5032
2037.683	4942
2039.755	4971
2041.827	5136
2043.898	4899
2045.968	4957
2048.038	4980
2050.106	4982
2052.177	4909
2054.244	5060
2056.313	5034
2058.379	5058
2060.444	4991
2062.511	5024
2064.577	4969
2066.641	5064
2068.705	4997
2070.77	4980
2072.832	4948
2074.896	4906
2076.958	4963
2079.02	4992
2081.081	4980
2083.141	5038
2085.2	4980
2087.261	4931
2089.319	4961
2091.377	5036
2093.435	5117
2095.492	5039
2097.552	5004
2099.607	5045
2101.663	4942
2103.718	5046
2105.771	5028
2107.826	5008
2109.879	4988
2111.932	5120
2113.985	5002
2116.037	5021
2118.088	5088
2120.141	4985
2122.191	4982
2124.239	5014
2126.288	4947
2128.337	5095
2130.387	4982
2132.434	5067
2134.481	5023
2136.528	4997
2138.574	5134
2140.618	5012
2142.665	4964
2144.71	5010
2146.753	5065
2148.797	5068
2150.838	4983
2152.883	5045
2154.923	5065
2156.965	4948
2159.007	4958
2161.046	5018
2163.086	4890
2165.126	5006
2167.163	5031
2169.202	4991
2171.239	5022
2173.277	5007
2175.314	5029
2177.349	4903
2179.385	4996
2181.42	4992
2183.453	4998
2185.49	4918
2187.522	4990
2189.555	4927
2191.586	4905
2193.619	4940
2195.651	4924
2197.682	4970
2199.711	4906
2201.74	4896
2203.769	4923
2205.799	4963
2207.828	4962
2209.855	4825
2211.882	4959
2213.908	4986
2215.934	4912
2217.961	4941
2219.986	4860
2222.01	4969
2224.034	4953
2226.057	4950
2228.08	4946
2230.104	4887
2232.124	4897
2234.145	4831
2236.166	4906
2238.186	4892
2240.207	4798
2242.227	4931
2244.244	4871
2246.262	4902
2248.28	4968
2250.299	4854
2252.314	4931
2254.33	4904
2256.346	4938
2258.36	4923
2260.375	4998
2262.391	4883
2264.403	4879
2266.416	4935
2268.427	4895
2270.44	4949
2272.453	5080
2274.463	4920
2276.474	4991
2278.483	4911
2280.493	4855
2282.501	4950
2284.51	4896
2286.518	4921
2288.524	4867
2290.532	4915
2292.537	4884
2294.544	5005
2296.55	4979
2298.554	4931
2300.557	4975
2302.562	4940
2304.566	4813
2306.568	4916
2308.569	4834
2310.572	5009
2312.573	4945
2314.573	4865
2316.574	4852
2318.573	4928
2320.571	4974
2322.571	4919
2324.569	4798
2326.567	4882
2328.564	4922
2330.56	4832
2332.556	4977
2334.551	4864
2336.546	4895
2338.542	4884
2340.535	4896
2342.529	4894
2344.521	4805
2346.512	4862
2348.505	4924
2350.497	4898
2352.487	4840
2354.478	4883
2356.468	4893
2358.457	4747
2360.446	4941
2362.434	4847
2364.422	4846
2366.408	4828
2368.395	4807
2370.383	4840
2372.369	4847
2374.353	4884
2376.338	4737
2378.321	4767
2380.307	4917
2382.29	4910
2384.272	4950
2386.254	4701
2388.235	4819
2390.218	4783
2392.198	4828
2394.179	4757
2396.157	4741
2398.137	4790
2400.115	4754
2402.095	4837
2404.072	4790
2406.048	4867
2408.026	4821
2410.001	4769
2411.977	4746
2413.953	4773
2415.927	4831
2417.9	4810
2419.875	4784
2421.847	4761
2423.821	4850
2425.792	4754
2427.763	4788
2429.736	4769
2431.706	4812
2433.677	4796
2435.646	4823
2437.615	4822
2439.583	4793
2441.551	4897
2443.519	4888
2445.486	4715
2447.452	4912
2449.418	4841
2451.383	4723
2453.348	4796
2455.314	4798
2457.278	4767
2459.241	4871
2461.205	4716
2463.167	4874
2465.131	4736
2467.091	4861
2469.052	4768
2471.012	4742
2472.972	4849
2474.932	4725
2476.891	4752
2478.85	4769
2480.808	4674
2482.766	4732
2484.722	4791
2486.68	4787
2488.636	4813
2490.591	4694
2492.546	4785
2494.5	4760
2496.456	4694
2498.41	4729
2500.362	4687
2502.315	4760
2504.266	4763
2506.218	4815
2508.169	4727
2510.121	4789
2512.07	4786
2514.019	4791
2515.968	4762
2517.918	4750
2519.866	4707
2521.813	4676
2523.76	4779
2525.707	4707
2527.653	4725
2529.599	4725
2531.543	4742
2533.489	4748
2535.433	4597
2537.376	4757
2539.32	4786
2541.264	4722
2543.205	4713
2545.147	4765
2547.087	4746
2549.029	4646
2550.969	4733
2552.908	4716
2554.847	4775
2556.786	4729
2558.724	4788
2560.663	4730
2562.6	4614
2564.537	4716
2566.473	4726
2568.408	4688
2570.345	4740
2572.28	4770
2574.214	4696
2576.148	4756
2578.081	4775
2580.014	4741
2581.947	4758
2583.879	4778
2585.81	4712
2587.741	4844
2589.67	4724
2591.602	4795
2593.532	4740
2595.461	4764
2597.388	4759
2599.316	4705
2601.244	4740
2603.172	4802
2605.098	4770
2607.023	4738
2608.949	4683
2610.873	4762
2612.8	4861
2614.723	4747
2616.647	4765
2618.569	4793
2620.493	4676
2622.416	4741
2624.338	4686
2626.258	4674
2628.179	4754
2630.099	4800
2632.019	4774
2633.939	4831
2635.857	4728
2637.775	4824
2639.694	4739
2641.61	4784
2643.528	4771
2645.444	4756
2647.361	4775
2649.276	4821
2651.19	4745
2653.105	4710
2655.019	4774
2656.934	4728
2658.846	4806
2660.758	4783
2662.67	4783
2664.583	4747
2666.493	4728
2668.404	4732
2670.313	4747
2672.223	4717
2674.134	4761
2676.042	4762
2677.95	4684
2679.858	4730
2681.765	4750
2683.673	4692
2685.579	4724
2687.483	4763
2689.389	4693
2691.294	4649
2693.198	4698
2695.104	4684
2697.006	4714
2698.909	4680
2700.811	4730
2702.713	4699
2704.615	4730
2706.516	4677
2708.417	4681
2710.316	4689
2712.216	4565
2714.115	4672
2716.014	4724
2717.913	4710
2719.81	4710
2721.707	4677
2723.603	4723
2725.501	4651
2727.396	4581
2729.292	4593
2731.186	4744
2733.081	4798
2734.976	4674
2736.87	4727
2738.762	4570
2740.653	4641
2742.546	4677
2744.437	4666
2746.329	4678
2748.22	4719
2750.11	4616
2751.999	4594
2753.889	4779
2755.778	4647
2757.666	4672
2759.553	4685
2761.44	4623
2763.328	4583
2765.215	4712
2767.101	4663
2768.986	4622
2770.87	4619
2772.754	4633
2774.638	4610
2776.523	4662
2778.405	4621
2780.288	4590
2782.17	4668
2784.051	4611
2785.934	4674
2787.814	4663
2789.694	4719
2791.574	4603
2793.453	4563
2795.332	4681
2797.212	4592
2799.088	4595
2800.966	4660
2802.843	4671
2804.719	4552
2806.597	4565
2808.471	4603
2810.346	4640
2812.221	4605
2814.094	4660
2815.969	4660
2817.843	4511
2819.714	4622
2821.587	4554
2823.459	4553
2825.329	4660
2827.202	4652
2829.072	4610
2830.942	4558
2832.811	4671
2834.68	4622
2836.549	4551
2838.418	4656
2840.284	4669
2842.152	4546
2844.018	4674
2845.885	4583
2847.751	4593
2849.616	4681
2851.482	4600
2853.345	4722
2855.208	4618
2857.074	4666
2858.937	4669
2860.799	4628
2862.66	4687
2864.522	4684
2866.385	4684
2868.245	4743
2870.104	4707
2871.964	4671
2873.824	4840
2875.683	4711
2877.542	4873
2879.4	4823
2881.257	4801
2883.114	4783
2884.97	4881
2886.827	4819
2888.683	4757
2890.537	4888
2892.392	4815
2894.246	4855
2896.1	4772
2897.954	4854
2899.807	4752
2901.66	4873
2903.51	4797
2905.362	4852
2907.214	4765
2909.065	4864
2910.915	4807
2912.765	4862
2914.613	4880
2916.463	4844
2918.311	4952
2920.158	4909
2922.006	4953
2923.853	4942
2925.698	4995
2927.546	5110
2929.392	5022
2931.236	5078
2933.081	5111
2934.924	5178
2936.77	5024
2938.613	5171
2940.455	5165
2942.298	5054
2944.139	5142
2945.982	5232
2947.823	5172
2949.662	5214
2951.503	5220
2953.342	5009
2955.182	5217
2957.021	5050
2958.858	5091
2960.697	5022
2962.534	5121
2964.37	5086
2966.207	4912
2968.044	4928
2969.879	4890
2971.714	4874
2973.548	4882
2975.383	4824
2977.218	4879
2979.051	4861
2980.883	4761
2982.715	4811
2984.547	4820
2986.379	4757
2988.21	4695
2990.04	4818
2991.87	4645
2993.7	4696
2995.53	4673
2997.359	4607
2999.187	4657
3001.015	4544
3002.842	4637
3004.669	4502
3006.497	4612
3008.323	4577
3010.148	4505
3011.974	4494
3013.797	4509
3015.623	4476
3017.447	4416
3019.27	4491
3021.094	4403
3022.915	4426
3024.737	4413
3026.56	4504
3028.38	4535
3030.201	4357
3032.022	4548
3033.84	4436
3035.662	4440
3037.481	4382
3039.298	4431
3041.117	4446
3042.933	4305
3044.752	4327
3046.568	4399
3048.385	4408
3050.2	4482
3052.016	4356
3053.83	4344
3055.646	4442
3057.46	4285
3059.272	4339
3061.086	4384
3062.898	4434
3064.711	4350
3066.524	4356
3068.335	4343
3070.145	4446
3071.956	4336
3073.766	4370
3075.576	4388
3077.385	4431
3079.193	4341
3081.002	4300
3082.81	4320
3084.618	4415
3086.425	4337
3088.231	4324
3090.036	4234
3091.842	4301
3093.648	4260
3095.452	4284
3097.257	4291
3099.06	4239
3100.863	4324
3102.666	4258
3104.47	4286
3106.272	4255
3108.073	4282
3109.875	4294
3111.676	4287
3113.477	4207
3115.277	4303
3117.077	4186
3118.874	4244
3120.673	4319
3122.473	4228
3124.271	4180
3126.066	4253
3127.863	4227
3129.66	4236
3131.456	4219
3133.252	4170
3135.047	4292
3136.842	4197
3138.635	4212
3140.429	4251
3142.223	4268
3144.016	4114
3145.808	4171
3147.6	4195
3149.392	4187
3151.183	4230
3152.975	4140
3154.765	4111
3156.553	4297
3158.344	4203
3160.132	4125
3161.922	4252
3163.71	4189
3165.497	4204
3167.285	4148
3169.071	4185
3170.858	4173
3172.645	4143
3174.429	4230
3176.214	4194
3177.998	4030
3179.783	4080
3181.568	4148
3183.351	4095
3185.133	4114
3186.915	4161
3188.698	4172
3190.481	4099
3192.261	4116
3194.042	4165
3195.822	4173
3197.601	4181
3199.381	4123
3201.161	4113
3202.939	4077
3204.717	4032
3206.495	4113
3208.272	4110
3210.05	4096
3211.826	4150
3213.602	4102
3215.376	4090
3217.151	4151
3218.927	4023
3220.702	4089
3222.476	4086
3224.249	4135
3226.021	4049
3227.793	4133
3229.567	4126
3231.339	4155
3233.109	4145
3234.88	4032
3236.651	4075
3238.421	4076
3240.191	4138
3241.96	4162
3243.728	4152
3245.497	4078
3247.263	4013
3249.033	4117
3250.799	4080
3252.566	4097
3254.331	4136
3256.097	4032
3257.863	4100
3259.628	4127
3261.392	4175
3263.156	4052
3264.919	3979
3266.683	4058
3268.447	4098
3270.208	4072
3271.969	4170
3273.731	3971
3275.492	4036
3277.253	4080
3279.013	4009
3280.773	4110
3282.532	4027
3284.291	4066
3286.05	4027
3287.808	4074
3289.566	4052
3291.323	4104
3293.079	4028
3294.835	4013
3296.593	4037
3298.348	4086
3300.102	4006
3301.857	4004
3303.611	4098
3305.366	4090
3307.119	4085
3308.872	4102
3310.624	4036
3312.376	3993
3314.129	4099
3315.881	4116
3317.631	4078
3319.38	4079
3321.13	4040
3322.88	4058
3324.631	4028
3326.379	4124
3328.126	4103
3329.875	4139
3331.622	4045
3333.371	4077
3335.116	4068
3336.863	3950
3338.609	3983
3340.353	3998
3342.1	4004
3343.845	4084
3345.588	4028
3347.332	3965
3349.074	4036
3350.817	4060
3352.56	4030
3354.303	4027
3356.043	3984
3357.785	3972
3359.525	4019
3361.268	3994
3363.007	3967
3364.745	3989
3366.485	4040
3368.223	4007
3369.962	3922
3371.701	3997
3373.438	3936
3375.174	3938
3376.911	4020
3378.647	4003
3380.384	3948
3382.118	3887
3383.854	3862
3385.588	3904
3387.322	4021
3389.057	3984
3390.79	3905
3392.522	3960
3394.255	3922
3395.987	3908
3397.719	3901
3399.451	3996
3401.181	3987
3402.911	3923
3404.641	3908
3406.371	3951
3408.101	3997
3409.83	4059
3411.558	3862
3413.285	3913
3415.011	3942
3416.739	3958
3418.467	3841
3420.193	3892
3421.919	3972
3423.644	3914
3425.368	3860
3427.094	3966
3428.818	3881
3430.542	3859
3432.264	3802
3433.987	3949
3435.712	3868
3437.434	3894
3439.155	3903
3440.876	3868
3442.596	3852
3444.317	3775
3446.039	3806
3447.757	3919
3449.477	3870
3451.195	3788
3452.914	3881
3454.632	3856
3456.35	3800
3458.067	3795
3459.784	3829
3461.5	3815
3463.216	3846
3464.932	3825
3466.647	3825
3468.362	3806
3470.076	3829
3471.789	3770
3473.505	3825
3475.217	3817
3476.929	3771
3478.641	3749
3480.354	3727
3482.066	3790
3483.777	3839
3485.487	3757
3487.197	3783
3488.908	3779
3490.617	3725
3492.327	3723
3494.035	3741
3495.743	3736
3497.451	3798
3499.158	3762
3500.866	3788
3502.572	3682
3504.278	3788
3505.984	3822
3507.689	3708
3509.396	3773
3511.1	3660
3512.804	3711
3514.508	3692
3516.211	3720
3517.913	3724
3519.616	3687
3521.319	3742
3523.021	3734
3524.722	3660
3526.422	3712
3528.124	3674
3529.824	3744
3531.524	3743
3533.222	3669
3534.921	3570
3536.62	3759
3538.318	3737
3540.016	3661
3541.714	3621
3543.41	3587
3545.107	3666
3546.803	3629
3548.5	3599
3550.194	3633
3551.889	3715
3553.583	3629
3555.279	3600
3556.972	3702
3558.666	3646
3560.358	3621
3562.051	3627
3563.742	3576
3565.435	3533
3567.126	3670
3568.817	3616
3570.507	3647
3572.197	3555
3573.888	3626
3575.577	3713
3577.265	3629
3578.954	3633
3580.642	3560
3582.329	3645
3584.017	3553
3585.704	3622
3587.391	3596
3589.077	3567
3590.762	3583
3592.449	3597
3594.133	3537
3595.817	3524
3597.501	3588
3599.185	3547
3600.869	3599
3602.552	3474
3604.234	3518
3605.916	3560
3607.598	3550
3609.279	3494
3610.961	3484
3612.642	3534
3614.321	3476
3616	3533
3617.68	3386
3619.36	3462
3621.039	3482
3622.716	3539
3624.394	3491
3626.071	3441
3627.748	3480
3629.425	3462
3631.102	3460
3632.778	3428
3634.452	3456
3636.127	3511
3637.803	3460
3639.477	3363
3641.151	3437
3642.823	3456
3644.497	3390
3646.171	3428
3647.842	3534
3649.515	3501
3651.185	3484
3652.857	3408
3654.527	3506
3656.198	3430
3657.868	3391
3659.537	3367
3661.207	3409
3662.875	3367
3664.544	3501
3666.212	3444
3667.879	3391
3669.546	3424
3671.212	3460
3672.88	3408
3674.546	3368
3676.211	3433
3677.875	3378
3679.541	3461
3681.205	3443
3682.87	3395
3684.533	3443
3686.196	3349
3687.859	3334
3689.521	3485
3691.184	3378
3692.845	3458
3694.507	3316
3696.167	3434
3697.827	3353
3699.487	3377
3701.148	3355
3702.808	3366
3704.466	3338
3706.125	3337
3707.783	3330
3709.442	3312
3711.099	3354
3712.757	3362
3714.412	3381
3716.068	3192
3717.725	3269
3719.381	3386
3721.036	3321
3722.689	3343
3724.344	3369
3725.998	3376
3727.652	3344
3729.305	3301
3730.958	3292
3732.61	3318
3734.262	3368
3735.915	3275
3737.565	3301
3739.217	3342
3740.866	3230
3742.516	3288
3744.165	3353
3745.816	3281
3747.464	3286
3749.113	3244
3750.761	3289
3752.409	3359
3754.057	3295
3755.703	3276
3757.35	3264
3758.996	3295
3760.641	3266
3762.289	3339
3763.933	3276
3765.577	3316
3767.222	3272
3768.865	3229
3770.508	3286
3772.152	3292
3773.796	3302
3775.438	3300
3777.079	3255
3778.721	3312
3780.363	3206
3782.003	3271
3783.643	3239
3785.283	3271
3786.923	3151
3788.563	3238
3790.203	3258
3791.841	3247
3793.479	3231
3795.115	3251
3796.753	3272
3798.391	3212
3800.027	3231
3801.664	3233
3803.299	3174
3804.935	3277
3806.571	3177
3808.206	3123
3809.839	3166
3811.473	3230
3813.107	3158
3814.74	3147
3816.375	3179
3818.006	3219
3819.638	3251
3821.27	3201
3822.9	3187
3824.532	3161
3826.163	3145
3827.792	3203
3829.423	3104
3831.051	3191
3832.682	3134
3834.311	3193
3835.938	3135
3837.566	3155
3839.193	3166
3840.821	3176
3842.448	3182
3844.075	3156
3845.7	3090
3847.325	3167
3848.951	3143
3850.576	3106
3852.201	3048
3853.825	3180
3855.448	3157
3857.072	3118
3858.694	3098
3860.318	3194
3861.939	3068
3863.562	3110
3865.183	3108
3866.804	3034
3868.426	3038
3870.045	3076
3871.666	3085
3873.285	3170
3874.904	3096
3876.524	3070
3878.142	3106
3879.76	3147
3881.378	3052
3882.995	3095
3884.612	3113
3886.229	3113
3887.845	3111
3889.461	3098
3891.076	3072
3892.691	3119
3894.307	3115
3895.922	3061
3897.536	3012
3899.149	3054
3900.761	3046
3902.374	3053
3903.988	3071
3905.6	3117
3907.212	3037
3908.822	3124
3910.433	3068
3912.045	3031
3913.655	3049
3915.265	3072
3916.875	3124
3918.483	3043
3920.093	3033
3921.702	3054
3923.309	3025
3924.917	3020
3926.523	3064
3928.13	3051
3929.739	2993
3931.344	3126
3932.95	3035
3934.555	2976
3936.159	3050
3937.766	3061
3939.369	3004
3940.974	3067
3942.577	3032
3944.181	3031
3945.783	3005
3947.386	2991
3948.989	2994
3950.59	3016
3952.191	3009
3953.791	2946
3955.394	2976
3956.994	3027
3958.593	3022
3960.192	2967
3961.791	2943
3963.392	3069
3964.99	3011
3966.588	2961
3968.185	2945
3969.782	2983
3971.379	2972
3972.976	2955
3974.572	2998
3976.168	2980
3977.763	2983
3979.358	2985
3980.954	2983
3982.548	3016
3984.142	2930
3985.736	2911
3987.329	2906
3988.922	2958
3990.516	2861
3992.108	2902
3993.698	2912
3995.29	2919
3996.881	2902
3998.473	2904
4000.064	2887
4001.653	2961
4003.242	2820
4004.832	2929
4006.422	2886
4008.01	2976
4009.598	2958
4011.186	2861
4012.773	2876
4014.36	2907
4015.947	2881
4017.534	2873
4019.119	2895
4020.705	2906
4022.291	2869
4023.876	2860
4025.461	2912
4027.044	2835
4028.627	2821
4030.211	2868
4031.795	2844
4033.378	2846
4034.96	2901
4036.542	2836
4038.124	2846
4039.704	2914
4041.286	2857
4042.867	2939
4044.447	2884
4046.026	2848
4047.606	2834
4049.187	2844
4050.765	2848
4052.343	2964
4053.92	2838
4055.498	2842
4057.076	2850
4058.654	2833
4060.23	2865
4061.806	2864
4063.381	2779
4064.957	2792
4066.533	2788
4068.107	2831
4069.682	2792
4071.256	2865
4072.829	2782
4074.404	2780
4075.977	2780
4077.549	2807
4079.121	2739
4080.693	2790
4082.265	2825
4083.836	2716
4085.407	2693
4086.977	2781
4088.547	2779
4090.117	2821
4091.687	2780
4093.256	2785
4094.825	2772
4096.392	2749
4097.96	2705
4099.528	2754
4101.097	2789
4102.663	2757
4104.229	2768
4105.795	2741
4107.361	2750
4108.928	2720
4110.493	2720
4112.058	2783
4113.621	2795
4115.186	2690
4116.75	2759
4118.313	2722
4119.876	2707
4121.438	2713
4123	2693
4124.562	2709
4126.125	2709
4127.686	2751
4129.246	2695
4130.807	2717
4132.367	2756
4133.927	2710
4135.486	2649
4137.046	2703
4138.604	2778
4140.162	2731
4141.72	2743
4143.279	2650
4144.836	2667
4146.393	2693
4147.949	2685
4149.505	2673
4151.062	2739
4152.617	2675
4154.172	2629
4155.727	2667
4157.281	2688
4158.836	2637
4160.39	2715
4161.943	2597
4163.496	2657
4165.048	2692
4166.601	2659
4168.154	2648
4169.706	2687
4171.257	2605
4172.808	2668
4174.358	2626
4175.909	2673
4177.458	2611
4179.008	2615
4180.558	2674
4182.106	2644
4183.655	2605
4185.204	2593
4186.751	2562
4188.298	2586
4189.845	2530
4191.392	2601
4192.939	2564
4194.485	2580
4196.031	2653
4197.576	2560
4199.121	2586
4200.666	2578
4202.211	2624
4203.754	2545
4205.298	2644
4206.84	2589
4208.384	2526
4209.927	2569
4211.47	2581
4213.011	2537
4214.552	2595
4216.094	2641
4217.635	2601
4219.175	2513
4220.716	2564
4222.255	2543
4223.793	2515
4225.335	2550
4226.873	2535
4228.411	2600
4229.948	2505
4231.486	2529
4233.024	2567
4234.562	2529
4236.098	2507
4237.634	2573
4239.169	2554
4240.705	2524
4242.241	2464
4243.776	2567
4245.31	2495
4246.844	2489
4248.378	2524
4249.911	2566
4251.445	2499
4252.978	2513
4254.51	2539
4256.042	2497
4257.574	2489
4259.107	2530
4260.638	2525
4262.169	2525
4263.699	2474
4265.228	2532
4266.759	2526
4268.289	2472
4269.818	2543
4271.345	2506
4272.874	2507
4274.402	2473
4275.931	2453
4277.458	2416
4278.985	2473
4280.512	2426
4282.037	2494
4283.564	2438
4285.089	2475
4286.615	2544
4288.139	2454
4289.664	2506
4291.187	2438
4292.712	2467
4294.235	2493
4295.759	2427
4297.281	2463
4298.804	2482
4300.327	2508
4301.849	2472
4303.37	2478
4304.891	2463
4306.412	2475
4307.933	2431
4309.453	2472
4310.973	2410
4312.492	2475
