398.1873	4080
400.7097	4122
403.2336	4072
405.7547	4153
408.2751	4061
410.7948	4095
413.3138	4177
415.83	4110
418.3497	4203
420.8666	4318
423.3829	4318
425.8985	4204
428.4133	4318
430.9275	4413
433.441	4325
435.9538	4354
438.4639	4417
440.9753	4311
443.4881	4351
445.9982	4384
448.5055	4351
451.0142	4305
453.5201	4449
456.0274	4370
458.5361	4298
461.04	4341
463.5453	4384
466.0478	4371
468.5517	4351
471.0549	4393
473.5574	4362
476.0572	4403
478.5584	4302
481.0568	4431
483.5545	4486
486.0557	4354
488.5521	4349
491.0478	4502
493.5449	4448
496.0392	4530
498.5349	4487
501.0299	4459
503.5222	4432
506.0139	4465
508.5048	4419
510.9991	4583
513.4887	4561
515.9777	4511
518.4659	4485
520.9534	4489
523.4403	4573
525.9306	4551
528.4161	4604
530.9009	4570
533.3851	4601
535.8687	4619
538.3535	4507
540.8356	4474
543.3171	4621
545.7979	4514
548.278	4534
550.7595	4527
553.2383	4621
555.7144	4533
558.1918	4481
560.6685	4568
563.1446	4511
565.6221	4598
568.0968	4635
570.5688	4680
573.0422	4698
575.515	4667
577.989	4594
580.4584	4748
582.9291	4652
585.3991	4735
587.8685	4797
590.3352	4724
592.8052	4641
595.2706	4691
597.7372	4714
600.2033	4643
602.6666	4663
605.1334	4710
607.5953	4746
610.0587	4734
612.5193	4631
614.9814	4588
617.4427	4713
619.9034	4741
622.3615	4691
624.8208	4717
627.2775	4637
629.7335	4640
632.1929	4599
634.6476	4633
637.1016	4737
639.5569	4692
642.0096	4657
644.4637	4755
646.9151	4624
649.3678	4777
651.8179	4666
654.2672	4695
656.7159	4767
659.166	4781
661.6154	4749
664.0622	4781
666.5082	4797
668.9537	4749
671.4005	4769
673.8445	4849
676.288	4716
678.7308	4895
681.1729	4850
683.6163	4863
686.0572	4754
688.4973	4834
690.9368	4801
693.3757	4897
695.8138	4855
698.2534	4872
700.6902	4788
703.1245	4977
705.56	4912
707.9949	4833
710.4311	4887
712.8647	4857
715.2957	4970
717.7279	5045
720.1595	4962
722.5905	4957
725.0208	4909
727.4505	4888
729.8795	4980
732.3058	5033
734.7336	5049
737.1626	4993
739.587	5051
742.0128	4993
744.4359	5106
746.8604	5116
749.2841	5122
751.7073	5086
754.1278	5118
756.5496	5105
758.9688	5020
761.3893	5099
763.8093	5187
766.2285	5081
768.6451	5132
771.0611	5149
773.4784	5137
775.895	5119
778.3091	5117
780.7244	5204
783.1371	5182
785.5493	5163
787.9626	5171
790.3754	5172
792.7856	5201
795.1951	5233
797.6039	5248
800.0121	5041
802.4236	5226
804.8306	5294
807.2369	5218
809.6425	5169
812.0475	5176
814.4538	5306
816.8575	5285
819.2606	5251
821.663	5188
824.0648	5346
826.4659	5365
828.8683	5189
831.2682	5284
833.6674	5196
836.066	5172
838.4639	5267
840.8632	5316
843.2579	5316
845.6539	5366
848.0493	5411
850.444	5318
852.84	5388
855.2315	5285
857.6243	5358
860.0165	5337
862.4081	5423
864.797	5344
867.1892	5224
869.5789	5334
871.9659	5355
874.3542	5411
876.74	5346
879.129	5286
881.5155	5307
883.8994	5437
886.2845	5397
888.6671	5342
891.051	5294
893.4343	5356
895.8169	5269
898.197	5285
900.5783	5380
902.9571	5405
905.3372	5336
907.7167	5424
910.0936	5427
912.4698	5387
914.8474	5435
917.2244	5496
919.5987	5444
921.9744	5466
924.3475	5405
926.72	5516
929.0918	5427
931.4669	5561
933.8375	5528
936.2074	5570
938.5767	5612
940.9454	5655
943.3154	5609
945.6829	5754
948.0497	5798
950.4178	6000
952.7833	6119
955.1483	6249
957.5145	6461
959.8782	6534
962.2412	6383
964.6036	6404
966.9655	6130
969.3266	6084
971.6871	5841
974.0471	5679
976.4064	5603
978.765	5770
981.125	5490
983.4824	5512
985.8373	5477
988.1935	5540
990.549	5409
992.9039	5484
995.2602	5439
997.6119	5418
999.965	5549
1002.317	5591
1004.667	5596
1007.02	5470
1009.371	5527
1011.719	5532
1014.068	5573
1016.415	5510
1018.765	5498
1021.111	5591
1023.458	5633
1025.804	5574
1028.147	5564
1030.49	5582
1032.837	5651
1035.179	5607
1037.522	5569
1039.862	5740
1042.204	5586
1044.546	5660
1046.884	5674
1049.224	5600
1051.562	5582
1053.899	5702
1056.237	5510
1058.575	5554
1060.91	5723
1063.244	5686
1065.58	5665
1067.913	5673
1070.248	5799
1072.579	5669
1074.911	5766
1077.242	5667
1079.572	5595
1081.905	5641
1084.234	5636
1086.562	5640
1088.89	5661
1091.217	5596
1093.544	5601
1095.871	5701
1098.197	5664
1100.521	5666
1102.845	5628
1105.169	5676
1107.491	5798
1109.814	5764
1112.135	5721
1114.456	5650
1116.776	5741
1119.096	5760
1121.415	5766
1123.734	5655
1126.052	5687
1128.369	5761
1130.686	5689
1133.002	5676
1135.318	5685
1137.632	5773
1139.945	5642
1142.258	5645
1144.573	5641
1146.884	5780
1149.196	5639
1151.505	5706
1153.816	5785
1156.124	5646
1158.435	5653
1160.742	5668
1163.051	5626
1165.356	5667
1167.663	5742
1169.97	5669
1172.276	5725
1174.579	5690
1176.881	5721
1179.186	5746
1181.487	5717
1183.79	5678
1186.092	5682
1188.392	5639
1190.691	5732
1192.991	5711
1195.291	5735
1197.588	5755
1199.885	5680
1202.181	5751
1204.479	5712
1206.775	5708
1209.07	5850
1211.363	5678
1213.656	5774
1215.949	5756
1218.241	5673
1220.534	5748
1222.825	5814
1225.115	5864
1227.405	5717
1229.693	5913
1231.984	5819
1234.271	5960
1236.558	5783
1238.845	5873
1241.131	5909
1243.416	5901
1245.703	5982
1247.987	5872
1250.269	5928
1252.552	5849
1254.834	5819
1257.118	6050
1259.399	5853
1261.678	5942
1263.958	5876
1266.237	5973
1268.516	5857
1270.794	5931
1273.072	5963
1275.347	5909
1277.624	5870
1279.899	5920
1282.175	5857
1284.449	5760
1286.722	5877
1288.995	5815
1291.266	5725
1293.54	5896
1295.81	5842
1298.081	5861
1300.35	5895
1302.62	5871
1304.889	5873
1307.156	5854
1309.425	5808
1311.69	5884
1313.957	5899
1316.222	5757
1318.488	5897
1320.751	5839
1323.016	5841
1325.278	5892
1327.54	5714
1329.803	5847
1332.065	5817
1334.325	5848
1336.584	5902
1338.843	5888
1341.101	5778
1343.36	5901
1345.617	5698
1347.876	5837
1350.131	5798
1352.387	5946
1354.643	5903
1356.897	5829
1359.151	5911
1361.403	5792
1363.656	5798
1365.909	5887
1368.16	5903
1370.409	5956
1372.659	5929
1374.909	5917
1377.157	5872
1379.407	5921
1381.655	5893
1383.9	5860
1386.147	5859
1388.393	5950
1390.64	5912
1392.885	5925
1395.127	5871
1397.37	5995
1399.614	5984
1401.854	5925
1404.098	5994
1406.339	5902
1408.578	5955
1410.818	6059
1413.056	5985
1415.297	5967
1417.533	6040
1419.771	5985
1422.006	5939
1424.243	6071
1426.479	6190
1428.715	6071
1430.948	6130
1433.182	6022
1435.414	6132
1437.647	6103
1439.88	6105
1442.11	6053
1444.342	6184
1446.571	6070
1448.799	6158
1451.029	6228
1453.258	6089
1455.485	6170
1457.711	6296
1459.937	6197
1462.164	6124
1464.39	6215
1466.614	5971
1468.838	6202
1471.06	6094
1473.283	6109
1475.506	6059
1477.727	6002
1479.949	6061
1482.169	6134
1484.389	5937
1486.609	6025
1488.828	5992
1491.045	6060
1493.261	5927
1495.477	5943
1497.693	5957
1499.91	5925
1502.125	6022
1504.339	5984
1506.553	5820
1508.766	5912
1510.979	5794
1513.191	5987
1515.402	5932
1517.613	5903
1519.823	6020
1522.033	6021
1524.242	5874
1526.451	5954
1528.657	5942
1530.865	5922
1533.072	6018
1535.278	6001
1537.484	6053
1539.687	6065
1541.892	5960
1544.096	5972
1546.299	5983
1548.502	5997
1550.703	5963
1552.905	5933
1555.104	6065
1557.303	5953
1559.505	6042
1561.703	6096
1563.902	6018
1566.099	6019
1568.295	6065
1570.494	6128
1572.689	6016
1574.883	6051
1577.079	6135
1579.272	6120
1581.467	6144
1583.659	6123
1585.853	6086
1588.044	6119
1590.234	6203
1592.424	6164
1594.615	6136
1596.806	6133
1598.994	6137
1601.182	6219
1603.369	6173
1605.557	6156
1607.744	6140
1609.929	6243
1612.114	6263
1614.298	6346
1616.482	6288
1618.667	6190
1620.85	6210
1623.032	6298
1625.214	6176
1627.395	6227
1629.575	6228
1631.755	6230
1633.935	6246
1636.114	6244
1638.292	6168
1640.471	6129
1642.647	6249
1644.823	6261
1647	6187
1649.175	6280
1651.348	6325
1653.525	6224
1655.698	6147
1657.87	6215
1660.043	6254
1662.213	6255
1664.387	6321
1666.558	6264
1668.727	6250
1670.896	6196
1673.064	6301
1675.233	6332
1677.401	6309
1679.569	6222
1681.735	6254
1683.902	6115
1686.066	6252
1688.233	6279
1690.397	6236
1692.559	6192
1694.723	6216
1696.885	6320
1699.048	6207
1701.21	6134
1703.37	6213
1705.53	6223
1707.689	6152
1709.849	6103
1712.009	6198
1714.166	6277
1716.323	6208
1718.479	6238
1720.634	6142
1722.793	6298
1724.948	6107
1727.102	6155
1729.255	6247
1731.408	6161
1733.562	6175
1735.714	6238
1737.865	6309
1740.016	6166
1742.166	6140
1744.316	6279
1746.467	6215
1748.616	6216
1750.764	6164
1752.911	6161
1755.056	6108
1757.205	6162
1759.35	6257
1761.496	6199
1763.641	6291
1765.785	6292
1767.927	6250
1770.072	6290
1772.214	6249
1774.355	6345
1776.496	6170
1778.637	6339
1780.778	6271
1782.918	6286
1785.057	6239
1787.194	6312
1789.333	6295
1791.472	6331
1793.608	6313
1795.745	6180
1797.879	6279
1800.015	6252
1802.148	6259
1804.284	6226
1806.417	6305
1808.548	6206
1810.682	6266
1812.812	6259
1814.946	6258
1817.075	6224
1819.205	6315
1821.335	6283
1823.463	6317
1825.59	6331
1827.721	6323
1829.847	6365
1831.973	6282
1834.098	6224
1836.223	6223
1838.351	6251
1840.475	6305
1842.598	6380
1844.721	6293
1846.843	6299
1848.966	6278
1851.087	6229
1853.21	6183
1855.33	6209
1857.449	6224
1859.568	6257
1861.688	6198
1863.806	6230
1865.924	6259
1868.039	6229
1870.155	6171
1872.273	6226
1874.388	6161
1876.503	6100
1878.617	6210
1880.73	6250
1882.844	6215
1884.956	6184
1887.068	6228
1889.18	6293
1891.291	6237
1893.4	6179
1895.511	6353
1897.621	6315
1899.73	6388
1901.837	6194
1903.944	6231
1906.053	6432
1908.159	6303
1910.265	6429
1912.369	6345
1914.474	6391
1916.577	6352
1918.683	6239
1920.785	6425
1922.888	6407
1924.989	6479
1927.091	6406
1929.193	6253
1931.294	6314
1933.393	6353
1935.493	6326
1937.59	6412
1939.689	6262
1941.788	6329
1943.884	6385
1945.98	6409
1948.077	6259
1950.171	6497
1952.267	6474
1954.361	6299
1956.455	6410
1958.548	6338
1960.64	6508
1962.733	6303
1964.824	6388
1966.915	6356
1969.005	6385
1971.096	6301
1973.185	6454
1975.275	6292
1977.363	6287
1979.45	6305
1981.537	6385
1983.623	6213
1985.711	6363
1987.796	6316
1989.881	6278
1991.965	6371
1994.047	6452
1996.132	6332
1998.215	6316
2000.297	6408
2002.378	6370
2004.46	6351
2006.54	6313
2008.62	6341
2010.7	6302
2012.779	6254
2014.858	6348
2016.934	6310
2019.013	6410
2021.09	6337
2023.165	6383
2025.241	6286
2027.317	6384
2029.39	6262
2031.466	6293
2033.538	6400
2035.612	6343
2037.683	6396
2039.755	6385
2041.827	6420
2043.898	6363
2045.968	6405
2048.038	6201
2050.106	6285
2052.177	6381
2054.244	6286
2056.313	6303
2058.379	6237
2060.444	6221
2062.511	6232
2064.577	6329
2066.641	6508
2068.705	6253
2070.77	6284
2072.832	6406
2074.896	6372
2076.958	6432
2079.02	6431
2081.081	6304
2083.141	6429
2085.2	6368
2087.261	6334
2089.319	6330
2091.377	6331
2093.435	6498
2095.492	6435
2097.552	6388
2099.607	6385
2101.663	6283
2103.718	6594
2105.771	6333
2107.826	6544
2109.879	6445
2111.932	6448
2113.985	6396
2116.037	6362
2118.088	6306
2120.141	6382
2122.191	6360
2124.239	6277
2126.288	6310
2128.337	6479
2130.387	6403
2132.434	6358
2134.481	6383
2136.528	6346
2138.574	6411
2140.618	6370
2142.665	6258
2144.71	6205
2146.753	6370
2148.797	6409
2150.838	6426
2152.883	6333
2154.923	6308
2156.965	6343
2159.007	6331
2161.046	6228
2163.086	6350
2165.126	6383
2167.163	6199
2169.202	6351
2171.239	6287
2173.277	6309
2175.314	6310
2177.349	6273
2179.385	6254
2181.42	6281
2183.453	6263
2185.49	6252
2187.522	6400
2189.555	6234
2191.586	6279
2193.619	6291
2195.651	6301
2197.682	6245
2199.711	6198
2201.74	6201
2203.769	6258
2205.799	6242
2207.828	6245
2209.855	6134
2211.882	6155
2213.908	6247
2215.934	6124
2217.961	6276
2219.986	6243
2222.01	6269
2224.034	6120
2226.057	6251
2228.08	6230
2230.104	6160
2232.124	6222
2234.145	6132
2236.166	6284
2238.186	6192
2240.207	6154
2242.227	6237
2244.244	6209
2246.262	6137
2248.28	6278
2250.299	6269
2252.314	6273
2254.33	6304
2256.346	6318
2258.36	6207
2260.375	6273
2262.391	6284
2264.403	6305
2266.416	6248
2268.427	6248
2270.44	6234
2272.453	6306
2274.463	6202
2276.474	6135
2278.483	6303
2280.493	6231
2282.501	6397
2284.51	6193
2286.518	6279
2288.524	6322
2290.532	6277
2292.537	6111
2294.544	6285
2296.55	6296
2298.554	6351
2300.557	6261
2302.562	6162
2304.566	6274
2306.568	6116
2308.569	6211
2310.572	6207
2312.573	6308
2314.573	6170
2316.574	6253
2318.573	6289
2320.571	6174
2322.571	6133
2324.569	6157
2326.567	6261
2328.564	6164
2330.56	6112
2332.556	6123
2334.551	6159
2336.546	6107
2338.542	6235
2340.535	6071
2342.529	6205
2344.521	6227
2346.512	6141
2348.505	6186
2350.497	6095
2352.487	6160
2354.478	6086
2356.468	6193
2358.457	5958
2360.446	6159
2362.434	6216
2364.422	6142
2366.408	6236
2368.395	6107
2370.383	6135
2372.369	6003
2374.353	6086
2376.338	6200
2378.321	6048
2380.307	6110
2382.29	6034
2384.272	6153
2386.254	6215
2388.235	6165
2390.218	6135
2392.198	6052
2394.179	6158
2396.157	6071
2398.137	6118
2400.115	6011
2402.095	6098
2404.072	6162
2406.048	6119
2408.026	6034
2410.001	6051
2411.977	6109
2413.953	6075
2415.927	6035
2417.9	6089
2419.875	6026
2421.847	6022
2423.821	6000
2425.792	6057
2427.763	6155
2429.736	6018
2431.706	6066
2433.677	6054
2435.646	6061
2437.615	6129
2439.583	6020
2441.551	6039
2443.519	6145
2445.486	6109
2447.452	6089
2449.418	6074
2451.383	6137
2453.348	5909
2455.314	6029
2457.278	6001
2459.241	5955
2461.205	6041
2463.167	6099
2465.131	6065
2467.091	6021
2469.052	6046
2471.012	6007
2472.972	6005
2474.932	5941
2476.891	6134
2478.85	6075
2480.808	5970
2482.766	6030
2484.722	5908
2486.68	5972
2488.636	6020
2490.591	5977
2492.546	6073
2494.5	5970
2496.456	5969
2498.41	6029
2500.362	6021
2502.315	6027
2504.266	5990
2506.218	6010
2508.169	5863
2510.121	6066
2512.07	5880
2514.019	5755
2515.968	6017
2517.918	5861
2519.866	5939
2521.813	6077
2523.76	5879
2525.707	5880
2527.653	5876
2529.599	5934
2531.543	5975
2533.489	5938
2535.433	5976
2537.376	5965
2539.32	5964
2541.264	5932
2543.205	6007
2545.147	5929
2547.087	6004
2549.029	5839
2550.969	5961
2552.908	6053
2554.847	5841
2556.786	5919
2558.724	5976
2560.663	5889
2562.6	5964
2564.537	5912
2566.473	5964
2568.408	5934
2570.345	5885
2572.28	6018
2574.214	6003
2576.148	5959
2578.081	5865
2580.014	5978
2581.947	5977
2583.879	5964
2585.81	5961
2587.741	5976
2589.67	6022
2591.602	5904
2593.532	6016
2595.461	5936
2597.388	6071
2599.316	5903
2601.244	5843
2603.172	5892
2605.098	6140
2607.023	5978
2608.949	5936
2610.873	5980
2612.8	5945
2614.723	5966
2616.647	5954
2618.569	5938
2620.493	5937
2622.416	6036
2624.338	5955
2626.258	5903
2628.179	6116
2630.099	5993
2632.019	6048
2633.939	5981
2635.857	5987
2637.775	5947
2639.694	6028
2641.61	5936
2643.528	5998
2645.444	5994
2647.361	6006
2649.276	5939
2651.19	6051
2653.105	5943
2655.019	5914
2656.934	6049
2658.846	5896
2660.758	5954
2662.67	6030
2664.583	6118
2666.493	6136
2668.404	6046
2670.313	5901
2672.223	5863
2674.134	5985
2676.042	5950
2677.95	5977
2679.858	6031
2681.765	5983
2683.673	5983
2685.579	5924
2687.483	6024
2689.389	5893
2691.294	6027
2693.198	5976
2695.104	5971
2697.006	6007
2698.909	5993
2700.811	5819
2702.713	5942
2704.615	5883
2706.516	5887
2708.417	5930
2710.316	5879
2712.216	5884
2714.115	5962
2716.014	5911
2717.913	6022
2719.81	5827
2721.707	5923
2723.603	5988
2725.501	5822
2727.396	5851
2729.292	5863
2731.186	5948
2733.081	5974
2734.976	5955
2736.87	5802
2738.762	5897
2740.653	5831
2742.546	5887
2744.437	5929
2746.329	5848
2748.22	5804
2750.11	5891
2751.999	5933
2753.889	5919
2755.778	5899
2757.666	5848
2759.553	5829
2761.44	5897
2763.328	5897
2765.215	5852
2767.101	5789
2768.986	5921
2770.87	5830
2772.754	5870
2774.638	5883
2776.523	5843
2778.405	5786
2780.288	5898
2782.17	5862
2784.051	5909
2785.934	5802
2787.814	5867
2789.694	5906
2791.574	5808
2793.453	5838
2795.332	5801
2797.212	5880
2799.088	5815
2800.966	5799
2802.843	5751
2804.719	5759
2806.597	5854
2808.471	5821
2810.346	5725
2812.221	5761
2814.094	5859
2815.969	5864
2817.843	5766
2819.714	5920
2821.587	5769
2823.459	5769
2825.329	5834
2827.202	5745
2829.072	5715
2830.942	5751
2832.811	5788
2834.68	5843
2836.549	5794
2838.418	5688
2840.284	5814
2842.152	5859
2844.018	5842
2845.885	5823
2847.751	5766
2849.616	5870
2851.482	5849
2853.345	5764
2855.208	5827
2857.074	5961
2858.937	5835
2860.799	5942
2862.66	5811
2864.522	5925
2866.385	5926
2868.245	5984
2870.104	5986
2871.964	6069
2873.824	6186
2875.683	6054
2877.542	5992
2879.4	6258
2881.257	6086
2883.114	6157
2884.97	6191
2886.827	6187
2888.683	6112
2890.537	6077
2892.392	6137
2894.246	6079
2896.1	6114
2897.954	6093
2899.807	6134
2901.66	6107
2903.51	6146
2905.362	6109
2907.214	6187
2909.065	6098
2910.915	6271
2912.765	6162
2914.613	6146
2916.463	6261
2918.311	6237
2920.158	6325
2922.006	6225
2923.853	6246
2925.698	6182
2927.546	6435
2929.392	6482
2931.236	6345
2933.081	6371
2934.924	6566
2936.77	6511
2938.613	6615
2940.455	6564
2942.298	6643
2944.139	6566
2945.982	6658
2947.823	6558
2949.662	6545
2951.503	6495
2953.342	6504
2955.182	6406
2957.021	6442
2958.858	6631
2960.697	6371
2962.534	6425
2964.37	6361
2966.207	6381
2968.044	6246
2969.879	6222
2971.714	6238
2973.548	6222
2975.383	6256
2977.218	6066
2979.051	6177
2980.883	6053
2982.715	6067
2984.547	6158
2986.379	6055
2988.21	6077
2990.04	5966
2991.87	5933
2993.7	5892
2995.53	5894
2997.359	5950
2999.187	5876
3001.015	5918
3002.842	5699
3004.669	5847
3006.497	5812
3008.323	5756
3010.148	5720
3011.974	5731
3013.797	5704
3015.623	5587
3017.447	5674
3019.27	5648
3021.094	5641
3022.915	5681
3024.737	5683
3026.56	5591
3028.38	5574
3030.201	5634
3032.022	5601
3033.84	5514
3035.662	5554
3037.481	5609
3039.298	5562
3041.117	5669
3042.933	5595
3044.752	5582
3046.568	5632
3048.385	5541
3050.2	5626
3052.016	5467
3053.83	5559
3055.646	5603
3057.46	5598
3059.272	5451
3061.086	5507
3062.898	5606
3064.711	5522
3066.524	5515
3068.335	5483
3070.145	5477
3071.956	5485
3073.766	5462
3075.576	5542
3077.385	5499
3079.193	5488
3081.002	5434
3082.81	5403
3084.618	5417
3086.425	5467
3088.231	5464
3090.036	5409
3091.842	5427
3093.648	5399
3095.452	5421
3097.257	5408
3099.06	5372
3100.863	5344
3102.666	5325
3104.47	5420
3106.272	5449
3108.073	5337
3109.875	5371
3111.676	5402
3113.477	5405
3115.277	5377
3117.077	5375
3118.874	5284
3120.673	5438
3122.473	5328
3124.271	5360
3126.066	5274
3127.863	5437
3129.66	5364
3131.456	5240
3133.252	5266
3135.047	5349
3136.842	5316
3138.635	5312
3140.429	5330
3142.223	5302
3144.016	5307
3145.808	5346
3147.6	5281
3149.392	5242
3151.183	5222
3152.975	5181
3154.765	5255
3156.553	5261
3158.344	5296
3160.132	5225
3161.922	5368
3163.71	5062
3165.497	5331
3167.285	5311
3169.071	5153
3170.858	5240
3172.645	5197
3174.429	5099
3176.214	5228
3177.998	5163
3179.783	5207
3181.568	5187
3183.351	5257
3185.133	5103
3186.915	5166
3188.698	5228
3190.481	5195
3192.261	5180
3194.042	5197
3195.822	5131
3197.601	5161
3199.381	5131
3201.161	5212
3202.939	5163
3204.717	5203
3206.495	5201
3208.272	5101
3210.05	5131
3211.826	5251
3213.602	5092
3215.376	5110
3217.151	5196
3218.927	5042
3220.702	5132
3222.476	5117
3224.249	5089
3226.021	5153
3227.793	5241
3229.567	5085
3231.339	5121
3233.109	5192
3234.88	5196
3236.651	5095
3238.421	5179
3240.191	5120
3241.96	5174
3243.728	5176
3245.497	5110
3247.263	5198
3249.033	5098
3250.799	5198
3252.566	5161
3254.331	5093
3256.097	5125
3257.863	5138
3259.628	5094
3261.392	5170
3263.156	5182
3264.919	5161
3266.683	5102
3268.447	5283
3270.208	5174
3271.969	5094
3273.731	5163
3275.492	5217
3277.253	5179
3279.013	5187
3280.773	5084
3282.532	5074
3284.291	5081
3286.05	5061
3287.808	5248
3289.566	5152
3291.323	5065
3293.079	5129
3294.835	5192
3296.593	5106
3298.348	5193
3300.102	5101
3301.857	5051
3303.611	5262
3305.366	5100
3307.119	5110
3308.872	5139
3310.624	5043
3312.376	5195
3314.129	5071
3315.881	5141
3317.631	5156
3319.38	5131
3321.13	5139
3322.88	5214
3324.631	4988
3326.379	5040
3328.126	5159
3329.875	5070
3331.622	5046
3333.371	5068
3335.116	5076
3336.863	5141
3338.609	5115
3340.353	5066
3342.1	5155
3343.845	5121
3345.588	5070
3347.332	5036
3349.074	5119
3350.817	5008
3352.56	4981
3354.303	5093
3356.043	5066
3357.785	5048
3359.525	5047
3361.268	5071
3363.007	5058
3364.745	4990
3366.485	5094
3368.223	5078
3369.962	5038
3371.701	5059
3373.438	5015
3375.174	5021
3376.911	5111
3378.647	5042
3380.384	4966
3382.118	5011
3383.854	4886
3385.588	4905
3387.322	4986
3389.057	4925
3390.79	4934
3392.522	5019
3394.255	4976
3395.987	4909
3397.719	4974
3399.451	4975
3401.181	5028
3402.911	5007
3404.641	4960
3406.371	4909
3408.101	5016
3409.83	4949
3411.558	4957
3413.285	4943
3415.011	4950
3416.739	4879
3418.467	4844
3420.193	4910
3421.919	4908
3423.644	4889
3425.368	4817
3427.094	4898
3428.818	4889
3430.542	4920
3432.264	4860
3433.987	4842
3435.712	4821
3437.434	4893
3439.155	4860
3440.876	4905
3442.596	4782
3444.317	4888
3446.039	4795
3447.757	4879
3449.477	4871
3451.195	4854
3452.914	4816
3454.632	4858
3456.35	4763
3458.067	4947
3459.784	4745
3461.5	4804
3463.216	4645
3464.932	4834
3466.647	4719
3468.362	4799
3470.076	4816
3471.789	4808
3473.505	4731
3475.217	4776
3476.929	4811
3478.641	4774
3480.354	4744
3482.066	4734
3483.777	4739
3485.487	4699
3487.197	4750
3488.908	4709
3490.617	4630
3492.327	4713
3494.035	4618
3495.743	4695
3497.451	4770
3499.158	4694
3500.866	4671
3502.572	4619
3504.278	4698
3505.984	4687
3507.689	4644
3509.396	4607
3511.1	4688
3512.804	4646
3514.508	4710
3516.211	4523
3517.913	4632
3519.616	4677
3521.319	4622
3523.021	4684
3524.722	4664
3526.422	4556
3528.124	4651
3529.824	4623
3531.524	4640
3533.222	4651
3534.921	4666
3536.62	4596
3538.318	4631
3540.016	4614
3541.714	4612
3543.41	4544
3545.107	4573
3546.803	4520
3548.5	4586
3550.194	4701
3551.889	4520
3553.583	4577
3555.279	4567
3556.972	4545
3558.666	4569
3560.358	4527
3562.051	4518
3563.742	4514
3565.435	4558
3567.126	4528
3568.817	4610
3570.507	4516
3572.197	4555
3573.888	4472
3575.577	4587
3577.265	4519
3578.954	4505
3580.642	4564
3582.329	4492
3584.017	4490
3585.704	4531
3587.391	4517
3589.077	4525
3590.762	4459
3592.449	4533
3594.133	4433
3595.817	4450
3597.501	4610
3599.185	4407
3600.869	4484
3602.552	4354
3604.234	4434
3605.916	4466
3607.598	4441
3609.279	4394
3610.961	4418
3612.642	4440
3614.321	4415
3616	4454
3617.68	4404
3619.36	4458
3621.039	4384
3622.716	4332
3624.394	4357
3626.071	4337
3627.748	4378
3629.425	4355
3631.102	4389
3632.778	4330
3634.452	4343
3636.127	4480
3637.803	4365
3639.477	4422
3641.151	4287
3642.823	4286
3644.497	4341
3646.171	4369
3647.842	4273
3649.515	4352
3651.185	4388
3652.857	4253
3654.527	4310
3656.198	4300
3657.868	4253
3659.537	4325
3661.207	4245
3662.875	4304
3664.544	4298
3666.212	4286
3667.879	4273
3669.546	4315
3671.212	4247
3672.88	4167
3674.546	4256
3676.211	4300
3677.875	4262
3679.541	4309
3681.205	4212
3682.87	4288
3684.533	4235
3686.196	4247
3687.859	4242
3689.521	4310
3691.184	4230
3692.845	4280
3694.507	4244
3696.167	4224
3697.827	4184
3699.487	4244
3701.148	4159
3702.808	4253
3704.466	4229
3706.125	4283
3707.783	4162
3709.442	4153
3711.099	4228
3712.757	4253
3714.412	4233
3716.068	4217
3717.725	4208
3719.381	4113
3721.036	4243
3722.689	4164
3724.344	4159
3725.998	4144
3727.652	4166
3729.305	4201
3730.958	4196
3732.61	4197
3734.262	4160
3735.915	4211
3737.565	4163
3739.217	4218
3740.866	4130
3742.516	4186
3744.165	4184
3745.816	4157
3747.464	4081
3749.113	4114
3750.761	4130
3752.409	4115
3754.057	4192
3755.703	4124
3757.35	4096
3758.996	4133
3760.641	4097
3762.289	4103
3763.933	4033
3765.577	4098
3767.222	4079
3768.865	4101
3770.508	4116
3772.152	4042
3773.796	4109
3775.438	4032
3777.079	4152
3778.721	4085
3780.363	4072
3782.003	4092
3783.643	4083
3785.283	4017
3786.923	4006
3788.563	4060
3790.203	4066
3791.841	3987
3793.479	4059
3795.115	3969
3796.753	4072
3798.391	4006
3800.027	4103
3801.664	4117
3803.299	3986
3804.935	3949
3806.571	4003
3808.206	4006
3809.839	4029
3811.473	4069
3813.107	3967
3814.74	3913
3816.375	4031
3818.006	4048
3819.638	3983
3821.27	3981
3822.9	3959
3824.532	3988
3826.163	4022
3827.792	3977
3829.423	3908
3831.051	4074
3832.682	3939
3834.311	3917
3835.938	3993
3837.566	3923
3839.193	3924
3840.821	3872
3842.448	4045
3844.075	3916
3845.7	3937
3847.325	3852
3848.951	3949
3850.576	3981
3852.201	3892
3853.825	3888
3855.448	3982
3857.072	4010
3858.694	3863
3860.318	3851
3861.939	3919
3863.562	3906
3865.183	3987
3866.804	3857
3868.426	3862
3870.045	3879
3871.666	3901
3873.285	3882
3874.904	3900
3876.524	3932
3878.142	3910
3879.76	3826
3881.378	3919
3882.995	3890
3884.612	3803
3886.229	3907
3887.845	3890
3889.461	3863
3891.076	3841
3892.691	3844
3894.307	3812
3895.922	3841
3897.536	3735
3899.149	3873
3900.761	3955
3902.374	3828
3903.988	3852
3905.6	3811
3907.212	3778
3908.822	3743
3910.433	3941
3912.045	3866
3913.655	3785
3915.265	3833
3916.875	3868
3918.483	3809
3920.093	3868
3921.702	3881
3923.309	3781
3924.917	3781
3926.523	3846
3928.13	3842
3929.739	3821
3931.344	3851
3932.95	3791
3934.555	3795
3936.159	3787
3937.766	3806
3939.369	3756
3940.974	3818
3942.577	3796
3944.181	3811
3945.783	3732
3947.386	3790
3948.989	3783
3950.59	3792
3952.191	3770
3953.791	3766
3955.394	3722
3956.994	3736
3958.593	3800
3960.192	3639
3961.791	3771
3963.392	3767
3964.99	3741
3966.588	3798
3968.185	3752
3969.782	3674
3971.379	3702
3972.976	3775
3974.572	3659
3976.168	3701
3977.763	3681
3979.358	3681
3980.954	3644
3982.548	3666
3984.142	3684
3985.736	3632
3987.329	3614
3988.922	3640
3990.516	3632
3992.108	3617
3993.698	3659
3995.29	3643
3996.881	3586
3998.473	3635
4000.064	3615
4001.653	3645
4003.242	3686
4004.832	3572
4006.422	3666
4008.01	3619
4009.598	3594
4011.186	3514
4012.773	3555
4014.36	3684
4015.947	3595
4017.534	3604
4019.119	3555
4020.705	3599
4022.291	3641
4023.876	3579
4025.461	3564
4027.044	3566
4028.627	3574
4030.211	3517
4031.795	3573
4033.378	3541
4034.96	3588
4036.542	3547
4038.124	3472
4039.704	3492
4041.286	3550
4042.867	3546
4044.447	3532
4046.026	3510
4047.606	3505
4049.187	3601
4050.765	3507
4052.343	3469
4053.92	3440
4055.498	3450
4057.076	3519
4058.654	3529
4060.23	3499
4061.806	3474
4063.381	3465
4064.957	3462
4066.533	3471
4068.107	3522
4069.682	3454
4071.256	3519
4072.829	3461
4074.404	3472
4075.977	3428
4077.549	3442
4079.121	3483
4080.693	3450
4082.265	3447
4083.836	3489
4085.407	3404
4086.977	3502
4088.547	3460
4090.117	3385
4091.687	3528
4093.256	3571
4094.825	3490
4096.392	3398
4097.96	3453
4099.528	3408
4101.097	3520
4102.663	3396
4104.229	3484
4105.795	3421
4107.361	3468
4108.928	3415
4110.493	3418
4112.058	3443
4113.621	3453
4115.186	3327
4116.75	3376
4118.313	3367
4119.876	3385
4121.438	3379
4123	3308
4124.562	3288
4126.125	3395
4127.686	3320
4129.246	3372
4130.807	3331
4132.367	3370
4133.927	3363
4135.486	3324
4137.046	3311
4138.604	3368
4140.162	3323
4141.72	3336
4143.279	3237
4144.836	3314
4146.393	3337
4147.949	3279
4149.505	3299
4151.062	3312
4152.617	3313
4154.172	3257
4155.727	3248
4157.281	3304
4158.836	3249
4160.39	3288
4161.943	3301
4163.496	3308
4165.048	3188
4166.601	3235
4168.154	3260
4169.706	3242
4171.257	3261
4172.808	3212
4174.358	3266
4175.909	3246
4177.458	3273
4179.008	3212
4180.558	3282
4182.106	3229
4183.655	3223
4185.204	3244
4186.751	3178
4188.298	3228
4189.845	3231
4191.392	3245
4192.939	3193
4194.485	3172
4196.031	3193
4197.576	3166
4199.121	3258
4200.666	3222
4202.211	3177
4203.754	3218
4205.298	3179
4206.84	3173
4208.384	3236
4209.927	3211
4211.47	3112
4213.011	3078
4214.552	3116
4216.094	3238
4217.635	3200
4219.175	3162
4220.716	3155
4222.255	3200
4223.793	3155
4225.335	3175
4226.873	3210
4228.411	3218
4229.948	3102
4231.486	3151
4233.024	3169
4234.562	3123
4236.098	3152
4237.634	3164
4239.169	3123
4240.705	3188
4242.241	3161
4243.776	3145
4245.31	3121
4246.844	3176
4248.378	3078
4249.911	3086
4251.445	3096
4252.978	3142
4254.51	3136
4256.042	3137
4257.574	3155
4259.107	3069
4260.638	3136
4262.169	3147
4263.699	3044
4265.228	3089
4266.759	3113
4268.289	3088
4269.818	3152
4271.345	3104
4272.874	3104
4274.402	3072
4275.931	3017
4277.458	3014
4278.985	3095
4280.512	3079
4282.037	3101
4283.564	3106
4285.089	3119
4286.615	3046
4288.139	3059
4289.664	3075
4291.187	3084
4292.712	3080
4294.235	3046
4295.759	3020
4297.281	2980
4298.804	3052
4300.327	3090
4301.849	3118
4303.37	3058
4304.891	2990
4306.412	3065
4307.933	3028
4309.453	3003
4310.973	3006
4312.492	2920
