398.1873	3523
400.7097	3523
403.2336	3487
405.7547	3539
408.2751	3610
410.7948	3505
413.3138	3558
415.83	3594
418.3497	3567
420.8666	3686
423.3829	3694
425.8985	3792
428.4133	3767
430.9275	3752
433.441	3760
435.9538	3757
438.4639	3791
440.9753	3806
443.4881	3804
445.9982	3745
448.5055	3854
451.0142	3696
453.5201	3796
456.0274	3697
458.5361	3753
461.04	3641
463.5453	3729
466.0478	3773
468.5517	3702
471.0549	3750
473.5574	3671
476.0572	3677
478.5584	3707
481.0568	3708
483.5545	3777
486.0557	3690
488.5521	3781
491.0478	3749
493.5449	3797
496.0392	3803
498.5349	3789
501.0299	3712
503.5222	3765
506.0139	3883
508.5048	3811
510.9991	3751
513.4887	3835
515.9777	3866
518.4659	3869
520.9534	3797
523.4403	3923
525.9306	3878
528.4161	3858
530.9009	3848
533.3851	3859
535.8687	3929
538.3535	3849
540.8356	3863
543.3171	3898
545.7979	3866
548.278	3864
550.7595	3850
553.2383	3876
555.7144	3883
558.1918	3759
560.6685	3958
563.1446	3917
565.6221	3912
568.0968	3898
570.5688	3917
573.0422	3993
575.515	3979
577.989	4083
580.4584	4052
582.9291	4033
585.3991	4040
587.8685	4023
590.3352	4099
592.8052	4082
595.2706	4125
597.7372	4046
600.2033	4055
602.6666	3927
605.1334	3943
607.5953	3977
610.0587	3976
612.5193	4026
614.9814	3968
617.4427	3947
619.9034	4029
622.3615	3950
624.8208	4034
627.2775	3895
629.7335	3964
632.1929	3991
634.6476	3880
637.1016	4008
639.5569	3993
642.0096	4018
644.4637	3974
646.9151	3969
649.3678	4071
651.8179	3967
654.2672	4002
656.7159	3990
659.166	3978
661.6154	3944
664.0622	4015
666.5082	4042
668.9537	4091
671.4005	4070
673.8445	4018
676.288	4115
678.7308	4134
681.1729	4100
683.6163	4047
686.0572	4021
688.4973	4139
690.9368	4092
693.3757	4085
695.8138	4154
698.2534	4170
700.6902	4097
703.1245	4104
705.56	4106
707.9949	4113
710.4311	4098
712.8647	4181
715.2957	4249
717.7279	4151
720.1595	4197
722.5905	4195
725.0208	4118
727.4505	4195
729.8795	4207
732.3058	4254
734.7336	4270
737.1626	4285
739.587	4255
742.0128	4337
744.4359	4260
746.8604	4257
749.2841	4296
751.7073	4360
754.1278	4384
756.5496	4327
758.9688	4337
761.3893	4414
763.8093	4374
766.2285	4340
768.6451	4326
771.0611	4384
773.4784	4340
775.895	4303
778.3091	4387
780.7244	4344
783.1371	4360
785.5493	4356
787.9626	4314
790.3754	4343
792.7856	4453
795.1951	4386
797.6039	4318
800.0121	4278
802.4236	4416
804.8306	4421
807.2369	4472
809.6425	4436
812.0475	4429
814.4538	4437
816.8575	4356
819.2606	4460
821.663	4456
824.0648	4430
826.4659	4457
828.8683	4383
831.2682	4422
833.6674	4420
836.066	4478
838.4639	4474
840.8632	4486
843.2579	4435
845.6539	4472
848.0493	4553
850.444	4618
852.84	4588
855.2315	4554
857.6243	4706
860.0165	4583
862.4081	4556
864.797	4482
867.1892	4531
869.5789	4610
871.9659	4507
874.3542	4550
876.74	4599
879.129	4550
881.5155	4551
883.8994	4588
886.2845	4607
888.6671	4463
891.051	4551
893.4343	4426
895.8169	4512
898.197	4480
900.5783	4559
902.9571	4562
905.3372	4576
907.7167	4541
910.0936	4554
912.4698	4663
914.8474	4660
917.2244	4713
919.5987	4644
921.9744	4743
924.3475	4719
926.72	4753
929.0918	4758
931.4669	4787
933.8375	4864
936.2074	4816
938.5767	4931
940.9454	4974
943.3154	5015
945.6829	5167
948.0497	5303
950.4178	5480
952.7833	5795
955.1483	5974
957.5145	6213
959.8782	6299
962.2412	6383
964.6036	6216
966.9655	5949
969.3266	5664
971.6871	5378
974.0471	5043
976.4064	5021
978.765	4910
981.125	4780
983.4824	4757
985.8373	4626
988.1935	4704
990.549	4737
992.9039	4712
995.2602	4727
997.6119	4788
999.965	4793
1002.317	4705
1004.667	4823
1007.02	4763
1009.371	4836
1011.719	4696
1014.068	4723
1016.415	4638
1018.765	4761
1021.111	4750
1023.458	4858
1025.804	4737
1028.147	4851
1030.49	4860
1032.837	4831
1035.179	4874
1037.522	4837
1039.862	4892
1042.204	4858
1044.546	4886
1046.884	4928
1049.224	4876
1051.562	4756
1053.899	4964
1056.237	4835
1058.575	4843
1060.91	4903
1063.244	4974
1065.58	4880
1067.913	4993
1070.248	4978
1072.579	4995
1074.911	4949
1077.242	4819
1079.572	4907
1081.905	4918
1084.234	4852
1086.562	4890
1088.89	4861
1091.217	4795
1093.544	4825
1095.871	4821
1098.197	4840
1100.521	4829
1102.845	4752
1105.169	4822
1107.491	4785
1109.814	4797
1112.135	4814
1114.456	4853
1116.776	4826
1119.096	4883
1121.415	4802
1123.734	4741
1126.052	4879
1128.369	4733
1130.686	4750
1133.002	4800
1135.318	4847
1137.632	4735
1139.945	4903
1142.258	4845
1144.573	4801
1146.884	4835
1149.196	4808
1151.505	4844
1153.816	4828
1156.124	4826
1158.435	4810
1160.742	4808
1163.051	4785
1165.356	4745
1167.663	4813
1169.97	4744
1172.276	4779
1174.579	4874
1176.881	4740
1179.186	4818
1181.487	4863
1183.79	4918
1186.092	4825
1188.392	4770
1190.691	4799
1192.991	4777
1195.291	4886
1197.588	4870
1199.885	4860
1202.181	4792
1204.479	4791
1206.775	4829
1209.07	4871
1211.363	4787
1213.656	4911
1215.949	4870
1218.241	4840
1220.534	4890
1222.825	4844
1225.115	4840
1227.405	4907
1229.693	4953
1231.984	4994
1234.271	5001
1236.558	5041
1238.845	4982
1241.131	5097
1243.416	5041
1245.703	5046
1247.987	5091
1250.269	5068
1252.552	4972
1254.834	5102
1257.118	4997
1259.399	5106
1261.678	5003
1263.958	4942
1266.237	5029
1268.516	4981
1270.794	5043
1273.072	4993
1275.347	5119
1277.624	5083
1279.899	5014
1282.175	5025
1284.449	5020
1286.722	5035
1288.995	5020
1291.266	5020
1293.54	5013
1295.81	4964
1298.081	4993
1300.35	4896
1302.62	4956
1304.889	4857
1307.156	5016
1309.425	4886
1311.69	4976
1313.957	4978
1316.222	5007
1318.488	4918
1320.751	4936
1323.016	5026
1325.278	4903
1327.54	4970
1329.803	4901
1332.065	4901
1334.325	4907
1336.584	4880
1338.843	4909
1341.101	4941
1343.36	4980
1345.617	5027
1347.876	4938
1350.131	5101
1352.387	4918
1354.643	4970
1356.897	4907
1359.151	4996
1361.403	5035
1363.656	4890
1365.909	4956
1368.16	4963
1370.409	4851
1372.659	4926
1374.909	5000
1377.157	4976
1379.407	5004
1381.655	5074
1383.9	5046
1386.147	5021
1388.393	5080
1390.64	5001
1392.885	5024
1395.127	5028
1397.37	4998
1399.614	4997
1401.854	5007
1404.098	5099
1406.339	5078
1408.578	5110
1410.818	5083
1413.056	5039
1415.297	5092
1417.533	5125
1419.771	5132
1422.006	5132
1424.243	5122
1426.479	5053
1428.715	5189
1430.948	5058
1433.182	5206
1435.414	5085
1437.647	5190
1439.88	5123
1442.11	5158
1444.342	5231
1446.571	5247
1448.799	5210
1451.029	5251
1453.258	5247
1455.485	5303
1457.711	5258
1459.937	5274
1462.164	5213
1464.39	5283
1466.614	5219
1468.838	5249
1471.06	5206
1473.283	5140
1475.506	5124
1477.727	5158
1479.949	5075
1482.169	5097
1484.389	4972
1486.609	5017
1488.828	5132
1491.045	4968
1493.261	5057
1495.477	4929
1497.693	5003
1499.91	5035
1502.125	4961
1504.339	5005
1506.553	5000
1508.766	4882
1510.979	4953
1513.191	4886
1515.402	4980
1517.613	4979
1519.823	4930
1522.033	4983
1524.242	4997
1526.451	4978
1528.657	4984
1530.865	5036
1533.072	5064
1535.278	5008
1537.484	5003
1539.687	4991
1541.892	4988
1544.096	5066
1546.299	5060
1548.502	5065
1550.703	5007
1552.905	5070
1555.104	4996
1557.303	5073
1559.505	5120
1561.703	5073
1563.902	5117
1566.099	5183
1568.295	5094
1570.494	5088
1572.689	5185
1574.883	5045
1577.079	5048
1579.272	5081
1581.467	5027
1583.659	5179
1585.853	5112
1588.044	5139
1590.234	5214
1592.424	5132
1594.615	5336
1596.806	5114
1598.994	5178
1601.182	5171
1603.369	5249
1605.557	5145
1607.744	5163
1609.929	5251
1612.114	5289
1614.298	5127
1616.482	5230
1618.667	5205
1620.85	5214
1623.032	5228
1625.214	5161
1627.395	5185
1629.575	5237
1631.755	5289
1633.935	5300
1636.114	5162
1638.292	5227
1640.471	5326
1642.647	5171
1644.823	5236
1647	5258
1649.175	5284
1651.348	5262
1653.525	5248
1655.698	5461
1657.87	5250
1660.043	5232
1662.213	5374
1664.387	5307
1666.558	5308
1668.727	5286
1670.896	5335
1673.064	5346
1675.233	5324
1677.401	5272
1679.569	5389
1681.735	5290
1683.902	5383
1686.066	5366
1688.233	5315
1690.397	5342
1692.559	5252
1694.723	5135
1696.885	5276
1699.048	5152
1701.21	5220
1703.37	5163
1705.53	5205
1707.689	5245
1709.849	5197
1712.009	5200
1714.166	5141
1716.323	5148
1718.479	5128
1720.634	5230
1722.793	5158
1724.948	5115
1727.102	5178
1729.255	5167
1731.408	5210
1733.562	5185
1735.714	5150
1737.865	5173
1740.016	5284
1742.166	5146
1744.316	5242
1746.467	5158
1748.616	5220
1750.764	5194
1752.911	5115
1755.056	5180
1757.205	5265
1759.35	5168
1761.496	5207
1763.641	5266
1765.785	5171
1767.927	5303
1770.072	5233
1772.214	5282
1774.355	5195
1776.496	5181
1778.637	5306
1780.778	5164
1782.918	5168
1785.057	5157
1787.194	5201
1789.333	5305
1791.472	5226
1793.608	5284
1795.745	5347
1797.879	5242
1800.015	5227
1802.148	5200
1804.284	5171
1806.417	5343
1808.548	5214
1810.682	5229
1812.812	5218
1814.946	5290
1817.075	5209
1819.205	5182
1821.335	5165
1823.463	5290
1825.59	5256
1827.721	5257
1829.847	5267
1831.973	5255
1834.098	5175
1836.223	5226
1838.351	5242
1840.475	5274
1842.598	5207
1844.721	5161
1846.843	5210
1848.966	5171
1851.087	5184
1853.21	5137
1855.33	5182
1857.449	5232
1859.568	5296
1861.688	5213
1863.806	5180
1865.924	5228
1868.039	5139
1870.155	5182
1872.273	5273
1874.388	5230
1876.503	5094
1878.617	5349
1880.73	5302
1882.844	5291
1884.956	5212
1887.068	5141
1889.18	5301
1891.291	5193
1893.4	5298
1895.511	5184
1897.621	5252
1899.73	5255
1901.837	5259
1903.944	5258
1906.053	5264
1908.159	5251
1910.265	5313
1912.369	5230
1914.474	5296
1916.577	5341
1918.683	5215
1920.785	5303
1922.888	5360
1924.989	5165
1927.091	5347
1929.193	5205
1931.294	5348
1933.393	5325
1935.493	5338
1937.59	5386
1939.689	5431
1941.788	5420
1943.884	5364
1945.98	5313
1948.077	5214
1950.171	5451
1952.267	5265
1954.361	5366
1956.455	5269
1958.548	5283
1960.64	5263
1962.733	5366
1964.824	5354
1966.915	5283
1969.005	5263
1971.096	5207
1973.185	5262
1975.275	5232
1977.363	5346
1979.45	5286
1981.537	5264
1983.623	5305
1985.711	5432
1987.796	5273
1989.881	5157
1991.965	5240
1994.047	5256
1996.132	5298
1998.215	5176
2000.297	5290
2002.378	5329
2004.46	5175
2006.54	5144
2008.62	5293
2010.7	5377
2012.779	5296
2014.858	5238
2016.934	5180
2019.013	5204
2021.09	5302
2023.165	5248
2025.241	5277
2027.317	5272
2029.39	5202
2031.466	5293
2033.538	5257
2035.612	5228
2037.683	5235
2039.755	5353
2041.827	5148
2043.898	5253
2045.968	5284
2048.038	5226
2050.106	5330
2052.177	5256
2054.244	5226
2056.313	5164
2058.379	5292
2060.444	5382
2062.511	5280
2064.577	5279
2066.641	5248
2068.705	5312
2070.77	5317
2072.832	5188
2074.896	5137
2076.958	5317
2079.02	5322
2081.081	5238
2083.141	5290
2085.2	5292
2087.261	5268
2089.319	5351
2091.377	5370
2093.435	5388
2095.492	5192
2097.552	5327
2099.607	5332
2101.663	5195
2103.718	5393
2105.771	5261
2107.826	5380
2109.879	5358
2111.932	5256
2113.985	5285
2116.037	5234
2118.088	5338
2120.141	5287
2122.191	5313
2124.239	5327
2126.288	5222
2128.337	5356
2130.387	5275
2132.434	5375
2134.481	5241
2136.528	5299
2138.574	5280
2140.618	5398
2142.665	5131
2144.71	5225
2146.753	5389
2148.797	5196
2150.838	5277
2152.883	5221
2154.923	5276
2156.965	5378
2159.007	5248
2161.046	5308
2163.086	5295
2165.126	5330
2167.163	5265
2169.202	5280
2171.239	5226
2173.277	5312
2175.314	5208
2177.349	5263
2179.385	5254
2181.42	5231
2183.453	5244
2185.49	5215
2187.522	5070
2189.555	5194
2191.586	5304
2193.619	5261
2195.651	5256
2197.682	5224
2199.711	5190
2201.74	5308
2203.769	5172
2205.799	5140
2207.828	5204
2209.855	5217
2211.882	5117
2213.908	5262
2215.934	5080
2217.961	5171
2219.986	5262
2222.01	5184
2224.034	5198
2226.057	5266
2228.08	5185
2230.104	5187
2232.124	5145
2234.145	5183
2236.166	5179
2238.186	5152
2240.207	5161
2242.227	5312
2244.244	5280
2246.262	5164
2248.28	5182
2250.299	5152
2252.314	5298
2254.33	5239
2256.346	5093
2258.36	5214
2260.375	5233
2262.391	5185
2264.403	5151
2266.416	5256
2268.427	5114
2270.44	5242
2272.453	5275
2274.463	5170
2276.474	5257
2278.483	5225
2280.493	5149
2282.501	5192
2284.51	5104
2286.518	5331
2288.524	5174
2290.532	5203
2292.537	5207
2294.544	5212
2296.55	5237
2298.554	5243
2300.557	5232
2302.562	5195
2304.566	5165
2306.568	5238
2308.569	5164
2310.572	5204
2312.573	5177
2314.573	5181
2316.574	5102
2318.573	5216
2320.571	5120
2322.571	5044
2324.569	5191
2326.567	5171
2328.564	5135
2330.56	5230
2332.556	5200
2334.551	5199
2336.546	5079
2338.542	5113
2340.535	5215
2342.529	5114
2344.521	5090
2346.512	5212
2348.505	5132
2350.497	5128
2352.487	5208
2354.478	5177
2356.468	5035
2358.457	5112
2360.446	5042
2362.434	5119
2364.422	5092
2366.408	5131
2368.395	5089
2370.383	5131
2372.369	5012
2374.353	5130
2376.338	5116
2378.321	5076
2380.307	5120
2382.29	5127
2384.272	5211
2386.254	5124
2388.235	5100
2390.218	5011
2392.198	5010
2394.179	4988
2396.157	4943
2398.137	5145
2400.115	5096
2402.095	5066
2404.072	5054
2406.048	5127
2408.026	5018
2410.001	5085
2411.977	5060
2413.953	5003
2415.927	5026
2417.9	5124
2419.875	5112
2421.847	5024
2423.821	5016
2425.792	5043
2427.763	5118
2429.736	5076
2431.706	5048
2433.677	5040
2435.646	5126
2437.615	5061
2439.583	5075
2441.551	5083
2443.519	5054
2445.486	5028
2447.452	5119
2449.418	4971
2451.383	5070
2453.348	5015
2455.314	5014
2457.278	5060
2459.241	5017
2461.205	5077
2463.167	5005
2465.131	4964
2467.091	5079
2469.052	5102
2471.012	4930
2472.972	5057
2474.932	4964
2476.891	5019
2478.85	5103
2480.808	5034
2482.766	5011
2484.722	5012
2486.68	4974
2488.636	5005
2490.591	4939
2492.546	5021
2494.5	5073
2496.456	5050
2498.41	5062
2500.362	4953
2502.315	4926
2504.266	4986
2506.218	5054
2508.169	4982
2510.121	5042
2512.07	4944
2514.019	4920
2515.968	5036
2517.918	5031
2519.866	4954
2521.813	4963
2523.76	4934
2525.707	5082
2527.653	5022
2529.599	5014
2531.543	4983
2533.489	5022
2535.433	5041
2537.376	5011
2539.32	4942
2541.264	4982
2543.205	5064
2545.147	5023
2547.087	4978
2549.029	4978
2550.969	4980
2552.908	5008
2554.847	4967
2556.786	4957
2558.724	5000
2560.663	5013
2562.6	4936
2564.537	4980
2566.473	4933
2568.408	4961
2570.345	5073
2572.28	5088
2574.214	5073
2576.148	5057
2578.081	5013
2580.014	4990
2581.947	4962
2583.879	5048
2585.81	4961
2587.741	5075
2589.67	5085
2591.602	5046
2593.532	5067
2595.461	5012
2597.388	5092
2599.316	4999
2601.244	5053
2603.172	4918
2605.098	4966
2607.023	4935
2608.949	5083
2610.873	5063
2612.8	5101
2614.723	5055
2616.647	4964
2618.569	5063
2620.493	5059
2622.416	4991
2624.338	5017
2626.258	4982
2628.179	4992
2630.099	4999
2632.019	5083
2633.939	4985
2635.857	4958
2637.775	4995
2639.694	5016
2641.61	5024
2643.528	5059
2645.444	5033
2647.361	5055
2649.276	4939
2651.19	5032
2653.105	5030
2655.019	5091
2656.934	5022
2658.846	4953
2660.758	4980
2662.67	4999
2664.583	5050
2666.493	5044
2668.404	4978
2670.313	4989
2672.223	5046
2674.134	5031
2676.042	4986
2677.95	4977
2679.858	4935
2681.765	5009
2683.673	5013
2685.579	4958
2687.483	5040
2689.389	4944
2691.294	4969
2693.198	4988
2695.104	5010
2697.006	4980
2698.909	4966
2700.811	4971
2702.713	4998
2704.615	5031
2706.516	4901
2708.417	5040
2710.316	4939
2712.216	5015
2714.115	4877
2716.014	5002
2717.913	4917
2719.81	4854
2721.707	4903
2723.603	4960
2725.501	4906
2727.396	4972
2729.292	4951
2731.186	5017
2733.081	4968
2734.976	4889
2736.87	4987
2738.762	4912
2740.653	4976
2742.546	5041
2744.437	4939
2746.329	4909
2748.22	4964
2750.11	4968
2751.999	4968
2753.889	4940
2755.778	4948
2757.666	4995
2759.553	4915
2761.44	4879
2763.328	4970
2765.215	4895
2767.101	4934
2768.986	4864
2770.87	4964
2772.754	4918
2774.638	4915
2776.523	5027
2778.405	4953
2780.288	4913
2782.17	4889
2784.051	4902
2785.934	4953
2787.814	4866
2789.694	4934
2791.574	4814
2793.453	4891
2795.332	4941
2797.212	4886
2799.088	4816
2800.966	4777
2802.843	4806
2804.719	4889
2806.597	4892
2808.471	4917
2810.346	4847
2812.221	4904
2814.094	4922
2815.969	4923
2817.843	5000
2819.714	4930
2821.587	4897
2823.459	4935
2825.329	4841
2827.202	4880
2829.072	4874
2830.942	4980
2832.811	4933
2834.68	4806
2836.549	4861
2838.418	4920
2840.284	4881
2842.152	4911
2844.018	4771
2845.885	4948
2847.751	4858
2849.616	4888
2851.482	4996
2853.345	4919
2855.208	4869
2857.074	4944
2858.937	4897
2860.799	4890
2862.66	4973
2864.522	5098
2866.385	5046
2868.245	5042
2870.104	5197
2871.964	5097
2873.824	5172
2875.683	5226
2877.542	5236
2879.4	5240
2881.257	5211
2883.114	5294
2884.97	5363
2886.827	5252
2888.683	5289
2890.537	5405
2892.392	5438
2894.246	5198
2896.1	5340
2897.954	5308
2899.807	5362
2901.66	5285
2903.51	5297
2905.362	5414
2907.214	5326
2909.065	5245
2910.915	5299
2912.765	5397
2914.613	5369
2916.463	5626
2918.311	5589
2920.158	5526
2922.006	5687
2923.853	5694
2925.698	5753
2927.546	5741
2929.392	5872
2931.236	6028
2933.081	5946
2934.924	6012
2936.77	5989
2938.613	5965
2940.455	6207
2942.298	6219
2944.139	6094
2945.982	6145
2947.823	6000
2949.662	6032
2951.503	6013
2953.342	5915
2955.182	5887
2957.021	5811
2958.858	5786
2960.697	5736
2962.534	5690
2964.37	5678
2966.207	5558
2968.044	5574
2969.879	5521
2971.714	5625
2973.548	5491
2975.383	5513
2977.218	5459
2979.051	5539
2980.883	5524
2982.715	5457
2984.547	5448
2986.379	5382
2988.21	5523
2990.04	5368
2991.87	5321
2993.7	5366
2995.53	5271
2997.359	5221
2999.187	5151
3001.015	5101
3002.842	5182
3004.669	5083
3006.497	4980
3008.323	4971
3010.148	4998
3011.974	4944
3013.797	5049
3015.623	4835
3017.447	4887
3019.27	4867
3021.094	4843
3022.915	4772
3024.737	4704
3026.56	4787
3028.38	4788
3030.201	4836
3032.022	4755
3033.84	4803
3035.662	4641
3037.481	4759
3039.298	4806
3041.117	4761
3042.933	4685
3044.752	4755
3046.568	4792
3048.385	4681
3050.2	4724
3052.016	4739
3053.83	4657
3055.646	4670
3057.46	4657
3059.272	4695
3061.086	4707
3062.898	4817
3064.711	4728
3066.524	4721
3068.335	4715
3070.145	4689
3071.956	4652
3073.766	4686
3075.576	4590
3077.385	4587
3079.193	4658
3081.002	4653
3082.81	4588
3084.618	4624
3086.425	4604
3088.231	4609
3090.036	4475
3091.842	4659
3093.648	4620
3095.452	4637
3097.257	4537
3099.06	4534
3100.863	4647
3102.666	4616
3104.47	4565
3106.272	4573
3108.073	4463
3109.875	4576
3111.676	4562
3113.477	4580
3115.277	4521
3117.077	4551
3118.874	4461
3120.673	4616
3122.473	4525
3124.271	4466
3126.066	4465
3127.863	4495
3129.66	4474
3131.456	4478
3133.252	4580
3135.047	4541
3136.842	4512
3138.635	4596
3140.429	4386
3142.223	4477
3144.016	4501
3145.808	4446
3147.6	4561
3149.392	4519
3151.183	4419
3152.975	4540
3154.765	4499
3156.553	4480
3158.344	4510
3160.132	4553
3161.922	4420
3163.71	4413
3165.497	4526
3167.285	4394
3169.071	4510
3170.858	4397
3172.645	4395
3174.429	4489
3176.214	4431
3177.998	4490
3179.783	4502
3181.568	4433
3183.351	4364
3185.133	4443
3186.915	4432
3188.698	4368
3190.481	4467
3192.261	4373
3194.042	4503
3195.822	4441
3197.601	4440
3199.381	4462
3201.161	4426
3202.939	4425
3204.717	4414
3206.495	4472
3208.272	4429
3210.05	4503
3211.826	4465
3213.602	4441
3215.376	4498
3217.151	4437
3218.927	4475
3220.702	4443
3222.476	4337
3224.249	4451
3226.021	4381
3227.793	4425
3229.567	4392
3231.339	4406
3233.109	4392
3234.88	4388
3236.651	4299
3238.421	4442
3240.191	4423
3241.96	4391
3243.728	4373
3245.497	4398
3247.263	4366
3249.033	4325
3250.799	4347
3252.566	4442
3254.331	4450
3256.097	4467
3257.863	4424
3259.628	4422
3261.392	4519
3263.156	4415
3264.919	4432
3266.683	4442
3268.447	4398
3270.208	4458
3271.969	4424
3273.731	4454
3275.492	4406
3277.253	4491
3279.013	4460
3280.773	4523
3282.532	4341
3284.291	4471
3286.05	4420
3287.808	4340
3289.566	4428
3291.323	4470
3293.079	4345
3294.835	4435
3296.593	4432
3298.348	4344
3300.102	4464
3301.857	4421
3303.611	4495
3305.366	4381
3307.119	4341
3308.872	4489
3310.624	4488
3312.376	4458
3314.129	4340
3315.881	4422
3317.631	4398
3319.38	4402
3321.13	4492
3322.88	4380
3324.631	4475
3326.379	4412
3328.126	4446
3329.875	4381
3331.622	4441
3333.371	4333
3335.116	4423
3336.863	4405
3338.609	4414
3340.353	4408
3342.1	4333
3343.845	4447
3345.588	4396
3347.332	4481
3349.074	4391
3350.817	4479
3352.56	4431
3354.303	4363
3356.043	4308
3357.785	4414
3359.525	4342
3361.268	4314
3363.007	4395
3364.745	4352
3366.485	4362
3368.223	4299
3369.962	4375
3371.701	4317
3373.438	4335
3375.174	4321
3376.911	4287
3378.647	4347
3380.384	4347
3382.118	4361
3383.854	4270
3385.588	4220
3387.322	4318
3389.057	4368
3390.79	4272
3392.522	4311
3394.255	4353
3395.987	4344
3397.719	4350
3399.451	4182
3401.181	4276
3402.911	4245
3404.641	4322
3406.371	4310
3408.101	4363
3409.83	4285
3411.558	4281
3413.285	4225
3415.011	4240
3416.739	4311
3418.467	4204
3420.193	4272
3421.919	4295
3423.644	4274
3425.368	4226
3427.094	4240
3428.818	4207
3430.542	4289
3432.264	4149
3433.987	4240
3435.712	4278
3437.434	4211
3439.155	4179
3440.876	4281
3442.596	4224
3444.317	4099
3446.039	4275
3447.757	4203
3449.477	4113
3451.195	4131
3452.914	4183
3454.632	4189
3456.35	4132
3458.067	4118
3459.784	4111
3461.5	4119
3463.216	4248
3464.932	4211
3466.647	4188
3468.362	4102
3470.076	4171
3471.789	4172
3473.505	4214
3475.217	4079
3476.929	4057
3478.641	4227
3480.354	4107
3482.066	4122
3483.777	4157
3485.487	4122
3487.197	4014
3488.908	4078
3490.617	4136
3492.327	4070
3494.035	4029
3495.743	3996
3497.451	3943
3499.158	4030
3500.866	4017
3502.572	4016
3504.278	4056
3505.984	4057
3507.689	4034
3509.396	3996
3511.1	3981
3512.804	3996
3514.508	4132
3516.211	3975
3517.913	4012
3519.616	3932
3521.319	3974
3523.021	4047
3524.722	4032
3526.422	3965
3528.124	3963
3529.824	3932
3531.524	4037
3533.222	3992
3534.921	4000
3536.62	3945
3538.318	4011
3540.016	3991
3541.714	3989
3543.41	3954
3545.107	4003
3546.803	4010
3548.5	3905
3550.194	4010
3551.889	3888
3553.583	3891
3555.279	3842
3556.972	3960
3558.666	3950
3560.358	4004
3562.051	3913
3563.742	3874
3565.435	3964
3567.126	3873
3568.817	3855
3570.507	3929
3572.197	3888
3573.888	3925
3575.577	3841
3577.265	3883
3578.954	3863
3580.642	3800
3582.329	3847
3584.017	3859
3585.704	3871
3587.391	3844
3589.077	3804
3590.762	3774
3592.449	3834
3594.133	3857
3595.817	3856
3597.501	3886
3599.185	3800
3600.869	3847
3602.552	3758
3604.234	3796
3605.916	3756
3607.598	3788
3609.279	3736
3610.961	3794
3612.642	3775
3614.321	3789
3616	3740
3617.68	3767
3619.36	3709
3621.039	3724
3622.716	3819
3624.394	3666
3626.071	3719
3627.748	3709
3629.425	3656
3631.102	3734
3632.778	3716
3634.452	3724
3636.127	3718
3637.803	3698
3639.477	3716
3641.151	3661
3642.823	3734
3644.497	3651
3646.171	3678
3647.842	3607
3649.515	3762
3651.185	3525
3652.857	3638
3654.527	3643
3656.198	3627
3657.868	3682
3659.537	3538
3661.207	3616
3662.875	3677
3664.544	3639
3666.212	3632
3667.879	3559
3669.546	3669
3671.212	3618
3672.88	3640
3674.546	3626
3676.211	3560
3677.875	3602
3679.541	3539
3681.205	3677
3682.87	3541
3684.533	3592
3686.196	3538
3687.859	3579
3689.521	3571
3691.184	3566
3692.845	3625
3694.507	3627
3696.167	3529
3697.827	3537
3699.487	3544
3701.148	3544
3702.808	3518
3704.466	3563
3706.125	3587
3707.783	3582
3709.442	3490
3711.099	3531
3712.757	3601
3714.412	3500
3716.068	3535
3717.725	3518
3719.381	3532
3721.036	3455
3722.689	3549
3724.344	3491
3725.998	3549
3727.652	3512
3729.305	3490
3730.958	3554
3732.61	3529
3734.262	3497
3735.915	3542
3737.565	3471
3739.217	3439
3740.866	3447
3742.516	3406
3744.165	3551
3745.816	3509
3747.464	3490
3749.113	3529
3750.761	3464
3752.409	3590
3754.057	3529
3755.703	3438
3757.35	3500
3758.996	3506
3760.641	3453
3762.289	3427
3763.933	3425
3765.577	3355
3767.222	3451
3768.865	3358
3770.508	3513
3772.152	3456
3773.796	3456
3775.438	3424
3777.079	3417
3778.721	3425
3780.363	3439
3782.003	3504
3783.643	3418
3785.283	3423
3786.923	3382
3788.563	3421
3790.203	3392
3791.841	3301
3793.479	3370
3795.115	3399
3796.753	3456
3798.391	3376
3800.027	3402
3801.664	3439
3803.299	3389
3804.935	3298
3806.571	3384
3808.206	3445
3809.839	3354
3811.473	3405
3813.107	3321
3814.74	3291
3816.375	3378
3818.006	3384
3819.638	3379
3821.27	3312
3822.9	3391
3824.532	3410
3826.163	3383
3827.792	3397
3829.423	3402
3831.051	3364
3832.682	3310
3834.311	3373
3835.938	3302
3837.566	3350
3839.193	3284
3840.821	3361
3842.448	3286
3844.075	3311
3845.7	3317
3847.325	3285
3848.951	3337
3850.576	3309
3852.201	3248
3853.825	3304
3855.448	3344
3857.072	3262
3858.694	3290
3860.318	3264
3861.939	3319
3863.562	3276
3865.183	3319
3866.804	3325
3868.426	3274
3870.045	3324
3871.666	3310
3873.285	3261
3874.904	3200
3876.524	3270
3878.142	3262
3879.76	3261
3881.378	3243
3882.995	3218
3884.612	3276
3886.229	3317
3887.845	3253
3889.461	3254
3891.076	3249
3892.691	3301
3894.307	3316
3895.922	3237
3897.536	3181
3899.149	3263
3900.761	3149
3902.374	3224
3903.988	3307
3905.6	3240
3907.212	3290
3908.822	3230
3910.433	3288
3912.045	3237
3913.655	3233
3915.265	3192
3916.875	3278
3918.483	3220
3920.093	3233
3921.702	3245
3923.309	3213
3924.917	3291
3926.523	3157
3928.13	3171
3929.739	3250
3931.344	3180
3932.95	3251
3934.555	3231
3936.159	3194
3937.766	3205
3939.369	3193
3940.974	3242
3942.577	3147
3944.181	3214
3945.783	3219
3947.386	3224
3948.989	3166
3950.59	3196
3952.191	3211
3953.791	3180
3955.394	3228
3956.994	3266
3958.593	3196
3960.192	3196
3961.791	3113
3963.392	3241
3964.99	3152
3966.588	3135
3968.185	3081
3969.782	3174
3971.379	3138
3972.976	3170
3974.572	3097
3976.168	3161
3977.763	3161
3979.358	3139
3980.954	3131
3982.548	3130
3984.142	3124
3985.736	3025
3987.329	3079
3988.922	3198
3990.516	3055
3992.108	3114
3993.698	3032
3995.29	3040
3996.881	3082
3998.473	3049
4000.064	3100
4001.653	3005
4003.242	3063
4004.832	3023
4006.422	2997
4008.01	3063
4009.598	3037
4011.186	3077
4012.773	3021
4014.36	3045
4015.947	3079
4017.534	2997
4019.119	3058
4020.705	3015
4022.291	2986
4023.876	3033
4025.461	3046
4027.044	3003
4028.627	2917
4030.211	3004
4031.795	3046
4033.378	2928
4034.96	2969
4036.542	3003
4038.124	3010
4039.704	3024
4041.286	3050
4042.867	2960
4044.447	2986
4046.026	2994
4047.606	2998
4049.187	2903
4050.765	2954
4052.343	2923
4053.92	3035
4055.498	2967
4057.076	2968
4058.654	2996
4060.23	3013
4061.806	2956
4063.381	2949
4064.957	3019
4066.533	2952
4068.107	2971
4069.682	2891
4071.256	3011
4072.829	2940
4074.404	2979
4075.977	2963
4077.549	2962
4079.121	2959
4080.693	2919
4082.265	2984
4083.836	3022
4085.407	3028
4086.977	2897
4088.547	2934
4090.117	2900
4091.687	2970
4093.256	2899
4094.825	2845
4096.392	2924
4097.96	2869
4099.528	2941
4101.097	2895
4102.663	2866
4104.229	2912
4105.795	2990
4107.361	2892
4108.928	2797
4110.493	2885
4112.058	2914
4113.621	2922
4115.186	2812
4116.75	2823
4118.313	2896
4119.876	2931
4121.438	2949
4123	2907
4124.562	2866
4126.125	2866
4127.686	2830
4129.246	2861
4130.807	2807
4132.367	2893
4133.927	2874
4135.486	2799
4137.046	2841
4138.604	2884
4140.162	2849
4141.72	2882
4143.279	2817
4144.836	2846
4146.393	2748
4147.949	2853
4149.505	2829
4151.062	2768
4152.617	2813
4154.172	2745
4155.727	2796
4157.281	2831
4158.836	2800
4160.39	2879
4161.943	2824
4163.496	2778
4165.048	2728
4166.601	2740
4168.154	2750
4169.706	2684
4171.257	2776
4172.808	2739
4174.358	2756
4175.909	2791
4177.458	2786
4179.008	2756
4180.558	2755
4182.106	2732
4183.655	2732
4185.204	2747
4186.751	2754
4188.298	2701
4189.845	2809
4191.392	2726
4192.939	2840
4194.485	2694
4196.031	2650
4197.576	2789
4199.121	2743
4200.666	2620
4202.211	2671
4203.754	2771
4205.298	2689
4206.84	2712
4208.384	2652
4209.927	2707
4211.47	2660
4213.011	2729
4214.552	2706
4216.094	2726
4217.635	2697
4219.175	2793
4220.716	2639
4222.255	2663
4223.793	2653
4225.335	2726
4226.873	2728
4228.411	2787
4229.948	2677
4231.486	2653
4233.024	2633
4234.562	2732
4236.098	2705
4237.634	2633
4239.169	2630
4240.705	2655
4242.241	2749
4243.776	2671
4245.31	2714
4246.844	2609
4248.378	2669
4249.911	2636
4251.445	2658
4252.978	2659
4254.51	2628
4256.042	2656
4257.574	2683
4259.107	2675
4260.638	2657
4262.169	2655
4263.699	2572
4265.228	2729
4266.759	2609
4268.289	2688
4269.818	2631
4271.345	2617
4272.874	2639
4274.402	2631
4275.931	2619
4277.458	2611
4278.985	2579
4280.512	2592
4282.037	2662
4283.564	2635
4285.089	2629
4286.615	2590
4288.139	2642
4289.664	2578
4291.187	2562
4292.712	2598
4294.235	2630
4295.759	2596
4297.281	2609
4298.804	2556
4300.327	2634
4301.849	2600
4303.37	2559
4304.891	2571
4306.412	2579
4307.933	2629
4309.453	2659
4310.973	2502
4312.492	2545
