398.1873	2819
400.7097	2845
403.2336	2815
405.7547	2757
408.2751	2769
410.7948	2795
413.3138	2905
415.83	2830
418.3497	2889
420.8666	2926
423.3829	2907
425.8985	3015
428.4133	2933
430.9275	2973
433.441	3010
435.9538	2997
438.4639	3026
440.9753	2998
443.4881	2960
445.9982	3019
448.5055	2946
451.0142	3021
453.5201	2934
456.0274	2954
458.5361	2976
461.04	2967
463.5453	3031
466.0478	3012
468.5517	2958
471.0549	2969
473.5574	2997
476.0572	2967
478.5584	2983
481.0568	3002
483.5545	3034
486.0557	3017
488.5521	2936
491.0478	3063
493.5449	2999
496.0392	2953
498.5349	3056
501.0299	3049
503.5222	3025
506.0139	3036
508.5048	3030
510.9991	3074
513.4887	3049
515.9777	3067
518.4659	3051
520.9534	3022
523.4403	2973
525.9306	3124
528.4161	3089
530.9009	3032
533.3851	3117
535.8687	3068
538.3535	3102
540.8356	3099
543.3171	3050
545.7979	3083
548.278	3072
550.7595	3058
553.2383	3094
555.7144	3060
558.1918	3090
560.6685	3128
563.1446	3081
565.6221	3125
568.0968	3211
570.5688	3155
573.0422	3132
575.515	3161
577.989	3123
580.4584	3182
582.9291	3136
585.3991	3236
587.8685	3243
590.3352	3164
592.8052	3076
595.2706	3273
597.7372	3218
600.2033	3095
602.6666	3152
605.1334	3231
607.5953	3159
610.0587	3240
612.5193	3168
614.9814	3129
617.4427	3231
619.9034	3215
622.3615	3108
624.8208	3208
627.2775	3168
629.7335	3130
632.1929	3140
634.6476	3161
637.1016	3106
639.5569	3180
642.0096	3160
644.4637	3175
646.9151	3189
649.3678	3239
651.8179	3160
654.2672	3251
656.7159	3243
659.166	3135
661.6154	3174
664.0622	3231
666.5082	3193
668.9537	3145
671.4005	3263
673.8445	3196
676.288	3257
678.7308	3321
681.1729	3287
683.6163	3299
686.0572	3307
688.4973	3283
690.9368	3294
693.3757	3230
695.8138	3295
698.2534	3320
700.6902	3259
703.1245	3326
705.56	3297
707.9949	3347
710.4311	3353
712.8647	3315
715.2957	3248
717.7279	3383
720.1595	3345
722.5905	3372
725.0208	3378
727.4505	3359
729.8795	3423
732.3058	3398
734.7336	3405
737.1626	3322
739.587	3402
742.0128	3431
744.4359	3352
746.8604	3396
749.2841	3452
751.7073	3425
754.1278	3490
756.5496	3450
758.9688	3530
761.3893	3493
763.8093	3400
766.2285	3548
768.6451	3489
771.0611	3518
773.4784	3510
775.895	3455
778.3091	3488
780.7244	3469
783.1371	3490
785.5493	3491
787.9626	3427
790.3754	3444
792.7856	3554
795.1951	3407
797.6039	3478
800.0121	3417
802.4236	3553
804.8306	3546
807.2369	3470
809.6425	3612
812.0475	3464
814.4538	3532
816.8575	3519
819.2606	3577
821.663	3493
824.0648	3500
826.4659	3497
828.8683	3567
831.2682	3568
833.6674	3602
836.066	3543
838.4639	3590
840.8632	3480
843.2579	3531
845.6539	3604
848.0493	3583
850.444	3542
852.84	3671
855.2315	3658
857.6243	3634
860.0165	3592
862.4081	3579
864.797	3488
867.1892	3670
869.5789	3644
871.9659	3549
874.3542	3618
876.74	3645
879.129	3586
881.5155	3641
883.8994	3613
886.2845	3570
888.6671	3560
891.051	3578
893.4343	3571
895.8169	3639
898.197	3535
900.5783	3595
902.9571	3553
905.3372	3674
907.7167	3686
910.0936	3597
912.4698	3695
914.8474	3691
917.2244	3703
919.5987	3640
921.9744	3743
924.3475	3750
926.72	3750
929.0918	3824
931.4669	3869
933.8375	3751
936.2074	3759
938.5767	3941
940.9454	3889
943.3154	3926
945.6829	3925
948.0497	4044
950.4178	4047
952.7833	4184
955.1483	4447
957.5145	4592
959.8782	4599
962.2412	4529
964.6036	4515
966.9655	4290
969.3266	4203
971.6871	4006
974.0471	3886
976.4064	3822
978.765	3825
981.125	3770
983.4824	3742
985.8373	3676
988.1935	3712
990.549	3791
992.9039	3705
995.2602	3796
997.6119	3774
999.965	3740
1002.317	3793
1004.667	3759
1007.02	3731
1009.371	3689
1011.719	3730
1014.068	3707
1016.415	3740
1018.765	3756
1021.111	3773
1023.458	3763
1025.804	3816
1028.147	3843
1030.49	3816
1032.837	3834
1035.179	3843
1037.522	3807
1039.862	3818
1042.204	3832
1044.546	3864
1046.884	3859
1049.224	3866
1051.562	3720
1053.899	3841
1056.237	3808
1058.575	3873
1060.91	3818
1063.244	3814
1065.58	3847
1067.913	3887
1070.248	3853
1072.579	3893
1074.911	3872
1077.242	3878
1079.572	3884
1081.905	3871
1084.234	3881
1086.562	3764
1088.89	3909
1091.217	3772
1093.544	3805
1095.871	3875
1098.197	3851
1100.521	3776
1102.845	3769
1105.169	3858
1107.491	3800
1109.814	3832
1112.135	3769
1114.456	3846
1116.776	3862
1119.096	3818
1121.415	3789
1123.734	3753
1126.052	3768
1128.369	3933
1130.686	3701
1133.002	3864
1135.318	3792
1137.632	3818
1139.945	3771
1142.258	3825
1144.573	3841
1146.884	3830
1149.196	3812
1151.505	3853
1153.816	3816
1156.124	3843
1158.435	3900
1160.742	3796
1163.051	3891
1165.356	3866
1167.663	3889
1169.97	3844
1172.276	3855
1174.579	3792
1176.881	3890
1179.186	3843
1181.487	3754
1183.79	3767
1186.092	3811
1188.392	3808
1190.691	3759
1192.991	3873
1195.291	3905
1197.588	3809
1199.885	3798
1202.181	3763
1204.479	3831
1206.775	3803
1209.07	3857
1211.363	3855
1213.656	3875
1215.949	3871
1218.241	3891
1220.534	3885
1222.825	3843
1225.115	3918
1227.405	3826
1229.693	3968
1231.984	3966
1234.271	3883
1236.558	4010
1238.845	4007
1241.131	3974
1243.416	3962
1245.703	4027
1247.987	3999
1250.269	4040
1252.552	3958
1254.834	4009
1257.118	3965
1259.399	3969
1261.678	4116
1263.958	3978
1266.237	3985
1268.516	3944
1270.794	3950
1273.072	3995
1275.347	3997
1277.624	4032
1279.899	4027
1282.175	4007
1284.449	3923
1286.722	3994
1288.995	3930
1291.266	3960
1293.54	3846
1295.81	4060
1298.081	3894
1300.35	3844
1302.62	4005
1304.889	3944
1307.156	3905
1309.425	4037
1311.69	3965
1313.957	3996
1316.222	4005
1318.488	3899
1320.751	4043
1323.016	3930
1325.278	3938
1327.54	3946
1329.803	3952
1332.065	3897
1334.325	3960
1336.584	3870
1338.843	4001
1341.101	3951
1343.36	3963
1345.617	3963
1347.876	4010
1350.131	3956
1352.387	3888
1354.643	4037
1356.897	4000
1359.151	3940
1361.403	3917
1363.656	3876
1365.909	3985
1368.16	3988
1370.409	3992
1372.659	4032
1374.909	4051
1377.157	4081
1379.407	3930
1381.655	4001
1383.9	4007
1386.147	4004
1388.393	4003
1390.64	4013
1392.885	4111
1395.127	3987
1397.37	4003
1399.614	4069
1401.854	4041
1404.098	4102
1406.339	4061
1408.578	3995
1410.818	4145
1413.056	4149
1415.297	4055
1417.533	4081
1419.771	4131
1422.006	4062
1424.243	4107
1426.479	4093
1428.715	4112
1430.948	4167
1433.182	4028
1435.414	4233
1437.647	4063
1439.88	4255
1442.11	4137
1444.342	4190
1446.571	4186
1448.799	4186
1451.029	4149
1453.258	4164
1455.485	4219
1457.711	4147
1459.937	4154
1462.164	4152
1464.39	4273
1466.614	4167
1468.838	4119
1471.06	4131
1473.283	4129
1475.506	3993
1477.727	4105
1479.949	4005
1482.169	4041
1484.389	4145
1486.609	4016
1488.828	4025
1491.045	3975
1493.261	3899
1495.477	4109
1497.693	4039
1499.91	3919
1502.125	3983
1504.339	3979
1506.553	3977
1508.766	4075
1510.979	4000
1513.191	3939
1515.402	4016
1517.613	3979
1519.823	4058
1522.033	3993
1524.242	4016
1526.451	4009
1528.657	3978
1530.865	4013
1533.072	4027
1535.278	4041
1537.484	4007
1539.687	4039
1541.892	4066
1544.096	3950
1546.299	4040
1548.502	4106
1550.703	4011
1552.905	4001
1555.104	4084
1557.303	4137
1559.505	4025
1561.703	4106
1563.902	4075
1566.099	4098
1568.295	4070
1570.494	4038
1572.689	4127
1574.883	4086
1577.079	4137
1579.272	4205
1581.467	4151
1583.659	4121
1585.853	4194
1588.044	4137
1590.234	4131
1592.424	4184
1594.615	4190
1596.806	4135
1598.994	4080
1601.182	4245
1603.369	4201
1605.557	4175
1607.744	4083
1609.929	4157
1612.114	4127
1614.298	4229
1616.482	4211
1618.667	4195
1620.85	4255
1623.032	4153
1625.214	4094
1627.395	4253
1629.575	4225
1631.755	4229
1633.935	4206
1636.114	4208
1638.292	4189
1640.471	4227
1642.647	4231
1644.823	4172
1647	4170
1649.175	4235
1651.348	4222
1653.525	4178
1655.698	4231
1657.87	4323
1660.043	4272
1662.213	4243
1664.387	4408
1666.558	4228
1668.727	4357
1670.896	4242
1673.064	4251
1675.233	4271
1677.401	4209
1679.569	4303
1681.735	4185
1683.902	4305
1686.066	4235
1688.233	4230
1690.397	4231
1692.559	4153
1694.723	4207
1696.885	4323
1699.048	4175
1701.21	4142
1703.37	4218
1705.53	4167
1707.689	4263
1709.849	4149
1712.009	4216
1714.166	4173
1716.323	4174
1718.479	4242
1720.634	4189
1722.793	4243
1724.948	4235
1727.102	4191
1729.255	4089
1731.408	4232
1733.562	4198
1735.714	4156
1737.865	4183
1740.016	4214
1742.166	4209
1744.316	4253
1746.467	4124
1748.616	4159
1750.764	4277
1752.911	4267
1755.056	4270
1757.205	4156
1759.35	4121
1761.496	4124
1763.641	4217
1765.785	4159
1767.927	4183
1770.072	4216
1772.214	4309
1774.355	4280
1776.496	4221
1778.637	4284
1780.778	4274
1782.918	4265
1785.057	4187
1787.194	4327
1789.333	4344
1791.472	4290
1793.608	4335
1795.745	4247
1797.879	4240
1800.015	4263
1802.148	4207
1804.284	4331
1806.417	4260
1808.548	4163
1810.682	4266
1812.812	4292
1814.946	4260
1817.075	4264
1819.205	4261
1821.335	4202
1823.463	4248
1825.59	4248
1827.721	4182
1829.847	4208
1831.973	4223
1834.098	4332
1836.223	4335
1838.351	4303
1840.475	4276
1842.598	4172
1844.721	4256
1846.843	4257
1848.966	4292
1851.087	4261
1853.21	4201
1855.33	4226
1857.449	4229
1859.568	4250
1861.688	4207
1863.806	4174
1865.924	4158
1868.039	4198
1870.155	4279
1872.273	4256
1874.388	4188
1876.503	4248
1878.617	4255
1880.73	4223
1882.844	4239
1884.956	4250
1887.068	4301
1889.18	4300
1891.291	4226
1893.4	4219
1895.511	4271
1897.621	4245
1899.73	4373
1901.837	4227
1903.944	4384
1906.053	4256
1908.159	4244
1910.265	4296
1912.369	4305
1914.474	4275
1916.577	4359
1918.683	4373
1920.785	4346
1922.888	4331
1924.989	4380
1927.091	4407
1929.193	4280
1931.294	4278
1933.393	4261
1935.493	4311
1937.59	4360
1939.689	4332
1941.788	4375
1943.884	4221
1945.98	4291
1948.077	4322
1950.171	4338
1952.267	4340
1954.361	4369
1956.455	4352
1958.548	4345
1960.64	4325
1962.733	4308
1964.824	4351
1966.915	4303
1969.005	4375
1971.096	4275
1973.185	4244
1975.275	4325
1977.363	4291
1979.45	4323
1981.537	4271
1983.623	4291
1985.711	4314
1987.796	4313
1989.881	4351
1991.965	4364
1994.047	4361
1996.132	4372
1998.215	4341
2000.297	4368
2002.378	4307
2004.46	4288
2006.54	4358
2008.62	4338
2010.7	4320
2012.779	4279
2014.858	4393
2016.934	4321
2019.013	4338
2021.09	4251
2023.165	4346
2025.241	4376
2027.317	4347
2029.39	4336
2031.466	4371
2033.538	4375
2035.612	4318
2037.683	4361
2039.755	4361
2041.827	4337
2043.898	4275
2045.968	4222
2048.038	4313
2050.106	4239
2052.177	4360
2054.244	4350
2056.313	4310
2058.379	4308
2060.444	4353
2062.511	4216
2064.577	4240
2066.641	4358
2068.705	4287
2070.77	4312
2072.832	4367
2074.896	4373
2076.958	4379
2079.02	4390
2081.081	4338
2083.141	4424
2085.2	4466
2087.261	4400
2089.319	4404
2091.377	4278
2093.435	4370
2095.492	4338
2097.552	4377
2099.607	4378
2101.663	4367
2103.718	4427
2105.771	4210
2107.826	4448
2109.879	4344
2111.932	4400
2113.985	4386
2116.037	4416
2118.088	4284
2120.141	4389
2122.191	4422
2124.239	4369
2126.288	4414
2128.337	4321
2130.387	4350
2132.434	4365
2134.481	4399
2136.528	4310
2138.574	4347
2140.618	4411
2142.665	4442
2144.71	4369
2146.753	4352
2148.797	4367
2150.838	4324
2152.883	4380
2154.923	4198
2156.965	4264
2159.007	4406
2161.046	4331
2163.086	4388
2165.126	4382
2167.163	4337
2169.202	4261
2171.239	4379
2173.277	4414
2175.314	4315
2177.349	4282
2179.385	4334
2181.42	4329
2183.453	4445
2185.49	4238
2187.522	4362
2189.555	4344
2191.586	4329
2193.619	4323
2195.651	4401
2197.682	4285
2199.711	4167
2201.74	4334
2203.769	4330
2205.799	4300
2207.828	4292
2209.855	4341
2211.882	4304
2213.908	4348
2215.934	4301
2217.961	4312
2219.986	4233
2222.01	4310
2224.034	4301
2226.057	4265
2228.08	4223
2230.104	4245
2232.124	4190
2234.145	4295
2236.166	4214
2238.186	4287
2240.207	4280
2242.227	4353
2244.244	4304
2246.262	4302
2248.28	4399
2250.299	4250
2252.314	4334
2254.33	4290
2256.346	4245
2258.36	4322
2260.375	4385
2262.391	4304
2264.403	4287
2266.416	4314
2268.427	4262
2270.44	4276
2272.453	4354
2274.463	4381
2276.474	4295
2278.483	4226
2280.493	4376
2282.501	4327
2284.51	4342
2286.518	4308
2288.524	4267
2290.532	4314
2292.537	4280
2294.544	4220
2296.55	4343
2298.554	4323
2300.557	4266
2302.562	4199
2304.566	4287
2306.568	4253
2308.569	4354
2310.572	4345
2312.573	4303
2314.573	4285
2316.574	4296
2318.573	4249
2320.571	4257
2322.571	4343
2324.569	4253
2326.567	4285
2328.564	4226
2330.56	4292
2332.556	4345
2334.551	4157
2336.546	4210
2338.542	4325
2340.535	4197
2342.529	4261
2344.521	4271
2346.512	4291
2348.505	4240
2350.497	4255
2352.487	4276
2354.478	4233
2356.468	4222
2358.457	4280
2360.446	4277
2362.434	4287
2364.422	4313
2366.408	4244
2368.395	4314
2370.383	4177
2372.369	4209
2374.353	4222
2376.338	4198
2378.321	4286
2380.307	4267
2382.29	4163
2384.272	4224
2386.254	4185
2388.235	4347
2390.218	4203
2392.198	4216
2394.179	4143
2396.157	4302
2398.137	4268
2400.115	4203
2402.095	4178
2404.072	4174
2406.048	4258
2408.026	4168
2410.001	4206
2411.977	4285
2413.953	4170
2415.927	4143
2417.9	4256
2419.875	4208
2421.847	4230
2423.821	4299
2425.792	4260
2427.763	4250
2429.736	4155
2431.706	4179
2433.677	4118
2435.646	4182
2437.615	4316
2439.583	4200
2441.551	4217
2443.519	4210
2445.486	4198
2447.452	4207
2449.418	4208
2451.383	4263
2453.348	4252
2455.314	4223
2457.278	4203
2459.241	4244
2461.205	4177
2463.167	4182
2465.131	4246
2467.091	4220
2469.052	4124
2471.012	4140
2472.972	4200
2474.932	4158
2476.891	4166
2478.85	4181
2480.808	4158
2482.766	4242
2484.722	4146
2486.68	4149
2488.636	4138
2490.591	4188
2492.546	4073
2494.5	4185
2496.456	4217
2498.41	4106
2500.362	4196
2502.315	4175
2504.266	4169
2506.218	4184
2508.169	4173
2510.121	4091
2512.07	4203
2514.019	4165
2515.968	4159
2517.918	4147
2519.866	4155
2521.813	4146
2523.76	4251
2525.707	4238
2527.653	4157
2529.599	4225
2531.543	4162
2533.489	4075
2535.433	4155
2537.376	4135
2539.32	4142
2541.264	4144
2543.205	4073
2545.147	4201
2547.087	4110
2549.029	4190
2550.969	4140
2552.908	4201
2554.847	4158
2556.786	4157
2558.724	4173
2560.663	4130
2562.6	4149
2564.537	4175
2566.473	4102
2568.408	4235
2570.345	4183
2572.28	4191
2574.214	4051
2576.148	4256
2578.081	4194
2580.014	4028
2581.947	4077
2583.879	4133
2585.81	4117
2587.741	4245
2589.67	4164
2591.602	4218
2593.532	4228
2595.461	4181
2597.388	4197
2599.316	4318
2601.244	4193
2603.172	4136
2605.098	4142
2607.023	4178
2608.949	4210
2610.873	4266
2612.8	4207
2614.723	4213
2616.647	4158
2618.569	4145
2620.493	4209
2622.416	4238
2624.338	4241
2626.258	4246
2628.179	4136
2630.099	4173
2632.019	4203
2633.939	4149
2635.857	4248
2637.775	4226
2639.694	4274
2641.61	4261
2643.528	4252
2645.444	4197
2647.361	4226
2649.276	4173
2651.19	4174
2653.105	4224
2655.019	4243
2656.934	4141
2658.846	4332
2660.758	4210
2662.67	4181
2664.583	4237
2666.493	4176
2668.404	4244
2670.313	4086
2672.223	4261
2674.134	4168
2676.042	4199
2677.95	4174
2679.858	4237
2681.765	4214
2683.673	4155
2685.579	4186
2687.483	4267
2689.389	4178
2691.294	4125
2693.198	4191
2695.104	4151
2697.006	4137
2698.909	4139
2700.811	4311
2702.713	4208
2704.615	4179
2706.516	4144
2708.417	4173
2710.316	4090
2712.216	4126
2714.115	4108
2716.014	4163
2717.913	4151
2719.81	4135
2721.707	4097
2723.603	4213
2725.501	4181
2727.396	4126
2729.292	4038
2731.186	4206
2733.081	4182
2734.976	4228
2736.87	4175
2738.762	4066
2740.653	4168
2742.546	4218
2744.437	4136
2746.329	4119
2748.22	4128
2750.11	4085
2751.999	4165
2753.889	4143
2755.778	4205
2757.666	4143
2759.553	4109
2761.44	4134
2763.328	4112
2765.215	4153
2767.101	4139
2768.986	4055
2770.87	4258
2772.754	4104
2774.638	4147
2776.523	4125
2778.405	4156
2780.288	4135
2782.17	4207
2784.051	4129
2785.934	4168
2787.814	4111
2789.694	4144
2791.574	4124
2793.453	4107
2795.332	4257
2797.212	4110
2799.088	4051
2800.966	4125
2802.843	4049
2804.719	4177
2806.597	4159
2808.471	4144
2810.346	4073
2812.221	4083
2814.094	4162
2815.969	4114
2817.843	4128
2819.714	4171
2821.587	4160
2823.459	4145
2825.329	3984
2827.202	4090
2829.072	4093
2830.942	4137
2832.811	4067
2834.68	4125
2836.549	4040
2838.418	4112
2840.284	4158
2842.152	4170
2844.018	4109
2845.885	4049
2847.751	4183
2849.616	4135
2851.482	4114
2853.345	4175
2855.208	4220
2857.074	4202
2858.937	4235
2860.799	4263
2862.66	4211
2864.522	4142
2866.385	4238
2868.245	4180
2870.104	4140
2871.964	4369
2873.824	4353
2875.683	4383
2877.542	4424
2879.4	4416
2881.257	4458
2883.114	4377
2884.97	4479
2886.827	4383
2888.683	4496
2890.537	4497
2892.392	4458
2894.246	4420
2896.1	4387
2897.954	4427
2899.807	4457
2901.66	4416
2903.51	4449
2905.362	4444
2907.214	4458
2909.065	4365
2910.915	4457
2912.765	4482
2914.613	4435
2916.463	4448
2918.311	4640
2920.158	4528
2922.006	4655
2923.853	4685
2925.698	4664
2927.546	4642
2929.392	4730
2931.236	4673
2933.081	4744
2934.924	4789
2936.77	4764
2938.613	4851
2940.455	4842
2942.298	5035
2944.139	4905
2945.982	4934
2947.823	4896
2949.662	4853
2951.503	4878
2953.342	4676
2955.182	4768
2957.021	4770
2958.858	4859
2960.697	4724
2962.534	4721
2964.37	4691
2966.207	4647
2968.044	4580
2969.879	4633
2971.714	4571
2973.548	4467
2975.383	4621
2977.218	4435
2979.051	4482
2980.883	4435
2982.715	4435
2984.547	4466
2986.379	4434
2988.21	4462
2990.04	4388
2991.87	4335
2993.7	4307
2995.53	4312
2997.359	4289
2999.187	4295
3001.015	4205
3002.842	4242
3004.669	4216
3006.497	4201
3008.323	4221
3010.148	4104
3011.974	4134
3013.797	4106
3015.623	4206
3017.447	4109
3019.27	4049
3021.094	4044
3022.915	4003
3024.737	4024
3026.56	4107
3028.38	3938
3030.201	4031
3032.022	3966
3033.84	3980
3035.662	3868
3037.481	3993
3039.298	3937
3041.117	3942
3042.933	3920
3044.752	3940
3046.568	3967
3048.385	3987
3050.2	3998
3052.016	3889
3053.83	3913
3055.646	3963
3057.46	3898
3059.272	3933
3061.086	3981
3062.898	3957
3064.711	3975
3066.524	3924
3068.335	3944
3070.145	4044
3071.956	4004
3073.766	4011
3075.576	3878
3077.385	3902
3079.193	3882
3081.002	3967
3082.81	3923
3084.618	3868
3086.425	3967
3088.231	3997
3090.036	3888
3091.842	3848
3093.648	3897
3095.452	3813
3097.257	3894
3099.06	3809
3100.863	3870
3102.666	3920
3104.47	3854
3106.272	3842
3108.073	3799
3109.875	3788
3111.676	3790
3113.477	3917
3115.277	3878
3117.077	3788
3118.874	3865
3120.673	3821
3122.473	3784
3124.271	3872
3126.066	3831
3127.863	3802
3129.66	3747
3131.456	3837
3133.252	3808
3135.047	3866
3136.842	3861
3138.635	3764
3140.429	3775
3142.223	3861
3144.016	3788
3145.808	3813
3147.6	3732
3149.392	3810
3151.183	3835
3152.975	3781
3154.765	3807
3156.553	3770
3158.344	3843
3160.132	3792
3161.922	3814
3163.71	3721
3165.497	3755
3167.285	3841
3169.071	3776
3170.858	3757
3172.645	3775
3174.429	3691
3176.214	3852
3177.998	3687
3179.783	3786
3181.568	3741
3183.351	3726
3185.133	3753
3186.915	3778
3188.698	3786
3190.481	3841
3192.261	3795
3194.042	3804
3195.822	3756
3197.601	3813
3199.381	3661
3201.161	3741
3202.939	3818
3204.717	3740
3206.495	3720
3208.272	3777
3210.05	3784
3211.826	3776
3213.602	3677
3215.376	3776
3217.151	3762
3218.927	3788
3220.702	3789
3222.476	3814
3224.249	3880
3226.021	3699
3227.793	3764
3229.567	3747
3231.339	3777
3233.109	3717
3234.88	3763
3236.651	3701
3238.421	3718
3240.191	3746
3241.96	3760
3243.728	3745
3245.497	3635
3247.263	3767
3249.033	3670
3250.799	3723
3252.566	3692
3254.331	3784
3256.097	3661
3257.863	3794
3259.628	3711
3261.392	3737
3263.156	3757
3264.919	3744
3266.683	3715
3268.447	3731
3270.208	3734
3271.969	3724
3273.731	3790
3275.492	3790
3277.253	3760
3279.013	3733
3280.773	3756
3282.532	3798
3284.291	3707
3286.05	3714
3287.808	3666
3289.566	3736
3291.323	3758
3293.079	3783
3294.835	3719
3296.593	3601
3298.348	3820
3300.102	3762
3301.857	3713
3303.611	3690
3305.366	3755
3307.119	3825
3308.872	3779
3310.624	3748
3312.376	3798
3314.129	3631
3315.881	3744
3317.631	3724
3319.38	3732
3321.13	3686
3322.88	3749
3324.631	3704
3326.379	3657
3328.126	3657
3329.875	3683
3331.622	3759
3333.371	3761
3335.116	3749
3336.863	3763
3338.609	3732
3340.353	3682
3342.1	3721
3343.845	3821
3345.588	3709
3347.332	3695
3349.074	3715
3350.817	3673
3352.56	3662
3354.303	3704
3356.043	3647
3357.785	3728
3359.525	3682
3361.268	3728
3363.007	3713
3364.745	3619
3366.485	3643
3368.223	3700
3369.962	3581
3371.701	3705
3373.438	3587
3375.174	3658
3376.911	3708
3378.647	3669
3380.384	3646
3382.118	3649
3383.854	3666
3385.588	3651
3387.322	3683
3389.057	3721
3390.79	3632
3392.522	3649
3394.255	3611
3395.987	3633
3397.719	3662
3399.451	3623
3401.181	3673
3402.911	3642
3404.641	3673
3406.371	3617
3408.101	3634
3409.83	3563
3411.558	3551
3413.285	3590
3415.011	3618
3416.739	3618
3418.467	3714
3420.193	3621
3421.919	3623
3423.644	3551
3425.368	3551
3427.094	3546
3428.818	3587
3430.542	3615
3432.264	3651
3433.987	3597
3435.712	3559
3437.434	3592
3439.155	3571
3440.876	3601
3442.596	3497
3444.317	3591
3446.039	3546
3447.757	3634
3449.477	3566
3451.195	3537
3452.914	3493
3454.632	3582
3456.35	3536
3458.067	3554
3459.784	3593
3461.5	3501
3463.216	3527
3464.932	3454
3466.647	3562
3468.362	3508
3470.076	3583
3471.789	3568
3473.505	3468
3475.217	3523
3476.929	3513
3478.641	3520
3480.354	3524
3482.066	3458
3483.777	3449
3485.487	3478
3487.197	3401
3488.908	3338
3490.617	3456
3492.327	3434
3494.035	3452
3495.743	3496
3497.451	3441
3499.158	3489
3500.866	3425
3502.572	3362
3504.278	3408
3505.984	3442
3507.689	3359
3509.396	3486
3511.1	3449
3512.804	3341
3514.508	3385
3516.211	3441
3517.913	3454
3519.616	3381
3521.319	3418
3523.021	3407
3524.722	3417
3526.422	3366
3528.124	3383
3529.824	3437
3531.524	3325
3533.222	3365
3534.921	3432
3536.62	3380
3538.318	3407
3540.016	3319
3541.714	3442
3543.41	3385
3545.107	3376
3546.803	3349
3548.5	3394
3550.194	3351
3551.889	3403
3553.583	3345
3555.279	3354
3556.972	3414
3558.666	3294
3560.358	3306
3562.051	3385
3563.742	3353
3565.435	3327
3567.126	3321
3568.817	3375
3570.507	3399
3572.197	3346
3573.888	3341
3575.577	3354
3577.265	3309
3578.954	3333
3580.642	3455
3582.329	3286
3584.017	3342
3585.704	3367
3587.391	3272
3589.077	3310
3590.762	3320
3592.449	3338
3594.133	3332
3595.817	3324
3597.501	3251
3599.185	3370
3600.869	3230
3602.552	3214
3604.234	3266
3605.916	3214
3607.598	3306
3609.279	3236
3610.961	3215
3612.642	3184
3614.321	3302
3616	3275
3617.68	3277
3619.36	3234
3621.039	3167
3622.716	3208
3624.394	3285
3626.071	3204
3627.748	3215
3629.425	3240
3631.102	3199
3632.778	3184
3634.452	3191
3636.127	3136
3637.803	3208
3639.477	3160
3641.151	3194
3642.823	3145
3644.497	3174
3646.171	3194
3647.842	3179
3649.515	3162
3651.185	3146
3652.857	3216
3654.527	3227
3656.198	3132
3657.868	3161
3659.537	3137
3661.207	3186
3662.875	3187
3664.544	3143
3666.212	3104
3667.879	3114
3669.546	3163
3671.212	3202
3672.88	3124
3674.546	3079
3676.211	3065
3677.875	3158
3679.541	3110
3681.205	3123
3682.87	3143
3684.533	3138
3686.196	3084
3687.859	3065
3689.521	3111
3691.184	3116
3692.845	3152
3694.507	3087
3696.167	3174
3697.827	3117
3699.487	3098
3701.148	3135
3702.808	3170
3704.466	3147
3706.125	3106
3707.783	3087
3709.442	3064
3711.099	3087
3712.757	3081
3714.412	3125
3716.068	3199
3717.725	3053
3719.381	3061
3721.036	3156
3722.689	3061
3724.344	3107
3725.998	3059
3727.652	3080
3729.305	3032
3730.958	3071
3732.61	3163
3734.262	3048
3735.915	3053
3737.565	3070
3739.217	3041
3740.866	3039
3742.516	3016
3744.165	3032
3745.816	3118
3747.464	3073
3749.113	3022
3750.761	3048
3752.409	3105
3754.057	3019
3755.703	2994
3757.35	3113
3758.996	3023
3760.641	3057
3762.289	3009
3763.933	3062
3765.577	3050
3767.222	3013
3768.865	3055
3770.508	3018
3772.152	3019
3773.796	3000
3775.438	3055
3777.079	2946
3778.721	3020
3780.363	2996
3782.003	2963
3783.643	3008
3785.283	3003
3786.923	3004
3788.563	2960
3790.203	2976
3791.841	2941
3793.479	2940
3795.115	3015
3796.753	2904
3798.391	2921
3800.027	2932
3801.664	2929
3803.299	2950
3804.935	2964
3806.571	2998
3808.206	2959
3809.839	2922
3811.473	2944
3813.107	2921
3814.74	2976
3816.375	2976
3818.006	2987
3819.638	2932
3821.27	2976
3822.9	2969
3824.532	2932
3826.163	3063
3827.792	2906
3829.423	2911
3831.051	2895
3832.682	2956
3834.311	2890
3835.938	2929
3837.566	2925
3839.193	2897
3840.821	2890
3842.448	2918
3844.075	2927
3845.7	2920
3847.325	2849
3848.951	2854
3850.576	2909
3852.201	2866
3853.825	2858
3855.448	2917
3857.072	2908
3858.694	2925
3860.318	2886
3861.939	2848
3863.562	2888
3865.183	2857
3866.804	2957
3868.426	2821
3870.045	2917
3871.666	2881
3873.285	2831
3874.904	2895
3876.524	2802
3878.142	2837
3879.76	2846
3881.378	2835
3882.995	2871
3884.612	2879
3886.229	2881
3887.845	2810
3889.461	2824
3891.076	2833
3892.691	2844
3894.307	2910
3895.922	2852
3897.536	2780
3899.149	2868
3900.761	2785
3902.374	2873
3903.988	2860
3905.6	2766
3907.212	2802
3908.822	2763
3910.433	2860
3912.045	2856
3913.655	2718
3915.265	2819
3916.875	2832
3918.483	2832
3920.093	2847
3921.702	2859
3923.309	2834
3924.917	2820
3926.523	2781
3928.13	2872
3929.739	2760
3931.344	2762
3932.95	2817
3934.555	2774
3936.159	2861
3937.766	2840
3939.369	2806
3940.974	2749
3942.577	2812
3944.181	2820
3945.783	2848
3947.386	2780
3948.989	2754
3950.59	2849
3952.191	2783
3953.791	2807
3955.394	2752
3956.994	2750
3958.593	2788
3960.192	2803
3961.791	2826
3963.392	2792
3964.99	2800
3966.588	2788
3968.185	2770
3969.782	2734
3971.379	2791
3972.976	2764
3974.572	2735
3976.168	2732
3977.763	2720
3979.358	2740
3980.954	2758
3982.548	2724
3984.142	2741
3985.736	2723
3987.329	2748
3988.922	2778
3990.516	2716
3992.108	2760
3993.698	2760
3995.29	2690
3996.881	2728
3998.473	2745
4000.064	2742
4001.653	2679
4003.242	2757
4004.832	2643
4006.422	2728
4008.01	2753
4009.598	2723
4011.186	2707
4012.773	2692
4014.36	2740
4015.947	2671
4017.534	2708
4019.119	2659
4020.705	2661
4022.291	2706
4023.876	2599
4025.461	2704
4027.044	2668
4028.627	2704
4030.211	2587
4031.795	2674
4033.378	2697
4034.96	2698
4036.542	2710
4038.124	2698
4039.704	2662
4041.286	2654
4042.867	2600
4044.447	2605
4046.026	2741
4047.606	2599
4049.187	2566
4050.765	2640
4052.343	2608
4053.92	2605
4055.498	2641
4057.076	2666
4058.654	2697
4060.23	2583
4061.806	2612
4063.381	2679
4064.957	2626
4066.533	2575
4068.107	2544
4069.682	2654
4071.256	2649
4072.829	2625
4074.404	2643
4075.977	2611
4077.549	2640
4079.121	2610
4080.693	2581
4082.265	2665
4083.836	2627
4085.407	2625
4086.977	2492
4088.547	2614
4090.117	2604
4091.687	2555
4093.256	2589
4094.825	2628
4096.392	2557
4097.96	2672
4099.528	2644
4101.097	2478
4102.663	2613
4104.229	2602
4105.795	2554
4107.361	2498
4108.928	2555
4110.493	2534
4112.058	2511
4113.621	2588
4115.186	2587
4116.75	2536
4118.313	2552
4119.876	2521
4121.438	2558
4123	2506
4124.562	2533
4126.125	2547
4127.686	2544
4129.246	2525
4130.807	2508
4132.367	2509
4133.927	2534
4135.486	2453
4137.046	2517
4138.604	2505
4140.162	2570
4141.72	2482
4143.279	2456
4144.836	2502
4146.393	2554
4147.949	2442
4149.505	2513
4151.062	2503
4152.617	2516
4154.172	2544
4155.727	2495
4157.281	2513
4158.836	2426
4160.39	2409
4161.943	2510
4163.496	2530
4165.048	2452
4166.601	2482
4168.154	2400
4169.706	2439
4171.257	2491
4172.808	2474
4174.358	2522
4175.909	2475
4177.458	2372
4179.008	2453
4180.558	2411
4182.106	2381
4183.655	2379
4185.204	2505
4186.751	2444
4188.298	2426
4189.845	2422
4191.392	2455
4192.939	2436
4194.485	2431
4196.031	2445
4197.576	2425
4199.121	2416
4200.666	2448
4202.211	2393
4203.754	2403
4205.298	2445
4206.84	2374
4208.384	2395
4209.927	2415
4211.47	2428
4213.011	2384
4214.552	2426
4216.094	2362
4217.635	2369
4219.175	2417
4220.716	2454
4222.255	2383
4223.793	2462
4225.335	2359
4226.873	2439
4228.411	2423
4229.948	2394
4231.486	2328
4233.024	2349
4234.562	2337
4236.098	2454
4237.634	2403
4239.169	2349
4240.705	2375
4242.241	2358
4243.776	2354
4245.31	2377
4246.844	2335
4248.378	2361
4249.911	2370
4251.445	2335
4252.978	2377
4254.51	2365
4256.042	2347
4257.574	2344
4259.107	2406
4260.638	2317
4262.169	2431
4263.699	2342
4265.228	2357
4266.759	2291
4268.289	2361
4269.818	2345
4271.345	2369
4272.874	2407
4274.402	2379
4275.931	2325
4277.458	2392
4278.985	2296
4280.512	2311
4282.037	2399
4283.564	2310
4285.089	2291
4286.615	2294
4288.139	2433
4289.664	2340
4291.187	2329
4292.712	2320
4294.235	2253
4295.759	2355
4297.281	2243
4298.804	2329
4300.327	2292
4301.849	2273
4303.37	2354
4304.891	2276
4306.412	2339
4307.933	2251
4309.453	2288
4310.973	2297
4312.492	2269
