398.1873	4197
400.7097	4129
403.2336	4177
405.7547	4187
408.2751	4226
410.7948	4215
413.3138	4189
415.83	4336
418.3497	4301
420.8666	4259
423.3829	4278
425.8985	4397
428.4133	4433
430.9275	4413
433.441	4427
435.9538	4394
438.4639	4495
440.9753	4535
443.4881	4417
445.9982	4495
448.5055	4388
451.0142	4379
453.5201	4479
456.0274	4453
458.5361	4512
461.04	4501
463.5453	4464
466.0478	4536
468.5517	4415
471.0549	4574
473.5574	4390
476.0572	4493
478.5584	4555
481.0568	4573
483.5545	4592
486.0557	4546
488.5521	4563
491.0478	4562
493.5449	4555
496.0392	4637
498.5349	4577
501.0299	4560
503.5222	4626
506.0139	4613
508.5048	4707
510.9991	4474
513.4887	4716
515.9777	4668
518.4659	4597
520.9534	4720
523.4403	4637
525.9306	4519
528.4161	4647
530.9009	4712
533.3851	4718
535.8687	4586
538.3535	4691
540.8356	4653
543.3171	4666
545.7979	4685
548.278	4661
550.7595	4656
553.2383	4686
555.7144	4775
558.1918	4796
560.6685	4767
563.1446	4743
565.6221	4723
568.0968	4631
570.5688	4771
573.0422	4804
575.515	4788
577.989	4896
580.4584	4811
582.9291	4786
585.3991	4847
587.8685	4751
590.3352	4837
592.8052	4859
595.2706	4886
597.7372	4881
600.2033	4808
602.6666	4740
605.1334	4689
607.5953	4853
610.0587	4738
612.5193	4950
614.9814	4830
617.4427	4849
619.9034	4762
622.3615	4792
624.8208	4832
627.2775	4737
629.7335	4886
632.1929	4875
634.6476	4751
637.1016	4817
639.5569	4806
642.0096	4871
644.4637	4889
646.9151	4855
649.3678	4918
651.8179	4862
654.2672	4880
656.7159	4927
659.166	4884
661.6154	5042
664.0622	4953
666.5082	4919
668.9537	4928
671.4005	4949
673.8445	4897
676.288	5092
678.7308	4919
681.1729	4932
683.6163	4991
686.0572	4920
688.4973	5014
690.9368	5009
693.3757	4960
695.8138	4944
698.2534	5034
700.6902	4966
703.1245	4990
705.56	5023
707.9949	5119
710.4311	5012
712.8647	5015
715.2957	5002
717.7279	5067
720.1595	5072
722.5905	5058
725.0208	5153
727.4505	5056
729.8795	5065
732.3058	5138
734.7336	5214
737.1626	5230
739.587	5107
742.0128	5235
744.4359	5195
746.8604	5263
749.2841	5174
751.7073	5267
754.1278	5275
756.5496	5329
758.9688	5156
761.3893	5306
763.8093	5197
766.2285	5337
768.6451	5326
771.0611	5333
773.4784	5353
775.895	5355
778.3091	5323
780.7244	5401
783.1371	5241
785.5493	5332
787.9626	5281
790.3754	5304
792.7856	5440
795.1951	5280
797.6039	5361
800.0121	5416
802.4236	5298
804.8306	5427
807.2369	5326
809.6425	5399
812.0475	5338
814.4538	5278
816.8575	5481
819.2606	5499
821.663	5439
824.0648	5405
826.4659	5429
828.8683	5386
831.2682	5442
833.6674	5407
836.066	5419
838.4639	5397
840.8632	5460
843.2579	5513
845.6539	5491
848.0493	5430
850.444	5583
852.84	5493
855.2315	5543
857.6243	5611
860.0165	5530
862.4081	5526
864.797	5475
867.1892	5514
869.5789	5480
871.9659	5539
874.3542	5553
876.74	5443
879.129	5471
881.5155	5566
883.8994	5504
886.2845	5558
888.6671	5446
891.051	5528
893.4343	5462
895.8169	5451
898.197	5460
900.5783	5474
902.9571	5502
905.3372	5501
907.7167	5520
910.0936	5587
912.4698	5542
914.8474	5634
917.2244	5658
919.5987	5749
921.9744	5652
924.3475	5714
926.72	5766
929.0918	5802
931.4669	5735
933.8375	5809
936.2074	5800
938.5767	5920
940.9454	5859
943.3154	5888
945.6829	5960
948.0497	6054
950.4178	6202
952.7833	6282
955.1483	6408
957.5145	6645
959.8782	6551
962.2412	6737
964.6036	6513
966.9655	6444
969.3266	6295
971.6871	5965
974.0471	5990
976.4064	5850
978.765	5826
981.125	5703
983.4824	5673
985.8373	5703
988.1935	5672
990.549	5705
992.9039	5739
995.2602	5856
997.6119	5699
999.965	5736
1002.317	5751
1004.667	5813
1007.02	5827
1009.371	5678
1011.719	5710
1014.068	5664
1016.415	5682
1018.765	5731
1021.111	5754
1023.458	5842
1025.804	5738
1028.147	5769
1030.49	5794
1032.837	5789
1035.179	5846
1037.522	5732
1039.862	5726
1042.204	5795
1044.546	5838
1046.884	5829
1049.224	5924
1051.562	5848
1053.899	5796
1056.237	5832
1058.575	5820
1060.91	5880
1063.244	5825
1065.58	5920
1067.913	5971
1070.248	5873
1072.579	5959
1074.911	6026
1077.242	5858
1079.572	5817
1081.905	5903
1084.234	5971
1086.562	5859
1088.89	5904
1091.217	6003
1093.544	5903
1095.871	5828
1098.197	5906
1100.521	5992
1102.845	5856
1105.169	5948
1107.491	5865
1109.814	5841
1112.135	5931
1114.456	5886
1116.776	5758
1119.096	5873
1121.415	5920
1123.734	5889
1126.052	5950
1128.369	5880
1130.686	5950
1133.002	5876
1135.318	5927
1137.632	5873
1139.945	5858
1142.258	5932
1144.573	5846
1146.884	5833
1149.196	5972
1151.505	6009
1153.816	5882
1156.124	6009
1158.435	5953
1160.742	6042
1163.051	5887
1165.356	5900
1167.663	5851
1169.97	6065
1172.276	5962
1174.579	5909
1176.881	5896
1179.186	5891
1181.487	5962
1183.79	5927
1186.092	5892
1188.392	5929
1190.691	5926
1192.991	5985
1195.291	6006
1197.588	6028
1199.885	5996
1202.181	5935
1204.479	6052
1206.775	5951
1209.07	5998
1211.363	5933
1213.656	6025
1215.949	6117
1218.241	6119
1220.534	5944
1222.825	6000
1225.115	5966
1227.405	5948
1229.693	6067
1231.984	6054
1234.271	6153
1236.558	6143
1238.845	6201
1241.131	6157
1243.416	6180
1245.703	6079
1247.987	6263
1250.269	6143
1252.552	6221
1254.834	6193
1257.118	6204
1259.399	6116
1261.678	6181
1263.958	6204
1266.237	6201
1268.516	6299
1270.794	6157
1273.072	6295
1275.347	6123
1277.624	6168
1279.899	6182
1282.175	6147
1284.449	6183
1286.722	6204
1288.995	6130
1291.266	6166
1293.54	6210
1295.81	6179
1298.081	6052
1300.35	6174
1302.62	6098
1304.889	6192
1307.156	6197
1309.425	6037
1311.69	6091
1313.957	6067
1316.222	6043
1318.488	6122
1320.751	6187
1323.016	6222
1325.278	6138
1327.54	6078
1329.803	6223
1332.065	6197
1334.325	6284
1336.584	6168
1338.843	6102
1341.101	6192
1343.36	6112
1345.617	6146
1347.876	6097
1350.131	6134
1352.387	6237
1354.643	6197
1356.897	6146
1359.151	6318
1361.403	6128
1363.656	6191
1365.909	6257
1368.16	6234
1370.409	6089
1372.659	6279
1374.909	6195
1377.157	6353
1379.407	6177
1381.655	6235
1383.9	6302
1386.147	6298
1388.393	6255
1390.64	6320
1392.885	6298
1395.127	6409
1397.37	6367
1399.614	6415
1401.854	6310
1404.098	6324
1406.339	6374
1408.578	6204
1410.818	6333
1413.056	6344
1415.297	6249
1417.533	6386
1419.771	6391
1422.006	6437
1424.243	6344
1426.479	6482
1428.715	6267
1430.948	6445
1433.182	6436
1435.414	6353
1437.647	6459
1439.88	6512
1442.11	6510
1444.342	6511
1446.571	6535
1448.799	6497
1451.029	6535
1453.258	6456
1455.485	6579
1457.711	6547
1459.937	6569
1462.164	6457
1464.39	6373
1466.614	6409
1468.838	6450
1471.06	6382
1473.283	6403
1475.506	6453
1477.727	6378
1479.949	6339
1482.169	6420
1484.389	6333
1486.609	6235
1488.828	6351
1491.045	6235
1493.261	6338
1495.477	6344
1497.693	6269
1499.91	6403
1502.125	6313
1504.339	6279
1506.553	6302
1508.766	6233
1510.979	6252
1513.191	6219
1515.402	6323
1517.613	6348
1519.823	6232
1522.033	6279
1524.242	6294
1526.451	6230
1528.657	6142
1530.865	6374
1533.072	6254
1535.278	6325
1537.484	6250
1539.687	6273
1541.892	6299
1544.096	6259
1546.299	6285
1548.502	6430
1550.703	6443
1552.905	6361
1555.104	6430
1557.303	6383
1559.505	6420
1561.703	6278
1563.902	6505
1566.099	6412
1568.295	6490
1570.494	6397
1572.689	6442
1574.883	6355
1577.079	6434
1579.272	6309
1581.467	6449
1583.659	6405
1585.853	6479
1588.044	6515
1590.234	6491
1592.424	6494
1594.615	6571
1596.806	6340
1598.994	6583
1601.182	6560
1603.369	6571
1605.557	6512
1607.744	6531
1609.929	6468
1612.114	6581
1614.298	6548
1616.482	6587
1618.667	6653
1620.85	6605
1623.032	6645
1625.214	6550
1627.395	6611
1629.575	6546
1631.755	6569
1633.935	6577
1636.114	6584
1638.292	6578
1640.471	6616
1642.647	6567
1644.823	6621
1647	6573
1649.175	6704
1651.348	6580
1653.525	6644
1655.698	6635
1657.87	6618
1660.043	6702
1662.213	6703
1664.387	6599
1666.558	6654
1668.727	6614
1670.896	6624
1673.064	6663
1675.233	6687
1677.401	6631
1679.569	6675
1681.735	6696
1683.902	6675
1686.066	6441
1688.233	6591
1690.397	6645
1692.559	6500
1694.723	6543
1696.885	6691
1699.048	6519
1701.21	6538
1703.37	6535
1705.53	6518
1707.689	6589
1709.849	6537
1712.009	6485
1714.166	6585
1716.323	6641
1718.479	6562
1720.634	6501
1722.793	6460
1724.948	6638
1727.102	6606
1729.255	6507
1731.408	6526
1733.562	6608
1735.714	6390
1737.865	6560
1740.016	6413
1742.166	6507
1744.316	6612
1746.467	6623
1748.616	6502
1750.764	6491
1752.911	6584
1755.056	6584
1757.205	6480
1759.35	6461
1761.496	6471
1763.641	6579
1765.785	6489
1767.927	6743
1770.072	6599
1772.214	6595
1774.355	6584
1776.496	6563
1778.637	6594
1780.778	6599
1782.918	6455
1785.057	6596
1787.194	6667
1789.333	6642
1791.472	6675
1793.608	6651
1795.745	6648
1797.879	6638
1800.015	6633
1802.148	6547
1804.284	6615
1806.417	6651
1808.548	6632
1810.682	6474
1812.812	6691
1814.946	6536
1817.075	6625
1819.205	6643
1821.335	6575
1823.463	6666
1825.59	6623
1827.721	6547
1829.847	6506
1831.973	6578
1834.098	6662
1836.223	6536
1838.351	6610
1840.475	6550
1842.598	6526
1844.721	6601
1846.843	6554
1848.966	6610
1851.087	6600
1853.21	6516
1855.33	6565
1857.449	6518
1859.568	6528
1861.688	6534
1863.806	6437
1865.924	6624
1868.039	6573
1870.155	6513
1872.273	6566
1874.388	6601
1876.503	6591
1878.617	6580
1880.73	6566
1882.844	6569
1884.956	6647
1887.068	6559
1889.18	6640
1891.291	6596
1893.4	6536
1895.511	6648
1897.621	6603
1899.73	6527
1901.837	6648
1903.944	6721
1906.053	6643
1908.159	6600
1910.265	6696
1912.369	6594
1914.474	6754
1916.577	6630
1918.683	6622
1920.785	6625
1922.888	6655
1924.989	6731
1927.091	6619
1929.193	6697
1931.294	6694
1933.393	6617
1935.493	6704
1937.59	6681
1939.689	6752
1941.788	6602
1943.884	6720
1945.98	6772
1948.077	6708
1950.171	6677
1952.267	6654
1954.361	6675
1956.455	6672
1958.548	6813
1960.64	6734
1962.733	6602
1964.824	6757
1966.915	6744
1969.005	6612
1971.096	6662
1973.185	6558
1975.275	6672
1977.363	6682
1979.45	6530
1981.537	6760
1983.623	6684
1985.711	6633
1987.796	6650
1989.881	6562
1991.965	6653
1994.047	6625
1996.132	6674
1998.215	6581
2000.297	6669
2002.378	6636
2004.46	6611
2006.54	6536
2008.62	6588
2010.7	6614
2012.779	6650
2014.858	6689
2016.934	6689
2019.013	6583
2021.09	6641
2023.165	6572
2025.241	6676
2027.317	6545
2029.39	6555
2031.466	6606
2033.538	6669
2035.612	6669
2037.683	6548
2039.755	6675
2041.827	6647
2043.898	6576
2045.968	6629
2048.038	6677
2050.106	6558
2052.177	6712
2054.244	6695
2056.313	6631
2058.379	6612
2060.444	6649
2062.511	6674
2064.577	6608
2066.641	6674
2068.705	6680
2070.77	6627
2072.832	6663
2074.896	6573
2076.958	6680
2079.02	6640
2081.081	6698
2083.141	6675
2085.2	6660
2087.261	6596
2089.319	6703
2091.377	6564
2093.435	6615
2095.492	6633
2097.552	6629
2099.607	6680
2101.663	6677
2103.718	6656
2105.771	6653
2107.826	6581
2109.879	6657
2111.932	6658
2113.985	6784
2116.037	6695
2118.088	6729
2120.141	6613
2122.191	6753
2124.239	6658
2126.288	6736
2128.337	6755
2130.387	6556
2132.434	6723
2134.481	6604
2136.528	6602
2138.574	6598
2140.618	6665
2142.665	6660
2144.71	6565
2146.753	6704
2148.797	6623
2150.838	6572
2152.883	6649
2154.923	6681
2156.965	6577
2159.007	6668
2161.046	6630
2163.086	6697
2165.126	6564
2167.163	6679
2169.202	6584
2171.239	6565
2173.277	6710
2175.314	6680
2177.349	6531
2179.385	6705
2181.42	6713
2183.453	6672
2185.49	6526
2187.522	6601
2189.555	6618
2191.586	6599
2193.619	6585
2195.651	6588
2197.682	6598
2199.711	6574
2201.74	6539
2203.769	6576
2205.799	6454
2207.828	6501
2209.855	6525
2211.882	6540
2213.908	6365
2215.934	6538
2217.961	6520
2219.986	6564
2222.01	6480
2224.034	6585
2226.057	6482
2228.08	6465
2230.104	6523
2232.124	6604
2234.145	6659
2236.166	6560
2238.186	6409
2240.207	6593
2242.227	6481
2244.244	6514
2246.262	6473
2248.28	6463
2250.299	6387
2252.314	6552
2254.33	6542
2256.346	6537
2258.36	6571
2260.375	6533
2262.391	6518
2264.403	6425
2266.416	6523
2268.427	6433
2270.44	6613
2272.453	6463
2274.463	6520
2276.474	6429
2278.483	6597
2280.493	6614
2282.501	6410
2284.51	6616
2286.518	6609
2288.524	6558
2290.532	6559
2292.537	6688
2294.544	6396
2296.55	6571
2298.554	6430
2300.557	6445
2302.562	6537
2304.566	6583
2306.568	6621
2308.569	6379
2310.572	6471
2312.573	6459
2314.573	6499
2316.574	6499
2318.573	6423
2320.571	6541
2322.571	6532
2324.569	6552
2326.567	6417
2328.564	6537
2330.56	6466
2332.556	6551
2334.551	6554
2336.546	6441
2338.542	6376
2340.535	6494
2342.529	6396
2344.521	6447
2346.512	6513
2348.505	6466
2350.497	6427
2352.487	6521
2354.478	6400
2356.468	6498
2358.457	6447
2360.446	6448
2362.434	6451
2364.422	6339
2366.408	6450
2368.395	6357
2370.383	6427
2372.369	6274
2374.353	6505
2376.338	6361
2378.321	6326
2380.307	6419
2382.29	6324
2384.272	6369
2386.254	6371
2388.235	6356
2390.218	6489
2392.198	6368
2394.179	6290
2396.157	6374
2398.137	6432
2400.115	6302
2402.095	6389
2404.072	6366
2406.048	6389
2408.026	6312
2410.001	6329
2411.977	6248
2413.953	6341
2415.927	6404
2417.9	6353
2419.875	6312
2421.847	6307
2423.821	6379
2425.792	6470
2427.763	6451
2429.736	6381
2431.706	6334
2433.677	6430
2435.646	6433
2437.615	6310
2439.583	6270
2441.551	6325
2443.519	6356
2445.486	6321
2447.452	6326
2449.418	6278
2451.383	6190
2453.348	6375
2455.314	6389
2457.278	6323
2459.241	6403
2461.205	6280
2463.167	6276
2465.131	6368
2467.091	6302
2469.052	6299
2471.012	6296
2472.972	6309
2474.932	6272
2476.891	6215
2478.85	6458
2480.808	6274
2482.766	6224
2484.722	6259
2486.68	6172
2488.636	6345
2490.591	6227
2492.546	6253
2494.5	6333
2496.456	6232
2498.41	6235
2500.362	6327
2502.315	6243
2504.266	6374
2506.218	6266
2508.169	6288
2510.121	6198
2512.07	6244
2514.019	6261
2515.968	6260
2517.918	6163
2519.866	6314
2521.813	6293
2523.76	6252
2525.707	6159
2527.653	6329
2529.599	6166
2531.543	6301
2533.489	6259
2535.433	6318
2537.376	6318
2539.32	6209
2541.264	6227
2543.205	6070
2545.147	6324
2547.087	6248
2549.029	6318
2550.969	6309
2552.908	6284
2554.847	6235
2556.786	6236
2558.724	6293
2560.663	6208
2562.6	6175
2564.537	6277
2566.473	6200
2568.408	6256
2570.345	6251
2572.28	6192
2574.214	6143
2576.148	6358
2578.081	6279
2580.014	6296
2581.947	6249
2583.879	6432
2585.81	6314
2587.741	6343
2589.67	6166
2591.602	6242
2593.532	6243
2595.461	6247
2597.388	6298
2599.316	6272
2601.244	6136
2603.172	6333
2605.098	6372
2607.023	6247
2608.949	6292
2610.873	6232
2612.8	6410
2614.723	6256
2616.647	6270
2618.569	6353
2620.493	6353
2622.416	6265
2624.338	6187
2626.258	6279
2628.179	6305
2630.099	6294
2632.019	6258
2633.939	6314
2635.857	6296
2637.775	6316
2639.694	6402
2641.61	6333
2643.528	6319
2645.444	6283
2647.361	6320
2649.276	6304
2651.19	6254
2653.105	6285
2655.019	6312
2656.934	6288
2658.846	6289
2660.758	6284
2662.67	6362
2664.583	6346
2666.493	6278
2668.404	6216
2670.313	6189
2672.223	6320
2674.134	6156
2676.042	6314
2677.95	6269
2679.858	6251
2681.765	6299
2683.673	6215
2685.579	6327
2687.483	6165
2689.389	6252
2691.294	6192
2693.198	6291
2695.104	6301
2697.006	6353
2698.909	6301
2700.811	6382
2702.713	6246
2704.615	6299
2706.516	6222
2708.417	6252
2710.316	6236
2712.216	6259
2714.115	6360
2716.014	6215
2717.913	6229
2719.81	6235
2721.707	6153
2723.603	6390
2725.501	6170
2727.396	6243
2729.292	6171
2731.186	6251
2733.081	6309
2734.976	6355
2736.87	6218
2738.762	6167
2740.653	6126
2742.546	6147
2744.437	6246
2746.329	6231
2748.22	6219
2750.11	6151
2751.999	6124
2753.889	6215
2755.778	6287
2757.666	6180
2759.553	6199
2761.44	6221
2763.328	6259
2765.215	6214
2767.101	6109
2768.986	6203
2770.87	6155
2772.754	6178
2774.638	6127
2776.523	6203
2778.405	6143
2780.288	6213
2782.17	6174
2784.051	6116
2785.934	6116
2787.814	6283
2789.694	6143
2791.574	6234
2793.453	6118
2795.332	6211
2797.212	6201
2799.088	6148
2800.966	6145
2802.843	6056
2804.719	6307
2806.597	6151
2808.471	6171
2810.346	6140
2812.221	6169
2814.094	6118
2815.969	6168
2817.843	6152
2819.714	6345
2821.587	6142
2823.459	6133
2825.329	6099
2827.202	6149
2829.072	6161
2830.942	6180
2832.811	6103
2834.68	6193
2836.549	6225
2838.418	6184
2840.284	6214
2842.152	6055
2844.018	6212
2845.885	6141
2847.751	6182
2849.616	6191
2851.482	6164
2853.345	6342
2855.208	6194
2857.074	6083
2858.937	6208
2860.799	6329
2862.66	6375
2864.522	6185
2866.385	6291
2868.245	6342
2870.104	6367
2871.964	6306
2873.824	6393
2875.683	6450
2877.542	6451
2879.4	6466
2881.257	6527
2883.114	6647
2884.97	6639
2886.827	6493
2888.683	6591
2890.537	6633
2892.392	6572
2894.246	6506
2896.1	6553
2897.954	6456
2899.807	6383
2901.66	6536
2903.51	6523
2905.362	6490
2907.214	6590
2909.065	6540
2910.915	6537
2912.765	6621
2914.613	6595
2916.463	6718
2918.311	6659
2920.158	6723
2922.006	6820
2923.853	6685
2925.698	6787
2927.546	6916
2929.392	6824
2931.236	6845
2933.081	6989
2934.924	6844
2936.77	6794
2938.613	7012
2940.455	7141
2942.298	7006
2944.139	7055
2945.982	7133
2947.823	6985
2949.662	7075
2951.503	7082
2953.342	6813
2955.182	6945
2957.021	7009
2958.858	7056
2960.697	6764
2962.534	6760
2964.37	6797
2966.207	6722
2968.044	6694
2969.879	6682
2971.714	6548
2973.548	6709
2975.383	6574
2977.218	6581
2979.051	6570
2980.883	6600
2982.715	6549
2984.547	6423
2986.379	6416
2988.21	6493
2990.04	6390
2991.87	6429
2993.7	6332
2995.53	6436
2997.359	6363
2999.187	6262
3001.015	6340
3002.842	6167
3004.669	6232
3006.497	6205
3008.323	6150
3010.148	6119
3011.974	6084
3013.797	6052
3015.623	6080
3017.447	6081
3019.27	6018
3021.094	6074
3022.915	5901
3024.737	5970
3026.56	5954
3028.38	5996
3030.201	6013
3032.022	5890
3033.84	5864
3035.662	5994
3037.481	5950
3039.298	5881
3041.117	5817
3042.933	5829
3044.752	5764
3046.568	5918
3048.385	5830
3050.2	5964
3052.016	5825
3053.83	5908
3055.646	5927
3057.46	5869
3059.272	5764
3061.086	5901
3062.898	5857
3064.711	5790
3066.524	5953
3068.335	5907
3070.145	5773
3071.956	5936
3073.766	5881
3075.576	5791
3077.385	5793
3079.193	5815
3081.002	5829
3082.81	5807
3084.618	5830
3086.425	5793
3088.231	5902
3090.036	5752
3091.842	5748
3093.648	5805
3095.452	5803
3097.257	5649
3099.06	5752
3100.863	5711
3102.666	5751
3104.47	5692
3106.272	5742
3108.073	5610
3109.875	5782
3111.676	5707
3113.477	5734
3115.277	5614
3117.077	5695
3118.874	5694
3120.673	5727
3122.473	5637
3124.271	5589
3126.066	5540
3127.863	5658
3129.66	5762
3131.456	5666
3133.252	5781
3135.047	5726
3136.842	5604
3138.635	5617
3140.429	5685
3142.223	5632
3144.016	5551
3145.808	5525
3147.6	5637
3149.392	5689
3151.183	5600
3152.975	5520
3154.765	5566
3156.553	5543
3158.344	5535
3160.132	5543
3161.922	5599
3163.71	5526
3165.497	5550
3167.285	5531
3169.071	5544
3170.858	5641
3172.645	5547
3174.429	5613
3176.214	5670
3177.998	5488
3179.783	5673
3181.568	5584
3183.351	5647
3185.133	5590
3186.915	5541
3188.698	5545
3190.481	5489
3192.261	5546
3194.042	5582
3195.822	5449
3197.601	5580
3199.381	5553
3201.161	5413
3202.939	5514
3204.717	5423
3206.495	5543
3208.272	5534
3210.05	5452
3211.826	5563
3213.602	5507
3215.376	5493
3217.151	5537
3218.927	5531
3220.702	5492
3222.476	5501
3224.249	5512
3226.021	5492
3227.793	5526
3229.567	5509
3231.339	5466
3233.109	5423
3234.88	5511
3236.651	5498
3238.421	5417
3240.191	5544
3241.96	5516
3243.728	5495
3245.497	5433
3247.263	5500
3249.033	5429
3250.799	5345
3252.566	5515
3254.331	5572
3256.097	5372
3257.863	5389
3259.628	5473
3261.392	5454
3263.156	5348
3264.919	5432
3266.683	5455
3268.447	5526
3270.208	5388
3271.969	5405
3273.731	5437
3275.492	5517
3277.253	5400
3279.013	5504
3280.773	5499
3282.532	5534
3284.291	5450
3286.05	5502
3287.808	5417
3289.566	5379
3291.323	5441
3293.079	5521
3294.835	5419
3296.593	5529
3298.348	5376
3300.102	5561
3301.857	5420
3303.611	5516
3305.366	5304
3307.119	5414
3308.872	5463
3310.624	5474
3312.376	5538
3314.129	5434
3315.881	5513
3317.631	5415
3319.38	5439
3321.13	5392
3322.88	5429
3324.631	5339
3326.379	5484
3328.126	5363
3329.875	5395
3331.622	5418
3333.371	5399
3335.116	5484
3336.863	5435
3338.609	5447
3340.353	5456
3342.1	5430
3343.845	5505
3345.588	5334
3347.332	5388
3349.074	5339
3350.817	5425
3352.56	5412
3354.303	5439
3356.043	5312
3357.785	5359
3359.525	5351
3361.268	5365
3363.007	5321
3364.745	5231
3366.485	5340
3368.223	5386
3369.962	5370
3371.701	5359
3373.438	5372
3375.174	5313
3376.911	5270
3378.647	5264
3380.384	5270
3382.118	5315
3383.854	5360
3385.588	5271
3387.322	5237
3389.057	5269
3390.79	5269
3392.522	5239
3394.255	5322
3395.987	5383
3397.719	5277
3399.451	5288
3401.181	5206
3402.911	5289
3404.641	5331
3406.371	5273
3408.101	5335
3409.83	5239
3411.558	5152
3413.285	5295
3415.011	5268
3416.739	5286
3418.467	5314
3420.193	5234
3421.919	5205
3423.644	5176
3425.368	5222
3427.094	5244
3428.818	5212
3430.542	5194
3432.264	5154
3433.987	5228
3435.712	5173
3437.434	5226
3439.155	5134
3440.876	5256
3442.596	5124
3444.317	5245
3446.039	5122
3447.757	5182
3449.477	5128
3451.195	5218
3452.914	5079
3454.632	5167
3456.35	5078
3458.067	5099
3459.784	5149
3461.5	5185
3463.216	5113
3464.932	5103
3466.647	5069
3468.362	5060
3470.076	5064
3471.789	5096
3473.505	5058
3475.217	5072
3476.929	5056
3478.641	5049
3480.354	5047
3482.066	5033
3483.777	5171
3485.487	5002
3487.197	5092
3488.908	4969
3490.617	5008
3492.327	4897
3494.035	4964
3495.743	5015
3497.451	4959
3499.158	4998
3500.866	4869
3502.572	4961
3504.278	4912
3505.984	4974
3507.689	5077
3509.396	5042
3511.1	4978
3512.804	4901
3514.508	4906
3516.211	4984
3517.913	4878
3519.616	4963
3521.319	4957
3523.021	4954
3524.722	4926
3526.422	4910
3528.124	4925
3529.824	4908
3531.524	4914
3533.222	4876
3534.921	4895
3536.62	4905
3538.318	4915
3540.016	4917
3541.714	4883
3543.41	4978
3545.107	4814
3546.803	4943
3548.5	4865
3550.194	4814
3551.889	4910
3553.583	4790
3555.279	4903
3556.972	4951
3558.666	4952
3560.358	4827
3562.051	4776
3563.742	4846
3565.435	4913
3567.126	4745
3568.817	4878
3570.507	4802
3572.197	4753
3573.888	4781
3575.577	4839
3577.265	4828
3578.954	4796
3580.642	4839
3582.329	4771
3584.017	4854
3585.704	4882
3587.391	4745
3589.077	4875
3590.762	4758
3592.449	4701
3594.133	4739
3595.817	4868
3597.501	4773
3599.185	4713
3600.869	4698
3602.552	4736
3604.234	4749
3605.916	4788
3607.598	4684
3609.279	4705
3610.961	4646
3612.642	4773
3614.321	4785
3616	4608
3617.68	4701
3619.36	4723
3621.039	4661
3622.716	4606
3624.394	4681
3626.071	4648
3627.748	4643
3629.425	4621
3631.102	4587
3632.778	4680
3634.452	4613
3636.127	4607
3637.803	4683
3639.477	4572
3641.151	4514
3642.823	4616
3644.497	4564
3646.171	4549
3647.842	4534
3649.515	4651
3651.185	4592
3652.857	4532
3654.527	4546
3656.198	4584
3657.868	4501
3659.537	4564
3661.207	4498
3662.875	4556
3664.544	4598
3666.212	4504
3667.879	4544
3669.546	4478
3671.212	4655
3672.88	4491
3674.546	4558
3676.211	4648
3677.875	4554
3679.541	4426
3681.205	4485
3682.87	4534
3684.533	4495
3686.196	4466
3687.859	4481
3689.521	4471
3691.184	4465
3692.845	4542
3694.507	4476
3696.167	4457
3697.827	4597
3699.487	4473
3701.148	4533
3702.808	4567
3704.466	4415
3706.125	4537
3707.783	4470
3709.442	4493
3711.099	4498
3712.757	4444
3714.412	4388
3716.068	4499
3717.725	4492
3719.381	4398
3721.036	4452
3722.689	4449
3724.344	4405
3725.998	4403
3727.652	4468
3729.305	4415
3730.958	4383
3732.61	4364
3734.262	4433
3735.915	4506
3737.565	4358
3739.217	4482
3740.866	4388
3742.516	4445
3744.165	4418
3745.816	4388
3747.464	4411
3749.113	4344
3750.761	4410
3752.409	4319
3754.057	4506
3755.703	4338
3757.35	4319
3758.996	4317
3760.641	4454
3762.289	4423
3763.933	4303
3765.577	4302
3767.222	4358
3768.865	4359
3770.508	4260
3772.152	4365
3773.796	4364
3775.438	4512
3777.079	4284
3778.721	4346
3780.363	4317
3782.003	4390
3783.643	4256
3785.283	4410
3786.923	4239
3788.563	4324
3790.203	4279
3791.841	4368
3793.479	4360
3795.115	4349
3796.753	4210
3798.391	4340
3800.027	4249
3801.664	4341
3803.299	4224
3804.935	4270
3806.571	4247
3808.206	4291
3809.839	4326
3811.473	4297
3813.107	4234
3814.74	4380
3816.375	4294
3818.006	4233
3819.638	4218
3821.27	4260
3822.9	4221
3824.532	4324
3826.163	4263
3827.792	4277
3829.423	4263
3831.051	4238
3832.682	4235
3834.311	4185
3835.938	4210
3837.566	4257
3839.193	4285
3840.821	4128
3842.448	4264
3844.075	4288
3845.7	4165
3847.325	4113
3848.951	4264
3850.576	4077
3852.201	4137
3853.825	4081
3855.448	4209
3857.072	4173
3858.694	4171
3860.318	4110
3861.939	4180
3863.562	4178
3865.183	4170
3866.804	4091
3868.426	4127
3870.045	4057
3871.666	4183
3873.285	4250
3874.904	4013
3876.524	4127
3878.142	4131
3879.76	4040
3881.378	4053
3882.995	4100
3884.612	4054
3886.229	4166
3887.845	4150
3889.461	4076
3891.076	4135
3892.691	4088
3894.307	4123
3895.922	4048
3897.536	4177
3899.149	4075
3900.761	4064
3902.374	4045
3903.988	4162
3905.6	4043
3907.212	4087
3908.822	4059
3910.433	4088
3912.045	4015
3913.655	4092
3915.265	4060
3916.875	4081
3918.483	4068
3920.093	4078
3921.702	4046
3923.309	4113
3924.917	4080
3926.523	4016
3928.13	4180
3929.739	4067
3931.344	4003
3932.95	4052
3934.555	3995
3936.159	3990
3937.766	4056
3939.369	4000
3940.974	3983
3942.577	4044
3944.181	4096
3945.783	4067
3947.386	4013
3948.989	4076
3950.59	4039
3952.191	4044
3953.791	4024
3955.394	3956
3956.994	4006
3958.593	3948
3960.192	4044
3961.791	4031
3963.392	4058
3964.99	4014
3966.588	3960
3968.185	4009
3969.782	3986
3971.379	3889
3972.976	3905
3974.572	3970
3976.168	4005
3977.763	4021
3979.358	3955
3980.954	3885
3982.548	3989
3984.142	3998
3985.736	3921
3987.329	3844
3988.922	3975
3990.516	3857
3992.108	3953
3993.698	3989
3995.29	3908
3996.881	3894
3998.473	3863
4000.064	3907
4001.653	3925
4003.242	3878
4004.832	3898
4006.422	3999
4008.01	3845
4009.598	3902
4011.186	3838
4012.773	3723
4014.36	3850
4015.947	3846
4017.534	3862
4019.119	3863
4020.705	3865
4022.291	3753
4023.876	3928
4025.461	3830
4027.044	3788
4028.627	3850
4030.211	3819
4031.795	3817
4033.378	3722
4034.96	3799
4036.542	3841
4038.124	3740
4039.704	3758
4041.286	3751
4042.867	3739
4044.447	3737
4046.026	3786
4047.606	3794
4049.187	3746
4050.765	3761
4052.343	3831
4053.92	3772
4055.498	3657
4057.076	3775
4058.654	3764
4060.23	3801
4061.806	3802
4063.381	3625
4064.957	3755
4066.533	3757
4068.107	3754
4069.682	3668
4071.256	3737
4072.829	3717
4074.404	3628
4075.977	3676
4077.549	3738
4079.121	3731
4080.693	3735
4082.265	3778
4083.836	3724
4085.407	3725
4086.977	3761
4088.547	3736
4090.117	3619
4091.687	3627
4093.256	3640
4094.825	3631
4096.392	3687
4097.96	3613
4099.528	3636
4101.097	3683
4102.663	3660
4104.229	3730
4105.795	3619
4107.361	3647
4108.928	3610
4110.493	3723
4112.058	3572
4113.621	3630
4115.186	3627
4116.75	3766
4118.313	3579
4119.876	3675
4121.438	3559
4123	3622
4124.562	3601
4126.125	3618
4127.686	3576
4129.246	3560
4130.807	3677
4132.367	3563
4133.927	3641
4135.486	3607
4137.046	3591
4138.604	3615
4140.162	3616
4141.72	3529
4143.279	3495
4144.836	3530
4146.393	3566
4147.949	3542
4149.505	3560
4151.062	3583
4152.617	3603
4154.172	3568
4155.727	3545
4157.281	3575
4158.836	3545
4160.39	3462
4161.943	3624
4163.496	3483
4165.048	3586
4166.601	3481
4168.154	3473
4169.706	3513
4171.257	3555
4172.808	3514
4174.358	3512
4175.909	3501
4177.458	3509
4179.008	3472
4180.558	3569
4182.106	3440
4183.655	3499
4185.204	3457
4186.751	3450
4188.298	3515
4189.845	3474
4191.392	3421
4192.939	3464
4194.485	3416
4196.031	3388
4197.576	3444
4199.121	3416
4200.666	3437
4202.211	3443
4203.754	3410
4205.298	3393
4206.84	3430
4208.384	3401
4209.927	3420
4211.47	3401
4213.011	3407
4214.552	3412
4216.094	3431
4217.635	3391
4219.175	3416
4220.716	3374
4222.255	3454
4223.793	3442
4225.335	3348
4226.873	3355
4228.411	3502
4229.948	3377
4231.486	3378
4233.024	3440
4234.562	3397
4236.098	3338
4237.634	3396
4239.169	3420
4240.705	3337
4242.241	3354
4243.776	3312
4245.31	3420
4246.844	3380
4248.378	3360
4249.911	3375
4251.445	3364
4252.978	3340
4254.51	3310
4256.042	3378
4257.574	3341
4259.107	3365
4260.638	3310
4262.169	3287
4263.699	3274
4265.228	3352
4266.759	3355
4268.289	3354
4269.818	3283
4271.345	3353
4272.874	3382
4274.402	3361
4275.931	3291
4277.458	3376
4278.985	3299
4280.512	3383
4282.037	3288
4283.564	3356
4285.089	3269
4286.615	3295
4288.139	3308
4289.664	3216
4291.187	3318
4292.712	3317
4294.235	3280
4295.759	3254
4297.281	3188
4298.804	3266
4300.327	3332
4301.849	3219
4303.37	3287
4304.891	3226
4306.412	3257
4307.933	3332
4309.453	3269
4310.973	3189
4312.492	3226
