398.1873	4780
400.7097	4662
403.2336	4703
405.7547	4812
408.2751	4716
410.7948	4827
413.3138	4844
415.83	4856
418.3497	4919
420.8666	4914
423.3829	4971
425.8985	5059
428.4133	5089
430.9275	5121
433.441	5135
435.9538	5085
438.4639	5123
440.9753	5091
443.4881	5105
445.9982	5055
448.5055	5175
451.0142	5097
453.5201	5048
456.0274	5176
458.5361	5132
461.04	4999
463.5453	5045
466.0478	5033
468.5517	5011
471.0549	5083
473.5574	5076
476.0572	5141
478.5584	5039
481.0568	5142
483.5545	5087
486.0557	5029
488.5521	5091
491.0478	5056
493.5449	5168
496.0392	5245
498.5349	5054
501.0299	5184
503.5222	5176
506.0139	5193
508.5048	5099
510.9991	5218
513.4887	5231
515.9777	5180
518.4659	5176
520.9534	5233
523.4403	5304
525.9306	5317
528.4161	5248
530.9009	5338
533.3851	5172
535.8687	5276
538.3535	5221
540.8356	5245
543.3171	5323
545.7979	5362
548.278	5283
550.7595	5239
553.2383	5249
555.7144	5299
558.1918	5239
560.6685	5416
563.1446	5472
565.6221	5368
568.0968	5485
570.5688	5504
573.0422	5408
575.515	5442
577.989	5432
580.4584	5564
582.9291	5515
585.3991	5586
587.8685	5462
590.3352	5627
592.8052	5514
595.2706	5496
597.7372	5385
600.2033	5434
602.6666	5560
605.1334	5432
607.5953	5434
610.0587	5541
612.5193	5336
614.9814	5480
617.4427	5441
619.9034	5430
622.3615	5438
624.8208	5328
627.2775	5298
629.7335	5372
632.1929	5400
634.6476	5446
637.1016	5472
639.5569	5477
642.0096	5493
644.4637	5288
646.9151	5434
649.3678	5444
651.8179	5554
654.2672	5497
656.7159	5560
659.166	5551
661.6154	5541
664.0622	5454
666.5082	5599
668.9537	5524
671.4005	5459
673.8445	5559
676.288	5572
678.7308	5564
681.1729	5484
683.6163	5689
686.0572	5533
688.4973	5605
690.9368	5615
693.3757	5585
695.8138	5643
698.2534	5614
700.6902	5646
703.1245	5627
705.56	5609
707.9949	5731
710.4311	5729
712.8647	5649
715.2957	5661
717.7279	5616
720.1595	5608
722.5905	5850
725.0208	5729
727.4505	5806
729.8795	5756
732.3058	5864
734.7336	5763
737.1626	5798
739.587	5809
742.0128	5861
744.4359	5955
746.8604	5998
749.2841	5972
751.7073	5966
754.1278	5950
756.5496	5966
758.9688	5866
761.3893	5973
763.8093	6058
766.2285	6001
768.6451	6017
771.0611	5962
773.4784	5977
775.895	6006
778.3091	6057
780.7244	6018
783.1371	6002
785.5493	5976
787.9626	6092
790.3754	6010
792.7856	6082
795.1951	6057
797.6039	5941
800.0121	5886
802.4236	6008
804.8306	5955
807.2369	6043
809.6425	6077
812.0475	5946
814.4538	5970
816.8575	6109
819.2606	6126
821.663	6039
824.0648	6163
826.4659	6112
828.8683	6128
831.2682	6204
833.6674	6087
836.066	6159
838.4639	6097
840.8632	6210
843.2579	6253
845.6539	6175
848.0493	6145
850.444	6098
852.84	6264
855.2315	6286
857.6243	6270
860.0165	6224
862.4081	6102
864.797	6181
867.1892	6119
869.5789	6299
871.9659	6181
874.3542	6215
876.74	6187
879.129	6170
881.5155	6304
883.8994	6214
886.2845	6080
888.6671	6328
891.051	6151
893.4343	6203
895.8169	6110
898.197	6119
900.5783	6214
902.9571	6219
905.3372	6215
907.7167	6277
910.0936	6313
912.4698	6251
914.8474	6366
917.2244	6306
919.5987	6397
921.9744	6325
924.3475	6484
926.72	6477
929.0918	6434
931.4669	6542
933.8375	6604
936.2074	6556
938.5767	6650
940.9454	6660
943.3154	6841
945.6829	6903
948.0497	7036
950.4178	7393
952.7833	7667
955.1483	7975
957.5145	8191
959.8782	8303
962.2412	8214
964.6036	8164
966.9655	7781
969.3266	7501
971.6871	6962
974.0471	6966
976.4064	6596
978.765	6598
981.125	6561
983.4824	6425
985.8373	6455
988.1935	6372
990.549	6447
992.9039	6595
995.2602	6454
997.6119	6334
999.965	6422
1002.317	6457
1004.667	6540
1007.02	6586
1009.371	6415
1011.719	6512
1014.068	6586
1016.415	6488
1018.765	6469
1021.111	6423
1023.458	6378
1025.804	6539
1028.147	6544
1030.49	6644
1032.837	6551
1035.179	6540
1037.522	6580
1039.862	6549
1042.204	6718
1044.546	6784
1046.884	6669
1049.224	6656
1051.562	6601
1053.899	6582
1056.237	6541
1058.575	6589
1060.91	6560
1063.244	6812
1065.58	6706
1067.913	6630
1070.248	6837
1072.579	6892
1074.911	6854
1077.242	6782
1079.572	6656
1081.905	6625
1084.234	6634
1086.562	6576
1088.89	6715
1091.217	6622
1093.544	6629
1095.871	6569
1098.197	6672
1100.521	6635
1102.845	6632
1105.169	6598
1107.491	6569
1109.814	6608
1112.135	6523
1114.456	6583
1116.776	6568
1119.096	6539
1121.415	6583
1123.734	6611
1126.052	6565
1128.369	6485
1130.686	6589
1133.002	6569
1135.318	6550
1137.632	6511
1139.945	6653
1142.258	6580
1144.573	6665
1146.884	6665
1149.196	6569
1151.505	6549
1153.816	6562
1156.124	6548
1158.435	6591
1160.742	6681
1163.051	6642
1165.356	6658
1167.663	6614
1169.97	6591
1172.276	6542
1174.579	6483
1176.881	6617
1179.186	6748
1181.487	6518
1183.79	6728
1186.092	6636
1188.392	6578
1190.691	6615
1192.991	6681
1195.291	6575
1197.588	6707
1199.885	6610
1202.181	6584
1204.479	6667
1206.775	6689
1209.07	6547
1211.363	6621
1213.656	6695
1215.949	6653
1218.241	6584
1220.534	6659
1222.825	6650
1225.115	6769
1227.405	6718
1229.693	6798
1231.984	6737
1234.271	6873
1236.558	6816
1238.845	6825
1241.131	6874
1243.416	6983
1245.703	6910
1247.987	6883
1250.269	7014
1252.552	6971
1254.834	6792
1257.118	6953
1259.399	6795
1261.678	6899
1263.958	6858
1266.237	6903
1268.516	7006
1270.794	6777
1273.072	6873
1275.347	6878
1277.624	6877
1279.899	6980
1282.175	6845
1284.449	6877
1286.722	6884
1288.995	6752
1291.266	6914
1293.54	6849
1295.81	6867
1298.081	6726
1300.35	6824
1302.62	6742
1304.889	6787
1307.156	6809
1309.425	6769
1311.69	6758
1313.957	6742
1316.222	6709
1318.488	6844
1320.751	6747
1323.016	6733
1325.278	6809
1327.54	6793
1329.803	6805
1332.065	6881
1334.325	6755
1336.584	6776
1338.843	6803
1341.101	6775
1343.36	6790
1345.617	6776
1347.876	6772
1350.131	6851
1352.387	6807
1354.643	6793
1356.897	6894
1359.151	6813
1361.403	6714
1363.656	6878
1365.909	6873
1368.16	6940
1370.409	6819
1372.659	6756
1374.909	6849
1377.157	6750
1379.407	6822
1381.655	6880
1383.9	6680
1386.147	6794
1388.393	6890
1390.64	6889
1392.885	6935
1395.127	6799
1397.37	6840
1399.614	6890
1401.854	6805
1404.098	6885
1406.339	6958
1408.578	6923
1410.818	6863
1413.056	7001
1415.297	6936
1417.533	7031
1419.771	6852
1422.006	6967
1424.243	6974
1426.479	7124
1428.715	7009
1430.948	6979
1433.182	6933
1435.414	6949
1437.647	7073
1439.88	7150
1442.11	7019
1444.342	7062
1446.571	7190
1448.799	7057
1451.029	7216
1453.258	7116
1455.485	7158
1457.711	7103
1459.937	7207
1462.164	7091
1464.39	7161
1466.614	7073
1468.838	7197
1471.06	6922
1473.283	7131
1475.506	7019
1477.727	6945
1479.949	6994
1482.169	6879
1484.389	6891
1486.609	6881
1488.828	6995
1491.045	6742
1493.261	6808
1495.477	6908
1497.693	6891
1499.91	6905
1502.125	6804
1504.339	6839
1506.553	6905
1508.766	6848
1510.979	6882
1513.191	6958
1515.402	6836
1517.613	6908
1519.823	6811
1522.033	6989
1524.242	6860
1526.451	6835
1528.657	6840
1530.865	6809
1533.072	6859
1535.278	6893
1537.484	6911
1539.687	6834
1541.892	6914
1544.096	6959
1546.299	6904
1548.502	6940
1550.703	6925
1552.905	6916
1555.104	6904
1557.303	6904
1559.505	6929
1561.703	6923
1563.902	6867
1566.099	7089
1568.295	7070
1570.494	6965
1572.689	6987
1574.883	6907
1577.079	6988
1579.272	7062
1581.467	7121
1583.659	7033
1585.853	7072
1588.044	7133
1590.234	7092
1592.424	7050
1594.615	7064
1596.806	7028
1598.994	7126
1601.182	7176
1603.369	7150
1605.557	7112
1607.744	7136
1609.929	7125
1612.114	7066
1614.298	7137
1616.482	7245
1618.667	7149
1620.85	7177
1623.032	7133
1625.214	7143
1627.395	7125
1629.575	7118
1631.755	7114
1633.935	7121
1636.114	7195
1638.292	7104
1640.471	7255
1642.647	7254
1644.823	7352
1647	7303
1649.175	7287
1651.348	7185
1653.525	7320
1655.698	7301
1657.87	7317
1660.043	7299
1662.213	7222
1664.387	7220
1666.558	7282
1668.727	7387
1670.896	7122
1673.064	7381
1675.233	7245
1677.401	7235
1679.569	7318
1681.735	7296
1683.902	7346
1686.066	7413
1688.233	7268
1690.397	7271
1692.559	7311
1694.723	7114
1696.885	7221
1699.048	7202
1701.21	7135
1703.37	7117
1705.53	7178
1707.689	7077
1709.849	7071
1712.009	7251
1714.166	7075
1716.323	7157
1718.479	7238
1720.634	7124
1722.793	7129
1724.948	7062
1727.102	7012
1729.255	7056
1731.408	7189
1733.562	7213
1735.714	7154
1737.865	7156
1740.016	7144
1742.166	7081
1744.316	7054
1746.467	7117
1748.616	7181
1750.764	7142
1752.911	7307
1755.056	7245
1757.205	7176
1759.35	7178
1761.496	7183
1763.641	7191
1765.785	7175
1767.927	7244
1770.072	7209
1772.214	7111
1774.355	7171
1776.496	7204
1778.637	7242
1780.778	7240
1782.918	7195
1785.057	7202
1787.194	7400
1789.333	7356
1791.472	7314
1793.608	7335
1795.745	7112
1797.879	7209
1800.015	7132
1802.148	7207
1804.284	7287
1806.417	7230
1808.548	7300
1810.682	7199
1812.812	7268
1814.946	7236
1817.075	7213
1819.205	7275
1821.335	7070
1823.463	7287
1825.59	7289
1827.721	7101
1829.847	7197
1831.973	7201
1834.098	7218
1836.223	7176
1838.351	7289
1840.475	7148
1842.598	7220
1844.721	7200
1846.843	7251
1848.966	7155
1851.087	7239
1853.21	7172
1855.33	7225
1857.449	7081
1859.568	7139
1861.688	7077
1863.806	7041
1865.924	7254
1868.039	7233
1870.155	7065
1872.273	7160
1874.388	7201
1876.503	7172
1878.617	7307
1880.73	7183
1882.844	7062
1884.956	7250
1887.068	7223
1889.18	7195
1891.291	7184
1893.4	7343
1895.511	7227
1897.621	7355
1899.73	7169
1901.837	7221
1903.944	7201
1906.053	7252
1908.159	7291
1910.265	7328
1912.369	7212
1914.474	7300
1916.577	7390
1918.683	7281
1920.785	7222
1922.888	7311
1924.989	7287
1927.091	7298
1929.193	7323
1931.294	7299
1933.393	7374
1935.493	7418
1937.59	7298
1939.689	7410
1941.788	7381
1943.884	7400
1945.98	7330
1948.077	7308
1950.171	7221
1952.267	7286
1954.361	7431
1956.455	7279
1958.548	7382
1960.64	7309
1962.733	7401
1964.824	7375
1966.915	7315
1969.005	7236
1971.096	7350
1973.185	7368
1975.275	7255
1977.363	7243
1979.45	7298
1981.537	7361
1983.623	7184
1985.711	7257
1987.796	7239
1989.881	7335
1991.965	7245
1994.047	7238
1996.132	7264
1998.215	7257
2000.297	7229
2002.378	7305
2004.46	7237
2006.54	7294
2008.62	7326
2010.7	7357
2012.779	7318
2014.858	7271
2016.934	7324
2019.013	7259
2021.09	7331
2023.165	7284
2025.241	7407
2027.317	7360
2029.39	7306
2031.466	7361
2033.538	7204
2035.612	7247
2037.683	7283
2039.755	7328
2041.827	7372
2043.898	7317
2045.968	7271
2048.038	7263
2050.106	7278
2052.177	7361
2054.244	7227
2056.313	7231
2058.379	7208
2060.444	7434
2062.511	7244
2064.577	7253
2066.641	7364
2068.705	7215
2070.77	7214
2072.832	7322
2074.896	7243
2076.958	7296
2079.02	7377
2081.081	7262
2083.141	7307
2085.2	7319
2087.261	7356
2089.319	7310
2091.377	7278
2093.435	7260
2095.492	7195
2097.552	7370
2099.607	7250
2101.663	7333
2103.718	7263
2105.771	7438
2107.826	7190
2109.879	7209
2111.932	7331
2113.985	7265
2116.037	7348
2118.088	7270
2120.141	7270
2122.191	7272
2124.239	7296
2126.288	7306
2128.337	7321
2130.387	7264
2132.434	7354
2134.481	7274
2136.528	7137
2138.574	7289
2140.618	7198
2142.665	7399
2144.71	7272
2146.753	7332
2148.797	7200
2150.838	7263
2152.883	7267
2154.923	7388
2156.965	7363
2159.007	7163
2161.046	7348
2163.086	7259
2165.126	7210
2167.163	7296
2169.202	7359
2171.239	7214
2173.277	7292
2175.314	7254
2177.349	7231
2179.385	7295
2181.42	7173
2183.453	7203
2185.49	7097
2187.522	7183
2189.555	7112
2191.586	7233
2193.619	7270
2195.651	7045
2197.682	7207
2199.711	7117
2201.74	7163
2203.769	7114
2205.799	7074
2207.828	7275
2209.855	7208
2211.882	7124
2213.908	7083
2215.934	7174
2217.961	7114
2219.986	7246
2222.01	7220
2224.034	7238
2226.057	7093
2228.08	7084
2230.104	7099
2232.124	7290
2234.145	7207
2236.166	7066
2238.186	7157
2240.207	7134
2242.227	7163
2244.244	7110
2246.262	7115
2248.28	7067
2250.299	7084
2252.314	7116
2254.33	7120
2256.346	7222
2258.36	7155
2260.375	7138
2262.391	7165
2264.403	7290
2266.416	7191
2268.427	7173
2270.44	7055
2272.453	7165
2274.463	7165
2276.474	7304
2278.483	7219
2280.493	7163
2282.501	7253
2284.51	7081
2286.518	7079
2288.524	7200
2290.532	7294
2292.537	7185
2294.544	7211
2296.55	7177
2298.554	7162
2300.557	7171
2302.562	7170
2304.566	7183
2306.568	7175
2308.569	7168
2310.572	7241
2312.573	7152
2314.573	7206
2316.574	7124
2318.573	7002
2320.571	7236
2322.571	7096
2324.569	7137
2326.567	7124
2328.564	7094
2330.56	6976
2332.556	7242
2334.551	6998
2336.546	7041
2338.542	7083
2340.535	6999
2342.529	7120
2344.521	7131
2346.512	6998
2348.505	7112
2350.497	7107
2352.487	7091
2354.478	7085
2356.468	6953
2358.457	6984
2360.446	7014
2362.434	7109
2364.422	7133
2366.408	7054
2368.395	6973
2370.383	6997
2372.369	7022
2374.353	7112
2376.338	7177
2378.321	7070
2380.307	7073
2382.29	7091
2384.272	7054
2386.254	7059
2388.235	7075
2390.218	7069
2392.198	6917
2394.179	6900
2396.157	7016
2398.137	6995
2400.115	6991
2402.095	6967
2404.072	6906
2406.048	6915
2408.026	6907
2410.001	6926
2411.977	6944
2413.953	7046
2415.927	6903
2417.9	6905
2419.875	6968
2421.847	7004
2423.821	7076
2425.792	6934
2427.763	7081
2429.736	6902
2431.706	7003
2433.677	6941
2435.646	6997
2437.615	6864
2439.583	6925
2441.551	7111
2443.519	6935
2445.486	6867
2447.452	7099
2449.418	7001
2451.383	6952
2453.348	7032
2455.314	6995
2457.278	6991
2459.241	6935
2461.205	6921
2463.167	6962
2465.131	6931
2467.091	7004
2469.052	6829
2471.012	6922
2472.972	6926
2474.932	6822
2476.891	6851
2478.85	6976
2480.808	6973
2482.766	6940
2484.722	6825
2486.68	6920
2488.636	6814
2490.591	6857
2492.546	6905
2494.5	6837
2496.456	6830
2498.41	6889
2500.362	6917
2502.315	6916
2504.266	6960
2506.218	6814
2508.169	6919
2510.121	6782
2512.07	6808
2514.019	6807
2515.968	6894
2517.918	6870
2519.866	6833
2521.813	6903
2523.76	6818
2525.707	6879
2527.653	6806
2529.599	6805
2531.543	6808
2533.489	6849
2535.433	6850
2537.376	6891
2539.32	6904
2541.264	6851
2543.205	6835
2545.147	6853
2547.087	6825
2549.029	6802
2550.969	6734
2552.908	6900
2554.847	6858
2556.786	6759
2558.724	6778
2560.663	6874
2562.6	6887
2564.537	6794
2566.473	6776
2568.408	6931
2570.345	6870
2572.28	6758
2574.214	6885
2576.148	6907
2578.081	6967
2580.014	6868
2581.947	6900
2583.879	6927
2585.81	6764
2587.741	6912
2589.67	6797
2591.602	6892
2593.532	6821
2595.461	6913
2597.388	6966
2599.316	6769
2601.244	6706
2603.172	6966
2605.098	6769
2607.023	6921
2608.949	6949
2610.873	6850
2612.8	6837
2614.723	6815
2616.647	6922
2618.569	6887
2620.493	6863
2622.416	6837
2624.338	6856
2626.258	6912
2628.179	6989
2630.099	6810
2632.019	6947
2633.939	6826
2635.857	6847
2637.775	6867
2639.694	6888
2641.61	6851
2643.528	6879
2645.444	6896
2647.361	6897
2649.276	6888
2651.19	6839
2653.105	6856
2655.019	6878
2656.934	6919
2658.846	6821
2660.758	6870
2662.67	6890
2664.583	6792
2666.493	6840
2668.404	6958
2670.313	6916
2672.223	6911
2674.134	6928
2676.042	6861
2677.95	6921
2679.858	6886
2681.765	6876
2683.673	6794
2685.579	6681
2687.483	6833
2689.389	6808
2691.294	6896
2693.198	6739
2695.104	6814
2697.006	6834
2698.909	6883
2700.811	6820
2702.713	6802
2704.615	6792
2706.516	6705
2708.417	6841
2710.316	6847
2712.216	6761
2714.115	6886
2716.014	6824
2717.913	6781
2719.81	6923
2721.707	6836
2723.603	6901
2725.501	6820
2727.396	6719
2729.292	6628
2731.186	6814
2733.081	6943
2734.976	6708
2736.87	6832
2738.762	6850
2740.653	6664
2742.546	6796
2744.437	6806
2746.329	6723
2748.22	6848
2750.11	6764
2751.999	6790
2753.889	6681
2755.778	6788
2757.666	6764
2759.553	6740
2761.44	6707
2763.328	6797
2765.215	6747
2767.101	6655
2768.986	6722
2770.87	6734
2772.754	6733
2774.638	6851
2776.523	6659
2778.405	6749
2780.288	6673
2782.17	6640
2784.051	6661
2785.934	6624
2787.814	6826
2789.694	6669
2791.574	6540
2793.453	6808
2795.332	6780
2797.212	6665
2799.088	6665
2800.966	6759
2802.843	6680
2804.719	6761
2806.597	6698
2808.471	6663
2810.346	6647
2812.221	6676
2814.094	6765
2815.969	6635
2817.843	6707
2819.714	6729
2821.587	6594
2823.459	6607
2825.329	6599
2827.202	6677
2829.072	6616
2830.942	6683
2832.811	6633
2834.68	6771
2836.549	6663
2838.418	6679
2840.284	6740
2842.152	6719
2844.018	6752
2845.885	6733
2847.751	6702
2849.616	6801
2851.482	6707
2853.345	6697
2855.208	6719
2857.074	6769
2858.937	6799
2860.799	6664
2862.66	6889
2864.522	6880
2866.385	6691
2868.245	6858
2870.104	6909
2871.964	6941
2873.824	7012
2875.683	7134
2877.542	7086
2879.4	7230
2881.257	7112
2883.114	7092
2884.97	7113
2886.827	7141
2888.683	7139
2890.537	7208
2892.392	7125
2894.246	7054
2896.1	7091
2897.954	7201
2899.807	7046
2901.66	7146
2903.51	7037
2905.362	7068
2907.214	7194
2909.065	7250
2910.915	7315
2912.765	7271
2914.613	7252
2916.463	7290
2918.311	7296
2920.158	7189
2922.006	7439
2923.853	7553
2925.698	7660
2927.546	7798
2929.392	7646
2931.236	7821
2933.081	7783
2934.924	7826
2936.77	7876
2938.613	8026
2940.455	8000
2942.298	7935
2944.139	7937
2945.982	7991
2947.823	7897
2949.662	7770
2951.503	7774
2953.342	7904
2955.182	7652
2957.021	7664
2958.858	7583
2960.697	7574
2962.534	7509
2964.37	7446
2966.207	7366
2968.044	7396
2969.879	7335
2971.714	7313
2973.548	7323
2975.383	7349
2977.218	7292
2979.051	7362
2980.883	7188
2982.715	7200
2984.547	7284
2986.379	7259
2988.21	7246
2990.04	7228
2991.87	7168
2993.7	7131
2995.53	6975
2997.359	6983
2999.187	6843
3001.015	6873
3002.842	6737
3004.669	6826
3006.497	6826
3008.323	6804
3010.148	6654
3011.974	6646
3013.797	6752
3015.623	6571
3017.447	6622
3019.27	6567
3021.094	6563
3022.915	6553
3024.737	6546
3026.56	6585
3028.38	6499
3030.201	6430
3032.022	6424
3033.84	6526
3035.662	6362
3037.481	6412
3039.298	6406
3041.117	6484
3042.933	6428
3044.752	6364
3046.568	6429
3048.385	6390
3050.2	6393
3052.016	6461
3053.83	6496
3055.646	6341
3057.46	6469
3059.272	6242
3061.086	6386
3062.898	6329
3064.711	6302
3066.524	6454
3068.335	6319
3070.145	6332
3071.956	6380
3073.766	6266
3075.576	6320
3077.385	6303
3079.193	6340
3081.002	6283
3082.81	6324
3084.618	6266
3086.425	6263
3088.231	6370
3090.036	6112
3091.842	6268
3093.648	6179
3095.452	6250
3097.257	6293
3099.06	6290
3100.863	6140
3102.666	6261
3104.47	6125
3106.272	6249
3108.073	6229
3109.875	6063
3111.676	6280
3113.477	6167
3115.277	6216
3117.077	6174
3118.874	6233
3120.673	6183
3122.473	6177
3124.271	6145
3126.066	6134
3127.863	6178
3129.66	6127
3131.456	6215
3133.252	6206
3135.047	6122
3136.842	6100
3138.635	6102
3140.429	6098
3142.223	6185
3144.016	6056
3145.808	6039
3147.6	6039
3149.392	5998
3151.183	6120
3152.975	5999
3154.765	6056
3156.553	6039
3158.344	6078
3160.132	5998
3161.922	6100
3163.71	6028
3165.497	6086
3167.285	6090
3169.071	6001
3170.858	5931
3172.645	6047
3174.429	6095
3176.214	6048
3177.998	6010
3179.783	6080
3181.568	6101
3183.351	6104
3185.133	6042
3186.915	5994
3188.698	6035
3190.481	5995
3192.261	5939
3194.042	6003
3195.822	5977
3197.601	6051
3199.381	6053
3201.161	5977
3202.939	6032
3204.717	5927
3206.495	5977
3208.272	5981
3210.05	5985
3211.826	6115
3213.602	6029
3215.376	6092
3217.151	5951
3218.927	6053
3220.702	5959
3222.476	5992
3224.249	6049
3226.021	5852
3227.793	5928
3229.567	5983
3231.339	5906
3233.109	5994
3234.88	6086
3236.651	5977
3238.421	5976
3240.191	5903
3241.96	5913
3243.728	6029
3245.497	5965
3247.263	6085
3249.033	5972
3250.799	5930
3252.566	6058
3254.331	6046
3256.097	5967
3257.863	5872
3259.628	5861
3261.392	5965
3263.156	5966
3264.919	6031
3266.683	5884
3268.447	6043
3270.208	6074
3271.969	5927
3273.731	5947
3275.492	5948
3277.253	5909
3279.013	5943
3280.773	5968
3282.532	5986
3284.291	5928
3286.05	5937
3287.808	5859
3289.566	5995
3291.323	6044
3293.079	5977
3294.835	5955
3296.593	5993
3298.348	6006
3300.102	5918
3301.857	5865
3303.611	5992
3305.366	5923
3307.119	5896
3308.872	6007
3310.624	5983
3312.376	5975
3314.129	5848
3315.881	6004
3317.631	5919
3319.38	5984
3321.13	5883
3322.88	5938
3324.631	5932
3326.379	5851
3328.126	5923
3329.875	5871
3331.622	5943
3333.371	5925
3335.116	5916
3336.863	5874
3338.609	5981
3340.353	5946
3342.1	5955
3343.845	5940
3345.588	5957
3347.332	5871
3349.074	5845
3350.817	5944
3352.56	5869
3354.303	5831
3356.043	5834
3357.785	5868
3359.525	5938
3361.268	5888
3363.007	5914
3364.745	5759
3366.485	5808
3368.223	5997
3369.962	5615
3371.701	5819
3373.438	5904
3375.174	5787
3376.911	5830
3378.647	5780
3380.384	5796
3382.118	5859
3383.854	5745
3385.588	5802
3387.322	5810
3389.057	5884
3390.79	5860
3392.522	5796
3394.255	5719
3395.987	5743
3397.719	5784
3399.451	5751
3401.181	5759
3402.911	5844
3404.641	5832
3406.371	5735
3408.101	5660
3409.83	5770
3411.558	5650
3413.285	5765
3415.011	5810
3416.739	5848
3418.467	5755
3420.193	5639
3421.919	5701
3423.644	5730
3425.368	5697
3427.094	5743
3428.818	5656
3430.542	5725
3432.264	5725
3433.987	5660
3435.712	5780
3437.434	5746
3439.155	5673
3440.876	5656
3442.596	5610
3444.317	5685
3446.039	5646
3447.757	5559
3449.477	5642
3451.195	5693
3452.914	5679
3454.632	5631
3456.35	5587
3458.067	5568
3459.784	5547
3461.5	5515
3463.216	5684
3464.932	5626
3466.647	5480
3468.362	5505
3470.076	5437
3471.789	5446
3473.505	5554
3475.217	5459
3476.929	5548
3478.641	5451
3480.354	5570
3482.066	5575
3483.777	5585
3485.487	5346
3487.197	5487
3488.908	5548
3490.617	5471
3492.327	5401
3494.035	5491
3495.743	5486
3497.451	5427
3499.158	5501
3500.866	5466
3502.572	5487
3504.278	5332
3505.984	5401
3507.689	5495
3509.396	5438
3511.1	5424
3512.804	5292
3514.508	5474
3516.211	5323
3517.913	5424
3519.616	5428
3521.319	5375
3523.021	5381
3524.722	5279
3526.422	5313
3528.124	5416
3529.824	5396
3531.524	5400
3533.222	5408
3534.921	5344
3536.62	5498
3538.318	5340
3540.016	5343
3541.714	5343
3543.41	5340
3545.107	5319
3546.803	5328
3548.5	5281
3550.194	5389
3551.889	5282
3553.583	5379
3555.279	5368
3556.972	5262
3558.666	5277
3560.358	5297
3562.051	5272
3563.742	5353
3565.435	5290
3567.126	5285
3568.817	5283
3570.507	5260
3572.197	5261
3573.888	5232
3575.577	5247
3577.265	5271
3578.954	5171
3580.642	5179
3582.329	5186
3584.017	5232
3585.704	5142
3587.391	5207
3589.077	5240
3590.762	5266
3592.449	5125
3594.133	5201
3595.817	5077
3597.501	5214
3599.185	5046
3600.869	5090
3602.552	5088
3604.234	5081
3605.916	5115
3607.598	5145
3609.279	5037
3610.961	5075
3612.642	5083
3614.321	5118
3616	5158
3617.68	5050
3619.36	5094
3621.039	5021
3622.716	5023
3624.394	5026
3626.071	5039
3627.748	5140
3629.425	5042
3631.102	5009
3632.778	5016
3634.452	4935
3636.127	5013
3637.803	5021
3639.477	4992
3641.151	5030
3642.823	4982
3644.497	4984
3646.171	5006
3647.842	5077
3649.515	4953
3651.185	4832
3652.857	4886
3654.527	4945
3656.198	4933
3657.868	4916
3659.537	4978
3661.207	4920
3662.875	4931
3664.544	4945
3666.212	4948
3667.879	4856
3669.546	4981
3671.212	4969
3672.88	4935
3674.546	4912
3676.211	4847
3677.875	4889
3679.541	4915
3681.205	4886
3682.87	4875
3684.533	4819
3686.196	4898
3687.859	4841
3689.521	4855
3691.184	4886
3692.845	4805
3694.507	4720
3696.167	4913
3697.827	4866
3699.487	4927
3701.148	4911
3702.808	4831
3704.466	4879
3706.125	4808
3707.783	4852
3709.442	4772
3711.099	4948
3712.757	4847
3714.412	4871
3716.068	4781
3717.725	4825
3719.381	4832
3721.036	4783
3722.689	4844
3724.344	4832
3725.998	4773
3727.652	4813
3729.305	4785
3730.958	4706
3732.61	4807
3734.262	4782
3735.915	4748
3737.565	4712
3739.217	4722
3740.866	4672
3742.516	4724
3744.165	4794
3745.816	4719
3747.464	4755
3749.113	4722
3750.761	4757
3752.409	4768
3754.057	4696
3755.703	4694
3757.35	4794
3758.996	4668
3760.641	4761
3762.289	4698
3763.933	4695
3765.577	4591
3767.222	4660
3768.865	4717
3770.508	4664
3772.152	4697
3773.796	4635
3775.438	4631
3777.079	4593
3778.721	4666
3780.363	4655
3782.003	4645
3783.643	4644
3785.283	4654
3786.923	4653
3788.563	4627
3790.203	4588
3791.841	4599
3793.479	4615
3795.115	4660
3796.753	4673
3798.391	4597
3800.027	4579
3801.664	4595
3803.299	4713
3804.935	4586
3806.571	4621
3808.206	4556
3809.839	4549
3811.473	4650
3813.107	4653
3814.74	4538
3816.375	4559
3818.006	4538
3819.638	4545
3821.27	4539
3822.9	4409
3824.532	4535
3826.163	4563
3827.792	4610
3829.423	4405
3831.051	4445
3832.682	4571
3834.311	4458
3835.938	4515
3837.566	4466
3839.193	4589
3840.821	4536
3842.448	4509
3844.075	4532
3845.7	4499
3847.325	4532
3848.951	4544
3850.576	4476
3852.201	4525
3853.825	4442
3855.448	4475
3857.072	4532
3858.694	4429
3860.318	4369
3861.939	4461
3863.562	4464
3865.183	4426
3866.804	4467
3868.426	4475
3870.045	4513
3871.666	4413
3873.285	4475
3874.904	4392
3876.524	4318
3878.142	4545
3879.76	4397
3881.378	4358
3882.995	4452
3884.612	4296
3886.229	4459
3887.845	4367
3889.461	4435
3891.076	4341
3892.691	4353
3894.307	4397
3895.922	4436
3897.536	4353
3899.149	4363
3900.761	4428
3902.374	4376
3903.988	4404
3905.6	4361
3907.212	4310
3908.822	4389
3910.433	4433
3912.045	4470
3913.655	4318
3915.265	4331
3916.875	4324
3918.483	4381
3920.093	4370
3921.702	4300
3923.309	4291
3924.917	4364
3926.523	4346
3928.13	4385
3929.739	4351
3931.344	4335
3932.95	4297
3934.555	4334
3936.159	4303
3937.766	4288
3939.369	4304
3940.974	4341
3942.577	4334
3944.181	4322
3945.783	4395
3947.386	4170
3948.989	4324
3950.59	4317
3952.191	4326
3953.791	4275
3955.394	4328
3956.994	4189
3958.593	4332
3960.192	4225
3961.791	4314
3963.392	4326
3964.99	4241
3966.588	4288
3968.185	4309
3969.782	4290
3971.379	4246
3972.976	4226
3974.572	4259
3976.168	4241
3977.763	4203
3979.358	4263
3980.954	4223
3982.548	4219
3984.142	4171
3985.736	4211
3987.329	4214
3988.922	4174
3990.516	4158
3992.108	4133
3993.698	4161
3995.29	4170
3996.881	4201
3998.473	4203
4000.064	4184
4001.653	4241
4003.242	4241
4004.832	4116
4006.422	4181
4008.01	4142
4009.598	4190
4011.186	3987
4012.773	4125
4014.36	4063
4015.947	3993
4017.534	4116
4019.119	4126
4020.705	4103
4022.291	4050
4023.876	4144
4025.461	4084
4027.044	4065
4028.627	4074
4030.211	4097
4031.795	4121
4033.378	4029
4034.96	4172
4036.542	3990
4038.124	3994
4039.704	4046
4041.286	3998
4042.867	3970
4044.447	4119
4046.026	4057
4047.606	4018
4049.187	4015
4050.765	4050
4052.343	3957
4053.92	3910
4055.498	3941
4057.076	3988
4058.654	3999
4060.23	4015
4061.806	3999
4063.381	3939
4064.957	3972
4066.533	3954
4068.107	4059
4069.682	4072
4071.256	3952
4072.829	3882
4074.404	3976
4075.977	4045
4077.549	4059
4079.121	3945
4080.693	3929
4082.265	3909
4083.836	3929
4085.407	3965
4086.977	4067
4088.547	3943
4090.117	3958
4091.687	3939
4093.256	3919
4094.825	3860
4096.392	3943
4097.96	3938
4099.528	3905
4101.097	3882
4102.663	3890
4104.229	3864
4105.795	3853
4107.361	3868
4108.928	3946
4110.493	3974
4112.058	3899
4113.621	3868
4115.186	3894
4116.75	3862
4118.313	3820
4119.876	3960
4121.438	3841
4123	3856
4124.562	3835
4126.125	3889
4127.686	3849
4129.246	3776
4130.807	3862
4132.367	3916
4133.927	3879
4135.486	3887
4137.046	3812
4138.604	3885
4140.162	3797
4141.72	3885
4143.279	3777
4144.836	3781
4146.393	3791
4147.949	3747
4149.505	3809
4151.062	3816
4152.617	3739
4154.172	3757
4155.727	3807
4157.281	3749
4158.836	3737
4160.39	3744
4161.943	3743
4163.496	3693
4165.048	3675
4166.601	3770
4168.154	3699
4169.706	3723
4171.257	3620
4172.808	3726
4174.358	3773
4175.909	3710
4177.458	3795
4179.008	3603
4180.558	3603
4182.106	3675
4183.655	3763
4185.204	3633
4186.751	3617
4188.298	3722
4189.845	3628
4191.392	3727
4192.939	3627
4194.485	3606
4196.031	3578
4197.576	3665
4199.121	3638
4200.666	3690
4202.211	3685
4203.754	3714
4205.298	3594
4206.84	3662
4208.384	3623
4209.927	3707
4211.47	3569
4213.011	3639
4214.552	3653
4216.094	3677
4217.635	3671
4219.175	3600
4220.716	3586
4222.255	3601
4223.793	3611
4225.335	3710
4226.873	3542
4228.411	3653
4229.948	3628
4231.486	3542
4233.024	3544
4234.562	3625
4236.098	3565
4237.634	3634
4239.169	3574
4240.705	3540
4242.241	3634
4243.776	3544
4245.31	3626
4246.844	3567
4248.378	3621
4249.911	3577
4251.445	3615
4252.978	3597
4254.51	3579
4256.042	3592
4257.574	3490
4259.107	3569
4260.638	3541
4262.169	3611
4263.699	3525
4265.228	3536
4266.759	3551
4268.289	3561
4269.818	3526
4271.345	3546
4272.874	3530
4274.402	3555
4275.931	3550
4277.458	3520
4278.985	3520
4280.512	3581
4282.037	3445
4283.564	3571
4285.089	3474
4286.615	3427
4288.139	3441
4289.664	3498
4291.187	3373
4292.712	3474
4294.235	3382
4295.759	3502
4297.281	3445
4298.804	3445
4300.327	3474
4301.849	3490
4303.37	3435
4304.891	3457
4306.412	3447
4307.933	3559
4309.453	3543
4310.973	3464
4312.492	3359
