398.1873	3262
400.7097	3327
403.2336	3234
405.7547	3246
408.2751	3365
410.7948	3361
413.3138	3270
415.83	3358
418.3497	3327
420.8666	3330
423.3829	3304
425.8985	3376
428.4133	3343
430.9275	3444
433.441	3461
435.9538	3421
438.4639	3464
440.9753	3432
443.4881	3476
445.9982	3518
448.5055	3493
451.0142	3436
453.5201	3466
456.0274	3481
458.5361	3451
461.04	3567
463.5453	3501
466.0478	3479
468.5517	3438
471.0549	3514
473.5574	3458
476.0572	3517
478.5584	3546
481.0568	3616
483.5545	3567
486.0557	3543
488.5521	3530
491.0478	3540
493.5449	3500
496.0392	3654
498.5349	3453
501.0299	3563
503.5222	3578
506.0139	3498
508.5048	3599
510.9991	3586
513.4887	3560
515.9777	3632
518.4659	3658
520.9534	3582
523.4403	3604
525.9306	3609
528.4161	3698
530.9009	3642
533.3851	3601
535.8687	3565
538.3535	3683
540.8356	3661
543.3171	3646
545.7979	3695
548.278	3666
550.7595	3676
553.2383	3691
555.7144	3531
558.1918	3654
560.6685	3671
563.1446	3726
565.6221	3691
568.0968	3657
570.5688	3742
573.0422	3764
575.515	3853
577.989	3747
580.4584	3731
582.9291	3765
585.3991	3722
587.8685	3720
590.3352	3697
592.8052	3797
595.2706	3725
597.7372	3795
600.2033	3710
602.6666	3711
605.1334	3701
607.5953	3818
610.0587	3744
612.5193	3737
614.9814	3731
617.4427	3797
619.9034	3779
622.3615	3722
624.8208	3685
627.2775	3790
629.7335	3729
632.1929	3749
634.6476	3795
637.1016	3698
639.5569	3811
642.0096	3743
644.4637	3790
646.9151	3841
649.3678	3693
651.8179	3840
654.2672	3880
656.7159	3798
659.166	3873
661.6154	3898
664.0622	3793
666.5082	3837
668.9537	3879
671.4005	3877
673.8445	3891
676.288	3884
678.7308	3871
681.1729	3896
683.6163	3916
686.0572	3892
688.4973	3916
690.9368	3873
693.3757	3903
695.8138	3939
698.2534	3909
700.6902	3866
703.1245	3875
705.56	3922
707.9949	3929
710.4311	3973
712.8647	3909
715.2957	3931
717.7279	4017
720.1595	3958
722.5905	3914
725.0208	4004
727.4505	4044
729.8795	4012
732.3058	4098
734.7336	4118
737.1626	4100
739.587	4060
742.0128	4102
744.4359	4044
746.8604	4019
749.2841	4108
751.7073	4112
754.1278	4179
756.5496	4125
758.9688	4088
761.3893	4035
763.8093	4173
766.2285	4107
768.6451	4221
771.0611	4177
773.4784	4175
775.895	4137
778.3091	4209
780.7244	4161
783.1371	4144
785.5493	4065
787.9626	4168
790.3754	4131
792.7856	4126
795.1951	4168
797.6039	4079
800.0121	4159
802.4236	4118
804.8306	4237
807.2369	4187
809.6425	4133
812.0475	4146
814.4538	4167
816.8575	4196
819.2606	4146
821.663	4214
824.0648	4205
826.4659	4206
828.8683	4192
831.2682	4233
833.6674	4254
836.066	4222
838.4639	4228
840.8632	4216
843.2579	4241
845.6539	4228
848.0493	4241
850.444	4319
852.84	4214
855.2315	4296
857.6243	4223
860.0165	4226
862.4081	4259
864.797	4258
867.1892	4278
869.5789	4222
871.9659	4232
874.3542	4307
876.74	4264
879.129	4196
881.5155	4284
883.8994	4300
886.2845	4279
888.6671	4268
891.051	4270
893.4343	4231
895.8169	4309
898.197	4186
900.5783	4237
902.9571	4306
905.3372	4315
907.7167	4296
910.0936	4287
912.4698	4414
914.8474	4276
917.2244	4348
919.5987	4428
921.9744	4470
924.3475	4417
926.72	4459
929.0918	4371
931.4669	4386
933.8375	4397
936.2074	4422
938.5767	4454
940.9454	4347
943.3154	4370
945.6829	4544
948.0497	4530
950.4178	4680
952.7833	4595
955.1483	4671
957.5145	4826
959.8782	4802
962.2412	4750
964.6036	4714
966.9655	4662
969.3266	4700
971.6871	4566
974.0471	4422
976.4064	4550
978.765	4400
981.125	4364
983.4824	4470
985.8373	4457
988.1935	4418
990.549	4356
992.9039	4403
995.2602	4409
997.6119	4432
999.965	4408
1002.317	4538
1004.667	4568
1007.02	4414
1009.371	4472
1011.719	4382
1014.068	4366
1016.415	4423
1018.765	4498
1021.111	4465
1023.458	4530
1025.804	4295
1028.147	4410
1030.49	4477
1032.837	4508
1035.179	4372
1037.522	4485
1039.862	4433
1042.204	4538
1044.546	4501
1046.884	4509
1049.224	4505
1051.562	4579
1053.899	4456
1056.237	4420
1058.575	4520
1060.91	4585
1063.244	4560
1065.58	4491
1067.913	4450
1070.248	4455
1072.579	4518
1074.911	4538
1077.242	4479
1079.572	4494
1081.905	4505
1084.234	4517
1086.562	4452
1088.89	4520
1091.217	4455
1093.544	4559
1095.871	4448
1098.197	4585
1100.521	4550
1102.845	4601
1105.169	4447
1107.491	4510
1109.814	4506
1112.135	4568
1114.456	4641
1116.776	4546
1119.096	4566
1121.415	4513
1123.734	4489
1126.052	4480
1128.369	4644
1130.686	4625
1133.002	4535
1135.318	4591
1137.632	4577
1139.945	4533
1142.258	4497
1144.573	4594
1146.884	4569
1149.196	4528
1151.505	4566
1153.816	4652
1156.124	4583
1158.435	4588
1160.742	4625
1163.051	4617
1165.356	4600
1167.663	4563
1169.97	4620
1172.276	4612
1174.579	4614
1176.881	4659
1179.186	4567
1181.487	4681
1183.79	4658
1186.092	4658
1188.392	4543
1190.691	4539
1192.991	4562
1195.291	4590
1197.588	4602
1199.885	4626
1202.181	4465
1204.479	4673
1206.775	4536
1209.07	4600
1211.363	4623
1213.656	4603
1215.949	4644
1218.241	4742
1220.534	4656
1222.825	4580
1225.115	4647
1227.405	4638
1229.693	4699
1231.984	4626
1234.271	4613
1236.558	4691
1238.845	4651
1241.131	4722
1243.416	4740
1245.703	4783
1247.987	4676
1250.269	4769
1252.552	4675
1254.834	4726
1257.118	4793
1259.399	4705
1261.678	4788
1263.958	4724
1266.237	4794
1268.516	4721
1270.794	4702
1273.072	4672
1275.347	4841
1277.624	4734
1279.899	4715
1282.175	4741
1284.449	4628
1286.722	4670
1288.995	4727
1291.266	4706
1293.54	4738
1295.81	4778
1298.081	4689
1300.35	4700
1302.62	4714
1304.889	4650
1307.156	4706
1309.425	4759
1311.69	4760
1313.957	4710
1316.222	4790
1318.488	4737
1320.751	4708
1323.016	4747
1325.278	4740
1327.54	4747
1329.803	4879
1332.065	4772
1334.325	4717
1336.584	4684
1338.843	4702
1341.101	4733
1343.36	4623
1345.617	4658
1347.876	4768
1350.131	4777
1352.387	4740
1354.643	4744
1356.897	4756
1359.151	4710
1361.403	4723
1363.656	4765
1365.909	4819
1368.16	4804
1370.409	4758
1372.659	4790
1374.909	4699
1377.157	4788
1379.407	4808
1381.655	4779
1383.9	4757
1386.147	4852
1388.393	4897
1390.64	4728
1392.885	4892
1395.127	4902
1397.37	4945
1399.614	4865
1401.854	4818
1404.098	4840
1406.339	4848
1408.578	4837
1410.818	4860
1413.056	4910
1415.297	4912
1417.533	4835
1419.771	4919
1422.006	4892
1424.243	4898
1426.479	4836
1428.715	4919
1430.948	4937
1433.182	4907
1435.414	4912
1437.647	4962
1439.88	4870
1442.11	4886
1444.342	4909
1446.571	5013
1448.799	5039
1451.029	4986
1453.258	4948
1455.485	4972
1457.711	4996
1459.937	4900
1462.164	4866
1464.39	4978
1466.614	4960
1468.838	4900
1471.06	4873
1473.283	4878
1475.506	4864
1477.727	4846
1479.949	4898
1482.169	4841
1484.389	4759
1486.609	4743
1488.828	4837
1491.045	4817
1493.261	4724
1495.477	4851
1497.693	4871
1499.91	4809
1502.125	4732
1504.339	4822
1506.553	4796
1508.766	4873
1510.979	4771
1513.191	4811
1515.402	4834
1517.613	4795
1519.823	4803
1522.033	4847
1524.242	4835
1526.451	4820
1528.657	4764
1530.865	4742
1533.072	4757
1535.278	4850
1537.484	4818
1539.687	4840
1541.892	4767
1544.096	4800
1546.299	4884
1548.502	4882
1550.703	4931
1552.905	4891
1555.104	4806
1557.303	4828
1559.505	4935
1561.703	4884
1563.902	4902
1566.099	4922
1568.295	4964
1570.494	4837
1572.689	4911
1574.883	4885
1577.079	5007
1579.272	5008
1581.467	4920
1583.659	5040
1585.853	4872
1588.044	4913
1590.234	5083
1592.424	5042
1594.615	5005
1596.806	4922
1598.994	5008
1601.182	5085
1603.369	4971
1605.557	4893
1607.744	4999
1609.929	5022
1612.114	5050
1614.298	5060
1616.482	5013
1618.667	5101
1620.85	4948
1623.032	5040
1625.214	4963
1627.395	5024
1629.575	4981
1631.755	5037
1633.935	4971
1636.114	4977
1638.292	4964
1640.471	5051
1642.647	5070
1644.823	5162
1647	5042
1649.175	5056
1651.348	5083
1653.525	5039
1655.698	5094
1657.87	5100
1660.043	5035
1662.213	5053
1664.387	5053
1666.558	5049
1668.727	5014
1670.896	5035
1673.064	5061
1675.233	5046
1677.401	5172
1679.569	5103
1681.735	5045
1683.902	5175
1686.066	5103
1688.233	5054
1690.397	5048
1692.559	5035
1694.723	5034
1696.885	5050
1699.048	5042
1701.21	5037
1703.37	5010
1705.53	5072
1707.689	5053
1709.849	5036
1712.009	5088
1714.166	5071
1716.323	5136
1718.479	5002
1720.634	5087
1722.793	5025
1724.948	4935
1727.102	4991
1729.255	4979
1731.408	4973
1733.562	5048
1735.714	4994
1737.865	5024
1740.016	4998
1742.166	5052
1744.316	5001
1746.467	5051
1748.616	5040
1750.764	5023
1752.911	5084
1755.056	5024
1757.205	5080
1759.35	5024
1761.496	5148
1763.641	5094
1765.785	5105
1767.927	5107
1770.072	5072
1772.214	5103
1774.355	4993
1776.496	5081
1778.637	5159
1780.778	5099
1782.918	5028
1785.057	5112
1787.194	5150
1789.333	5112
1791.472	5107
1793.608	5018
1795.745	5184
1797.879	5130
1800.015	5105
1802.148	5060
1804.284	5126
1806.417	5160
1808.548	5033
1810.682	5114
1812.812	5221
1814.946	5092
1817.075	5079
1819.205	5129
1821.335	5090
1823.463	5166
1825.59	5099
1827.721	5069
1829.847	5155
1831.973	5147
1834.098	5116
1836.223	5016
1838.351	5099
1840.475	5154
1842.598	5015
1844.721	5082
1846.843	5141
1848.966	4989
1851.087	5097
1853.21	5037
1855.33	5125
1857.449	5039
1859.568	5034
1861.688	5129
1863.806	5049
1865.924	5106
1868.039	5068
1870.155	4982
1872.273	5200
1874.388	5098
1876.503	5175
1878.617	5102
1880.73	5076
1882.844	5120
1884.956	5066
1887.068	5129
1889.18	5138
1891.291	5112
1893.4	5057
1895.511	5083
1897.621	5115
1899.73	5056
1901.837	5131
1903.944	5157
1906.053	5127
1908.159	5096
1910.265	5150
1912.369	5198
1914.474	5191
1916.577	5087
1918.683	5149
1920.785	5206
1922.888	5134
1924.989	5188
1927.091	5196
1929.193	5240
1931.294	5120
1933.393	5196
1935.493	5161
1937.59	5220
1939.689	5207
1941.788	5231
1943.884	5154
1945.98	5092
1948.077	5200
1950.171	5290
1952.267	5145
1954.361	5223
1956.455	5142
1958.548	5151
1960.64	5143
1962.733	5161
1964.824	5211
1966.915	5234
1969.005	5095
1971.096	5139
1973.185	5195
1975.275	5265
1977.363	5205
1979.45	5124
1981.537	5179
1983.623	5178
1985.711	5127
1987.796	5187
1989.881	5180
1991.965	5092
1994.047	5102
1996.132	5167
1998.215	5081
2000.297	5202
2002.378	5145
2004.46	5086
2006.54	5178
2008.62	5187
2010.7	5137
2012.779	5144
2014.858	5177
2016.934	5095
2019.013	5123
2021.09	5095
2023.165	5131
2025.241	5105
2027.317	5108
2029.39	5164
2031.466	5187
2033.538	5173
2035.612	5157
2037.683	5038
2039.755	5141
2041.827	5118
2043.898	5152
2045.968	5142
2048.038	5150
2050.106	5143
2052.177	5179
2054.244	5206
2056.313	5176
2058.379	5165
2060.444	5155
2062.511	5208
2064.577	5238
2066.641	5110
2068.705	5187
2070.77	5174
2072.832	5088
2074.896	5032
2076.958	5188
2079.02	5206
2081.081	5102
2083.141	5123
2085.2	5199
2087.261	5175
2089.319	5084
2091.377	5198
2093.435	5221
2095.492	5110
2097.552	5059
2099.607	5177
2101.663	5163
2103.718	5140
2105.771	5178
2107.826	5180
2109.879	5165
2111.932	5185
2113.985	5194
2116.037	5164
2118.088	5171
2120.141	5107
2122.191	5234
2124.239	5256
2126.288	5094
2128.337	5173
2130.387	5110
2132.434	5227
2134.481	5198
2136.528	5075
2138.574	5227
2140.618	5181
2142.665	5162
2144.71	5103
2146.753	5086
2148.797	5145
2150.838	5226
2152.883	5113
2154.923	5192
2156.965	5133
2159.007	5085
2161.046	5275
2163.086	5095
2165.126	5100
2167.163	5057
2169.202	5144
2171.239	5110
2173.277	5153
2175.314	5146
2177.349	5180
2179.385	5175
2181.42	5112
2183.453	5158
2185.49	5149
2187.522	5025
2189.555	5151
2191.586	5205
2193.619	5109
2195.651	5112
2197.682	5189
2199.711	5058
2201.74	5040
2203.769	4907
2205.799	5049
2207.828	5065
2209.855	5062
2211.882	5045
2213.908	5101
2215.934	5001
2217.961	5215
2219.986	5040
2222.01	5043
2224.034	5051
2226.057	5142
2228.08	5045
2230.104	5085
2232.124	5154
2234.145	5054
2236.166	5025
2238.186	5134
2240.207	5064
2242.227	5176
2244.244	5122
2246.262	5045
2248.28	5009
2250.299	5031
2252.314	5004
2254.33	5062
2256.346	5154
2258.36	5194
2260.375	5003
2262.391	5213
2264.403	5023
2266.416	5241
2268.427	5056
2270.44	5257
2272.453	5213
2274.463	5083
2276.474	5087
2278.483	5056
2280.493	5068
2282.501	5020
2284.51	5092
2286.518	5069
2288.524	5104
2290.532	5114
2292.537	5079
2294.544	5039
2296.55	5155
2298.554	5063
2300.557	5070
2302.562	5088
2304.566	5130
2306.568	5081
2308.569	5026
2310.572	5067
2312.573	5145
2314.573	5033
2316.574	5034
2318.573	5136
2320.571	5109
2322.571	5000
2324.569	5070
2326.567	5018
2328.564	5162
2330.56	4963
2332.556	5020
2334.551	5032
2336.546	4942
2338.542	5058
2340.535	5117
2342.529	4991
2344.521	5052
2346.512	5068
2348.505	5049
2350.497	4858
2352.487	5086
2354.478	5030
2356.468	5013
2358.457	5067
2360.446	4933
2362.434	5033
2364.422	5003
2366.408	4930
2368.395	5088
2370.383	4893
2372.369	4933
2374.353	5077
2376.338	4986
2378.321	5018
2380.307	5158
2382.29	4972
2384.272	4939
2386.254	5023
2388.235	5003
2390.218	5078
2392.198	4948
2394.179	4880
2396.157	5059
2398.137	5017
2400.115	5009
2402.095	4925
2404.072	5081
2406.048	4869
2408.026	5044
2410.001	4995
2411.977	4975
2413.953	5043
2415.927	5000
2417.9	4946
2419.875	4879
2421.847	5038
2423.821	4968
2425.792	4900
2427.763	4975
2429.736	5057
2431.706	5056
2433.677	4946
2435.646	4962
2437.615	4921
2439.583	4903
2441.551	4924
2443.519	4957
2445.486	4823
2447.452	4904
2449.418	4930
2451.383	4998
2453.348	4998
2455.314	4987
2457.278	4929
2459.241	5017
2461.205	4988
2463.167	4858
2465.131	4970
2467.091	4900
2469.052	4855
2471.012	4997
2472.972	4836
2474.932	4972
2476.891	4884
2478.85	4922
2480.808	4858
2482.766	4964
2484.722	4922
2486.68	4929
2488.636	4956
2490.591	4890
2492.546	4857
2494.5	4874
2496.456	4916
2498.41	4892
2500.362	4964
2502.315	4776
2504.266	4919
2506.218	4845
2508.169	4965
2510.121	4909
2512.07	4851
2514.019	4936
2515.968	4979
2517.918	4893
2519.866	4894
2521.813	4878
2523.76	4917
2525.707	4870
2527.653	4879
2529.599	4769
2531.543	4922
2533.489	4869
2535.433	4879
2537.376	4871
2539.32	4976
2541.264	4885
2543.205	4839
2545.147	4921
2547.087	4839
2549.029	4937
2550.969	4849
2552.908	4881
2554.847	4888
2556.786	4841
2558.724	4987
2560.663	4816
2562.6	4974
2564.537	4925
2566.473	4976
2568.408	4907
2570.345	4848
2572.28	4967
2574.214	4909
2576.148	4910
2578.081	4890
2580.014	4994
2581.947	4900
2583.879	4762
2585.81	4819
2587.741	4912
2589.67	4877
2591.602	4929
2593.532	4903
2595.461	4811
2597.388	5060
2599.316	4794
2601.244	4928
2603.172	4918
2605.098	4872
2607.023	4908
2608.949	4918
2610.873	4989
2612.8	4929
2614.723	4894
2616.647	4808
2618.569	4910
2620.493	4926
2622.416	4964
2624.338	4973
2626.258	4913
2628.179	4852
2630.099	4900
2632.019	4922
2633.939	5001
2635.857	4965
2637.775	4888
2639.694	4946
2641.61	4873
2643.528	4923
2645.444	4913
2647.361	4961
2649.276	4991
2651.19	4900
2653.105	4956
2655.019	5023
2656.934	4847
2658.846	4949
2660.758	4954
2662.67	4981
2664.583	4912
2666.493	5033
2668.404	4965
2670.313	4923
2672.223	4956
2674.134	4900
2676.042	4913
2677.95	4898
2679.858	4782
2681.765	4870
2683.673	4854
2685.579	5007
2687.483	4922
2689.389	4876
2691.294	4898
2693.198	4914
2695.104	4878
2697.006	4928
2698.909	4861
2700.811	4955
2702.713	4744
2704.615	4989
2706.516	4880
2708.417	4883
2710.316	4836
2712.216	4814
2714.115	4913
2716.014	4851
2717.913	4830
2719.81	4837
2721.707	4867
2723.603	5042
2725.501	4755
2727.396	4948
2729.292	4851
2731.186	4914
2733.081	4883
2734.976	4823
2736.87	4798
2738.762	4722
2740.653	4822
2742.546	4833
2744.437	4840
2746.329	4856
2748.22	4873
2750.11	4900
2751.999	4855
2753.889	4816
2755.778	4789
2757.666	4783
2759.553	4844
2761.44	4850
2763.328	4879
2765.215	4856
2767.101	4735
2768.986	4875
2770.87	4739
2772.754	4807
2774.638	4786
2776.523	4786
2778.405	4777
2780.288	4883
2782.17	4734
2784.051	4779
2785.934	4847
2787.814	4798
2789.694	4865
2791.574	4688
2793.453	4761
2795.332	4771
2797.212	4720
2799.088	4760
2800.966	4874
2802.843	4801
2804.719	4785
2806.597	4812
2808.471	4813
2810.346	4796
2812.221	4856
2814.094	4857
2815.969	4796
2817.843	4794
2819.714	4711
2821.587	4839
2823.459	4683
2825.329	4748
2827.202	4742
2829.072	4827
2830.942	4724
2832.811	4876
2834.68	4804
2836.549	4830
2838.418	4745
2840.284	4658
2842.152	4696
2844.018	4812
2845.885	4877
2847.751	4850
2849.616	4837
2851.482	4714
2853.345	4843
2855.208	4871
2857.074	4836
2858.937	4887
2860.799	4831
2862.66	4892
2864.522	4754
2866.385	4939
2868.245	4818
2870.104	4962
2871.964	4877
2873.824	4959
2875.683	4893
2877.542	4981
2879.4	5019
2881.257	5011
2883.114	4960
2884.97	5074
2886.827	4996
2888.683	5054
2890.537	4975
2892.392	5002
2894.246	5084
2896.1	5043
2897.954	5010
2899.807	4903
2901.66	5068
2903.51	4991
2905.362	4990
2907.214	5033
2909.065	4871
2910.915	4927
2912.765	5020
2914.613	5053
2916.463	5084
2918.311	4962
2920.158	5069
2922.006	5116
2923.853	5094
2925.698	5112
2927.546	5192
2929.392	5101
2931.236	5083
2933.081	5147
2934.924	5135
2936.77	5235
2938.613	5139
2940.455	5203
2942.298	5233
2944.139	5354
2945.982	5349
2947.823	5273
2949.662	5213
2951.503	5293
2953.342	5158
2955.182	5165
2957.021	5236
2958.858	5178
2960.697	5205
2962.534	5151
2964.37	5238
2966.207	5139
2968.044	5105
2969.879	5093
2971.714	4999
2973.548	4969
2975.383	5029
2977.218	4935
2979.051	4903
2980.883	4824
2982.715	4847
2984.547	4876
2986.379	4892
2988.21	4911
2990.04	4855
2991.87	4765
2993.7	4832
2995.53	4773
2997.359	4784
2999.187	4838
3001.015	4710
3002.842	4783
3004.669	4851
3006.497	4681
3008.323	4704
3010.148	4624
3011.974	4710
3013.797	4587
3015.623	4676
3017.447	4615
3019.27	4622
3021.094	4612
3022.915	4527
3024.737	4593
3026.56	4681
3028.38	4613
3030.201	4561
3032.022	4604
3033.84	4534
3035.662	4581
3037.481	4558
3039.298	4565
3041.117	4598
3042.933	4593
3044.752	4565
3046.568	4605
3048.385	4609
3050.2	4553
3052.016	4587
3053.83	4472
3055.646	4566
3057.46	4505
3059.272	4602
3061.086	4524
3062.898	4486
3064.711	4538
3066.524	4563
3068.335	4586
3070.145	4521
3071.956	4518
3073.766	4492
3075.576	4535
3077.385	4514
3079.193	4505
3081.002	4490
3082.81	4544
3084.618	4463
3086.425	4538
3088.231	4409
3090.036	4465
3091.842	4508
3093.648	4421
3095.452	4440
3097.257	4518
3099.06	4477
3100.863	4410
3102.666	4410
3104.47	4405
3106.272	4405
3108.073	4484
3109.875	4495
3111.676	4425
3113.477	4473
3115.277	4393
3117.077	4385
3118.874	4424
3120.673	4409
3122.473	4371
3124.271	4509
3126.066	4436
3127.863	4405
3129.66	4363
3131.456	4422
3133.252	4366
3135.047	4379
3136.842	4455
3138.635	4314
3140.429	4376
3142.223	4360
3144.016	4349
3145.808	4451
3147.6	4254
3149.392	4335
3151.183	4325
3152.975	4359
3154.765	4304
3156.553	4364
3158.344	4327
3160.132	4375
3161.922	4308
3163.71	4227
3165.497	4260
3167.285	4365
3169.071	4234
3170.858	4240
3172.645	4421
3174.429	4341
3176.214	4304
3177.998	4329
3179.783	4356
3181.568	4319
3183.351	4252
3185.133	4317
3186.915	4297
3188.698	4295
3190.481	4341
3192.261	4305
3194.042	4264
3195.822	4278
3197.601	4227
3199.381	4278
3201.161	4256
3202.939	4166
3204.717	4243
3206.495	4327
3208.272	4265
3210.05	4304
3211.826	4195
3213.602	4228
3215.376	4248
3217.151	4276
3218.927	4232
3220.702	4177
3222.476	4168
3224.249	4304
3226.021	4208
3227.793	4275
3229.567	4288
3231.339	4111
3233.109	4145
3234.88	4227
3236.651	4215
3238.421	4209
3240.191	4252
3241.96	4257
3243.728	4196
3245.497	4276
3247.263	4203
3249.033	4275
3250.799	4236
3252.566	4205
3254.331	4126
3256.097	4258
3257.863	4272
3259.628	4194
3261.392	4269
3263.156	4188
3264.919	4240
3266.683	4185
3268.447	4317
3270.208	4224
3271.969	4208
3273.731	4124
3275.492	4154
3277.253	4211
3279.013	4193
3280.773	4165
3282.532	4278
3284.291	4229
3286.05	4170
3287.808	4204
3289.566	4294
3291.323	4244
3293.079	4119
3294.835	4175
3296.593	4323
3298.348	4197
3300.102	4201
3301.857	4218
3303.611	4119
3305.366	4213
3307.119	4219
3308.872	4141
3310.624	4185
3312.376	4209
3314.129	4176
3315.881	4160
3317.631	4173
3319.38	4207
3321.13	4112
3322.88	4138
3324.631	4249
3326.379	4176
3328.126	4156
3329.875	4151
3331.622	4200
3333.371	4190
3335.116	4224
3336.863	4180
3338.609	4204
3340.353	4086
3342.1	4215
3343.845	4213
3345.588	4096
3347.332	4192
3349.074	4220
3350.817	4146
3352.56	4093
3354.303	4134
3356.043	4172
3357.785	4213
3359.525	4211
3361.268	4197
3363.007	4146
3364.745	4122
3366.485	4142
3368.223	4165
3369.962	4051
3371.701	4105
3373.438	4042
3375.174	4087
3376.911	4077
3378.647	4012
3380.384	4141
3382.118	4122
3383.854	4040
3385.588	4112
3387.322	4077
3389.057	4090
3390.79	4211
3392.522	4102
3394.255	4053
3395.987	4149
3397.719	4013
3399.451	4178
3401.181	4081
3402.911	4050
3404.641	4131
3406.371	3995
3408.101	4083
3409.83	4134
3411.558	4106
3413.285	4143
3415.011	4021
3416.739	4032
3418.467	4004
3420.193	4056
3421.919	4032
3423.644	4043
3425.368	3972
3427.094	4067
3428.818	3977
3430.542	4097
3432.264	4014
3433.987	3967
3435.712	3989
3437.434	4069
3439.155	4029
3440.876	4068
3442.596	3925
3444.317	4045
3446.039	3998
3447.757	3950
3449.477	3965
3451.195	3955
3452.914	4028
3454.632	3955
3456.35	3988
3458.067	3906
3459.784	3923
3461.5	3928
3463.216	3830
3464.932	3890
3466.647	3988
3468.362	3945
3470.076	3969
3471.789	3910
3473.505	3893
3475.217	3849
3476.929	3945
3478.641	3910
3480.354	3893
3482.066	3903
3483.777	3836
3485.487	3853
3487.197	3985
3488.908	3898
3490.617	3938
3492.327	3834
3494.035	3925
3495.743	3867
3497.451	3941
3499.158	3797
3500.866	3885
3502.572	3883
3504.278	3826
3505.984	3857
3507.689	3818
3509.396	3877
3511.1	3856
3512.804	3884
3514.508	3827
3516.211	3692
3517.913	3826
3519.616	3808
3521.319	3824
3523.021	3809
3524.722	3746
3526.422	3921
3528.124	3784
3529.824	3845
3531.524	3849
3533.222	3817
3534.921	3852
3536.62	3897
3538.318	3742
3540.016	3854
3541.714	3797
3543.41	3875
3545.107	3833
3546.803	3824
3548.5	3873
3550.194	3721
3551.889	3815
3553.583	3832
3555.279	3754
3556.972	3800
3558.666	3798
3560.358	3762
3562.051	3716
3563.742	3812
3565.435	3837
3567.126	3783
3568.817	3726
3570.507	3818
3572.197	3688
3573.888	3687
3575.577	3725
3577.265	3718
3578.954	3629
3580.642	3610
3582.329	3758
3584.017	3728
3585.704	3720
3587.391	3692
3589.077	3797
3590.762	3741
3592.449	3697
3594.133	3752
3595.817	3727
3597.501	3729
3599.185	3699
3600.869	3710
3602.552	3691
3604.234	3694
3605.916	3696
3607.598	3666
3609.279	3686
3610.961	3681
3612.642	3731
3614.321	3676
3616	3704
3617.68	3643
3619.36	3689
3621.039	3633
3622.716	3690
3624.394	3676
3626.071	3644
3627.748	3735
3629.425	3660
3631.102	3602
3632.778	3599
3634.452	3602
3636.127	3571
3637.803	3568
3639.477	3626
3641.151	3640
3642.823	3588
3644.497	3659
3646.171	3603
3647.842	3649
3649.515	3592
3651.185	3602
3652.857	3605
3654.527	3620
3656.198	3629
3657.868	3643
3659.537	3641
3661.207	3587
3662.875	3557
3664.544	3639
3666.212	3577
3667.879	3568
3669.546	3558
3671.212	3624
3672.88	3476
3674.546	3536
3676.211	3532
3677.875	3568
3679.541	3550
3681.205	3564
3682.87	3497
3684.533	3511
3686.196	3466
3687.859	3570
3689.521	3499
3691.184	3527
3692.845	3558
3694.507	3539
3696.167	3507
3697.827	3473
3699.487	3567
3701.148	3542
3702.808	3583
3704.466	3489
3706.125	3509
3707.783	3579
3709.442	3455
3711.099	3552
3712.757	3568
3714.412	3552
3716.068	3545
3717.725	3541
3719.381	3439
3721.036	3581
3722.689	3488
3724.344	3512
3725.998	3503
3727.652	3445
3729.305	3512
3730.958	3466
3732.61	3549
3734.262	3443
3735.915	3586
3737.565	3432
3739.217	3534
3740.866	3428
3742.516	3518
3744.165	3492
3745.816	3548
3747.464	3436
3749.113	3500
3750.761	3537
3752.409	3474
3754.057	3537
3755.703	3499
3757.35	3466
3758.996	3476
3760.641	3467
3762.289	3477
3763.933	3441
3765.577	3342
3767.222	3436
3768.865	3422
3770.508	3501
3772.152	3452
3773.796	3456
3775.438	3422
3777.079	3479
3778.721	3385
3780.363	3382
3782.003	3387
3783.643	3387
3785.283	3372
3786.923	3459
3788.563	3386
3790.203	3394
3791.841	3382
3793.479	3450
3795.115	3479
3796.753	3280
3798.391	3378
3800.027	3370
3801.664	3396
3803.299	3362
3804.935	3325
3806.571	3311
3808.206	3326
3809.839	3340
3811.473	3342
3813.107	3384
3814.74	3347
3816.375	3403
3818.006	3352
3819.638	3362
3821.27	3304
3822.9	3304
3824.532	3286
3826.163	3367
3827.792	3334
3829.423	3284
3831.051	3299
3832.682	3439
3834.311	3388
3835.938	3289
3837.566	3225
3839.193	3344
3840.821	3282
3842.448	3292
3844.075	3392
3845.7	3359
3847.325	3345
3848.951	3355
3850.576	3237
3852.201	3263
3853.825	3305
3855.448	3335
3857.072	3298
3858.694	3298
3860.318	3307
3861.939	3243
3863.562	3295
3865.183	3287
3866.804	3227
3868.426	3295
3870.045	3270
3871.666	3297
3873.285	3233
3874.904	3221
3876.524	3197
3878.142	3246
3879.76	3280
3881.378	3312
3882.995	3268
3884.612	3220
3886.229	3279
3887.845	3244
3889.461	3216
3891.076	3276
3892.691	3210
3894.307	3304
3895.922	3171
3897.536	3303
3899.149	3241
3900.761	3239
3902.374	3204
3903.988	3212
3905.6	3282
3907.212	3183
3908.822	3123
3910.433	3274
3912.045	3291
3913.655	3181
3915.265	3240
3916.875	3255
3918.483	3203
3920.093	3162
3921.702	3237
3923.309	3220
3924.917	3183
3926.523	3238
3928.13	3270
3929.739	3225
3931.344	3247
3932.95	3219
3934.555	3195
3936.159	3213
3937.766	3191
3939.369	3188
3940.974	3191
3942.577	3216
3944.181	3156
3945.783	3242
3947.386	3163
3948.989	3221
3950.59	3161
3952.191	3149
3953.791	3223
3955.394	3179
3956.994	3172
3958.593	3134
3960.192	3084
3961.791	3102
3963.392	3157
3964.99	3152
3966.588	3167
3968.185	3146
3969.782	3220
3971.379	3182
3972.976	3104
3974.572	3109
3976.168	3136
3977.763	3129
3979.358	3131
3980.954	3119
3982.548	3073
3984.142	3175
3985.736	3134
3987.329	3126
3988.922	3079
3990.516	3090
3992.108	3108
3993.698	3129
3995.29	3017
3996.881	3159
3998.473	3081
4000.064	3097
4001.653	3004
4003.242	3038
4004.832	3087
4006.422	3141
4008.01	2977
4009.598	3114
4011.186	3049
4012.773	3023
4014.36	3076
4015.947	3033
4017.534	3020
4019.119	2993
4020.705	3068
4022.291	2977
4023.876	3050
4025.461	2963
4027.044	3020
4028.627	3010
4030.211	3066
4031.795	3020
4033.378	2974
4034.96	3104
4036.542	2959
4038.124	2953
4039.704	3092
4041.286	3071
4042.867	2981
4044.447	2934
4046.026	3014
4047.606	2971
4049.187	2967
4050.765	3019
4052.343	3052
4053.92	3030
4055.498	2958
4057.076	2994
4058.654	3002
4060.23	2998
4061.806	2962
4063.381	2891
4064.957	2986
4066.533	3048
4068.107	2977
4069.682	3002
4071.256	3001
4072.829	2976
4074.404	2973
4075.977	2967
4077.549	2895
4079.121	2973
4080.693	2955
4082.265	2958
4083.836	2934
4085.407	2926
4086.977	2861
4088.547	2943
4090.117	2959
4091.687	3001
4093.256	2910
4094.825	2945
4096.392	2964
4097.96	3000
4099.528	2935
4101.097	2961
4102.663	2882
4104.229	2874
4105.795	2866
4107.361	2893
4108.928	2916
4110.493	2947
4112.058	2973
4113.621	2909
4115.186	2911
4116.75	2940
4118.313	2817
4119.876	2943
4121.438	2923
4123	2852
4124.562	2871
4126.125	2879
4127.686	2872
4129.246	2876
4130.807	2863
4132.367	2878
4133.927	2807
4135.486	2822
4137.046	2890
4138.604	2877
4140.162	2792
4141.72	2800
4143.279	2895
4144.836	2832
4146.393	2821
4147.949	2885
4149.505	2857
4151.062	2805
4152.617	2868
4154.172	2843
4155.727	2780
4157.281	2775
4158.836	2845
4160.39	2812
4161.943	2764
4163.496	2839
4165.048	2760
4166.601	2815
4168.154	2822
4169.706	2780
4171.257	2749
4172.808	2806
4174.358	2818
4175.909	2784
4177.458	2840
4179.008	2717
4180.558	2733
4182.106	2738
4183.655	2729
4185.204	2764
4186.751	2765
4188.298	2715
4189.845	2704
4191.392	2690
4192.939	2756
4194.485	2741
4196.031	2806
4197.576	2655
4199.121	2675
4200.666	2736
4202.211	2744
4203.754	2768
4205.298	2700
4206.84	2760
4208.384	2707
4209.927	2747
4211.47	2725
4213.011	2694
4214.552	2699
4216.094	2761
4217.635	2729
4219.175	2799
4220.716	2723
4222.255	2711
4223.793	2662
4225.335	2733
4226.873	2719
4228.411	2659
4229.948	2734
4231.486	2707
4233.024	2689
4234.562	2655
4236.098	2636
4237.634	2694
4239.169	2695
4240.705	2693
4242.241	2674
4243.776	2633
4245.31	2600
4246.844	2605
4248.378	2573
4249.911	2696
4251.445	2638
4252.978	2733
4254.51	2663
4256.042	2632
4257.574	2642
4259.107	2636
4260.638	2665
4262.169	2668
4263.699	2645
4265.228	2674
4266.759	2652
4268.289	2661
4269.818	2649
4271.345	2596
4272.874	2604
4274.402	2684
4275.931	2644
4277.458	2605
4278.985	2633
4280.512	2668
4282.037	2654
4283.564	2589
4285.089	2613
4286.615	2668
4288.139	2598
4289.664	2628
4291.187	2639
4292.712	2599
4294.235	2574
4295.759	2604
4297.281	2625
4298.804	2580
4300.327	2590
4301.849	2545
4303.37	2633
4304.891	2570
4306.412	2626
4307.933	2604
4309.453	2519
4310.973	2611
4312.492	2666
