398.1873	10290
400.7097	10285
403.2336	10308
405.7547	10497
408.2751	10466
410.7948	10529
413.3138	10615
415.83	10417
418.3497	10632
420.8666	10634
423.3829	10556
425.8985	10756
428.4133	10654
430.9275	10781
433.441	10881
435.9538	11019
438.4639	10802
440.9753	10896
443.4881	10959
445.9982	10774
448.5055	10889
451.0142	11055
453.5201	10936
456.0274	11013
458.5361	11136
461.04	11136
463.5453	11084
466.0478	11117
468.5517	11171
471.0549	11103
473.5574	11263
476.0572	11277
478.5584	11227
481.0568	11280
483.5545	11378
486.0557	11294
488.5521	11232
491.0478	11515
493.5449	11419
496.0392	11474
498.5349	11527
501.0299	11468
503.5222	11492
506.0139	11472
508.5048	11786
510.9991	11576
513.4887	11576
515.9777	11657
518.4659	11835
520.9534	11551
523.4403	11769
525.9306	11621
528.4161	11725
530.9009	11788
533.3851	11574
535.8687	11672
538.3535	11671
540.8356	11674
543.3171	11524
545.7979	11781
548.278	11716
550.7595	11703
553.2383	11691
555.7144	11659
558.1918	11709
560.6685	11907
563.1446	11864
565.6221	11951
568.0968	11956
570.5688	12001
573.0422	12021
575.515	11903
577.989	11940
580.4584	12013
582.9291	12157
585.3991	12122
587.8685	12143
590.3352	12224
592.8052	11896
595.2706	12096
597.7372	12007
600.2033	12098
602.6666	11965
605.1334	12132
607.5953	12056
610.0587	12184
612.5193	12186
614.9814	12162
617.4427	12043
619.9034	12059
622.3615	12202
624.8208	12261
627.2775	12044
629.7335	12203
632.1929	12136
634.6476	12064
637.1016	12170
639.5569	12197
642.0096	12160
644.4637	12242
646.9151	12381
649.3678	12322
651.8179	12246
654.2672	12282
656.7159	12289
659.166	12421
661.6154	12422
664.0622	12464
666.5082	12543
668.9537	12472
671.4005	12372
673.8445	12477
676.288	12520
678.7308	12750
681.1729	12652
683.6163	12601
686.0572	12711
688.4973	12654
690.9368	12532
693.3757	12678
695.8138	12722
698.2534	12653
700.6902	12771
703.1245	12798
705.56	12666
707.9949	12789
710.4311	12796
712.8647	12832
715.2957	12743
717.7279	12864
720.1595	12886
722.5905	13002
725.0208	12913
727.4505	12954
729.8795	12991
732.3058	13239
734.7336	13104
737.1626	13125
739.587	13220
742.0128	13145
744.4359	13506
746.8604	13403
749.2841	13412
751.7073	13495
754.1278	13453
756.5496	13437
758.9688	13354
761.3893	13462
763.8093	13477
766.2285	13592
768.6451	13571
771.0611	13530
773.4784	13566
775.895	13583
778.3091	13545
780.7244	13590
783.1371	13651
785.5493	13602
787.9626	13652
790.3754	13568
792.7856	13517
795.1951	13736
797.6039	13641
800.0121	13658
802.4236	13715
804.8306	13728
807.2369	13578
809.6425	13706
812.0475	13598
814.4538	13507
816.8575	13744
819.2606	13745
821.663	13824
824.0648	13869
826.4659	13771
828.8683	13698
831.2682	13596
833.6674	14022
836.066	13710
838.4639	13729
840.8632	14025
843.2579	13795
845.6539	13760
848.0493	13852
850.444	13851
852.84	13901
855.2315	13837
857.6243	13945
860.0165	13953
862.4081	13859
864.797	13748
867.1892	13813
869.5789	13679
871.9659	13887
874.3542	13934
876.74	13787
879.129	13922
881.5155	13955
883.8994	13873
886.2845	13905
888.6671	13858
891.051	13949
893.4343	13700
895.8169	13992
898.197	13805
900.5783	13952
902.9571	13962
905.3372	13898
907.7167	14148
910.0936	13995
912.4698	13970
914.8474	14141
917.2244	14102
919.5987	14038
921.9744	14283
924.3475	14135
926.72	14339
929.0918	14304
931.4669	14296
933.8375	14457
936.2074	14431
938.5767	14362
940.9454	14456
943.3154	14472
945.6829	14828
948.0497	14863
950.4178	14954
952.7833	15218
955.1483	15383
957.5145	15529
959.8782	15600
962.2412	15710
964.6036	15493
966.9655	15271
969.3266	14937
971.6871	14864
974.0471	14637
976.4064	14453
978.765	14263
981.125	14485
983.4824	14306
985.8373	14329
988.1935	14448
990.549	14354
992.9039	14361
995.2602	14243
997.6119	14441
999.965	14384
1002.317	14160
1004.667	14321
1007.02	14374
1009.371	14247
1011.719	14330
1014.068	14527
1016.415	14330
1018.765	14351
1021.111	14495
1023.458	14589
1025.804	14424
1028.147	14275
1030.49	14346
1032.837	14551
1035.179	14494
1037.522	14622
1039.862	14680
1042.204	14460
1044.546	14575
1046.884	14714
1049.224	14491
1051.562	14544
1053.899	14583
1056.237	14585
1058.575	14545
1060.91	14504
1063.244	14846
1065.58	14593
1067.913	14536
1070.248	14809
1072.579	14996
1074.911	14539
1077.242	14523
1079.572	14782
1081.905	14770
1084.234	14737
1086.562	14560
1088.89	14752
1091.217	14564
1093.544	14915
1095.871	14714
1098.197	14742
1100.521	14720
1102.845	14665
1105.169	14760
1107.491	14797
1109.814	14745
1112.135	14600
1114.456	14908
1116.776	14832
1119.096	14758
1121.415	14864
1123.734	14933
1126.052	14906
1128.369	14846
1130.686	14733
1133.002	14709
1135.318	14894
1137.632	14761
1139.945	14826
1142.258	14856
1144.573	14945
1146.884	14876
1149.196	14934
1151.505	14933
1153.816	14890
1156.124	14881
1158.435	14951
1160.742	14808
1163.051	14906
1165.356	14922
1167.663	14893
1169.97	15018
1172.276	14832
1174.579	14867
1176.881	14896
1179.186	14775
1181.487	15074
1183.79	14835
1186.092	14844
1188.392	14767
1190.691	14885
1192.991	14785
1195.291	14646
1197.588	14962
1199.885	14921
1202.181	14732
1204.479	14913
1206.775	14864
1209.07	14834
1211.363	14893
1213.656	14856
1215.949	14961
1218.241	15011
1220.534	14961
1222.825	14810
1225.115	15001
1227.405	14955
1229.693	15118
1231.984	15058
1234.271	15091
1236.558	15063
1238.845	15240
1241.131	15367
1243.416	15298
1245.703	15440
1247.987	15179
1250.269	15330
1252.552	15218
1254.834	15399
1257.118	15345
1259.399	15356
1261.678	15274
1263.958	15204
1266.237	15278
1268.516	15225
1270.794	15185
1273.072	15425
1275.347	15235
1277.624	15400
1279.899	15465
1282.175	15326
1284.449	15231
1286.722	15340
1288.995	15166
1291.266	15170
1293.54	15121
1295.81	15208
1298.081	15192
1300.35	15278
1302.62	15215
1304.889	15234
1307.156	15149
1309.425	15229
1311.69	15216
1313.957	15184
1316.222	14972
1318.488	15313
1320.751	15188
1323.016	15303
1325.278	15164
1327.54	15217
1329.803	15210
1332.065	15180
1334.325	15149
1336.584	15140
1338.843	15250
1341.101	15079
1343.36	15227
1345.617	15279
1347.876	15465
1350.131	15188
1352.387	15309
1354.643	15282
1356.897	15272
1359.151	15303
1361.403	15410
1363.656	15245
1365.909	15432
1368.16	15385
1370.409	15318
1372.659	15229
1374.909	15403
1377.157	15298
1379.407	15411
1381.655	15210
1383.9	15279
1386.147	15278
1388.393	15339
1390.64	15474
1392.885	15529
1395.127	15446
1397.37	15458
1399.614	15391
1401.854	15432
1404.098	15501
1406.339	15313
1408.578	15527
1410.818	15509
1413.056	15481
1415.297	15520
1417.533	15695
1419.771	15378
1422.006	15568
1424.243	15550
1426.479	15586
1428.715	15559
1430.948	15801
1433.182	15776
1435.414	15777
1437.647	15585
1439.88	15773
1442.11	15907
1444.342	15796
1446.571	15711
1448.799	15796
1451.029	15846
1453.258	15886
1455.485	15793
1457.711	15760
1459.937	15790
1462.164	15605
1464.39	15876
1466.614	15680
1468.838	15800
1471.06	15636
1473.283	15746
1475.506	15648
1477.727	15722
1479.949	15566
1482.169	15622
1484.389	15704
1486.609	15653
1488.828	15471
1491.045	15557
1493.261	15482
1495.477	15630
1497.693	15475
1499.91	15726
1502.125	15372
1504.339	15460
1506.553	15502
1508.766	15350
1510.979	15315
1513.191	15646
1515.402	15633
1517.613	15262
1519.823	15428
1522.033	15440
1524.242	15325
1526.451	15543
1528.657	15381
1530.865	15569
1533.072	15396
1535.278	15299
1537.484	15618
1539.687	15716
1541.892	15536
1544.096	15456
1546.299	15689
1548.502	15574
1550.703	15659
1552.905	15571
1555.104	15641
1557.303	15626
1559.505	15833
1561.703	15480
1563.902	15517
1566.099	15910
1568.295	15837
1570.494	15741
1572.689	15821
1574.883	15918
1577.079	15801
1579.272	15843
1581.467	15816
1583.659	15749
1585.853	15782
1588.044	15921
1590.234	15874
1592.424	15878
1594.615	16047
1596.806	15979
1598.994	15968
1601.182	15839
1603.369	16000
1605.557	15826
1607.744	16178
1609.929	16088
1612.114	16042
1614.298	16139
1616.482	15961
1618.667	15952
1620.85	15990
1623.032	15957
1625.214	15987
1627.395	16146
1629.575	16070
1631.755	16067
1633.935	16151
1636.114	16133
1638.292	16154
1640.471	16008
1642.647	16132
1644.823	16102
1647	16118
1649.175	15996
1651.348	16207
1653.525	16156
1655.698	16021
1657.87	16143
1660.043	15978
1662.213	16384
1664.387	15974
1666.558	16046
1668.727	16121
1670.896	16030
1673.064	16189
1675.233	16175
1677.401	16099
1679.569	15998
1681.735	15999
1683.902	16142
1686.066	15929
1688.233	16030
1690.397	16069
1692.559	15997
1694.723	16082
1696.885	16186
1699.048	15977
1701.21	16134
1703.37	15868
1705.53	16070
1707.689	16026
1709.849	15914
1712.009	16111
1714.166	16029
1716.323	15933
1718.479	15963
1720.634	15976
1722.793	16143
1724.948	15977
1727.102	15964
1729.255	16039
1731.408	16055
1733.562	16255
1735.714	16017
1737.865	15930
1740.016	16105
1742.166	15931
1744.316	15970
1746.467	16183
1748.616	16222
1750.764	16078
1752.911	16098
1755.056	16119
1757.205	16161
1759.35	16006
1761.496	16049
1763.641	16267
1765.785	16057
1767.927	16180
1770.072	15997
1772.214	16156
1774.355	16164
1776.496	16156
1778.637	16138
1780.778	16197
1782.918	16203
1785.057	16315
1787.194	16015
1789.333	16146
1791.472	16045
1793.608	16161
1795.745	16263
1797.879	16067
1800.015	16386
1802.148	16306
1804.284	16268
1806.417	16154
1808.548	16210
1810.682	16190
1812.812	16176
1814.946	15970
1817.075	16316
1819.205	16068
1821.335	16097
1823.463	16291
1825.59	16080
1827.721	16212
1829.847	16016
1831.973	16254
1834.098	16094
1836.223	16219
1838.351	16266
1840.475	15952
1842.598	16104
1844.721	16235
1846.843	16061
1848.966	15891
1851.087	15950
1853.21	16134
1855.33	15899
1857.449	15951
1859.568	15984
1861.688	15983
1863.806	15908
1865.924	16137
1868.039	16110
1870.155	15966
1872.273	16130
1874.388	15979
1876.503	16034
1878.617	16091
1880.73	16045
1882.844	16068
1884.956	16105
1887.068	16090
1889.18	16133
1891.291	16096
1893.4	16024
1895.511	16109
1897.621	16068
1899.73	16130
1901.837	16244
1903.944	16292
1906.053	16103
1908.159	16187
1910.265	16178
1912.369	16303
1914.474	16216
1916.577	16201
1918.683	16078
1920.785	16308
1922.888	16330
1924.989	16416
1927.091	16415
1929.193	16269
1931.294	16368
1933.393	16258
1935.493	16260
1937.59	16519
1939.689	16429
1941.788	16321
1943.884	16176
1945.98	16411
1948.077	16406
1950.171	16345
1952.267	16364
1954.361	16365
1956.455	16254
1958.548	16218
1960.64	16147
1962.733	16540
1964.824	16329
1966.915	16307
1969.005	16260
1971.096	16350
1973.185	16499
1975.275	16328
1977.363	16413
1979.45	16078
1981.537	16207
1983.623	16197
1985.711	16285
1987.796	16059
1989.881	16215
1991.965	16369
1994.047	16189
1996.132	16198
1998.215	16082
2000.297	16068
2002.378	16077
2004.46	16016
2006.54	16147
2008.62	16236
2010.7	16105
2012.779	16085
2014.858	15971
2016.934	16090
2019.013	16068
2021.09	15930
2023.165	16060
2025.241	16096
2027.317	16195
2029.39	16080
2031.466	16035
2033.538	16030
2035.612	16109
2037.683	16237
2039.755	16035
2041.827	16031
2043.898	16038
2045.968	16093
2048.038	16119
2050.106	16141
2052.177	16203
2054.244	15953
2056.313	16168
2058.379	16266
2060.444	15912
2062.511	16046
2064.577	16133
2066.641	16079
2068.705	16220
2070.77	16210
2072.832	16125
2074.896	16318
2076.958	16298
2079.02	16175
2081.081	16142
2083.141	16260
2085.2	16151
2087.261	16184
2089.319	15970
2091.377	15850
2093.435	16195
2095.492	16278
2097.552	16074
2099.607	16086
2101.663	16164
2103.718	16190
2105.771	16124
2107.826	15950
2109.879	15923
2111.932	16117
2113.985	16130
2116.037	16124
2118.088	16398
2120.141	16126
2122.191	16001
2124.239	16125
2126.288	16115
2128.337	16225
2130.387	15849
2132.434	16074
2134.481	16108
2136.528	16116
2138.574	16046
2140.618	15979
2142.665	15981
2144.71	15980
2146.753	16003
2148.797	15911
2150.838	16037
2152.883	16008
2154.923	15824
2156.965	15881
2159.007	15945
2161.046	15918
2163.086	15876
2165.126	15980
2167.163	15839
2169.202	15806
2171.239	15906
2173.277	16103
2175.314	15947
2177.349	16009
2179.385	15920
2181.42	15873
2183.453	15963
2185.49	15629
2187.522	15751
2189.555	15853
2191.586	15830
2193.619	15803
2195.651	15533
2197.682	15652
2199.711	15719
2201.74	15693
2203.769	15805
2205.799	15636
2207.828	15673
2209.855	15527
2211.882	15397
2213.908	15575
2215.934	15623
2217.961	15603
2219.986	15581
2222.01	15559
2224.034	15444
2226.057	15397
2228.08	15578
2230.104	15508
2232.124	15696
2234.145	15680
2236.166	15393
2238.186	15584
2240.207	15514
2242.227	15587
2244.244	15705
2246.262	15518
2248.28	15731
2250.299	15672
2252.314	15705
2254.33	15649
2256.346	15615
2258.36	15668
2260.375	15595
2262.391	15715
2264.403	15538
2266.416	15551
2268.427	15559
2270.44	15649
2272.453	15647
2274.463	15675
2276.474	15569
2278.483	15721
2280.493	15771
2282.501	15584
2284.51	15590
2286.518	15656
2288.524	15522
2290.532	15661
2292.537	15506
2294.544	15473
2296.55	15724
2298.554	15508
2300.557	15667
2302.562	15595
2304.566	15452
2306.568	15545
2308.569	15545
2310.572	15629
2312.573	15542
2314.573	15516
2316.574	15515
2318.573	15247
2320.571	15422
2322.571	15568
2324.569	15536
2326.567	15428
2328.564	15411
2330.56	15374
2332.556	15513
2334.551	15449
2336.546	15653
2338.542	15361
2340.535	15317
2342.529	15228
2344.521	15302
2346.512	15352
2348.505	15310
2350.497	15441
2352.487	15199
2354.478	15290
2356.468	15309
2358.457	15406
2360.446	15249
2362.434	15248
2364.422	15265
2366.408	15210
2368.395	15325
2370.383	15038
2372.369	15213
2374.353	15426
2376.338	15308
2378.321	15198
2380.307	15142
2382.29	15214
2384.272	15168
2386.254	15214
2388.235	15084
2390.218	15118
2392.198	15085
2394.179	15219
2396.157	15106
2398.137	15224
2400.115	15020
2402.095	15086
2404.072	15174
2406.048	15016
2408.026	15022
2410.001	15101
2411.977	15015
2413.953	14979
2415.927	14993
2417.9	15098
2419.875	14913
2421.847	15127
2423.821	15248
2425.792	15012
2427.763	15047
2429.736	15076
2431.706	14890
2433.677	14966
2435.646	15111
2437.615	15058
2439.583	15023
2441.551	14972
2443.519	14968
2445.486	15015
2447.452	15049
2449.418	14840
2451.383	14925
2453.348	14893
2455.314	14916
2457.278	14893
2459.241	15025
2461.205	14943
2463.167	14936
2465.131	14896
2467.091	14901
2469.052	14827
2471.012	14907
2472.972	14922
2474.932	14819
2476.891	14910
2478.85	14945
2480.808	14599
2482.766	14904
2484.722	14936
2486.68	14835
2488.636	14860
2490.591	14730
2492.546	14906
2494.5	14758
2496.456	14782
2498.41	14930
2500.362	14802
2502.315	14738
2504.266	14835
2506.218	14640
2508.169	14702
2510.121	14585
2512.07	14817
2514.019	14683
2515.968	14812
2517.918	14598
2519.866	14775
2521.813	14600
2523.76	14754
2525.707	14585
2527.653	14901
2529.599	14470
2531.543	14745
2533.489	14635
2535.433	14774
2537.376	14624
2539.32	14772
2541.264	14621
2543.205	14687
2545.147	14789
2547.087	14714
2549.029	14521
2550.969	14531
2552.908	14700
2554.847	14726
2556.786	14604
2558.724	14599
2560.663	14556
2562.6	14781
2564.537	14778
2566.473	14739
2568.408	14597
2570.345	14678
2572.28	14664
2574.214	14401
2576.148	14610
2578.081	14825
2580.014	14432
2581.947	14768
2583.879	14962
2585.81	14767
2587.741	14799
2589.67	14631
2591.602	14541
2593.532	14683
2595.461	14655
2597.388	14702
2599.316	14702
2601.244	14626
2603.172	14835
2605.098	14644
2607.023	14582
2608.949	14743
2610.873	14599
2612.8	14848
2614.723	14674
2616.647	14744
2618.569	14709
2620.493	14645
2622.416	14759
2624.338	14625
2626.258	14655
2628.179	14608
2630.099	14862
2632.019	14729
2633.939	14717
2635.857	14693
2637.775	14766
2639.694	14800
2641.61	14622
2643.528	14725
2645.444	14681
2647.361	14660
2649.276	14409
2651.19	14708
2653.105	14685
2655.019	14730
2656.934	14642
2658.846	14816
2660.758	14723
2662.67	14577
2664.583	14686
2666.493	14619
2668.404	14658
2670.313	14609
2672.223	14614
2674.134	14551
2676.042	14490
2677.95	14787
2679.858	14458
2681.765	14766
2683.673	14443
2685.579	14575
2687.483	14542
2689.389	14614
2691.294	14529
2693.198	14551
2695.104	14579
2697.006	14382
2698.909	14415
2700.811	14608
2702.713	14432
2704.615	14599
2706.516	14499
2708.417	14529
2710.316	14421
2712.216	14111
2714.115	14273
2716.014	14353
2717.913	14385
2719.81	14444
2721.707	14202
2723.603	14487
2725.501	14308
2727.396	14360
2729.292	14355
2731.186	14432
2733.081	14395
2734.976	14418
2736.87	14306
2738.762	14155
2740.653	14294
2742.546	14370
2744.437	14202
2746.329	14358
2748.22	14222
2750.11	14294
2751.999	14206
2753.889	14346
2755.778	14320
2757.666	14163
2759.553	14436
2761.44	14219
2763.328	14321
2765.215	14338
2767.101	14106
2768.986	14273
2770.87	14107
2772.754	14176
2774.638	14230
2776.523	14113
2778.405	14161
2780.288	14009
2782.17	14190
2784.051	14006
2785.934	14264
2787.814	14042
2789.694	14142
2791.574	14162
2793.453	13926
2795.332	14036
2797.212	14238
2799.088	13969
2800.966	14050
2802.843	14031
2804.719	14233
2806.597	14102
2808.471	14151
2810.346	14183
2812.221	14037
2814.094	14187
2815.969	13994
2817.843	13787
2819.714	14057
2821.587	14095
2823.459	14072
2825.329	13774
2827.202	13993
2829.072	14026
2830.942	14055
2832.811	13985
2834.68	14035
2836.549	14106
2838.418	13787
2840.284	14018
2842.152	13981
2844.018	14017
2845.885	13983
2847.751	13941
2849.616	13926
2851.482	13983
2853.345	13992
2855.208	13979
2857.074	14064
2858.937	13862
2860.799	14053
2862.66	14145
2864.522	14132
2866.385	13970
2868.245	13976
2870.104	14152
2871.964	14208
2873.824	14140
2875.683	14064
2877.542	14324
2879.4	14295
2881.257	14240
2883.114	14269
2884.97	14337
2886.827	14180
2888.683	14238
2890.537	14325
2892.392	14226
2894.246	14185
2896.1	14227
2897.954	14247
2899.807	14342
2901.66	14263
2903.51	14177
2905.362	14357
2907.214	14276
2909.065	14215
2910.915	14236
2912.765	14228
2914.613	14241
2916.463	14212
2918.311	14397
2920.158	14423
2922.006	14334
2923.853	14508
2925.698	14569
2927.546	14496
2929.392	14541
2931.236	14708
2933.081	14664
2934.924	14609
2936.77	14605
2938.613	14549
2940.455	14911
2942.298	14651
2944.139	14793
2945.982	14787
2947.823	14737
2949.662	14817
2951.503	14759
2953.342	14531
2955.182	14601
2957.021	14574
2958.858	14402
2960.697	14398
2962.534	14470
2964.37	14499
2966.207	14104
2968.044	14123
2969.879	14145
2971.714	14061
2973.548	14185
2975.383	14225
2977.218	14131
2979.051	14179
2980.883	13872
2982.715	13901
2984.547	14056
2986.379	13972
2988.21	14004
2990.04	13937
2991.87	13641
2993.7	13903
2995.53	13868
2997.359	13925
2999.187	13860
3001.015	13765
3002.842	13743
3004.669	13543
3006.497	13587
3008.323	13438
3010.148	13469
3011.974	13416
3013.797	13585
3015.623	13398
3017.447	13288
3019.27	13180
3021.094	13551
3022.915	13452
3024.737	13447
3026.56	13111
3028.38	13266
3030.201	13217
3032.022	13252
3033.84	13192
3035.662	13189
3037.481	13123
3039.298	13146
3041.117	13266
3042.933	13254
3044.752	13079
3046.568	13182
3048.385	12984
3050.2	12951
3052.016	13131
3053.83	12968
3055.646	13315
3057.46	13091
3059.272	13192
3061.086	13093
3062.898	13017
3064.711	12952
3066.524	13275
3068.335	13109
3070.145	13110
3071.956	12903
3073.766	12932
3075.576	12999
3077.385	12988
3079.193	12767
3081.002	12999
3082.81	12977
3084.618	13110
3086.425	12759
3088.231	12910
3090.036	12872
3091.842	12934
3093.648	12834
3095.452	12709
3097.257	12796
3099.06	12602
3100.863	12709
3102.666	12770
3104.47	12780
3106.272	12857
3108.073	12686
3109.875	12681
3111.676	12713
3113.477	12856
3115.277	12520
3117.077	12756
3118.874	12715
3120.673	12490
3122.473	12538
3124.271	12500
3126.066	12687
3127.863	12522
3129.66	12511
3131.456	12499
3133.252	12604
3135.047	12532
3136.842	12560
3138.635	12428
3140.429	12474
3142.223	12597
3144.016	12409
3145.808	12483
3147.6	12411
3149.392	12383
3151.183	12430
3152.975	12369
3154.765	12351
3156.553	12454
3158.344	12481
3160.132	12154
3161.922	12314
3163.71	12280
3165.497	12440
3167.285	12359
3169.071	12259
3170.858	12093
3172.645	12300
3174.429	12338
3176.214	12287
3177.998	12206
3179.783	12226
3181.568	12272
3183.351	12063
3185.133	12242
3186.915	12365
3188.698	11999
3190.481	12294
3192.261	12096
3194.042	12201
3195.822	12079
3197.601	12199
3199.381	12171
3201.161	12129
3202.939	12138
3204.717	12143
3206.495	12116
3208.272	12247
3210.05	12146
3211.826	11940
3213.602	12061
3215.376	12099
3217.151	12180
3218.927	11938
3220.702	11921
3222.476	12078
3224.249	12019
3226.021	11998
3227.793	12050
3229.567	11955
3231.339	11950
3233.109	12033
3234.88	12021
3236.651	11981
3238.421	12023
3240.191	11939
3241.96	12205
3243.728	12051
3245.497	11888
3247.263	11901
3249.033	11890
3250.799	11850
3252.566	11973
3254.331	11974
3256.097	11801
3257.863	11921
3259.628	11916
3261.392	11985
3263.156	11993
3264.919	11909
3266.683	11914
3268.447	11812
3270.208	11888
3271.969	11846
3273.731	11849
3275.492	11858
3277.253	11894
3279.013	11843
3280.773	11835
3282.532	11880
3284.291	11695
3286.05	11900
3287.808	11899
3289.566	11907
3291.323	11847
3293.079	11893
3294.835	11770
3296.593	11932
3298.348	11764
3300.102	11924
3301.857	11701
3303.611	11857
3305.366	11869
3307.119	11804
3308.872	11811
3310.624	11760
3312.376	11720
3314.129	11716
3315.881	11813
3317.631	11810
3319.38	11824
3321.13	11640
3322.88	11730
3324.631	11685
3326.379	11666
3328.126	11817
3329.875	11751
3331.622	11786
3333.371	11731
3335.116	11507
3336.863	11579
3338.609	11896
3340.353	11728
3342.1	11655
3343.845	11566
3345.588	11653
3347.332	11661
3349.074	11635
3350.817	11761
3352.56	11588
3354.303	11567
3356.043	11653
3357.785	11572
3359.525	11597
3361.268	11467
3363.007	11744
3364.745	11505
3366.485	11589
3368.223	11603
3369.962	11546
3371.701	11612
3373.438	11300
3375.174	11638
3376.911	11491
3378.647	11403
3380.384	11474
3382.118	11417
3383.854	11405
3385.588	11555
3387.322	11402
3389.057	11434
3390.79	11430
3392.522	11373
3394.255	11456
3395.987	11366
3397.719	11400
3399.451	11228
3401.181	11317
3402.911	11460
3404.641	11327
3406.371	11314
3408.101	11384
3409.83	11410
3411.558	11272
3413.285	11316
3415.011	11397
3416.739	11435
3418.467	11479
3420.193	11277
3421.919	11170
3423.644	11368
3425.368	11176
3427.094	11168
3428.818	11143
3430.542	11192
3432.264	11148
3433.987	11291
3435.712	11114
3437.434	11230
3439.155	11126
3440.876	11280
3442.596	11029
3444.317	11088
3446.039	11101
3447.757	11169
3449.477	10975
3451.195	11195
3452.914	11045
3454.632	10937
3456.35	11006
3458.067	11068
3459.784	10922
3461.5	11056
3463.216	11096
3464.932	10891
3466.647	10918
3468.362	10937
3470.076	11079
3471.789	10829
3473.505	10950
3475.217	10764
3476.929	10930
3478.641	10770
3480.354	10784
3482.066	10841
3483.777	10771
3485.487	10748
3487.197	10986
3488.908	10853
3490.617	10835
3492.327	10681
3494.035	10705
3495.743	10789
3497.451	10661
3499.158	10622
3500.866	10774
3502.572	10705
3504.278	10699
3505.984	10827
3507.689	10852
3509.396	10698
3511.1	10754
3512.804	10625
3514.508	10609
3516.211	10524
3517.913	10832
3519.616	10604
3521.319	10739
3523.021	10613
3524.722	10472
3526.422	10533
3528.124	10661
3529.824	10477
3531.524	10580
3533.222	10663
3534.921	10527
3536.62	10527
3538.318	10472
3540.016	10669
3541.714	10533
3543.41	10430
3545.107	10534
3546.803	10444
3548.5	10441
3550.194	10434
3551.889	10447
3553.583	10387
3555.279	10499
3556.972	10617
3558.666	10538
3560.358	10660
3562.051	10460
3563.742	10459
3565.435	10535
3567.126	10481
3568.817	10396
3570.507	10381
3572.197	10494
3573.888	10522
3575.577	10505
3577.265	10447
3578.954	10368
3580.642	10316
3582.329	10275
3584.017	10200
3585.704	10461
3587.391	10289
3589.077	10268
3590.762	10340
3592.449	10300
3594.133	10412
3595.817	10262
3597.501	10316
3599.185	10147
3600.869	10231
3602.552	10256
3604.234	10196
3605.916	10294
3607.598	10173
3609.279	10137
3610.961	10055
3612.642	10044
3614.321	10019
3616	10168
3617.68	10108
3619.36	10044
3621.039	9931
3622.716	10086
3624.394	9949
3626.071	9851
3627.748	9910
3629.425	10086
3631.102	9965
3632.778	9971
3634.452	10003
3636.127	10072
3637.803	10017
3639.477	9854
3641.151	9955
3642.823	10032
3644.497	9997
3646.171	9786
3647.842	9908
3649.515	10025
3651.185	9938
3652.857	10060
3654.527	9814
3656.198	9836
3657.868	9920
3659.537	9904
3661.207	9937
3662.875	9807
3664.544	9896
3666.212	9842
3667.879	9652
3669.546	9847
3671.212	9854
3672.88	9735
3674.546	9701
3676.211	9696
3677.875	9826
3679.541	9848
3681.205	9718
3682.87	9869
3684.533	9739
3686.196	9669
3687.859	9766
3689.521	9738
3691.184	9850
3692.845	9688
3694.507	9658
3696.167	9713
3697.827	9765
3699.487	9606
3701.148	9568
3702.808	9626
3704.466	9658
3706.125	9750
3707.783	9662
3709.442	9737
3711.099	9686
3712.757	9753
3714.412	9717
3716.068	9518
3717.725	9640
3719.381	9676
3721.036	9560
3722.689	9635
3724.344	9548
3725.998	9563
3727.652	9452
3729.305	9561
3730.958	9513
3732.61	9548
3734.262	9590
3735.915	9539
3737.565	9622
3739.217	9487
3740.866	9522
3742.516	9489
3744.165	9527
3745.816	9509
3747.464	9343
3749.113	9511
3750.761	9358
3752.409	9581
3754.057	9403
3755.703	9386
3757.35	9374
3758.996	9293
3760.641	9353
3762.289	9423
3763.933	9366
3765.577	9362
3767.222	9483
3768.865	9442
3770.508	9295
3772.152	9290
3773.796	9436
3775.438	9185
3777.079	9221
3778.721	9234
3780.363	9290
3782.003	9165
3783.643	9248
3785.283	9249
3786.923	9374
3788.563	9087
3790.203	9331
3791.841	9258
3793.479	9098
3795.115	9105
3796.753	9257
3798.391	9175
3800.027	8968
3801.664	9150
3803.299	9134
3804.935	9096
3806.571	9136
3808.206	8984
3809.839	9105
3811.473	9235
3813.107	8946
3814.74	9121
3816.375	9233
3818.006	9140
3819.638	8971
3821.27	9000
3822.9	8941
3824.532	9011
3826.163	9018
3827.792	9058
3829.423	8940
3831.051	9058
3832.682	8880
3834.311	9046
3835.938	8960
3837.566	8925
3839.193	9008
3840.821	8909
3842.448	8855
3844.075	8988
3845.7	9019
3847.325	8967
3848.951	8925
3850.576	8875
3852.201	8927
3853.825	8911
3855.448	8837
3857.072	8821
3858.694	8757
3860.318	8791
3861.939	8798
3863.562	8926
3865.183	8840
3866.804	8906
3868.426	8736
3870.045	8901
3871.666	8760
3873.285	8947
3874.904	8734
3876.524	8785
3878.142	8819
3879.76	8788
3881.378	8767
3882.995	8905
3884.612	8749
3886.229	8682
3887.845	8763
3889.461	8738
3891.076	8785
3892.691	8767
3894.307	8658
3895.922	8497
3897.536	8671
3899.149	8668
3900.761	8670
3902.374	8650
3903.988	8739
3905.6	8752
3907.212	8576
3908.822	8765
3910.433	8599
3912.045	8548
3913.655	8733
3915.265	8581
3916.875	8573
3918.483	8637
3920.093	8789
3921.702	8612
3923.309	8584
3924.917	8632
3926.523	8676
3928.13	8654
3929.739	8479
3931.344	8614
3932.95	8548
3934.555	8504
3936.159	8579
3937.766	8576
3939.369	8548
3940.974	8545
3942.577	8544
3944.181	8662
3945.783	8542
3947.386	8584
3948.989	8407
3950.59	8459
3952.191	8465
3953.791	8433
3955.394	8424
3956.994	8443
3958.593	8449
3960.192	8425
3961.791	8584
3963.392	8377
3964.99	8324
3966.588	8346
3968.185	8485
3969.782	8333
3971.379	8329
3972.976	8426
3974.572	8397
3976.168	8347
3977.763	8374
3979.358	8311
3980.954	8318
3982.548	8250
3984.142	8276
3985.736	8298
3987.329	8275
3988.922	8277
3990.516	8176
3992.108	8147
3993.698	8207
3995.29	8155
3996.881	8228
3998.473	8160
4000.064	8205
4001.653	8236
4003.242	8056
4004.832	8087
4006.422	8131
4008.01	8188
4009.598	8216
4011.186	7954
4012.773	8134
4014.36	8064
4015.947	8079
4017.534	8024
4019.119	8009
4020.705	7961
4022.291	7926
4023.876	7921
4025.461	8070
4027.044	7888
4028.627	8021
4030.211	8059
4031.795	7966
4033.378	7881
4034.96	7859
4036.542	8011
4038.124	7795
4039.704	7885
4041.286	7863
4042.867	7951
4044.447	7990
4046.026	7920
4047.606	7901
4049.187	7831
4050.765	7900
4052.343	7961
4053.92	7817
4055.498	7873
4057.076	7814
4058.654	7766
4060.23	7802
4061.806	7814
4063.381	7748
4064.957	7763
4066.533	7738
4068.107	7778
4069.682	7714
4071.256	7692
4072.829	7701
4074.404	7828
4075.977	7742
4077.549	7659
4079.121	7870
4080.693	7776
4082.265	7847
4083.836	7839
4085.407	7660
4086.977	7691
4088.547	7643
4090.117	7621
4091.687	7566
4093.256	7676
4094.825	7627
4096.392	7599
4097.96	7602
4099.528	7722
4101.097	7601
4102.663	7729
4104.229	7671
4105.795	7578
4107.361	7587
4108.928	7566
4110.493	7555
4112.058	7547
4113.621	7519
4115.186	7628
4116.75	7498
4118.313	7585
4119.876	7461
4121.438	7605
4123	7466
4124.562	7611
4126.125	7378
4127.686	7429
4129.246	7327
4130.807	7490
4132.367	7468
4133.927	7497
4135.486	7427
4137.046	7317
4138.604	7486
4140.162	7315
4141.72	7381
4143.279	7299
4144.836	7444
4146.393	7444
4147.949	7284
4149.505	7395
4151.062	7272
4152.617	7299
4154.172	7219
4155.727	7319
4157.281	7342
4158.836	7242
4160.39	7301
4161.943	7258
4163.496	7228
4165.048	7243
4166.601	7323
4168.154	7182
4169.706	7222
4171.257	7255
4172.808	7170
4174.358	7140
4175.909	7272
4177.458	7174
4179.008	7206
4180.558	7201
4182.106	7206
4183.655	7027
4185.204	7125
4186.751	7139
4188.298	7181
4189.845	7069
4191.392	6970
4192.939	7217
4194.485	7013
4196.031	7022
4197.576	6943
4199.121	7130
4200.666	7134
4202.211	6931
4203.754	6906
4205.298	6876
4206.84	7015
4208.384	7084
4209.927	6942
4211.47	6987
4213.011	6993
4214.552	6904
4216.094	7110
4217.635	6967
4219.175	6999
4220.716	7100
4222.255	6965
4223.793	6904
4225.335	7022
4226.873	6923
4228.411	7041
4229.948	6988
4231.486	6971
4233.024	6960
4234.562	6973
4236.098	6895
4237.634	6914
4239.169	6867
4240.705	7027
4242.241	6835
4243.776	6892
4245.31	6792
4246.844	6914
4248.378	6800
4249.911	6967
4251.445	6917
4252.978	6845
4254.51	6893
4256.042	6945
4257.574	6852
4259.107	6771
4260.638	6817
4262.169	6847
4263.699	6735
4265.228	6680
4266.759	6817
4268.289	6817
4269.818	6813
4271.345	6758
4272.874	6763
4274.402	6836
4275.931	6727
4277.458	6685
4278.985	6742
4280.512	6804
4282.037	6728
4283.564	6660
4285.089	6807
4286.615	6655
4288.139	6775
4289.664	6648
4291.187	6719
4292.712	6684
4294.235	6532
4295.759	6712
4297.281	6625
4298.804	6697
4300.327	6631
4301.849	6634
4303.37	6636
4304.891	6570
4306.412	6645
4307.933	6576
4309.453	6646
4310.973	6601
4312.492	6559
