398.1873	5705
400.7097	5686
403.2336	5808
405.7547	5686
408.2751	5788
410.7948	5729
413.3138	5736
415.83	5791
418.3497	5869
420.8666	6077
423.3829	5930
425.8985	5994
428.4133	6028
430.9275	6045
433.441	6041
435.9538	6140
438.4639	6085
440.9753	6111
443.4881	6155
445.9982	6159
448.5055	5989
451.0142	6101
453.5201	6157
456.0274	6237
458.5361	6184
461.04	6083
463.5453	6151
466.0478	6212
468.5517	6224
471.0549	6122
473.5574	6167
476.0572	6107
478.5584	6124
481.0568	6241
483.5545	6139
486.0557	6398
488.5521	6128
491.0478	6308
493.5449	6238
496.0392	6370
498.5349	6299
501.0299	6393
503.5222	6372
506.0139	6278
508.5048	6291
510.9991	6314
513.4887	6509
515.9777	6388
518.4659	6360
520.9534	6386
523.4403	6373
525.9306	6463
528.4161	6384
530.9009	6393
533.3851	6442
535.8687	6524
538.3535	6456
540.8356	6434
543.3171	6363
545.7979	6345
548.278	6609
550.7595	6494
553.2383	6447
555.7144	6375
558.1918	6469
560.6685	6530
563.1446	6543
565.6221	6522
568.0968	6637
570.5688	6492
573.0422	6610
575.515	6540
577.989	6714
580.4584	6631
582.9291	6627
585.3991	6701
587.8685	6549
590.3352	6776
592.8052	6686
595.2706	6648
597.7372	6649
600.2033	6698
602.6666	6655
605.1334	6586
607.5953	6729
610.0587	6693
612.5193	6667
614.9814	6736
617.4427	6702
619.9034	6646
622.3615	6530
624.8208	6709
627.2775	6546
629.7335	6536
632.1929	6614
634.6476	6713
637.1016	6662
639.5569	6679
642.0096	6816
644.4637	6602
646.9151	6687
649.3678	6693
651.8179	6653
654.2672	6769
656.7159	6720
659.166	6701
661.6154	6735
664.0622	6812
666.5082	6890
668.9537	6874
671.4005	6811
673.8445	6713
676.288	6886
678.7308	6891
681.1729	6733
683.6163	6972
686.0572	6893
688.4973	6922
690.9368	6881
693.3757	6826
695.8138	6842
698.2534	6922
700.6902	6882
703.1245	6939
705.56	7116
707.9949	6892
710.4311	6922
712.8647	6916
715.2957	6940
717.7279	6979
720.1595	7003
722.5905	7045
725.0208	7012
727.4505	6979
729.8795	7038
732.3058	7158
734.7336	7173
737.1626	7061
739.587	7058
742.0128	7184
744.4359	7227
746.8604	7236
749.2841	7317
751.7073	7281
754.1278	7326
756.5496	7297
758.9688	7453
761.3893	7276
763.8093	7469
766.2285	7388
768.6451	7398
771.0611	7451
773.4784	7350
775.895	7465
778.3091	7385
780.7244	7375
783.1371	7341
785.5493	7433
787.9626	7472
790.3754	7495
792.7856	7296
795.1951	7357
797.6039	7292
800.0121	7406
802.4236	7368
804.8306	7451
807.2369	7406
809.6425	7456
812.0475	7339
814.4538	7450
816.8575	7576
819.2606	7469
821.663	7437
824.0648	7421
826.4659	7502
828.8683	7508
831.2682	7518
833.6674	7491
836.066	7564
838.4639	7429
840.8632	7535
843.2579	7488
845.6539	7554
848.0493	7633
850.444	7566
852.84	7580
855.2315	7659
857.6243	7613
860.0165	7578
862.4081	7514
864.797	7530
867.1892	7536
869.5789	7527
871.9659	7595
874.3542	7687
876.74	7567
879.129	7442
881.5155	7590
883.8994	7643
886.2845	7603
888.6671	7479
891.051	7464
893.4343	7463
895.8169	7592
898.197	7411
900.5783	7613
902.9571	7674
905.3372	7508
907.7167	7642
910.0936	7564
912.4698	7688
914.8474	7667
917.2244	7795
919.5987	7795
921.9744	7751
924.3475	7758
926.72	7742
929.0918	7818
931.4669	7906
933.8375	7867
936.2074	7833
938.5767	7980
940.9454	8156
943.3154	7977
945.6829	8086
948.0497	8278
950.4178	8443
952.7833	8553
955.1483	8910
957.5145	8946
959.8782	9110
962.2412	9197
964.6036	8981
966.9655	8773
969.3266	8590
971.6871	8172
974.0471	8049
976.4064	8052
978.765	8070
981.125	7894
983.4824	8013
985.8373	7777
988.1935	7794
990.549	7883
992.9039	7858
995.2602	7755
997.6119	7786
999.965	7878
1002.317	7876
1004.667	7896
1007.02	7817
1009.371	7961
1011.719	7852
1014.068	7819
1016.415	7835
1018.765	8012
1021.111	7910
1023.458	7853
1025.804	7906
1028.147	7935
1030.49	7922
1032.837	7975
1035.179	7948
1037.522	8013
1039.862	7861
1042.204	7979
1044.546	8028
1046.884	8040
1049.224	8001
1051.562	7896
1053.899	7963
1056.237	7939
1058.575	7926
1060.91	8128
1063.244	8037
1065.58	8072
1067.913	8148
1070.248	8169
1072.579	8190
1074.911	8134
1077.242	8131
1079.572	8180
1081.905	7981
1084.234	8135
1086.562	8023
1088.89	8034
1091.217	8045
1093.544	8131
1095.871	8141
1098.197	8064
1100.521	8039
1102.845	8036
1105.169	8082
1107.491	8015
1109.814	7963
1112.135	8124
1114.456	7996
1116.776	8036
1119.096	8067
1121.415	8143
1123.734	8098
1126.052	8038
1128.369	8090
1130.686	8102
1133.002	8186
1135.318	8075
1137.632	8042
1139.945	8166
1142.258	8035
1144.573	8125
1146.884	8099
1149.196	8103
1151.505	8239
1153.816	8104
1156.124	8198
1158.435	8100
1160.742	8156
1163.051	8014
1165.356	8148
1167.663	8112
1169.97	8202
1172.276	8086
1174.579	8071
1176.881	8220
1179.186	8103
1181.487	8064
1183.79	8096
1186.092	8090
1188.392	8053
1190.691	8061
1192.991	8096
1195.291	8088
1197.588	8028
1199.885	8085
1202.181	8119
1204.479	8196
1206.775	8093
1209.07	8184
1211.363	8069
1213.656	8145
1215.949	8232
1218.241	8152
1220.534	8137
1222.825	8148
1225.115	8156
1227.405	8141
1229.693	8211
1231.984	8186
1234.271	8217
1236.558	8324
1238.845	8318
1241.131	8293
1243.416	8266
1245.703	8474
1247.987	8412
1250.269	8325
1252.552	8316
1254.834	8374
1257.118	8468
1259.399	8309
1261.678	8379
1263.958	8361
1266.237	8457
1268.516	8288
1270.794	8310
1273.072	8379
1275.347	8264
1277.624	8329
1279.899	8235
1282.175	8400
1284.449	8432
1286.722	8394
1288.995	8271
1291.266	8475
1293.54	8257
1295.81	8268
1298.081	8346
1300.35	8248
1302.62	8119
1304.889	8279
1307.156	8274
1309.425	8252
1311.69	8231
1313.957	8203
1316.222	8263
1318.488	8437
1320.751	8285
1323.016	8383
1325.278	8300
1327.54	8369
1329.803	8323
1332.065	8237
1334.325	8296
1336.584	8324
1338.843	8375
1341.101	8339
1343.36	8186
1345.617	8313
1347.876	8458
1350.131	8350
1352.387	8187
1354.643	8337
1356.897	8383
1359.151	8271
1361.403	8356
1363.656	8303
1365.909	8274
1368.16	8255
1370.409	8453
1372.659	8285
1374.909	8222
1377.157	8458
1379.407	8370
1381.655	8265
1383.9	8463
1386.147	8289
1388.393	8395
1390.64	8390
1392.885	8488
1395.127	8502
1397.37	8412
1399.614	8425
1401.854	8431
1404.098	8410
1406.339	8493
1408.578	8342
1410.818	8309
1413.056	8350
1415.297	8491
1417.533	8463
1419.771	8494
1422.006	8550
1424.243	8708
1426.479	8569
1428.715	8656
1430.948	8647
1433.182	8590
1435.414	8656
1437.647	8582
1439.88	8568
1442.11	8591
1444.342	8663
1446.571	8660
1448.799	8565
1451.029	8637
1453.258	8680
1455.485	8701
1457.711	8561
1459.937	8606
1462.164	8606
1464.39	8779
1466.614	8455
1468.838	8534
1471.06	8530
1473.283	8407
1475.506	8471
1477.727	8482
1479.949	8599
1482.169	8298
1484.389	8360
1486.609	8511
1488.828	8374
1491.045	8374
1493.261	8445
1495.477	8360
1497.693	8447
1499.91	8352
1502.125	8404
1504.339	8501
1506.553	8385
1508.766	8331
1510.979	8332
1513.191	8297
1515.402	8425
1517.613	8414
1519.823	8233
1522.033	8442
1524.242	8365
1526.451	8101
1528.657	8374
1530.865	8300
1533.072	8287
1535.278	8380
1537.484	8332
1539.687	8562
1541.892	8514
1544.096	8398
1546.299	8385
1548.502	8440
1550.703	8533
1552.905	8417
1555.104	8538
1557.303	8511
1559.505	8725
1561.703	8528
1563.902	8548
1566.099	8485
1568.295	8698
1570.494	8599
1572.689	8600
1574.883	8679
1577.079	8544
1579.272	8649
1581.467	8625
1583.659	8620
1585.853	8666
1588.044	8621
1590.234	8637
1592.424	8607
1594.615	8592
1596.806	8775
1598.994	8662
1601.182	8606
1603.369	8714
1605.557	8611
1607.744	8699
1609.929	8666
1612.114	8688
1614.298	8667
1616.482	8725
1618.667	8722
1620.85	8790
1623.032	8792
1625.214	8700
1627.395	8691
1629.575	8693
1631.755	8787
1633.935	8758
1636.114	8769
1638.292	8918
1640.471	8908
1642.647	8709
1644.823	8802
1647	8671
1649.175	8785
1651.348	8857
1653.525	8903
1655.698	8790
1657.87	8807
1660.043	8702
1662.213	8809
1664.387	8844
1666.558	8768
1668.727	8856
1670.896	8755
1673.064	8655
1675.233	8836
1677.401	8818
1679.569	8797
1681.735	8831
1683.902	8821
1686.066	8828
1688.233	8849
1690.397	8748
1692.559	8777
1694.723	8810
1696.885	8749
1699.048	8826
1701.21	8837
1703.37	8663
1705.53	8712
1707.689	8677
1709.849	8654
1712.009	8702
1714.166	8717
1716.323	8699
1718.479	8656
1720.634	8621
1722.793	8638
1724.948	8732
1727.102	8804
1729.255	8709
1731.408	8726
1733.562	8662
1735.714	8658
1737.865	8795
1740.016	8607
1742.166	8716
1744.316	8707
1746.467	8750
1748.616	8584
1750.764	8668
1752.911	8658
1755.056	8782
1757.205	8792
1759.35	8787
1761.496	8761
1763.641	8852
1765.785	8798
1767.927	8760
1770.072	8779
1772.214	8755
1774.355	8839
1776.496	8743
1778.637	8746
1780.778	8713
1782.918	8784
1785.057	8903
1787.194	8853
1789.333	8785
1791.472	8726
1793.608	8747
1795.745	8789
1797.879	8769
1800.015	8765
1802.148	8685
1804.284	8757
1806.417	8761
1808.548	8940
1810.682	8758
1812.812	8869
1814.946	8815
1817.075	8822
1819.205	8802
1821.335	8742
1823.463	8701
1825.59	8778
1827.721	8759
1829.847	8776
1831.973	8789
1834.098	8770
1836.223	8714
1838.351	8763
1840.475	8841
1842.598	8934
1844.721	8776
1846.843	8672
1848.966	8707
1851.087	8694
1853.21	8798
1855.33	8805
1857.449	8575
1859.568	8724
1861.688	8733
1863.806	8778
1865.924	8702
1868.039	8774
1870.155	8741
1872.273	8627
1874.388	8791
1876.503	8738
1878.617	8645
1880.73	8745
1882.844	8778
1884.956	8706
1887.068	8847
1889.18	8878
1891.291	8695
1893.4	8794
1895.511	8773
1897.621	8775
1899.73	8725
1901.837	8614
1903.944	8744
1906.053	8900
1908.159	8758
1910.265	8924
1912.369	8964
1914.474	8838
1916.577	8857
1918.683	8850
1920.785	8772
1922.888	8880
1924.989	8782
1927.091	8896
1929.193	8856
1931.294	8767
1933.393	8839
1935.493	8906
1937.59	8820
1939.689	9032
1941.788	8918
1943.884	8837
1945.98	8864
1948.077	8959
1950.171	8951
1952.267	8955
1954.361	8780
1956.455	8775
1958.548	8872
1960.64	8856
1962.733	8809
1964.824	8999
1966.915	8783
1969.005	8786
1971.096	8789
1973.185	8886
1975.275	8762
1977.363	8797
1979.45	8840
1981.537	8867
1983.623	8874
1985.711	8776
1987.796	8807
1989.881	8823
1991.965	8942
1994.047	8740
1996.132	8845
1998.215	8801
2000.297	8748
2002.378	8948
2004.46	8817
2006.54	8693
2008.62	8855
2010.7	8858
2012.779	8749
2014.858	8713
2016.934	8767
2019.013	8760
2021.09	8862
2023.165	8850
2025.241	8756
2027.317	8770
2029.39	8777
2031.466	8821
2033.538	8745
2035.612	8771
2037.683	8834
2039.755	8737
2041.827	8796
2043.898	8778
2045.968	8813
2048.038	8817
2050.106	8733
2052.177	8804
2054.244	8698
2056.313	8663
2058.379	8931
2060.444	8725
2062.511	8733
2064.577	8862
2066.641	8831
2068.705	8816
2070.77	8849
2072.832	8823
2074.896	8740
2076.958	8824
2079.02	8708
2081.081	8665
2083.141	8881
2085.2	8767
2087.261	8854
2089.319	8858
2091.377	8660
2093.435	8888
2095.492	8847
2097.552	8747
2099.607	8890
2101.663	8929
2103.718	8879
2105.771	8799
2107.826	8735
2109.879	8838
2111.932	8820
2113.985	8799
2116.037	8688
2118.088	8817
2120.141	8730
2122.191	8821
2124.239	8871
2126.288	8855
2128.337	8867
2130.387	8827
2132.434	8823
2134.481	8814
2136.528	8846
2138.574	8696
2140.618	8858
2142.665	8819
2144.71	8751
2146.753	8774
2148.797	8675
2150.838	8782
2152.883	8632
2154.923	8842
2156.965	8858
2159.007	8760
2161.046	8769
2163.086	8614
2165.126	8811
2167.163	8605
2169.202	8808
2171.239	8809
2173.277	8747
2175.314	8693
2177.349	8684
2179.385	8741
2181.42	8707
2183.453	8652
2185.49	8589
2187.522	8762
2189.555	8597
2191.586	8640
2193.619	8550
2195.651	8639
2197.682	8627
2199.711	8693
2201.74	8602
2203.769	8601
2205.799	8495
2207.828	8567
2209.855	8686
2211.882	8550
2213.908	8560
2215.934	8639
2217.961	8630
2219.986	8521
2222.01	8623
2224.034	8509
2226.057	8602
2228.08	8611
2230.104	8397
2232.124	8561
2234.145	8598
2236.166	8489
2238.186	8563
2240.207	8506
2242.227	8546
2244.244	8583
2246.262	8545
2248.28	8499
2250.299	8445
2252.314	8481
2254.33	8675
2256.346	8559
2258.36	8598
2260.375	8584
2262.391	8635
2264.403	8583
2266.416	8578
2268.427	8519
2270.44	8715
2272.453	8640
2274.463	8678
2276.474	8423
2278.483	8495
2280.493	8481
2282.501	8517
2284.51	8483
2286.518	8493
2288.524	8571
2290.532	8599
2292.537	8700
2294.544	8660
2296.55	8542
2298.554	8516
2300.557	8549
2302.562	8572
2304.566	8537
2306.568	8539
2308.569	8535
2310.572	8614
2312.573	8524
2314.573	8492
2316.574	8446
2318.573	8578
2320.571	8434
2322.571	8539
2324.569	8401
2326.567	8523
2328.564	8588
2330.56	8452
2332.556	8452
2334.551	8567
2336.546	8545
2338.542	8398
2340.535	8521
2342.529	8364
2344.521	8450
2346.512	8434
2348.505	8420
2350.497	8542
2352.487	8481
2354.478	8388
2356.468	8434
2358.457	8300
2360.446	8403
2362.434	8517
2364.422	8367
2366.408	8346
2368.395	8329
2370.383	8236
2372.369	8313
2374.353	8462
2376.338	8391
2378.321	8411
2380.307	8456
2382.29	8258
2384.272	8355
2386.254	8344
2388.235	8433
2390.218	8369
2392.198	8251
2394.179	8304
2396.157	8287
2398.137	8370
2400.115	8233
2402.095	8315
2404.072	8314
2406.048	8413
2408.026	8117
2410.001	8231
2411.977	8281
2413.953	8355
2415.927	8143
2417.9	8318
2419.875	8224
2421.847	8194
2423.821	8380
2425.792	8264
2427.763	8235
2429.736	8409
2431.706	8115
2433.677	8210
2435.646	8265
2437.615	8253
2439.583	8267
2441.551	8292
2443.519	8210
2445.486	8417
2447.452	8408
2449.418	8289
2451.383	8114
2453.348	8174
2455.314	8293
2457.278	8289
2459.241	8367
2461.205	8275
2463.167	8216
2465.131	8250
2467.091	8362
2469.052	8144
2471.012	8156
2472.972	8134
2474.932	8235
2476.891	8213
2478.85	8220
2480.808	8108
2482.766	8220
2484.722	8123
2486.68	8125
2488.636	8228
2490.591	8131
2492.546	8217
2494.5	8250
2496.456	8226
2498.41	8139
2500.362	8137
2502.315	8218
2504.266	8312
2506.218	8257
2508.169	8078
2510.121	8228
2512.07	8224
2514.019	8061
2515.968	8269
2517.918	8143
2519.866	8072
2521.813	8198
2523.76	8208
2525.707	8143
2527.653	8034
2529.599	8113
2531.543	8180
2533.489	8138
2535.433	8019
2537.376	8038
2539.32	8103
2541.264	8078
2543.205	8105
2545.147	8181
2547.087	8055
2549.029	8101
2550.969	8117
2552.908	8212
2554.847	8040
2556.786	8128
2558.724	8152
2560.663	8097
2562.6	8082
2564.537	8243
2566.473	8053
2568.408	8123
2570.345	8154
2572.28	8066
2574.214	8111
2576.148	8223
2578.081	8116
2580.014	8099
2581.947	8123
2583.879	8192
2585.81	8139
2587.741	8203
2589.67	8096
2591.602	8235
2593.532	8048
2595.461	8143
2597.388	8194
2599.316	8149
2601.244	8110
2603.172	8130
2605.098	8153
2607.023	8207
2608.949	8154
2610.873	8072
2612.8	8143
2614.723	8191
2616.647	8221
2618.569	8172
2620.493	8234
2622.416	8206
2624.338	8093
2626.258	8138
2628.179	8218
2630.099	8165
2632.019	8224
2633.939	8275
2635.857	8222
2637.775	8138
2639.694	8220
2641.61	8186
2643.528	8238
2645.444	8086
2647.361	8091
2649.276	8205
2651.19	8170
2653.105	8187
2655.019	8115
2656.934	8246
2658.846	8119
2660.758	8108
2662.67	8112
2664.583	8261
2666.493	7963
2668.404	8229
2670.313	8116
2672.223	8089
2674.134	8025
2676.042	8127
2677.95	8107
2679.858	8046
2681.765	8047
2683.673	8027
2685.579	8081
2687.483	8108
2689.389	7991
2691.294	8096
2693.198	8040
2695.104	8142
2697.006	7981
2698.909	7952
2700.811	7917
2702.713	7931
2704.615	7960
2706.516	8169
2708.417	8050
2710.316	8089
2712.216	7998
2714.115	7932
2716.014	7993
2717.913	8083
2719.81	7888
2721.707	8022
2723.603	8046
2725.501	8052
2727.396	8031
2729.292	7932
2731.186	7997
2733.081	7938
2734.976	7978
2736.87	8035
2738.762	7882
2740.653	7885
2742.546	7972
2744.437	7902
2746.329	7821
2748.22	8015
2750.11	7899
2751.999	7833
2753.889	7936
2755.778	7998
2757.666	7963
2759.553	7948
2761.44	7885
2763.328	8050
2765.215	7848
2767.101	7960
2768.986	7928
2770.87	7820
2772.754	8000
2774.638	7964
2776.523	7950
2778.405	8005
2780.288	7988
2782.17	7956
2784.051	8043
2785.934	7869
2787.814	8013
2789.694	7807
2791.574	7851
2793.453	7802
2795.332	7913
2797.212	7775
2799.088	7827
2800.966	7940
2802.843	7833
2804.719	7875
2806.597	7908
2808.471	7998
2810.346	7863
2812.221	7746
2814.094	7868
2815.969	7855
2817.843	7984
2819.714	7771
2821.587	7664
2823.459	7849
2825.329	7714
2827.202	7897
2829.072	7877
2830.942	7721
2832.811	7743
2834.68	7821
2836.549	7816
2838.418	7791
2840.284	7847
2842.152	7924
2844.018	7825
2845.885	7802
2847.751	7833
2849.616	7786
2851.482	7825
2853.345	7773
2855.208	7897
2857.074	7859
2858.937	7867
2860.799	7838
2862.66	7906
2864.522	8001
2866.385	7849
2868.245	8051
2870.104	7960
2871.964	7820
2873.824	8119
2875.683	8163
2877.542	8114
2879.4	8144
2881.257	8160
2883.114	8203
2884.97	8285
2886.827	8036
2888.683	8334
2890.537	8203
2892.392	8159
2894.246	8157
2896.1	8094
2897.954	8225
2899.807	8006
2901.66	8138
2903.51	8161
2905.362	8080
2907.214	8185
2909.065	8140
2910.915	8113
2912.765	8166
2914.613	8175
2916.463	8226
2918.311	8414
2920.158	8295
2922.006	8361
2923.853	8504
2925.698	8412
2927.546	8469
2929.392	8580
2931.236	8624
2933.081	8629
2934.924	8650
2936.77	8613
2938.613	8676
2940.455	8777
2942.298	8731
2944.139	8632
2945.982	8709
2947.823	8701
2949.662	8788
2951.503	8649
2953.342	8635
2955.182	8655
2957.021	8317
2958.858	8625
2960.697	8587
2962.534	8370
2964.37	8315
2966.207	8385
2968.044	8306
2969.879	8204
2971.714	8144
2973.548	8182
2975.383	8300
2977.218	8157
2979.051	8199
2980.883	8074
2982.715	8095
2984.547	8100
2986.379	8035
2988.21	8032
2990.04	8056
2991.87	7977
2993.7	8112
2995.53	7915
2997.359	8050
2999.187	7772
3001.015	7870
3002.842	7814
3004.669	7823
3006.497	7698
3008.323	7789
3010.148	7576
3011.974	7701
3013.797	7652
3015.623	7738
3017.447	7586
3019.27	7589
3021.094	7529
3022.915	7606
3024.737	7500
3026.56	7534
3028.38	7434
3030.201	7429
3032.022	7477
3033.84	7445
3035.662	7529
3037.481	7376
3039.298	7474
3041.117	7495
3042.933	7478
3044.752	7400
3046.568	7497
3048.385	7457
3050.2	7398
3052.016	7474
3053.83	7321
3055.646	7499
3057.46	7321
3059.272	7351
3061.086	7360
3062.898	7432
3064.711	7379
3066.524	7422
3068.335	7310
3070.145	7314
3071.956	7389
3073.766	7444
3075.576	7372
3077.385	7332
3079.193	7296
3081.002	7348
3082.81	7192
3084.618	7257
3086.425	7265
3088.231	7293
3090.036	7190
3091.842	7268
3093.648	7159
3095.452	7218
3097.257	7265
3099.06	7317
3100.863	7173
3102.666	7198
3104.47	7136
3106.272	7230
3108.073	7287
3109.875	7255
3111.676	7196
3113.477	7075
3115.277	7279
3117.077	7284
3118.874	7125
3120.673	7193
3122.473	7133
3124.271	7082
3126.066	7092
3127.863	7099
3129.66	7152
3131.456	7108
3133.252	7047
3135.047	7043
3136.842	7107
3138.635	7052
3140.429	7148
3142.223	7078
3144.016	7083
3145.808	6870
3147.6	6953
3149.392	6962
3151.183	6915
3152.975	7012
3154.765	6927
3156.553	7041
3158.344	7003
3160.132	7067
3161.922	6934
3163.71	7069
3165.497	7030
3167.285	6959
3169.071	7045
3170.858	6982
3172.645	6982
3174.429	7022
3176.214	6943
3177.998	6973
3179.783	6954
3181.568	6896
3183.351	6919
3185.133	6828
3186.915	6906
3188.698	6899
3190.481	6911
3192.261	6848
3194.042	6911
3195.822	6803
3197.601	6973
3199.381	6884
3201.161	6919
3202.939	6958
3204.717	6810
3206.495	6959
3208.272	6830
3210.05	6839
3211.826	6945
3213.602	6829
3215.376	6859
3217.151	6928
3218.927	6971
3220.702	6901
3222.476	6935
3224.249	6934
3226.021	6859
3227.793	6731
3229.567	6688
3231.339	6846
3233.109	6833
3234.88	6901
3236.651	6832
3238.421	6677
3240.191	6875
3241.96	6854
3243.728	6812
3245.497	6843
3247.263	6846
3249.033	6808
3250.799	6726
3252.566	6754
3254.331	6801
3256.097	6783
3257.863	6833
3259.628	6785
3261.392	6817
3263.156	6860
3264.919	6844
3266.683	6808
3268.447	6809
3270.208	6781
3271.969	6695
3273.731	6772
3275.492	6840
3277.253	6875
3279.013	6842
3280.773	6703
3282.532	6893
3284.291	6780
3286.05	6747
3287.808	6803
3289.566	6802
3291.323	6777
3293.079	6785
3294.835	6839
3296.593	6899
3298.348	6884
3300.102	6737
3301.857	6768
3303.611	6904
3305.366	6693
3307.119	6821
3308.872	6836
3310.624	6784
3312.376	6733
3314.129	6862
3315.881	6744
3317.631	6761
3319.38	6826
3321.13	6896
3322.88	6807
3324.631	6834
3326.379	6665
3328.126	6776
3329.875	6738
3331.622	6822
3333.371	6770
3335.116	6760
3336.863	6783
3338.609	6804
3340.353	6730
3342.1	6706
3343.845	6757
3345.588	6723
3347.332	6688
3349.074	6794
3350.817	6731
3352.56	6624
3354.303	6733
3356.043	6650
3357.785	6726
3359.525	6637
3361.268	6714
3363.007	6629
3364.745	6584
3366.485	6608
3368.223	6519
3369.962	6605
3371.701	6749
3373.438	6697
3375.174	6739
3376.911	6555
3378.647	6554
3380.384	6590
3382.118	6604
3383.854	6551
3385.588	6508
3387.322	6487
3389.057	6645
3390.79	6429
3392.522	6448
3394.255	6611
3395.987	6659
3397.719	6545
3399.451	6612
3401.181	6565
3402.911	6479
3404.641	6640
3406.371	6554
3408.101	6532
3409.83	6494
3411.558	6584
3413.285	6569
3415.011	6622
3416.739	6540
3418.467	6571
3420.193	6443
3421.919	6526
3423.644	6448
3425.368	6554
3427.094	6533
3428.818	6403
3430.542	6442
3432.264	6471
3433.987	6463
3435.712	6441
3437.434	6405
3439.155	6402
3440.876	6472
3442.596	6483
3444.317	6372
3446.039	6525
3447.757	6393
3449.477	6254
3451.195	6465
3452.914	6350
3454.632	6436
3456.35	6405
3458.067	6449
3459.784	6357
3461.5	6377
3463.216	6354
3464.932	6316
3466.647	6405
3468.362	6273
3470.076	6283
3471.789	6313
3473.505	6234
3475.217	6298
3476.929	6156
3478.641	6296
3480.354	6330
3482.066	6266
3483.777	6353
3485.487	6138
3487.197	6267
3488.908	6261
3490.617	6360
3492.327	6188
3494.035	6257
3495.743	6278
3497.451	6201
3499.158	6252
3500.866	6190
3502.572	6086
3504.278	6073
3505.984	6137
3507.689	6062
3509.396	6086
3511.1	6214
3512.804	6125
3514.508	6032
3516.211	6098
3517.913	6086
3519.616	6150
3521.319	6094
3523.021	6133
3524.722	6101
3526.422	6055
3528.124	6071
3529.824	5991
3531.524	6052
3533.222	6130
3534.921	6071
3536.62	6123
3538.318	6127
3540.016	6127
3541.714	5969
3543.41	6034
3545.107	6109
3546.803	6037
3548.5	5918
3550.194	5997
3551.889	6064
3553.583	6057
3555.279	5932
3556.972	6058
3558.666	5982
3560.358	5984
3562.051	6023
3563.742	6005
3565.435	6052
3567.126	6058
3568.817	5911
3570.507	5984
3572.197	5953
3573.888	5972
3575.577	5896
3577.265	5929
3578.954	5849
3580.642	5969
3582.329	5996
3584.017	5891
3585.704	5873
3587.391	5835
3589.077	5949
3590.762	5850
3592.449	5820
3594.133	5854
3595.817	5849
3597.501	5871
3599.185	5887
3600.869	5804
3602.552	5808
3604.234	5934
3605.916	5922
3607.598	5791
3609.279	5786
3610.961	5726
3612.642	5803
3614.321	5750
3616	5673
3617.68	5747
3619.36	5828
3621.039	5798
3622.716	5729
3624.394	5662
3626.071	5766
3627.748	5669
3629.425	5853
3631.102	5693
3632.778	5833
3634.452	5757
3636.127	5759
3637.803	5644
3639.477	5823
3641.151	5676
3642.823	5703
3644.497	5676
3646.171	5726
3647.842	5632
3649.515	5662
3651.185	5634
3652.857	5561
3654.527	5695
3656.198	5492
3657.868	5680
3659.537	5691
3661.207	5633
3662.875	5538
3664.544	5669
3666.212	5697
3667.879	5501
3669.546	5667
3671.212	5572
3672.88	5585
3674.546	5516
3676.211	5557
3677.875	5618
3679.541	5568
3681.205	5590
3682.87	5541
3684.533	5612
3686.196	5595
3687.859	5492
3689.521	5522
3691.184	5474
3692.845	5508
3694.507	5498
3696.167	5468
3697.827	5568
3699.487	5560
3701.148	5468
3702.808	5393
3704.466	5487
3706.125	5511
3707.783	5450
3709.442	5414
3711.099	5407
3712.757	5524
3714.412	5484
3716.068	5431
3717.725	5490
3719.381	5470
3721.036	5581
3722.689	5551
3724.344	5409
3725.998	5457
3727.652	5393
3729.305	5496
3730.958	5407
3732.61	5424
3734.262	5395
3735.915	5452
3737.565	5492
3739.217	5397
3740.866	5325
3742.516	5414
3744.165	5375
3745.816	5391
3747.464	5504
3749.113	5402
3750.761	5471
3752.409	5364
3754.057	5356
3755.703	5357
3757.35	5475
3758.996	5319
3760.641	5261
3762.289	5358
3763.933	5348
3765.577	5317
3767.222	5242
3768.865	5367
3770.508	5283
3772.152	5338
3773.796	5330
3775.438	5367
3777.079	5332
3778.721	5223
3780.363	5297
3782.003	5252
3783.643	5201
3785.283	5320
3786.923	5303
3788.563	5325
3790.203	5244
3791.841	5226
3793.479	5319
3795.115	5311
3796.753	5296
3798.391	5280
3800.027	5249
3801.664	5293
3803.299	5152
3804.935	5216
3806.571	5240
3808.206	5184
3809.839	5119
3811.473	5271
3813.107	5186
3814.74	5168
3816.375	5199
3818.006	5178
3819.638	5075
3821.27	5143
3822.9	5151
3824.532	5122
3826.163	5249
3827.792	5123
3829.423	5143
3831.051	5174
3832.682	5205
3834.311	5113
3835.938	5103
3837.566	5088
3839.193	5153
3840.821	5037
3842.448	5106
3844.075	5139
3845.7	5100
3847.325	5149
3848.951	5087
3850.576	5070
3852.201	5083
3853.825	5083
3855.448	5077
3857.072	5011
3858.694	5024
3860.318	5162
3861.939	5141
3863.562	5000
3865.183	5064
3866.804	5069
3868.426	5004
3870.045	5104
3871.666	5081
3873.285	5051
3874.904	5072
3876.524	4967
3878.142	4991
3879.76	5031
3881.378	5003
3882.995	4982
3884.612	5049
3886.229	5062
3887.845	4994
3889.461	5115
3891.076	4930
3892.691	4945
3894.307	4948
3895.922	4880
3897.536	5032
3899.149	5019
3900.761	4939
3902.374	5040
3903.988	5019
3905.6	4909
3907.212	4962
3908.822	4925
3910.433	5090
3912.045	4972
3913.655	4918
3915.265	4872
3916.875	4973
3918.483	4881
3920.093	4977
3921.702	4949
3923.309	4839
3924.917	4897
3926.523	4890
3928.13	4907
3929.739	4913
3931.344	4854
3932.95	5067
3934.555	4871
3936.159	4927
3937.766	4951
3939.369	4908
3940.974	4867
3942.577	4964
3944.181	4820
3945.783	4838
3947.386	4817
3948.989	4924
3950.59	4957
3952.191	4849
3953.791	4861
3955.394	4901
3956.994	4889
3958.593	4901
3960.192	4808
3961.791	4841
3963.392	4945
3964.99	4837
3966.588	4816
3968.185	4769
3969.782	4734
3971.379	4779
3972.976	4822
3974.572	4801
3976.168	4876
3977.763	4825
3979.358	4727
3980.954	4822
3982.548	4781
3984.142	4775
3985.736	4757
3987.329	4684
3988.922	4691
3990.516	4772
3992.108	4722
3993.698	4725
3995.29	4718
3996.881	4668
3998.473	4754
4000.064	4702
4001.653	4786
4003.242	4633
4004.832	4684
4006.422	4678
4008.01	4798
4009.598	4723
4011.186	4686
4012.773	4712
4014.36	4553
4015.947	4599
4017.534	4711
4019.119	4587
4020.705	4642
4022.291	4523
4023.876	4581
4025.461	4624
4027.044	4591
4028.627	4573
4030.211	4589
4031.795	4592
4033.378	4529
4034.96	4500
4036.542	4597
4038.124	4554
4039.704	4573
4041.286	4551
4042.867	4624
4044.447	4488
4046.026	4646
4047.606	4502
4049.187	4482
4050.765	4603
4052.343	4626
4053.92	4516
4055.498	4480
4057.076	4529
4058.654	4470
4060.23	4481
4061.806	4473
4063.381	4497
4064.957	4459
4066.533	4442
4068.107	4612
4069.682	4432
4071.256	4447
4072.829	4379
4074.404	4492
4075.977	4473
4077.549	4526
4079.121	4426
4080.693	4428
4082.265	4376
4083.836	4406
4085.407	4393
4086.977	4458
4088.547	4391
4090.117	4385
4091.687	4413
4093.256	4470
4094.825	4356
4096.392	4487
4097.96	4406
4099.528	4487
4101.097	4369
4102.663	4407
4104.229	4371
4105.795	4393
4107.361	4413
4108.928	4418
4110.493	4371
4112.058	4411
4113.621	4319
4115.186	4366
4116.75	4407
4118.313	4404
4119.876	4333
4121.438	4339
4123	4338
4124.562	4367
4126.125	4364
4127.686	4353
4129.246	4261
4130.807	4394
4132.367	4275
4133.927	4372
4135.486	4273
4137.046	4271
4138.604	4229
4140.162	4294
4141.72	4265
4143.279	4272
4144.836	4326
4146.393	4366
4147.949	4205
4149.505	4219
4151.062	4318
4152.617	4196
4154.172	4229
4155.727	4284
4157.281	4225
4158.836	4149
4160.39	4242
4161.943	4203
4163.496	4202
4165.048	4242
4166.601	4264
4168.154	4259
4169.706	4278
4171.257	4149
4172.808	4234
4174.358	4093
4175.909	4091
4177.458	4172
4179.008	4165
4180.558	4197
4182.106	4181
4183.655	4119
4185.204	4233
4186.751	4127
4188.298	4106
4189.845	4147
4191.392	4131
4192.939	4207
4194.485	4100
4196.031	4017
4197.576	4094
4199.121	4094
4200.666	4055
4202.211	4082
4203.754	4041
4205.298	4072
4206.84	4116
4208.384	4059
4209.927	4065
4211.47	4037
4213.011	4044
4214.552	4064
4216.094	4021
4217.635	4068
4219.175	4083
4220.716	4068
4222.255	4062
4223.793	4007
4225.335	4088
4226.873	4114
4228.411	4024
4229.948	4021
4231.486	4001
4233.024	4022
4234.562	4089
4236.098	3936
4237.634	3976
4239.169	4055
4240.705	4049
4242.241	3984
4243.776	3982
4245.31	4012
4246.844	3968
4248.378	3993
4249.911	4009
4251.445	3978
4252.978	3952
4254.51	3987
4256.042	3944
4257.574	3929
4259.107	3919
4260.638	4005
4262.169	4030
4263.699	3931
4265.228	4048
4266.759	3900
4268.289	3955
4269.818	3907
4271.345	3885
4272.874	3938
4274.402	3919
4275.931	3999
4277.458	3945
4278.985	3941
4280.512	3977
4282.037	3915
4283.564	3894
4285.089	4029
4286.615	3851
4288.139	3960
4289.664	3857
4291.187	3869
4292.712	3984
4294.235	3884
4295.759	3851
4297.281	3930
4298.804	3893
4300.327	3930
4301.849	3862
4303.37	3835
4304.891	3886
4306.412	3818
4307.933	3849
4309.453	3858
4310.973	3903
4312.492	3907
