398.1873	3001
400.7097	2934
403.2336	2987
405.7547	3021
408.2751	3104
410.7948	3022
413.3138	2992
415.83	3081
418.3497	3130
420.8666	3096
423.3829	3058
425.8985	3129
428.4133	3138
430.9275	3112
433.441	3148
435.9538	3156
438.4639	3217
440.9753	3197
443.4881	3152
445.9982	3222
448.5055	3178
451.0142	3232
453.5201	3071
456.0274	3208
458.5361	3094
461.04	3199
463.5453	3140
466.0478	3075
468.5517	3148
471.0549	3181
473.5574	3181
476.0572	3215
478.5584	3188
481.0568	3142
483.5545	3147
486.0557	3283
488.5521	3213
491.0478	3207
493.5449	3270
496.0392	3234
498.5349	3272
501.0299	3212
503.5222	3290
506.0139	3260
508.5048	3284
510.9991	3362
513.4887	3294
515.9777	3291
518.4659	3259
520.9534	3264
523.4403	3332
525.9306	3267
528.4161	3233
530.9009	3285
533.3851	3248
535.8687	3249
538.3535	3309
540.8356	3221
543.3171	3231
545.7979	3298
548.278	3291
550.7595	3321
553.2383	3244
555.7144	3282
558.1918	3328
560.6685	3290
563.1446	3312
565.6221	3318
568.0968	3281
570.5688	3352
573.0422	3322
575.515	3425
577.989	3449
580.4584	3456
582.9291	3389
585.3991	3412
587.8685	3374
590.3352	3524
592.8052	3437
595.2706	3443
597.7372	3386
600.2033	3368
602.6666	3315
605.1334	3423
607.5953	3344
610.0587	3403
612.5193	3401
614.9814	3407
617.4427	3346
619.9034	3407
622.3615	3396
624.8208	3394
627.2775	3422
629.7335	3383
632.1929	3403
634.6476	3418
637.1016	3328
639.5569	3346
642.0096	3346
644.4637	3377
646.9151	3413
649.3678	3367
651.8179	3331
654.2672	3411
656.7159	3424
659.166	3472
661.6154	3455
664.0622	3458
666.5082	3441
668.9537	3452
671.4005	3426
673.8445	3495
676.288	3461
678.7308	3539
681.1729	3452
683.6163	3460
686.0572	3507
688.4973	3483
690.9368	3450
693.3757	3502
695.8138	3487
698.2534	3479
700.6902	3459
703.1245	3451
705.56	3489
707.9949	3536
710.4311	3554
712.8647	3551
715.2957	3604
717.7279	3477
720.1595	3517
722.5905	3584
725.0208	3623
727.4505	3449
729.8795	3593
732.3058	3686
734.7336	3542
737.1626	3601
739.587	3617
742.0128	3702
744.4359	3596
746.8604	3678
749.2841	3668
751.7073	3691
754.1278	3712
756.5496	3705
758.9688	3663
761.3893	3700
763.8093	3752
766.2285	3723
768.6451	3678
771.0611	3698
773.4784	3727
775.895	3771
778.3091	3729
780.7244	3748
783.1371	3666
785.5493	3748
787.9626	3716
790.3754	3676
792.7856	3730
795.1951	3737
797.6039	3744
800.0121	3743
802.4236	3730
804.8306	3715
807.2369	3753
809.6425	3723
812.0475	3686
814.4538	3787
816.8575	3762
819.2606	3749
821.663	3812
824.0648	3759
826.4659	3776
828.8683	3747
831.2682	3815
833.6674	3853
836.066	3789
838.4639	3749
840.8632	3837
843.2579	3768
845.6539	3869
848.0493	3781
850.444	3825
852.84	3821
855.2315	3842
857.6243	3887
860.0165	3998
862.4081	3833
864.797	3824
867.1892	3931
869.5789	3846
871.9659	3820
874.3542	3920
876.74	3848
879.129	3883
881.5155	3864
883.8994	3865
886.2845	3825
888.6671	3845
891.051	3786
893.4343	3804
895.8169	3811
898.197	3826
900.5783	3855
902.9571	3832
905.3372	3833
907.7167	3951
910.0936	3923
912.4698	3899
914.8474	4004
917.2244	3997
919.5987	3967
921.9744	3986
924.3475	3968
926.72	4019
929.0918	3955
931.4669	4043
933.8375	3990
936.2074	4099
938.5767	3991
940.9454	4074
943.3154	4117
945.6829	4221
948.0497	4255
950.4178	4299
952.7833	4550
955.1483	4620
957.5145	4775
959.8782	4857
962.2412	4774
964.6036	4675
966.9655	4599
969.3266	4417
971.6871	4292
974.0471	4213
976.4064	4134
978.765	4082
981.125	4052
983.4824	4014
985.8373	3961
988.1935	4002
990.549	4000
992.9039	3948
995.2602	4023
997.6119	3969
999.965	3902
1002.317	3989
1004.667	4032
1007.02	3951
1009.371	3911
1011.719	3933
1014.068	3951
1016.415	4009
1018.765	3962
1021.111	3979
1023.458	4128
1025.804	4051
1028.147	4026
1030.49	3969
1032.837	4023
1035.179	4048
1037.522	4060
1039.862	4043
1042.204	4029
1044.546	4128
1046.884	4002
1049.224	4048
1051.562	3961
1053.899	4126
1056.237	4111
1058.575	4067
1060.91	4146
1063.244	4201
1065.58	4141
1067.913	4153
1070.248	4184
1072.579	4067
1074.911	4204
1077.242	4156
1079.572	4101
1081.905	4152
1084.234	4110
1086.562	4095
1088.89	4033
1091.217	4137
1093.544	4089
1095.871	4068
1098.197	4015
1100.521	4048
1102.845	4116
1105.169	4164
1107.491	4072
1109.814	4059
1112.135	4076
1114.456	4107
1116.776	4087
1119.096	4100
1121.415	4109
1123.734	4145
1126.052	4114
1128.369	4091
1130.686	4105
1133.002	4159
1135.318	4163
1137.632	4159
1139.945	4113
1142.258	4002
1144.573	4171
1146.884	4088
1149.196	4051
1151.505	4080
1153.816	4148
1156.124	4215
1158.435	4083
1160.742	4091
1163.051	4052
1165.356	4137
1167.663	4175
1169.97	4081
1172.276	4096
1174.579	4158
1176.881	4184
1179.186	4118
1181.487	4197
1183.79	4109
1186.092	4033
1188.392	4184
1190.691	4065
1192.991	4079
1195.291	4096
1197.588	4078
1199.885	4091
1202.181	4107
1204.479	4175
1206.775	3996
1209.07	4047
1211.363	4205
1213.656	4188
1215.949	4086
1218.241	4237
1220.534	4109
1222.825	4178
1225.115	4213
1227.405	4104
1229.693	4263
1231.984	4242
1234.271	4204
1236.558	4191
1238.845	4195
1241.131	4246
1243.416	4273
1245.703	4205
1247.987	4179
1250.269	4273
1252.552	4295
1254.834	4250
1257.118	4274
1259.399	4218
1261.678	4245
1263.958	4301
1266.237	4246
1268.516	4227
1270.794	4267
1273.072	4219
1275.347	4221
1277.624	4280
1279.899	4245
1282.175	4217
1284.449	4280
1286.722	4246
1288.995	4240
1291.266	4241
1293.54	4136
1295.81	4210
1298.081	4235
1300.35	4238
1302.62	4171
1304.889	4200
1307.156	4270
1309.425	4142
1311.69	4247
1313.957	4160
1316.222	4230
1318.488	4196
1320.751	4203
1323.016	4231
1325.278	4281
1327.54	4178
1329.803	4211
1332.065	4157
1334.325	4192
1336.584	4283
1338.843	4205
1341.101	4224
1343.36	4279
1345.617	4248
1347.876	4313
1350.131	4270
1352.387	4238
1354.643	4211
1356.897	4190
1359.151	4232
1361.403	4185
1363.656	4234
1365.909	4238
1368.16	4167
1370.409	4267
1372.659	4292
1374.909	4287
1377.157	4211
1379.407	4251
1381.655	4267
1383.9	4299
1386.147	4266
1388.393	4362
1390.64	4271
1392.885	4309
1395.127	4290
1397.37	4313
1399.614	4274
1401.854	4366
1404.098	4399
1406.339	4351
1408.578	4337
1410.818	4373
1413.056	4282
1415.297	4388
1417.533	4280
1419.771	4364
1422.006	4456
1424.243	4223
1426.479	4398
1428.715	4368
1430.948	4390
1433.182	4295
1435.414	4420
1437.647	4454
1439.88	4417
1442.11	4411
1444.342	4462
1446.571	4451
1448.799	4439
1451.029	4451
1453.258	4472
1455.485	4437
1457.711	4453
1459.937	4412
1462.164	4420
1464.39	4413
1466.614	4476
1468.838	4330
1471.06	4389
1473.283	4417
1475.506	4372
1477.727	4366
1479.949	4350
1482.169	4294
1484.389	4298
1486.609	4348
1488.828	4378
1491.045	4354
1493.261	4304
1495.477	4304
1497.693	4309
1499.91	4318
1502.125	4323
1504.339	4250
1506.553	4293
1508.766	4287
1510.979	4265
1513.191	4348
1515.402	4261
1517.613	4246
1519.823	4228
1522.033	4325
1524.242	4186
1526.451	4302
1528.657	4207
1530.865	4300
1533.072	4296
1535.278	4281
1537.484	4322
1539.687	4401
1541.892	4331
1544.096	4310
1546.299	4286
1548.502	4268
1550.703	4301
1552.905	4295
1555.104	4373
1557.303	4341
1559.505	4365
1561.703	4354
1563.902	4358
1566.099	4333
1568.295	4354
1570.494	4292
1572.689	4416
1574.883	4376
1577.079	4497
1579.272	4348
1581.467	4382
1583.659	4329
1585.853	4415
1588.044	4383
1590.234	4389
1592.424	4366
1594.615	4437
1596.806	4453
1598.994	4472
1601.182	4378
1603.369	4411
1605.557	4474
1607.744	4326
1609.929	4390
1612.114	4508
1614.298	4527
1616.482	4443
1618.667	4499
1620.85	4452
1623.032	4521
1625.214	4429
1627.395	4526
1629.575	4520
1631.755	4451
1633.935	4562
1636.114	4474
1638.292	4534
1640.471	4494
1642.647	4414
1644.823	4505
1647	4516
1649.175	4593
1651.348	4553
1653.525	4582
1655.698	4588
1657.87	4572
1660.043	4506
1662.213	4574
1664.387	4521
1666.558	4574
1668.727	4563
1670.896	4525
1673.064	4545
1675.233	4567
1677.401	4554
1679.569	4485
1681.735	4545
1683.902	4579
1686.066	4526
1688.233	4542
1690.397	4546
1692.559	4419
1694.723	4429
1696.885	4534
1699.048	4529
1701.21	4505
1703.37	4488
1705.53	4562
1707.689	4474
1709.849	4423
1712.009	4396
1714.166	4502
1716.323	4506
1718.479	4420
1720.634	4408
1722.793	4454
1724.948	4480
1727.102	4430
1729.255	4433
1731.408	4495
1733.562	4590
1735.714	4438
1737.865	4517
1740.016	4578
1742.166	4471
1744.316	4414
1746.467	4466
1748.616	4514
1750.764	4370
1752.911	4537
1755.056	4506
1757.205	4482
1759.35	4482
1761.496	4444
1763.641	4494
1765.785	4518
1767.927	4575
1770.072	4528
1772.214	4568
1774.355	4480
1776.496	4502
1778.637	4522
1780.778	4598
1782.918	4549
1785.057	4447
1787.194	4493
1789.333	4490
1791.472	4525
1793.608	4559
1795.745	4630
1797.879	4482
1800.015	4462
1802.148	4484
1804.284	4497
1806.417	4570
1808.548	4536
1810.682	4517
1812.812	4598
1814.946	4589
1817.075	4510
1819.205	4501
1821.335	4476
1823.463	4557
1825.59	4577
1827.721	4483
1829.847	4557
1831.973	4514
1834.098	4520
1836.223	4505
1838.351	4517
1840.475	4570
1842.598	4513
1844.721	4577
1846.843	4497
1848.966	4623
1851.087	4468
1853.21	4455
1855.33	4512
1857.449	4439
1859.568	4581
1861.688	4484
1863.806	4466
1865.924	4516
1868.039	4525
1870.155	4571
1872.273	4440
1874.388	4542
1876.503	4509
1878.617	4513
1880.73	4510
1882.844	4620
1884.956	4619
1887.068	4558
1889.18	4588
1891.291	4512
1893.4	4460
1895.511	4544
1897.621	4509
1899.73	4494
1901.837	4503
1903.944	4635
1906.053	4637
1908.159	4564
1910.265	4595
1912.369	4626
1914.474	4481
1916.577	4537
1918.683	4618
1920.785	4670
1922.888	4578
1924.989	4615
1927.091	4473
1929.193	4617
1931.294	4691
1933.393	4592
1935.493	4593
1937.59	4605
1939.689	4598
1941.788	4593
1943.884	4515
1945.98	4673
1948.077	4552
1950.171	4698
1952.267	4660
1954.361	4543
1956.455	4644
1958.548	4666
1960.64	4651
1962.733	4567
1964.824	4653
1966.915	4559
1969.005	4645
1971.096	4596
1973.185	4575
1975.275	4578
1977.363	4564
1979.45	4599
1981.537	4654
1983.623	4773
1985.711	4586
1987.796	4687
1989.881	4613
1991.965	4607
1994.047	4573
1996.132	4550
1998.215	4603
2000.297	4667
2002.378	4656
2004.46	4617
2006.54	4526
2008.62	4725
2010.7	4666
2012.779	4707
2014.858	4518
2016.934	4518
2019.013	4541
2021.09	4619
2023.165	4608
2025.241	4592
2027.317	4588
2029.39	4621
2031.466	4604
2033.538	4603
2035.612	4576
2037.683	4580
2039.755	4557
2041.827	4600
2043.898	4617
2045.968	4622
2048.038	4585
2050.106	4627
2052.177	4619
2054.244	4651
2056.313	4574
2058.379	4561
2060.444	4681
2062.511	4630
2064.577	4549
2066.641	4635
2068.705	4633
2070.77	4664
2072.832	4618
2074.896	4559
2076.958	4585
2079.02	4586
2081.081	4647
2083.141	4612
2085.2	4584
2087.261	4659
2089.319	4629
2091.377	4689
2093.435	4696
2095.492	4634
2097.552	4634
2099.607	4619
2101.663	4674
2103.718	4671
2105.771	4699
2107.826	4611
2109.879	4603
2111.932	4623
2113.985	4682
2116.037	4620
2118.088	4700
2120.141	4583
2122.191	4631
2124.239	4652
2126.288	4560
2128.337	4643
2130.387	4609
2132.434	4591
2134.481	4598
2136.528	4681
2138.574	4693
2140.618	4663
2142.665	4615
2144.71	4621
2146.753	4558
2148.797	4645
2150.838	4715
2152.883	4590
2154.923	4608
2156.965	4636
2159.007	4534
2161.046	4673
2163.086	4606
2165.126	4612
2167.163	4628
2169.202	4624
2171.239	4558
2173.277	4511
2175.314	4579
2177.349	4572
2179.385	4664
2181.42	4615
2183.453	4525
2185.49	4540
2187.522	4592
2189.555	4473
2191.586	4526
2193.619	4659
2195.651	4544
2197.682	4531
2199.711	4486
2201.74	4520
2203.769	4504
2205.799	4524
2207.828	4506
2209.855	4494
2211.882	4542
2213.908	4584
2215.934	4597
2217.961	4500
2219.986	4573
2222.01	4491
2224.034	4512
2226.057	4603
2228.08	4500
2230.104	4559
2232.124	4627
2234.145	4522
2236.166	4604
2238.186	4606
2240.207	4597
2242.227	4478
2244.244	4481
2246.262	4597
2248.28	4477
2250.299	4491
2252.314	4532
2254.33	4605
2256.346	4571
2258.36	4552
2260.375	4539
2262.391	4534
2264.403	4538
2266.416	4510
2268.427	4593
2270.44	4471
2272.453	4566
2274.463	4488
2276.474	4499
2278.483	4510
2280.493	4597
2282.501	4585
2284.51	4603
2286.518	4523
2288.524	4581
2290.532	4599
2292.537	4507
2294.544	4550
2296.55	4609
2298.554	4531
2300.557	4550
2302.562	4592
2304.566	4580
2306.568	4562
2308.569	4559
2310.572	4556
2312.573	4542
2314.573	4543
2316.574	4550
2318.573	4466
2320.571	4552
2322.571	4567
2324.569	4535
2326.567	4536
2328.564	4487
2330.56	4521
2332.556	4510
2334.551	4557
2336.546	4492
2338.542	4480
2340.535	4501
2342.529	4525
2344.521	4540
2346.512	4486
2348.505	4522
2350.497	4578
2352.487	4459
2354.478	4456
2356.468	4497
2358.457	4422
2360.446	4514
2362.434	4467
2364.422	4484
2366.408	4530
2368.395	4516
2370.383	4593
2372.369	4487
2374.353	4521
2376.338	4520
2378.321	4594
2380.307	4541
2382.29	4464
2384.272	4481
2386.254	4529
2388.235	4446
2390.218	4471
2392.198	4456
2394.179	4438
2396.157	4477
2398.137	4445
2400.115	4500
2402.095	4485
2404.072	4455
2406.048	4427
2408.026	4424
2410.001	4558
2411.977	4433
2413.953	4529
2415.927	4516
2417.9	4433
2419.875	4468
2421.847	4436
2423.821	4469
2425.792	4483
2427.763	4517
2429.736	4462
2431.706	4408
2433.677	4466
2435.646	4354
2437.615	4454
2439.583	4438
2441.551	4465
2443.519	4417
2445.486	4509
2447.452	4427
2449.418	4577
2451.383	4487
2453.348	4336
2455.314	4507
2457.278	4429
2459.241	4509
2461.205	4421
2463.167	4410
2465.131	4351
2467.091	4395
2469.052	4479
2471.012	4496
2472.972	4523
2474.932	4453
2476.891	4454
2478.85	4431
2480.808	4305
2482.766	4477
2484.722	4447
2486.68	4430
2488.636	4431
2490.591	4422
2492.546	4467
2494.5	4357
2496.456	4321
2498.41	4457
2500.362	4436
2502.315	4388
2504.266	4454
2506.218	4420
2508.169	4381
2510.121	4448
2512.07	4400
2514.019	4440
2515.968	4389
2517.918	4461
2519.866	4420
2521.813	4306
2523.76	4435
2525.707	4413
2527.653	4391
2529.599	4414
2531.543	4354
2533.489	4362
2535.433	4333
2537.376	4373
2539.32	4376
2541.264	4365
2543.205	4366
2545.147	4336
2547.087	4426
2549.029	4417
2550.969	4493
2552.908	4494
2554.847	4419
2556.786	4443
2558.724	4385
2560.663	4422
2562.6	4385
2564.537	4484
2566.473	4432
2568.408	4254
2570.345	4456
2572.28	4336
2574.214	4365
2576.148	4356
2578.081	4381
2580.014	4388
2581.947	4379
2583.879	4398
2585.81	4439
2587.741	4505
2589.67	4449
2591.602	4440
2593.532	4465
2595.461	4388
2597.388	4415
2599.316	4427
2601.244	4430
2603.172	4408
2605.098	4420
2607.023	4477
2608.949	4377
2610.873	4504
2612.8	4541
2614.723	4445
2616.647	4343
2618.569	4418
2620.493	4379
2622.416	4454
2624.338	4421
2626.258	4393
2628.179	4482
2630.099	4421
2632.019	4472
2633.939	4448
2635.857	4491
2637.775	4482
2639.694	4430
2641.61	4400
2643.528	4435
2645.444	4465
2647.361	4528
2649.276	4473
2651.19	4381
2653.105	4433
2655.019	4438
2656.934	4396
2658.846	4425
2660.758	4412
2662.67	4415
2664.583	4362
2666.493	4422
2668.404	4395
2670.313	4477
2672.223	4431
2674.134	4431
2676.042	4437
2677.95	4418
2679.858	4465
2681.765	4459
2683.673	4486
2685.579	4411
2687.483	4410
2689.389	4448
2691.294	4425
2693.198	4440
2695.104	4429
2697.006	4375
2698.909	4315
2700.811	4405
2702.713	4344
2704.615	4443
2706.516	4418
2708.417	4543
2710.316	4410
2712.216	4414
2714.115	4489
2716.014	4432
2717.913	4357
2719.81	4346
2721.707	4403
2723.603	4420
2725.501	4329
2727.396	4312
2729.292	4375
2731.186	4410
2733.081	4423
2734.976	4304
2736.87	4391
2738.762	4352
2740.653	4417
2742.546	4363
2744.437	4428
2746.329	4316
2748.22	4350
2750.11	4310
2751.999	4331
2753.889	4317
2755.778	4335
2757.666	4326
2759.553	4421
2761.44	4399
2763.328	4371
2765.215	4322
2767.101	4417
2768.986	4333
2770.87	4391
2772.754	4329
2774.638	4320
2776.523	4375
2778.405	4443
2780.288	4459
2782.17	4361
2784.051	4322
2785.934	4395
2787.814	4324
2789.694	4421
2791.574	4334
2793.453	4449
2795.332	4338
2797.212	4477
2799.088	4373
2800.966	4368
2802.843	4256
2804.719	4320
2806.597	4250
2808.471	4396
2810.346	4356
2812.221	4330
2814.094	4403
2815.969	4319
2817.843	4357
2819.714	4396
2821.587	4301
2823.459	4339
2825.329	4349
2827.202	4388
2829.072	4283
2830.942	4414
2832.811	4311
2834.68	4310
2836.549	4335
2838.418	4287
2840.284	4498
2842.152	4365
2844.018	4357
2845.885	4330
2847.751	4394
2849.616	4395
2851.482	4394
2853.345	4528
2855.208	4315
2857.074	4363
2858.937	4456
2860.799	4462
2862.66	4405
2864.522	4518
2866.385	4528
2868.245	4462
2870.104	4559
2871.964	4444
2873.824	4523
2875.683	4575
2877.542	4605
2879.4	4637
2881.257	4598
2883.114	4646
2884.97	4656
2886.827	4602
2888.683	4659
2890.537	4675
2892.392	4583
2894.246	4673
2896.1	4662
2897.954	4731
2899.807	4647
2901.66	4723
2903.51	4633
2905.362	4627
2907.214	4599
2909.065	4692
2910.915	4637
2912.765	4562
2914.613	4685
2916.463	4819
2918.311	4889
2920.158	4820
2922.006	4873
2923.853	4908
2925.698	4828
2927.546	4967
2929.392	4918
2931.236	4937
2933.081	4982
2934.924	5015
2936.77	4974
2938.613	5087
2940.455	5037
2942.298	5067
2944.139	5160
2945.982	5156
2947.823	5120
2949.662	5191
2951.503	5138
2953.342	5122
2955.182	4991
2957.021	5052
2958.858	5013
2960.697	4957
2962.534	4968
2964.37	4953
2966.207	4879
2968.044	4781
2969.879	4838
2971.714	4736
2973.548	4682
2975.383	4756
2977.218	4695
2979.051	4807
2980.883	4756
2982.715	4671
2984.547	4668
2986.379	4691
2988.21	4557
2990.04	4525
2991.87	4573
2993.7	4489
2995.53	4549
2997.359	4497
2999.187	4462
3001.015	4447
3002.842	4427
3004.669	4462
3006.497	4366
3008.323	4363
3010.148	4398
3011.974	4302
3013.797	4353
3015.623	4358
3017.447	4183
3019.27	4221
3021.094	4272
3022.915	4376
3024.737	4265
3026.56	4220
3028.38	4171
3030.201	4180
3032.022	4139
3033.84	4215
3035.662	4219
3037.481	4203
3039.298	4249
3041.117	4159
3042.933	4212
3044.752	4245
3046.568	4126
3048.385	4202
3050.2	4279
3052.016	4188
3053.83	4240
3055.646	4159
3057.46	4164
3059.272	4201
3061.086	4175
3062.898	4148
3064.711	4175
3066.524	4232
3068.335	4124
3070.145	4145
3071.956	4179
3073.766	4106
3075.576	4146
3077.385	4079
3079.193	4289
3081.002	4121
3082.81	4075
3084.618	4031
3086.425	4091
3088.231	4068
3090.036	4133
3091.842	4101
3093.648	4055
3095.452	4026
3097.257	4128
3099.06	4088
3100.863	4075
3102.666	4134
3104.47	4100
3106.272	4059
3108.073	4095
3109.875	4050
3111.676	4008
3113.477	4124
3115.277	4076
3117.077	4055
3118.874	4046
3120.673	4047
3122.473	4003
3124.271	3934
3126.066	4069
3127.863	4077
3129.66	4054
3131.456	3990
3133.252	4056
3135.047	4056
3136.842	3983
3138.635	4054
3140.429	4083
3142.223	4008
3144.016	4020
3145.808	3970
3147.6	3951
3149.392	4075
3151.183	4022
3152.975	3969
3154.765	4034
3156.553	4044
3158.344	4009
3160.132	3976
3161.922	3885
3163.71	3935
3165.497	4047
3167.285	4049
3169.071	3970
3170.858	4037
3172.645	4014
3174.429	3969
3176.214	3999
3177.998	4020
3179.783	3932
3181.568	3915
3183.351	3976
3185.133	3974
3186.915	4015
3188.698	3968
3190.481	3962
3192.261	3907
3194.042	4019
3195.822	3954
3197.601	3973
3199.381	3988
3201.161	3956
3202.939	3929
3204.717	3774
3206.495	3993
3208.272	3949
3210.05	3944
3211.826	3940
3213.602	3902
3215.376	3906
3217.151	3946
3218.927	3912
3220.702	3966
3222.476	3954
3224.249	3876
3226.021	4074
3227.793	3877
3229.567	3950
3231.339	3926
3233.109	3876
3234.88	3929
3236.651	3878
3238.421	3830
3240.191	3920
3241.96	3951
3243.728	3915
3245.497	3932
3247.263	3968
3249.033	3853
3250.799	3912
3252.566	3844
3254.331	3915
3256.097	3919
3257.863	3912
3259.628	3845
3261.392	3947
3263.156	3996
3264.919	3917
3266.683	3876
3268.447	3896
3270.208	3921
3271.969	3963
3273.731	4017
3275.492	3930
3277.253	3933
3279.013	3885
3280.773	3957
3282.532	3911
3284.291	3996
3286.05	3922
3287.808	3846
3289.566	3918
3291.323	3920
3293.079	3954
3294.835	3862
3296.593	3929
3298.348	3845
3300.102	3905
3301.857	3986
3303.611	3853
3305.366	3906
3307.119	3891
3308.872	3941
3310.624	4000
3312.376	3988
3314.129	3939
3315.881	3932
3317.631	3951
3319.38	3958
3321.13	3860
3322.88	3920
3324.631	3936
3326.379	3891
3328.126	3988
3329.875	3921
3331.622	3964
3333.371	3899
3335.116	3938
3336.863	3876
3338.609	3880
3340.353	3903
3342.1	3931
3343.845	3837
3345.588	3874
3347.332	3871
3349.074	3838
3350.817	3897
3352.56	3849
3354.303	3897
3356.043	3849
3357.785	3892
3359.525	3842
3361.268	3922
3363.007	3905
3364.745	3888
3366.485	3829
3368.223	3884
3369.962	3864
3371.701	3882
3373.438	3885
3375.174	3901
3376.911	3801
3378.647	3822
3380.384	3788
3382.118	3757
3383.854	3827
3385.588	3749
3387.322	3883
3389.057	3832
3390.79	3764
3392.522	3803
3394.255	3868
3395.987	3799
3397.719	3813
3399.451	3744
3401.181	3846
3402.911	3788
3404.641	3860
3406.371	3724
3408.101	3809
3409.83	3842
3411.558	3773
3413.285	3791
3415.011	3812
3416.739	3752
3418.467	3837
3420.193	3762
3421.919	3743
3423.644	3799
3425.368	3731
3427.094	3696
3428.818	3769
3430.542	3741
3432.264	3847
3433.987	3696
3435.712	3763
3437.434	3826
3439.155	3692
3440.876	3713
3442.596	3766
3444.317	3805
3446.039	3770
3447.757	3699
3449.477	3734
3451.195	3660
3452.914	3700
3454.632	3759
3456.35	3721
3458.067	3612
3459.784	3701
3461.5	3741
3463.216	3639
3464.932	3657
3466.647	3722
3468.362	3649
3470.076	3670
3471.789	3676
3473.505	3645
3475.217	3693
3476.929	3663
3478.641	3670
3480.354	3660
3482.066	3691
3483.777	3627
3485.487	3698
3487.197	3713
3488.908	3560
3490.617	3657
3492.327	3620
3494.035	3627
3495.743	3699
3497.451	3610
3499.158	3571
3500.866	3657
3502.572	3633
3504.278	3616
3505.984	3633
3507.689	3628
3509.396	3609
3511.1	3561
3512.804	3521
3514.508	3542
3516.211	3598
3517.913	3597
3519.616	3587
3521.319	3558
3523.021	3533
3524.722	3552
3526.422	3615
3528.124	3580
3529.824	3524
3531.524	3571
3533.222	3516
3534.921	3529
3536.62	3580
3538.318	3603
3540.016	3567
3541.714	3547
3543.41	3614
3545.107	3537
3546.803	3559
3548.5	3520
3550.194	3575
3551.889	3563
3553.583	3491
3555.279	3578
3556.972	3496
3558.666	3468
3560.358	3537
3562.051	3498
3563.742	3590
3565.435	3490
3567.126	3457
3568.817	3484
3570.507	3475
3572.197	3540
3573.888	3471
3575.577	3505
3577.265	3464
3578.954	3543
3580.642	3491
3582.329	3496
3584.017	3528
3585.704	3459
3587.391	3444
3589.077	3446
3590.762	3379
3592.449	3402
3594.133	3441
3595.817	3405
3597.501	3443
3599.185	3431
3600.869	3430
3602.552	3475
3604.234	3433
3605.916	3411
3607.598	3383
3609.279	3347
3610.961	3394
3612.642	3458
3614.321	3430
3616	3439
3617.68	3335
3619.36	3410
3621.039	3355
3622.716	3292
3624.394	3358
3626.071	3341
3627.748	3340
3629.425	3319
3631.102	3228
3632.778	3303
3634.452	3323
3636.127	3367
3637.803	3306
3639.477	3385
3641.151	3291
3642.823	3308
3644.497	3350
3646.171	3334
3647.842	3338
3649.515	3253
3651.185	3374
3652.857	3265
3654.527	3335
3656.198	3316
3657.868	3248
3659.537	3382
3661.207	3279
3662.875	3229
3664.544	3359
3666.212	3286
3667.879	3300
3669.546	3325
3671.212	3326
3672.88	3246
3674.546	3303
3676.211	3321
3677.875	3156
3679.541	3291
3681.205	3271
3682.87	3274
3684.533	3178
3686.196	3263
3687.859	3252
3689.521	3278
3691.184	3173
3692.845	3295
3694.507	3244
3696.167	3229
3697.827	3234
3699.487	3206
3701.148	3251
3702.808	3261
3704.466	3154
3706.125	3195
3707.783	3236
3709.442	3219
3711.099	3264
3712.757	3284
3714.412	3272
3716.068	3172
3717.725	3181
3719.381	3217
3721.036	3244
3722.689	3189
3724.344	3252
3725.998	3181
3727.652	3204
3729.305	3240
3730.958	3258
3732.61	3166
3734.262	3254
3735.915	3189
3737.565	3217
3739.217	3155
3740.866	3164
3742.516	3200
3744.165	3238
3745.816	3186
3747.464	3189
3749.113	3148
3750.761	3107
3752.409	3167
3754.057	3181
3755.703	3190
3757.35	3243
3758.996	3147
3760.641	3124
3762.289	3119
3763.933	3204
3765.577	3179
3767.222	3195
3768.865	3221
3770.508	3146
3772.152	3173
3773.796	3157
3775.438	3139
3777.079	3187
3778.721	3160
3780.363	3154
3782.003	3128
3783.643	3123
3785.283	3173
3786.923	3109
3788.563	3127
3790.203	3092
3791.841	3165
3793.479	3106
3795.115	3128
3796.753	3133
3798.391	3096
3800.027	3166
3801.664	3105
3803.299	3124
3804.935	3063
3806.571	3115
3808.206	3059
3809.839	3038
3811.473	3118
3813.107	3087
3814.74	3086
3816.375	3063
3818.006	3010
3819.638	3071
3821.27	3058
3822.9	3125
3824.532	3094
3826.163	3070
3827.792	3049
3829.423	2994
3831.051	3050
3832.682	3082
3834.311	3082
3835.938	3078
3837.566	2990
3839.193	3037
3840.821	3043
3842.448	3013
3844.075	2985
3845.7	3037
3847.325	3047
3848.951	3012
3850.576	2979
3852.201	3022
3853.825	3067
3855.448	3023
3857.072	3051
3858.694	2963
3860.318	2996
3861.939	3069
3863.562	3001
3865.183	3010
3866.804	2978
3868.426	2923
3870.045	3017
3871.666	3056
3873.285	3032
3874.904	2953
3876.524	3052
3878.142	2901
3879.76	3036
3881.378	2980
3882.995	2857
3884.612	2960
3886.229	2991
3887.845	2971
3889.461	2950
3891.076	2998
3892.691	2979
3894.307	2994
3895.922	3031
3897.536	2953
3899.149	2969
3900.761	2946
3902.374	2908
3903.988	2996
3905.6	2966
3907.212	2918
3908.822	2953
3910.433	2950
3912.045	2910
3913.655	2960
3915.265	2978
3916.875	2998
3918.483	2946
3920.093	2997
3921.702	2964
3923.309	2917
3924.917	2943
3926.523	2928
3928.13	2933
3929.739	2981
3931.344	2945
3932.95	2927
3934.555	2941
3936.159	2942
3937.766	2996
3939.369	2939
3940.974	2927
3942.577	2927
3944.181	2901
3945.783	2945
3947.386	2955
3948.989	2940
3950.59	2944
3952.191	2878
3953.791	2911
3955.394	2997
3956.994	2912
3958.593	2926
3960.192	2883
3961.791	2903
3963.392	2931
3964.99	2892
3966.588	2936
3968.185	2898
3969.782	2896
3971.379	2868
3972.976	2937
3974.572	2779
3976.168	2958
3977.763	2813
3979.358	2835
3980.954	2848
3982.548	2878
3984.142	2938
3985.736	2894
3987.329	2915
3988.922	2838
3990.516	2880
3992.108	2883
3993.698	2876
3995.29	2820
3996.881	2799
3998.473	2905
4000.064	2807
4001.653	2841
4003.242	2766
4004.832	2799
4006.422	2814
4008.01	2765
4009.598	2804
4011.186	2761
4012.773	2848
4014.36	2769
4015.947	2828
4017.534	2775
4019.119	2748
4020.705	2770
4022.291	2785
4023.876	2865
4025.461	2756
4027.044	2783
4028.627	2705
4030.211	2766
4031.795	2739
4033.378	2820
4034.96	2840
4036.542	2760
4038.124	2806
4039.704	2748
4041.286	2725
4042.867	2803
4044.447	2757
4046.026	2722
4047.606	2704
4049.187	2752
4050.765	2678
4052.343	2845
4053.92	2749
4055.498	2723
4057.076	2755
4058.654	2694
4060.23	2780
4061.806	2771
4063.381	2713
4064.957	2733
4066.533	2680
4068.107	2655
4069.682	2731
4071.256	2702
4072.829	2739
4074.404	2731
4075.977	2658
4077.549	2738
4079.121	2692
4080.693	2764
4082.265	2650
4083.836	2730
4085.407	2737
4086.977	2707
4088.547	2662
4090.117	2688
4091.687	2680
4093.256	2720
4094.825	2655
4096.392	2736
4097.96	2665
4099.528	2691
4101.097	2749
4102.663	2693
4104.229	2679
4105.795	2708
4107.361	2728
4108.928	2626
4110.493	2692
4112.058	2624
4113.621	2706
4115.186	2637
4116.75	2653
4118.313	2668
4119.876	2653
4121.438	2732
4123	2580
4124.562	2705
4126.125	2679
4127.686	2629
4129.246	2639
4130.807	2630
4132.367	2595
4133.927	2671
4135.486	2574
4137.046	2540
4138.604	2563
4140.162	2681
4141.72	2593
4143.279	2634
4144.836	2557
4146.393	2660
4147.949	2585
4149.505	2569
4151.062	2652
4152.617	2611
4154.172	2656
4155.727	2554
4157.281	2559
4158.836	2614
4160.39	2560
4161.943	2564
4163.496	2545
4165.048	2591
4166.601	2583
4168.154	2513
4169.706	2566
4171.257	2549
4172.808	2538
4174.358	2507
4175.909	2560
4177.458	2558
4179.008	2569
4180.558	2558
4182.106	2558
4183.655	2611
4185.204	2533
4186.751	2518
4188.298	2476
4189.845	2509
4191.392	2518
4192.939	2501
4194.485	2585
4196.031	2547
4197.576	2490
4199.121	2531
4200.666	2525
4202.211	2506
4203.754	2583
4205.298	2466
4206.84	2493
4208.384	2554
4209.927	2533
4211.47	2492
4213.011	2518
4214.552	2463
4216.094	2541
4217.635	2502
4219.175	2439
4220.716	2488
4222.255	2430
4223.793	2571
4225.335	2466
4226.873	2406
4228.411	2492
4229.948	2456
4231.486	2507
4233.024	2473
4234.562	2418
4236.098	2527
4237.634	2484
4239.169	2502
4240.705	2460
4242.241	2439
4243.776	2463
4245.31	2539
4246.844	2456
4248.378	2391
4249.911	2508
4251.445	2445
4252.978	2505
4254.51	2426
4256.042	2463
4257.574	2491
4259.107	2423
4260.638	2453
4262.169	2459
4263.699	2453
4265.228	2397
4266.759	2510
4268.289	2457
4269.818	2466
4271.345	2435
4272.874	2402
4274.402	2499
4275.931	2457
4277.458	2473
4278.985	2433
4280.512	2495
4282.037	2412
4283.564	2476
4285.089	2384
4286.615	2426
4288.139	2437
4289.664	2365
4291.187	2398
4292.712	2451
4294.235	2405
4295.759	2454
4297.281	2360
4298.804	2444
4300.327	2415
4301.849	2448
4303.37	2456
4304.891	2419
4306.412	2387
4307.933	2379
4309.453	2438
4310.973	2413
4312.492	2429
