398.1873	3356
400.7097	3375
403.2336	3299
405.7547	3348
408.2751	3421
410.7948	3312
413.3138	3336
415.83	3369
418.3497	3363
420.8666	3438
423.3829	3457
425.8985	3417
428.4133	3454
430.9275	3573
433.441	3390
435.9538	3533
438.4639	3476
440.9753	3566
443.4881	3529
445.9982	3612
448.5055	3538
451.0142	3475
453.5201	3543
456.0274	3584
458.5361	3522
461.04	3535
463.5453	3572
466.0478	3525
468.5517	3537
471.0549	3512
473.5574	3514
476.0572	3492
478.5584	3540
481.0568	3605
483.5545	3610
486.0557	3646
488.5521	3646
491.0478	3498
493.5449	3619
496.0392	3618
498.5349	3684
501.0299	3648
503.5222	3675
506.0139	3636
508.5048	3680
510.9991	3695
513.4887	3668
515.9777	3628
518.4659	3713
520.9534	3617
523.4403	3629
525.9306	3661
528.4161	3752
530.9009	3704
533.3851	3613
535.8687	3691
538.3535	3689
540.8356	3696
543.3171	3609
545.7979	3636
548.278	3666
550.7595	3709
553.2383	3774
555.7144	3775
558.1918	3676
560.6685	3664
563.1446	3772
565.6221	3744
568.0968	3809
570.5688	3781
573.0422	3844
575.515	3765
577.989	3876
580.4584	3781
582.9291	3771
585.3991	3750
587.8685	3786
590.3352	3868
592.8052	3811
595.2706	3802
597.7372	3772
600.2033	3755
602.6666	3747
605.1334	3780
607.5953	3818
610.0587	3706
612.5193	3780
614.9814	3766
617.4427	3881
619.9034	3777
622.3615	3825
624.8208	3837
627.2775	3758
629.7335	3787
632.1929	3821
634.6476	3825
637.1016	3779
639.5569	3773
642.0096	3742
644.4637	3830
646.9151	3839
649.3678	3819
651.8179	3867
654.2672	3799
656.7159	3902
659.166	3836
661.6154	3829
664.0622	3830
666.5082	3938
668.9537	3895
671.4005	3808
673.8445	3807
676.288	3901
678.7308	3924
681.1729	3901
683.6163	3872
686.0572	3921
688.4973	3893
690.9368	3929
693.3757	3895
695.8138	3934
698.2534	3994
700.6902	3847
703.1245	3888
705.56	3912
707.9949	3983
710.4311	4042
712.8647	3913
715.2957	4025
717.7279	4051
720.1595	4000
722.5905	3972
725.0208	3969
727.4505	3981
729.8795	4027
732.3058	4047
734.7336	4048
737.1626	4042
739.587	4129
742.0128	4035
744.4359	4111
746.8604	4108
749.2841	4136
751.7073	4095
754.1278	4222
756.5496	4192
758.9688	4133
761.3893	4226
763.8093	4225
766.2285	4245
768.6451	4203
771.0611	4179
773.4784	4147
775.895	4256
778.3091	4235
780.7244	4160
783.1371	4241
785.5493	4206
787.9626	4091
790.3754	4166
792.7856	4215
795.1951	4176
797.6039	4169
800.0121	4138
802.4236	4254
804.8306	4204
807.2369	4167
809.6425	4300
812.0475	4178
814.4538	4170
816.8575	4194
819.2606	4243
821.663	4141
824.0648	4220
826.4659	4138
828.8683	4172
831.2682	4284
833.6674	4328
836.066	4303
838.4639	4279
840.8632	4324
843.2579	4297
845.6539	4257
848.0493	4320
850.444	4255
852.84	4381
855.2315	4353
857.6243	4343
860.0165	4300
862.4081	4318
864.797	4220
867.1892	4276
869.5789	4391
871.9659	4350
874.3542	4250
876.74	4325
879.129	4276
881.5155	4254
883.8994	4307
886.2845	4346
888.6671	4270
891.051	4301
893.4343	4309
895.8169	4407
898.197	4307
900.5783	4281
902.9571	4259
905.3372	4322
907.7167	4379
910.0936	4306
912.4698	4347
914.8474	4444
917.2244	4390
919.5987	4488
921.9744	4387
924.3475	4424
926.72	4477
929.0918	4379
931.4669	4469
933.8375	4480
936.2074	4430
938.5767	4520
940.9454	4577
943.3154	4614
945.6829	4650
948.0497	4785
950.4178	4885
952.7833	4869
955.1483	4995
957.5145	5179
959.8782	5239
962.2412	5221
964.6036	5252
966.9655	4928
969.3266	4935
971.6871	4807
974.0471	4690
976.4064	4515
978.765	4474
981.125	4450
983.4824	4459
985.8373	4502
988.1935	4390
990.549	4429
992.9039	4441
995.2602	4493
997.6119	4363
999.965	4450
1002.317	4458
1004.667	4440
1007.02	4470
1009.371	4461
1011.719	4423
1014.068	4450
1016.415	4497
1018.765	4453
1021.111	4517
1023.458	4556
1025.804	4507
1028.147	4520
1030.49	4479
1032.837	4554
1035.179	4535
1037.522	4624
1039.862	4569
1042.204	4528
1044.546	4515
1046.884	4605
1049.224	4561
1051.562	4566
1053.899	4522
1056.237	4567
1058.575	4513
1060.91	4592
1063.244	4608
1065.58	4663
1067.913	4659
1070.248	4639
1072.579	4637
1074.911	4654
1077.242	4558
1079.572	4638
1081.905	4616
1084.234	4570
1086.562	4525
1088.89	4546
1091.217	4592
1093.544	4603
1095.871	4575
1098.197	4616
1100.521	4573
1102.845	4549
1105.169	4530
1107.491	4586
1109.814	4607
1112.135	4583
1114.456	4575
1116.776	4651
1119.096	4672
1121.415	4622
1123.734	4519
1126.052	4649
1128.369	4637
1130.686	4622
1133.002	4698
1135.318	4609
1137.632	4674
1139.945	4580
1142.258	4589
1144.573	4664
1146.884	4650
1149.196	4573
1151.505	4657
1153.816	4662
1156.124	4674
1158.435	4652
1160.742	4680
1163.051	4665
1165.356	4672
1167.663	4674
1169.97	4725
1172.276	4722
1174.579	4626
1176.881	4669
1179.186	4609
1181.487	4602
1183.79	4609
1186.092	4634
1188.392	4702
1190.691	4666
1192.991	4666
1195.291	4547
1197.588	4553
1199.885	4622
1202.181	4601
1204.479	4612
1206.775	4668
1209.07	4712
1211.363	4672
1213.656	4596
1215.949	4673
1218.241	4719
1220.534	4609
1222.825	4637
1225.115	4847
1227.405	4711
1229.693	4775
1231.984	4719
1234.271	4782
1236.558	4683
1238.845	4779
1241.131	4740
1243.416	4703
1245.703	4783
1247.987	4744
1250.269	4805
1252.552	4744
1254.834	4729
1257.118	4813
1259.399	4716
1261.678	4713
1263.958	4815
1266.237	4765
1268.516	4764
1270.794	4743
1273.072	4880
1275.347	4886
1277.624	4812
1279.899	4771
1282.175	4763
1284.449	4809
1286.722	4706
1288.995	4755
1291.266	4760
1293.54	4849
1295.81	4787
1298.081	4682
1300.35	4770
1302.62	4701
1304.889	4757
1307.156	4755
1309.425	4777
1311.69	4765
1313.957	4725
1316.222	4859
1318.488	4614
1320.751	4706
1323.016	4711
1325.278	4684
1327.54	4801
1329.803	4815
1332.065	4853
1334.325	4798
1336.584	4827
1338.843	4719
1341.101	4753
1343.36	4776
1345.617	4835
1347.876	4731
1350.131	4844
1352.387	4799
1354.643	4824
1356.897	4770
1359.151	4740
1361.403	4741
1363.656	4840
1365.909	4803
1368.16	4848
1370.409	4760
1372.659	4724
1374.909	4804
1377.157	4804
1379.407	4760
1381.655	4877
1383.9	4817
1386.147	4807
1388.393	4822
1390.64	4929
1392.885	4859
1395.127	4855
1397.37	4905
1399.614	4862
1401.854	4982
1404.098	4894
1406.339	4992
1408.578	4895
1410.818	4866
1413.056	4919
1415.297	4919
1417.533	4995
1419.771	4862
1422.006	4953
1424.243	4955
1426.479	4980
1428.715	4872
1430.948	4893
1433.182	4985
1435.414	4901
1437.647	4870
1439.88	5006
1442.11	4910
1444.342	5041
1446.571	4984
1448.799	5040
1451.029	5030
1453.258	5019
1455.485	4990
1457.711	5065
1459.937	5033
1462.164	5090
1464.39	4974
1466.614	4974
1468.838	5039
1471.06	4922
1473.283	4962
1475.506	4860
1477.727	4940
1479.949	4878
1482.169	4859
1484.389	4926
1486.609	4923
1488.828	4813
1491.045	4937
1493.261	4822
1495.477	4825
1497.693	4926
1499.91	4800
1502.125	4786
1504.339	4846
1506.553	4783
1508.766	4815
1510.979	4823
1513.191	4904
1515.402	4939
1517.613	4879
1519.823	4956
1522.033	4899
1524.242	4872
1526.451	4861
1528.657	4835
1530.865	4951
1533.072	4854
1535.278	4752
1537.484	4849
1539.687	4962
1541.892	4877
1544.096	4908
1546.299	5036
1548.502	4948
1550.703	4897
1552.905	4927
1555.104	4948
1557.303	5041
1559.505	4919
1561.703	4986
1563.902	5017
1566.099	5019
1568.295	4881
1570.494	4931
1572.689	4979
1574.883	4965
1577.079	5053
1579.272	5012
1581.467	5052
1583.659	4987
1585.853	5086
1588.044	4945
1590.234	5039
1592.424	5000
1594.615	5110
1596.806	5071
1598.994	5037
1601.182	5019
1603.369	5030
1605.557	5012
1607.744	5133
1609.929	5077
1612.114	5054
1614.298	5029
1616.482	5008
1618.667	5115
1620.85	5187
1623.032	5144
1625.214	5097
1627.395	5097
1629.575	5084
1631.755	4968
1633.935	5150
1636.114	5088
1638.292	5050
1640.471	5121
1642.647	5050
1644.823	5220
1647	5034
1649.175	5111
1651.348	5046
1653.525	5202
1655.698	5054
1657.87	5145
1660.043	5170
1662.213	5162
1664.387	5129
1666.558	5184
1668.727	5180
1670.896	5182
1673.064	5193
1675.233	5183
1677.401	5132
1679.569	5181
1681.735	5084
1683.902	5148
1686.066	5170
1688.233	5190
1690.397	5148
1692.559	5101
1694.723	5193
1696.885	5092
1699.048	5060
1701.21	5060
1703.37	5204
1705.53	5089
1707.689	5157
1709.849	5115
1712.009	5167
1714.166	5108
1716.323	5136
1718.479	5080
1720.634	5015
1722.793	5091
1724.948	5089
1727.102	5035
1729.255	5039
1731.408	5034
1733.562	5057
1735.714	5063
1737.865	5059
1740.016	5116
1742.166	5154
1744.316	5088
1746.467	5047
1748.616	5138
1750.764	5196
1752.911	5216
1755.056	5145
1757.205	5085
1759.35	5140
1761.496	5130
1763.641	5160
1765.785	5125
1767.927	5131
1770.072	5186
1772.214	5083
1774.355	5050
1776.496	5169
1778.637	5176
1780.778	5055
1782.918	5151
1785.057	5096
1787.194	5244
1789.333	5121
1791.472	5170
1793.608	5040
1795.745	5192
1797.879	5165
1800.015	5171
1802.148	5301
1804.284	5225
1806.417	5225
1808.548	5214
1810.682	5089
1812.812	5024
1814.946	5023
1817.075	5174
1819.205	5195
1821.335	5117
1823.463	5182
1825.59	5187
1827.721	5164
1829.847	5127
1831.973	5192
1834.098	5174
1836.223	5163
1838.351	5116
1840.475	5148
1842.598	5150
1844.721	5192
1846.843	5066
1848.966	5142
1851.087	5172
1853.21	5225
1855.33	5116
1857.449	5069
1859.568	5071
1861.688	5117
1863.806	5096
1865.924	5104
1868.039	5178
1870.155	5276
1872.273	5171
1874.388	5122
1876.503	5049
1878.617	5129
1880.73	5143
1882.844	5239
1884.956	5188
1887.068	5150
1889.18	5208
1891.291	5153
1893.4	5097
1895.511	5198
1897.621	5160
1899.73	5140
1901.837	5170
1903.944	5199
1906.053	5235
1908.159	5161
1910.265	5172
1912.369	5210
1914.474	5245
1916.577	5283
1918.683	5161
1920.785	5143
1922.888	5383
1924.989	5190
1927.091	5252
1929.193	5267
1931.294	5177
1933.393	5234
1935.493	5292
1937.59	5320
1939.689	5210
1941.788	5312
1943.884	5283
1945.98	5268
1948.077	5299
1950.171	5334
1952.267	5191
1954.361	5261
1956.455	5256
1958.548	5251
1960.64	5489
1962.733	5235
1964.824	5254
1966.915	5314
1969.005	5310
1971.096	5249
1973.185	5333
1975.275	5334
1977.363	5273
1979.45	5174
1981.537	5192
1983.623	5181
1985.711	5268
1987.796	5255
1989.881	5242
1991.965	5261
1994.047	5365
1996.132	5197
1998.215	5226
2000.297	5300
2002.378	5200
2004.46	5278
2006.54	5296
2008.62	5216
2010.7	5195
2012.779	5224
2014.858	5243
2016.934	5238
2019.013	5293
2021.09	5184
2023.165	5274
2025.241	5229
2027.317	5240
2029.39	5299
2031.466	5212
2033.538	5308
2035.612	5221
2037.683	5190
2039.755	5215
2041.827	5185
2043.898	5213
2045.968	5273
2048.038	5354
2050.106	5220
2052.177	5307
2054.244	5298
2056.313	5241
2058.379	5313
2060.444	5220
2062.511	5280
2064.577	5231
2066.641	5304
2068.705	5319
2070.77	5263
2072.832	5301
2074.896	5282
2076.958	5277
2079.02	5205
2081.081	5287
2083.141	5301
2085.2	5268
2087.261	5291
2089.319	5339
2091.377	5304
2093.435	5299
2095.492	5303
2097.552	5302
2099.607	5194
2101.663	5279
2103.718	5341
2105.771	5233
2107.826	5264
2109.879	5258
2111.932	5335
2113.985	5266
2116.037	5239
2118.088	5311
2120.141	5301
2122.191	5268
2124.239	5324
2126.288	5189
2128.337	5235
2130.387	5291
2132.434	5405
2134.481	5280
2136.528	5298
2138.574	5322
2140.618	5356
2142.665	5266
2144.71	5309
2146.753	5479
2148.797	5225
2150.838	5317
2152.883	5236
2154.923	5352
2156.965	5344
2159.007	5241
2161.046	5365
2163.086	5199
2165.126	5321
2167.163	5230
2169.202	5291
2171.239	5250
2173.277	5210
2175.314	5188
2177.349	5212
2179.385	5316
2181.42	5309
2183.453	5181
2185.49	5221
2187.522	5228
2189.555	5352
2191.586	5191
2193.619	5170
2195.651	5242
2197.682	5275
2199.711	5195
2201.74	5218
2203.769	5222
2205.799	5210
2207.828	5193
2209.855	5197
2211.882	5212
2213.908	5186
2215.934	5137
2217.961	5170
2219.986	5216
2222.01	5186
2224.034	5272
2226.057	5280
2228.08	5094
2230.104	5226
2232.124	5184
2234.145	5180
2236.166	5223
2238.186	5119
2240.207	5035
2242.227	5162
2244.244	5121
2246.262	5136
2248.28	5227
2250.299	5094
2252.314	5195
2254.33	5239
2256.346	5170
2258.36	5215
2260.375	5223
2262.391	5163
2264.403	5160
2266.416	5238
2268.427	5179
2270.44	5138
2272.453	5302
2274.463	5296
2276.474	5165
2278.483	5204
2280.493	5229
2282.501	5146
2284.51	5224
2286.518	5200
2288.524	5193
2290.532	5220
2292.537	5279
2294.544	5141
2296.55	5236
2298.554	5300
2300.557	5216
2302.562	5272
2304.566	5229
2306.568	5182
2308.569	5134
2310.572	5240
2312.573	5259
2314.573	5116
2316.574	5285
2318.573	5272
2320.571	5126
2322.571	5245
2324.569	5135
2326.567	5133
2328.564	5269
2330.56	5088
2332.556	5234
2334.551	5097
2336.546	5213
2338.542	5184
2340.535	5019
2342.529	5278
2344.521	5187
2346.512	5232
2348.505	5099
2350.497	5112
2352.487	5136
2354.478	5176
2356.468	5180
2358.457	5111
2360.446	5130
2362.434	5091
2364.422	5085
2366.408	5104
2368.395	5033
2370.383	5189
2372.369	5190
2374.353	5127
2376.338	5141
2378.321	5144
2380.307	5076
2382.29	5169
2384.272	5113
2386.254	5099
2388.235	5169
2390.218	5088
2392.198	5091
2394.179	5156
2396.157	5092
2398.137	5131
2400.115	5127
2402.095	5149
2404.072	5137
2406.048	5163
2408.026	5038
2410.001	4986
2411.977	5110
2413.953	5053
2415.927	5041
2417.9	5174
2419.875	5097
2421.847	5112
2423.821	5150
2425.792	4974
2427.763	5174
2429.736	5182
2431.706	4999
2433.677	5213
2435.646	5055
2437.615	5070
2439.583	5199
2441.551	5118
2443.519	5119
2445.486	5078
2447.452	4988
2449.418	5027
2451.383	5153
2453.348	5061
2455.314	5074
2457.278	5045
2459.241	5134
2461.205	5123
2463.167	5082
2465.131	5073
2467.091	5191
2469.052	4992
2471.012	5081
2472.972	5096
2474.932	5187
2476.891	5123
2478.85	4995
2480.808	5036
2482.766	4991
2484.722	4974
2486.68	5096
2488.636	4950
2490.591	5077
2492.546	4977
2494.5	4963
2496.456	5082
2498.41	5080
2500.362	5054
2502.315	5031
2504.266	4909
2506.218	5060
2508.169	5044
2510.121	5001
2512.07	5037
2514.019	4986
2515.968	5044
2517.918	5103
2519.866	4987
2521.813	5033
2523.76	5100
2525.707	4996
2527.653	4977
2529.599	4990
2531.543	5031
2533.489	5092
2535.433	5024
2537.376	4998
2539.32	4894
2541.264	5028
2543.205	4998
2545.147	5002
2547.087	5004
2549.029	4984
2550.969	5038
2552.908	5039
2554.847	5032
2556.786	5017
2558.724	5045
2560.663	5065
2562.6	5130
2564.537	5089
2566.473	4984
2568.408	5080
2570.345	4961
2572.28	5035
2574.214	4977
2576.148	5068
2578.081	4937
2580.014	4957
2581.947	5065
2583.879	5031
2585.81	5103
2587.741	5028
2589.67	5020
2591.602	5069
2593.532	5135
2595.461	5071
2597.388	5045
2599.316	5091
2601.244	5080
2603.172	5060
2605.098	5144
2607.023	5028
2608.949	5058
2610.873	5001
2612.8	4926
2614.723	4975
2616.647	5037
2618.569	5118
2620.493	4966
2622.416	5170
2624.338	5019
2626.258	5075
2628.179	5152
2630.099	5048
2632.019	5081
2633.939	4987
2635.857	5158
2637.775	5022
2639.694	5085
2641.61	5089
2643.528	5049
2645.444	5104
2647.361	5084
2649.276	5163
2651.19	5024
2653.105	5072
2655.019	5056
2656.934	5138
2658.846	5038
2660.758	5133
2662.67	5143
2664.583	5017
2666.493	5090
2668.404	5016
2670.313	5148
2672.223	4933
2674.134	5147
2676.042	5028
2677.95	5053
2679.858	5059
2681.765	5074
2683.673	5150
2685.579	5079
2687.483	5107
2689.389	5042
2691.294	5129
2693.198	5054
2695.104	4992
2697.006	4861
2698.909	5079
2700.811	5031
2702.713	5038
2704.615	5055
2706.516	5077
2708.417	5096
2710.316	5056
2712.216	5038
2714.115	4981
2716.014	4894
2717.913	5018
2719.81	5002
2721.707	5049
2723.603	4969
2725.501	5035
2727.396	4948
2729.292	4983
2731.186	5068
2733.081	4997
2734.976	5008
2736.87	5096
2738.762	4964
2740.653	4960
2742.546	5037
2744.437	5045
2746.329	4896
2748.22	5024
2750.11	5047
2751.999	4893
2753.889	4998
2755.778	4988
2757.666	4995
2759.553	4973
2761.44	4971
2763.328	4922
2765.215	5056
2767.101	4968
2768.986	4935
2770.87	4926
2772.754	5099
2774.638	5059
2776.523	5008
2778.405	5018
2780.288	5017
2782.17	4898
2784.051	4949
2785.934	4964
2787.814	4979
2789.694	4930
2791.574	5006
2793.453	5014
2795.332	4902
2797.212	5038
2799.088	4961
2800.966	5018
2802.843	4944
2804.719	5010
2806.597	4908
2808.471	4983
2810.346	4966
2812.221	5035
2814.094	5018
2815.969	4924
2817.843	4983
2819.714	4940
2821.587	4977
2823.459	4889
2825.329	4916
2827.202	4999
2829.072	4880
2830.942	4953
2832.811	4890
2834.68	4949
2836.549	5010
2838.418	5009
2840.284	5000
2842.152	4963
2844.018	4919
2845.885	4942
2847.751	4968
2849.616	4958
2851.482	4981
2853.345	4965
2855.208	5023
2857.074	5041
2858.937	5028
2860.799	4986
2862.66	5073
2864.522	5008
2866.385	5052
2868.245	5037
2870.104	5116
2871.964	5001
2873.824	5094
2875.683	5178
2877.542	5098
2879.4	5175
2881.257	5217
2883.114	5175
2884.97	5214
2886.827	5221
2888.683	5194
2890.537	5257
2892.392	5183
2894.246	5264
2896.1	5217
2897.954	5209
2899.807	5209
2901.66	5191
2903.51	5178
2905.362	5134
2907.214	5151
2909.065	5194
2910.915	5258
2912.765	5130
2914.613	5128
2916.463	5350
2918.311	5283
2920.158	5240
2922.006	5449
2923.853	5368
2925.698	5330
2927.546	5423
2929.392	5495
2931.236	5381
2933.081	5414
2934.924	5454
2936.77	5520
2938.613	5492
2940.455	5537
2942.298	5518
2944.139	5620
2945.982	5665
2947.823	5589
2949.662	5578
2951.503	5616
2953.342	5473
2955.182	5579
2957.021	5484
2958.858	5465
2960.697	5411
2962.534	5398
2964.37	5432
2966.207	5287
2968.044	5345
2969.879	5325
2971.714	5337
2973.548	5315
2975.383	5283
2977.218	5269
2979.051	5250
2980.883	5255
2982.715	5181
2984.547	5250
2986.379	5113
2988.21	5111
2990.04	5134
2991.87	5094
2993.7	5121
2995.53	5078
2997.359	5074
2999.187	5068
3001.015	5035
3002.842	4912
3004.669	5007
3006.497	4922
3008.323	4970
3010.148	5056
3011.974	4845
3013.797	4926
3015.623	4835
3017.447	4922
3019.27	4887
3021.094	4892
3022.915	4858
3024.737	4921
3026.56	4898
3028.38	4831
3030.201	4874
3032.022	4681
3033.84	4678
3035.662	4754
3037.481	4882
3039.298	4897
3041.117	4739
3042.933	4778
3044.752	4820
3046.568	4895
3048.385	4730
3050.2	4722
3052.016	4750
3053.83	4661
3055.646	4835
3057.46	4675
3059.272	4674
3061.086	4708
3062.898	4817
3064.711	4815
3066.524	4813
3068.335	4813
3070.145	4740
3071.956	4727
3073.766	4726
3075.576	4764
3077.385	4633
3079.193	4781
3081.002	4764
3082.81	4622
3084.618	4758
3086.425	4658
3088.231	4748
3090.036	4502
3091.842	4779
3093.648	4584
3095.452	4715
3097.257	4702
3099.06	4597
3100.863	4673
3102.666	4698
3104.47	4637
3106.272	4632
3108.073	4596
3109.875	4658
3111.676	4626
3113.477	4624
3115.277	4549
3117.077	4622
3118.874	4650
3120.673	4667
3122.473	4587
3124.271	4650
3126.066	4547
3127.863	4632
3129.66	4575
3131.456	4657
3133.252	4617
3135.047	4577
3136.842	4580
3138.635	4490
3140.429	4611
3142.223	4562
3144.016	4568
3145.808	4568
3147.6	4597
3149.392	4445
3151.183	4556
3152.975	4496
3154.765	4617
3156.553	4554
3158.344	4529
3160.132	4531
3161.922	4547
3163.71	4492
3165.497	4516
3167.285	4402
3169.071	4429
3170.858	4523
3172.645	4456
3174.429	4468
3176.214	4528
3177.998	4508
3179.783	4513
3181.568	4547
3183.351	4489
3185.133	4482
3186.915	4537
3188.698	4469
3190.481	4395
3192.261	4520
3194.042	4555
3195.822	4495
3197.601	4567
3199.381	4444
3201.161	4559
3202.939	4450
3204.717	4502
3206.495	4543
3208.272	4447
3210.05	4507
3211.826	4410
3213.602	4409
3215.376	4497
3217.151	4519
3218.927	4576
3220.702	4423
3222.476	4449
3224.249	4399
3226.021	4387
3227.793	4450
3229.567	4501
3231.339	4441
3233.109	4475
3234.88	4504
3236.651	4405
3238.421	4451
3240.191	4453
3241.96	4408
3243.728	4398
3245.497	4372
3247.263	4368
3249.033	4493
3250.799	4400
3252.566	4391
3254.331	4422
3256.097	4335
3257.863	4457
3259.628	4462
3261.392	4364
3263.156	4505
3264.919	4442
3266.683	4478
3268.447	4386
3270.208	4480
3271.969	4493
3273.731	4496
3275.492	4440
3277.253	4431
3279.013	4442
3280.773	4505
3282.532	4443
3284.291	4459
3286.05	4387
3287.808	4499
3289.566	4381
3291.323	4464
3293.079	4487
3294.835	4321
3296.593	4456
3298.348	4433
3300.102	4438
3301.857	4398
3303.611	4458
3305.366	4448
3307.119	4428
3308.872	4440
3310.624	4438
3312.376	4492
3314.129	4434
3315.881	4422
3317.631	4455
3319.38	4411
3321.13	4384
3322.88	4404
3324.631	4431
3326.379	4438
3328.126	4385
3329.875	4402
3331.622	4395
3333.371	4386
3335.116	4417
3336.863	4489
3338.609	4476
3340.353	4336
3342.1	4523
3343.845	4386
3345.588	4410
3347.332	4500
3349.074	4352
3350.817	4366
3352.56	4446
3354.303	4372
3356.043	4385
3357.785	4314
3359.525	4329
3361.268	4368
3363.007	4395
3364.745	4265
3366.485	4299
3368.223	4365
3369.962	4343
3371.701	4411
3373.438	4397
3375.174	4350
3376.911	4309
3378.647	4384
3380.384	4297
3382.118	4312
3383.854	4417
3385.588	4339
3387.322	4357
3389.057	4245
3390.79	4278
3392.522	4236
3394.255	4427
3395.987	4242
3397.719	4339
3399.451	4244
3401.181	4291
3402.911	4337
3404.641	4369
3406.371	4256
3408.101	4364
3409.83	4308
3411.558	4325
3413.285	4264
3415.011	4220
3416.739	4305
3418.467	4324
3420.193	4300
3421.919	4281
3423.644	4244
3425.368	4271
3427.094	4268
3428.818	4178
3430.542	4299
3432.264	4271
3433.987	4249
3435.712	4215
3437.434	4266
3439.155	4255
3440.876	4236
3442.596	4196
3444.317	4236
3446.039	4194
3447.757	4176
3449.477	4258
3451.195	4217
3452.914	4212
3454.632	4221
3456.35	4247
3458.067	4217
3459.784	4175
3461.5	4172
3463.216	4252
3464.932	4138
3466.647	4263
3468.362	4183
3470.076	4193
3471.789	4244
3473.505	4109
3475.217	4191
3476.929	4105
3478.641	4236
3480.354	4170
3482.066	4134
3483.777	4109
3485.487	4099
3487.197	4227
3488.908	4146
3490.617	4115
3492.327	4099
3494.035	4074
3495.743	4100
3497.451	4040
3499.158	4061
3500.866	4074
3502.572	4087
3504.278	4124
3505.984	4058
3507.689	4023
3509.396	4118
3511.1	4062
3512.804	4104
3514.508	4064
3516.211	4140
3517.913	4046
3519.616	4060
3521.319	4024
3523.021	4111
3524.722	4005
3526.422	4092
3528.124	3982
3529.824	4013
3531.524	3980
3533.222	4045
3534.921	3991
3536.62	3970
3538.318	3967
3540.016	3991
3541.714	3999
3543.41	4023
3545.107	4051
3546.803	3989
3548.5	4025
3550.194	3984
3551.889	3928
3553.583	3988
3555.279	4000
3556.972	3973
3558.666	4000
3560.358	3933
3562.051	4097
3563.742	3944
3565.435	4025
3567.126	4085
3568.817	3913
3570.507	4016
3572.197	3984
3573.888	4014
3575.577	3987
3577.265	3970
3578.954	3971
3580.642	3950
3582.329	3923
3584.017	3929
3585.704	3877
3587.391	3961
3589.077	3878
3590.762	3927
3592.449	3892
3594.133	3891
3595.817	3960
3597.501	3864
3599.185	3869
3600.869	3957
3602.552	3888
3604.234	3923
3605.916	3826
3607.598	3900
3609.279	3777
3610.961	3734
3612.642	3856
3614.321	3791
3616	3805
3617.68	3839
3619.36	3814
3621.039	3798
3622.716	3875
3624.394	3841
3626.071	3778
3627.748	3803
3629.425	3880
3631.102	3812
3632.778	3762
3634.452	3784
3636.127	3814
3637.803	3845
3639.477	3773
3641.151	3833
3642.823	3749
3644.497	3832
3646.171	3859
3647.842	3762
3649.515	3690
3651.185	3727
3652.857	3746
3654.527	3771
3656.198	3752
3657.868	3759
3659.537	3759
3661.207	3780
3662.875	3790
3664.544	3785
3666.212	3833
3667.879	3737
3669.546	3718
3671.212	3737
3672.88	3761
3674.546	3800
3676.211	3718
3677.875	3715
3679.541	3752
3681.205	3729
3682.87	3640
3684.533	3793
3686.196	3689
3687.859	3804
3689.521	3791
3691.184	3710
3692.845	3711
3694.507	3726
3696.167	3707
3697.827	3788
3699.487	3793
3701.148	3738
3702.808	3726
3704.466	3628
3706.125	3668
3707.783	3660
3709.442	3659
3711.099	3678
3712.757	3705
3714.412	3688
3716.068	3706
3717.725	3717
3719.381	3660
3721.036	3714
3722.689	3623
3724.344	3721
3725.998	3733
3727.652	3609
3729.305	3686
3730.958	3610
3732.61	3649
3734.262	3634
3735.915	3678
3737.565	3667
3739.217	3696
3740.866	3628
3742.516	3568
3744.165	3636
3745.816	3658
3747.464	3608
3749.113	3544
3750.761	3675
3752.409	3635
3754.057	3690
3755.703	3662
3757.35	3674
3758.996	3658
3760.641	3634
3762.289	3613
3763.933	3586
3765.577	3673
3767.222	3575
3768.865	3598
3770.508	3570
3772.152	3723
3773.796	3603
3775.438	3656
3777.079	3599
3778.721	3606
3780.363	3494
3782.003	3610
3783.643	3592
3785.283	3589
3786.923	3631
3788.563	3568
3790.203	3517
3791.841	3589
3793.479	3557
3795.115	3545
3796.753	3579
3798.391	3598
3800.027	3500
3801.664	3581
3803.299	3473
3804.935	3603
3806.571	3609
3808.206	3508
3809.839	3499
3811.473	3545
3813.107	3537
3814.74	3466
3816.375	3485
3818.006	3508
3819.638	3493
3821.27	3462
3822.9	3498
3824.532	3435
3826.163	3503
3827.792	3418
3829.423	3601
3831.051	3524
3832.682	3471
3834.311	3419
3835.938	3508
3837.566	3460
3839.193	3500
3840.821	3487
3842.448	3431
3844.075	3460
3845.7	3441
3847.325	3408
3848.951	3478
3850.576	3423
3852.201	3445
3853.825	3415
3855.448	3410
3857.072	3439
3858.694	3427
3860.318	3367
3861.939	3510
3863.562	3437
3865.183	3478
3866.804	3487
3868.426	3409
3870.045	3458
3871.666	3438
3873.285	3445
3874.904	3430
3876.524	3339
3878.142	3424
3879.76	3407
3881.378	3382
3882.995	3326
3884.612	3416
3886.229	3388
3887.845	3536
3889.461	3424
3891.076	3419
3892.691	3436
3894.307	3434
3895.922	3318
3897.536	3475
3899.149	3399
3900.761	3351
3902.374	3364
3903.988	3375
3905.6	3483
3907.212	3374
3908.822	3385
3910.433	3308
3912.045	3276
3913.655	3382
3915.265	3467
3916.875	3358
3918.483	3375
3920.093	3363
3921.702	3329
3923.309	3363
3924.917	3401
3926.523	3409
3928.13	3300
3929.739	3343
3931.344	3378
3932.95	3282
3934.555	3387
3936.159	3305
3937.766	3363
3939.369	3403
3940.974	3405
3942.577	3352
3944.181	3313
3945.783	3266
3947.386	3307
3948.989	3374
3950.59	3386
3952.191	3379
3953.791	3280
3955.394	3316
3956.994	3309
3958.593	3260
3960.192	3321
3961.791	3357
3963.392	3286
3964.99	3359
3966.588	3405
3968.185	3275
3969.782	3358
3971.379	3339
3972.976	3245
3974.572	3318
3976.168	3338
3977.763	3296
3979.358	3321
3980.954	3318
3982.548	3220
3984.142	3273
3985.736	3289
3987.329	3242
3988.922	3232
3990.516	3274
3992.108	3268
3993.698	3206
3995.29	3370
3996.881	3265
3998.473	3170
4000.064	3216
4001.653	3253
4003.242	3197
4004.832	3190
4006.422	3301
4008.01	3241
4009.598	3200
4011.186	3165
4012.773	3252
4014.36	3212
4015.947	3141
4017.534	3187
4019.119	3227
4020.705	3114
4022.291	3237
4023.876	3177
4025.461	3193
4027.044	3178
4028.627	3147
4030.211	3180
4031.795	3190
4033.378	3176
4034.96	3186
4036.542	3125
4038.124	3175
4039.704	3172
4041.286	3138
4042.867	3117
4044.447	3083
4046.026	3149
4047.606	3183
4049.187	3133
4050.765	3128
4052.343	3082
4053.92	3151
4055.498	3124
4057.076	3095
4058.654	3163
4060.23	3070
4061.806	3127
4063.381	3133
4064.957	3028
4066.533	3134
4068.107	3151
4069.682	3081
4071.256	3048
4072.829	3133
4074.404	3120
4075.977	3118
4077.549	3106
4079.121	3076
4080.693	3123
4082.265	3048
4083.836	3035
4085.407	3104
4086.977	3040
4088.547	3082
4090.117	2996
4091.687	3014
4093.256	3101
4094.825	3106
4096.392	3078
4097.96	3043
4099.528	3101
4101.097	3005
4102.663	3113
4104.229	3052
4105.795	3091
4107.361	3039
4108.928	3132
4110.493	3073
4112.058	3049
4113.621	3004
4115.186	2991
4116.75	3007
4118.313	3067
4119.876	2990
4121.438	2964
4123	3056
4124.562	3028
4126.125	2970
4127.686	3072
4129.246	3009
4130.807	2968
4132.367	2940
4133.927	3041
4135.486	2899
4137.046	2998
4138.604	3037
4140.162	2981
4141.72	2989
4143.279	3000
4144.836	2911
4146.393	3013
4147.949	2917
4149.505	2988
4151.062	2943
4152.617	2989
4154.172	2920
4155.727	2956
4157.281	2884
4158.836	2947
4160.39	2914
4161.943	2884
4163.496	2989
4165.048	2974
4166.601	2893
4168.154	2988
4169.706	2963
4171.257	2900
4172.808	2875
4174.358	2897
4175.909	2912
4177.458	2838
4179.008	2918
4180.558	2923
4182.106	2916
4183.655	2855
4185.204	2905
4186.751	2856
4188.298	2866
4189.845	2821
4191.392	2947
4192.939	2929
4194.485	2812
4196.031	2860
4197.576	2847
4199.121	2820
4200.666	2896
4202.211	2850
4203.754	2822
4205.298	2878
4206.84	2862
4208.384	2782
4209.927	2874
4211.47	2877
4213.011	2852
4214.552	2815
4216.094	2797
4217.635	2799
4219.175	2818
4220.716	2830
4222.255	2792
4223.793	2890
4225.335	2814
4226.873	2842
4228.411	2867
4229.948	2879
4231.486	2859
4233.024	2841
4234.562	2865
4236.098	2749
4237.634	2917
4239.169	2827
4240.705	2800
4242.241	2869
4243.776	2806
4245.31	2754
4246.844	2787
4248.378	2813
4249.911	2797
4251.445	2827
4252.978	2828
4254.51	2731
4256.042	2731
4257.574	2811
4259.107	2832
4260.638	2804
4262.169	2818
4263.699	2800
4265.228	2763
4266.759	2763
4268.289	2756
4269.818	2733
4271.345	2790
4272.874	2741
4274.402	2811
4275.931	2781
4277.458	2860
4278.985	2823
4280.512	2793
4282.037	2792
4283.564	2706
4285.089	2685
4286.615	2799
4288.139	2791
4289.664	2670
4291.187	2728
4292.712	2765
4294.235	2769
4295.759	2759
4297.281	2750
4298.804	2752
4300.327	2720
4301.849	2688
4303.37	2692
4304.891	2679
4306.412	2764
4307.933	2757
4309.453	2723
4310.973	2759
4312.492	2701
