398.1873	3038
400.7097	2999
403.2336	3065
405.7547	3100
408.2751	3049
410.7948	3053
413.3138	3035
415.83	2976
418.3497	3087
420.8666	3194
423.3829	3108
425.8985	3124
428.4133	3101
430.9275	3181
433.441	3158
435.9538	3162
438.4639	3201
440.9753	3221
443.4881	3149
445.9982	3145
448.5055	3159
451.0142	3141
453.5201	3158
456.0274	3207
458.5361	3208
461.04	3191
463.5453	3185
466.0478	3159
468.5517	3261
471.0549	3187
473.5574	3197
476.0572	3217
478.5584	3257
481.0568	3194
483.5545	3279
486.0557	3289
488.5521	3278
491.0478	3292
493.5449	3310
496.0392	3283
498.5349	3310
501.0299	3354
503.5222	3361
506.0139	3293
508.5048	3288
510.9991	3301
513.4887	3348
515.9777	3391
518.4659	3386
520.9534	3255
523.4403	3303
525.9306	3405
528.4161	3302
530.9009	3443
533.3851	3385
535.8687	3390
538.3535	3328
540.8356	3364
543.3171	3390
545.7979	3373
548.278	3383
550.7595	3399
553.2383	3420
555.7144	3344
558.1918	3377
560.6685	3331
563.1446	3385
565.6221	3468
568.0968	3394
570.5688	3390
573.0422	3469
575.515	3478
577.989	3421
580.4584	3418
582.9291	3498
585.3991	3417
587.8685	3398
590.3352	3446
592.8052	3515
595.2706	3528
597.7372	3426
600.2033	3477
602.6666	3460
605.1334	3462
607.5953	3516
610.0587	3417
612.5193	3472
614.9814	3506
617.4427	3454
619.9034	3428
622.3615	3448
624.8208	3422
627.2775	3437
629.7335	3444
632.1929	3400
634.6476	3452
637.1016	3479
639.5569	3472
642.0096	3458
644.4637	3434
646.9151	3534
649.3678	3531
651.8179	3510
654.2672	3536
656.7159	3458
659.166	3609
661.6154	3463
664.0622	3530
666.5082	3520
668.9537	3515
671.4005	3522
673.8445	3570
676.288	3627
678.7308	3539
681.1729	3554
683.6163	3509
686.0572	3649
688.4973	3607
690.9368	3540
693.3757	3510
695.8138	3579
698.2534	3543
700.6902	3591
703.1245	3618
705.56	3673
707.9949	3641
710.4311	3575
712.8647	3631
715.2957	3608
717.7279	3593
720.1595	3579
722.5905	3687
725.0208	3687
727.4505	3667
729.8795	3773
732.3058	3726
734.7336	3668
737.1626	3736
739.587	3671
742.0128	3671
744.4359	3750
746.8604	3713
749.2841	3791
751.7073	3856
754.1278	3756
756.5496	3761
758.9688	3733
761.3893	3817
763.8093	3808
766.2285	3833
768.6451	3815
771.0611	3818
773.4784	3897
775.895	3762
778.3091	3883
780.7244	3811
783.1371	3932
785.5493	3843
787.9626	3754
790.3754	3878
792.7856	3768
795.1951	3813
797.6039	3909
800.0121	3877
802.4236	3813
804.8306	3879
807.2369	3881
809.6425	3897
812.0475	3817
814.4538	3872
816.8575	3873
819.2606	3904
821.663	3858
824.0648	3836
826.4659	3879
828.8683	3900
831.2682	3868
833.6674	3982
836.066	3909
838.4639	3879
840.8632	3967
843.2579	3927
845.6539	3885
848.0493	3930
850.444	3907
852.84	3925
855.2315	3992
857.6243	3940
860.0165	3868
862.4081	3961
864.797	3825
867.1892	3928
869.5789	3883
871.9659	3931
874.3542	3939
876.74	3877
879.129	3894
881.5155	3900
883.8994	3887
886.2845	3843
888.6671	3878
891.051	3846
893.4343	3934
895.8169	3936
898.197	3906
900.5783	3929
902.9571	3934
905.3372	3918
907.7167	3931
910.0936	3925
912.4698	3965
914.8474	4018
917.2244	3931
919.5987	4076
921.9744	4014
924.3475	4056
926.72	4018
929.0918	4062
931.4669	4050
933.8375	4094
936.2074	4017
938.5767	4019
940.9454	4179
943.3154	4095
945.6829	4138
948.0497	4229
950.4178	4135
952.7833	4283
955.1483	4326
957.5145	4417
959.8782	4407
962.2412	4405
964.6036	4388
966.9655	4257
969.3266	4207
971.6871	4147
974.0471	4065
976.4064	4082
978.765	4146
981.125	4107
983.4824	4022
985.8373	4016
988.1935	4002
990.549	4020
992.9039	4092
995.2602	3991
997.6119	3982
999.965	4117
1002.317	4099
1004.667	4071
1007.02	4198
1009.371	4104
1011.719	4058
1014.068	4026
1016.415	3917
1018.765	4084
1021.111	4085
1023.458	4105
1025.804	4141
1028.147	4098
1030.49	4101
1032.837	4129
1035.179	4116
1037.522	4142
1039.862	4193
1042.204	4111
1044.546	4245
1046.884	4111
1049.224	4051
1051.562	4091
1053.899	4074
1056.237	4220
1058.575	4203
1060.91	4098
1063.244	4137
1065.58	4178
1067.913	4120
1070.248	4117
1072.579	4224
1074.911	4192
1077.242	4092
1079.572	4140
1081.905	4220
1084.234	4117
1086.562	4187
1088.89	4177
1091.217	4175
1093.544	4193
1095.871	4053
1098.197	4263
1100.521	4251
1102.845	4078
1105.169	4177
1107.491	4187
1109.814	4264
1112.135	4247
1114.456	4197
1116.776	4156
1119.096	4224
1121.415	4229
1123.734	4179
1126.052	4204
1128.369	4262
1130.686	4264
1133.002	4223
1135.318	4310
1137.632	4214
1139.945	4172
1142.258	4186
1144.573	4186
1146.884	4247
1149.196	4242
1151.505	4233
1153.816	4209
1156.124	4202
1158.435	4185
1160.742	4205
1163.051	4214
1165.356	4192
1167.663	4208
1169.97	4182
1172.276	4161
1174.579	4173
1176.881	4294
1179.186	4315
1181.487	4186
1183.79	4167
1186.092	4304
1188.392	4125
1190.691	4326
1192.991	4284
1195.291	4152
1197.588	4243
1199.885	4189
1202.181	4217
1204.479	4280
1206.775	4244
1209.07	4207
1211.363	4265
1213.656	4222
1215.949	4271
1218.241	4186
1220.534	4254
1222.825	4364
1225.115	4305
1227.405	4290
1229.693	4269
1231.984	4345
1234.271	4226
1236.558	4271
1238.845	4309
1241.131	4329
1243.416	4402
1245.703	4340
1247.987	4366
1250.269	4273
1252.552	4291
1254.834	4429
1257.118	4312
1259.399	4287
1261.678	4406
1263.958	4310
1266.237	4342
1268.516	4312
1270.794	4317
1273.072	4408
1275.347	4378
1277.624	4310
1279.899	4318
1282.175	4273
1284.449	4373
1286.722	4311
1288.995	4341
1291.266	4259
1293.54	4401
1295.81	4347
1298.081	4271
1300.35	4345
1302.62	4387
1304.889	4395
1307.156	4314
1309.425	4365
1311.69	4308
1313.957	4302
1316.222	4324
1318.488	4365
1320.751	4287
1323.016	4342
1325.278	4247
1327.54	4369
1329.803	4402
1332.065	4354
1334.325	4309
1336.584	4393
1338.843	4420
1341.101	4378
1343.36	4424
1345.617	4343
1347.876	4374
1350.131	4362
1352.387	4318
1354.643	4373
1356.897	4378
1359.151	4327
1361.403	4310
1363.656	4383
1365.909	4388
1368.16	4365
1370.409	4333
1372.659	4328
1374.909	4382
1377.157	4356
1379.407	4426
1381.655	4353
1383.9	4400
1386.147	4371
1388.393	4390
1390.64	4378
1392.885	4409
1395.127	4371
1397.37	4411
1399.614	4367
1401.854	4421
1404.098	4349
1406.339	4347
1408.578	4315
1410.818	4394
1413.056	4493
1415.297	4377
1417.533	4446
1419.771	4427
1422.006	4484
1424.243	4344
1426.479	4452
1428.715	4364
1430.948	4457
1433.182	4483
1435.414	4533
1437.647	4543
1439.88	4580
1442.11	4476
1444.342	4445
1446.571	4441
1448.799	4534
1451.029	4580
1453.258	4534
1455.485	4552
1457.711	4549
1459.937	4598
1462.164	4544
1464.39	4550
1466.614	4506
1468.838	4479
1471.06	4495
1473.283	4499
1475.506	4487
1477.727	4420
1479.949	4472
1482.169	4553
1484.389	4484
1486.609	4435
1488.828	4490
1491.045	4428
1493.261	4448
1495.477	4472
1497.693	4511
1499.91	4388
1502.125	4406
1504.339	4329
1506.553	4489
1508.766	4394
1510.979	4404
1513.191	4406
1515.402	4538
1517.613	4447
1519.823	4370
1522.033	4461
1524.242	4535
1526.451	4361
1528.657	4457
1530.865	4397
1533.072	4502
1535.278	4421
1537.484	4468
1539.687	4433
1541.892	4460
1544.096	4521
1546.299	4349
1548.502	4453
1550.703	4489
1552.905	4461
1555.104	4519
1557.303	4505
1559.505	4421
1561.703	4496
1563.902	4439
1566.099	4486
1568.295	4572
1570.494	4533
1572.689	4461
1574.883	4545
1577.079	4534
1579.272	4542
1581.467	4521
1583.659	4521
1585.853	4623
1588.044	4579
1590.234	4598
1592.424	4572
1594.615	4460
1596.806	4488
1598.994	4559
1601.182	4605
1603.369	4614
1605.557	4558
1607.744	4566
1609.929	4557
1612.114	4599
1614.298	4620
1616.482	4600
1618.667	4590
1620.85	4569
1623.032	4663
1625.214	4647
1627.395	4535
1629.575	4625
1631.755	4624
1633.935	4592
1636.114	4579
1638.292	4651
1640.471	4596
1642.647	4674
1644.823	4669
1647	4570
1649.175	4613
1651.348	4608
1653.525	4542
1655.698	4701
1657.87	4610
1660.043	4701
1662.213	4617
1664.387	4624
1666.558	4593
1668.727	4610
1670.896	4590
1673.064	4657
1675.233	4689
1677.401	4521
1679.569	4558
1681.735	4646
1683.902	4600
1686.066	4690
1688.233	4562
1690.397	4570
1692.559	4611
1694.723	4575
1696.885	4609
1699.048	4597
1701.21	4678
1703.37	4634
1705.53	4616
1707.689	4522
1709.849	4610
1712.009	4636
1714.166	4535
1716.323	4578
1718.479	4594
1720.634	4531
1722.793	4571
1724.948	4585
1727.102	4595
1729.255	4575
1731.408	4682
1733.562	4589
1735.714	4665
1737.865	4611
1740.016	4624
1742.166	4622
1744.316	4602
1746.467	4627
1748.616	4587
1750.764	4650
1752.911	4602
1755.056	4697
1757.205	4592
1759.35	4612
1761.496	4639
1763.641	4608
1765.785	4618
1767.927	4719
1770.072	4646
1772.214	4668
1774.355	4683
1776.496	4663
1778.637	4710
1780.778	4615
1782.918	4682
1785.057	4705
1787.194	4628
1789.333	4777
1791.472	4691
1793.608	4646
1795.745	4670
1797.879	4795
1800.015	4753
1802.148	4720
1804.284	4713
1806.417	4786
1808.548	4650
1810.682	4704
1812.812	4730
1814.946	4705
1817.075	4637
1819.205	4595
1821.335	4730
1823.463	4634
1825.59	4630
1827.721	4731
1829.847	4667
1831.973	4733
1834.098	4689
1836.223	4694
1838.351	4632
1840.475	4680
1842.598	4705
1844.721	4757
1846.843	4668
1848.966	4607
1851.087	4690
1853.21	4594
1855.33	4686
1857.449	4633
1859.568	4735
1861.688	4665
1863.806	4639
1865.924	4662
1868.039	4668
1870.155	4614
1872.273	4626
1874.388	4746
1876.503	4701
1878.617	4778
1880.73	4646
1882.844	4709
1884.956	4663
1887.068	4650
1889.18	4643
1891.291	4584
1893.4	4791
1895.511	4722
1897.621	4690
1899.73	4715
1901.837	4710
1903.944	4775
1906.053	4734
1908.159	4752
1910.265	4754
1912.369	4694
1914.474	4768
1916.577	4757
1918.683	4708
1920.785	4740
1922.888	4807
1924.989	4720
1927.091	4813
1929.193	4872
1931.294	4807
1933.393	4800
1935.493	4744
1937.59	4731
1939.689	4740
1941.788	4709
1943.884	4721
1945.98	4860
1948.077	4762
1950.171	4749
1952.267	4721
1954.361	4744
1956.455	4724
1958.548	4822
1960.64	4700
1962.733	4868
1964.824	4729
1966.915	4767
1969.005	4687
1971.096	4766
1973.185	4792
1975.275	4595
1977.363	4744
1979.45	4681
1981.537	4685
1983.623	4705
1985.711	4774
1987.796	4762
1989.881	4647
1991.965	4791
1994.047	4796
1996.132	4789
1998.215	4640
2000.297	4717
2002.378	4725
2004.46	4747
2006.54	4683
2008.62	4781
2010.7	4761
2012.779	4732
2014.858	4752
2016.934	4804
2019.013	4688
2021.09	4724
2023.165	4736
2025.241	4781
2027.317	4708
2029.39	4785
2031.466	4785
2033.538	4774
2035.612	4742
2037.683	4674
2039.755	4725
2041.827	4701
2043.898	4789
2045.968	4691
2048.038	4740
2050.106	4723
2052.177	4813
2054.244	4736
2056.313	4678
2058.379	4787
2060.444	4774
2062.511	4690
2064.577	4702
2066.641	4653
2068.705	4731
2070.77	4793
2072.832	4751
2074.896	4755
2076.958	4813
2079.02	4840
2081.081	4826
2083.141	4690
2085.2	4760
2087.261	4754
2089.319	4699
2091.377	4685
2093.435	4761
2095.492	4783
2097.552	4718
2099.607	4839
2101.663	4670
2103.718	4799
2105.771	4731
2107.826	4710
2109.879	4772
2111.932	4932
2113.985	4794
2116.037	4763
2118.088	4699
2120.141	4719
2122.191	4752
2124.239	4719
2126.288	4865
2128.337	4801
2130.387	4698
2132.434	4700
2134.481	4678
2136.528	4703
2138.574	4667
2140.618	4707
2142.665	4746
2144.71	4699
2146.753	4757
2148.797	4784
2150.838	4767
2152.883	4790
2154.923	4664
2156.965	4670
2159.007	4691
2161.046	4737
2163.086	4662
2165.126	4741
2167.163	4753
2169.202	4700
2171.239	4686
2173.277	4648
2175.314	4708
2177.349	4840
2179.385	4743
2181.42	4714
2183.453	4709
2185.49	4689
2187.522	4686
2189.555	4725
2191.586	4765
2193.619	4655
2195.651	4751
2197.682	4733
2199.711	4560
2201.74	4663
2203.769	4696
2205.799	4674
2207.828	4658
2209.855	4703
2211.882	4685
2213.908	4677
2215.934	4622
2217.961	4732
2219.986	4597
2222.01	4587
2224.034	4652
2226.057	4685
2228.08	4612
2230.104	4609
2232.124	4631
2234.145	4594
2236.166	4664
2238.186	4594
2240.207	4645
2242.227	4619
2244.244	4677
2246.262	4575
2248.28	4737
2250.299	4622
2252.314	4613
2254.33	4683
2256.346	4575
2258.36	4707
2260.375	4642
2262.391	4614
2264.403	4657
2266.416	4686
2268.427	4681
2270.44	4659
2272.453	4651
2274.463	4603
2276.474	4639
2278.483	4739
2280.493	4704
2282.501	4667
2284.51	4696
2286.518	4735
2288.524	4724
2290.532	4700
2292.537	4658
2294.544	4689
2296.55	4624
2298.554	4683
2300.557	4599
2302.562	4606
2304.566	4640
2306.568	4753
2308.569	4661
2310.572	4701
2312.573	4644
2314.573	4644
2316.574	4627
2318.573	4613
2320.571	4692
2322.571	4651
2324.569	4659
2326.567	4630
2328.564	4695
2330.56	4585
2332.556	4777
2334.551	4620
2336.546	4658
2338.542	4730
2340.535	4624
2342.529	4653
2344.521	4680
2346.512	4574
2348.505	4635
2350.497	4564
2352.487	4636
2354.478	4572
2356.468	4569
2358.457	4711
2360.446	4517
2362.434	4562
2364.422	4585
2366.408	4699
2368.395	4498
2370.383	4643
2372.369	4561
2374.353	4638
2376.338	4538
2378.321	4520
2380.307	4703
2382.29	4612
2384.272	4513
2386.254	4631
2388.235	4618
2390.218	4559
2392.198	4538
2394.179	4593
2396.157	4554
2398.137	4630
2400.115	4494
2402.095	4470
2404.072	4589
2406.048	4552
2408.026	4580
2410.001	4460
2411.977	4556
2413.953	4539
2415.927	4506
2417.9	4533
2419.875	4587
2421.847	4482
2423.821	4540
2425.792	4585
2427.763	4552
2429.736	4609
2431.706	4571
2433.677	4569
2435.646	4564
2437.615	4625
2439.583	4630
2441.551	4518
2443.519	4585
2445.486	4589
2447.452	4577
2449.418	4586
2451.383	4545
2453.348	4590
2455.314	4633
2457.278	4513
2459.241	4511
2461.205	4572
2463.167	4548
2465.131	4554
2467.091	4651
2469.052	4439
2471.012	4515
2472.972	4482
2474.932	4496
2476.891	4504
2478.85	4658
2480.808	4428
2482.766	4570
2484.722	4509
2486.68	4486
2488.636	4528
2490.591	4612
2492.546	4539
2494.5	4499
2496.456	4571
2498.41	4535
2500.362	4524
2502.315	4591
2504.266	4504
2506.218	4570
2508.169	4446
2510.121	4526
2512.07	4509
2514.019	4486
2515.968	4511
2517.918	4571
2519.866	4412
2521.813	4438
2523.76	4425
2525.707	4470
2527.653	4531
2529.599	4496
2531.543	4615
2533.489	4541
2535.433	4505
2537.376	4503
2539.32	4657
2541.264	4488
2543.205	4444
2545.147	4455
2547.087	4545
2549.029	4516
2550.969	4430
2552.908	4462
2554.847	4551
2556.786	4522
2558.724	4455
2560.663	4490
2562.6	4501
2564.537	4467
2566.473	4517
2568.408	4512
2570.345	4433
2572.28	4620
2574.214	4424
2576.148	4536
2578.081	4475
2580.014	4415
2581.947	4425
2583.879	4487
2585.81	4374
2587.741	4418
2589.67	4457
2591.602	4552
2593.532	4621
2595.461	4445
2597.388	4560
2599.316	4433
2601.244	4487
2603.172	4432
2605.098	4520
2607.023	4449
2608.949	4532
2610.873	4398
2612.8	4512
2614.723	4399
2616.647	4481
2618.569	4500
2620.493	4520
2622.416	4514
2624.338	4416
2626.258	4514
2628.179	4564
2630.099	4493
2632.019	4440
2633.939	4524
2635.857	4479
2637.775	4562
2639.694	4504
2641.61	4502
2643.528	4475
2645.444	4502
2647.361	4453
2649.276	4481
2651.19	4422
2653.105	4382
2655.019	4553
2656.934	4518
2658.846	4537
2660.758	4506
2662.67	4459
2664.583	4511
2666.493	4567
2668.404	4539
2670.313	4519
2672.223	4479
2674.134	4396
2676.042	4504
2677.95	4401
2679.858	4501
2681.765	4572
2683.673	4498
2685.579	4501
2687.483	4392
2689.389	4415
2691.294	4477
2693.198	4514
2695.104	4460
2697.006	4486
2698.909	4448
2700.811	4380
2702.713	4391
2704.615	4426
2706.516	4466
2708.417	4457
2710.316	4437
2712.216	4322
2714.115	4476
2716.014	4453
2717.913	4335
2719.81	4447
2721.707	4427
2723.603	4448
2725.501	4479
2727.396	4333
2729.292	4355
2731.186	4447
2733.081	4441
2734.976	4414
2736.87	4354
2738.762	4440
2740.653	4263
2742.546	4490
2744.437	4415
2746.329	4376
2748.22	4351
2750.11	4425
2751.999	4420
2753.889	4347
2755.778	4414
2757.666	4365
2759.553	4323
2761.44	4433
2763.328	4420
2765.215	4405
2767.101	4385
2768.986	4417
2770.87	4420
2772.754	4338
2774.638	4362
2776.523	4378
2778.405	4333
2780.288	4399
2782.17	4290
2784.051	4349
2785.934	4349
2787.814	4427
2789.694	4414
2791.574	4372
2793.453	4383
2795.332	4440
2797.212	4321
2799.088	4297
2800.966	4392
2802.843	4400
2804.719	4413
2806.597	4395
2808.471	4331
2810.346	4298
2812.221	4335
2814.094	4352
2815.969	4280
2817.843	4339
2819.714	4313
2821.587	4302
2823.459	4362
2825.329	4322
2827.202	4397
2829.072	4441
2830.942	4266
2832.811	4344
2834.68	4320
2836.549	4370
2838.418	4341
2840.284	4368
2842.152	4320
2844.018	4350
2845.885	4334
2847.751	4322
2849.616	4292
2851.482	4305
2853.345	4352
2855.208	4441
2857.074	4329
2858.937	4423
2860.799	4359
2862.66	4337
2864.522	4359
2866.385	4353
2868.245	4340
2870.104	4345
2871.964	4383
2873.824	4455
2875.683	4397
2877.542	4477
2879.4	4351
2881.257	4468
2883.114	4485
2884.97	4459
2886.827	4447
2888.683	4469
2890.537	4540
2892.392	4451
2894.246	4459
2896.1	4507
2897.954	4495
2899.807	4325
2901.66	4398
2903.51	4306
2905.362	4464
2907.214	4401
2909.065	4468
2910.915	4406
2912.765	4518
2914.613	4506
2916.463	4548
2918.311	4454
2920.158	4478
2922.006	4444
2923.853	4514
2925.698	4524
2927.546	4561
2929.392	4551
2931.236	4561
2933.081	4520
2934.924	4504
2936.77	4486
2938.613	4558
2940.455	4678
2942.298	4619
2944.139	4648
2945.982	4617
2947.823	4602
2949.662	4625
2951.503	4664
2953.342	4623
2955.182	4548
2957.021	4494
2958.858	4571
2960.697	4495
2962.534	4523
2964.37	4542
2966.207	4522
2968.044	4553
2969.879	4473
2971.714	4427
2973.548	4452
2975.383	4446
2977.218	4404
2979.051	4460
2980.883	4301
2982.715	4399
2984.547	4442
2986.379	4431
2988.21	4271
2990.04	4405
2991.87	4373
2993.7	4369
2995.53	4309
2997.359	4343
2999.187	4266
3001.015	4244
3002.842	4254
3004.669	4300
3006.497	4285
3008.323	4241
3010.148	4305
3011.974	4129
3013.797	4286
3015.623	4162
3017.447	4190
3019.27	4234
3021.094	4284
3022.915	4122
3024.737	4241
3026.56	4103
3028.38	4223
3030.201	4208
3032.022	4127
3033.84	4157
3035.662	4117
3037.481	4173
3039.298	4223
3041.117	4165
3042.933	4117
3044.752	4141
3046.568	4120
3048.385	4110
3050.2	4164
3052.016	4040
3053.83	4077
3055.646	4172
3057.46	4173
3059.272	4059
3061.086	4073
3062.898	4102
3064.711	4116
3066.524	4156
3068.335	4187
3070.145	4157
3071.956	4004
3073.766	4088
3075.576	4124
3077.385	4134
3079.193	4034
3081.002	3999
3082.81	4094
3084.618	4011
3086.425	4039
3088.231	4112
3090.036	4039
3091.842	4050
3093.648	3917
3095.452	4084
3097.257	4094
3099.06	4002
3100.863	4010
3102.666	4013
3104.47	4076
3106.272	3975
3108.073	4058
3109.875	4009
3111.676	3968
3113.477	4035
3115.277	3973
3117.077	4048
3118.874	3933
3120.673	4030
3122.473	3871
3124.271	4072
3126.066	4083
3127.863	3977
3129.66	4011
3131.456	3877
3133.252	3964
3135.047	3874
3136.842	3931
3138.635	3925
3140.429	3954
3142.223	3890
3144.016	3868
3145.808	3911
3147.6	3872
3149.392	3986
3151.183	3918
3152.975	3857
3154.765	4006
3156.553	3949
3158.344	3985
3160.132	3969
3161.922	3933
3163.71	3907
3165.497	3802
3167.285	3877
3169.071	3907
3170.858	3906
3172.645	3841
3174.429	3971
3176.214	3898
3177.998	3855
3179.783	3864
3181.568	3812
3183.351	3915
3185.133	3807
3186.915	3852
3188.698	3855
3190.481	3832
3192.261	3886
3194.042	3825
3195.822	3811
3197.601	3900
3199.381	3767
3201.161	3889
3202.939	3830
3204.717	3818
3206.495	3812
3208.272	3867
3210.05	3893
3211.826	3833
3213.602	3864
3215.376	3840
3217.151	3960
3218.927	3822
3220.702	3782
3222.476	3859
3224.249	3817
3226.021	3774
3227.793	3821
3229.567	3936
3231.339	3831
3233.109	3808
3234.88	3894
3236.651	3872
3238.421	3843
3240.191	3851
3241.96	3848
3243.728	3811
3245.497	3790
3247.263	3747
3249.033	3812
3250.799	3848
3252.566	3776
3254.331	3790
3256.097	3803
3257.863	3803
3259.628	3864
3261.392	3873
3263.156	3877
3264.919	3781
3266.683	3786
3268.447	3807
3270.208	3708
3271.969	3773
3273.731	3875
3275.492	3847
3277.253	3809
3279.013	3797
3280.773	3725
3282.532	3774
3284.291	3866
3286.05	3890
3287.808	3779
3289.566	3823
3291.323	3767
3293.079	3708
3294.835	3771
3296.593	3771
3298.348	3826
3300.102	3748
3301.857	3719
3303.611	3848
3305.366	3869
3307.119	3753
3308.872	3769
3310.624	3716
3312.376	3843
3314.129	3727
3315.881	3722
3317.631	3678
3319.38	3703
3321.13	3787
3322.88	3840
3324.631	3741
3326.379	3737
3328.126	3782
3329.875	3724
3331.622	3756
3333.371	3817
3335.116	3678
3336.863	3719
3338.609	3742
3340.353	3761
3342.1	3696
3343.845	3742
3345.588	3673
3347.332	3755
3349.074	3767
3350.817	3759
3352.56	3739
3354.303	3779
3356.043	3706
3357.785	3706
3359.525	3664
3361.268	3689
3363.007	3771
3364.745	3696
3366.485	3676
3368.223	3751
3369.962	3710
3371.701	3746
3373.438	3732
3375.174	3686
3376.911	3685
3378.647	3741
3380.384	3664
3382.118	3738
3383.854	3712
3385.588	3719
3387.322	3762
3389.057	3715
3390.79	3693
3392.522	3665
3394.255	3641
3395.987	3795
3397.719	3724
3399.451	3678
3401.181	3715
3402.911	3698
3404.641	3632
3406.371	3684
3408.101	3727
3409.83	3717
3411.558	3658
3413.285	3658
3415.011	3603
3416.739	3734
3418.467	3648
3420.193	3625
3421.919	3661
3423.644	3623
3425.368	3619
3427.094	3643
3428.818	3573
3430.542	3729
3432.264	3593
3433.987	3711
3435.712	3542
3437.434	3660
3439.155	3621
3440.876	3657
3442.596	3577
3444.317	3654
3446.039	3632
3447.757	3579
3449.477	3603
3451.195	3546
3452.914	3606
3454.632	3551
3456.35	3562
3458.067	3631
3459.784	3546
3461.5	3522
3463.216	3598
3464.932	3562
3466.647	3620
3468.362	3566
3470.076	3617
3471.789	3540
3473.505	3486
3475.217	3514
3476.929	3508
3478.641	3572
3480.354	3568
3482.066	3567
3483.777	3530
3485.487	3458
3487.197	3521
3488.908	3562
3490.617	3524
3492.327	3427
3494.035	3576
3495.743	3508
3497.451	3586
3499.158	3425
3500.866	3528
3502.572	3563
3504.278	3503
3505.984	3494
3507.689	3427
3509.396	3409
3511.1	3479
3512.804	3441
3514.508	3530
3516.211	3446
3517.913	3431
3519.616	3451
3521.319	3462
3523.021	3520
3524.722	3354
3526.422	3462
3528.124	3384
3529.824	3495
3531.524	3396
3533.222	3472
3534.921	3442
3536.62	3432
3538.318	3538
3540.016	3431
3541.714	3366
3543.41	3442
3545.107	3396
3546.803	3460
3548.5	3396
3550.194	3389
3551.889	3490
3553.583	3428
3555.279	3409
3556.972	3450
3558.666	3401
3560.358	3410
3562.051	3472
3563.742	3395
3565.435	3364
3567.126	3462
3568.817	3379
3570.507	3427
3572.197	3331
3573.888	3327
3575.577	3473
3577.265	3416
3578.954	3383
3580.642	3375
3582.329	3415
3584.017	3365
3585.704	3405
3587.391	3366
3589.077	3449
3590.762	3323
3592.449	3294
3594.133	3341
3595.817	3354
3597.501	3345
3599.185	3331
3600.869	3380
3602.552	3305
3604.234	3257
3605.916	3401
3607.598	3300
3609.279	3282
3610.961	3394
3612.642	3304
3614.321	3347
3616	3239
3617.68	3349
3619.36	3274
3621.039	3319
3622.716	3329
3624.394	3266
3626.071	3274
3627.748	3313
3629.425	3222
3631.102	3284
3632.778	3211
3634.452	3314
3636.127	3292
3637.803	3253
3639.477	3287
3641.151	3218
3642.823	3246
3644.497	3224
3646.171	3209
3647.842	3281
3649.515	3287
3651.185	3246
3652.857	3279
3654.527	3224
3656.198	3289
3657.868	3208
3659.537	3214
3661.207	3244
3662.875	3199
3664.544	3182
3666.212	3218
3667.879	3235
3669.546	3163
3671.212	3244
3672.88	3243
3674.546	3249
3676.211	3224
3677.875	3203
3679.541	3196
3681.205	3253
3682.87	3215
3684.533	3210
3686.196	3249
3687.859	3207
3689.521	3159
3691.184	3198
3692.845	3228
3694.507	3179
3696.167	3248
3697.827	3147
3699.487	3183
3701.148	3165
3702.808	3244
3704.466	3222
3706.125	3226
3707.783	3182
3709.442	3222
3711.099	3264
3712.757	3190
3714.412	3176
3716.068	3253
3717.725	3120
3719.381	3229
3721.036	3148
3722.689	3222
3724.344	3197
3725.998	3059
3727.652	3114
3729.305	3139
3730.958	3076
3732.61	3098
3734.262	3148
3735.915	3202
3737.565	3206
3739.217	3097
3740.866	3136
3742.516	3102
3744.165	3177
3745.816	3205
3747.464	3151
3749.113	3140
3750.761	3063
3752.409	3136
3754.057	3114
3755.703	3107
3757.35	3141
3758.996	3143
3760.641	3105
3762.289	3102
3763.933	3017
3765.577	3126
3767.222	3120
3768.865	3115
3770.508	3049
3772.152	3025
3773.796	3141
3775.438	3078
3777.079	3086
3778.721	3138
3780.363	3055
3782.003	3030
3783.643	3048
3785.283	3066
3786.923	3136
3788.563	3072
3790.203	3090
3791.841	3032
3793.479	3050
3795.115	3074
3796.753	3039
3798.391	2982
3800.027	3116
3801.664	3063
3803.299	3029
3804.935	2943
3806.571	3012
3808.206	3019
3809.839	3024
3811.473	3024
3813.107	3012
3814.74	3067
3816.375	2969
3818.006	2994
3819.638	3016
3821.27	3000
3822.9	3030
3824.532	3003
3826.163	2980
3827.792	3057
3829.423	3077
3831.051	3000
3832.682	3032
3834.311	2954
3835.938	2961
3837.566	2943
3839.193	2983
3840.821	2917
3842.448	3001
3844.075	2964
3845.7	3010
3847.325	2977
3848.951	3014
3850.576	2972
3852.201	2892
3853.825	2878
3855.448	2954
3857.072	2974
3858.694	2976
3860.318	2947
3861.939	2982
3863.562	2931
3865.183	3026
3866.804	2951
3868.426	2939
3870.045	2901
3871.666	2942
3873.285	2901
3874.904	2944
3876.524	2960
3878.142	2918
3879.76	2912
3881.378	2951
3882.995	2859
3884.612	2941
3886.229	2899
3887.845	2879
3889.461	2862
3891.076	2913
3892.691	2867
3894.307	2853
3895.922	2843
3897.536	2898
3899.149	2833
3900.761	2855
3902.374	2933
3903.988	2979
3905.6	2945
3907.212	2889
3908.822	2842
3910.433	2960
3912.045	2934
3913.655	2824
3915.265	2818
3916.875	2887
3918.483	2891
3920.093	2817
3921.702	2903
3923.309	2774
3924.917	2931
3926.523	2902
3928.13	2870
3929.739	2903
3931.344	2808
3932.95	2922
3934.555	2923
3936.159	2863
3937.766	2915
3939.369	2910
3940.974	2797
3942.577	2849
3944.181	2886
3945.783	2870
3947.386	2792
3948.989	2869
3950.59	2866
3952.191	2793
3953.791	2848
3955.394	2849
3956.994	2876
3958.593	2797
3960.192	2851
3961.791	2820
3963.392	2803
3964.99	2832
3966.588	2825
3968.185	2819
3969.782	2794
3971.379	2771
3972.976	2803
3974.572	2812
3976.168	2831
3977.763	2784
3979.358	2807
3980.954	2743
3982.548	2802
3984.142	2840
3985.736	2802
3987.329	2899
3988.922	2792
3990.516	2744
3992.108	2706
3993.698	2824
3995.29	2813
3996.881	2792
3998.473	2752
4000.064	2801
4001.653	2712
4003.242	2701
4004.832	2714
4006.422	2763
4008.01	2745
4009.598	2750
4011.186	2690
4012.773	2807
4014.36	2686
4015.947	2718
4017.534	2717
4019.119	2700
4020.705	2774
4022.291	2730
4023.876	2659
4025.461	2631
4027.044	2680
4028.627	2769
4030.211	2673
4031.795	2633
4033.378	2722
4034.96	2661
4036.542	2622
4038.124	2657
4039.704	2725
4041.286	2642
4042.867	2691
4044.447	2675
4046.026	2703
4047.606	2668
4049.187	2634
4050.765	2664
4052.343	2654
4053.92	2610
4055.498	2618
4057.076	2634
4058.654	2645
4060.23	2615
4061.806	2642
4063.381	2649
4064.957	2649
4066.533	2675
4068.107	2678
4069.682	2655
4071.256	2597
4072.829	2630
4074.404	2641
4075.977	2633
4077.549	2649
4079.121	2681
4080.693	2640
4082.265	2661
4083.836	2597
4085.407	2633
4086.977	2600
4088.547	2614
4090.117	2558
4091.687	2535
4093.256	2586
4094.825	2614
4096.392	2575
4097.96	2552
4099.528	2586
4101.097	2605
4102.663	2597
4104.229	2588
4105.795	2616
4107.361	2637
4108.928	2613
4110.493	2585
4112.058	2624
4113.621	2525
4115.186	2655
4116.75	2597
4118.313	2596
4119.876	2531
4121.438	2551
4123	2523
4124.562	2661
4126.125	2522
4127.686	2494
4129.246	2600
4130.807	2446
4132.367	2513
4133.927	2551
4135.486	2551
4137.046	2578
4138.604	2551
4140.162	2494
4141.72	2548
4143.279	2497
4144.836	2484
4146.393	2510
4147.949	2496
4149.505	2607
4151.062	2448
4152.617	2531
4154.172	2510
4155.727	2535
4157.281	2502
4158.836	2463
4160.39	2523
4161.943	2465
4163.496	2511
4165.048	2508
4166.601	2440
4168.154	2459
4169.706	2504
4171.257	2478
4172.808	2494
4174.358	2515
4175.909	2490
4177.458	2478
4179.008	2425
4180.558	2410
4182.106	2432
4183.655	2431
4185.204	2463
4186.751	2491
4188.298	2418
4189.845	2426
4191.392	2458
4192.939	2445
4194.485	2423
4196.031	2463
4197.576	2405
4199.121	2369
4200.666	2449
4202.211	2408
4203.754	2377
4205.298	2465
4206.84	2415
4208.384	2454
4209.927	2407
4211.47	2397
4213.011	2411
4214.552	2423
4216.094	2470
4217.635	2396
4219.175	2445
4220.716	2446
4222.255	2350
4223.793	2396
4225.335	2412
4226.873	2370
4228.411	2416
4229.948	2373
4231.486	2366
4233.024	2424
4234.562	2393
4236.098	2404
4237.634	2444
4239.169	2423
4240.705	2367
4242.241	2383
4243.776	2362
4245.31	2430
4246.844	2403
4248.378	2343
4249.911	2397
4251.445	2391
4252.978	2352
4254.51	2387
4256.042	2433
4257.574	2381
4259.107	2318
4260.638	2384
4262.169	2464
4263.699	2305
4265.228	2329
4266.759	2340
4268.289	2395
4269.818	2299
4271.345	2410
4272.874	2359
4274.402	2378
4275.931	2355
4277.458	2356
4278.985	2342
4280.512	2376
4282.037	2322
4283.564	2354
4285.089	2304
4286.615	2246
4288.139	2385
4289.664	2291
4291.187	2351
4292.712	2348
4294.235	2293
4295.759	2243
4297.281	2347
4298.804	2340
4300.327	2266
4301.849	2334
4303.37	2303
4304.891	2310
4306.412	2260
4307.933	2308
4309.453	2334
4310.973	2272
4312.492	2310
