398.1873	3547
400.7097	3587
403.2336	3581
405.7547	3591
408.2751	3580
410.7948	3727
413.3138	3595
415.83	3684
418.3497	3679
420.8666	3688
423.3829	3703
425.8985	3725
428.4133	3737
430.9275	3750
433.441	3805
435.9538	3791
438.4639	3705
440.9753	3838
443.4881	3773
445.9982	3774
448.5055	3751
451.0142	3750
453.5201	3712
456.0274	3825
458.5361	3824
461.04	3795
463.5453	3781
466.0478	3842
468.5517	3739
471.0549	3832
473.5574	3763
476.0572	3867
478.5584	3837
481.0568	3792
483.5545	3874
486.0557	3900
488.5521	3867
491.0478	3918
493.5449	3954
496.0392	3960
498.5349	3961
501.0299	3900
503.5222	3985
506.0139	3968
508.5048	3962
510.9991	3912
513.4887	3995
515.9777	3858
518.4659	3981
520.9534	3889
523.4403	3976
525.9306	3968
528.4161	4021
530.9009	3969
533.3851	4005
535.8687	3949
538.3535	3996
540.8356	3999
543.3171	4003
545.7979	3873
548.278	3983
550.7595	4057
553.2383	3982
555.7144	3942
558.1918	4075
560.6685	4065
563.1446	4016
565.6221	3982
568.0968	4010
570.5688	4088
573.0422	4094
575.515	4031
577.989	4120
580.4584	4120
582.9291	4020
585.3991	4182
587.8685	4031
590.3352	4097
592.8052	4118
595.2706	4117
597.7372	4116
600.2033	4073
602.6666	4161
605.1334	4064
607.5953	4021
610.0587	4074
612.5193	4068
614.9814	4069
617.4427	4082
619.9034	4141
622.3615	4136
624.8208	4117
627.2775	4026
629.7335	4016
632.1929	4098
634.6476	4004
637.1016	4180
639.5569	4181
642.0096	4094
644.4637	4072
646.9151	4209
649.3678	4112
651.8179	4100
654.2672	4223
656.7159	4111
659.166	4145
661.6154	4137
664.0622	4209
666.5082	4260
668.9537	4142
671.4005	4232
673.8445	4207
676.288	4260
678.7308	4247
681.1729	4223
683.6163	4233
686.0572	4255
688.4973	4191
690.9368	4285
693.3757	4208
695.8138	4396
698.2534	4346
700.6902	4262
703.1245	4379
705.56	4213
707.9949	4306
710.4311	4330
712.8647	4290
715.2957	4429
717.7279	4337
720.1595	4307
722.5905	4372
725.0208	4340
727.4505	4303
729.8795	4337
732.3058	4385
734.7336	4378
737.1626	4385
739.587	4367
742.0128	4468
744.4359	4514
746.8604	4485
749.2841	4528
751.7073	4514
754.1278	4494
756.5496	4490
758.9688	4560
761.3893	4528
763.8093	4526
766.2285	4540
768.6451	4466
771.0611	4552
773.4784	4510
775.895	4438
778.3091	4537
780.7244	4571
783.1371	4609
785.5493	4525
787.9626	4598
790.3754	4569
792.7856	4607
795.1951	4654
797.6039	4576
800.0121	4595
802.4236	4565
804.8306	4625
807.2369	4509
809.6425	4710
812.0475	4541
814.4538	4599
816.8575	4593
819.2606	4550
821.663	4576
824.0648	4609
826.4659	4742
828.8683	4577
831.2682	4617
833.6674	4593
836.066	4641
838.4639	4613
840.8632	4723
843.2579	4637
845.6539	4606
848.0493	4777
850.444	4653
852.84	4703
855.2315	4674
857.6243	4597
860.0165	4585
862.4081	4685
864.797	4751
867.1892	4654
869.5789	4646
871.9659	4708
874.3542	4628
876.74	4661
879.129	4626
881.5155	4652
883.8994	4698
886.2845	4648
888.6671	4617
891.051	4671
893.4343	4654
895.8169	4653
898.197	4707
900.5783	4676
902.9571	4621
905.3372	4680
907.7167	4718
910.0936	4711
912.4698	4782
914.8474	4798
917.2244	4712
919.5987	4861
921.9744	4857
924.3475	4835
926.72	4830
929.0918	4836
931.4669	4896
933.8375	4946
936.2074	4979
938.5767	4872
940.9454	4950
943.3154	4909
945.6829	4924
948.0497	4959
950.4178	5121
952.7833	5207
955.1483	5217
957.5145	5395
959.8782	5435
962.2412	5379
964.6036	5377
966.9655	5256
969.3266	5192
971.6871	5082
974.0471	4985
976.4064	4947
978.765	4887
981.125	4834
983.4824	4853
985.8373	4862
988.1935	4817
990.549	4832
992.9039	4829
995.2602	4843
997.6119	4890
999.965	4868
1002.317	4835
1004.667	4783
1007.02	4977
1009.371	4814
1011.719	4807
1014.068	4898
1016.415	4871
1018.765	4831
1021.111	4840
1023.458	4816
1025.804	4851
1028.147	4925
1030.49	4935
1032.837	4859
1035.179	5044
1037.522	4982
1039.862	5063
1042.204	4909
1044.546	4868
1046.884	4912
1049.224	4967
1051.562	4854
1053.899	4893
1056.237	4949
1058.575	4941
1060.91	4894
1063.244	4913
1065.58	4846
1067.913	4887
1070.248	4933
1072.579	5046
1074.911	4998
1077.242	4969
1079.572	4876
1081.905	4938
1084.234	5045
1086.562	4971
1088.89	4947
1091.217	5041
1093.544	5018
1095.871	5017
1098.197	5046
1100.521	4966
1102.845	4986
1105.169	4974
1107.491	4895
1109.814	4924
1112.135	4967
1114.456	5017
1116.776	4915
1119.096	5105
1121.415	4956
1123.734	5070
1126.052	5076
1128.369	4993
1130.686	5039
1133.002	4943
1135.318	4945
1137.632	5081
1139.945	4981
1142.258	4930
1144.573	5030
1146.884	4924
1149.196	4961
1151.505	5046
1153.816	5006
1156.124	5042
1158.435	5063
1160.742	5041
1163.051	4999
1165.356	4954
1167.663	4987
1169.97	5069
1172.276	5075
1174.579	5073
1176.881	5025
1179.186	5070
1181.487	5083
1183.79	4999
1186.092	5112
1188.392	5104
1190.691	5071
1192.991	5051
1195.291	4966
1197.588	5089
1199.885	4902
1202.181	5087
1204.479	5133
1206.775	5086
1209.07	4939
1211.363	5102
1213.656	5050
1215.949	5054
1218.241	5057
1220.534	5067
1222.825	5072
1225.115	5060
1227.405	5067
1229.693	5069
1231.984	5178
1234.271	5170
1236.558	5165
1238.845	5164
1241.131	5156
1243.416	5123
1245.703	5121
1247.987	5222
1250.269	5151
1252.552	5204
1254.834	5198
1257.118	5202
1259.399	5175
1261.678	5219
1263.958	5135
1266.237	5179
1268.516	5157
1270.794	5158
1273.072	5260
1275.347	5093
1277.624	5134
1279.899	5265
1282.175	5200
1284.449	5114
1286.722	5134
1288.995	5228
1291.266	5100
1293.54	5101
1295.81	5228
1298.081	5196
1300.35	5116
1302.62	5161
1304.889	5048
1307.156	5108
1309.425	5173
1311.69	5103
1313.957	5165
1316.222	5160
1318.488	5116
1320.751	5198
1323.016	5205
1325.278	5102
1327.54	5181
1329.803	5225
1332.065	5201
1334.325	5160
1336.584	5208
1338.843	5159
1341.101	5171
1343.36	5202
1345.617	5199
1347.876	5125
1350.131	5032
1352.387	5070
1354.643	5299
1356.897	5195
1359.151	5204
1361.403	5197
1363.656	5209
1365.909	5311
1368.16	5181
1370.409	5272
1372.659	5122
1374.909	5228
1377.157	5124
1379.407	5239
1381.655	5225
1383.9	5195
1386.147	5207
1388.393	5326
1390.64	5251
1392.885	5323
1395.127	5276
1397.37	5357
1399.614	5312
1401.854	5328
1404.098	5360
1406.339	5300
1408.578	5253
1410.818	5233
1413.056	5367
1415.297	5281
1417.533	5341
1419.771	5360
1422.006	5318
1424.243	5340
1426.479	5325
1428.715	5268
1430.948	5327
1433.182	5369
1435.414	5329
1437.647	5320
1439.88	5363
1442.11	5389
1444.342	5375
1446.571	5491
1448.799	5342
1451.029	5400
1453.258	5460
1455.485	5384
1457.711	5312
1459.937	5325
1462.164	5369
1464.39	5399
1466.614	5372
1468.838	5410
1471.06	5439
1473.283	5349
1475.506	5372
1477.727	5384
1479.949	5327
1482.169	5275
1484.389	5351
1486.609	5352
1488.828	5203
1491.045	5312
1493.261	5216
1495.477	5163
1497.693	5303
1499.91	5174
1502.125	5259
1504.339	5229
1506.553	5269
1508.766	5231
1510.979	5100
1513.191	5223
1515.402	5322
1517.613	5240
1519.823	5223
1522.033	5251
1524.242	5149
1526.451	5256
1528.657	5350
1530.865	5391
1533.072	5267
1535.278	5294
1537.484	5249
1539.687	5305
1541.892	5234
1544.096	5363
1546.299	5255
1548.502	5366
1550.703	5340
1552.905	5379
1555.104	5375
1557.303	5398
1559.505	5323
1561.703	5351
1563.902	5289
1566.099	5429
1568.295	5367
1570.494	5313
1572.689	5341
1574.883	5414
1577.079	5434
1579.272	5386
1581.467	5442
1583.659	5331
1585.853	5481
1588.044	5467
1590.234	5499
1592.424	5507
1594.615	5449
1596.806	5490
1598.994	5474
1601.182	5424
1603.369	5408
1605.557	5387
1607.744	5536
1609.929	5406
1612.114	5394
1614.298	5508
1616.482	5500
1618.667	5547
1620.85	5518
1623.032	5463
1625.214	5484
1627.395	5487
1629.575	5353
1631.755	5523
1633.935	5596
1636.114	5514
1638.292	5435
1640.471	5576
1642.647	5441
1644.823	5466
1647	5405
1649.175	5554
1651.348	5408
1653.525	5548
1655.698	5469
1657.87	5544
1660.043	5465
1662.213	5542
1664.387	5479
1666.558	5533
1668.727	5526
1670.896	5534
1673.064	5524
1675.233	5550
1677.401	5586
1679.569	5506
1681.735	5523
1683.902	5423
1686.066	5452
1688.233	5582
1690.397	5471
1692.559	5439
1694.723	5611
1696.885	5517
1699.048	5537
1701.21	5594
1703.37	5483
1705.53	5481
1707.689	5615
1709.849	5407
1712.009	5484
1714.166	5510
1716.323	5445
1718.479	5554
1720.634	5472
1722.793	5530
1724.948	5467
1727.102	5470
1729.255	5423
1731.408	5445
1733.562	5508
1735.714	5404
1737.865	5555
1740.016	5467
1742.166	5522
1744.316	5454
1746.467	5456
1748.616	5592
1750.764	5542
1752.911	5446
1755.056	5503
1757.205	5418
1759.35	5496
1761.496	5471
1763.641	5523
1765.785	5569
1767.927	5548
1770.072	5554
1772.214	5513
1774.355	5518
1776.496	5596
1778.637	5559
1780.778	5537
1782.918	5552
1785.057	5525
1787.194	5621
1789.333	5632
1791.472	5561
1793.608	5608
1795.745	5623
1797.879	5518
1800.015	5582
1802.148	5479
1804.284	5533
1806.417	5572
1808.548	5678
1810.682	5557
1812.812	5474
1814.946	5604
1817.075	5610
1819.205	5556
1821.335	5559
1823.463	5462
1825.59	5566
1827.721	5505
1829.847	5583
1831.973	5545
1834.098	5475
1836.223	5508
1838.351	5519
1840.475	5537
1842.598	5599
1844.721	5531
1846.843	5643
1848.966	5548
1851.087	5603
1853.21	5530
1855.33	5528
1857.449	5573
1859.568	5450
1861.688	5503
1863.806	5525
1865.924	5478
1868.039	5559
1870.155	5584
1872.273	5542
1874.388	5476
1876.503	5511
1878.617	5604
1880.73	5488
1882.844	5587
1884.956	5503
1887.068	5565
1889.18	5540
1891.291	5616
1893.4	5464
1895.511	5511
1897.621	5509
1899.73	5616
1901.837	5511
1903.944	5667
1906.053	5608
1908.159	5582
1910.265	5614
1912.369	5630
1914.474	5636
1916.577	5525
1918.683	5591
1920.785	5688
1922.888	5673
1924.989	5570
1927.091	5756
1929.193	5601
1931.294	5738
1933.393	5642
1935.493	5679
1937.59	5651
1939.689	5620
1941.788	5601
1943.884	5608
1945.98	5639
1948.077	5799
1950.171	5687
1952.267	5647
1954.361	5661
1956.455	5659
1958.548	5656
1960.64	5639
1962.733	5725
1964.824	5665
1966.915	5689
1969.005	5703
1971.096	5694
1973.185	5544
1975.275	5625
1977.363	5713
1979.45	5642
1981.537	5626
1983.623	5633
1985.711	5561
1987.796	5625
1989.881	5512
1991.965	5719
1994.047	5669
1996.132	5571
1998.215	5543
2000.297	5605
2002.378	5589
2004.46	5668
2006.54	5585
2008.62	5572
2010.7	5551
2012.779	5540
2014.858	5559
2016.934	5739
2019.013	5491
2021.09	5720
2023.165	5551
2025.241	5571
2027.317	5622
2029.39	5581
2031.466	5636
2033.538	5574
2035.612	5528
2037.683	5577
2039.755	5616
2041.827	5679
2043.898	5536
2045.968	5592
2048.038	5610
2050.106	5543
2052.177	5562
2054.244	5482
2056.313	5598
2058.379	5698
2060.444	5654
2062.511	5593
2064.577	5699
2066.641	5573
2068.705	5720
2070.77	5653
2072.832	5651
2074.896	5647
2076.958	5674
2079.02	5689
2081.081	5525
2083.141	5590
2085.2	5690
2087.261	5719
2089.319	5623
2091.377	5572
2093.435	5591
2095.492	5694
2097.552	5713
2099.607	5598
2101.663	5690
2103.718	5708
2105.771	5699
2107.826	5649
2109.879	5665
2111.932	5738
2113.985	5738
2116.037	5688
2118.088	5675
2120.141	5600
2122.191	5597
2124.239	5627
2126.288	5625
2128.337	5520
2130.387	5688
2132.434	5663
2134.481	5645
2136.528	5608
2138.574	5618
2140.618	5671
2142.665	5671
2144.71	5606
2146.753	5603
2148.797	5663
2150.838	5586
2152.883	5615
2154.923	5694
2156.965	5612
2159.007	5689
2161.046	5566
2163.086	5639
2165.126	5556
2167.163	5586
2169.202	5549
2171.239	5629
2173.277	5627
2175.314	5659
2177.349	5628
2179.385	5653
2181.42	5655
2183.453	5603
2185.49	5609
2187.522	5474
2189.555	5601
2191.586	5489
2193.619	5578
2195.651	5510
2197.682	5497
2199.711	5632
2201.74	5476
2203.769	5579
2205.799	5561
2207.828	5550
2209.855	5420
2211.882	5503
2213.908	5524
2215.934	5561
2217.961	5560
2219.986	5539
2222.01	5522
2224.034	5526
2226.057	5447
2228.08	5565
2230.104	5619
2232.124	5607
2234.145	5538
2236.166	5519
2238.186	5628
2240.207	5519
2242.227	5540
2244.244	5461
2246.262	5655
2248.28	5530
2250.299	5508
2252.314	5509
2254.33	5527
2256.346	5517
2258.36	5629
2260.375	5564
2262.391	5555
2264.403	5535
2266.416	5536
2268.427	5455
2270.44	5504
2272.453	5462
2274.463	5593
2276.474	5636
2278.483	5487
2280.493	5654
2282.501	5529
2284.51	5509
2286.518	5644
2288.524	5488
2290.532	5464
2292.537	5641
2294.544	5590
2296.55	5552
2298.554	5609
2300.557	5620
2302.562	5500
2304.566	5466
2306.568	5439
2308.569	5482
2310.572	5612
2312.573	5583
2314.573	5598
2316.574	5440
2318.573	5534
2320.571	5519
2322.571	5474
2324.569	5543
2326.567	5540
2328.564	5516
2330.56	5496
2332.556	5533
2334.551	5522
2336.546	5519
2338.542	5472
2340.535	5382
2342.529	5503
2344.521	5518
2346.512	5407
2348.505	5388
2350.497	5537
2352.487	5555
2354.478	5515
2356.468	5425
2358.457	5469
2360.446	5466
2362.434	5514
2364.422	5509
2366.408	5333
2368.395	5415
2370.383	5491
2372.369	5405
2374.353	5469
2376.338	5486
2378.321	5448
2380.307	5446
2382.29	5387
2384.272	5448
2386.254	5476
2388.235	5432
2390.218	5379
2392.198	5382
2394.179	5412
2396.157	5380
2398.137	5498
2400.115	5462
2402.095	5330
2404.072	5347
2406.048	5366
2408.026	5396
2410.001	5499
2411.977	5406
2413.953	5370
2415.927	5305
2417.9	5488
2419.875	5454
2421.847	5341
2423.821	5338
2425.792	5357
2427.763	5424
2429.736	5387
2431.706	5418
2433.677	5341
2435.646	5380
2437.615	5363
2439.583	5418
2441.551	5459
2443.519	5452
2445.486	5323
2447.452	5511
2449.418	5453
2451.383	5288
2453.348	5403
2455.314	5336
2457.278	5425
2459.241	5442
2461.205	5434
2463.167	5424
2465.131	5351
2467.091	5366
2469.052	5379
2471.012	5424
2472.972	5300
2474.932	5378
2476.891	5438
2478.85	5314
2480.808	5216
2482.766	5334
2484.722	5310
2486.68	5393
2488.636	5474
2490.591	5392
2492.546	5287
2494.5	5415
2496.456	5388
2498.41	5352
2500.362	5338
2502.315	5291
2504.266	5394
2506.218	5397
2508.169	5349
2510.121	5329
2512.07	5374
2514.019	5321
2515.968	5328
2517.918	5393
2519.866	5340
2521.813	5408
2523.76	5348
2525.707	5342
2527.653	5284
2529.599	5307
2531.543	5374
2533.489	5362
2535.433	5341
2537.376	5322
2539.32	5206
2541.264	5340
2543.205	5247
2545.147	5368
2547.087	5355
2549.029	5308
2550.969	5385
2552.908	5297
2554.847	5257
2556.786	5360
2558.724	5330
2560.663	5241
2562.6	5393
2564.537	5445
2566.473	5357
2568.408	5389
2570.345	5360
2572.28	5399
2574.214	5304
2576.148	5383
2578.081	5329
2580.014	5294
2581.947	5362
2583.879	5322
2585.81	5314
2587.741	5392
2589.67	5356
2591.602	5366
2593.532	5247
2595.461	5326
2597.388	5427
2599.316	5319
2601.244	5425
2603.172	5377
2605.098	5431
2607.023	5388
2608.949	5353
2610.873	5381
2612.8	5403
2614.723	5385
2616.647	5350
2618.569	5366
2620.493	5346
2622.416	5288
2624.338	5356
2626.258	5435
2628.179	5390
2630.099	5418
2632.019	5335
2633.939	5358
2635.857	5366
2637.775	5415
2639.694	5491
2641.61	5563
2643.528	5397
2645.444	5389
2647.361	5362
2649.276	5346
2651.19	5389
2653.105	5357
2655.019	5372
2656.934	5296
2658.846	5313
2660.758	5384
2662.67	5468
2664.583	5439
2666.493	5313
2668.404	5358
2670.313	5340
2672.223	5356
2674.134	5283
2676.042	5260
2677.95	5404
2679.858	5335
2681.765	5341
2683.673	5322
2685.579	5278
2687.483	5294
2689.389	5265
2691.294	5249
2693.198	5384
2695.104	5299
2697.006	5296
2698.909	5382
2700.811	5289
2702.713	5343
2704.615	5348
2706.516	5212
2708.417	5305
2710.316	5323
2712.216	5248
2714.115	5291
2716.014	5332
2717.913	5287
2719.81	5305
2721.707	5227
2723.603	5378
2725.501	5216
2727.396	5313
2729.292	5257
2731.186	5289
2733.081	5309
2734.976	5180
2736.87	5287
2738.762	5231
2740.653	5242
2742.546	5269
2744.437	5312
2746.329	5186
2748.22	5282
2750.11	5232
2751.999	5196
2753.889	5293
2755.778	5304
2757.666	5247
2759.553	5225
2761.44	5322
2763.328	5227
2765.215	5208
2767.101	5342
2768.986	5233
2770.87	5253
2772.754	5258
2774.638	5218
2776.523	5280
2778.405	5242
2780.288	5253
2782.17	5235
2784.051	5286
2785.934	5228
2787.814	5232
2789.694	5157
2791.574	5212
2793.453	5255
2795.332	5333
2797.212	5211
2799.088	5203
2800.966	5311
2802.843	5153
2804.719	5174
2806.597	5207
2808.471	5222
2810.346	5189
2812.221	5166
2814.094	5258
2815.969	5192
2817.843	5229
2819.714	5245
2821.587	5202
2823.459	5212
2825.329	5100
2827.202	5249
2829.072	5152
2830.942	5135
2832.811	5199
2834.68	5323
2836.549	5293
2838.418	5089
2840.284	5262
2842.152	5142
2844.018	5265
2845.885	5213
2847.751	5386
2849.616	5237
2851.482	5202
2853.345	5275
2855.208	5257
2857.074	5234
2858.937	5176
2860.799	5274
2862.66	5323
2864.522	5240
2866.385	5246
2868.245	5368
2870.104	5316
2871.964	5384
2873.824	5317
2875.683	5419
2877.542	5483
2879.4	5508
2881.257	5465
2883.114	5500
2884.97	5515
2886.827	5526
2888.683	5478
2890.537	5564
2892.392	5428
2894.246	5586
2896.1	5437
2897.954	5456
2899.807	5397
2901.66	5501
2903.51	5492
2905.362	5461
2907.214	5479
2909.065	5460
2910.915	5548
2912.765	5465
2914.613	5481
2916.463	5581
2918.311	5396
2920.158	5540
2922.006	5478
2923.853	5629
2925.698	5610
2927.546	5584
2929.392	5698
2931.236	5552
2933.081	5728
2934.924	5816
2936.77	5751
2938.613	5670
2940.455	5843
2942.298	5736
2944.139	5831
2945.982	5832
2947.823	5684
2949.662	5799
2951.503	5826
2953.342	5881
2955.182	5693
2957.021	5703
2958.858	5761
2960.697	5670
2962.534	5672
2964.37	5562
2966.207	5624
2968.044	5490
2969.879	5559
2971.714	5451
2973.548	5469
2975.383	5426
2977.218	5349
2979.051	5468
2980.883	5417
2982.715	5427
2984.547	5477
2986.379	5339
2988.21	5334
2990.04	5266
2991.87	5401
2993.7	5332
2995.53	5282
2997.359	5318
2999.187	5161
3001.015	5265
3002.842	5145
3004.669	5150
3006.497	5135
3008.323	5213
3010.148	5166
3011.974	5018
3013.797	5056
3015.623	5088
3017.447	5045
3019.27	5168
3021.094	5167
3022.915	5095
3024.737	5107
3026.56	5057
3028.38	5094
3030.201	5007
3032.022	5080
3033.84	4971
3035.662	4989
3037.481	4986
3039.298	5083
3041.117	5029
3042.933	5036
3044.752	4970
3046.568	5058
3048.385	4949
3050.2	4992
3052.016	5031
3053.83	4976
3055.646	5047
3057.46	5078
3059.272	5051
3061.086	5022
3062.898	4898
3064.711	4933
3066.524	4901
3068.335	4908
3070.145	4972
3071.956	4831
3073.766	4918
3075.576	4989
3077.385	4947
3079.193	4870
3081.002	4884
3082.81	4864
3084.618	4889
3086.425	4898
3088.231	4990
3090.036	4836
3091.842	4924
3093.648	4846
3095.452	4967
3097.257	4755
3099.06	4822
3100.863	4822
3102.666	4834
3104.47	4923
3106.272	4884
3108.073	4797
3109.875	4867
3111.676	4921
3113.477	4816
3115.277	4874
3117.077	4711
3118.874	4838
3120.673	4844
3122.473	4796
3124.271	4731
3126.066	4802
3127.863	4810
3129.66	4843
3131.456	4763
3133.252	4788
3135.047	4847
3136.842	4669
3138.635	4799
3140.429	4811
3142.223	4704
3144.016	4799
3145.808	4698
3147.6	4764
3149.392	4823
3151.183	4713
3152.975	4755
3154.765	4668
3156.553	4804
3158.344	4803
3160.132	4789
3161.922	4754
3163.71	4700
3165.497	4733
3167.285	4738
3169.071	4767
3170.858	4735
3172.645	4761
3174.429	4743
3176.214	4814
3177.998	4655
3179.783	4689
3181.568	4666
3183.351	4762
3185.133	4673
3186.915	4705
3188.698	4834
3190.481	4765
3192.261	4658
3194.042	4681
3195.822	4592
3197.601	4698
3199.381	4687
3201.161	4677
3202.939	4706
3204.717	4592
3206.495	4711
3208.272	4571
3210.05	4721
3211.826	4557
3213.602	4617
3215.376	4667
3217.151	4632
3218.927	4636
3220.702	4687
3222.476	4676
3224.249	4678
3226.021	4621
3227.793	4725
3229.567	4615
3231.339	4632
3233.109	4672
3234.88	4612
3236.651	4665
3238.421	4669
3240.191	4592
3241.96	4590
3243.728	4658
3245.497	4567
3247.263	4672
3249.033	4596
3250.799	4613
3252.566	4682
3254.331	4642
3256.097	4695
3257.863	4624
3259.628	4643
3261.392	4672
3263.156	4597
3264.919	4518
3266.683	4581
3268.447	4617
3270.208	4677
3271.969	4675
3273.731	4597
3275.492	4623
3277.253	4645
3279.013	4647
3280.773	4627
3282.532	4569
3284.291	4710
3286.05	4628
3287.808	4541
3289.566	4703
3291.323	4576
3293.079	4574
3294.835	4588
3296.593	4692
3298.348	4722
3300.102	4588
3301.857	4525
3303.611	4610
3305.366	4529
3307.119	4620
3308.872	4676
3310.624	4550
3312.376	4597
3314.129	4565
3315.881	4695
3317.631	4524
3319.38	4633
3321.13	4643
3322.88	4642
3324.631	4611
3326.379	4596
3328.126	4634
3329.875	4590
3331.622	4526
3333.371	4622
3335.116	4530
3336.863	4449
3338.609	4643
3340.353	4524
3342.1	4560
3343.845	4580
3345.588	4561
3347.332	4541
3349.074	4598
3350.817	4513
3352.56	4556
3354.303	4531
3356.043	4500
3357.785	4539
3359.525	4485
3361.268	4483
3363.007	4572
3364.745	4505
3366.485	4536
3368.223	4522
3369.962	4438
3371.701	4509
3373.438	4484
3375.174	4571
3376.911	4460
3378.647	4525
3380.384	4555
3382.118	4513
3383.854	4498
3385.588	4419
3387.322	4577
3389.057	4579
3390.79	4489
3392.522	4450
3394.255	4430
3395.987	4486
3397.719	4580
3399.451	4393
3401.181	4487
3402.911	4510
3404.641	4450
3406.371	4538
3408.101	4373
3409.83	4433
3411.558	4398
3413.285	4505
3415.011	4339
3416.739	4519
3418.467	4443
3420.193	4523
3421.919	4454
3423.644	4474
3425.368	4419
3427.094	4346
3428.818	4358
3430.542	4419
3432.264	4405
3433.987	4418
3435.712	4420
3437.434	4368
3439.155	4338
3440.876	4392
3442.596	4350
3444.317	4276
3446.039	4468
3447.757	4274
3449.477	4386
3451.195	4386
3452.914	4349
3454.632	4307
3456.35	4332
3458.067	4316
3459.784	4324
3461.5	4305
3463.216	4336
3464.932	4276
3466.647	4294
3468.362	4383
3470.076	4353
3471.789	4308
3473.505	4409
3475.217	4262
3476.929	4347
3478.641	4296
3480.354	4247
3482.066	4271
3483.777	4380
3485.487	4315
3487.197	4233
3488.908	4290
3490.617	4257
3492.327	4287
3494.035	4226
3495.743	4217
3497.451	4169
3499.158	4205
3500.866	4257
3502.572	4327
3504.278	4148
3505.984	4261
3507.689	4189
3509.396	4232
3511.1	4183
3512.804	4222
3514.508	4197
3516.211	4182
3517.913	4174
3519.616	4268
3521.319	4177
3523.021	4256
3524.722	4080
3526.422	4172
3528.124	4234
3529.824	4142
3531.524	4199
3533.222	4146
3534.921	4207
3536.62	4228
3538.318	4166
3540.016	4226
3541.714	4181
3543.41	4197
3545.107	4137
3546.803	4151
3548.5	4183
3550.194	4167
3551.889	4232
3553.583	4134
3555.279	4188
3556.972	4188
3558.666	4203
3560.358	4211
3562.051	4160
3563.742	4179
3565.435	4085
3567.126	4178
3568.817	4145
3570.507	4148
3572.197	4082
3573.888	4097
3575.577	4095
3577.265	4122
3578.954	4126
3580.642	4184
3582.329	4095
3584.017	4082
3585.704	4030
3587.391	4119
3589.077	4138
3590.762	4013
3592.449	4100
3594.133	4076
3595.817	4037
3597.501	4118
3599.185	4113
3600.869	4105
3602.552	4014
3604.234	4126
3605.916	4044
3607.598	4014
3609.279	4053
3610.961	3983
3612.642	4053
3614.321	3985
3616	4012
3617.68	4013
3619.36	4015
3621.039	4022
3622.716	4046
3624.394	4016
3626.071	3941
3627.748	3953
3629.425	3960
3631.102	3961
3632.778	3924
3634.452	3978
3636.127	3954
3637.803	3958
3639.477	3986
3641.151	3897
3642.823	3937
3644.497	4078
3646.171	3916
3647.842	3920
3649.515	3906
3651.185	3953
3652.857	3965
3654.527	3967
3656.198	3895
3657.868	4033
3659.537	3934
3661.207	3858
3662.875	3898
3664.544	3944
3666.212	3864
3667.879	3874
3669.546	3886
3671.212	3908
3672.88	3904
3674.546	3905
3676.211	3922
3677.875	3856
3679.541	3936
3681.205	3917
3682.87	3828
3684.533	3853
3686.196	3803
3687.859	3814
3689.521	3929
3691.184	3848
3692.845	3798
3694.507	3844
3696.167	3884
3697.827	3734
3699.487	3925
3701.148	3942
3702.808	3810
3704.466	3820
3706.125	3814
3707.783	3822
3709.442	3868
3711.099	3774
3712.757	3777
3714.412	3926
3716.068	3750
3717.725	3822
3719.381	3691
3721.036	3850
3722.689	3751
3724.344	3860
3725.998	3758
3727.652	3894
3729.305	3841
3730.958	3816
3732.61	3788
3734.262	3820
3735.915	3769
3737.565	3772
3739.217	3829
3740.866	3786
3742.516	3802
3744.165	3845
3745.816	3769
3747.464	3752
3749.113	3857
3750.761	3734
3752.409	3796
3754.057	3804
3755.703	3771
3757.35	3754
3758.996	3816
3760.641	3730
3762.289	3715
3763.933	3690
3765.577	3791
3767.222	3787
3768.865	3753
3770.508	3671
3772.152	3756
3773.796	3743
3775.438	3685
3777.079	3747
3778.721	3666
3780.363	3733
3782.003	3754
3783.643	3756
3785.283	3631
3786.923	3737
3788.563	3744
3790.203	3654
3791.841	3661
3793.479	3669
3795.115	3653
3796.753	3575
3798.391	3660
3800.027	3576
3801.664	3722
3803.299	3674
3804.935	3650
3806.571	3657
3808.206	3654
3809.839	3589
3811.473	3707
3813.107	3625
3814.74	3629
3816.375	3679
3818.006	3648
3819.638	3603
3821.27	3625
3822.9	3671
3824.532	3633
3826.163	3598
3827.792	3613
3829.423	3637
3831.051	3641
3832.682	3557
3834.311	3537
3835.938	3671
3837.566	3626
3839.193	3643
3840.821	3537
3842.448	3600
3844.075	3636
3845.7	3566
3847.325	3558
3848.951	3654
3850.576	3618
3852.201	3591
3853.825	3585
3855.448	3567
3857.072	3604
3858.694	3486
3860.318	3592
3861.939	3577
3863.562	3591
3865.183	3530
3866.804	3597
3868.426	3506
3870.045	3574
3871.666	3523
3873.285	3574
3874.904	3541
3876.524	3558
3878.142	3523
3879.76	3606
3881.378	3460
3882.995	3507
3884.612	3523
3886.229	3571
3887.845	3502
3889.461	3581
3891.076	3558
3892.691	3530
3894.307	3505
3895.922	3474
3897.536	3484
3899.149	3565
3900.761	3471
3902.374	3511
3903.988	3627
3905.6	3498
3907.212	3488
3908.822	3505
3910.433	3519
3912.045	3510
3913.655	3446
3915.265	3503
3916.875	3498
3918.483	3456
3920.093	3542
3921.702	3493
3923.309	3498
3924.917	3492
3926.523	3479
3928.13	3486
3929.739	3505
3931.344	3427
3932.95	3426
3934.555	3447
3936.159	3470
3937.766	3418
3939.369	3494
3940.974	3489
3942.577	3419
3944.181	3424
3945.783	3456
3947.386	3360
3948.989	3496
3950.59	3458
3952.191	3438
3953.791	3426
3955.394	3327
3956.994	3449
3958.593	3417
3960.192	3445
3961.791	3392
3963.392	3457
3964.99	3357
3966.588	3458
3968.185	3432
3969.782	3421
3971.379	3360
3972.976	3412
3974.572	3414
3976.168	3327
3977.763	3342
3979.358	3407
3980.954	3444
3982.548	3354
3984.142	3330
3985.736	3449
3987.329	3336
3988.922	3458
3990.516	3464
3992.108	3412
3993.698	3214
3995.29	3339
3996.881	3304
3998.473	3327
4000.064	3373
4001.653	3351
4003.242	3247
4004.832	3363
4006.422	3332
4008.01	3329
4009.598	3255
4011.186	3247
4012.773	3302
4014.36	3264
4015.947	3338
4017.534	3283
4019.119	3231
4020.705	3354
4022.291	3293
4023.876	3279
4025.461	3276
4027.044	3300
4028.627	3275
4030.211	3355
4031.795	3289
4033.378	3259
4034.96	3213
4036.542	3225
4038.124	3202
4039.704	3250
4041.286	3200
4042.867	3236
4044.447	3231
4046.026	3259
4047.606	3276
4049.187	3238
4050.765	3223
4052.343	3261
4053.92	3238
4055.498	3183
4057.076	3192
4058.654	3228
4060.23	3236
4061.806	3219
4063.381	3160
4064.957	3193
4066.533	3126
4068.107	3201
4069.682	3137
4071.256	3172
4072.829	3156
4074.404	3276
4075.977	3150
4077.549	3210
4079.121	3200
4080.693	3263
4082.265	3177
4083.836	3179
4085.407	3075
4086.977	3190
4088.547	3205
4090.117	3118
4091.687	3033
4093.256	3242
4094.825	3155
4096.392	3251
4097.96	3090
4099.528	3187
4101.097	3145
4102.663	3172
4104.229	3158
4105.795	3104
4107.361	3060
4108.928	3166
4110.493	3126
4112.058	3084
4113.621	3144
4115.186	3066
4116.75	3152
4118.313	3060
4119.876	3095
4121.438	3237
4123	3078
4124.562	3120
4126.125	3108
4127.686	3123
4129.246	3105
4130.807	3107
4132.367	3109
4133.927	3075
4135.486	3084
4137.046	3122
4138.604	3051
4140.162	3068
4141.72	3093
4143.279	3099
4144.836	3061
4146.393	3103
4147.949	3011
4149.505	3054
4151.062	3067
4152.617	3060
4154.172	3094
4155.727	3054
4157.281	3066
4158.836	3023
4160.39	3058
4161.943	3027
4163.496	3043
4165.048	3053
4166.601	3008
4168.154	2996
4169.706	2942
4171.257	3044
4172.808	3044
4174.358	2990
4175.909	3020
4177.458	3037
4179.008	2994
4180.558	2910
4182.106	3002
4183.655	2978
4185.204	3035
4186.751	2948
4188.298	3058
4189.845	2999
4191.392	3022
4192.939	2940
4194.485	3057
4196.031	3001
4197.576	3005
4199.121	2919
4200.666	2948
4202.211	2987
4203.754	2922
4205.298	2938
4206.84	2946
4208.384	2935
4209.927	2979
4211.47	2976
4213.011	2966
4214.552	2890
4216.094	2877
4217.635	2956
4219.175	3029
4220.716	2973
4222.255	2940
4223.793	2952
4225.335	2946
4226.873	2872
4228.411	3004
4229.948	2883
4231.486	2910
4233.024	2918
4234.562	2941
4236.098	2805
4237.634	2897
4239.169	2907
4240.705	2902
4242.241	2900
4243.776	2851
4245.31	2896
4246.844	2912
4248.378	2874
4249.911	2930
4251.445	2894
4252.978	2904
4254.51	2891
4256.042	2907
4257.574	2879
4259.107	2877
4260.638	2882
4262.169	2848
4263.699	2898
4265.228	2840
4266.759	2869
4268.289	2832
4269.818	2869
4271.345	2820
4272.874	2821
4274.402	2880
4275.931	2890
4277.458	2849
4278.985	2834
4280.512	2814
4282.037	2848
4283.564	2829
4285.089	2777
4286.615	2789
4288.139	2869
4289.664	2877
4291.187	2806
4292.712	2848
4294.235	2879
4295.759	2823
4297.281	2801
4298.804	2775
4300.327	2904
4301.849	2842
4303.37	2797
4304.891	2791
4306.412	2816
4307.933	2783
4309.453	2798
4310.973	2809
4312.492	2749
