398.1873	3150
400.7097	3153
403.2336	3142
405.7547	3071
408.2751	3138
410.7948	3136
413.3138	3128
415.83	3160
418.3497	3228
420.8666	3172
423.3829	3256
425.8985	3209
428.4133	3235
430.9275	3285
433.441	3281
435.9538	3281
438.4639	3241
440.9753	3400
443.4881	3405
445.9982	3379
448.5055	3343
451.0142	3253
453.5201	3282
456.0274	3260
458.5361	3283
461.04	3310
463.5453	3239
466.0478	3251
468.5517	3337
471.0549	3298
473.5574	3273
476.0572	3335
478.5584	3381
481.0568	3345
483.5545	3364
486.0557	3305
488.5521	3361
491.0478	3354
493.5449	3348
496.0392	3312
498.5349	3354
501.0299	3376
503.5222	3303
506.0139	3384
508.5048	3395
510.9991	3391
513.4887	3437
515.9777	3435
518.4659	3388
520.9534	3365
523.4403	3415
525.9306	3383
528.4161	3475
530.9009	3448
533.3851	3389
535.8687	3388
538.3535	3394
540.8356	3446
543.3171	3509
545.7979	3428
548.278	3357
550.7595	3450
553.2383	3445
555.7144	3386
558.1918	3487
560.6685	3397
563.1446	3463
565.6221	3467
568.0968	3496
570.5688	3460
573.0422	3447
575.515	3476
577.989	3452
580.4584	3590
582.9291	3567
585.3991	3529
587.8685	3586
590.3352	3571
592.8052	3473
595.2706	3589
597.7372	3595
600.2033	3546
602.6666	3485
605.1334	3527
607.5953	3581
610.0587	3479
612.5193	3520
614.9814	3515
617.4427	3535
619.9034	3566
622.3615	3482
624.8208	3508
627.2775	3463
629.7335	3451
632.1929	3490
634.6476	3514
637.1016	3504
639.5569	3552
642.0096	3503
644.4637	3480
646.9151	3527
649.3678	3549
651.8179	3578
654.2672	3514
656.7159	3532
659.166	3593
661.6154	3579
664.0622	3596
666.5082	3549
668.9537	3604
671.4005	3593
673.8445	3538
676.288	3612
678.7308	3705
681.1729	3672
683.6163	3583
686.0572	3652
688.4973	3551
690.9368	3665
693.3757	3581
695.8138	3698
698.2534	3642
700.6902	3716
703.1245	3719
705.56	3673
707.9949	3712
710.4311	3663
712.8647	3707
715.2957	3685
717.7279	3630
720.1595	3622
722.5905	3794
725.0208	3808
727.4505	3733
729.8795	3641
732.3058	3662
734.7336	3731
737.1626	3761
739.587	3729
742.0128	3822
744.4359	3799
746.8604	3799
749.2841	3804
751.7073	3891
754.1278	3777
756.5496	3830
758.9688	3779
761.3893	3885
763.8093	3816
766.2285	3878
768.6451	3909
771.0611	3942
773.4784	3799
775.895	3917
778.3091	3844
780.7244	3863
783.1371	3864
785.5493	3906
787.9626	3878
790.3754	3878
792.7856	3866
795.1951	3885
797.6039	3871
800.0121	3796
802.4236	3870
804.8306	3888
807.2369	3947
809.6425	3914
812.0475	3871
814.4538	3914
816.8575	3921
819.2606	3894
821.663	3916
824.0648	3932
826.4659	3926
828.8683	3849
831.2682	3879
833.6674	3915
836.066	3917
838.4639	3981
840.8632	3949
843.2579	3980
845.6539	3949
848.0493	3971
850.444	4021
852.84	4003
855.2315	3961
857.6243	3914
860.0165	3935
862.4081	3970
864.797	4004
867.1892	3966
869.5789	4064
871.9659	3903
874.3542	3975
876.74	3959
879.129	4040
881.5155	3938
883.8994	4000
886.2845	3922
888.6671	4011
891.051	4050
893.4343	3988
895.8169	3989
898.197	3963
900.5783	4028
902.9571	4015
905.3372	4095
907.7167	4016
910.0936	4012
912.4698	4069
914.8474	4135
917.2244	4073
919.5987	4131
921.9744	4180
924.3475	4181
926.72	4383
929.0918	4160
931.4669	4116
933.8375	4061
936.2074	4106
938.5767	4260
940.9454	4249
943.3154	4241
945.6829	4238
948.0497	4277
950.4178	4417
952.7833	4602
955.1483	4634
957.5145	4809
959.8782	4790
962.2412	4738
964.6036	4644
966.9655	4685
969.3266	4473
971.6871	4344
974.0471	4273
976.4064	4200
978.765	4301
981.125	4201
983.4824	4015
985.8373	4159
988.1935	4124
990.549	4156
992.9039	4158
995.2602	4175
997.6119	4047
999.965	4207
1002.317	4108
1004.667	4147
1007.02	4143
1009.371	4179
1011.719	4158
1014.068	4149
1016.415	4175
1018.765	4203
1021.111	4156
1023.458	4195
1025.804	4177
1028.147	4213
1030.49	4165
1032.837	4182
1035.179	4181
1037.522	4160
1039.862	4189
1042.204	4168
1044.546	4203
1046.884	4104
1049.224	4231
1051.562	4222
1053.899	4191
1056.237	4215
1058.575	4172
1060.91	4241
1063.244	4203
1065.58	4245
1067.913	4329
1070.248	4372
1072.579	4220
1074.911	4253
1077.242	4271
1079.572	4219
1081.905	4224
1084.234	4329
1086.562	4251
1088.89	4328
1091.217	4285
1093.544	4321
1095.871	4180
1098.197	4268
1100.521	4199
1102.845	4147
1105.169	4266
1107.491	4252
1109.814	4275
1112.135	4241
1114.456	4252
1116.776	4269
1119.096	4179
1121.415	4305
1123.734	4324
1126.052	4371
1128.369	4233
1130.686	4259
1133.002	4267
1135.318	4264
1137.632	4271
1139.945	4197
1142.258	4281
1144.573	4248
1146.884	4318
1149.196	4248
1151.505	4325
1153.816	4294
1156.124	4320
1158.435	4345
1160.742	4270
1163.051	4205
1165.356	4162
1167.663	4333
1169.97	4242
1172.276	4271
1174.579	4293
1176.881	4260
1179.186	4291
1181.487	4360
1183.79	4240
1186.092	4367
1188.392	4343
1190.691	4313
1192.991	4296
1195.291	4263
1197.588	4261
1199.885	4388
1202.181	4294
1204.479	4243
1206.775	4282
1209.07	4239
1211.363	4329
1213.656	4180
1215.949	4336
1218.241	4322
1220.534	4315
1222.825	4329
1225.115	4370
1227.405	4339
1229.693	4410
1231.984	4426
1234.271	4427
1236.558	4352
1238.845	4400
1241.131	4447
1243.416	4492
1245.703	4489
1247.987	4397
1250.269	4411
1252.552	4475
1254.834	4515
1257.118	4443
1259.399	4370
1261.678	4413
1263.958	4500
1266.237	4456
1268.516	4459
1270.794	4468
1273.072	4456
1275.347	4438
1277.624	4466
1279.899	4336
1282.175	4450
1284.449	4375
1286.722	4472
1288.995	4424
1291.266	4483
1293.54	4379
1295.81	4478
1298.081	4407
1300.35	4393
1302.62	4383
1304.889	4407
1307.156	4397
1309.425	4437
1311.69	4440
1313.957	4350
1316.222	4412
1318.488	4427
1320.751	4382
1323.016	4424
1325.278	4444
1327.54	4381
1329.803	4528
1332.065	4416
1334.325	4399
1336.584	4496
1338.843	4462
1341.101	4387
1343.36	4496
1345.617	4522
1347.876	4463
1350.131	4383
1352.387	4401
1354.643	4456
1356.897	4308
1359.151	4447
1361.403	4461
1363.656	4385
1365.909	4460
1368.16	4386
1370.409	4465
1372.659	4500
1374.909	4392
1377.157	4501
1379.407	4405
1381.655	4464
1383.9	4491
1386.147	4555
1388.393	4467
1390.64	4464
1392.885	4634
1395.127	4578
1397.37	4583
1399.614	4570
1401.854	4621
1404.098	4627
1406.339	4545
1408.578	4562
1410.818	4610
1413.056	4545
1415.297	4500
1417.533	4606
1419.771	4530
1422.006	4649
1424.243	4613
1426.479	4566
1428.715	4624
1430.948	4592
1433.182	4560
1435.414	4568
1437.647	4613
1439.88	4677
1442.11	4731
1444.342	4621
1446.571	4635
1448.799	4587
1451.029	4679
1453.258	4586
1455.485	4742
1457.711	4641
1459.937	4637
1462.164	4777
1464.39	4654
1466.614	4581
1468.838	4569
1471.06	4492
1473.283	4577
1475.506	4630
1477.727	4476
1479.949	4493
1482.169	4606
1484.389	4597
1486.609	4549
1488.828	4488
1491.045	4506
1493.261	4539
1495.477	4505
1497.693	4567
1499.91	4462
1502.125	4401
1504.339	4508
1506.553	4436
1508.766	4544
1510.979	4475
1513.191	4639
1515.402	4516
1517.613	4524
1519.823	4370
1522.033	4524
1524.242	4485
1526.451	4489
1528.657	4536
1530.865	4508
1533.072	4592
1535.278	4465
1537.484	4576
1539.687	4538
1541.892	4509
1544.096	4609
1546.299	4466
1548.502	4540
1550.703	4533
1552.905	4476
1555.104	4524
1557.303	4712
1559.505	4597
1561.703	4562
1563.902	4579
1566.099	4659
1568.295	4652
1570.494	4656
1572.689	4686
1574.883	4705
1577.079	4590
1579.272	4694
1581.467	4674
1583.659	4642
1585.853	4614
1588.044	4610
1590.234	4652
1592.424	4695
1594.615	4660
1596.806	4619
1598.994	4664
1601.182	4701
1603.369	4772
1605.557	4711
1607.744	4690
1609.929	4794
1612.114	4749
1614.298	4818
1616.482	4664
1618.667	4687
1620.85	4739
1623.032	4652
1625.214	4700
1627.395	4785
1629.575	4704
1631.755	4758
1633.935	4736
1636.114	4704
1638.292	4762
1640.471	4686
1642.647	4742
1644.823	4739
1647	4746
1649.175	4836
1651.348	4646
1653.525	4721
1655.698	4711
1657.87	4788
1660.043	4679
1662.213	4686
1664.387	4779
1666.558	4734
1668.727	4752
1670.896	4720
1673.064	4761
1675.233	4711
1677.401	4882
1679.569	4697
1681.735	4790
1683.902	4804
1686.066	4734
1688.233	4726
1690.397	4683
1692.559	4791
1694.723	4805
1696.885	4781
1699.048	4716
1701.21	4815
1703.37	4711
1705.53	4816
1707.689	4702
1709.849	4680
1712.009	4792
1714.166	4696
1716.323	4649
1718.479	4649
1720.634	4715
1722.793	4733
1724.948	4792
1727.102	4680
1729.255	4705
1731.408	4680
1733.562	4740
1735.714	4743
1737.865	4852
1740.016	4642
1742.166	4711
1744.316	4735
1746.467	4717
1748.616	4735
1750.764	4791
1752.911	4824
1755.056	4838
1757.205	4670
1759.35	4655
1761.496	4754
1763.641	4716
1765.785	4730
1767.927	4778
1770.072	4788
1772.214	4776
1774.355	4675
1776.496	4746
1778.637	4775
1780.778	4727
1782.918	4748
1785.057	4754
1787.194	4692
1789.333	4823
1791.472	4788
1793.608	4747
1795.745	4782
1797.879	4785
1800.015	4767
1802.148	4847
1804.284	4799
1806.417	4765
1808.548	4741
1810.682	4794
1812.812	4769
1814.946	4761
1817.075	4991
1819.205	4827
1821.335	4816
1823.463	4764
1825.59	4822
1827.721	4831
1829.847	4778
1831.973	4812
1834.098	4817
1836.223	4818
1838.351	4653
1840.475	4748
1842.598	4854
1844.721	4761
1846.843	4833
1848.966	4712
1851.087	4827
1853.21	4768
1855.33	4733
1857.449	4747
1859.568	4683
1861.688	4816
1863.806	4771
1865.924	4759
1868.039	4874
1870.155	4726
1872.273	4813
1874.388	4709
1876.503	4738
1878.617	4719
1880.73	4843
1882.844	4779
1884.956	4692
1887.068	4814
1889.18	4721
1891.291	4744
1893.4	4817
1895.511	4792
1897.621	4832
1899.73	4793
1901.837	4812
1903.944	4915
1906.053	4805
1908.159	4754
1910.265	4875
1912.369	4832
1914.474	4754
1916.577	4766
1918.683	4833
1920.785	4775
1922.888	4842
1924.989	4755
1927.091	4868
1929.193	4850
1931.294	4830
1933.393	4909
1935.493	4888
1937.59	4876
1939.689	4907
1941.788	4827
1943.884	4913
1945.98	4801
1948.077	4851
1950.171	4783
1952.267	4944
1954.361	4872
1956.455	4837
1958.548	4949
1960.64	4979
1962.733	4887
1964.824	4911
1966.915	4928
1969.005	4785
1971.096	4798
1973.185	4865
1975.275	4920
1977.363	4942
1979.45	4928
1981.537	4893
1983.623	4916
1985.711	4953
1987.796	4904
1989.881	4781
1991.965	4921
1994.047	4886
1996.132	4880
1998.215	4827
2000.297	4841
2002.378	4886
2004.46	4815
2006.54	4782
2008.62	4782
2010.7	4766
2012.779	4816
2014.858	4898
2016.934	4826
2019.013	4811
2021.09	4820
2023.165	4747
2025.241	4923
2027.317	4853
2029.39	4871
2031.466	4791
2033.538	4809
2035.612	4800
2037.683	4883
2039.755	4910
2041.827	4871
2043.898	4867
2045.968	4835
2048.038	4858
2050.106	4825
2052.177	4841
2054.244	4875
2056.313	4846
2058.379	4924
2060.444	4925
2062.511	4976
2064.577	4908
2066.641	4854
2068.705	4807
2070.77	4904
2072.832	4798
2074.896	4931
2076.958	4921
2079.02	4879
2081.081	4830
2083.141	4931
2085.2	4874
2087.261	4906
2089.319	4836
2091.377	4885
2093.435	4998
2095.492	4959
2097.552	4859
2099.607	4892
2101.663	4891
2103.718	4968
2105.771	4823
2107.826	4924
2109.879	4914
2111.932	4850
2113.985	4894
2116.037	4972
2118.088	5008
2120.141	4931
2122.191	5036
2124.239	4953
2126.288	4892
2128.337	4884
2130.387	4904
2132.434	4954
2134.481	4854
2136.528	4846
2138.574	4866
2140.618	4911
2142.665	4928
2144.71	4904
2146.753	4830
2148.797	4855
2150.838	4946
2152.883	4912
2154.923	4787
2156.965	4831
2159.007	4946
2161.046	4890
2163.086	4819
2165.126	4934
2167.163	4860
2169.202	4938
2171.239	4922
2173.277	4893
2175.314	4919
2177.349	4901
2179.385	4912
2181.42	4848
2183.453	4782
2185.49	4810
2187.522	4901
2189.555	4804
2191.586	4790
2193.619	4857
2195.651	4903
2197.682	4812
2199.711	4882
2201.74	4759
2203.769	4816
2205.799	4865
2207.828	4875
2209.855	4820
2211.882	4764
2213.908	4875
2215.934	4835
2217.961	4847
2219.986	4772
2222.01	4777
2224.034	4775
2226.057	4790
2228.08	4767
2230.104	4795
2232.124	4830
2234.145	4821
2236.166	4857
2238.186	4856
2240.207	4789
2242.227	4786
2244.244	4858
2246.262	4797
2248.28	4778
2250.299	4791
2252.314	4849
2254.33	4961
2256.346	4823
2258.36	4870
2260.375	4806
2262.391	4824
2264.403	4859
2266.416	4915
2268.427	4942
2270.44	4890
2272.453	4814
2274.463	4802
2276.474	4849
2278.483	4884
2280.493	4842
2282.501	4813
2284.51	4718
2286.518	4858
2288.524	4814
2290.532	4879
2292.537	4849
2294.544	4916
2296.55	4839
2298.554	4866
2300.557	5006
2302.562	4841
2304.566	4817
2306.568	4852
2308.569	4830
2310.572	4815
2312.573	4825
2314.573	4792
2316.574	4781
2318.573	4828
2320.571	4850
2322.571	4816
2324.569	4755
2326.567	4869
2328.564	4834
2330.56	4849
2332.556	4869
2334.551	4866
2336.546	4785
2338.542	4710
2340.535	4823
2342.529	4832
2344.521	4794
2346.512	4813
2348.505	4791
2350.497	4781
2352.487	4808
2354.478	4836
2356.468	4682
2358.457	4787
2360.446	4873
2362.434	4702
2364.422	4900
2366.408	4738
2368.395	4716
2370.383	4738
2372.369	4798
2374.353	4703
2376.338	4720
2378.321	4830
2380.307	4753
2382.29	4685
2384.272	4786
2386.254	4693
2388.235	4709
2390.218	4736
2392.198	4847
2394.179	4735
2396.157	4755
2398.137	4785
2400.115	4786
2402.095	4742
2404.072	4662
2406.048	4883
2408.026	4679
2410.001	4760
2411.977	4783
2413.953	4900
2415.927	4741
2417.9	4761
2419.875	4803
2421.847	4830
2423.821	4699
2425.792	4770
2427.763	4770
2429.736	4822
2431.706	4771
2433.677	4797
2435.646	4744
2437.615	4765
2439.583	4682
2441.551	4649
2443.519	4761
2445.486	4738
2447.452	4796
2449.418	4684
2451.383	4794
2453.348	4650
2455.314	4746
2457.278	4737
2459.241	4819
2461.205	4673
2463.167	4763
2465.131	4691
2467.091	4811
2469.052	4672
2471.012	4723
2472.972	4769
2474.932	4752
2476.891	4762
2478.85	4592
2480.808	4715
2482.766	4698
2484.722	4715
2486.68	4672
2488.636	4746
2490.591	4695
2492.546	4699
2494.5	4747
2496.456	4750
2498.41	4705
2500.362	4655
2502.315	4709
2504.266	4605
2506.218	4712
2508.169	4614
2510.121	4810
2512.07	4718
2514.019	4656
2515.968	4766
2517.918	4605
2519.866	4762
2521.813	4606
2523.76	4767
2525.707	4653
2527.653	4762
2529.599	4777
2531.543	4670
2533.489	4690
2535.433	4698
2537.376	4550
2539.32	4670
2541.264	4781
2543.205	4685
2545.147	4687
2547.087	4628
2549.029	4660
2550.969	4630
2552.908	4631
2554.847	4789
2556.786	4733
2558.724	4636
2560.663	4675
2562.6	4812
2564.537	4663
2566.473	4649
2568.408	4639
2570.345	4730
2572.28	4784
2574.214	4625
2576.148	4736
2578.081	4594
2580.014	4674
2581.947	4680
2583.879	4762
2585.81	4792
2587.741	4704
2589.67	4778
2591.602	4744
2593.532	4693
2595.461	4771
2597.388	4709
2599.316	4752
2601.244	4653
2603.172	4666
2605.098	4675
2607.023	4708
2608.949	4753
2610.873	4738
2612.8	4642
2614.723	4734
2616.647	4675
2618.569	4768
2620.493	4765
2622.416	4691
2624.338	4688
2626.258	4681
2628.179	4790
2630.099	4734
2632.019	4840
2633.939	4691
2635.857	4770
2637.775	4771
2639.694	4651
2641.61	4827
2643.528	4735
2645.444	4742
2647.361	4632
2649.276	4804
2651.19	4684
2653.105	4734
2655.019	4749
2656.934	4745
2658.846	4697
2660.758	4672
2662.67	4711
2664.583	4801
2666.493	4638
2668.404	4711
2670.313	4817
2672.223	4801
2674.134	4798
2676.042	4712
2677.95	4697
2679.858	4746
2681.765	4657
2683.673	4699
2685.579	4801
2687.483	4732
2689.389	4750
2691.294	4780
2693.198	4730
2695.104	4662
2697.006	4708
2698.909	4683
2700.811	4691
2702.713	4716
2704.615	4679
2706.516	4684
2708.417	4665
2710.316	4711
2712.216	4680
2714.115	4706
2716.014	4638
2717.913	4604
2719.81	4629
2721.707	4658
2723.603	4747
2725.501	4676
2727.396	4716
2729.292	4644
2731.186	4696
2733.081	4695
2734.976	4636
2736.87	4633
2738.762	4686
2740.653	4757
2742.546	4757
2744.437	4649
2746.329	4639
2748.22	4732
2750.11	4519
2751.999	4629
2753.889	4672
2755.778	4724
2757.666	4581
2759.553	4597
2761.44	4724
2763.328	4679
2765.215	4592
2767.101	4626
2768.986	4633
2770.87	4589
2772.754	4700
2774.638	4601
2776.523	4685
2778.405	4647
2780.288	4758
2782.17	4595
2784.051	4620
2785.934	4628
2787.814	4620
2789.694	4607
2791.574	4682
2793.453	4573
2795.332	4696
2797.212	4704
2799.088	4569
2800.966	4619
2802.843	4668
2804.719	4659
2806.597	4724
2808.471	4647
2810.346	4675
2812.221	4712
2814.094	4661
2815.969	4568
2817.843	4662
2819.714	4658
2821.587	4595
2823.459	4671
2825.329	4618
2827.202	4601
2829.072	4643
2830.942	4726
2832.811	4640
2834.68	4743
2836.549	4651
2838.418	4675
2840.284	4713
2842.152	4722
2844.018	4697
2845.885	4653
2847.751	4797
2849.616	4758
2851.482	4748
2853.345	4696
2855.208	4735
2857.074	4752
2858.937	4775
2860.799	4731
2862.66	4841
2864.522	4763
2866.385	4670
2868.245	4873
2870.104	4781
2871.964	4795
2873.824	4874
2875.683	4910
2877.542	4905
2879.4	4902
2881.257	4875
2883.114	4961
2884.97	4930
2886.827	4957
2888.683	4961
2890.537	5007
2892.392	5034
2894.246	5031
2896.1	4883
2897.954	5008
2899.807	4996
2901.66	5090
2903.51	4964
2905.362	5004
2907.214	4992
2909.065	5024
2910.915	5038
2912.765	5027
2914.613	5023
2916.463	5033
2918.311	5050
2920.158	5106
2922.006	5084
2923.853	5110
2925.698	5257
2927.546	5099
2929.392	5139
2931.236	5150
2933.081	5156
2934.924	5230
2936.77	5233
2938.613	5272
2940.455	5394
2942.298	5355
2944.139	5382
2945.982	5408
2947.823	5324
2949.662	5456
2951.503	5395
2953.342	5271
2955.182	5380
2957.021	5331
2958.858	5367
2960.697	5244
2962.534	5283
2964.37	5264
2966.207	5181
2968.044	5160
2969.879	5084
2971.714	5052
2973.548	5014
2975.383	4956
2977.218	5021
2979.051	5000
2980.883	4827
2982.715	4814
2984.547	4926
2986.379	4894
2988.21	4830
2990.04	4917
2991.87	4856
2993.7	4723
2995.53	4761
2997.359	4732
2999.187	4699
3001.015	4693
3002.842	4655
3004.669	4674
3006.497	4652
3008.323	4630
3010.148	4519
3011.974	4646
3013.797	4588
3015.623	4575
3017.447	4500
3019.27	4537
3021.094	4568
3022.915	4519
3024.737	4511
3026.56	4560
3028.38	4533
3030.201	4476
3032.022	4462
3033.84	4416
3035.662	4522
3037.481	4517
3039.298	4582
3041.117	4488
3042.933	4491
3044.752	4500
3046.568	4446
3048.385	4518
3050.2	4433
3052.016	4509
3053.83	4419
3055.646	4471
3057.46	4470
3059.272	4457
3061.086	4509
3062.898	4464
3064.711	4445
3066.524	4412
3068.335	4328
3070.145	4397
3071.956	4406
3073.766	4423
3075.576	4400
3077.385	4292
3079.193	4381
3081.002	4405
3082.81	4358
3084.618	4324
3086.425	4374
3088.231	4440
3090.036	4347
3091.842	4396
3093.648	4329
3095.452	4429
3097.257	4369
3099.06	4382
3100.863	4329
3102.666	4381
3104.47	4423
3106.272	4376
3108.073	4289
3109.875	4357
3111.676	4363
3113.477	4249
3115.277	4281
3117.077	4389
3118.874	4341
3120.673	4295
3122.473	4294
3124.271	4293
3126.066	4342
3127.863	4303
3129.66	4305
3131.456	4305
3133.252	4279
3135.047	4283
3136.842	4311
3138.635	4251
3140.429	4391
3142.223	4211
3144.016	4287
3145.808	4364
3147.6	4309
3149.392	4193
3151.183	4232
3152.975	4311
3154.765	4310
3156.553	4276
3158.344	4298
3160.132	4338
3161.922	4339
3163.71	4308
3165.497	4276
3167.285	4232
3169.071	4219
3170.858	4247
3172.645	4201
3174.429	4168
3176.214	4234
3177.998	4165
3179.783	4268
3181.568	4263
3183.351	4253
3185.133	4148
3186.915	4245
3188.698	4294
3190.481	4301
3192.261	4281
3194.042	4273
3195.822	4125
3197.601	4264
3199.381	4114
3201.161	4213
3202.939	4129
3204.717	4185
3206.495	4241
3208.272	4151
3210.05	4144
3211.826	4158
3213.602	4106
3215.376	4281
3217.151	4141
3218.927	4240
3220.702	4106
3222.476	4141
3224.249	4210
3226.021	4148
3227.793	4198
3229.567	4160
3231.339	4132
3233.109	4173
3234.88	4202
3236.651	4200
3238.421	4163
3240.191	4206
3241.96	4257
3243.728	4179
3245.497	4203
3247.263	4201
3249.033	4173
3250.799	4163
3252.566	4233
3254.331	4249
3256.097	4152
3257.863	4206
3259.628	4281
3261.392	4175
3263.156	4140
3264.919	4189
3266.683	4147
3268.447	4223
3270.208	4167
3271.969	4271
3273.731	4084
3275.492	4166
3277.253	4110
3279.013	4247
3280.773	4251
3282.532	4171
3284.291	4136
3286.05	4238
3287.808	4088
3289.566	4146
3291.323	4294
3293.079	4184
3294.835	4226
3296.593	4143
3298.348	4261
3300.102	4285
3301.857	4128
3303.611	4163
3305.366	4127
3307.119	4140
3308.872	4176
3310.624	4131
3312.376	4219
3314.129	4186
3315.881	4161
3317.631	4155
3319.38	4158
3321.13	4152
3322.88	4172
3324.631	4182
3326.379	4094
3328.126	4213
3329.875	4069
3331.622	4134
3333.371	4154
3335.116	4172
3336.863	4134
3338.609	4157
3340.353	4090
3342.1	4166
3343.845	4075
3345.588	4112
3347.332	4077
3349.074	4164
3350.817	4160
3352.56	4177
3354.303	4115
3356.043	4009
3357.785	4114
3359.525	4124
3361.268	4087
3363.007	4071
3364.745	4129
3366.485	4101
3368.223	4128
3369.962	4029
3371.701	4073
3373.438	4172
3375.174	4065
3376.911	4138
3378.647	4138
3380.384	4022
3382.118	4107
3383.854	4073
3385.588	4114
3387.322	4116
3389.057	4085
3390.79	4107
3392.522	4065
3394.255	4130
3395.987	4021
3397.719	3966
3399.451	4070
3401.181	4082
3402.911	4103
3404.641	4024
3406.371	3951
3408.101	4081
3409.83	4014
3411.558	3996
3413.285	3974
3415.011	4035
3416.739	4020
3418.467	3997
3420.193	4061
3421.919	4026
3423.644	3985
3425.368	3955
3427.094	4049
3428.818	4147
3430.542	4000
3432.264	3920
3433.987	4003
3435.712	3974
3437.434	3996
3439.155	4044
3440.876	3978
3442.596	3965
3444.317	3957
3446.039	3923
3447.757	3912
3449.477	4004
3451.195	3953
3452.914	3874
3454.632	3923
3456.35	3937
3458.067	3911
3459.784	3964
3461.5	3921
3463.216	3897
3464.932	3943
3466.647	3990
3468.362	3902
3470.076	3898
3471.789	3946
3473.505	3981
3475.217	3797
3476.929	3936
3478.641	3833
3480.354	3863
3482.066	3827
3483.777	3872
3485.487	3822
3487.197	3825
3488.908	3876
3490.617	3953
3492.327	3879
3494.035	3866
3495.743	3845
3497.451	3886
3499.158	3801
3500.866	3830
3502.572	3805
3504.278	3749
3505.984	3839
3507.689	3887
3509.396	3801
3511.1	3810
3512.804	3770
3514.508	3784
3516.211	3843
3517.913	3788
3519.616	3729
3521.319	3840
3523.021	3887
3524.722	3773
3526.422	3783
3528.124	3896
3529.824	3761
3531.524	3827
3533.222	3760
3534.921	3702
3536.62	3815
3538.318	3713
3540.016	3806
3541.714	3710
3543.41	3776
3545.107	3699
3546.803	3724
3548.5	3816
3550.194	3690
3551.889	3787
3553.583	3788
3555.279	3739
3556.972	3736
3558.666	3731
3560.358	3742
3562.051	3757
3563.742	3719
3565.435	3678
3567.126	3650
3568.817	3735
3570.507	3756
3572.197	3733
3573.888	3751
3575.577	3707
3577.265	3689
3578.954	3663
3580.642	3754
3582.329	3689
3584.017	3766
3585.704	3669
3587.391	3628
3589.077	3775
3590.762	3639
3592.449	3659
3594.133	3636
3595.817	3626
3597.501	3707
3599.185	3680
3600.869	3601
3602.552	3606
3604.234	3643
3605.916	3579
3607.598	3634
3609.279	3687
3610.961	3635
3612.642	3584
3614.321	3584
3616	3647
3617.68	3631
3619.36	3710
3621.039	3577
3622.716	3574
3624.394	3635
3626.071	3601
3627.748	3577
3629.425	3579
3631.102	3628
3632.778	3553
3634.452	3557
3636.127	3560
3637.803	3488
3639.477	3562
3641.151	3495
3642.823	3582
3644.497	3637
3646.171	3562
3647.842	3549
3649.515	3525
3651.185	3445
3652.857	3593
3654.527	3518
3656.198	3568
3657.868	3578
3659.537	3559
3661.207	3459
3662.875	3557
3664.544	3480
3666.212	3544
3667.879	3532
3669.546	3560
3671.212	3480
3672.88	3415
3674.546	3425
3676.211	3585
3677.875	3489
3679.541	3482
3681.205	3501
3682.87	3571
3684.533	3552
3686.196	3499
3687.859	3439
3689.521	3505
3691.184	3582
3692.845	3477
3694.507	3536
3696.167	3470
3697.827	3515
3699.487	3537
3701.148	3404
3702.808	3500
3704.466	3541
3706.125	3501
3707.783	3452
3709.442	3445
3711.099	3517
3712.757	3552
3714.412	3463
3716.068	3450
3717.725	3417
3719.381	3486
3721.036	3445
3722.689	3436
3724.344	3411
3725.998	3462
3727.652	3516
3729.305	3383
3730.958	3442
3732.61	3363
3734.262	3463
3735.915	3492
3737.565	3425
3739.217	3437
3740.866	3405
3742.516	3412
3744.165	3468
3745.816	3394
3747.464	3367
3749.113	3339
3750.761	3420
3752.409	3459
3754.057	3359
3755.703	3317
3757.35	3427
3758.996	3454
3760.641	3291
3762.289	3335
3763.933	3339
3765.577	3419
3767.222	3344
3768.865	3452
3770.508	3373
3772.152	3327
3773.796	3375
3775.438	3363
3777.079	3344
3778.721	3292
3780.363	3348
3782.003	3322
3783.643	3402
3785.283	3292
3786.923	3402
3788.563	3355
3790.203	3349
3791.841	3380
3793.479	3332
3795.115	3367
3796.753	3403
3798.391	3253
3800.027	3327
3801.664	3338
3803.299	3355
3804.935	3363
3806.571	3334
3808.206	3269
3809.839	3308
3811.473	3398
3813.107	3318
3814.74	3305
3816.375	3291
3818.006	3270
3819.638	3255
3821.27	3294
3822.9	3333
3824.532	3248
3826.163	3244
3827.792	3281
3829.423	3254
3831.051	3277
3832.682	3266
3834.311	3263
3835.938	3286
3837.566	3259
3839.193	3264
3840.821	3258
3842.448	3263
3844.075	3212
3845.7	3226
3847.325	3261
3848.951	3250
3850.576	3198
3852.201	3258
3853.825	3247
3855.448	3256
3857.072	3208
3858.694	3250
3860.318	3202
3861.939	3199
3863.562	3197
3865.183	3298
3866.804	3215
3868.426	3165
3870.045	3259
3871.666	3217
3873.285	3285
3874.904	3243
3876.524	3193
3878.142	3220
3879.76	3210
3881.378	3259
3882.995	3230
3884.612	3217
3886.229	3251
3887.845	3160
3889.461	3173
3891.076	3167
3892.691	3166
3894.307	3199
3895.922	3169
3897.536	3249
3899.149	3172
3900.761	3209
3902.374	3250
3903.988	3164
3905.6	3096
3907.212	3178
3908.822	3057
3910.433	3149
3912.045	3234
3913.655	3298
3915.265	3075
3916.875	3176
3918.483	3204
3920.093	3134
3921.702	3111
3923.309	3192
3924.917	3137
3926.523	3206
3928.13	3133
3929.739	3142
3931.344	3121
3932.95	3237
3934.555	3135
3936.159	3142
3937.766	3166
3939.369	3112
3940.974	3114
3942.577	3096
3944.181	3157
3945.783	3104
3947.386	3257
3948.989	3144
3950.59	3117
3952.191	3064
3953.791	3082
3955.394	3075
3956.994	3166
3958.593	3151
3960.192	3078
3961.791	3083
3963.392	3140
3964.99	3136
3966.588	3085
3968.185	3121
3969.782	3139
3971.379	3102
3972.976	3120
3974.572	3134
3976.168	3123
3977.763	3101
3979.358	3043
3980.954	3095
3982.548	3046
3984.142	3118
3985.736	3009
3987.329	3155
3988.922	3074
3990.516	3066
3992.108	3060
3993.698	2974
3995.29	3004
3996.881	3013
3998.473	2963
4000.064	3054
4001.653	3006
4003.242	3043
4004.832	2956
4006.422	3052
4008.01	2938
4009.598	3030
4011.186	2964
4012.773	2980
4014.36	2956
4015.947	3022
4017.534	2955
4019.119	3038
4020.705	3005
4022.291	3000
4023.876	2979
4025.461	3050
4027.044	3030
4028.627	2939
4030.211	2969
4031.795	2947
4033.378	2895
4034.96	3035
4036.542	2935
4038.124	2946
4039.704	2949
4041.286	2948
4042.867	3002
4044.447	2920
4046.026	2963
4047.606	3005
4049.187	2949
4050.765	2950
4052.343	2941
4053.92	2900
4055.498	2952
4057.076	2975
4058.654	2927
4060.23	2958
4061.806	2891
4063.381	2937
4064.957	2937
4066.533	2932
4068.107	2915
4069.682	2897
4071.256	2879
4072.829	2983
4074.404	2906
4075.977	2867
4077.549	2899
4079.121	2939
4080.693	2862
4082.265	2901
4083.836	2880
4085.407	2926
4086.977	2940
4088.547	2852
4090.117	2873
4091.687	2923
4093.256	2810
4094.825	2914
4096.392	2920
4097.96	2864
4099.528	2952
4101.097	2865
4102.663	2876
4104.229	2795
4105.795	2961
4107.361	2864
4108.928	2858
4110.493	2893
4112.058	2813
4113.621	2827
4115.186	2801
4116.75	2923
4118.313	2804
4119.876	2833
4121.438	2831
4123	2820
4124.562	2772
4126.125	2836
4127.686	2859
4129.246	2840
4130.807	2825
4132.367	2730
4133.927	2742
4135.486	2817
4137.046	2814
4138.604	2808
4140.162	2923
4141.72	2817
4143.279	2822
4144.836	2756
4146.393	2783
4147.949	2747
4149.505	2791
4151.062	2750
4152.617	2793
4154.172	2829
4155.727	2777
4157.281	2751
4158.836	2770
4160.39	2687
4161.943	2726
4163.496	2750
4165.048	2769
4166.601	2754
4168.154	2784
4169.706	2757
4171.257	2756
4172.808	2763
4174.358	2760
4175.909	2767
4177.458	2736
4179.008	2652
4180.558	2804
4182.106	2687
4183.655	2718
4185.204	2746
4186.751	2721
4188.298	2625
4189.845	2712
4191.392	2699
4192.939	2673
4194.485	2714
4196.031	2713
4197.576	2717
4199.121	2650
4200.666	2705
4202.211	2665
4203.754	2706
4205.298	2681
4206.84	2685
4208.384	2655
4209.927	2653
4211.47	2682
4213.011	2700
4214.552	2694
4216.094	2719
4217.635	2596
4219.175	2592
4220.716	2692
4222.255	2606
4223.793	2663
4225.335	2681
4226.873	2650
4228.411	2627
4229.948	2699
4231.486	2654
4233.024	2635
4234.562	2684
4236.098	2584
4237.634	2661
4239.169	2667
4240.705	2714
4242.241	2712
4243.776	2616
4245.31	2670
4246.844	2632
4248.378	2607
4249.911	2591
4251.445	2739
4252.978	2626
4254.51	2659
4256.042	2582
4257.574	2674
4259.107	2644
4260.638	2630
4262.169	2644
4263.699	2592
4265.228	2650
4266.759	2611
4268.289	2668
4269.818	2549
4271.345	2565
4272.874	2543
4274.402	2580
4275.931	2614
4277.458	2537
4278.985	2619
4280.512	2624
4282.037	2629
4283.564	2558
4285.089	2591
4286.615	2583
4288.139	2546
4289.664	2533
4291.187	2528
4292.712	2629
4294.235	2604
4295.759	2547
4297.281	2576
4298.804	2552
4300.327	2547
4301.849	2573
4303.37	2582
4304.891	2602
4306.412	2559
4307.933	2576
4309.453	2585
4310.973	2562
4312.492	2524
