398.1873	5265
400.7097	5306
403.2336	5306
405.7547	5363
408.2751	5304
410.7948	5483
413.3138	5389
415.83	5454
418.3497	5499
420.8666	5589
423.3829	5446
425.8985	5569
428.4133	5745
430.9275	5608
433.441	5720
435.9538	5739
438.4639	5689
440.9753	5735
443.4881	5729
445.9982	5732
448.5055	5690
451.0142	5655
453.5201	5702
456.0274	5736
458.5361	5647
461.04	5668
463.5453	5648
466.0478	5635
468.5517	5735
471.0549	5795
473.5574	5738
476.0572	5711
478.5584	5795
481.0568	5680
483.5545	5796
486.0557	5819
488.5521	5750
491.0478	5880
493.5449	5810
496.0392	5908
498.5349	5950
501.0299	5885
503.5222	5938
506.0139	5956
508.5048	5894
510.9991	5907
513.4887	5903
515.9777	5882
518.4659	5982
520.9534	5887
523.4403	5987
525.9306	5915
528.4161	5963
530.9009	6013
533.3851	5955
535.8687	5922
538.3535	6001
540.8356	5971
543.3171	6098
545.7979	6036
548.278	5995
550.7595	6039
553.2383	6129
555.7144	6058
558.1918	6047
560.6685	5967
563.1446	6039
565.6221	6072
568.0968	6016
570.5688	6047
573.0422	6200
575.515	6137
577.989	6095
580.4584	6396
582.9291	6120
585.3991	6196
587.8685	6340
590.3352	6173
592.8052	6260
595.2706	6184
597.7372	6102
600.2033	6204
602.6666	6089
605.1334	6149
607.5953	6163
610.0587	6287
612.5193	6196
614.9814	6133
617.4427	6229
619.9034	6163
622.3615	6229
624.8208	6209
627.2775	6007
629.7335	6131
632.1929	6136
634.6476	6138
637.1016	6239
639.5569	6313
642.0096	6277
644.4637	6247
646.9151	6226
649.3678	6301
651.8179	6192
654.2672	6346
656.7159	6248
659.166	6337
661.6154	6372
664.0622	6327
666.5082	6356
668.9537	6242
671.4005	6326
673.8445	6392
676.288	6382
678.7308	6396
681.1729	6337
683.6163	6387
686.0572	6344
688.4973	6329
690.9368	6301
693.3757	6349
695.8138	6356
698.2534	6487
700.6902	6520
703.1245	6566
705.56	6539
707.9949	6393
710.4311	6571
712.8647	6578
715.2957	6560
717.7279	6564
720.1595	6546
722.5905	6701
725.0208	6508
727.4505	6524
729.8795	6555
732.3058	6572
734.7336	6669
737.1626	6578
739.587	6618
742.0128	6726
744.4359	6666
746.8604	6766
749.2841	6845
751.7073	6852
754.1278	6817
756.5496	6701
758.9688	6854
761.3893	6745
763.8093	6821
766.2285	6939
768.6451	6787
771.0611	6877
773.4784	6858
775.895	6956
778.3091	6861
780.7244	6796
783.1371	6956
785.5493	6826
787.9626	6824
790.3754	6885
792.7856	6870
795.1951	6901
797.6039	6890
800.0121	6866
802.4236	6919
804.8306	6915
807.2369	6962
809.6425	6885
812.0475	6945
814.4538	6994
816.8575	6953
819.2606	7137
821.663	7017
824.0648	7034
826.4659	6842
828.8683	6874
831.2682	6897
833.6674	6976
836.066	6956
838.4639	7018
840.8632	6994
843.2579	7016
845.6539	6977
848.0493	7079
850.444	7021
852.84	7163
855.2315	7128
857.6243	7083
860.0165	6959
862.4081	7023
864.797	7105
867.1892	7066
869.5789	7086
871.9659	7012
874.3542	7132
876.74	6967
879.129	7085
881.5155	7026
883.8994	7046
886.2845	7007
888.6671	6951
891.051	6971
893.4343	7084
895.8169	7127
898.197	7129
900.5783	7108
902.9571	7129
905.3372	7140
907.7167	7147
910.0936	7069
912.4698	7175
914.8474	7224
917.2244	7220
919.5987	7177
921.9744	7402
924.3475	7222
926.72	7359
929.0918	7196
931.4669	7420
933.8375	7352
936.2074	7276
938.5767	7489
940.9454	7495
943.3154	7584
945.6829	7711
948.0497	7746
950.4178	7900
952.7833	8229
955.1483	8369
957.5145	8395
959.8782	8546
962.2412	8560
964.6036	8418
966.9655	8173
969.3266	8026
971.6871	7804
974.0471	7458
976.4064	7295
978.765	7422
981.125	7332
983.4824	7401
985.8373	7448
988.1935	7315
990.549	7327
992.9039	7280
995.2602	7262
997.6119	7370
999.965	7296
1002.317	7361
1004.667	7282
1007.02	7294
1009.371	7303
1011.719	7287
1014.068	7215
1016.415	7319
1018.765	7369
1021.111	7449
1023.458	7444
1025.804	7400
1028.147	7521
1030.49	7426
1032.837	7295
1035.179	7389
1037.522	7404
1039.862	7394
1042.204	7420
1044.546	7457
1046.884	7338
1049.224	7438
1051.562	7395
1053.899	7496
1056.237	7416
1058.575	7489
1060.91	7628
1063.244	7610
1065.58	7476
1067.913	7631
1070.248	7568
1072.579	7549
1074.911	7524
1077.242	7592
1079.572	7627
1081.905	7513
1084.234	7487
1086.562	7493
1088.89	7484
1091.217	7492
1093.544	7501
1095.871	7511
1098.197	7546
1100.521	7544
1102.845	7513
1105.169	7529
1107.491	7417
1109.814	7453
1112.135	7520
1114.456	7669
1116.776	7448
1119.096	7442
1121.415	7520
1123.734	7559
1126.052	7600
1128.369	7534
1130.686	7431
1133.002	7635
1135.318	7537
1137.632	7441
1139.945	7528
1142.258	7523
1144.573	7591
1146.884	7561
1149.196	7580
1151.505	7619
1153.816	7475
1156.124	7558
1158.435	7648
1160.742	7735
1163.051	7433
1165.356	7484
1167.663	7548
1169.97	7553
1172.276	7651
1174.579	7697
1176.881	7622
1179.186	7572
1181.487	7573
1183.79	7651
1186.092	7477
1188.392	7472
1190.691	7477
1192.991	7627
1195.291	7515
1197.588	7500
1199.885	7573
1202.181	7513
1204.479	7600
1206.775	7612
1209.07	7640
1211.363	7635
1213.656	7483
1215.949	7507
1218.241	7650
1220.534	7608
1222.825	7610
1225.115	7741
1227.405	7622
1229.693	7652
1231.984	7675
1234.271	7643
1236.558	7684
1238.845	7815
1241.131	7940
1243.416	7766
1245.703	7654
1247.987	7823
1250.269	7814
1252.552	7739
1254.834	7785
1257.118	7749
1259.399	7762
1261.678	7770
1263.958	7735
1266.237	7800
1268.516	7678
1270.794	7859
1273.072	7744
1275.347	7833
1277.624	7761
1279.899	7769
1282.175	7810
1284.449	7745
1286.722	7820
1288.995	7750
1291.266	7771
1293.54	7644
1295.81	7742
1298.081	7745
1300.35	7748
1302.62	7692
1304.889	7650
1307.156	7783
1309.425	7784
1311.69	7703
1313.957	7771
1316.222	7623
1318.488	7801
1320.751	7666
1323.016	7795
1325.278	7662
1327.54	7765
1329.803	7821
1332.065	7809
1334.325	7651
1336.584	7754
1338.843	7824
1341.101	7716
1343.36	7727
1345.617	7679
1347.876	7692
1350.131	7665
1352.387	7733
1354.643	7712
1356.897	7775
1359.151	7694
1361.403	7644
1363.656	7849
1365.909	7788
1368.16	7825
1370.409	7945
1372.659	7923
1374.909	7772
1377.157	7760
1379.407	7696
1381.655	7726
1383.9	7786
1386.147	7900
1388.393	7870
1390.64	8007
1392.885	7954
1395.127	8012
1397.37	7997
1399.614	8072
1401.854	8048
1404.098	7885
1406.339	8111
1408.578	7919
1410.818	7998
1413.056	7986
1415.297	7866
1417.533	7903
1419.771	7922
1422.006	7917
1424.243	8003
1426.479	7965
1428.715	8021
1430.948	8037
1433.182	7996
1435.414	8091
1437.647	8150
1439.88	8020
1442.11	8005
1444.342	7989
1446.571	8183
1448.799	8066
1451.029	7993
1453.258	8032
1455.485	8057
1457.711	8104
1459.937	8166
1462.164	8096
1464.39	8128
1466.614	7939
1468.838	8046
1471.06	7960
1473.283	7972
1475.506	8031
1477.727	7971
1479.949	8056
1482.169	8036
1484.389	7834
1486.609	7996
1488.828	7867
1491.045	7905
1493.261	7876
1495.477	7786
1497.693	7874
1499.91	7775
1502.125	7790
1504.339	7847
1506.553	7854
1508.766	7730
1510.979	7858
1513.191	7886
1515.402	7817
1517.613	7752
1519.823	7830
1522.033	7794
1524.242	7824
1526.451	7801
1528.657	7768
1530.865	7833
1533.072	7792
1535.278	7807
1537.484	7806
1539.687	7853
1541.892	7761
1544.096	7955
1546.299	8000
1548.502	7874
1550.703	7869
1552.905	8024
1555.104	7894
1557.303	8007
1559.505	7899
1561.703	7904
1563.902	8024
1566.099	8012
1568.295	8040
1570.494	7872
1572.689	8011
1574.883	8049
1577.079	8018
1579.272	7990
1581.467	8127
1583.659	8014
1585.853	7965
1588.044	8041
1590.234	8066
1592.424	8109
1594.615	8118
1596.806	8161
1598.994	8061
1601.182	8128
1603.369	8142
1605.557	8158
1607.744	8056
1609.929	8194
1612.114	8099
1614.298	8040
1616.482	8354
1618.667	8002
1620.85	8056
1623.032	8177
1625.214	8100
1627.395	8150
1629.575	8118
1631.755	8241
1633.935	8089
1636.114	8243
1638.292	8145
1640.471	8156
1642.647	8235
1644.823	8041
1647	8136
1649.175	8159
1651.348	8171
1653.525	8328
1655.698	8225
1657.87	8126
1660.043	8271
1662.213	8158
1664.387	8319
1666.558	8198
1668.727	8187
1670.896	8202
1673.064	8216
1675.233	8239
1677.401	8223
1679.569	8241
1681.735	8192
1683.902	8261
1686.066	8215
1688.233	8287
1690.397	8208
1692.559	8208
1694.723	8147
1696.885	8199
1699.048	8127
1701.21	8165
1703.37	8105
1705.53	8043
1707.689	8127
1709.849	7985
1712.009	8171
1714.166	8068
1716.323	8154
1718.479	8029
1720.634	8100
1722.793	8174
1724.948	7990
1727.102	8140
1729.255	7976
1731.408	8057
1733.562	8064
1735.714	8114
1737.865	8154
1740.016	8166
1742.166	8039
1744.316	8028
1746.467	7991
1748.616	8075
1750.764	8066
1752.911	8152
1755.056	8298
1757.205	8086
1759.35	8222
1761.496	8157
1763.641	8185
1765.785	8222
1767.927	8185
1770.072	8099
1772.214	8134
1774.355	8153
1776.496	8230
1778.637	8278
1780.778	8225
1782.918	8230
1785.057	8268
1787.194	8217
1789.333	8343
1791.472	8229
1793.608	8224
1795.745	8204
1797.879	8277
1800.015	8317
1802.148	8242
1804.284	8176
1806.417	8204
1808.548	8266
1810.682	8215
1812.812	8206
1814.946	8242
1817.075	8383
1819.205	8098
1821.335	8277
1823.463	8301
1825.59	8094
1827.721	8127
1829.847	8114
1831.973	8135
1834.098	8246
1836.223	8125
1838.351	8184
1840.475	8102
1842.598	8223
1844.721	8204
1846.843	8134
1848.966	8199
1851.087	8107
1853.21	8057
1855.33	8170
1857.449	8164
1859.568	8119
1861.688	8174
1863.806	8198
1865.924	8227
1868.039	8139
1870.155	8142
1872.273	8122
1874.388	8036
1876.503	8165
1878.617	8150
1880.73	8118
1882.844	8164
1884.956	8127
1887.068	8178
1889.18	8149
1891.291	8146
1893.4	8128
1895.511	8302
1897.621	8164
1899.73	8345
1901.837	8210
1903.944	8191
1906.053	8276
1908.159	8248
1910.265	8227
1912.369	8310
1914.474	8171
1916.577	8301
1918.683	8215
1920.785	8194
1922.888	8311
1924.989	8270
1927.091	8252
1929.193	8365
1931.294	8281
1933.393	8315
1935.493	8209
1937.59	8218
1939.689	8443
1941.788	8302
1943.884	8301
1945.98	8371
1948.077	8434
1950.171	8320
1952.267	8202
1954.361	8288
1956.455	8202
1958.548	8440
1960.64	8308
1962.733	8239
1964.824	8233
1966.915	8173
1969.005	8259
1971.096	8275
1973.185	8323
1975.275	8097
1977.363	8257
1979.45	8245
1981.537	8351
1983.623	8281
1985.711	8352
1987.796	8129
1989.881	8302
1991.965	8398
1994.047	8210
1996.132	8260
1998.215	8186
2000.297	8260
2002.378	8185
2004.46	8244
2006.54	8196
2008.62	8126
2010.7	8176
2012.779	8122
2014.858	8172
2016.934	8142
2019.013	8071
2021.09	8199
2023.165	8187
2025.241	8297
2027.317	8139
2029.39	8044
2031.466	8240
2033.538	8238
2035.612	8270
2037.683	8273
2039.755	8291
2041.827	8333
2043.898	8287
2045.968	8140
2048.038	8101
2050.106	8132
2052.177	8242
2054.244	8159
2056.313	8272
2058.379	8167
2060.444	8280
2062.511	8245
2064.577	8127
2066.641	8237
2068.705	8049
2070.77	8266
2072.832	8115
2074.896	8213
2076.958	8274
2079.02	8148
2081.081	8349
2083.141	8218
2085.2	8184
2087.261	8214
2089.319	8150
2091.377	8183
2093.435	8173
2095.492	8130
2097.552	8222
2099.607	8279
2101.663	8148
2103.718	8151
2105.771	8200
2107.826	8282
2109.879	8148
2111.932	8238
2113.985	8268
2116.037	8283
2118.088	8325
2120.141	8198
2122.191	8372
2124.239	8336
2126.288	8118
2128.337	8224
2130.387	8320
2132.434	8269
2134.481	8273
2136.528	8179
2138.574	8235
2140.618	8139
2142.665	8115
2144.71	8080
2146.753	8205
2148.797	8141
2150.838	8205
2152.883	8181
2154.923	8246
2156.965	8114
2159.007	8130
2161.046	8285
2163.086	8061
2165.126	8166
2167.163	8135
2169.202	8197
2171.239	8204
2173.277	8171
2175.314	8098
2177.349	8131
2179.385	8227
2181.42	8132
2183.453	8090
2185.49	7972
2187.522	8214
2189.555	7983
2191.586	8097
2193.619	8029
2195.651	8090
2197.682	8019
2199.711	8082
2201.74	8032
2203.769	7946
2205.799	7924
2207.828	7920
2209.855	8066
2211.882	7999
2213.908	8017
2215.934	8044
2217.961	8041
2219.986	7959
2222.01	8067
2224.034	7919
2226.057	7931
2228.08	7947
2230.104	7988
2232.124	8042
2234.145	7923
2236.166	7984
2238.186	7892
2240.207	7993
2242.227	7947
2244.244	8012
2246.262	8073
2248.28	8038
2250.299	7960
2252.314	7916
2254.33	8030
2256.346	8020
2258.36	7912
2260.375	8010
2262.391	8095
2264.403	7893
2266.416	7983
2268.427	7961
2270.44	8087
2272.453	8015
2274.463	7977
2276.474	7958
2278.483	7986
2280.493	8051
2282.501	7967
2284.51	7978
2286.518	8073
2288.524	8101
2290.532	7858
2292.537	8077
2294.544	7993
2296.55	8055
2298.554	8082
2300.557	7957
2302.562	7946
2304.566	7939
2306.568	7884
2308.569	7924
2310.572	7948
2312.573	7886
2314.573	7845
2316.574	8059
2318.573	7910
2320.571	7946
2322.571	8074
2324.569	7928
2326.567	8019
2328.564	7915
2330.56	7962
2332.556	7846
2334.551	7838
2336.546	7987
2338.542	7677
2340.535	7844
2342.529	7789
2344.521	7970
2346.512	7970
2348.505	7874
2350.497	7942
2352.487	7930
2354.478	7925
2356.468	7698
2358.457	7957
2360.446	7737
2362.434	7862
2364.422	7813
2366.408	7855
2368.395	7815
2370.383	7871
2372.369	7872
2374.353	7818
2376.338	7750
2378.321	7863
2380.307	7876
2382.29	7763
2384.272	7765
2386.254	7744
2388.235	7616
2390.218	7793
2392.198	7704
2394.179	7857
2396.157	7770
2398.137	7805
2400.115	7737
2402.095	7755
2404.072	7731
2406.048	7874
2408.026	7610
2410.001	7795
2411.977	7837
2413.953	7823
2415.927	7767
2417.9	7724
2419.875	7724
2421.847	7753
2423.821	7763
2425.792	7757
2427.763	7756
2429.736	7844
2431.706	7762
2433.677	7649
2435.646	7744
2437.615	7809
2439.583	7636
2441.551	7696
2443.519	7713
2445.486	7644
2447.452	7727
2449.418	7599
2451.383	7762
2453.348	7717
2455.314	7730
2457.278	7701
2459.241	7766
2461.205	7832
2463.167	7743
2465.131	7672
2467.091	7682
2469.052	7623
2471.012	7610
2472.972	7761
2474.932	7695
2476.891	7731
2478.85	7743
2480.808	7550
2482.766	7797
2484.722	7586
2486.68	7724
2488.636	7594
2490.591	7720
2492.546	7468
2494.5	7640
2496.456	7706
2498.41	7548
2500.362	7663
2502.315	7432
2504.266	7544
2506.218	7634
2508.169	7629
2510.121	7635
2512.07	7576
2514.019	7510
2515.968	7596
2517.918	7699
2519.866	7605
2521.813	7627
2523.76	7551
2525.707	7659
2527.653	7488
2529.599	7600
2531.543	7644
2533.489	7482
2535.433	7530
2537.376	7568
2539.32	7695
2541.264	7402
2543.205	7487
2545.147	7650
2547.087	7609
2549.029	7558
2550.969	7588
2552.908	7599
2554.847	7551
2556.786	7485
2558.724	7621
2560.663	7517
2562.6	7664
2564.537	7682
2566.473	7588
2568.408	7549
2570.345	7606
2572.28	7580
2574.214	7594
2576.148	7530
2578.081	7472
2580.014	7600
2581.947	7455
2583.879	7557
2585.81	7547
2587.741	7526
2589.67	7698
2591.602	7474
2593.532	7526
2595.461	7449
2597.388	7644
2599.316	7538
2601.244	7483
2603.172	7601
2605.098	7587
2607.023	7585
2608.949	7599
2610.873	7572
2612.8	7681
2614.723	7493
2616.647	7563
2618.569	7614
2620.493	7514
2622.416	7661
2624.338	7605
2626.258	7518
2628.179	7739
2630.099	7602
2632.019	7573
2633.939	7535
2635.857	7545
2637.775	7472
2639.694	7704
2641.61	7595
2643.528	7597
2645.444	7645
2647.361	7530
2649.276	7631
2651.19	7516
2653.105	7595
2655.019	7577
2656.934	7755
2658.846	7588
2660.758	7723
2662.67	7678
2664.583	7603
2666.493	7527
2668.404	7595
2670.313	7534
2672.223	7642
2674.134	7611
2676.042	7573
2677.95	7553
2679.858	7499
2681.765	7562
2683.673	7660
2685.579	7465
2687.483	7641
2689.389	7573
2691.294	7538
2693.198	7429
2695.104	7407
2697.006	7393
2698.909	7410
2700.811	7549
2702.713	7434
2704.615	7570
2706.516	7510
2708.417	7491
2710.316	7413
2712.216	7454
2714.115	7609
2716.014	7501
2717.913	7345
2719.81	7350
2721.707	7454
2723.603	7578
2725.501	7391
2727.396	7428
2729.292	7393
2731.186	7500
2733.081	7346
2734.976	7380
2736.87	7411
2738.762	7360
2740.653	7297
2742.546	7428
2744.437	7412
2746.329	7450
2748.22	7396
2750.11	7348
2751.999	7452
2753.889	7406
2755.778	7433
2757.666	7430
2759.553	7420
2761.44	7412
2763.328	7220
2765.215	7360
2767.101	7384
2768.986	7411
2770.87	7372
2772.754	7491
2774.638	7333
2776.523	7385
2778.405	7489
2780.288	7455
2782.17	7283
2784.051	7331
2785.934	7335
2787.814	7270
2789.694	7429
2791.574	7388
2793.453	7327
2795.332	7303
2797.212	7297
2799.088	7308
2800.966	7285
2802.843	7365
2804.719	7329
2806.597	7343
2808.471	7275
2810.346	7298
2812.221	7313
2814.094	7231
2815.969	7288
2817.843	7330
2819.714	7395
2821.587	7328
2823.459	7461
2825.329	7223
2827.202	7382
2829.072	7390
2830.942	7395
2832.811	7271
2834.68	7325
2836.549	7301
2838.418	7337
2840.284	7285
2842.152	7267
2844.018	7251
2845.885	7394
2847.751	7353
2849.616	7476
2851.482	7375
2853.345	7349
2855.208	7319
2857.074	7382
2858.937	7380
2860.799	7387
2862.66	7415
2864.522	7359
2866.385	7474
2868.245	7430
2870.104	7422
2871.964	7560
2873.824	7538
2875.683	7614
2877.542	7648
2879.4	7706
2881.257	7622
2883.114	7611
2884.97	7643
2886.827	7649
2888.683	7846
2890.537	7693
2892.392	7713
2894.246	7683
2896.1	7650
2897.954	7798
2899.807	7550
2901.66	7610
2903.51	7647
2905.362	7663
2907.214	7686
2909.065	7498
2910.915	7618
2912.765	7726
2914.613	7787
2916.463	7726
2918.311	7793
2920.158	7810
2922.006	7759
2923.853	7799
2925.698	7938
2927.546	8006
2929.392	7939
2931.236	7995
2933.081	8023
2934.924	8017
2936.77	8160
2938.613	7991
2940.455	7961
2942.298	8144
2944.139	8160
2945.982	8116
2947.823	8115
2949.662	8063
2951.503	8168
2953.342	8149
2955.182	7932
2957.021	7973
2958.858	8094
2960.697	8106
2962.534	8017
2964.37	7967
2966.207	7841
2968.044	7703
2969.879	7731
2971.714	7738
2973.548	7681
2975.383	7581
2977.218	7759
2979.051	7599
2980.883	7538
2982.715	7510
2984.547	7620
2986.379	7489
2988.21	7484
2990.04	7360
2991.87	7413
2993.7	7422
2995.53	7460
2997.359	7466
2999.187	7239
3001.015	7442
3002.842	7305
3004.669	7251
3006.497	7141
3008.323	7164
3010.148	7184
3011.974	7140
3013.797	7065
3015.623	7172
3017.447	7053
3019.27	7138
3021.094	7087
3022.915	6956
3024.737	6981
3026.56	7185
3028.38	7054
3030.201	6912
3032.022	6994
3033.84	6943
3035.662	6901
3037.481	7052
3039.298	6879
3041.117	6944
3042.933	6983
3044.752	6876
3046.568	6962
3048.385	6800
3050.2	7017
3052.016	6845
3053.83	6859
3055.646	6934
3057.46	6947
3059.272	6929
3061.086	6832
3062.898	7029
3064.711	6872
3066.524	6835
3068.335	7052
3070.145	6843
3071.956	6812
3073.766	6844
3075.576	6789
3077.385	6782
3079.193	6830
3081.002	6772
3082.81	6848
3084.618	6818
3086.425	6742
3088.231	6777
3090.036	6757
3091.842	6720
3093.648	6677
3095.452	6732
3097.257	6865
3099.06	6682
3100.863	6580
3102.666	6666
3104.47	6626
3106.272	6768
3108.073	6861
3109.875	6603
3111.676	6722
3113.477	6600
3115.277	6652
3117.077	6703
3118.874	6559
3120.673	6713
3122.473	6616
3124.271	6698
3126.066	6590
3127.863	6657
3129.66	6676
3131.456	6582
3133.252	6608
3135.047	6686
3136.842	6586
3138.635	6593
3140.429	6650
3142.223	6673
3144.016	6591
3145.808	6408
3147.6	6513
3149.392	6490
3151.183	6602
3152.975	6492
3154.765	6551
3156.553	6558
3158.344	6569
3160.132	6474
3161.922	6516
3163.71	6609
3165.497	6533
3167.285	6497
3169.071	6474
3170.858	6445
3172.645	6597
3174.429	6506
3176.214	6562
3177.998	6373
3179.783	6483
3181.568	6465
3183.351	6446
3185.133	6501
3186.915	6459
3188.698	6486
3190.481	6477
3192.261	6470
3194.042	6612
3195.822	6357
3197.601	6419
3199.381	6466
3201.161	6501
3202.939	6466
3204.717	6342
3206.495	6471
3208.272	6243
3210.05	6334
3211.826	6372
3213.602	6375
3215.376	6361
3217.151	6431
3218.927	6520
3220.702	6335
3222.476	6313
3224.249	6377
3226.021	6289
3227.793	6317
3229.567	6434
3231.339	6411
3233.109	6318
3234.88	6503
3236.651	6395
3238.421	6220
3240.191	6386
3241.96	6401
3243.728	6386
3245.497	6395
3247.263	6312
3249.033	6368
3250.799	6351
3252.566	6397
3254.331	6379
3256.097	6339
3257.863	6232
3259.628	6331
3261.392	6245
3263.156	6385
3264.919	6236
3266.683	6277
3268.447	6275
3270.208	6310
3271.969	6289
3273.731	6412
3275.492	6398
3277.253	6308
3279.013	6321
3280.773	6321
3282.532	6323
3284.291	6308
3286.05	6366
3287.808	6275
3289.566	6347
3291.323	6353
3293.079	6267
3294.835	6285
3296.593	6292
3298.348	6337
3300.102	6377
3301.857	6255
3303.611	6362
3305.366	6307
3307.119	6235
3308.872	6371
3310.624	6333
3312.376	6332
3314.129	6288
3315.881	6333
3317.631	6383
3319.38	6226
3321.13	6325
3322.88	6331
3324.631	6403
3326.379	6211
3328.126	6327
3329.875	6213
3331.622	6296
3333.371	6260
3335.116	6273
3336.863	6306
3338.609	6261
3340.353	6264
3342.1	6201
3343.845	6292
3345.588	6228
3347.332	6344
3349.074	6146
3350.817	6209
3352.56	6230
3354.303	6232
3356.043	6242
3357.785	6120
3359.525	6209
3361.268	6159
3363.007	6309
3364.745	6268
3366.485	5986
3368.223	6216
3369.962	6232
3371.701	6171
3373.438	6141
3375.174	6185
3376.911	6079
3378.647	6066
3380.384	6173
3382.118	6202
3383.854	6108
3385.588	6083
3387.322	6093
3389.057	6076
3390.79	6061
3392.522	6105
3394.255	6103
3395.987	6153
3397.719	6135
3399.451	6092
3401.181	6086
3402.911	6081
3404.641	6075
3406.371	5971
3408.101	6083
3409.83	5954
3411.558	6106
3413.285	6005
3415.011	6009
3416.739	5994
3418.467	6029
3420.193	6062
3421.919	6068
3423.644	6099
3425.368	5980
3427.094	5987
3428.818	6033
3430.542	6087
3432.264	6035
3433.987	5977
3435.712	6006
3437.434	6002
3439.155	5987
3440.876	6075
3442.596	5923
3444.317	5980
3446.039	5963
3447.757	5931
3449.477	5951
3451.195	5932
3452.914	5844
3454.632	6018
3456.35	5938
3458.067	5877
3459.784	5827
3461.5	5938
3463.216	5824
3464.932	5883
3466.647	5803
3468.362	5888
3470.076	5949
3471.789	5856
3473.505	5865
3475.217	5817
3476.929	5819
3478.641	5910
3480.354	5879
3482.066	5855
3483.777	5805
3485.487	5759
3487.197	5804
3488.908	5863
3490.617	5834
3492.327	5809
3494.035	5738
3495.743	5761
3497.451	5725
3499.158	5696
3500.866	5836
3502.572	5683
3504.278	5657
3505.984	5771
3507.689	5576
3509.396	5712
3511.1	5745
3512.804	5669
3514.508	5713
3516.211	5703
3517.913	5719
3519.616	5706
3521.319	5655
3523.021	5760
3524.722	5664
3526.422	5668
3528.124	5723
3529.824	5760
3531.524	5644
3533.222	5635
3534.921	5662
3536.62	5651
3538.318	5784
3540.016	5703
3541.714	5685
3543.41	5590
3545.107	5749
3546.803	5602
3548.5	5528
3550.194	5576
3551.889	5708
3553.583	5616
3555.279	5418
3556.972	5685
3558.666	5551
3560.358	5661
3562.051	5652
3563.742	5495
3565.435	5615
3567.126	5669
3568.817	5577
3570.507	5535
3572.197	5540
3573.888	5602
3575.577	5609
3577.265	5544
3578.954	5506
3580.642	5554
3582.329	5522
3584.017	5594
3585.704	5515
3587.391	5513
3589.077	5567
3590.762	5563
3592.449	5517
3594.133	5508
3595.817	5561
3597.501	5452
3599.185	5472
3600.869	5488
3602.552	5421
3604.234	5352
3605.916	5493
3607.598	5364
3609.279	5395
3610.961	5477
3612.642	5479
3614.321	5359
3616	5535
3617.68	5399
3619.36	5453
3621.039	5364
3622.716	5348
3624.394	5373
3626.071	5344
3627.748	5356
3629.425	5267
3631.102	5374
3632.778	5315
3634.452	5243
3636.127	5378
3637.803	5278
3639.477	5279
3641.151	5348
3642.823	5294
3644.497	5247
3646.171	5292
3647.842	5389
3649.515	5278
3651.185	5280
3652.857	5232
3654.527	5274
3656.198	5329
3657.868	5272
3659.537	5234
3661.207	5163
3662.875	5176
3664.544	5305
3666.212	5226
3667.879	5205
3669.546	5236
3671.212	5168
3672.88	5297
3674.546	5129
3676.211	5263
3677.875	5291
3679.541	5263
3681.205	5216
3682.87	5188
3684.533	5235
3686.196	5212
3687.859	5141
3689.521	5175
3691.184	5174
3692.845	5182
3694.507	5176
3696.167	5211
3697.827	5153
3699.487	5204
3701.148	5139
3702.808	5174
3704.466	5178
3706.125	5236
3707.783	5208
3709.442	5096
3711.099	5175
3712.757	5132
3714.412	5173
3716.068	5089
3717.725	5117
3719.381	5154
3721.036	5125
3722.689	5136
3724.344	5093
3725.998	5147
3727.652	5137
3729.305	5082
3730.958	5153
3732.61	5082
3734.262	5148
3735.915	5145
3737.565	5108
3739.217	5110
3740.866	5131
3742.516	5062
3744.165	5000
3745.816	5098
3747.464	5036
3749.113	4959
3750.761	5018
3752.409	5182
3754.057	5004
3755.703	5171
3757.35	5056
3758.996	5078
3760.641	5007
3762.289	5047
3763.933	5016
3765.577	5116
3767.222	5080
3768.865	4980
3770.508	5017
3772.152	5019
3773.796	4959
3775.438	5049
3777.079	4955
3778.721	5024
3780.363	4981
3782.003	5012
3783.643	4946
3785.283	4981
3786.923	4997
3788.563	4836
3790.203	4929
3791.841	4932
3793.479	5019
3795.115	4997
3796.753	4991
3798.391	5066
3800.027	4985
3801.664	4979
3803.299	4843
3804.935	4954
3806.571	4842
3808.206	4897
3809.839	4870
3811.473	4874
3813.107	4982
3814.74	4874
3816.375	4893
3818.006	4869
3819.638	4808
3821.27	4891
3822.9	4813
3824.532	4792
3826.163	4858
3827.792	4790
3829.423	4833
3831.051	4811
3832.682	4831
3834.311	4862
3835.938	4796
3837.566	4809
3839.193	4770
3840.821	4844
3842.448	4815
3844.075	4849
3845.7	4828
3847.325	4758
3848.951	4701
3850.576	4759
3852.201	4742
3853.825	4816
3855.448	4863
3857.072	4755
3858.694	4850
3860.318	4843
3861.939	4697
3863.562	4748
3865.183	4732
3866.804	4769
3868.426	4748
3870.045	4708
3871.666	4723
3873.285	4807
3874.904	4823
3876.524	4756
3878.142	4691
3879.76	4721
3881.378	4773
3882.995	4728
3884.612	4718
3886.229	4701
3887.845	4677
3889.461	4721
3891.076	4766
3892.691	4662
3894.307	4717
3895.922	4620
3897.536	4699
3899.149	4752
3900.761	4665
3902.374	4721
3903.988	4731
3905.6	4588
3907.212	4593
3908.822	4670
3910.433	4615
3912.045	4731
3913.655	4724
3915.265	4665
3916.875	4670
3918.483	4723
3920.093	4612
3921.702	4611
3923.309	4686
3924.917	4646
3926.523	4588
3928.13	4651
3929.739	4589
3931.344	4623
3932.95	4663
3934.555	4593
3936.159	4659
3937.766	4670
3939.369	4620
3940.974	4687
3942.577	4628
3944.181	4569
3945.783	4656
3947.386	4631
3948.989	4705
3950.59	4618
3952.191	4635
3953.791	4633
3955.394	4607
3956.994	4536
3958.593	4560
3960.192	4506
3961.791	4552
3963.392	4550
3964.99	4533
3966.588	4637
3968.185	4618
3969.782	4587
3971.379	4554
3972.976	4610
3974.572	4511
3976.168	4550
3977.763	4549
3979.358	4514
3980.954	4474
3982.548	4481
3984.142	4442
3985.736	4444
3987.329	4422
3988.922	4621
3990.516	4371
3992.108	4538
3993.698	4489
3995.29	4540
3996.881	4442
3998.473	4383
4000.064	4539
4001.653	4412
4003.242	4437
4004.832	4397
4006.422	4395
4008.01	4391
4009.598	4375
4011.186	4320
4012.773	4414
4014.36	4404
4015.947	4348
4017.534	4432
4019.119	4380
4020.705	4360
4022.291	4442
4023.876	4393
4025.461	4303
4027.044	4418
4028.627	4335
4030.211	4364
4031.795	4393
4033.378	4367
4034.96	4365
4036.542	4390
4038.124	4356
4039.704	4286
4041.286	4381
4042.867	4321
4044.447	4299
4046.026	4314
4047.606	4317
4049.187	4298
4050.765	4371
4052.343	4340
4053.92	4313
4055.498	4263
4057.076	4218
4058.654	4281
4060.23	4372
4061.806	4373
4063.381	4327
4064.957	4240
4066.533	4249
4068.107	4324
4069.682	4262
4071.256	4207
4072.829	4271
4074.404	4201
4075.977	4247
4077.549	4242
4079.121	4276
4080.693	4287
4082.265	4240
4083.836	4204
4085.407	4242
4086.977	4264
4088.547	4184
4090.117	4212
4091.687	4193
4093.256	4245
4094.825	4181
4096.392	4225
4097.96	4227
4099.528	4179
4101.097	4199
4102.663	4180
4104.229	4106
4105.795	4188
4107.361	4165
4108.928	4158
4110.493	4186
4112.058	4249
4113.621	4156
4115.186	4162
4116.75	4160
4118.313	4151
4119.876	4151
4121.438	4146
4123	4128
4124.562	4147
4126.125	4082
4127.686	4190
4129.246	4122
4130.807	4083
4132.367	4079
4133.927	4153
4135.486	4133
4137.046	4052
4138.604	4049
4140.162	4102
4141.72	4119
4143.279	4070
4144.836	4105
4146.393	4060
4147.949	4124
4149.505	4040
4151.062	3997
4152.617	4008
4154.172	4036
4155.727	4008
4157.281	4062
4158.836	4020
4160.39	3940
4161.943	4041
4163.496	4088
4165.048	4027
4166.601	4014
4168.154	4005
4169.706	3888
4171.257	3946
4172.808	3956
4174.358	3917
4175.909	3989
4177.458	3994
4179.008	4002
4180.558	3913
4182.106	4029
4183.655	4080
4185.204	3999
4186.751	3965
4188.298	4023
4189.845	3933
4191.392	4003
4192.939	3880
4194.485	3917
4196.031	3914
4197.576	3909
4199.121	3913
4200.666	3884
4202.211	3942
4203.754	3960
4205.298	3888
4206.84	3925
4208.384	3920
4209.927	3877
4211.47	3870
4213.011	3920
4214.552	3920
4216.094	3941
4217.635	3896
4219.175	3784
4220.716	3854
4222.255	3863
4223.793	3821
4225.335	3926
4226.873	3885
4228.411	3957
4229.948	3825
4231.486	3832
4233.024	3922
4234.562	3873
4236.098	3947
4237.634	3875
4239.169	3852
4240.705	3840
4242.241	3860
4243.776	3873
4245.31	3800
4246.844	3813
4248.378	3769
4249.911	3925
4251.445	3756
4252.978	3807
4254.51	3775
4256.042	3830
4257.574	3880
4259.107	3781
4260.638	3793
4262.169	3823
4263.699	3763
4265.228	3766
4266.759	3830
4268.289	3888
4269.818	3787
4271.345	3781
4272.874	3747
4274.402	3747
4275.931	3697
4277.458	3803
4278.985	3795
4280.512	3843
4282.037	3724
4283.564	3859
4285.089	3817
4286.615	3700
4288.139	3798
4289.664	3688
4291.187	3711
4292.712	3834
4294.235	3715
4295.759	3769
4297.281	3818
4298.804	3707
4300.327	3735
4301.849	3761
4303.37	3702
4304.891	3652
4306.412	3699
4307.933	3880
4309.453	3661
4310.973	3647
4312.492	3660
