398.1873	2692
400.7097	2744
403.2336	2633
405.7547	2766
408.2751	2703
410.7948	2751
413.3138	2683
415.83	2773
418.3497	2681
420.8666	2757
423.3829	2789
425.8985	2827
428.4133	2860
430.9275	2812
433.441	2865
435.9538	2820
438.4639	2852
440.9753	2868
443.4881	2898
445.9982	2888
448.5055	2832
451.0142	2849
453.5201	2880
456.0274	2896
458.5361	2849
461.04	2863
463.5453	2911
466.0478	2802
468.5517	2869
471.0549	2889
473.5574	2881
476.0572	2888
478.5584	2890
481.0568	2894
483.5545	2852
486.0557	2915
488.5521	2898
491.0478	2954
493.5449	2918
496.0392	2902
498.5349	2925
501.0299	2980
503.5222	2948
506.0139	2928
508.5048	2982
510.9991	2942
513.4887	2968
515.9777	2948
518.4659	2962
520.9534	2994
523.4403	2977
525.9306	2920
528.4161	2966
530.9009	3047
533.3851	2990
535.8687	2910
538.3535	2972
540.8356	2979
543.3171	2957
545.7979	3013
548.278	2971
550.7595	2957
553.2383	2916
555.7144	2926
558.1918	2922
560.6685	3003
563.1446	3044
565.6221	3055
568.0968	2964
570.5688	3009
573.0422	2976
575.515	3050
577.989	2989
580.4584	3118
582.9291	3115
585.3991	3108
587.8685	3059
590.3352	3151
592.8052	3028
595.2706	3047
597.7372	3060
600.2033	3071
602.6666	3074
605.1334	3065
607.5953	3091
610.0587	3065
612.5193	2986
614.9814	3081
617.4427	3117
619.9034	3077
622.3615	3001
624.8208	3114
627.2775	3022
629.7335	3046
632.1929	3031
634.6476	3032
637.1016	3068
639.5569	3122
642.0096	3059
644.4637	3016
646.9151	3088
649.3678	3044
651.8179	3124
654.2672	3086
656.7159	3107
659.166	3108
661.6154	3083
664.0622	3049
666.5082	3169
668.9537	3089
671.4005	3095
673.8445	3131
676.288	3072
678.7308	3156
681.1729	3111
683.6163	3146
686.0572	3159
688.4973	3213
690.9368	3167
693.3757	3214
695.8138	3165
698.2534	3124
700.6902	3190
703.1245	3169
705.56	3207
707.9949	3201
710.4311	3203
712.8647	3151
715.2957	3226
717.7279	3246
720.1595	3220
722.5905	3245
725.0208	3243
727.4505	3232
729.8795	3214
732.3058	3243
734.7336	3322
737.1626	3236
739.587	3338
742.0128	3247
744.4359	3356
746.8604	3286
749.2841	3310
751.7073	3358
754.1278	3375
756.5496	3352
758.9688	3310
761.3893	3287
763.8093	3279
766.2285	3351
768.6451	3276
771.0611	3379
773.4784	3334
775.895	3394
778.3091	3309
780.7244	3290
783.1371	3446
785.5493	3349
787.9626	3369
790.3754	3392
792.7856	3300
795.1951	3407
797.6039	3356
800.0121	3251
802.4236	3307
804.8306	3382
807.2369	3376
809.6425	3323
812.0475	3418
814.4538	3322
816.8575	3381
819.2606	3350
821.663	3375
824.0648	3437
826.4659	3414
828.8683	3437
831.2682	3422
833.6674	3452
836.066	3415
838.4639	3430
840.8632	3442
843.2579	3496
845.6539	3375
848.0493	3407
850.444	3412
852.84	3421
855.2315	3433
857.6243	3458
860.0165	3479
862.4081	3437
864.797	3417
867.1892	3468
869.5789	3546
871.9659	3475
874.3542	3508
876.74	3497
879.129	3539
881.5155	3492
883.8994	3411
886.2845	3512
888.6671	3512
891.051	3493
893.4343	3503
895.8169	3439
898.197	3390
900.5783	3481
902.9571	3494
905.3372	3420
907.7167	3463
910.0936	3486
912.4698	3501
914.8474	3519
917.2244	3599
919.5987	3592
921.9744	3637
924.3475	3606
926.72	3552
929.0918	3605
931.4669	3514
933.8375	3609
936.2074	3613
938.5767	3671
940.9454	3700
943.3154	3720
945.6829	3714
948.0497	3829
950.4178	3881
952.7833	4011
955.1483	4085
957.5145	4152
959.8782	4257
962.2412	4212
964.6036	4090
966.9655	3975
969.3266	3929
971.6871	3868
974.0471	3741
976.4064	3687
978.765	3622
981.125	3617
983.4824	3600
985.8373	3492
988.1935	3666
990.549	3574
992.9039	3609
995.2602	3583
997.6119	3599
999.965	3586
1002.317	3577
1004.667	3619
1007.02	3575
1009.371	3585
1011.719	3603
1014.068	3576
1016.415	3548
1018.765	3566
1021.111	3631
1023.458	3624
1025.804	3745
1028.147	3701
1030.49	3610
1032.837	3658
1035.179	3692
1037.522	3641
1039.862	3688
1042.204	3755
1044.546	3619
1046.884	3656
1049.224	3711
1051.562	3643
1053.899	3682
1056.237	3697
1058.575	3650
1060.91	3750
1063.244	3682
1065.58	3668
1067.913	3730
1070.248	3663
1072.579	3750
1074.911	3758
1077.242	3685
1079.572	3690
1081.905	3737
1084.234	3733
1086.562	3714
1088.89	3745
1091.217	3652
1093.544	3730
1095.871	3705
1098.197	3717
1100.521	3677
1102.845	3654
1105.169	3646
1107.491	3762
1109.814	3662
1112.135	3723
1114.456	3699
1116.776	3702
1119.096	3763
1121.415	3737
1123.734	3646
1126.052	3712
1128.369	3745
1130.686	3643
1133.002	3681
1135.318	3644
1137.632	3741
1139.945	3774
1142.258	3730
1144.573	3713
1146.884	3691
1149.196	3769
1151.505	3720
1153.816	3747
1156.124	3702
1158.435	3817
1160.742	3790
1163.051	3669
1165.356	3606
1167.663	3714
1169.97	3720
1172.276	3744
1174.579	3636
1176.881	3676
1179.186	3688
1181.487	3774
1183.79	3726
1186.092	3698
1188.392	3722
1190.691	3665
1192.991	3640
1195.291	3685
1197.588	3650
1199.885	3663
1202.181	3674
1204.479	3697
1206.775	3756
1209.07	3713
1211.363	3750
1213.656	3775
1215.949	3814
1218.241	3772
1220.534	3674
1222.825	3810
1225.115	3815
1227.405	3768
1229.693	3781
1231.984	3792
1234.271	3884
1236.558	3805
1238.845	3809
1241.131	3828
1243.416	3798
1245.703	3915
1247.987	3891
1250.269	3792
1252.552	3877
1254.834	3876
1257.118	3918
1259.399	3804
1261.678	3888
1263.958	3921
1266.237	3883
1268.516	3906
1270.794	3815
1273.072	3935
1275.347	3790
1277.624	3912
1279.899	3749
1282.175	3768
1284.449	3882
1286.722	3772
1288.995	3877
1291.266	3824
1293.54	3802
1295.81	3826
1298.081	3780
1300.35	3779
1302.62	3834
1304.889	3833
1307.156	3865
1309.425	3810
1311.69	3758
1313.957	3908
1316.222	3831
1318.488	3807
1320.751	3692
1323.016	3904
1325.278	3813
1327.54	3895
1329.803	3826
1332.065	3876
1334.325	3879
1336.584	3851
1338.843	3860
1341.101	3904
1343.36	3882
1345.617	3871
1347.876	3953
1350.131	3810
1352.387	3881
1354.643	3881
1356.897	3829
1359.151	3833
1361.403	3847
1363.656	3852
1365.909	3881
1368.16	3919
1370.409	3991
1372.659	3794
1374.909	3835
1377.157	3816
1379.407	3970
1381.655	3888
1383.9	3950
1386.147	3845
1388.393	3954
1390.64	3921
1392.885	3884
1395.127	3872
1397.37	3914
1399.614	3916
1401.854	3892
1404.098	3964
1406.339	3988
1408.578	3979
1410.818	3903
1413.056	3871
1415.297	3850
1417.533	3984
1419.771	4007
1422.006	4021
1424.243	3984
1426.479	3907
1428.715	3931
1430.948	3926
1433.182	3996
1435.414	3976
1437.647	4020
1439.88	4035
1442.11	4029
1444.342	4041
1446.571	4011
1448.799	3995
1451.029	4084
1453.258	4120
1455.485	4167
1457.711	4031
1459.937	4050
1462.164	4079
1464.39	4114
1466.614	3995
1468.838	3954
1471.06	4011
1473.283	4013
1475.506	4023
1477.727	4010
1479.949	3997
1482.169	3922
1484.389	3885
1486.609	4038
1488.828	3873
1491.045	3981
1493.261	3969
1495.477	3930
1497.693	3926
1499.91	3853
1502.125	3940
1504.339	3965
1506.553	3890
1508.766	3970
1510.979	3872
1513.191	3820
1515.402	3948
1517.613	3939
1519.823	3797
1522.033	3880
1524.242	3863
1526.451	3855
1528.657	3929
1530.865	3850
1533.072	3964
1535.278	3887
1537.484	3958
1539.687	3964
1541.892	3899
1544.096	3863
1546.299	3923
1548.502	3921
1550.703	3952
1552.905	3989
1555.104	3976
1557.303	3997
1559.505	3924
1561.703	4004
1563.902	3916
1566.099	3962
1568.295	4009
1570.494	3994
1572.689	4035
1574.883	4017
1577.079	3918
1579.272	4002
1581.467	3974
1583.659	3998
1585.853	4077
1588.044	4040
1590.234	4040
1592.424	3984
1594.615	4044
1596.806	4031
1598.994	4045
1601.182	4053
1603.369	4038
1605.557	4097
1607.744	4074
1609.929	4246
1612.114	4033
1614.298	4021
1616.482	4073
1618.667	3980
1620.85	4027
1623.032	4075
1625.214	3998
1627.395	4109
1629.575	4036
1631.755	4111
1633.935	4066
1636.114	4051
1638.292	4161
1640.471	4113
1642.647	4066
1644.823	4195
1647	4213
1649.175	4086
1651.348	4095
1653.525	3975
1655.698	4000
1657.87	4106
1660.043	3998
1662.213	4118
1664.387	4170
1666.558	4112
1668.727	4118
1670.896	4153
1673.064	4193
1675.233	4137
1677.401	4028
1679.569	4134
1681.735	4139
1683.902	4125
1686.066	4063
1688.233	4064
1690.397	4131
1692.559	4105
1694.723	4023
1696.885	4121
1699.048	4100
1701.21	4156
1703.37	4059
1705.53	4080
1707.689	4059
1709.849	4048
1712.009	4008
1714.166	4061
1716.323	4114
1718.479	4130
1720.634	4088
1722.793	4101
1724.948	4075
1727.102	4106
1729.255	4115
1731.408	4108
1733.562	4055
1735.714	4100
1737.865	4107
1740.016	4144
1742.166	4041
1744.316	4113
1746.467	4028
1748.616	4127
1750.764	4126
1752.911	4103
1755.056	4186
1757.205	4105
1759.35	4148
1761.496	4201
1763.641	4120
1765.785	4089
1767.927	4056
1770.072	4097
1772.214	4039
1774.355	4202
1776.496	4131
1778.637	4155
1780.778	4097
1782.918	4229
1785.057	4156
1787.194	4155
1789.333	4148
1791.472	4125
1793.608	4125
1795.745	4144
1797.879	4131
1800.015	4172
1802.148	4144
1804.284	4066
1806.417	4300
1808.548	4108
1810.682	4174
1812.812	4151
1814.946	4160
1817.075	4157
1819.205	4100
1821.335	4212
1823.463	4130
1825.59	4046
1827.721	4115
1829.847	4062
1831.973	4027
1834.098	4175
1836.223	4118
1838.351	4221
1840.475	4189
1842.598	4058
1844.721	4129
1846.843	4146
1848.966	4149
1851.087	4111
1853.21	4056
1855.33	4057
1857.449	4067
1859.568	4135
1861.688	4130
1863.806	4117
1865.924	4107
1868.039	4165
1870.155	4150
1872.273	4090
1874.388	4152
1876.503	4174
1878.617	4131
1880.73	4237
1882.844	4170
1884.956	4192
1887.068	4188
1889.18	4170
1891.291	4131
1893.4	4113
1895.511	4178
1897.621	4198
1899.73	4180
1901.837	4032
1903.944	4210
1906.053	4240
1908.159	4092
1910.265	4179
1912.369	4152
1914.474	4218
1916.577	4205
1918.683	4213
1920.785	4222
1922.888	4208
1924.989	4248
1927.091	4200
1929.193	4292
1931.294	4194
1933.393	4249
1935.493	4068
1937.59	4301
1939.689	4167
1941.788	4251
1943.884	4206
1945.98	4225
1948.077	4234
1950.171	4149
1952.267	4141
1954.361	4231
1956.455	4213
1958.548	4261
1960.64	4188
1962.733	4150
1964.824	4254
1966.915	4303
1969.005	4147
1971.096	4274
1973.185	4192
1975.275	4265
1977.363	4198
1979.45	4238
1981.537	4187
1983.623	4239
1985.711	4245
1987.796	4233
1989.881	4235
1991.965	4273
1994.047	4225
1996.132	4161
1998.215	4251
2000.297	4148
2002.378	4274
2004.46	4138
2006.54	4219
2008.62	4223
2010.7	4185
2012.779	4103
2014.858	4208
2016.934	4187
2019.013	4263
2021.09	4235
2023.165	4147
2025.241	4222
2027.317	4267
2029.39	4121
2031.466	4142
2033.538	4258
2035.612	4223
2037.683	4231
2039.755	4146
2041.827	4163
2043.898	4198
2045.968	4231
2048.038	4191
2050.106	4226
2052.177	4231
2054.244	4179
2056.313	4229
2058.379	4222
2060.444	4204
2062.511	4160
2064.577	4267
2066.641	4166
2068.705	4286
2070.77	4186
2072.832	4198
2074.896	4173
2076.958	4212
2079.02	4187
2081.081	4209
2083.141	4161
2085.2	4192
2087.261	4185
2089.319	4190
2091.377	4252
2093.435	4177
2095.492	4246
2097.552	4294
2099.607	4204
2101.663	4192
2103.718	4167
2105.771	4189
2107.826	4298
2109.879	4250
2111.932	4175
2113.985	4239
2116.037	4314
2118.088	4159
2120.141	4215
2122.191	4192
2124.239	4257
2126.288	4321
2128.337	4190
2130.387	4313
2132.434	4130
2134.481	4257
2136.528	4174
2138.574	4231
2140.618	4285
2142.665	4237
2144.71	4238
2146.753	4190
2148.797	4204
2150.838	4177
2152.883	4196
2154.923	4267
2156.965	4131
2159.007	4172
2161.046	4233
2163.086	4167
2165.126	4240
2167.163	4228
2169.202	4140
2171.239	4182
2173.277	4194
2175.314	4146
2177.349	4162
2179.385	4223
2181.42	4176
2183.453	4284
2185.49	4113
2187.522	4163
2189.555	4186
2191.586	4256
2193.619	4123
2195.651	4214
2197.682	4192
2199.711	4125
2201.74	4205
2203.769	4230
2205.799	4215
2207.828	4118
2209.855	4128
2211.882	4189
2213.908	4219
2215.934	4115
2217.961	4148
2219.986	4151
2222.01	4241
2224.034	4139
2226.057	4089
2228.08	4132
2230.104	4173
2232.124	4172
2234.145	4127
2236.166	4163
2238.186	4160
2240.207	4220
2242.227	4143
2244.244	4236
2246.262	4101
2248.28	4167
2250.299	4161
2252.314	4209
2254.33	4185
2256.346	4161
2258.36	4181
2260.375	4210
2262.391	4175
2264.403	4103
2266.416	4132
2268.427	4044
2270.44	4155
2272.453	4210
2274.463	4224
2276.474	4211
2278.483	4050
2280.493	4152
2282.501	4278
2284.51	4150
2286.518	4268
2288.524	4213
2290.532	4205
2292.537	4154
2294.544	4175
2296.55	4165
2298.554	4064
2300.557	4241
2302.562	4176
2304.566	4187
2306.568	4207
2308.569	4219
2310.572	4162
2312.573	4100
2314.573	4133
2316.574	4154
2318.573	4114
2320.571	4089
2322.571	4188
2324.569	4124
2326.567	4182
2328.564	4141
2330.56	4101
2332.556	4181
2334.551	4107
2336.546	3985
2338.542	4173
2340.535	4201
2342.529	4162
2344.521	4195
2346.512	4169
2348.505	4158
2350.497	4125
2352.487	4161
2354.478	4060
2356.468	4065
2358.457	4076
2360.446	4190
2362.434	4161
2364.422	4195
2366.408	4170
2368.395	4048
2370.383	4144
2372.369	4090
2374.353	4015
2376.338	4108
2378.321	4041
2380.307	4132
2382.29	4059
2384.272	4144
2386.254	4089
2388.235	4060
2390.218	4101
2392.198	4085
2394.179	4103
2396.157	4066
2398.137	4140
2400.115	4090
2402.095	4123
2404.072	4081
2406.048	4091
2408.026	4083
2410.001	4078
2411.977	4135
2413.953	4053
2415.927	4067
2417.9	4068
2419.875	4061
2421.847	4014
2423.821	4079
2425.792	4139
2427.763	4124
2429.736	3971
2431.706	4013
2433.677	4067
2435.646	4114
2437.615	4064
2439.583	4062
2441.551	4120
2443.519	4098
2445.486	4002
2447.452	4166
2449.418	4107
2451.383	4036
2453.348	4073
2455.314	4136
2457.278	4073
2459.241	4179
2461.205	4134
2463.167	4035
2465.131	4077
2467.091	4070
2469.052	4024
2471.012	4043
2472.972	4163
2474.932	4004
2476.891	4031
2478.85	4132
2480.808	4046
2482.766	4066
2484.722	4019
2486.68	4014
2488.636	4139
2490.591	4009
2492.546	4005
2494.5	3967
2496.456	4016
2498.41	4043
2500.362	3994
2502.315	4004
2504.266	4029
2506.218	3967
2508.169	4082
2510.121	4017
2512.07	4061
2514.019	4038
2515.968	4059
2517.918	4051
2519.866	4022
2521.813	4022
2523.76	3973
2525.707	4018
2527.653	4001
2529.599	4111
2531.543	4011
2533.489	4047
2535.433	3989
2537.376	3966
2539.32	4097
2541.264	3983
2543.205	4090
2545.147	4017
2547.087	3907
2549.029	3936
2550.969	4006
2552.908	3975
2554.847	4016
2556.786	4098
2558.724	4037
2560.663	4110
2562.6	3948
2564.537	4002
2566.473	4015
2568.408	4045
2570.345	3922
2572.28	4084
2574.214	3968
2576.148	4021
2578.081	4028
2580.014	3984
2581.947	4051
2583.879	4078
2585.81	4096
2587.741	4061
2589.67	4039
2591.602	3975
2593.532	4085
2595.461	4007
2597.388	4103
2599.316	4064
2601.244	4112
2603.172	4110
2605.098	4040
2607.023	4024
2608.949	4033
2610.873	4075
2612.8	4015
2614.723	4005
2616.647	4079
2618.569	4059
2620.493	4116
2622.416	3938
2624.338	4024
2626.258	4024
2628.179	4053
2630.099	4066
2632.019	4091
2633.939	4062
2635.857	4059
2637.775	4146
2639.694	3998
2641.61	4011
2643.528	3983
2645.444	4035
2647.361	3993
2649.276	4053
2651.19	4071
2653.105	3973
2655.019	3944
2656.934	3995
2658.846	3974
2660.758	4047
2662.67	4001
2664.583	4018
2666.493	4000
2668.404	4032
2670.313	3982
2672.223	4033
2674.134	4079
2676.042	4021
2677.95	4075
2679.858	4018
2681.765	4077
2683.673	4080
2685.579	3985
2687.483	4060
2689.389	4087
2691.294	4066
2693.198	4078
2695.104	3956
2697.006	4054
2698.909	3967
2700.811	4007
2702.713	4076
2704.615	4059
2706.516	4047
2708.417	4094
2710.316	3933
2712.216	4010
2714.115	3973
2716.014	3967
2717.913	3934
2719.81	4055
2721.707	3953
2723.603	4045
2725.501	4013
2727.396	3995
2729.292	3998
2731.186	4028
2733.081	4024
2734.976	4007
2736.87	3979
2738.762	4013
2740.653	3968
2742.546	3974
2744.437	4029
2746.329	4059
2748.22	3978
2750.11	4061
2751.999	3949
2753.889	4053
2755.778	3975
2757.666	4013
2759.553	3989
2761.44	4048
2763.328	4019
2765.215	3972
2767.101	3958
2768.986	4051
2770.87	3988
2772.754	4064
2774.638	3944
2776.523	3980
2778.405	3955
2780.288	3960
2782.17	4001
2784.051	3962
2785.934	4006
2787.814	3942
2789.694	4043
2791.574	3996
2793.453	3925
2795.332	3989
2797.212	3972
2799.088	3931
2800.966	4030
2802.843	3925
2804.719	3933
2806.597	3969
2808.471	3975
2810.346	3952
2812.221	3969
2814.094	3942
2815.969	3935
2817.843	3991
2819.714	3965
2821.587	3960
2823.459	3925
2825.329	3896
2827.202	3962
2829.072	4019
2830.942	3942
2832.811	4004
2834.68	3994
2836.549	4048
2838.418	3964
2840.284	3928
2842.152	3931
2844.018	3991
2845.885	3918
2847.751	3951
2849.616	4035
2851.482	3885
2853.345	4027
2855.208	3987
2857.074	4079
2858.937	4081
2860.799	3999
2862.66	4008
2864.522	4053
2866.385	4023
2868.245	4099
2870.104	4029
2871.964	4090
2873.824	4111
2875.683	4144
2877.542	4181
2879.4	4141
2881.257	4164
2883.114	4216
2884.97	4131
2886.827	4154
2888.683	4179
2890.537	4191
2892.392	4190
2894.246	4209
2896.1	4244
2897.954	4180
2899.807	4155
2901.66	4177
2903.51	4133
2905.362	4266
2907.214	4159
2909.065	4192
2910.915	4209
2912.765	4157
2914.613	4152
2916.463	4313
2918.311	4137
2920.158	4292
2922.006	4236
2923.853	4407
2925.698	4303
2927.546	4284
2929.392	4336
2931.236	4359
2933.081	4366
2934.924	4420
2936.77	4439
2938.613	4396
2940.455	4483
2942.298	4460
2944.139	4440
2945.982	4563
2947.823	4443
2949.662	4474
2951.503	4421
2953.342	4413
2955.182	4444
2957.021	4433
2958.858	4433
2960.697	4367
2962.534	4378
2964.37	4330
2966.207	4262
2968.044	4362
2969.879	4245
2971.714	4230
2973.548	4178
2975.383	4249
2977.218	4231
2979.051	4220
2980.883	4147
2982.715	4156
2984.547	4213
2986.379	4147
2988.21	4153
2990.04	4082
2991.87	4190
2993.7	4098
2995.53	4071
2997.359	4030
2999.187	4031
3001.015	4041
3002.842	3983
3004.669	4019
3006.497	4003
3008.323	3912
3010.148	4037
3011.974	3895
3013.797	3983
3015.623	3850
3017.447	3921
3019.27	3942
3021.094	3884
3022.915	3822
3024.737	3893
3026.56	3816
3028.38	3841
3030.201	3865
3032.022	3824
3033.84	3834
3035.662	3810
3037.481	3800
3039.298	3816
3041.117	3845
3042.933	3837
3044.752	3745
3046.568	3879
3048.385	3857
3050.2	3847
3052.016	3928
3053.83	3747
3055.646	3801
3057.46	3742
3059.272	3828
3061.086	3773
3062.898	3772
3064.711	3804
3066.524	3875
3068.335	3849
3070.145	3817
3071.956	3783
3073.766	3795
3075.576	3851
3077.385	3769
3079.193	3834
3081.002	3712
3082.81	3759
3084.618	3712
3086.425	3745
3088.231	3797
3090.036	3743
3091.842	3804
3093.648	3760
3095.452	3737
3097.257	3716
3099.06	3692
3100.863	3684
3102.666	3771
3104.47	3768
3106.272	3699
3108.073	3652
3109.875	3730
3111.676	3693
3113.477	3695
3115.277	3765
3117.077	3678
3118.874	3676
3120.673	3615
3122.473	3662
3124.271	3676
3126.066	3693
3127.863	3709
3129.66	3714
3131.456	3674
3133.252	3671
3135.047	3633
3136.842	3688
3138.635	3630
3140.429	3644
3142.223	3641
3144.016	3651
3145.808	3638
3147.6	3644
3149.392	3565
3151.183	3607
3152.975	3670
3154.765	3587
3156.553	3645
3158.344	3582
3160.132	3636
3161.922	3618
3163.71	3595
3165.497	3602
3167.285	3598
3169.071	3655
3170.858	3704
3172.645	3696
3174.429	3665
3176.214	3648
3177.998	3591
3179.783	3575
3181.568	3613
3183.351	3663
3185.133	3630
3186.915	3632
3188.698	3655
3190.481	3547
3192.261	3638
3194.042	3616
3195.822	3577
3197.601	3563
3199.381	3577
3201.161	3575
3202.939	3680
3204.717	3553
3206.495	3595
3208.272	3543
3210.05	3584
3211.826	3603
3213.602	3569
3215.376	3543
3217.151	3570
3218.927	3585
3220.702	3523
3222.476	3564
3224.249	3569
3226.021	3549
3227.793	3618
3229.567	3565
3231.339	3597
3233.109	3644
3234.88	3623
3236.651	3554
3238.421	3615
3240.191	3516
3241.96	3580
3243.728	3587
3245.497	3526
3247.263	3629
3249.033	3479
3250.799	3592
3252.566	3556
3254.331	3552
3256.097	3496
3257.863	3612
3259.628	3574
3261.392	3602
3263.156	3608
3264.919	3579
3266.683	3516
3268.447	3569
3270.208	3571
3271.969	3484
3273.731	3492
3275.492	3609
3277.253	3464
3279.013	3579
3280.773	3532
3282.532	3599
3284.291	3544
3286.05	3554
3287.808	3584
3289.566	3566
3291.323	3507
3293.079	3619
3294.835	3471
3296.593	3567
3298.348	3552
3300.102	3575
3301.857	3549
3303.611	3598
3305.366	3587
3307.119	3520
3308.872	3544
3310.624	3546
3312.376	3533
3314.129	3571
3315.881	3494
3317.631	3584
3319.38	3580
3321.13	3521
3322.88	3601
3324.631	3495
3326.379	3591
3328.126	3609
3329.875	3592
3331.622	3491
3333.371	3542
3335.116	3499
3336.863	3525
3338.609	3517
3340.353	3526
3342.1	3503
3343.845	3434
3345.588	3482
3347.332	3517
3349.074	3533
3350.817	3557
3352.56	3538
3354.303	3566
3356.043	3463
3357.785	3477
3359.525	3485
3361.268	3391
3363.007	3578
3364.745	3486
3366.485	3539
3368.223	3468
3369.962	3461
3371.701	3535
3373.438	3396
3375.174	3454
3376.911	3536
3378.647	3527
3380.384	3471
3382.118	3442
3383.854	3536
3385.588	3482
3387.322	3472
3389.057	3435
3390.79	3475
3392.522	3438
3394.255	3476
3395.987	3477
3397.719	3489
3399.451	3452
3401.181	3541
3402.911	3417
3404.641	3488
3406.371	3449
3408.101	3433
3409.83	3453
3411.558	3482
3413.285	3404
3415.011	3455
3416.739	3505
3418.467	3426
3420.193	3395
3421.919	3429
3423.644	3457
3425.368	3411
3427.094	3432
3428.818	3424
3430.542	3442
3432.264	3402
3433.987	3397
3435.712	3443
3437.434	3366
3439.155	3344
3440.876	3451
3442.596	3348
3444.317	3418
3446.039	3405
3447.757	3347
3449.477	3445
3451.195	3399
3452.914	3372
3454.632	3416
3456.35	3412
3458.067	3279
3459.784	3291
3461.5	3356
3463.216	3405
3464.932	3403
3466.647	3332
3468.362	3302
3470.076	3365
3471.789	3307
3473.505	3380
3475.217	3304
3476.929	3334
3478.641	3310
3480.354	3342
3482.066	3315
3483.777	3257
3485.487	3294
3487.197	3390
3488.908	3372
3490.617	3302
3492.327	3290
3494.035	3301
3495.743	3335
3497.451	3301
3499.158	3216
3500.866	3331
3502.572	3276
3504.278	3362
3505.984	3247
3507.689	3280
3509.396	3318
3511.1	3288
3512.804	3224
3514.508	3305
3516.211	3235
3517.913	3223
3519.616	3248
3521.319	3270
3523.021	3213
3524.722	3241
3526.422	3257
3528.124	3216
3529.824	3280
3531.524	3181
3533.222	3220
3534.921	3197
3536.62	3148
3538.318	3248
3540.016	3193
3541.714	3231
3543.41	3235
3545.107	3267
3546.803	3338
3548.5	3200
3550.194	3155
3551.889	3210
3553.583	3163
3555.279	3181
3556.972	3272
3558.666	3152
3560.358	3197
3562.051	3180
3563.742	3211
3565.435	3225
3567.126	3142
3568.817	3180
3570.507	3205
3572.197	3246
3573.888	3200
3575.577	3188
3577.265	3138
3578.954	3265
3580.642	3142
3582.329	3173
3584.017	3244
3585.704	3168
3587.391	3163
3589.077	3252
3590.762	3152
3592.449	3154
3594.133	3171
3595.817	3244
3597.501	3212
3599.185	3130
3600.869	3124
3602.552	3186
3604.234	3145
3605.916	3080
3607.598	3143
3609.279	3106
3610.961	3115
3612.642	3156
3614.321	3098
3616	3052
3617.68	3143
3619.36	3129
3621.039	3053
3622.716	3055
3624.394	3151
3626.071	3065
3627.748	3069
3629.425	3115
3631.102	3053
3632.778	2981
3634.452	3082
3636.127	3058
3637.803	3067
3639.477	3090
3641.151	3076
3642.823	3027
3644.497	3126
3646.171	3094
3647.842	3054
3649.515	2987
3651.185	2993
3652.857	3036
3654.527	3000
3656.198	3075
3657.868	3093
3659.537	2991
3661.207	3091
3662.875	3036
3664.544	3019
3666.212	3029
3667.879	3079
3669.546	3012
3671.212	2919
3672.88	3025
3674.546	2941
3676.211	2975
3677.875	2999
3679.541	2973
3681.205	3111
3682.87	2929
3684.533	3036
3686.196	2963
3687.859	3034
3689.521	2973
3691.184	2995
3692.845	2989
3694.507	2921
3696.167	3015
3697.827	2970
3699.487	2951
3701.148	3014
3702.808	3007
3704.466	2982
3706.125	3078
3707.783	2940
3709.442	2971
3711.099	2977
3712.757	2926
3714.412	2968
3716.068	2923
3717.725	2987
3719.381	2959
3721.036	2965
3722.689	2952
3724.344	2944
3725.998	3005
3727.652	3011
3729.305	2917
3730.958	2948
3732.61	2904
3734.262	2947
3735.915	2917
3737.565	2985
3739.217	2911
3740.866	3033
3742.516	2980
3744.165	2930
3745.816	2979
3747.464	3036
3749.113	2901
3750.761	2965
3752.409	2907
3754.057	2962
3755.703	2847
3757.35	2944
3758.996	2966
3760.641	2938
3762.289	2865
3763.933	2896
3765.577	2918
3767.222	2930
3768.865	2894
3770.508	2889
3772.152	2916
3773.796	2847
3775.438	3005
3777.079	2841
3778.721	2842
3780.363	2914
3782.003	2916
3783.643	2875
3785.283	2899
3786.923	2907
3788.563	2943
3790.203	2854
3791.841	2873
3793.479	2862
3795.115	2910
3796.753	2852
3798.391	2780
3800.027	2909
3801.664	2805
3803.299	2854
3804.935	2909
3806.571	2948
3808.206	2851
3809.839	2881
3811.473	2857
3813.107	2820
3814.74	2894
3816.375	2870
3818.006	2900
3819.638	2794
3821.27	2824
3822.9	2842
3824.532	2853
3826.163	2841
3827.792	2823
3829.423	2795
3831.051	2829
3832.682	2788
3834.311	2860
3835.938	2829
3837.566	2788
3839.193	2727
3840.821	2784
3842.448	2836
3844.075	2757
3845.7	2786
3847.325	2761
3848.951	2768
3850.576	2771
3852.201	2816
3853.825	2840
3855.448	2834
3857.072	2831
3858.694	2744
3860.318	2753
3861.939	2801
3863.562	2795
3865.183	2830
3866.804	2790
3868.426	2770
3870.045	2795
3871.666	2785
3873.285	2770
3874.904	2793
3876.524	2759
3878.142	2807
3879.76	2697
3881.378	2796
3882.995	2725
3884.612	2722
3886.229	2753
3887.845	2708
3889.461	2808
3891.076	2691
3892.691	2695
3894.307	2825
3895.922	2769
3897.536	2766
3899.149	2700
3900.761	2766
3902.374	2775
3903.988	2747
3905.6	2723
3907.212	2720
3908.822	2773
3910.433	2777
3912.045	2757
3913.655	2743
3915.265	2693
3916.875	2821
3918.483	2721
3920.093	2710
3921.702	2699
3923.309	2735
3924.917	2765
3926.523	2693
3928.13	2756
3929.739	2714
3931.344	2744
3932.95	2758
3934.555	2716
3936.159	2698
3937.766	2735
3939.369	2763
3940.974	2685
3942.577	2700
3944.181	2700
3945.783	2707
3947.386	2696
3948.989	2701
3950.59	2642
3952.191	2750
3953.791	2659
3955.394	2700
3956.994	2667
3958.593	2629
3960.192	2629
3961.791	2686
3963.392	2727
3964.99	2651
3966.588	2633
3968.185	2656
3969.782	2626
3971.379	2610
3972.976	2651
3974.572	2635
3976.168	2654
3977.763	2684
3979.358	2638
3980.954	2640
3982.548	2697
3984.142	2647
3985.736	2600
3987.329	2598
3988.922	2641
3990.516	2604
3992.108	2653
3993.698	2612
3995.29	2623
3996.881	2606
3998.473	2653
4000.064	2666
4001.653	2504
4003.242	2513
4004.832	2591
4006.422	2577
4008.01	2653
4009.598	2639
4011.186	2593
4012.773	2566
4014.36	2595
4015.947	2632
4017.534	2625
4019.119	2552
4020.705	2551
4022.291	2619
4023.876	2539
4025.461	2566
4027.044	2566
4028.627	2556
4030.211	2574
4031.795	2515
4033.378	2570
4034.96	2568
4036.542	2564
4038.124	2561
4039.704	2508
4041.286	2499
4042.867	2506
4044.447	2525
4046.026	2604
4047.606	2572
4049.187	2483
4050.765	2578
4052.343	2484
4053.92	2502
4055.498	2504
4057.076	2512
4058.654	2476
4060.23	2512
4061.806	2465
4063.381	2550
4064.957	2558
4066.533	2539
4068.107	2517
4069.682	2496
4071.256	2515
4072.829	2510
4074.404	2505
4075.977	2508
4077.549	2546
4079.121	2495
4080.693	2485
4082.265	2507
4083.836	2436
4085.407	2453
4086.977	2508
4088.547	2525
4090.117	2524
4091.687	2490
4093.256	2476
4094.825	2468
4096.392	2499
4097.96	2474
4099.528	2420
4101.097	2479
4102.663	2477
4104.229	2441
4105.795	2478
4107.361	2472
4108.928	2459
4110.493	2504
4112.058	2455
4113.621	2457
4115.186	2447
4116.75	2502
4118.313	2398
4119.876	2479
4121.438	2472
4123	2375
4124.562	2434
4126.125	2441
4127.686	2447
4129.246	2364
4130.807	2449
4132.367	2432
4133.927	2409
4135.486	2379
4137.046	2456
4138.604	2390
4140.162	2456
4141.72	2425
4143.279	2414
4144.836	2415
4146.393	2385
4147.949	2405
4149.505	2338
4151.062	2395
4152.617	2501
4154.172	2344
4155.727	2377
4157.281	2406
4158.836	2365
4160.39	2422
4161.943	2407
4163.496	2352
4165.048	2350
4166.601	2363
4168.154	2334
4169.706	2384
4171.257	2369
4172.808	2360
4174.358	2392
4175.909	2327
4177.458	2341
4179.008	2319
4180.558	2360
4182.106	2380
4183.655	2322
4185.204	2437
4186.751	2352
4188.298	2307
4189.845	2344
4191.392	2365
4192.939	2348
4194.485	2323
4196.031	2431
4197.576	2314
4199.121	2358
4200.666	2360
4202.211	2306
4203.754	2351
4205.298	2348
4206.84	2262
4208.384	2348
4209.927	2301
4211.47	2313
4213.011	2309
4214.552	2346
4216.094	2322
4217.635	2298
4219.175	2358
4220.716	2358
4222.255	2245
4223.793	2322
4225.335	2360
4226.873	2292
4228.411	2320
4229.948	2294
4231.486	2308
4233.024	2324
4234.562	2342
4236.098	2301
4237.634	2250
4239.169	2299
4240.705	2318
4242.241	2316
4243.776	2289
4245.31	2328
4246.844	2315
4248.378	2300
4249.911	2292
4251.445	2275
4252.978	2306
4254.51	2300
4256.042	2305
4257.574	2278
4259.107	2294
4260.638	2257
4262.169	2292
4263.699	2224
4265.228	2285
4266.759	2212
4268.289	2235
4269.818	2235
4271.345	2313
4272.874	2238
4274.402	2235
4275.931	2283
4277.458	2155
4278.985	2239
4280.512	2242
4282.037	2283
4283.564	2209
4285.089	2214
4286.615	2272
4288.139	2206
4289.664	2207
4291.187	2256
4292.712	2254
4294.235	2204
4295.759	2248
4297.281	2168
4298.804	2240
4300.327	2234
4301.849	2251
4303.37	2209
4304.891	2170
4306.412	2184
4307.933	2229
4309.453	2178
4310.973	2269
4312.492	2210
