398.1873	6564
400.7097	6705
403.2336	6683
405.7547	6648
408.2751	6683
410.7948	6652
413.3138	6740
415.83	6805
418.3497	6752
420.8666	6765
423.3829	6990
425.8985	7052
428.4133	7020
430.9275	7018
433.441	7048
435.9538	7075
438.4639	7032
440.9753	7102
443.4881	7104
445.9982	7159
448.5055	7149
451.0142	7052
453.5201	7174
456.0274	7235
458.5361	7067
461.04	7163
463.5453	7106
466.0478	7206
468.5517	7212
471.0549	7172
473.5574	7129
476.0572	7253
478.5584	7174
481.0568	7208
483.5545	7150
486.0557	7238
488.5521	7262
491.0478	7275
493.5449	7377
496.0392	7277
498.5349	7451
501.0299	7517
503.5222	7327
506.0139	7367
508.5048	7411
510.9991	7530
513.4887	7377
515.9777	7530
518.4659	7528
520.9534	7487
523.4403	7406
525.9306	7473
528.4161	7508
530.9009	7541
533.3851	7424
535.8687	7449
538.3535	7507
540.8356	7611
543.3171	7476
545.7979	7309
548.278	7456
550.7595	7489
553.2383	7598
555.7144	7474
558.1918	7649
560.6685	7633
563.1446	7610
565.6221	7585
568.0968	7587
570.5688	7732
573.0422	7838
575.515	7691
577.989	7671
580.4584	7759
582.9291	7802
585.3991	7870
587.8685	7785
590.3352	7665
592.8052	7688
595.2706	7737
597.7372	7687
600.2033	7746
602.6666	7712
605.1334	7762
607.5953	7714
610.0587	7688
612.5193	7817
614.9814	7753
617.4427	7756
619.9034	7781
622.3615	7702
624.8208	7770
627.2775	7729
629.7335	7726
632.1929	7757
634.6476	7777
637.1016	7824
639.5569	7753
642.0096	8017
644.4637	7798
646.9151	7769
649.3678	7802
651.8179	7848
654.2672	7771
656.7159	7900
659.166	7881
661.6154	7917
664.0622	7829
666.5082	7878
668.9537	7876
671.4005	7896
673.8445	7990
676.288	8000
678.7308	8021
681.1729	8038
683.6163	8006
686.0572	8153
688.4973	7998
690.9368	7986
693.3757	8076
695.8138	7951
698.2534	8055
700.6902	8075
703.1245	8128
705.56	8187
707.9949	8126
710.4311	8208
712.8647	8228
715.2957	8207
717.7279	8082
720.1595	8054
722.5905	8199
725.0208	8174
727.4505	8232
729.8795	8213
732.3058	8315
734.7336	8310
737.1626	8468
739.587	8319
742.0128	8422
744.4359	8313
746.8604	8359
749.2841	8455
751.7073	8449
754.1278	8619
756.5496	8577
758.9688	8538
761.3893	8493
763.8093	8597
766.2285	8448
768.6451	8610
771.0611	8499
773.4784	8428
775.895	8668
778.3091	8576
780.7244	8658
783.1371	8614
785.5493	8541
787.9626	8578
790.3754	8658
792.7856	8579
795.1951	8644
797.6039	8464
800.0121	8655
802.4236	8545
804.8306	8809
807.2369	8717
809.6425	8792
812.0475	8677
814.4538	8632
816.8575	8621
819.2606	8725
821.663	8739
824.0648	8845
826.4659	8753
828.8683	8657
831.2682	8577
833.6674	8867
836.066	8799
838.4639	8822
840.8632	8717
843.2579	8805
845.6539	8825
848.0493	8865
850.444	8859
852.84	8917
855.2315	8932
857.6243	8999
860.0165	8825
862.4081	8754
864.797	8873
867.1892	8815
869.5789	8809
871.9659	8871
874.3542	8905
876.74	8766
879.129	9015
881.5155	8832
883.8994	8830
886.2845	8971
888.6671	8712
891.051	8901
893.4343	8871
895.8169	8874
898.197	8947
900.5783	8882
902.9571	8926
905.3372	8899
907.7167	8876
910.0936	8890
912.4698	9014
914.8474	9007
917.2244	9074
919.5987	8944
921.9744	9159
924.3475	9155
926.72	9125
929.0918	9258
931.4669	9279
933.8375	9179
936.2074	9186
938.5767	9399
940.9454	9337
943.3154	9332
945.6829	9527
948.0497	9673
950.4178	9901
952.7833	10017
955.1483	10427
957.5145	10489
959.8782	10555
962.2412	10548
964.6036	10385
966.9655	10186
969.3266	9915
971.6871	9629
974.0471	9464
976.4064	9189
978.765	9258
981.125	9190
983.4824	9060
985.8373	9060
988.1935	9092
990.549	9098
992.9039	9142
995.2602	9248
997.6119	8999
999.965	9239
1002.317	9129
1004.667	9187
1007.02	9233
1009.371	9258
1011.719	9239
1014.068	9185
1016.415	9124
1018.765	9274
1021.111	9089
1023.458	9244
1025.804	9247
1028.147	9354
1030.49	9166
1032.837	9313
1035.179	9306
1037.522	9140
1039.862	9197
1042.204	9322
1044.546	9361
1046.884	9314
1049.224	9234
1051.562	9323
1053.899	9301
1056.237	9342
1058.575	9278
1060.91	9449
1063.244	9426
1065.58	9474
1067.913	9496
1070.248	9476
1072.579	9346
1074.911	9547
1077.242	9362
1079.572	9405
1081.905	9419
1084.234	9376
1086.562	9434
1088.89	9340
1091.217	9429
1093.544	9338
1095.871	9528
1098.197	9336
1100.521	9407
1102.845	9382
1105.169	9407
1107.491	9531
1109.814	9355
1112.135	9304
1114.456	9547
1116.776	9331
1119.096	9504
1121.415	9412
1123.734	9409
1126.052	9390
1128.369	9475
1130.686	9423
1133.002	9437
1135.318	9420
1137.632	9387
1139.945	9718
1142.258	9391
1144.573	9525
1146.884	9465
1149.196	9545
1151.505	9477
1153.816	9355
1156.124	9581
1158.435	9483
1160.742	9523
1163.051	9484
1165.356	9590
1167.663	9396
1169.97	9497
1172.276	9566
1174.579	9531
1176.881	9524
1179.186	9496
1181.487	9493
1183.79	9374
1186.092	9547
1188.392	9473
1190.691	9425
1192.991	9578
1195.291	9372
1197.588	9469
1199.885	9404
1202.181	9430
1204.479	9513
1206.775	9428
1209.07	9403
1211.363	9444
1213.656	9468
1215.949	9419
1218.241	9552
1220.534	9492
1222.825	9510
1225.115	9720
1227.405	9645
1229.693	9535
1231.984	9721
1234.271	9671
1236.558	9688
1238.845	9774
1241.131	9509
1243.416	9826
1245.703	9693
1247.987	9778
1250.269	9762
1252.552	9699
1254.834	9852
1257.118	9726
1259.399	9655
1261.678	9725
1263.958	9795
1266.237	9819
1268.516	9770
1270.794	9760
1273.072	9757
1275.347	9931
1277.624	9834
1279.899	9666
1282.175	9610
1284.449	9829
1286.722	9673
1288.995	9553
1291.266	9662
1293.54	9700
1295.81	9773
1298.081	9676
1300.35	9735
1302.62	9820
1304.889	9738
1307.156	9614
1309.425	9648
1311.69	9582
1313.957	9805
1316.222	9649
1318.488	9648
1320.751	9602
1323.016	9794
1325.278	9679
1327.54	9813
1329.803	9801
1332.065	9818
1334.325	9645
1336.584	9870
1338.843	9636
1341.101	9785
1343.36	9859
1345.617	9735
1347.876	9614
1350.131	9735
1352.387	9626
1354.643	9590
1356.897	9793
1359.151	9738
1361.403	9717
1363.656	9746
1365.909	9654
1368.16	9662
1370.409	9722
1372.659	9625
1374.909	9845
1377.157	9777
1379.407	9613
1381.655	9790
1383.9	9756
1386.147	9752
1388.393	9858
1390.64	9742
1392.885	9940
1395.127	9850
1397.37	9931
1399.614	9864
1401.854	9892
1404.098	9902
1406.339	9892
1408.578	9991
1410.818	9968
1413.056	9859
1415.297	9909
1417.533	9880
1419.771	10084
1422.006	9901
1424.243	10025
1426.479	9985
1428.715	9921
1430.948	10023
1433.182	10024
1435.414	10059
1437.647	10193
1439.88	10123
1442.11	9906
1444.342	10016
1446.571	10109
1448.799	10037
1451.029	9948
1453.258	10236
1455.485	10107
1457.711	10063
1459.937	10101
1462.164	10238
1464.39	10184
1466.614	10119
1468.838	10012
1471.06	10022
1473.283	10020
1475.506	10000
1477.727	10063
1479.949	10081
1482.169	9963
1484.389	9939
1486.609	9976
1488.828	10038
1491.045	9892
1493.261	9904
1495.477	9860
1497.693	9998
1499.91	9766
1502.125	9800
1504.339	9683
1506.553	9914
1508.766	9809
1510.979	9846
1513.191	9966
1515.402	9975
1517.613	9733
1519.823	9861
1522.033	9772
1524.242	9846
1526.451	9842
1528.657	9885
1530.865	9781
1533.072	9762
1535.278	9888
1537.484	9998
1539.687	9890
1541.892	9923
1544.096	9809
1546.299	10031
1548.502	10041
1550.703	9945
1552.905	9943
1555.104	9878
1557.303	9946
1559.505	9912
1561.703	9992
1563.902	9973
1566.099	9970
1568.295	10043
1570.494	10032
1572.689	10136
1574.883	10142
1577.079	10073
1579.272	10168
1581.467	10088
1583.659	10136
1585.853	10162
1588.044	10233
1590.234	10103
1592.424	10111
1594.615	10200
1596.806	10190
1598.994	10173
1601.182	10098
1603.369	10151
1605.557	10250
1607.744	10168
1609.929	10202
1612.114	10108
1614.298	10220
1616.482	10121
1618.667	10267
1620.85	10327
1623.032	10247
1625.214	10302
1627.395	10227
1629.575	10177
1631.755	10300
1633.935	10193
1636.114	10280
1638.292	10240
1640.471	10207
1642.647	10223
1644.823	10320
1647	10170
1649.175	10428
1651.348	10269
1653.525	10359
1655.698	10190
1657.87	10431
1660.043	10319
1662.213	10400
1664.387	10346
1666.558	10282
1668.727	10216
1670.896	10367
1673.064	10318
1675.233	10343
1677.401	10384
1679.569	10236
1681.735	10293
1683.902	10285
1686.066	10294
1688.233	10276
1690.397	10083
1692.559	10128
1694.723	10260
1696.885	10417
1699.048	10204
1701.21	10156
1703.37	10078
1705.53	10331
1707.689	10341
1709.849	10052
1712.009	10253
1714.166	10214
1716.323	10145
1718.479	10150
1720.634	10320
1722.793	10247
1724.948	10211
1727.102	10350
1729.255	10183
1731.408	10184
1733.562	10198
1735.714	10199
1737.865	10167
1740.016	10331
1742.166	10203
1744.316	10277
1746.467	10085
1748.616	10380
1750.764	10069
1752.911	10427
1755.056	10288
1757.205	10335
1759.35	10378
1761.496	10315
1763.641	10243
1765.785	10284
1767.927	10294
1770.072	10244
1772.214	10135
1774.355	10319
1776.496	10323
1778.637	10194
1780.778	10293
1782.918	10399
1785.057	10353
1787.194	10378
1789.333	10293
1791.472	10400
1793.608	10435
1795.745	10395
1797.879	10361
1800.015	10428
1802.148	10461
1804.284	10448
1806.417	10385
1808.548	10420
1810.682	10392
1812.812	10366
1814.946	10439
1817.075	10255
1819.205	10304
1821.335	10242
1823.463	10388
1825.59	10300
1827.721	10238
1829.847	10202
1831.973	10336
1834.098	10282
1836.223	10215
1838.351	10311
1840.475	10300
1842.598	10153
1844.721	10401
1846.843	10135
1848.966	10328
1851.087	10260
1853.21	10195
1855.33	10345
1857.449	10264
1859.568	10217
1861.688	10388
1863.806	10182
1865.924	10315
1868.039	10303
1870.155	10051
1872.273	10207
1874.388	10238
1876.503	10213
1878.617	10074
1880.73	10296
1882.844	10290
1884.956	10305
1887.068	10371
1889.18	10205
1891.291	10389
1893.4	10270
1895.511	10215
1897.621	10381
1899.73	10379
1901.837	10310
1903.944	10335
1906.053	10338
1908.159	10372
1910.265	10317
1912.369	10413
1914.474	10363
1916.577	10472
1918.683	10292
1920.785	10306
1922.888	10382
1924.989	10393
1927.091	10330
1929.193	10418
1931.294	10435
1933.393	10357
1935.493	10331
1937.59	10339
1939.689	10599
1941.788	10507
1943.884	10640
1945.98	10380
1948.077	10481
1950.171	10402
1952.267	10406
1954.361	10331
1956.455	10333
1958.548	10570
1960.64	10367
1962.733	10382
1964.824	10392
1966.915	10408
1969.005	10515
1971.096	10447
1973.185	10353
1975.275	10290
1977.363	10382
1979.45	10389
1981.537	10449
1983.623	10334
1985.711	10421
1987.796	10388
1989.881	10185
1991.965	10407
1994.047	10360
1996.132	10362
1998.215	10361
2000.297	10261
2002.378	10305
2004.46	10302
2006.54	10259
2008.62	10285
2010.7	10195
2012.779	10336
2014.858	10251
2016.934	10356
2019.013	10317
2021.09	10428
2023.165	10374
2025.241	10387
2027.317	10226
2029.39	10360
2031.466	10216
2033.538	10311
2035.612	10471
2037.683	10287
2039.755	10241
2041.827	10319
2043.898	10335
2045.968	10393
2048.038	10274
2050.106	10386
2052.177	10237
2054.244	10365
2056.313	10479
2058.379	10329
2060.444	10424
2062.511	10369
2064.577	10277
2066.641	10332
2068.705	10318
2070.77	10512
2072.832	10487
2074.896	10405
2076.958	10325
2079.02	10400
2081.081	10274
2083.141	10432
2085.2	10363
2087.261	10313
2089.319	10435
2091.377	10361
2093.435	10418
2095.492	10399
2097.552	10441
2099.607	10400
2101.663	10298
2103.718	10401
2105.771	10450
2107.826	10262
2109.879	10406
2111.932	10394
2113.985	10451
2116.037	10244
2118.088	10481
2120.141	10367
2122.191	10337
2124.239	10393
2126.288	10359
2128.337	10425
2130.387	10291
2132.434	10287
2134.481	10298
2136.528	10401
2138.574	10481
2140.618	10360
2142.665	10350
2144.71	10258
2146.753	10392
2148.797	10145
2150.838	10281
2152.883	10176
2154.923	10336
2156.965	10248
2159.007	10314
2161.046	10213
2163.086	10129
2165.126	10273
2167.163	10034
2169.202	10134
2171.239	10216
2173.277	10237
2175.314	10278
2177.349	10262
2179.385	10331
2181.42	10272
2183.453	10287
2185.49	10200
2187.522	10135
2189.555	10271
2191.586	10211
2193.619	10264
2195.651	10171
2197.682	10073
2199.711	10089
2201.74	10180
2203.769	10172
2205.799	10089
2207.828	9962
2209.855	10042
2211.882	10123
2213.908	10074
2215.934	10075
2217.961	10115
2219.986	10024
2222.01	10159
2224.034	10129
2226.057	10160
2228.08	10118
2230.104	9979
2232.124	10112
2234.145	10068
2236.166	9983
2238.186	10185
2240.207	10016
2242.227	10044
2244.244	10093
2246.262	10195
2248.28	9909
2250.299	9964
2252.314	9889
2254.33	10117
2256.346	10197
2258.36	10157
2260.375	10067
2262.391	9945
2264.403	10031
2266.416	9966
2268.427	10244
2270.44	10247
2272.453	10096
2274.463	10169
2276.474	10060
2278.483	10106
2280.493	10130
2282.501	10110
2284.51	10176
2286.518	10203
2288.524	10016
2290.532	10095
2292.537	10067
2294.544	10055
2296.55	10169
2298.554	10066
2300.557	10026
2302.562	10046
2304.566	10119
2306.568	10148
2308.569	10210
2310.572	10053
2312.573	10113
2314.573	10120
2316.574	10061
2318.573	10064
2320.571	10060
2322.571	10045
2324.569	10024
2326.567	10032
2328.564	9970
2330.56	10047
2332.556	9930
2334.551	9946
2336.546	9826
2338.542	9984
2340.535	10020
2342.529	10054
2344.521	9924
2346.512	9996
2348.505	9923
2350.497	10094
2352.487	10080
2354.478	9771
2356.468	9833
2358.457	9812
2360.446	9938
2362.434	9842
2364.422	9824
2366.408	10014
2368.395	9853
2370.383	9802
2372.369	9765
2374.353	9927
2376.338	9927
2378.321	9775
2380.307	9850
2382.29	9871
2384.272	9745
2386.254	9766
2388.235	9857
2390.218	9816
2392.198	9860
2394.179	9785
2396.157	9950
2398.137	9688
2400.115	9725
2402.095	9947
2404.072	9723
2406.048	9701
2408.026	9854
2410.001	9694
2411.977	9837
2413.953	9853
2415.927	9770
2417.9	9832
2419.875	9816
2421.847	9797
2423.821	9743
2425.792	9854
2427.763	9778
2429.736	9879
2431.706	9889
2433.677	9741
2435.646	9755
2437.615	9788
2439.583	9679
2441.551	9772
2443.519	9769
2445.486	9726
2447.452	9650
2449.418	9747
2451.383	9674
2453.348	9843
2455.314	9759
2457.278	9674
2459.241	9740
2461.205	9690
2463.167	9907
2465.131	9780
2467.091	9684
2469.052	9815
2471.012	9728
2472.972	9558
2474.932	9662
2476.891	9618
2478.85	9627
2480.808	9546
2482.766	9717
2484.722	9620
2486.68	9668
2488.636	9641
2490.591	9566
2492.546	9698
2494.5	9651
2496.456	9810
2498.41	9770
2500.362	9698
2502.315	9515
2504.266	9631
2506.218	9779
2508.169	9575
2510.121	9540
2512.07	9527
2514.019	9451
2515.968	9759
2517.918	9599
2519.866	9601
2521.813	9638
2523.76	9578
2525.707	9534
2527.653	9642
2529.599	9531
2531.543	9627
2533.489	9505
2535.433	9443
2537.376	9595
2539.32	9668
2541.264	9567
2543.205	9497
2545.147	9796
2547.087	9488
2549.029	9588
2550.969	9586
2552.908	9662
2554.847	9500
2556.786	9530
2558.724	9601
2560.663	9598
2562.6	9609
2564.537	9698
2566.473	9444
2568.408	9551
2570.345	9704
2572.28	9621
2574.214	9603
2576.148	9608
2578.081	9546
2580.014	9598
2581.947	9624
2583.879	9535
2585.81	9630
2587.741	9641
2589.67	9581
2591.602	9525
2593.532	9469
2595.461	9600
2597.388	9556
2599.316	9439
2601.244	9537
2603.172	9540
2605.098	9773
2607.023	9531
2608.949	9603
2610.873	9590
2612.8	9737
2614.723	9646
2616.647	9602
2618.569	9571
2620.493	9616
2622.416	9578
2624.338	9546
2626.258	9541
2628.179	9654
2630.099	9566
2632.019	9576
2633.939	9739
2635.857	9546
2637.775	9669
2639.694	9663
2641.61	9718
2643.528	9552
2645.444	9647
2647.361	9549
2649.276	9775
2651.19	9727
2653.105	9403
2655.019	9584
2656.934	9538
2658.846	9642
2660.758	9607
2662.67	9624
2664.583	9678
2666.493	9537
2668.404	9498
2670.313	9562
2672.223	9723
2674.134	9575
2676.042	9554
2677.95	9590
2679.858	9590
2681.765	9577
2683.673	9424
2685.579	9485
2687.483	9515
2689.389	9496
2691.294	9616
2693.198	9500
2695.104	9474
2697.006	9539
2698.909	9605
2700.811	9568
2702.713	9463
2704.615	9521
2706.516	9272
2708.417	9382
2710.316	9577
2712.216	9462
2714.115	9417
2716.014	9397
2717.913	9406
2719.81	9605
2721.707	9354
2723.603	9351
2725.501	9397
2727.396	9264
2729.292	9340
2731.186	9371
2733.081	9341
2734.976	9452
2736.87	9383
2738.762	9390
2740.653	9357
2742.546	9355
2744.437	9379
2746.329	9486
2748.22	9520
2750.11	9398
2751.999	9339
2753.889	9349
2755.778	9318
2757.666	9410
2759.553	9421
2761.44	9382
2763.328	9353
2765.215	9315
2767.101	9266
2768.986	9348
2770.87	9275
2772.754	9228
2774.638	9395
2776.523	9326
2778.405	9290
2780.288	9341
2782.17	9365
2784.051	9052
2785.934	9197
2787.814	9361
2789.694	9216
2791.574	9234
2793.453	9185
2795.332	9350
2797.212	9273
2799.088	9271
2800.966	9257
2802.843	9176
2804.719	9268
2806.597	9349
2808.471	9188
2810.346	9272
2812.221	9150
2814.094	9375
2815.969	9181
2817.843	9223
2819.714	9264
2821.587	9279
2823.459	9253
2825.329	9169
2827.202	9280
2829.072	9130
2830.942	9311
2832.811	9152
2834.68	9159
2836.549	9250
2838.418	9258
2840.284	9110
2842.152	9220
2844.018	9201
2845.885	9158
2847.751	9261
2849.616	9338
2851.482	9250
2853.345	9292
2855.208	9301
2857.074	9288
2858.937	9216
2860.799	9352
2862.66	9303
2864.522	9196
2866.385	9275
2868.245	9324
2870.104	9562
2871.964	9446
2873.824	9401
2875.683	9449
2877.542	9600
2879.4	9652
2881.257	9486
2883.114	9673
2884.97	9650
2886.827	9618
2888.683	9538
2890.537	9714
2892.392	9726
2894.246	9483
2896.1	9612
2897.954	9642
2899.807	9691
2901.66	9656
2903.51	9592
2905.362	9655
2907.214	9543
2909.065	9626
2910.915	9576
2912.765	9611
2914.613	9826
2916.463	9716
2918.311	9737
2920.158	9902
2922.006	9811
2923.853	9896
2925.698	9857
2927.546	10091
2929.392	9910
2931.236	10031
2933.081	10062
2934.924	10162
2936.77	10175
2938.613	10095
2940.455	10221
2942.298	10331
2944.139	10370
2945.982	10306
2947.823	10356
2949.662	10142
2951.503	10194
2953.342	10124
2955.182	10113
2957.021	10141
2958.858	10038
2960.697	10039
2962.534	9906
2964.37	9840
2966.207	9775
2968.044	9676
2969.879	9711
2971.714	9719
2973.548	9681
2975.383	9749
2977.218	9529
2979.051	9681
2980.883	9493
2982.715	9597
2984.547	9457
2986.379	9467
2988.21	9392
2990.04	9432
2991.87	9405
2993.7	9242
2995.53	9292
2997.359	9252
2999.187	9320
3001.015	9289
3002.842	9169
3004.669	9265
3006.497	8980
3008.323	9046
3010.148	9041
3011.974	8916
3013.797	9042
3015.623	8900
3017.447	8840
3019.27	8893
3021.094	8926
3022.915	8769
3024.737	8787
3026.56	8895
3028.38	8843
3030.201	8812
3032.022	8823
3033.84	8739
3035.662	8645
3037.481	8800
3039.298	8829
3041.117	8741
3042.933	8828
3044.752	8705
3046.568	8803
3048.385	8668
3050.2	8731
3052.016	8599
3053.83	8705
3055.646	8754
3057.46	8713
3059.272	8795
3061.086	8739
3062.898	8683
3064.711	8842
3066.524	8715
3068.335	8697
3070.145	8620
3071.956	8593
3073.766	8617
3075.576	8578
3077.385	8619
3079.193	8551
3081.002	8516
3082.81	8479
3084.618	8531
3086.425	8574
3088.231	8583
3090.036	8389
3091.842	8532
3093.648	8510
3095.452	8437
3097.257	8550
3099.06	8376
3100.863	8467
3102.666	8532
3104.47	8514
3106.272	8437
3108.073	8558
3109.875	8495
3111.676	8379
3113.477	8367
3115.277	8437
3117.077	8372
3118.874	8329
3120.673	8346
3122.473	8448
3124.271	8265
3126.066	8309
3127.863	8295
3129.66	8393
3131.456	8198
3133.252	8328
3135.047	8341
3136.842	8284
3138.635	8411
3140.429	8353
3142.223	8345
3144.016	8327
3145.808	8248
3147.6	8424
3149.392	8368
3151.183	8236
3152.975	8209
3154.765	8344
3156.553	8336
3158.344	8214
3160.132	8331
3161.922	8249
3163.71	8250
3165.497	8178
3167.285	8286
3169.071	8252
3170.858	8197
3172.645	8225
3174.429	8100
3176.214	8271
3177.998	8203
3179.783	8168
3181.568	8236
3183.351	8187
3185.133	8079
3186.915	8140
3188.698	8146
3190.481	8148
3192.261	8156
3194.042	8214
3195.822	8105
3197.601	7988
3199.381	8109
3201.161	8161
3202.939	8062
3204.717	8118
3206.495	8073
3208.272	8065
3210.05	8161
3211.826	8084
3213.602	8073
3215.376	7957
3217.151	8192
3218.927	8132
3220.702	7987
3222.476	8111
3224.249	8028
3226.021	8110
3227.793	8115
3229.567	8009
3231.339	8033
3233.109	8071
3234.88	8031
3236.651	8071
3238.421	8078
3240.191	8068
3241.96	8009
3243.728	7984
3245.497	7981
3247.263	8070
3249.033	7933
3250.799	8048
3252.566	8068
3254.331	7959
3256.097	8026
3257.863	8017
3259.628	8039
3261.392	8056
3263.156	8043
3264.919	7903
3266.683	8037
3268.447	8104
3270.208	8012
3271.969	7957
3273.731	7981
3275.492	8015
3277.253	8069
3279.013	8011
3280.773	8041
3282.532	8020
3284.291	7985
3286.05	7964
3287.808	8134
3289.566	7993
3291.323	7994
3293.079	8012
3294.835	7957
3296.593	8036
3298.348	7988
3300.102	7922
3301.857	8011
3303.611	8042
3305.366	8102
3307.119	8011
3308.872	8047
3310.624	7975
3312.376	8029
3314.129	8022
3315.881	7987
3317.631	7954
3319.38	7955
3321.13	7798
3322.88	7975
3324.631	7894
3326.379	7844
3328.126	8001
3329.875	7864
3331.622	7874
3333.371	7934
3335.116	7767
3336.863	7911
3338.609	7920
3340.353	7925
3342.1	7812
3343.845	7915
3345.588	7870
3347.332	7767
3349.074	7886
3350.817	7886
3352.56	7884
3354.303	7882
3356.043	7889
3357.785	7825
3359.525	7865
3361.268	7890
3363.007	7891
3364.745	7814
3366.485	7865
3368.223	7750
3369.962	7835
3371.701	7785
3373.438	7691
3375.174	7767
3376.911	7859
3378.647	7789
3380.384	7794
3382.118	7802
3383.854	7771
3385.588	7763
3387.322	7703
3389.057	7775
3390.79	7771
3392.522	7741
3394.255	7760
3395.987	7766
3397.719	7666
3399.451	7728
3401.181	7696
3402.911	7716
3404.641	7700
3406.371	7577
3408.101	7675
3409.83	7792
3411.558	7630
3413.285	7724
3415.011	7651
3416.739	7661
3418.467	7680
3420.193	7715
3421.919	7687
3423.644	7674
3425.368	7691
3427.094	7675
3428.818	7597
3430.542	7707
3432.264	7586
3433.987	7601
3435.712	7481
3437.434	7570
3439.155	7555
3440.876	7555
3442.596	7517
3444.317	7546
3446.039	7534
3447.757	7462
3449.477	7475
3451.195	7359
3452.914	7552
3454.632	7482
3456.35	7524
3458.067	7577
3459.784	7332
3461.5	7530
3463.216	7520
3464.932	7431
3466.647	7493
3468.362	7492
3470.076	7349
3471.789	7529
3473.505	7369
3475.217	7443
3476.929	7413
3478.641	7326
3480.354	7338
3482.066	7397
3483.777	7339
3485.487	7392
3487.197	7387
3488.908	7281
3490.617	7397
3492.327	7284
3494.035	7187
3495.743	7239
3497.451	7263
3499.158	7288
3500.866	7290
3502.572	7327
3504.278	7255
3505.984	7283
3507.689	7256
3509.396	7310
3511.1	7282
3512.804	7188
3514.508	7329
3516.211	7296
3517.913	7204
3519.616	7226
3521.319	7138
3523.021	7167
3524.722	7249
3526.422	7129
3528.124	7243
3529.824	7137
3531.524	7174
3533.222	7167
3534.921	7174
3536.62	7177
3538.318	7125
3540.016	7152
3541.714	7069
3543.41	7073
3545.107	7045
3546.803	7050
3548.5	7052
3550.194	7074
3551.889	7050
3553.583	7169
3555.279	6993
3556.972	7050
3558.666	6995
3560.358	7157
3562.051	7041
3563.742	7048
3565.435	6989
3567.126	7040
3568.817	7056
3570.507	7140
3572.197	6931
3573.888	7015
3575.577	6907
3577.265	7030
3578.954	7008
3580.642	6930
3582.329	6976
3584.017	7004
3585.704	6912
3587.391	7008
3589.077	6968
3590.762	6782
3592.449	6841
3594.133	6892
3595.817	6931
3597.501	7022
3599.185	6885
3600.869	6812
3602.552	6843
3604.234	6748
3605.916	6883
3607.598	6845
3609.279	6838
3610.961	6672
3612.642	6839
3614.321	6825
3616	6885
3617.68	6768
3619.36	6728
3621.039	6833
3622.716	6792
3624.394	6666
3626.071	6665
3627.748	6773
3629.425	6866
3631.102	6623
3632.778	6806
3634.452	6651
3636.127	6659
3637.803	6738
3639.477	6680
3641.151	6697
3642.823	6595
3644.497	6581
3646.171	6699
3647.842	6752
3649.515	6593
3651.185	6659
3652.857	6619
3654.527	6614
3656.198	6536
3657.868	6630
3659.537	6667
3661.207	6558
3662.875	6629
3664.544	6556
3666.212	6663
3667.879	6560
3669.546	6689
3671.212	6567
3672.88	6505
3674.546	6425
3676.211	6649
3677.875	6579
3679.541	6666
3681.205	6525
3682.87	6506
3684.533	6600
3686.196	6601
3687.859	6587
3689.521	6591
3691.184	6495
3692.845	6545
3694.507	6572
3696.167	6544
3697.827	6464
3699.487	6489
3701.148	6477
3702.808	6424
3704.466	6431
3706.125	6467
3707.783	6438
3709.442	6474
3711.099	6443
3712.757	6496
3714.412	6450
3716.068	6415
3717.725	6413
3719.381	6437
3721.036	6395
3722.689	6481
3724.344	6469
3725.998	6444
3727.652	6449
3729.305	6480
3730.958	6408
3732.61	6545
3734.262	6471
3735.915	6334
3737.565	6425
3739.217	6338
3740.866	6486
3742.516	6488
3744.165	6388
3745.816	6512
3747.464	6372
3749.113	6271
3750.761	6360
3752.409	6236
3754.057	6359
3755.703	6327
3757.35	6294
3758.996	6415
3760.641	6462
3762.289	6342
3763.933	6270
3765.577	6353
3767.222	6384
3768.865	6193
3770.508	6218
3772.152	6318
3773.796	6175
3775.438	6365
3777.079	6222
3778.721	6311
3780.363	6153
3782.003	6128
3783.643	6151
3785.283	6208
3786.923	6182
3788.563	6225
3790.203	6241
3791.841	6141
3793.479	6233
3795.115	6247
3796.753	6224
3798.391	6135
3800.027	6137
3801.664	6146
3803.299	6045
3804.935	6198
3806.571	6032
3808.206	6166
3809.839	6045
3811.473	6188
3813.107	6203
3814.74	5990
3816.375	6157
3818.006	6156
3819.638	6107
3821.27	6108
3822.9	6040
3824.532	6191
3826.163	5999
3827.792	5906
3829.423	5969
3831.051	6078
3832.682	6130
3834.311	5999
3835.938	6022
3837.566	5975
3839.193	6034
3840.821	5950
3842.448	6054
3844.075	6060
3845.7	6041
3847.325	5945
3848.951	6062
3850.576	5989
3852.201	5995
3853.825	5960
3855.448	6022
3857.072	6021
3858.694	5907
3860.318	6003
3861.939	5949
3863.562	5904
3865.183	5889
3866.804	5947
3868.426	5884
3870.045	5911
3871.666	5883
3873.285	5863
3874.904	5881
3876.524	5877
3878.142	5950
3879.76	5922
3881.378	5944
3882.995	5973
3884.612	5812
3886.229	5892
3887.845	5835
3889.461	5929
3891.076	5808
3892.691	5817
3894.307	5898
3895.922	5753
3897.536	5831
3899.149	5809
3900.761	5863
3902.374	5854
3903.988	5876
3905.6	5858
3907.212	5842
3908.822	5904
3910.433	5821
3912.045	5840
3913.655	5882
3915.265	5785
3916.875	5819
3918.483	5732
3920.093	5780
3921.702	5841
3923.309	5809
3924.917	5809
3926.523	5913
3928.13	5745
3929.739	5884
3931.344	5771
3932.95	5758
3934.555	5809
3936.159	5786
3937.766	5882
3939.369	5719
3940.974	5674
3942.577	5712
3944.181	5735
3945.783	5699
3947.386	5793
3948.989	5820
3950.59	5804
3952.191	5810
3953.791	5758
3955.394	5570
3956.994	5707
3958.593	5766
3960.192	5708
3961.791	5618
3963.392	5636
3964.99	5606
3966.588	5653
3968.185	5702
3969.782	5572
3971.379	5571
3972.976	5692
3974.572	5634
3976.168	5551
3977.763	5561
3979.358	5601
3980.954	5662
3982.548	5557
3984.142	5512
3985.736	5501
3987.329	5556
3988.922	5607
3990.516	5498
3992.108	5504
3993.698	5578
3995.29	5567
3996.881	5553
3998.473	5434
4000.064	5455
4001.653	5444
4003.242	5477
4004.832	5487
4006.422	5494
4008.01	5520
4009.598	5481
4011.186	5351
4012.773	5492
4014.36	5422
4015.947	5439
4017.534	5444
4019.119	5380
4020.705	5368
4022.291	5510
4023.876	5368
4025.461	5392
4027.044	5349
4028.627	5419
4030.211	5416
4031.795	5396
4033.378	5393
4034.96	5379
4036.542	5360
4038.124	5501
4039.704	5281
4041.286	5401
4042.867	5324
4044.447	5381
4046.026	5335
4047.606	5241
4049.187	5261
4050.765	5308
4052.343	5386
4053.92	5329
4055.498	5351
4057.076	5375
4058.654	5332
4060.23	5307
4061.806	5218
4063.381	5257
4064.957	5394
4066.533	5366
4068.107	5196
4069.682	5258
4071.256	5255
4072.829	5184
4074.404	5324
4075.977	5265
4077.549	5251
4079.121	5236
4080.693	5204
4082.265	5215
4083.836	5224
4085.407	5288
4086.977	5223
4088.547	5169
4090.117	5233
4091.687	5158
4093.256	5255
4094.825	5211
4096.392	5157
4097.96	5319
4099.528	5272
4101.097	5224
4102.663	5211
4104.229	5155
4105.795	5200
4107.361	5165
4108.928	5102
4110.493	5217
4112.058	5151
4113.621	5115
4115.186	5126
4116.75	5264
4118.313	5134
4119.876	5169
4121.438	5178
4123	5059
4124.562	5093
4126.125	5040
4127.686	5083
4129.246	5063
4130.807	4986
4132.367	5065
4133.927	5081
4135.486	5011
4137.046	5000
4138.604	5016
4140.162	5065
4141.72	5029
4143.279	5029
4144.836	4970
4146.393	4997
4147.949	4932
4149.505	4911
4151.062	5005
4152.617	5011
4154.172	4874
4155.727	4883
4157.281	5007
4158.836	4901
4160.39	4972
4161.943	4952
4163.496	4882
4165.048	4961
4166.601	4933
4168.154	4864
4169.706	4917
4171.257	4939
4172.808	4872
4174.358	4849
4175.909	4936
4177.458	4867
4179.008	4849
4180.558	4955
4182.106	4926
4183.655	4910
4185.204	4930
4186.751	4894
4188.298	4837
4189.845	4962
4191.392	4857
4192.939	4869
4194.485	4695
4196.031	4841
4197.576	4760
4199.121	4847
4200.666	4769
4202.211	4869
4203.754	4796
4205.298	4666
4206.84	4845
4208.384	4874
4209.927	4746
4211.47	4807
4213.011	4709
4214.552	4837
4216.094	4840
4217.635	4728
4219.175	4688
4220.716	4844
4222.255	4763
4223.793	4723
4225.335	4814
4226.873	4773
4228.411	4818
4229.948	4706
4231.486	4743
4233.024	4725
4234.562	4704
4236.098	4780
4237.634	4659
4239.169	4740
4240.705	4657
4242.241	4688
4243.776	4642
4245.31	4722
4246.844	4728
4248.378	4601
4249.911	4712
4251.445	4728
4252.978	4737
4254.51	4682
4256.042	4609
4257.574	4678
4259.107	4641
4260.638	4737
4262.169	4732
4263.699	4692
4265.228	4649
4266.759	4672
4268.289	4600
4269.818	4686
4271.345	4661
4272.874	4615
4274.402	4627
4275.931	4618
4277.458	4560
4278.985	4579
4280.512	4602
4282.037	4675
4283.564	4642
4285.089	4577
4286.615	4585
4288.139	4582
4289.664	4566
4291.187	4522
4292.712	4523
4294.235	4615
4295.759	4557
4297.281	4537
4298.804	4554
4300.327	4586
4301.849	4443
4303.37	4532
4304.891	4501
4306.412	4468
4307.933	4611
4309.453	4484
4310.973	4524
4312.492	4408
