398.1873	7157
400.7097	7216
403.2336	7308
405.7547	7144
408.2751	7377
410.7948	7178
413.3138	7221
415.83	7349
418.3497	7523
420.8666	7444
423.3829	7424
425.8985	7517
428.4133	7599
430.9275	7622
433.441	7670
435.9538	7659
438.4639	7543
440.9753	7668
443.4881	7774
445.9982	7684
448.5055	7805
451.0142	7730
453.5201	7706
456.0274	7729
458.5361	7699
461.04	7794
463.5453	7761
466.0478	7776
468.5517	7892
471.0549	7690
473.5574	7958
476.0572	7790
478.5584	7739
481.0568	7818
483.5545	7935
486.0557	7885
488.5521	7887
491.0478	7982
493.5449	7918
496.0392	7989
498.5349	8010
501.0299	7997
503.5222	8111
506.0139	7985
508.5048	7895
510.9991	7968
513.4887	8176
515.9777	8177
518.4659	8208
520.9534	8099
523.4403	8044
525.9306	8036
528.4161	8153
530.9009	8099
533.3851	8137
535.8687	8165
538.3535	7968
540.8356	8022
543.3171	8033
545.7979	8207
548.278	8097
550.7595	8093
553.2383	8098
555.7144	8160
558.1918	8166
560.6685	8368
563.1446	8192
565.6221	8313
568.0968	8264
570.5688	8369
573.0422	8236
575.515	8472
577.989	8453
580.4584	8378
582.9291	8405
585.3991	8463
587.8685	8373
590.3352	8437
592.8052	8418
595.2706	8419
597.7372	8581
600.2033	8327
602.6666	8436
605.1334	8335
607.5953	8363
610.0587	8431
612.5193	8295
614.9814	8397
617.4427	8409
619.9034	8243
622.3615	8340
624.8208	8448
627.2775	8424
629.7335	8295
632.1929	8507
634.6476	8400
637.1016	8419
639.5569	8342
642.0096	8450
644.4637	8405
646.9151	8533
649.3678	8579
651.8179	8526
654.2672	8498
656.7159	8592
659.166	8391
661.6154	8745
664.0622	8548
666.5082	8737
668.9537	8688
671.4005	8657
673.8445	8669
676.288	8674
678.7308	8702
681.1729	8835
683.6163	8777
686.0572	8720
688.4973	8821
690.9368	8726
693.3757	8855
695.8138	8764
698.2534	8796
700.6902	8825
703.1245	8822
705.56	8773
707.9949	8832
710.4311	8883
712.8647	8841
715.2957	8846
717.7279	8918
720.1595	8932
722.5905	8954
725.0208	8955
727.4505	8950
729.8795	8989
732.3058	9146
734.7336	8960
737.1626	9097
739.587	9004
742.0128	9129
744.4359	9272
746.8604	9165
749.2841	9104
751.7073	9307
754.1278	9344
756.5496	9199
758.9688	9379
761.3893	9311
763.8093	9427
766.2285	9159
768.6451	9285
771.0611	9276
773.4784	9367
775.895	9316
778.3091	9261
780.7244	9481
783.1371	9398
785.5493	9386
787.9626	9440
790.3754	9307
792.7856	9363
795.1951	9261
797.6039	9253
800.0121	9306
802.4236	9517
804.8306	9473
807.2369	9458
809.6425	9470
812.0475	9272
814.4538	9332
816.8575	9552
819.2606	9472
821.663	9456
824.0648	9444
826.4659	9349
828.8683	9494
831.2682	9456
833.6674	9441
836.066	9499
838.4639	9576
840.8632	9545
843.2579	9611
845.6539	9607
848.0493	9572
850.444	9563
852.84	9555
855.2315	9576
857.6243	9659
860.0165	9529
862.4081	9587
864.797	9545
867.1892	9691
869.5789	9626
871.9659	9533
874.3542	9701
876.74	9571
879.129	9613
881.5155	9526
883.8994	9660
886.2845	9833
888.6671	9453
891.051	9597
893.4343	9591
895.8169	9544
898.197	9596
900.5783	9689
902.9571	9686
905.3372	9660
907.7167	9600
910.0936	9675
912.4698	9618
914.8474	9716
917.2244	9794
919.5987	9917
921.9744	9855
924.3475	9955
926.72	9915
929.0918	9982
931.4669	9928
933.8375	10053
936.2074	9959
938.5767	10103
940.9454	9969
943.3154	10136
945.6829	10343
948.0497	10390
950.4178	10459
952.7833	10584
955.1483	10741
957.5145	11030
959.8782	11122
962.2412	11024
964.6036	10954
966.9655	10719
969.3266	10514
971.6871	10250
974.0471	10181
976.4064	10072
978.765	9964
981.125	10014
983.4824	9821
985.8373	9833
988.1935	9876
990.549	9934
992.9039	9932
995.2602	9890
997.6119	9993
999.965	10019
1002.317	9841
1004.667	10018
1007.02	9930
1009.371	9935
1011.719	9806
1014.068	10017
1016.415	9979
1018.765	9947
1021.111	10002
1023.458	9964
1025.804	9983
1028.147	10125
1030.49	10124
1032.837	10001
1035.179	9972
1037.522	10026
1039.862	10041
1042.204	10074
1044.546	10198
1046.884	10121
1049.224	10073
1051.562	9908
1053.899	10038
1056.237	10126
1058.575	10047
1060.91	10116
1063.244	10198
1065.58	10127
1067.913	10369
1070.248	10150
1072.579	10096
1074.911	10258
1077.242	10082
1079.572	10233
1081.905	10116
1084.234	10272
1086.562	10126
1088.89	10295
1091.217	10165
1093.544	10189
1095.871	10259
1098.197	10136
1100.521	10372
1102.845	10255
1105.169	10129
1107.491	10096
1109.814	10140
1112.135	10261
1114.456	10301
1116.776	10115
1119.096	10348
1121.415	10138
1123.734	10037
1126.052	10365
1128.369	10167
1130.686	10219
1133.002	10367
1135.318	10390
1137.632	10203
1139.945	10293
1142.258	10277
1144.573	10441
1146.884	10191
1149.196	10384
1151.505	10461
1153.816	10246
1156.124	10264
1158.435	10368
1160.742	10381
1163.051	10315
1165.356	10311
1167.663	10256
1169.97	10306
1172.276	10245
1174.579	10234
1176.881	10258
1179.186	10181
1181.487	10279
1183.79	10295
1186.092	10310
1188.392	10326
1190.691	10196
1192.991	10226
1195.291	10115
1197.588	10334
1199.885	10405
1202.181	10198
1204.479	10340
1206.775	10358
1209.07	10272
1211.363	10379
1213.656	10398
1215.949	10324
1218.241	10257
1220.534	10353
1222.825	10326
1225.115	10419
1227.405	10482
1229.693	10518
1231.984	10396
1234.271	10432
1236.558	10500
1238.845	10706
1241.131	10725
1243.416	10531
1245.703	10575
1247.987	10657
1250.269	10576
1252.552	10712
1254.834	10654
1257.118	10725
1259.399	10646
1261.678	10478
1263.958	10634
1266.237	10595
1268.516	10495
1270.794	10564
1273.072	10405
1275.347	10515
1277.624	10624
1279.899	10733
1282.175	10596
1284.449	10527
1286.722	10571
1288.995	10521
1291.266	10489
1293.54	10460
1295.81	10490
1298.081	10573
1300.35	10397
1302.62	10505
1304.889	10630
1307.156	10487
1309.425	10541
1311.69	10480
1313.957	10519
1316.222	10653
1318.488	10538
1320.751	10506
1323.016	10605
1325.278	10602
1327.54	10603
1329.803	10610
1332.065	10570
1334.325	10597
1336.584	10601
1338.843	10629
1341.101	10493
1343.36	10619
1345.617	10600
1347.876	10556
1350.131	10588
1352.387	10573
1354.643	10461
1356.897	10686
1359.151	10541
1361.403	10494
1363.656	10570
1365.909	10681
1368.16	10609
1370.409	10630
1372.659	10721
1374.909	10712
1377.157	10653
1379.407	10456
1381.655	10661
1383.9	10689
1386.147	10679
1388.393	10696
1390.64	10783
1392.885	10620
1395.127	10846
1397.37	10663
1399.614	10798
1401.854	10838
1404.098	10803
1406.339	10830
1408.578	10898
1410.818	10755
1413.056	10824
1415.297	10716
1417.533	10854
1419.771	10909
1422.006	10870
1424.243	10855
1426.479	10835
1428.715	10724
1430.948	10967
1433.182	10984
1435.414	10909
1437.647	10912
1439.88	10996
1442.11	10961
1444.342	10883
1446.571	10852
1448.799	10930
1451.029	10947
1453.258	10956
1455.485	11097
1457.711	10884
1459.937	11039
1462.164	11061
1464.39	10783
1466.614	10847
1468.838	10803
1471.06	10842
1473.283	10699
1475.506	10855
1477.727	10740
1479.949	10703
1482.169	10805
1484.389	10790
1486.609	10887
1488.828	10748
1491.045	10693
1493.261	10747
1495.477	10586
1497.693	10666
1499.91	10713
1502.125	10742
1504.339	10709
1506.553	10774
1508.766	10701
1510.979	10641
1513.191	10540
1515.402	10641
1517.613	10694
1519.823	10559
1522.033	10731
1524.242	10664
1526.451	10796
1528.657	10753
1530.865	10902
1533.072	10728
1535.278	10671
1537.484	10842
1539.687	10904
1541.892	10759
1544.096	10754
1546.299	10698
1548.502	10684
1550.703	10836
1552.905	10745
1555.104	10856
1557.303	11039
1559.505	10727
1561.703	11043
1563.902	10823
1566.099	10916
1568.295	11053
1570.494	11072
1572.689	10993
1574.883	10954
1577.079	10952
1579.272	11058
1581.467	11141
1583.659	11008
1585.853	11066
1588.044	11198
1590.234	11090
1592.424	10938
1594.615	11176
1596.806	11043
1598.994	11122
1601.182	11086
1603.369	11262
1605.557	11043
1607.744	11125
1609.929	11073
1612.114	11258
1614.298	11083
1616.482	11066
1618.667	10903
1620.85	11044
1623.032	11076
1625.214	10950
1627.395	11073
1629.575	11198
1631.755	11096
1633.935	11063
1636.114	11108
1638.292	11068
1640.471	11203
1642.647	11073
1644.823	11112
1647	11106
1649.175	11092
1651.348	10932
1653.525	11206
1655.698	11245
1657.87	11047
1660.043	10976
1662.213	11248
1664.387	11070
1666.558	11248
1668.727	11138
1670.896	11107
1673.064	11216
1675.233	11261
1677.401	11295
1679.569	11022
1681.735	11101
1683.902	10993
1686.066	11017
1688.233	11236
1690.397	11105
1692.559	11130
1694.723	11158
1696.885	11155
1699.048	11157
1701.21	11093
1703.37	11060
1705.53	11144
1707.689	11032
1709.849	11079
1712.009	11052
1714.166	10940
1716.323	10911
1718.479	11035
1720.634	11022
1722.793	11109
1724.948	11012
1727.102	11063
1729.255	11168
1731.408	11017
1733.562	11136
1735.714	11088
1737.865	11122
1740.016	11161
1742.166	11117
1744.316	11027
1746.467	11108
1748.616	11130
1750.764	11128
1752.911	11057
1755.056	11245
1757.205	11000
1759.35	11161
1761.496	11051
1763.641	11080
1765.785	11030
1767.927	11051
1770.072	11235
1772.214	11111
1774.355	11188
1776.496	11057
1778.637	11297
1780.778	11137
1782.918	11152
1785.057	11224
1787.194	11047
1789.333	11075
1791.472	11138
1793.608	11150
1795.745	11273
1797.879	11195
1800.015	11205
1802.148	11354
1804.284	11288
1806.417	11276
1808.548	11237
1810.682	11079
1812.812	11351
1814.946	11151
1817.075	11303
1819.205	11248
1821.335	11263
1823.463	11365
1825.59	11249
1827.721	11020
1829.847	11107
1831.973	11085
1834.098	11180
1836.223	11112
1838.351	11142
1840.475	11094
1842.598	11121
1844.721	11194
1846.843	11198
1848.966	11084
1851.087	11068
1853.21	11093
1855.33	11025
1857.449	11109
1859.568	11124
1861.688	11129
1863.806	11026
1865.924	11148
1868.039	11108
1870.155	11100
1872.273	11217
1874.388	10998
1876.503	11044
1878.617	11092
1880.73	11059
1882.844	11105
1884.956	11085
1887.068	11039
1889.18	10924
1891.291	11227
1893.4	11156
1895.511	11127
1897.621	11169
1899.73	11271
1901.837	11218
1903.944	11121
1906.053	11084
1908.159	11218
1910.265	11328
1912.369	11294
1914.474	11362
1916.577	11283
1918.683	11318
1920.785	11410
1922.888	11252
1924.989	11331
1927.091	11375
1929.193	11400
1931.294	11275
1933.393	11242
1935.493	11274
1937.59	11398
1939.689	11355
1941.788	11404
1943.884	11246
1945.98	11266
1948.077	11465
1950.171	11137
1952.267	11212
1954.361	11345
1956.455	11306
1958.548	11286
1960.64	11438
1962.733	11337
1964.824	11319
1966.915	11255
1969.005	11180
1971.096	11341
1973.185	11342
1975.275	11263
1977.363	11366
1979.45	11018
1981.537	11338
1983.623	11249
1985.711	11303
1987.796	11346
1989.881	11240
1991.965	11168
1994.047	11242
1996.132	11065
1998.215	11220
2000.297	11183
2002.378	11266
2004.46	11171
2006.54	11129
2008.62	11127
2010.7	11072
2012.779	11194
2014.858	11267
2016.934	11290
2019.013	11004
2021.09	11244
2023.165	11310
2025.241	11178
2027.317	11057
2029.39	11116
2031.466	11463
2033.538	11003
2035.612	11219
2037.683	11283
2039.755	11204
2041.827	11344
2043.898	11147
2045.968	11227
2048.038	11360
2050.106	11171
2052.177	11197
2054.244	11231
2056.313	11108
2058.379	11151
2060.444	11230
2062.511	11024
2064.577	11154
2066.641	11283
2068.705	11215
2070.77	11227
2072.832	11226
2074.896	11341
2076.958	11343
2079.02	11218
2081.081	11098
2083.141	11348
2085.2	11263
2087.261	11323
2089.319	11175
2091.377	11141
2093.435	11204
2095.492	11213
2097.552	11222
2099.607	11272
2101.663	11447
2103.718	11196
2105.771	11083
2107.826	11339
2109.879	10960
2111.932	11216
2113.985	11132
2116.037	11168
2118.088	11157
2120.141	11302
2122.191	11232
2124.239	11290
2126.288	11208
2128.337	11295
2130.387	11362
2132.434	11301
2134.481	11161
2136.528	11259
2138.574	11180
2140.618	11077
2142.665	11224
2144.71	11219
2146.753	11090
2148.797	11134
2150.838	11323
2152.883	11274
2154.923	11051
2156.965	11199
2159.007	11060
2161.046	11235
2163.086	11129
2165.126	11264
2167.163	11165
2169.202	11000
2171.239	11011
2173.277	11224
2175.314	11148
2177.349	11162
2179.385	11053
2181.42	10969
2183.453	10999
2185.49	10947
2187.522	11081
2189.555	10996
2191.586	11003
2193.619	11138
2195.651	10874
2197.682	11232
2199.711	11010
2201.74	10885
2203.769	10943
2205.799	10888
2207.828	11059
2209.855	11099
2211.882	11171
2213.908	10984
2215.934	10850
2217.961	11053
2219.986	11029
2222.01	10812
2224.034	10942
2226.057	10879
2228.08	10850
2230.104	10866
2232.124	11031
2234.145	10864
2236.166	10781
2238.186	10904
2240.207	10978
2242.227	10994
2244.244	10956
2246.262	10938
2248.28	10871
2250.299	10864
2252.314	10913
2254.33	10897
2256.346	10895
2258.36	10851
2260.375	10940
2262.391	10856
2264.403	10948
2266.416	10901
2268.427	11090
2270.44	10848
2272.453	10925
2274.463	11039
2276.474	10855
2278.483	10834
2280.493	10868
2282.501	11071
2284.51	11045
2286.518	11086
2288.524	10909
2290.532	10981
2292.537	10968
2294.544	11026
2296.55	11110
2298.554	10949
2300.557	10914
2302.562	10893
2304.566	10753
2306.568	10837
2308.569	11012
2310.572	10969
2312.573	10670
2314.573	10841
2316.574	10914
2318.573	10973
2320.571	10878
2322.571	10860
2324.569	10815
2326.567	10813
2328.564	10875
2330.56	10886
2332.556	10834
2334.551	10737
2336.546	10785
2338.542	10745
2340.535	10643
2342.529	10747
2344.521	10778
2346.512	10734
2348.505	10837
2350.497	10807
2352.487	10731
2354.478	10640
2356.468	10590
2358.457	10633
2360.446	10757
2362.434	10769
2364.422	10554
2366.408	10657
2368.395	10542
2370.383	10728
2372.369	10519
2374.353	10808
2376.338	10517
2378.321	10654
2380.307	10673
2382.29	10598
2384.272	10702
2386.254	10686
2388.235	10688
2390.218	10798
2392.198	10579
2394.179	10626
2396.157	10633
2398.137	10575
2400.115	10598
2402.095	10697
2404.072	10637
2406.048	10634
2408.026	10343
2410.001	10571
2411.977	10774
2413.953	10744
2415.927	10510
2417.9	10569
2419.875	10505
2421.847	10578
2423.821	10371
2425.792	10549
2427.763	10672
2429.736	10482
2431.706	10560
2433.677	10500
2435.646	10617
2437.615	10533
2439.583	10419
2441.551	10462
2443.519	10526
2445.486	10445
2447.452	10682
2449.418	10497
2451.383	10341
2453.348	10626
2455.314	10516
2457.278	10385
2459.241	10427
2461.205	10380
2463.167	10669
2465.131	10563
2467.091	10532
2469.052	10313
2471.012	10431
2472.972	10421
2474.932	10494
2476.891	10469
2478.85	10494
2480.808	10298
2482.766	10614
2484.722	10379
2486.68	10515
2488.636	10505
2490.591	10358
2492.546	10516
2494.5	10481
2496.456	10486
2498.41	10397
2500.362	10434
2502.315	10326
2504.266	10257
2506.218	10423
2508.169	10338
2510.121	10269
2512.07	10405
2514.019	10291
2515.968	10529
2517.918	10484
2519.866	10385
2521.813	10290
2523.76	10335
2525.707	10326
2527.653	10345
2529.599	10399
2531.543	10273
2533.489	10450
2535.433	10334
2537.376	10232
2539.32	10526
2541.264	10299
2543.205	10324
2545.147	10304
2547.087	10151
2549.029	10341
2550.969	10223
2552.908	10393
2554.847	10251
2556.786	10341
2558.724	10273
2560.663	10233
2562.6	10443
2564.537	10392
2566.473	10288
2568.408	10417
2570.345	10233
2572.28	10389
2574.214	10167
2576.148	10265
2578.081	10311
2580.014	10252
2581.947	10275
2583.879	10339
2585.81	10284
2587.741	10345
2589.67	10203
2591.602	10229
2593.532	10325
2595.461	10435
2597.388	10401
2599.316	10392
2601.244	10326
2603.172	10313
2605.098	10466
2607.023	10373
2608.949	10376
2610.873	10388
2612.8	10325
2614.723	10352
2616.647	10364
2618.569	10455
2620.493	10297
2622.416	10421
2624.338	10444
2626.258	10343
2628.179	10254
2630.099	10267
2632.019	10514
2633.939	10356
2635.857	10355
2637.775	10443
2639.694	10422
2641.61	10351
2643.528	10368
2645.444	10396
2647.361	10390
2649.276	10370
2651.19	10461
2653.105	10343
2655.019	10298
2656.934	10360
2658.846	10431
2660.758	10356
2662.67	10299
2664.583	10434
2666.493	10308
2668.404	10263
2670.313	10217
2672.223	10140
2674.134	10254
2676.042	10295
2677.95	10253
2679.858	10358
2681.765	10173
2683.673	10097
2685.579	10258
2687.483	10401
2689.389	10130
2691.294	10275
2693.198	10165
2695.104	10073
2697.006	10200
2698.909	10221
2700.811	10257
2702.713	10186
2704.615	10010
2706.516	10158
2708.417	10169
2710.316	10154
2712.216	9974
2714.115	10169
2716.014	10182
2717.913	10063
2719.81	10273
2721.707	10097
2723.603	10147
2725.501	10013
2727.396	10151
2729.292	10048
2731.186	10184
2733.081	10105
2734.976	10100
2736.87	10108
2738.762	10056
2740.653	10075
2742.546	10101
2744.437	10177
2746.329	9954
2748.22	10048
2750.11	9920
2751.999	10156
2753.889	10044
2755.778	10171
2757.666	10075
2759.553	10047
2761.44	9947
2763.328	10056
2765.215	9972
2767.101	10081
2768.986	10078
2770.87	10084
2772.754	10097
2774.638	9996
2776.523	10023
2778.405	10023
2780.288	10190
2782.17	10028
2784.051	10037
2785.934	10054
2787.814	10091
2789.694	9983
2791.574	10032
2793.453	10000
2795.332	10000
2797.212	9935
2799.088	9961
2800.966	10161
2802.843	9861
2804.719	10025
2806.597	10031
2808.471	9873
2810.346	9952
2812.221	10006
2814.094	9918
2815.969	9786
2817.843	9864
2819.714	9858
2821.587	9903
2823.459	10032
2825.329	9880
2827.202	9983
2829.072	9831
2830.942	9809
2832.811	9954
2834.68	10015
2836.549	9773
2838.418	9888
2840.284	9894
2842.152	9935
2844.018	9972
2845.885	9940
2847.751	9928
2849.616	10115
2851.482	9895
2853.345	10023
2855.208	9964
2857.074	9970
2858.937	10022
2860.799	10065
2862.66	10129
2864.522	10034
2866.385	9951
2868.245	10058
2870.104	10157
2871.964	10131
2873.824	10036
2875.683	10177
2877.542	10192
2879.4	10200
2881.257	10118
2883.114	10427
2884.97	10318
2886.827	10297
2888.683	10278
2890.537	10287
2892.392	10105
2894.246	10237
2896.1	10217
2897.954	10159
2899.807	10309
2901.66	10055
2903.51	10308
2905.362	10328
2907.214	10214
2909.065	10190
2910.915	10350
2912.765	10273
2914.613	10271
2916.463	10414
2918.311	10358
2920.158	10427
2922.006	10380
2923.853	10607
2925.698	10465
2927.546	10406
2929.392	10643
2931.236	10545
2933.081	10637
2934.924	10550
2936.77	10612
2938.613	10516
2940.455	10931
2942.298	10716
2944.139	10749
2945.982	10935
2947.823	10854
2949.662	10726
2951.503	10762
2953.342	10491
2955.182	10498
2957.021	10716
2958.858	10646
2960.697	10524
2962.534	10422
2964.37	10362
2966.207	10449
2968.044	10421
2969.879	10283
2971.714	10267
2973.548	10101
2975.383	10288
2977.218	10099
2979.051	10212
2980.883	10056
2982.715	10028
2984.547	10030
2986.379	9925
2988.21	9992
2990.04	9959
2991.87	9940
2993.7	9805
2995.53	9773
2997.359	9767
2999.187	9794
3001.015	9833
3002.842	9751
3004.669	9719
3006.497	9607
3008.323	9657
3010.148	9629
3011.974	9571
3013.797	9576
3015.623	9628
3017.447	9667
3019.27	9539
3021.094	9423
3022.915	9466
3024.737	9459
3026.56	9454
3028.38	9518
3030.201	9460
3032.022	9486
3033.84	9320
3035.662	9380
3037.481	9303
3039.298	9302
3041.117	9373
3042.933	9449
3044.752	9464
3046.568	9453
3048.385	9521
3050.2	9325
3052.016	9337
3053.83	9318
3055.646	9429
3057.46	9277
3059.272	9373
3061.086	9235
3062.898	9390
3064.711	9367
3066.524	9447
3068.335	9189
3070.145	9230
3071.956	9188
3073.766	9411
3075.576	9317
3077.385	9164
3079.193	9235
3081.002	9137
3082.81	9186
3084.618	9173
3086.425	9225
3088.231	9105
3090.036	9089
3091.842	9279
3093.648	9096
3095.452	9125
3097.257	9069
3099.06	9077
3100.863	9067
3102.666	9219
3104.47	9164
3106.272	9212
3108.073	8985
3109.875	9105
3111.676	9203
3113.477	8928
3115.277	8970
3117.077	8937
3118.874	8957
3120.673	8952
3122.473	8909
3124.271	9040
3126.066	8867
3127.863	8955
3129.66	9099
3131.456	8916
3133.252	9016
3135.047	8876
3136.842	8905
3138.635	8830
3140.429	8992
3142.223	8990
3144.016	8985
3145.808	8865
3147.6	9014
3149.392	8874
3151.183	8896
3152.975	8888
3154.765	8831
3156.553	8745
3158.344	8899
3160.132	8808
3161.922	8910
3163.71	8850
3165.497	8844
3167.285	8862
3169.071	8715
3170.858	8793
3172.645	8797
3174.429	8708
3176.214	8775
3177.998	8741
3179.783	8742
3181.568	8687
3183.351	8781
3185.133	8719
3186.915	8755
3188.698	8820
3190.481	8604
3192.261	8677
3194.042	8764
3195.822	8679
3197.601	8801
3199.381	8782
3201.161	8679
3202.939	8521
3204.717	8735
3206.495	8605
3208.272	8684
3210.05	8622
3211.826	8734
3213.602	8612
3215.376	8724
3217.151	8683
3218.927	8717
3220.702	8569
3222.476	8718
3224.249	8750
3226.021	8703
3227.793	8630
3229.567	8709
3231.339	8554
3233.109	8579
3234.88	8695
3236.651	8587
3238.421	8621
3240.191	8615
3241.96	8646
3243.728	8530
3245.497	8573
3247.263	8571
3249.033	8591
3250.799	8513
3252.566	8494
3254.331	8495
3256.097	8545
3257.863	8590
3259.628	8612
3261.392	8504
3263.156	8575
3264.919	8499
3266.683	8615
3268.447	8568
3270.208	8548
3271.969	8544
3273.731	8591
3275.492	8539
3277.253	8673
3279.013	8588
3280.773	8600
3282.532	8541
3284.291	8514
3286.05	8577
3287.808	8518
3289.566	8543
3291.323	8555
3293.079	8694
3294.835	8448
3296.593	8534
3298.348	8418
3300.102	8510
3301.857	8418
3303.611	8410
3305.366	8460
3307.119	8449
3308.872	8501
3310.624	8520
3312.376	8497
3314.129	8536
3315.881	8680
3317.631	8468
3319.38	8533
3321.13	8305
3322.88	8475
3324.631	8606
3326.379	8449
3328.126	8463
3329.875	8379
3331.622	8453
3333.371	8396
3335.116	8348
3336.863	8394
3338.609	8407
3340.353	8274
3342.1	8398
3343.845	8370
3345.588	8241
3347.332	8393
3349.074	8485
3350.817	8341
3352.56	8321
3354.303	8452
3356.043	8337
3357.785	8310
3359.525	8422
3361.268	8403
3363.007	8308
3364.745	8295
3366.485	8223
3368.223	8227
3369.962	8364
3371.701	8300
3373.438	8244
3375.174	8178
3376.911	8287
3378.647	8314
3380.384	8218
3382.118	8105
3383.854	8247
3385.588	8194
3387.322	8229
3389.057	8173
3390.79	8196
3392.522	8188
3394.255	8239
3395.987	8203
3397.719	8135
3399.451	8130
3401.181	8259
3402.911	8118
3404.641	8219
3406.371	8176
3408.101	8066
3409.83	8203
3411.558	8129
3413.285	8195
3415.011	8157
3416.739	8215
3418.467	8160
3420.193	8048
3421.919	8077
3423.644	8132
3425.368	8116
3427.094	8071
3428.818	8090
3430.542	8018
3432.264	8086
3433.987	8127
3435.712	8051
3437.434	8008
3439.155	8079
3440.876	8099
3442.596	8019
3444.317	7979
3446.039	7996
3447.757	7926
3449.477	7914
3451.195	8015
3452.914	7999
3454.632	8054
3456.35	7957
3458.067	7985
3459.784	7873
3461.5	7809
3463.216	7902
3464.932	7980
3466.647	8042
3468.362	7932
3470.076	7856
3471.789	7734
3473.505	7901
3475.217	7794
3476.929	7853
3478.641	7707
3480.354	7802
3482.066	7892
3483.777	7807
3485.487	7816
3487.197	7761
3488.908	7742
3490.617	7734
3492.327	7776
3494.035	7762
3495.743	7815
3497.451	7863
3499.158	7862
3500.866	7728
3502.572	7577
3504.278	7724
3505.984	7751
3507.689	7640
3509.396	7851
3511.1	7638
3512.804	7667
3514.508	7658
3516.211	7599
3517.913	7550
3519.616	7606
3521.319	7533
3523.021	7649
3524.722	7621
3526.422	7505
3528.124	7631
3529.824	7584
3531.524	7723
3533.222	7597
3534.921	7627
3536.62	7560
3538.318	7567
3540.016	7671
3541.714	7575
3543.41	7708
3545.107	7548
3546.803	7649
3548.5	7597
3550.194	7497
3551.889	7521
3553.583	7475
3555.279	7564
3556.972	7498
3558.666	7436
3560.358	7557
3562.051	7645
3563.742	7458
3565.435	7478
3567.126	7384
3568.817	7479
3570.507	7409
3572.197	7522
3573.888	7465
3575.577	7461
3577.265	7505
3578.954	7433
3580.642	7500
3582.329	7429
3584.017	7465
3585.704	7362
3587.391	7339
3589.077	7341
3590.762	7358
3592.449	7461
3594.133	7401
3595.817	7353
3597.501	7370
3599.185	7225
3600.869	7426
3602.552	7275
3604.234	7368
3605.916	7258
3607.598	7213
3609.279	7276
3610.961	7301
3612.642	7299
3614.321	7302
3616	7217
3617.68	7232
3619.36	7202
3621.039	7163
3622.716	7318
3624.394	7175
3626.071	7198
3627.748	7250
3629.425	7209
3631.102	7093
3632.778	7119
3634.452	7162
3636.127	7071
3637.803	7091
3639.477	7025
3641.151	7039
3642.823	7104
3644.497	7130
3646.171	7117
3647.842	7068
3649.515	7134
3651.185	7094
3652.857	7127
3654.527	7042
3656.198	6974
3657.868	7084
3659.537	7029
3661.207	6894
3662.875	7010
3664.544	7035
3666.212	7039
3667.879	6967
3669.546	7055
3671.212	7064
3672.88	7029
3674.546	7051
3676.211	6987
3677.875	7030
3679.541	7010
3681.205	7041
3682.87	6976
3684.533	6860
3686.196	7085
3687.859	6907
3689.521	6911
3691.184	6919
3692.845	6905
3694.507	6932
3696.167	7001
3697.827	7031
3699.487	6849
3701.148	6983
3702.808	6903
3704.466	6950
3706.125	6831
3707.783	6845
3709.442	6728
3711.099	6848
3712.757	6951
3714.412	6975
3716.068	6890
3717.725	6833
3719.381	6890
3721.036	6889
3722.689	6721
3724.344	6870
3725.998	6878
3727.652	6762
3729.305	6896
3730.958	6869
3732.61	6837
3734.262	6765
3735.915	6825
3737.565	6771
3739.217	6843
3740.866	6848
3742.516	6846
3744.165	6870
3745.816	6735
3747.464	6808
3749.113	6725
3750.761	6781
3752.409	6616
3754.057	6682
3755.703	6661
3757.35	6808
3758.996	6739
3760.641	6710
3762.289	6758
3763.933	6714
3765.577	6709
3767.222	6767
3768.865	6678
3770.508	6722
3772.152	6776
3773.796	6607
3775.438	6680
3777.079	6632
3778.721	6679
3780.363	6738
3782.003	6621
3783.643	6744
3785.283	6511
3786.923	6666
3788.563	6593
3790.203	6591
3791.841	6586
3793.479	6545
3795.115	6612
3796.753	6509
3798.391	6643
3800.027	6570
3801.664	6515
3803.299	6565
3804.935	6569
3806.571	6518
3808.206	6482
3809.839	6471
3811.473	6494
3813.107	6477
3814.74	6585
3816.375	6552
3818.006	6548
3819.638	6499
3821.27	6465
3822.9	6416
3824.532	6533
3826.163	6392
3827.792	6461
3829.423	6456
3831.051	6548
3832.682	6432
3834.311	6351
3835.938	6383
3837.566	6476
3839.193	6421
3840.821	6358
3842.448	6428
3844.075	6338
3845.7	6411
3847.325	6417
3848.951	6444
3850.576	6362
3852.201	6296
3853.825	6315
3855.448	6368
3857.072	6267
3858.694	6307
3860.318	6350
3861.939	6368
3863.562	6317
3865.183	6343
3866.804	6339
3868.426	6302
3870.045	6347
3871.666	6252
3873.285	6383
3874.904	6234
3876.524	6269
3878.142	6270
3879.76	6305
3881.378	6300
3882.995	6364
3884.612	6138
3886.229	6346
3887.845	6210
3889.461	6323
3891.076	6222
3892.691	6196
3894.307	6318
3895.922	6264
3897.536	6241
3899.149	6400
3900.761	6202
3902.374	6225
3903.988	6265
3905.6	6203
3907.212	6100
3908.822	6137
3910.433	6331
3912.045	6109
3913.655	6291
3915.265	6075
3916.875	6191
3918.483	6290
3920.093	6229
3921.702	6086
3923.309	6179
3924.917	6172
3926.523	6124
3928.13	6129
3929.739	6186
3931.344	6154
3932.95	6064
3934.555	6067
3936.159	6252
3937.766	6121
3939.369	6144
3940.974	6188
3942.577	6161
3944.181	6128
3945.783	6086
3947.386	5960
3948.989	6126
3950.59	6155
3952.191	6087
3953.791	6149
3955.394	6119
3956.994	6043
3958.593	6004
3960.192	6029
3961.791	6100
3963.392	6073
3964.99	6229
3966.588	5902
3968.185	6062
3969.782	5983
3971.379	6044
3972.976	5950
3974.572	5984
3976.168	5962
3977.763	6011
3979.358	5954
3980.954	5910
3982.548	5930
3984.142	5944
3985.736	5961
3987.329	5964
3988.922	5915
3990.516	5949
3992.108	5891
3993.698	5866
3995.29	5784
3996.881	5793
3998.473	5902
4000.064	5812
4001.653	5726
4003.242	5793
4004.832	5803
4006.422	5964
4008.01	5861
4009.598	5898
4011.186	5778
4012.773	5838
4014.36	5719
4015.947	5723
4017.534	5750
4019.119	5741
4020.705	5800
4022.291	5769
4023.876	5724
4025.461	5777
4027.044	5607
4028.627	5622
4030.211	5679
4031.795	5721
4033.378	5780
4034.96	5697
4036.542	5636
4038.124	5784
4039.704	5625
4041.286	5702
4042.867	5682
4044.447	5670
4046.026	5674
4047.606	5696
4049.187	5664
4050.765	5619
4052.343	5699
4053.92	5637
4055.498	5597
4057.076	5569
4058.654	5716
4060.23	5488
4061.806	5636
4063.381	5448
4064.957	5609
4066.533	5647
4068.107	5642
4069.682	5573
4071.256	5603
4072.829	5573
4074.404	5572
4075.977	5500
4077.549	5451
4079.121	5555
4080.693	5509
4082.265	5519
4083.836	5503
4085.407	5595
4086.977	5567
4088.547	5535
4090.117	5462
4091.687	5448
4093.256	5440
4094.825	5530
4096.392	5472
4097.96	5472
4099.528	5466
4101.097	5544
4102.663	5370
4104.229	5406
4105.795	5494
4107.361	5490
4108.928	5394
4110.493	5516
4112.058	5517
4113.621	5511
4115.186	5480
4116.75	5451
4118.313	5583
4119.876	5382
4121.438	5434
4123	5404
4124.562	5477
4126.125	5309
4127.686	5331
4129.246	5375
4130.807	5403
4132.367	5418
4133.927	5430
4135.486	5349
4137.046	5419
4138.604	5288
4140.162	5321
4141.72	5233
4143.279	5286
4144.836	5363
4146.393	5438
4147.949	5212
4149.505	5295
4151.062	5217
4152.617	5245
4154.172	5266
4155.727	5239
4157.281	5296
4158.836	5175
4160.39	5204
4161.943	5194
4163.496	5182
4165.048	5219
4166.601	5210
4168.154	5261
4169.706	5123
4171.257	5203
4172.808	5243
4174.358	5159
4175.909	5329
4177.458	5135
4179.008	5178
4180.558	5147
4182.106	5146
4183.655	5152
4185.204	5212
4186.751	5083
4188.298	5077
4189.845	5127
4191.392	5178
4192.939	5106
4194.485	5090
4196.031	5168
4197.576	5178
4199.121	5071
4200.666	5043
4202.211	5180
4203.754	5101
4205.298	5086
4206.84	5078
4208.384	4995
4209.927	5059
4211.47	5103
4213.011	5047
4214.552	5099
4216.094	5072
4217.635	5054
4219.175	5003
4220.716	5072
4222.255	5011
4223.793	5058
4225.335	4979
4226.873	5012
4228.411	5062
4229.948	5000
4231.486	5079
4233.024	5004
4234.562	4994
4236.098	5022
4237.634	5068
4239.169	4929
4240.705	4945
4242.241	4978
4243.776	4956
4245.31	4981
4246.844	5045
4248.378	4871
4249.911	4911
4251.445	4934
4252.978	4819
4254.51	4920
4256.042	4935
4257.574	4866
4259.107	4896
4260.638	4905
4262.169	4934
4263.699	4891
4265.228	4898
4266.759	4808
4268.289	4907
4269.818	4978
4271.345	4880
4272.874	4927
4274.402	4896
4275.931	4877
4277.458	4934
4278.985	4795
4280.512	4807
4282.037	4840
4283.564	4822
4285.089	4802
4286.615	4933
4288.139	4875
4289.664	4844
4291.187	4788
4292.712	4921
4294.235	4821
4295.759	4745
4297.281	4802
4298.804	4775
4300.327	4794
4301.849	4806
4303.37	4814
4304.891	4870
4306.412	4836
4307.933	4859
4309.453	4764
4310.973	4755
4312.492	4748
