398.1873	2770
400.7097	2809
403.2336	2928
405.7547	2777
408.2751	2838
410.7948	2847
413.3138	2866
415.83	2889
418.3497	2882
420.8666	2986
423.3829	2958
425.8985	3034
428.4133	2976
430.9275	2942
433.441	2935
435.9538	3057
438.4639	2946
440.9753	3006
443.4881	3039
445.9982	3048
448.5055	3044
451.0142	2962
453.5201	2950
456.0274	3006
458.5361	3014
461.04	3050
463.5453	3023
466.0478	3075
468.5517	2998
471.0549	3053
473.5574	3020
476.0572	3010
478.5584	2987
481.0568	3099
483.5545	3037
486.0557	3014
488.5521	3057
491.0478	3137
493.5449	3003
496.0392	3062
498.5349	3039
501.0299	3084
503.5222	3079
506.0139	3057
508.5048	3135
510.9991	3126
513.4887	3062
515.9777	3058
518.4659	3156
520.9534	3113
523.4403	3130
525.9306	3111
528.4161	3037
530.9009	3123
533.3851	3139
535.8687	3195
538.3535	3120
540.8356	3155
543.3171	3136
545.7979	3145
548.278	3138
550.7595	3106
553.2383	3156
555.7144	3101
558.1918	3150
560.6685	3108
563.1446	3218
565.6221	3162
568.0968	3191
570.5688	3168
573.0422	3175
575.515	3207
577.989	3232
580.4584	3233
582.9291	3223
585.3991	3156
587.8685	3243
590.3352	3197
592.8052	3257
595.2706	3154
597.7372	3193
600.2033	3227
602.6666	3183
605.1334	3209
607.5953	3145
610.0587	3225
612.5193	3235
614.9814	3250
617.4427	3211
619.9034	3197
622.3615	3243
624.8208	3201
627.2775	3247
629.7335	3224
632.1929	3090
634.6476	3239
637.1016	3238
639.5569	3175
642.0096	3209
644.4637	3246
646.9151	3253
649.3678	3296
651.8179	3185
654.2672	3239
656.7159	3260
659.166	3258
661.6154	3264
664.0622	3345
666.5082	3210
668.9537	3271
671.4005	3299
673.8445	3308
676.288	3332
678.7308	3230
681.1729	3263
683.6163	3364
686.0572	3305
688.4973	3355
690.9368	3302
693.3757	3305
695.8138	3340
698.2534	3385
700.6902	3330
703.1245	3330
705.56	3385
707.9949	3307
710.4311	3399
712.8647	3314
715.2957	3335
717.7279	3390
720.1595	3404
722.5905	3420
725.0208	3431
727.4505	3398
729.8795	3449
732.3058	3432
734.7336	3403
737.1626	3474
739.587	3493
742.0128	3467
744.4359	3520
746.8604	3519
749.2841	3554
751.7073	3438
754.1278	3458
756.5496	3483
758.9688	3561
761.3893	3512
763.8093	3580
766.2285	3592
768.6451	3555
771.0611	3546
773.4784	3546
775.895	3636
778.3091	3502
780.7244	3472
783.1371	3505
785.5493	3589
787.9626	3549
790.3754	3562
792.7856	3566
795.1951	3589
797.6039	3555
800.0121	3522
802.4236	3565
804.8306	3579
807.2369	3507
809.6425	3630
812.0475	3605
814.4538	3621
816.8575	3575
819.2606	3539
821.663	3567
824.0648	3588
826.4659	3608
828.8683	3598
831.2682	3636
833.6674	3579
836.066	3611
838.4639	3589
840.8632	3677
843.2579	3632
845.6539	3671
848.0493	3642
850.444	3699
852.84	3649
855.2315	3623
857.6243	3595
860.0165	3662
862.4081	3661
864.797	3642
867.1892	3703
869.5789	3608
871.9659	3689
874.3542	3695
876.74	3597
879.129	3719
881.5155	3577
883.8994	3649
886.2845	3693
888.6671	3678
891.051	3675
893.4343	3649
895.8169	3589
898.197	3690
900.5783	3624
902.9571	3660
905.3372	3695
907.7167	3713
910.0936	3676
912.4698	3725
914.8474	3724
917.2244	3698
919.5987	3733
921.9744	3769
924.3475	3796
926.72	3698
929.0918	3735
931.4669	3769
933.8375	3839
936.2074	3842
938.5767	3822
940.9454	3836
943.3154	3982
945.6829	3947
948.0497	4040
950.4178	4162
952.7833	4147
955.1483	4371
957.5145	4467
959.8782	4539
962.2412	4329
964.6036	4379
966.9655	4257
969.3266	4135
971.6871	4069
974.0471	3952
976.4064	3921
978.765	3803
981.125	3800
983.4824	3840
985.8373	3775
988.1935	3727
990.549	3761
992.9039	3758
995.2602	3749
997.6119	3771
999.965	3747
1002.317	3754
1004.667	3798
1007.02	3781
1009.371	3835
1011.719	3830
1014.068	3742
1016.415	3763
1018.765	3735
1021.111	3755
1023.458	3835
1025.804	3743
1028.147	3790
1030.49	3855
1032.837	3895
1035.179	3827
1037.522	3818
1039.862	3890
1042.204	3809
1044.546	3819
1046.884	3847
1049.224	3989
1051.562	3860
1053.899	3820
1056.237	3929
1058.575	3850
1060.91	3983
1063.244	3912
1065.58	3998
1067.913	3930
1070.248	3949
1072.579	3985
1074.911	3997
1077.242	3917
1079.572	3949
1081.905	3954
1084.234	3784
1086.562	3902
1088.89	3923
1091.217	3852
1093.544	3894
1095.871	3842
1098.197	3931
1100.521	3834
1102.845	3860
1105.169	3908
1107.491	3941
1109.814	3926
1112.135	3899
1114.456	3868
1116.776	3895
1119.096	3933
1121.415	3905
1123.734	3843
1126.052	3862
1128.369	3857
1130.686	3998
1133.002	3902
1135.318	3874
1137.632	3916
1139.945	3947
1142.258	3930
1144.573	3948
1146.884	3894
1149.196	3946
1151.505	3903
1153.816	3929
1156.124	3915
1158.435	3918
1160.742	3984
1163.051	3965
1165.356	3931
1167.663	4012
1169.97	3947
1172.276	3897
1174.579	3908
1176.881	3907
1179.186	3921
1181.487	3876
1183.79	3897
1186.092	3935
1188.392	3964
1190.691	3927
1192.991	3878
1195.291	3881
1197.588	3931
1199.885	3970
1202.181	3963
1204.479	3906
1206.775	3991
1209.07	3947
1211.363	3955
1213.656	3890
1215.949	3916
1218.241	3963
1220.534	3948
1222.825	3895
1225.115	3999
1227.405	4016
1229.693	4043
1231.984	4024
1234.271	4009
1236.558	3972
1238.845	4041
1241.131	4054
1243.416	4083
1245.703	4064
1247.987	4045
1250.269	4050
1252.552	4113
1254.834	4133
1257.118	4109
1259.399	4098
1261.678	4119
1263.958	4069
1266.237	4146
1268.516	3990
1270.794	4041
1273.072	4025
1275.347	4051
1277.624	4029
1279.899	3994
1282.175	3961
1284.449	3993
1286.722	4011
1288.995	4078
1291.266	3972
1293.54	4020
1295.81	4013
1298.081	4024
1300.35	4015
1302.62	4019
1304.889	3985
1307.156	4027
1309.425	4031
1311.69	4023
1313.957	3984
1316.222	4089
1318.488	4069
1320.751	4032
1323.016	4024
1325.278	4011
1327.54	4051
1329.803	4019
1332.065	4003
1334.325	4006
1336.584	4037
1338.843	4038
1341.101	4045
1343.36	3971
1345.617	3994
1347.876	4020
1350.131	4042
1352.387	4027
1354.643	3997
1356.897	3972
1359.151	3971
1361.403	4040
1363.656	4098
1365.909	4007
1368.16	4097
1370.409	4059
1372.659	4082
1374.909	4094
1377.157	4057
1379.407	4003
1381.655	4009
1383.9	4052
1386.147	4120
1388.393	4047
1390.64	4192
1392.885	4029
1395.127	4108
1397.37	4081
1399.614	4136
1401.854	4121
1404.098	4070
1406.339	4143
1408.578	4190
1410.818	4056
1413.056	4102
1415.297	4054
1417.533	4186
1419.771	4179
1422.006	4222
1424.243	4245
1426.479	4178
1428.715	4175
1430.948	4144
1433.182	4118
1435.414	4171
1437.647	4230
1439.88	4230
1442.11	4223
1444.342	4177
1446.571	4221
1448.799	4197
1451.029	4290
1453.258	4272
1455.485	4352
1457.711	4227
1459.937	4222
1462.164	4148
1464.39	4234
1466.614	4129
1468.838	4185
1471.06	4163
1473.283	4200
1475.506	4126
1477.727	4092
1479.949	4161
1482.169	4102
1484.389	4129
1486.609	4150
1488.828	4203
1491.045	4241
1493.261	4111
1495.477	4071
1497.693	4071
1499.91	4120
1502.125	4092
1504.339	4115
1506.553	4026
1508.766	4088
1510.979	4156
1513.191	4104
1515.402	4130
1517.613	4093
1519.823	3991
1522.033	4085
1524.242	4100
1526.451	4132
1528.657	4108
1530.865	4145
1533.072	4132
1535.278	4100
1537.484	4077
1539.687	4088
1541.892	4138
1544.096	4146
1546.299	4084
1548.502	4148
1550.703	4176
1552.905	4177
1555.104	4232
1557.303	4196
1559.505	4185
1561.703	4168
1563.902	4172
1566.099	4114
1568.295	4255
1570.494	4160
1572.689	4100
1574.883	4242
1577.079	4223
1579.272	4265
1581.467	4238
1583.659	4224
1585.853	4301
1588.044	4294
1590.234	4241
1592.424	4282
1594.615	4278
1596.806	4250
1598.994	4251
1601.182	4342
1603.369	4332
1605.557	4332
1607.744	4295
1609.929	4243
1612.114	4273
1614.298	4323
1616.482	4262
1618.667	4187
1620.85	4327
1623.032	4243
1625.214	4241
1627.395	4360
1629.575	4357
1631.755	4333
1633.935	4291
1636.114	4237
1638.292	4237
1640.471	4308
1642.647	4392
1644.823	4320
1647	4264
1649.175	4319
1651.348	4198
1653.525	4435
1655.698	4249
1657.87	4302
1660.043	4313
1662.213	4378
1664.387	4326
1666.558	4361
1668.727	4382
1670.896	4325
1673.064	4335
1675.233	4449
1677.401	4321
1679.569	4362
1681.735	4399
1683.902	4405
1686.066	4341
1688.233	4327
1690.397	4309
1692.559	4336
1694.723	4336
1696.885	4331
1699.048	4317
1701.21	4352
1703.37	4296
1705.53	4207
1707.689	4302
1709.849	4354
1712.009	4239
1714.166	4329
1716.323	4205
1718.479	4269
1720.634	4267
1722.793	4242
1724.948	4379
1727.102	4406
1729.255	4288
1731.408	4370
1733.562	4320
1735.714	4208
1737.865	4314
1740.016	4292
1742.166	4309
1744.316	4302
1746.467	4201
1748.616	4363
1750.764	4277
1752.911	4294
1755.056	4325
1757.205	4285
1759.35	4293
1761.496	4420
1763.641	4351
1765.785	4268
1767.927	4354
1770.072	4345
1772.214	4289
1774.355	4455
1776.496	4302
1778.637	4337
1780.778	4365
1782.918	4400
1785.057	4339
1787.194	4331
1789.333	4310
1791.472	4271
1793.608	4387
1795.745	4407
1797.879	4371
1800.015	4364
1802.148	4396
1804.284	4439
1806.417	4433
1808.548	4364
1810.682	4388
1812.812	4401
1814.946	4384
1817.075	4367
1819.205	4358
1821.335	4303
1823.463	4415
1825.59	4402
1827.721	4386
1829.847	4438
1831.973	4378
1834.098	4318
1836.223	4422
1838.351	4400
1840.475	4285
1842.598	4323
1844.721	4386
1846.843	4337
1848.966	4377
1851.087	4301
1853.21	4282
1855.33	4370
1857.449	4355
1859.568	4333
1861.688	4331
1863.806	4314
1865.924	4418
1868.039	4277
1870.155	4303
1872.273	4288
1874.388	4348
1876.503	4187
1878.617	4363
1880.73	4378
1882.844	4392
1884.956	4322
1887.068	4313
1889.18	4299
1891.291	4233
1893.4	4446
1895.511	4311
1897.621	4305
1899.73	4391
1901.837	4289
1903.944	4490
1906.053	4405
1908.159	4464
1910.265	4346
1912.369	4352
1914.474	4480
1916.577	4447
1918.683	4400
1920.785	4370
1922.888	4413
1924.989	4376
1927.091	4407
1929.193	4382
1931.294	4461
1933.393	4450
1935.493	4480
1937.59	4426
1939.689	4407
1941.788	4475
1943.884	4381
1945.98	4414
1948.077	4513
1950.171	4366
1952.267	4400
1954.361	4430
1956.455	4420
1958.548	4524
1960.64	4519
1962.733	4471
1964.824	4475
1966.915	4443
1969.005	4479
1971.096	4403
1973.185	4559
1975.275	4449
1977.363	4426
1979.45	4452
1981.537	4528
1983.623	4443
1985.711	4397
1987.796	4416
1989.881	4419
1991.965	4407
1994.047	4418
1996.132	4440
1998.215	4429
2000.297	4431
2002.378	4467
2004.46	4461
2006.54	4376
2008.62	4425
2010.7	4411
2012.779	4371
2014.858	4369
2016.934	4420
2019.013	4367
2021.09	4414
2023.165	4366
2025.241	4361
2027.317	4411
2029.39	4413
2031.466	4417
2033.538	4360
2035.612	4446
2037.683	4414
2039.755	4335
2041.827	4427
2043.898	4399
2045.968	4517
2048.038	4452
2050.106	4405
2052.177	4474
2054.244	4514
2056.313	4478
2058.379	4417
2060.444	4453
2062.511	4368
2064.577	4428
2066.641	4435
2068.705	4387
2070.77	4495
2072.832	4444
2074.896	4512
2076.958	4404
2079.02	4513
2081.081	4520
2083.141	4531
2085.2	4464
2087.261	4508
2089.319	4451
2091.377	4490
2093.435	4378
2095.492	4416
2097.552	4611
2099.607	4530
2101.663	4412
2103.718	4608
2105.771	4449
2107.826	4426
2109.879	4389
2111.932	4466
2113.985	4498
2116.037	4554
2118.088	4389
2120.141	4479
2122.191	4437
2124.239	4506
2126.288	4536
2128.337	4505
2130.387	4470
2132.434	4501
2134.481	4492
2136.528	4413
2138.574	4488
2140.618	4490
2142.665	4485
2144.71	4545
2146.753	4466
2148.797	4437
2150.838	4482
2152.883	4438
2154.923	4477
2156.965	4482
2159.007	4379
2161.046	4325
2163.086	4337
2165.126	4443
2167.163	4379
2169.202	4472
2171.239	4342
2173.277	4407
2175.314	4379
2177.349	4445
2179.385	4418
2181.42	4347
2183.453	4408
2185.49	4365
2187.522	4414
2189.555	4406
2191.586	4407
2193.619	4422
2195.651	4351
2197.682	4353
2199.711	4382
2201.74	4417
2203.769	4411
2205.799	4448
2207.828	4374
2209.855	4367
2211.882	4336
2213.908	4395
2215.934	4357
2217.961	4286
2219.986	4345
2222.01	4323
2224.034	4440
2226.057	4422
2228.08	4379
2230.104	4366
2232.124	4418
2234.145	4377
2236.166	4349
2238.186	4365
2240.207	4262
2242.227	4444
2244.244	4366
2246.262	4381
2248.28	4446
2250.299	4414
2252.314	4373
2254.33	4439
2256.346	4397
2258.36	4384
2260.375	4429
2262.391	4402
2264.403	4439
2266.416	4452
2268.427	4303
2270.44	4364
2272.453	4468
2274.463	4445
2276.474	4357
2278.483	4427
2280.493	4418
2282.501	4426
2284.51	4386
2286.518	4400
2288.524	4341
2290.532	4529
2292.537	4428
2294.544	4360
2296.55	4399
2298.554	4427
2300.557	4471
2302.562	4471
2304.566	4395
2306.568	4448
2308.569	4295
2310.572	4253
2312.573	4329
2314.573	4370
2316.574	4293
2318.573	4389
2320.571	4322
2322.571	4390
2324.569	4345
2326.567	4376
2328.564	4361
2330.56	4304
2332.556	4313
2334.551	4299
2336.546	4382
2338.542	4315
2340.535	4357
2342.529	4357
2344.521	4357
2346.512	4359
2348.505	4371
2350.497	4336
2352.487	4339
2354.478	4390
2356.468	4348
2358.457	4246
2360.446	4370
2362.434	4308
2364.422	4269
2366.408	4376
2368.395	4365
2370.383	4326
2372.369	4273
2374.353	4383
2376.338	4392
2378.321	4394
2380.307	4358
2382.29	4249
2384.272	4257
2386.254	4366
2388.235	4274
2390.218	4267
2392.198	4195
2394.179	4322
2396.157	4230
2398.137	4357
2400.115	4298
2402.095	4250
2404.072	4355
2406.048	4326
2408.026	4281
2410.001	4286
2411.977	4280
2413.953	4301
2415.927	4312
2417.9	4342
2419.875	4301
2421.847	4340
2423.821	4282
2425.792	4197
2427.763	4338
2429.736	4247
2431.706	4273
2433.677	4305
2435.646	4234
2437.615	4334
2439.583	4222
2441.551	4349
2443.519	4255
2445.486	4242
2447.452	4276
2449.418	4282
2451.383	4282
2453.348	4170
2455.314	4267
2457.278	4245
2459.241	4255
2461.205	4223
2463.167	4223
2465.131	4244
2467.091	4226
2469.052	4308
2471.012	4172
2472.972	4344
2474.932	4304
2476.891	4356
2478.85	4277
2480.808	4223
2482.766	4216
2484.722	4312
2486.68	4249
2488.636	4287
2490.591	4335
2492.546	4285
2494.5	4277
2496.456	4176
2498.41	4124
2500.362	4227
2502.315	4229
2504.266	4250
2506.218	4304
2508.169	4181
2510.121	4242
2512.07	4255
2514.019	4249
2515.968	4206
2517.918	4229
2519.866	4245
2521.813	4285
2523.76	4232
2525.707	4234
2527.653	4287
2529.599	4242
2531.543	4248
2533.489	4248
2535.433	4239
2537.376	4285
2539.32	4252
2541.264	4263
2543.205	4241
2545.147	4214
2547.087	4228
2549.029	4235
2550.969	4321
2552.908	4246
2554.847	4185
2556.786	4230
2558.724	4142
2560.663	4174
2562.6	4215
2564.537	4267
2566.473	4260
2568.408	4248
2570.345	4197
2572.28	4191
2574.214	4236
2576.148	4239
2578.081	4239
2580.014	4284
2581.947	4185
2583.879	4204
2585.81	4279
2587.741	4359
2589.67	4316
2591.602	4255
2593.532	4297
2595.461	4245
2597.388	4306
2599.316	4236
2601.244	4222
2603.172	4241
2605.098	4278
2607.023	4202
2608.949	4171
2610.873	4225
2612.8	4229
2614.723	4242
2616.647	4282
2618.569	4259
2620.493	4299
2622.416	4211
2624.338	4274
2626.258	4333
2628.179	4331
2630.099	4306
2632.019	4322
2633.939	4214
2635.857	4323
2637.775	4262
2639.694	4402
2641.61	4292
2643.528	4226
2645.444	4256
2647.361	4280
2649.276	4334
2651.19	4275
2653.105	4190
2655.019	4218
2656.934	4235
2658.846	4278
2660.758	4233
2662.67	4253
2664.583	4308
2666.493	4248
2668.404	4237
2670.313	4320
2672.223	4203
2674.134	4295
2676.042	4213
2677.95	4199
2679.858	4247
2681.765	4199
2683.673	4231
2685.579	4293
2687.483	4214
2689.389	4268
2691.294	4259
2693.198	4291
2695.104	4224
2697.006	4283
2698.909	4231
2700.811	4183
2702.713	4245
2704.615	4314
2706.516	4236
2708.417	4251
2710.316	4144
2712.216	4237
2714.115	4164
2716.014	4169
2717.913	4185
2719.81	4131
2721.707	4195
2723.603	4188
2725.501	4144
2727.396	4242
2729.292	4196
2731.186	4174
2733.081	4203
2734.976	4150
2736.87	4202
2738.762	4123
2740.653	4181
2742.546	4232
2744.437	4150
2746.329	4266
2748.22	4159
2750.11	4171
2751.999	4120
2753.889	4178
2755.778	4166
2757.666	4169
2759.553	4235
2761.44	4155
2763.328	4193
2765.215	4143
2767.101	4107
2768.986	4230
2770.87	4090
2772.754	4178
2774.638	4219
2776.523	4226
2778.405	4205
2780.288	4169
2782.17	4149
2784.051	4119
2785.934	4197
2787.814	4175
2789.694	4096
2791.574	4234
2793.453	4233
2795.332	4137
2797.212	4034
2799.088	4169
2800.966	4200
2802.843	4143
2804.719	4078
2806.597	4229
2808.471	4166
2810.346	4166
2812.221	4109
2814.094	4141
2815.969	4158
2817.843	4129
2819.714	4152
2821.587	4133
2823.459	4235
2825.329	4187
2827.202	4176
2829.072	4134
2830.942	4192
2832.811	4112
2834.68	4100
2836.549	4157
2838.418	4170
2840.284	4045
2842.152	4082
2844.018	4138
2845.885	4088
2847.751	4173
2849.616	4149
2851.482	4168
2853.345	4154
2855.208	4267
2857.074	4193
2858.937	4181
2860.799	4168
2862.66	4263
2864.522	4209
2866.385	4174
2868.245	4111
2870.104	4219
2871.964	4182
2873.824	4359
2875.683	4330
2877.542	4346
2879.4	4324
2881.257	4330
2883.114	4434
2884.97	4347
2886.827	4281
2888.683	4331
2890.537	4315
2892.392	4385
2894.246	4239
2896.1	4390
2897.954	4251
2899.807	4235
2901.66	4332
2903.51	4339
2905.362	4260
2907.214	4307
2909.065	4298
2910.915	4332
2912.765	4291
2914.613	4402
2916.463	4364
2918.311	4436
2920.158	4452
2922.006	4482
2923.853	4466
2925.698	4454
2927.546	4412
2929.392	4541
2931.236	4477
2933.081	4526
2934.924	4555
2936.77	4549
2938.613	4543
2940.455	4553
2942.298	4579
2944.139	4746
2945.982	4580
2947.823	4621
2949.662	4599
2951.503	4576
2953.342	4508
2955.182	4547
2957.021	4499
2958.858	4519
2960.697	4432
2962.534	4471
2964.37	4399
2966.207	4458
2968.044	4356
2969.879	4306
2971.714	4351
2973.548	4330
2975.383	4346
2977.218	4355
2979.051	4287
2980.883	4337
2982.715	4260
2984.547	4378
2986.379	4436
2988.21	4333
2990.04	4399
2991.87	4244
2993.7	4334
2995.53	4241
2997.359	4299
2999.187	4133
3001.015	4268
3002.842	4209
3004.669	4137
3006.497	4087
3008.323	4128
3010.148	4196
3011.974	4117
3013.797	4055
3015.623	4126
3017.447	4048
3019.27	4073
3021.094	4104
3022.915	4060
3024.737	4023
3026.56	4020
3028.38	4098
3030.201	4003
3032.022	3977
3033.84	4010
3035.662	4041
3037.481	4048
3039.298	4071
3041.117	3995
3042.933	4001
3044.752	3969
3046.568	3975
3048.385	3972
3050.2	4033
3052.016	4032
3053.83	3863
3055.646	3981
3057.46	3987
3059.272	3980
3061.086	3955
3062.898	3981
3064.711	3863
3066.524	3912
3068.335	3987
3070.145	3927
3071.956	3959
3073.766	3943
3075.576	3907
3077.385	3936
3079.193	3927
3081.002	3975
3082.81	3880
3084.618	3922
3086.425	4002
3088.231	3874
3090.036	3999
3091.842	3901
3093.648	3908
3095.452	3908
3097.257	3937
3099.06	3864
3100.863	3962
3102.666	3987
3104.47	3970
3106.272	3945
3108.073	3896
3109.875	3910
3111.676	3953
3113.477	3803
3115.277	3838
3117.077	3845
3118.874	3835
3120.673	3893
3122.473	3841
3124.271	3884
3126.066	3924
3127.863	3843
3129.66	3826
3131.456	3805
3133.252	3843
3135.047	3849
3136.842	3827
3138.635	3732
3140.429	3906
3142.223	3733
3144.016	3844
3145.808	3863
3147.6	3871
3149.392	3838
3151.183	3827
3152.975	3806
3154.765	3861
3156.553	3821
3158.344	3724
3160.132	3903
3161.922	3813
3163.71	3767
3165.497	3801
3167.285	3800
3169.071	3814
3170.858	3795
3172.645	3730
3174.429	3693
3176.214	3814
3177.998	3827
3179.783	3738
3181.568	3816
3183.351	3775
3185.133	3773
3186.915	3753
3188.698	3714
3190.481	3796
3192.261	3725
3194.042	3801
3195.822	3820
3197.601	3791
3199.381	3681
3201.161	3767
3202.939	3728
3204.717	3745
3206.495	3729
3208.272	3790
3210.05	3808
3211.826	3727
3213.602	3703
3215.376	3760
3217.151	3768
3218.927	3780
3220.702	3784
3222.476	3698
3224.249	3700
3226.021	3730
3227.793	3764
3229.567	3748
3231.339	3713
3233.109	3676
3234.88	3732
3236.651	3777
3238.421	3662
3240.191	3732
3241.96	3696
3243.728	3687
3245.497	3762
3247.263	3809
3249.033	3692
3250.799	3730
3252.566	3666
3254.331	3802
3256.097	3721
3257.863	3637
3259.628	3769
3261.392	3763
3263.156	3735
3264.919	3780
3266.683	3712
3268.447	3762
3270.208	3756
3271.969	3703
3273.731	3736
3275.492	3756
3277.253	3755
3279.013	3797
3280.773	3725
3282.532	3629
3284.291	3674
3286.05	3736
3287.808	3700
3289.566	3745
3291.323	3700
3293.079	3704
3294.835	3706
3296.593	3700
3298.348	3726
3300.102	3741
3301.857	3767
3303.611	3793
3305.366	3803
3307.119	3748
3308.872	3745
3310.624	3718
3312.376	3639
3314.129	3718
3315.881	3754
3317.631	3683
3319.38	3768
3321.13	3780
3322.88	3718
3324.631	3643
3326.379	3753
3328.126	3668
3329.875	3727
3331.622	3728
3333.371	3727
3335.116	3755
3336.863	3655
3338.609	3702
3340.353	3745
3342.1	3683
3343.845	3675
3345.588	3701
3347.332	3727
3349.074	3697
3350.817	3617
3352.56	3696
3354.303	3658
3356.043	3723
3357.785	3666
3359.525	3647
3361.268	3644
3363.007	3715
3364.745	3608
3366.485	3653
3368.223	3712
3369.962	3718
3371.701	3581
3373.438	3738
3375.174	3576
3376.911	3699
3378.647	3712
3380.384	3607
3382.118	3632
3383.854	3579
3385.588	3613
3387.322	3652
3389.057	3660
3390.79	3692
3392.522	3573
3394.255	3710
3395.987	3684
3397.719	3600
3399.451	3610
3401.181	3589
3402.911	3602
3404.641	3571
3406.371	3608
3408.101	3675
3409.83	3616
3411.558	3628
3413.285	3498
3415.011	3574
3416.739	3569
3418.467	3637
3420.193	3613
3421.919	3604
3423.644	3558
3425.368	3615
3427.094	3654
3428.818	3603
3430.542	3613
3432.264	3604
3433.987	3647
3435.712	3539
3437.434	3529
3439.155	3643
3440.876	3554
3442.596	3493
3444.317	3564
3446.039	3496
3447.757	3500
3449.477	3623
3451.195	3547
3452.914	3528
3454.632	3484
3456.35	3554
3458.067	3533
3459.784	3511
3461.5	3532
3463.216	3481
3464.932	3558
3466.647	3445
3468.362	3542
3470.076	3565
3471.789	3550
3473.505	3421
3475.217	3536
3476.929	3429
3478.641	3497
3480.354	3483
3482.066	3395
3483.777	3522
3485.487	3379
3487.197	3554
3488.908	3478
3490.617	3419
3492.327	3434
3494.035	3480
3495.743	3456
3497.451	3491
3499.158	3382
3500.866	3468
3502.572	3494
3504.278	3508
3505.984	3388
3507.689	3422
3509.396	3425
3511.1	3404
3512.804	3400
3514.508	3371
3516.211	3505
3517.913	3472
3519.616	3405
3521.319	3432
3523.021	3387
3524.722	3453
3526.422	3425
3528.124	3365
3529.824	3329
3531.524	3435
3533.222	3363
3534.921	3399
3536.62	3429
3538.318	3352
3540.016	3368
3541.714	3326
3543.41	3417
3545.107	3389
3546.803	3409
3548.5	3364
3550.194	3345
3551.889	3348
3553.583	3350
3555.279	3343
3556.972	3378
3558.666	3378
3560.358	3366
3562.051	3315
3563.742	3395
3565.435	3370
3567.126	3409
3568.817	3409
3570.507	3363
3572.197	3346
3573.888	3411
3575.577	3289
3577.265	3243
3578.954	3351
3580.642	3363
3582.329	3255
3584.017	3283
3585.704	3341
3587.391	3283
3589.077	3436
3590.762	3262
3592.449	3323
3594.133	3214
3595.817	3363
3597.501	3261
3599.185	3321
3600.869	3262
3602.552	3312
3604.234	3287
3605.916	3252
3607.598	3282
3609.279	3217
3610.961	3220
3612.642	3352
3614.321	3212
3616	3174
3617.68	3288
3619.36	3180
3621.039	3238
3622.716	3142
3624.394	3242
3626.071	3174
3627.748	3168
3629.425	3162
3631.102	3231
3632.778	3247
3634.452	3172
3636.127	3150
3637.803	3211
3639.477	3246
3641.151	3162
3642.823	3147
3644.497	3139
3646.171	3194
3647.842	3212
3649.515	3199
3651.185	3175
3652.857	3206
3654.527	3120
3656.198	3120
3657.868	3091
3659.537	3174
3661.207	3138
3662.875	3199
3664.544	3188
3666.212	3155
3667.879	3217
3669.546	3136
3671.212	3095
3672.88	3243
3674.546	3114
3676.211	3175
3677.875	3117
3679.541	3196
3681.205	3165
3682.87	3210
3684.533	3062
3686.196	3099
3687.859	3077
3689.521	3150
3691.184	3053
3692.845	3143
3694.507	3173
3696.167	3173
3697.827	3105
3699.487	3071
3701.148	3072
3702.808	3090
3704.466	3108
3706.125	3183
3707.783	3080
3709.442	3100
3711.099	3135
3712.757	3058
3714.412	3139
3716.068	3135
3717.725	3108
3719.381	3167
3721.036	3136
3722.689	3146
3724.344	3104
3725.998	3132
3727.652	3054
3729.305	3090
3730.958	3181
3732.61	3019
3734.262	3028
3735.915	3055
3737.565	3152
3739.217	3104
3740.866	3120
3742.516	3086
3744.165	3110
3745.816	3047
3747.464	3091
3749.113	3067
3750.761	3068
3752.409	3115
3754.057	3024
3755.703	3069
3757.35	3053
3758.996	3053
3760.641	3076
3762.289	2996
3763.933	3045
3765.577	3033
3767.222	3024
3768.865	3075
3770.508	3003
3772.152	3033
3773.796	3013
3775.438	3035
3777.079	3074
3778.721	3073
3780.363	2982
3782.003	3074
3783.643	2944
3785.283	3009
3786.923	3129
3788.563	2986
3790.203	3028
3791.841	3024
3793.479	3020
3795.115	2969
3796.753	2954
3798.391	2974
3800.027	2953
3801.664	3051
3803.299	3024
3804.935	2984
3806.571	2986
3808.206	3002
3809.839	2986
3811.473	3022
3813.107	2943
3814.74	2995
3816.375	2949
3818.006	2949
3819.638	2915
3821.27	2994
3822.9	2940
3824.532	2962
3826.163	2874
3827.792	2986
3829.423	3014
3831.051	2984
3832.682	2893
3834.311	2869
3835.938	2964
3837.566	2914
3839.193	2992
3840.821	2915
3842.448	2941
3844.075	2945
3845.7	2869
3847.325	2932
3848.951	2908
3850.576	2900
3852.201	2887
3853.825	2921
3855.448	2845
3857.072	2912
3858.694	2925
3860.318	2853
3861.939	2937
3863.562	2844
3865.183	2834
3866.804	2882
3868.426	2894
3870.045	2900
3871.666	2958
3873.285	2894
3874.904	2851
3876.524	2845
3878.142	2868
3879.76	2893
3881.378	2845
3882.995	2860
3884.612	2907
3886.229	2918
3887.845	2841
3889.461	2856
3891.076	2927
3892.691	2911
3894.307	2919
3895.922	2798
3897.536	2854
3899.149	2837
3900.761	2857
3902.374	2881
3903.988	2891
3905.6	2862
3907.212	2852
3908.822	2882
3910.433	2850
3912.045	2787
3913.655	2860
3915.265	2826
3916.875	2865
3918.483	2834
3920.093	2847
3921.702	2843
3923.309	2844
3924.917	2867
3926.523	2829
3928.13	2882
3929.739	2846
3931.344	2806
3932.95	2914
3934.555	2761
3936.159	2829
3937.766	2878
3939.369	2820
3940.974	2848
3942.577	2822
3944.181	2778
3945.783	2837
3947.386	2770
3948.989	2847
3950.59	2818
3952.191	2846
3953.791	2809
3955.394	2827
3956.994	2828
3958.593	2912
3960.192	2794
3961.791	2831
3963.392	2797
3964.99	2754
3966.588	2746
3968.185	2814
3969.782	2749
3971.379	2709
3972.976	2775
3974.572	2723
3976.168	2820
3977.763	2788
3979.358	2697
3980.954	2687
3982.548	2789
3984.142	2720
3985.736	2755
3987.329	2777
3988.922	2704
3990.516	2748
3992.108	2742
3993.698	2819
3995.29	2780
3996.881	2708
3998.473	2748
4000.064	2806
4001.653	2735
4003.242	2707
4004.832	2672
4006.422	2720
4008.01	2691
4009.598	2710
4011.186	2693
4012.773	2738
4014.36	2768
4015.947	2642
4017.534	2680
4019.119	2726
4020.705	2687
4022.291	2684
4023.876	2723
4025.461	2683
4027.044	2647
4028.627	2609
4030.211	2621
4031.795	2641
4033.378	2662
4034.96	2634
4036.542	2678
4038.124	2629
4039.704	2728
4041.286	2630
4042.867	2620
4044.447	2624
4046.026	2631
4047.606	2696
4049.187	2630
4050.765	2609
4052.343	2560
4053.92	2594
4055.498	2604
4057.076	2644
4058.654	2579
4060.23	2699
4061.806	2625
4063.381	2618
4064.957	2609
4066.533	2618
4068.107	2619
4069.682	2611
4071.256	2617
4072.829	2606
4074.404	2614
4075.977	2569
4077.549	2598
4079.121	2672
4080.693	2580
4082.265	2621
4083.836	2639
4085.407	2546
4086.977	2577
4088.547	2581
4090.117	2601
4091.687	2579
4093.256	2636
4094.825	2635
4096.392	2649
4097.96	2604
4099.528	2557
4101.097	2639
4102.663	2642
4104.229	2607
4105.795	2582
4107.361	2558
4108.928	2551
4110.493	2555
4112.058	2599
4113.621	2594
4115.186	2620
4116.75	2564
4118.313	2560
4119.876	2522
4121.438	2604
4123	2522
4124.562	2563
4126.125	2500
4127.686	2521
4129.246	2606
4130.807	2533
4132.367	2499
4133.927	2552
4135.486	2484
4137.046	2527
4138.604	2541
4140.162	2532
4141.72	2493
4143.279	2538
4144.836	2477
4146.393	2498
4147.949	2444
4149.505	2527
4151.062	2504
4152.617	2495
4154.172	2537
4155.727	2489
4157.281	2460
4158.836	2451
4160.39	2528
4161.943	2477
4163.496	2462
4165.048	2424
4166.601	2526
4168.154	2519
4169.706	2462
4171.257	2505
4172.808	2439
4174.358	2462
4175.909	2472
4177.458	2470
4179.008	2446
4180.558	2483
4182.106	2433
4183.655	2420
4185.204	2417
4186.751	2478
4188.298	2438
4189.845	2407
4191.392	2471
4192.939	2431
4194.485	2418
4196.031	2450
4197.576	2416
4199.121	2424
4200.666	2467
4202.211	2411
4203.754	2459
4205.298	2445
4206.84	2460
4208.384	2456
4209.927	2469
4211.47	2414
4213.011	2374
4214.552	2458
4216.094	2397
4217.635	2522
4219.175	2413
4220.716	2414
4222.255	2419
4223.793	2373
4225.335	2375
4226.873	2399
4228.411	2393
4229.948	2419
4231.486	2434
4233.024	2401
4234.562	2389
4236.098	2403
4237.634	2391
4239.169	2410
4240.705	2335
4242.241	2387
4243.776	2334
4245.31	2353
4246.844	2377
4248.378	2401
4249.911	2363
4251.445	2347
4252.978	2353
4254.51	2346
4256.042	2385
4257.574	2386
4259.107	2378
4260.638	2372
4262.169	2316
4263.699	2367
4265.228	2370
4266.759	2390
4268.289	2373
4269.818	2357
4271.345	2329
4272.874	2379
4274.402	2356
4275.931	2355
4277.458	2379
4278.985	2344
4280.512	2324
4282.037	2432
4283.564	2311
4285.089	2335
4286.615	2317
4288.139	2306
4289.664	2291
4291.187	2343
4292.712	2357
4294.235	2352
4295.759	2299
4297.281	2337
4298.804	2356
4300.327	2324
4301.849	2238
4303.37	2321
4304.891	2307
4306.412	2285
4307.933	2280
4309.453	2330
4310.973	2265
4312.492	2285
