398.1873	3063
400.7097	3041
403.2336	3051
405.7547	3067
408.2751	3077
410.7948	3122
413.3138	3081
415.83	3105
418.3497	3102
420.8666	3087
423.3829	3196
425.8985	3208
428.4133	3148
430.9275	3187
433.441	3218
435.9538	3224
438.4639	3215
440.9753	3224
443.4881	3218
445.9982	3261
448.5055	3206
451.0142	3138
453.5201	3317
456.0274	3127
458.5361	3251
461.04	3166
463.5453	3166
466.0478	3267
468.5517	3248
471.0549	3279
473.5574	3197
476.0572	3264
478.5584	3267
481.0568	3204
483.5545	3265
486.0557	3252
488.5521	3309
491.0478	3357
493.5449	3257
496.0392	3258
498.5349	3262
501.0299	3356
503.5222	3283
506.0139	3309
508.5048	3373
510.9991	3283
513.4887	3323
515.9777	3369
518.4659	3328
520.9534	3373
523.4403	3356
525.9306	3332
528.4161	3312
530.9009	3388
533.3851	3338
535.8687	3338
538.3535	3385
540.8356	3383
543.3171	3315
545.7979	3427
548.278	3379
550.7595	3382
553.2383	3409
555.7144	3366
558.1918	3381
560.6685	3418
563.1446	3370
565.6221	3435
568.0968	3429
570.5688	3354
573.0422	3403
575.515	3486
577.989	3516
580.4584	3481
582.9291	3425
585.3991	3458
587.8685	3457
590.3352	3413
592.8052	3452
595.2706	3405
597.7372	3437
600.2033	3446
602.6666	3428
605.1334	3409
607.5953	3420
610.0587	3482
612.5193	3441
614.9814	3414
617.4427	3532
619.9034	3425
622.3615	3446
624.8208	3436
627.2775	3412
629.7335	3479
632.1929	3417
634.6476	3478
637.1016	3419
639.5569	3531
642.0096	3516
644.4637	3430
646.9151	3391
649.3678	3490
651.8179	3542
654.2672	3416
656.7159	3569
659.166	3438
661.6154	3457
664.0622	3563
666.5082	3512
668.9537	3469
671.4005	3559
673.8445	3493
676.288	3535
678.7308	3560
681.1729	3591
683.6163	3562
686.0572	3515
688.4973	3508
690.9368	3527
693.3757	3588
695.8138	3561
698.2534	3528
700.6902	3556
703.1245	3669
705.56	3584
707.9949	3523
710.4311	3617
712.8647	3601
715.2957	3600
717.7279	3586
720.1595	3557
722.5905	3658
725.0208	3622
727.4505	3628
729.8795	3635
732.3058	3631
734.7336	3802
737.1626	3660
739.587	3638
742.0128	3742
744.4359	3740
746.8604	3743
749.2841	3875
751.7073	3671
754.1278	3745
756.5496	3692
758.9688	3787
761.3893	3761
763.8093	3817
766.2285	3754
768.6451	3811
771.0611	3805
773.4784	3848
775.895	3809
778.3091	3862
780.7244	3693
783.1371	3786
785.5493	3755
787.9626	3779
790.3754	3821
792.7856	3814
795.1951	3777
797.6039	3812
800.0121	3820
802.4236	3841
804.8306	3827
807.2369	3875
809.6425	3849
812.0475	3783
814.4538	3826
816.8575	3858
819.2606	3869
821.663	3842
824.0648	3815
826.4659	3879
828.8683	3868
831.2682	3921
833.6674	3845
836.066	3818
838.4639	3916
840.8632	3910
843.2579	3936
845.6539	3954
848.0493	3940
850.444	3971
852.84	3903
855.2315	3886
857.6243	3903
860.0165	3820
862.4081	3783
864.797	3774
867.1892	4018
869.5789	3838
871.9659	3847
874.3542	3847
876.74	3882
879.129	3888
881.5155	3891
883.8994	3873
886.2845	3876
888.6671	3933
891.051	3910
893.4343	3940
895.8169	3961
898.197	3883
900.5783	3978
902.9571	3962
905.3372	3915
907.7167	3873
910.0936	3991
912.4698	3968
914.8474	4032
917.2244	4041
919.5987	4129
921.9744	4095
924.3475	4106
926.72	4118
929.0918	4106
931.4669	4053
933.8375	4157
936.2074	4049
938.5767	4132
940.9454	4165
943.3154	4267
945.6829	4264
948.0497	4259
950.4178	4372
952.7833	4551
955.1483	4682
957.5145	4745
959.8782	4855
962.2412	4709
964.6036	4706
966.9655	4611
969.3266	4443
971.6871	4432
974.0471	4282
976.4064	4118
978.765	4115
981.125	4095
983.4824	4068
985.8373	4043
988.1935	4064
990.549	4075
992.9039	4028
995.2602	4102
997.6119	4003
999.965	4065
1002.317	4095
1004.667	4065
1007.02	4107
1009.371	4042
1011.719	4028
1014.068	4008
1016.415	4066
1018.765	4091
1021.111	4121
1023.458	3961
1025.804	4115
1028.147	4088
1030.49	4121
1032.837	4184
1035.179	4110
1037.522	4087
1039.862	4121
1042.204	4170
1044.546	4221
1046.884	4093
1049.224	4086
1051.562	4120
1053.899	4094
1056.237	4225
1058.575	4193
1060.91	4187
1063.244	4185
1065.58	4233
1067.913	4199
1070.248	4341
1072.579	4197
1074.911	4230
1077.242	4260
1079.572	4137
1081.905	4206
1084.234	4215
1086.562	4239
1088.89	4165
1091.217	4114
1093.544	4078
1095.871	4216
1098.197	4088
1100.521	4074
1102.845	4140
1105.169	4139
1107.491	4075
1109.814	4111
1112.135	4158
1114.456	4116
1116.776	4126
1119.096	4239
1121.415	4202
1123.734	4256
1126.052	4212
1128.369	4147
1130.686	4227
1133.002	4272
1135.318	4179
1137.632	4095
1139.945	4181
1142.258	4231
1144.573	4188
1146.884	4157
1149.196	4195
1151.505	4298
1153.816	4161
1156.124	4227
1158.435	4219
1160.742	4185
1163.051	4247
1165.356	4264
1167.663	4208
1169.97	4236
1172.276	4214
1174.579	4189
1176.881	4135
1179.186	4241
1181.487	4224
1183.79	4204
1186.092	4140
1188.392	4251
1190.691	4163
1192.991	4200
1195.291	4176
1197.588	4212
1199.885	4207
1202.181	4226
1204.479	4272
1206.775	4164
1209.07	4218
1211.363	4101
1213.656	4257
1215.949	4224
1218.241	4334
1220.534	4280
1222.825	4172
1225.115	4363
1227.405	4360
1229.693	4321
1231.984	4315
1234.271	4251
1236.558	4335
1238.845	4399
1241.131	4402
1243.416	4357
1245.703	4423
1247.987	4400
1250.269	4341
1252.552	4392
1254.834	4321
1257.118	4316
1259.399	4375
1261.678	4297
1263.958	4400
1266.237	4332
1268.516	4428
1270.794	4400
1273.072	4405
1275.347	4412
1277.624	4346
1279.899	4421
1282.175	4352
1284.449	4412
1286.722	4342
1288.995	4449
1291.266	4313
1293.54	4364
1295.81	4235
1298.081	4398
1300.35	4315
1302.62	4324
1304.889	4345
1307.156	4295
1309.425	4294
1311.69	4343
1313.957	4350
1316.222	4272
1318.488	4372
1320.751	4261
1323.016	4385
1325.278	4375
1327.54	4270
1329.803	4326
1332.065	4357
1334.325	4320
1336.584	4364
1338.843	4314
1341.101	4338
1343.36	4328
1345.617	4317
1347.876	4305
1350.131	4410
1352.387	4301
1354.643	4275
1356.897	4411
1359.151	4256
1361.403	4363
1363.656	4323
1365.909	4513
1368.16	4385
1370.409	4372
1372.659	4432
1374.909	4398
1377.157	4348
1379.407	4427
1381.655	4419
1383.9	4364
1386.147	4390
1388.393	4439
1390.64	4459
1392.885	4459
1395.127	4528
1397.37	4481
1399.614	4490
1401.854	4565
1404.098	4480
1406.339	4482
1408.578	4436
1410.818	4537
1413.056	4464
1415.297	4533
1417.533	4500
1419.771	4521
1422.006	4509
1424.243	4533
1426.479	4439
1428.715	4526
1430.948	4508
1433.182	4462
1435.414	4480
1437.647	4545
1439.88	4538
1442.11	4554
1444.342	4507
1446.571	4519
1448.799	4516
1451.029	4549
1453.258	4548
1455.485	4620
1457.711	4571
1459.937	4526
1462.164	4610
1464.39	4573
1466.614	4566
1468.838	4499
1471.06	4532
1473.283	4468
1475.506	4529
1477.727	4409
1479.949	4508
1482.169	4436
1484.389	4329
1486.609	4512
1488.828	4475
1491.045	4418
1493.261	4428
1495.477	4447
1497.693	4372
1499.91	4474
1502.125	4443
1504.339	4484
1506.553	4462
1508.766	4407
1510.979	4495
1513.191	4419
1515.402	4394
1517.613	4436
1519.823	4332
1522.033	4482
1524.242	4414
1526.451	4276
1528.657	4430
1530.865	4426
1533.072	4425
1535.278	4468
1537.484	4503
1539.687	4496
1541.892	4408
1544.096	4469
1546.299	4379
1548.502	4422
1550.703	4541
1552.905	4465
1555.104	4478
1557.303	4605
1559.505	4494
1561.703	4390
1563.902	4486
1566.099	4571
1568.295	4594
1570.494	4513
1572.689	4533
1574.883	4538
1577.079	4564
1579.272	4568
1581.467	4573
1583.659	4648
1585.853	4571
1588.044	4545
1590.234	4515
1592.424	4558
1594.615	4587
1596.806	4603
1598.994	4592
1601.182	4637
1603.369	4601
1605.557	4583
1607.744	4512
1609.929	4644
1612.114	4575
1614.298	4567
1616.482	4574
1618.667	4616
1620.85	4684
1623.032	4567
1625.214	4549
1627.395	4636
1629.575	4625
1631.755	4599
1633.935	4604
1636.114	4644
1638.292	4631
1640.471	4720
1642.647	4621
1644.823	4690
1647	4616
1649.175	4655
1651.348	4713
1653.525	4694
1655.698	4633
1657.87	4696
1660.043	4617
1662.213	4767
1664.387	4646
1666.558	4672
1668.727	4740
1670.896	4616
1673.064	4716
1675.233	4654
1677.401	4687
1679.569	4601
1681.735	4682
1683.902	4710
1686.066	4715
1688.233	4681
1690.397	4743
1692.559	4749
1694.723	4604
1696.885	4668
1699.048	4593
1701.21	4592
1703.37	4684
1705.53	4640
1707.689	4673
1709.849	4600
1712.009	4630
1714.166	4587
1716.323	4535
1718.479	4594
1720.634	4588
1722.793	4634
1724.948	4618
1727.102	4618
1729.255	4588
1731.408	4600
1733.562	4660
1735.714	4654
1737.865	4626
1740.016	4691
1742.166	4720
1744.316	4653
1746.467	4575
1748.616	4604
1750.764	4632
1752.911	4615
1755.056	4646
1757.205	4518
1759.35	4710
1761.496	4617
1763.641	4579
1765.785	4714
1767.927	4737
1770.072	4664
1772.214	4664
1774.355	4597
1776.496	4764
1778.637	4800
1780.778	4649
1782.918	4633
1785.057	4637
1787.194	4647
1789.333	4734
1791.472	4757
1793.608	4659
1795.745	4690
1797.879	4696
1800.015	4804
1802.148	4718
1804.284	4787
1806.417	4654
1808.548	4607
1810.682	4679
1812.812	4771
1814.946	4737
1817.075	4762
1819.205	4661
1821.335	4708
1823.463	4598
1825.59	4588
1827.721	4775
1829.847	4624
1831.973	4737
1834.098	4570
1836.223	4729
1838.351	4680
1840.475	4663
1842.598	4627
1844.721	4724
1846.843	4612
1848.966	4692
1851.087	4696
1853.21	4668
1855.33	4576
1857.449	4725
1859.568	4650
1861.688	4522
1863.806	4718
1865.924	4680
1868.039	4689
1870.155	4687
1872.273	4686
1874.388	4571
1876.503	4651
1878.617	4669
1880.73	4682
1882.844	4794
1884.956	4714
1887.068	4615
1889.18	4700
1891.291	4698
1893.4	4645
1895.511	4741
1897.621	4745
1899.73	4808
1901.837	4738
1903.944	4711
1906.053	4728
1908.159	4714
1910.265	4749
1912.369	4806
1914.474	4757
1916.577	4783
1918.683	4742
1920.785	4801
1922.888	4766
1924.989	4840
1927.091	4788
1929.193	4888
1931.294	4712
1933.393	4796
1935.493	4705
1937.59	4898
1939.689	4783
1941.788	4792
1943.884	4789
1945.98	4776
1948.077	4819
1950.171	4774
1952.267	4841
1954.361	4747
1956.455	4813
1958.548	4795
1960.64	4855
1962.733	4682
1964.824	4717
1966.915	4718
1969.005	4804
1971.096	4773
1973.185	4738
1975.275	4826
1977.363	4716
1979.45	4729
1981.537	4769
1983.623	4729
1985.711	4722
1987.796	4820
1989.881	4784
1991.965	4797
1994.047	4760
1996.132	4679
1998.215	4760
2000.297	4717
2002.378	4755
2004.46	4647
2006.54	4776
2008.62	4729
2010.7	4733
2012.779	4710
2014.858	4734
2016.934	4785
2019.013	4821
2021.09	4746
2023.165	4801
2025.241	4795
2027.317	4776
2029.39	4768
2031.466	4656
2033.538	4756
2035.612	4797
2037.683	4811
2039.755	4810
2041.827	4834
2043.898	4759
2045.968	4778
2048.038	4765
2050.106	4685
2052.177	4760
2054.244	4855
2056.313	4764
2058.379	4807
2060.444	4768
2062.511	4822
2064.577	4784
2066.641	4815
2068.705	4782
2070.77	4764
2072.832	4792
2074.896	4849
2076.958	4868
2079.02	4754
2081.081	4804
2083.141	4731
2085.2	4750
2087.261	4830
2089.319	4820
2091.377	4804
2093.435	4804
2095.492	4801
2097.552	4863
2099.607	4818
2101.663	4861
2103.718	4784
2105.771	4875
2107.826	4847
2109.879	4865
2111.932	4740
2113.985	4781
2116.037	4781
2118.088	4812
2120.141	4826
2122.191	4908
2124.239	4794
2126.288	4796
2128.337	4780
2130.387	4739
2132.434	4854
2134.481	4798
2136.528	4807
2138.574	4887
2140.618	4770
2142.665	4792
2144.71	4796
2146.753	4779
2148.797	4740
2150.838	4731
2152.883	4797
2154.923	4794
2156.965	4725
2159.007	4832
2161.046	4813
2163.086	4756
2165.126	4717
2167.163	4865
2169.202	4764
2171.239	4750
2173.277	4806
2175.314	4742
2177.349	4724
2179.385	4739
2181.42	4780
2183.453	4701
2185.49	4701
2187.522	4765
2189.555	4695
2191.586	4841
2193.619	4689
2195.651	4818
2197.682	4652
2199.711	4784
2201.74	4693
2203.769	4752
2205.799	4742
2207.828	4711
2209.855	4660
2211.882	4746
2213.908	4749
2215.934	4729
2217.961	4736
2219.986	4742
2222.01	4775
2224.034	4806
2226.057	4665
2228.08	4613
2230.104	4751
2232.124	4749
2234.145	4722
2236.166	4702
2238.186	4726
2240.207	4788
2242.227	4742
2244.244	4749
2246.262	4641
2248.28	4716
2250.299	4750
2252.314	4750
2254.33	4774
2256.346	4715
2258.36	4725
2260.375	4782
2262.391	4773
2264.403	4688
2266.416	4763
2268.427	4832
2270.44	4795
2272.453	4736
2274.463	4830
2276.474	4813
2278.483	4680
2280.493	4749
2282.501	4752
2284.51	4748
2286.518	4771
2288.524	4760
2290.532	4778
2292.537	4769
2294.544	4682
2296.55	4723
2298.554	4793
2300.557	4722
2302.562	4786
2304.566	4739
2306.568	4704
2308.569	4684
2310.572	4804
2312.573	4684
2314.573	4666
2316.574	4628
2318.573	4612
2320.571	4632
2322.571	4731
2324.569	4809
2326.567	4837
2328.564	4775
2330.56	4766
2332.556	4733
2334.551	4709
2336.546	4697
2338.542	4684
2340.535	4601
2342.529	4723
2344.521	4578
2346.512	4720
2348.505	4785
2350.497	4724
2352.487	4691
2354.478	4665
2356.468	4650
2358.457	4634
2360.446	4640
2362.434	4675
2364.422	4685
2366.408	4740
2368.395	4667
2370.383	4647
2372.369	4702
2374.353	4650
2376.338	4762
2378.321	4702
2380.307	4670
2382.29	4683
2384.272	4607
2386.254	4609
2388.235	4741
2390.218	4616
2392.198	4718
2394.179	4752
2396.157	4592
2398.137	4687
2400.115	4671
2402.095	4573
2404.072	4568
2406.048	4717
2408.026	4671
2410.001	4716
2411.977	4600
2413.953	4609
2415.927	4629
2417.9	4696
2419.875	4681
2421.847	4687
2423.821	4613
2425.792	4637
2427.763	4648
2429.736	4716
2431.706	4626
2433.677	4683
2435.646	4700
2437.615	4681
2439.583	4716
2441.551	4679
2443.519	4732
2445.486	4750
2447.452	4692
2449.418	4564
2451.383	4619
2453.348	4676
2455.314	4677
2457.278	4575
2459.241	4661
2461.205	4551
2463.167	4616
2465.131	4675
2467.091	4652
2469.052	4580
2471.012	4579
2472.972	4591
2474.932	4673
2476.891	4677
2478.85	4696
2480.808	4606
2482.766	4690
2484.722	4741
2486.68	4634
2488.636	4609
2490.591	4621
2492.546	4556
2494.5	4587
2496.456	4581
2498.41	4628
2500.362	4626
2502.315	4479
2504.266	4542
2506.218	4608
2508.169	4558
2510.121	4635
2512.07	4643
2514.019	4622
2515.968	4615
2517.918	4590
2519.866	4653
2521.813	4636
2523.76	4690
2525.707	4585
2527.653	4586
2529.599	4522
2531.543	4615
2533.489	4604
2535.433	4545
2537.376	4577
2539.32	4660
2541.264	4590
2543.205	4675
2545.147	4651
2547.087	4615
2549.029	4586
2550.969	4589
2552.908	4684
2554.847	4683
2556.786	4641
2558.724	4725
2560.663	4583
2562.6	4642
2564.537	4634
2566.473	4602
2568.408	4570
2570.345	4632
2572.28	4580
2574.214	4599
2576.148	4662
2578.081	4576
2580.014	4623
2581.947	4656
2583.879	4640
2585.81	4598
2587.741	4585
2589.67	4702
2591.602	4758
2593.532	4636
2595.461	4514
2597.388	4716
2599.316	4611
2601.244	4619
2603.172	4703
2605.098	4633
2607.023	4581
2608.949	4635
2610.873	4745
2612.8	4677
2614.723	4627
2616.647	4639
2618.569	4620
2620.493	4690
2622.416	4719
2624.338	4573
2626.258	4612
2628.179	4716
2630.099	4608
2632.019	4696
2633.939	4635
2635.857	4637
2637.775	4704
2639.694	4677
2641.61	4602
2643.528	4645
2645.444	4621
2647.361	4606
2649.276	4586
2651.19	4626
2653.105	4604
2655.019	4680
2656.934	4628
2658.846	4684
2660.758	4774
2662.67	4615
2664.583	4666
2666.493	4611
2668.404	4625
2670.313	4706
2672.223	4682
2674.134	4613
2676.042	4674
2677.95	4618
2679.858	4667
2681.765	4650
2683.673	4639
2685.579	4587
2687.483	4675
2689.389	4652
2691.294	4567
2693.198	4585
2695.104	4625
2697.006	4684
2698.909	4733
2700.811	4589
2702.713	4653
2704.615	4523
2706.516	4668
2708.417	4448
2710.316	4510
2712.216	4706
2714.115	4582
2716.014	4531
2717.913	4571
2719.81	4547
2721.707	4574
2723.603	4511
2725.501	4484
2727.396	4634
2729.292	4582
2731.186	4535
2733.081	4572
2734.976	4561
2736.87	4616
2738.762	4643
2740.653	4564
2742.546	4591
2744.437	4512
2746.329	4587
2748.22	4599
2750.11	4523
2751.999	4608
2753.889	4578
2755.778	4540
2757.666	4507
2759.553	4616
2761.44	4616
2763.328	4562
2765.215	4582
2767.101	4585
2768.986	4627
2770.87	4582
2772.754	4560
2774.638	4522
2776.523	4556
2778.405	4546
2780.288	4588
2782.17	4567
2784.051	4499
2785.934	4617
2787.814	4489
2789.694	4583
2791.574	4463
2793.453	4496
2795.332	4456
2797.212	4577
2799.088	4525
2800.966	4610
2802.843	4533
2804.719	4539
2806.597	4595
2808.471	4567
2810.346	4631
2812.221	4635
2814.094	4514
2815.969	4508
2817.843	4577
2819.714	4462
2821.587	4481
2823.459	4562
2825.329	4540
2827.202	4554
2829.072	4563
2830.942	4497
2832.811	4525
2834.68	4593
2836.549	4609
2838.418	4539
2840.284	4629
2842.152	4526
2844.018	4601
2845.885	4681
2847.751	4646
2849.616	4533
2851.482	4624
2853.345	4609
2855.208	4537
2857.074	4621
2858.937	4685
2860.799	4646
2862.66	4610
2864.522	4715
2866.385	4660
2868.245	4624
2870.104	4748
2871.964	4767
2873.824	4747
2875.683	4836
2877.542	4852
2879.4	4749
2881.257	4784
2883.114	4905
2884.97	4834
2886.827	4866
2888.683	4863
2890.537	4816
2892.392	4925
2894.246	4866
2896.1	4916
2897.954	4886
2899.807	4819
2901.66	4789
2903.51	4723
2905.362	4866
2907.214	4786
2909.065	4898
2910.915	4967
2912.765	4875
2914.613	4936
2916.463	5027
2918.311	4913
2920.158	4923
2922.006	4971
2923.853	5084
2925.698	5152
2927.546	5056
2929.392	5061
2931.236	5103
2933.081	5144
2934.924	5057
2936.77	5185
2938.613	5176
2940.455	5266
2942.298	5244
2944.139	5332
2945.982	5207
2947.823	5301
2949.662	5359
2951.503	5294
2953.342	5156
2955.182	5189
2957.021	5225
2958.858	5228
2960.697	5131
2962.534	5090
2964.37	5182
2966.207	5137
2968.044	5016
2969.879	4983
2971.714	4956
2973.548	4959
2975.383	4937
2977.218	4898
2979.051	4879
2980.883	4786
2982.715	4872
2984.547	4800
2986.379	4814
2988.21	4819
2990.04	4768
2991.87	4716
2993.7	4684
2995.53	4672
2997.359	4737
2999.187	4654
3001.015	4745
3002.842	4631
3004.669	4610
3006.497	4601
3008.323	4508
3010.148	4468
3011.974	4454
3013.797	4503
3015.623	4489
3017.447	4513
3019.27	4459
3021.094	4540
3022.915	4426
3024.737	4421
3026.56	4432
3028.38	4510
3030.201	4464
3032.022	4502
3033.84	4370
3035.662	4349
3037.481	4440
3039.298	4367
3041.117	4449
3042.933	4434
3044.752	4322
3046.568	4397
3048.385	4391
3050.2	4313
3052.016	4409
3053.83	4390
3055.646	4432
3057.46	4288
3059.272	4411
3061.086	4414
3062.898	4427
3064.711	4332
3066.524	4334
3068.335	4424
3070.145	4397
3071.956	4335
3073.766	4364
3075.576	4428
3077.385	4322
3079.193	4330
3081.002	4312
3082.81	4256
3084.618	4348
3086.425	4350
3088.231	4320
3090.036	4330
3091.842	4321
3093.648	4226
3095.452	4304
3097.257	4220
3099.06	4334
3100.863	4283
3102.666	4330
3104.47	4262
3106.272	4284
3108.073	4289
3109.875	4237
3111.676	4244
3113.477	4289
3115.277	4230
3117.077	4285
3118.874	4170
3120.673	4222
3122.473	4221
3124.271	4231
3126.066	4217
3127.863	4220
3129.66	4185
3131.456	4277
3133.252	4250
3135.047	4201
3136.842	4166
3138.635	4309
3140.429	4191
3142.223	4175
3144.016	4257
3145.808	4289
3147.6	4213
3149.392	4287
3151.183	4192
3152.975	4218
3154.765	4225
3156.553	4212
3158.344	4181
3160.132	4125
3161.922	4217
3163.71	4229
3165.497	4187
3167.285	4129
3169.071	4090
3170.858	4104
3172.645	4183
3174.429	4144
3176.214	4174
3177.998	4130
3179.783	4104
3181.568	4164
3183.351	4132
3185.133	4172
3186.915	4195
3188.698	4141
3190.481	4164
3192.261	4076
3194.042	4127
3195.822	4169
3197.601	4130
3199.381	4095
3201.161	4232
3202.939	4211
3204.717	4109
3206.495	4119
3208.272	4116
3210.05	4186
3211.826	4098
3213.602	4122
3215.376	4175
3217.151	4178
3218.927	4112
3220.702	4094
3222.476	4169
3224.249	4197
3226.021	4109
3227.793	4140
3229.567	4147
3231.339	4129
3233.109	4141
3234.88	4161
3236.651	4073
3238.421	4076
3240.191	4056
3241.96	4148
3243.728	4178
3245.497	4159
3247.263	4105
3249.033	4086
3250.799	4123
3252.566	4143
3254.331	4208
3256.097	4156
3257.863	4136
3259.628	4142
3261.392	4101
3263.156	4089
3264.919	4184
3266.683	4095
3268.447	4183
3270.208	4141
3271.969	4095
3273.731	4081
3275.492	4185
3277.253	4209
3279.013	4123
3280.773	4038
3282.532	4113
3284.291	4177
3286.05	4103
3287.808	4048
3289.566	4118
3291.323	4111
3293.079	4137
3294.835	4186
3296.593	4181
3298.348	4101
3300.102	4101
3301.857	4133
3303.611	4077
3305.366	4045
3307.119	4145
3308.872	4107
3310.624	4185
3312.376	4080
3314.129	4063
3315.881	4043
3317.631	4044
3319.38	4077
3321.13	4088
3322.88	4088
3324.631	4138
3326.379	4067
3328.126	4101
3329.875	4052
3331.622	4130
3333.371	4057
3335.116	4083
3336.863	4107
3338.609	4141
3340.353	4157
3342.1	4127
3343.845	4037
3345.588	4073
3347.332	4085
3349.074	4100
3350.817	4121
3352.56	4050
3354.303	3984
3356.043	4014
3357.785	3988
3359.525	4001
3361.268	3997
3363.007	4110
3364.745	4076
3366.485	4144
3368.223	3959
3369.962	4019
3371.701	3985
3373.438	4038
3375.174	4064
3376.911	4013
3378.647	4115
3380.384	3925
3382.118	4100
3383.854	4017
3385.588	4027
3387.322	3976
3389.057	3933
3390.79	4041
3392.522	3908
3394.255	4079
3395.987	4112
3397.719	3971
3399.451	3890
3401.181	4019
3402.911	4091
3404.641	3935
3406.371	4030
3408.101	3902
3409.83	4070
3411.558	3966
3413.285	3970
3415.011	3913
3416.739	3961
3418.467	3947
3420.193	3881
3421.919	3962
3423.644	3932
3425.368	3950
3427.094	3970
3428.818	3931
3430.542	4002
3432.264	3893
3433.987	3998
3435.712	3887
3437.434	3985
3439.155	3938
3440.876	4009
3442.596	3871
3444.317	3971
3446.039	3918
3447.757	3939
3449.477	3867
3451.195	3941
3452.914	3887
3454.632	3833
3456.35	3801
3458.067	3871
3459.784	3867
3461.5	3840
3463.216	3928
3464.932	3854
3466.647	3938
3468.362	3857
3470.076	3872
3471.789	3878
3473.505	3837
3475.217	3854
3476.929	3847
3478.641	3927
3480.354	3880
3482.066	3840
3483.777	3818
3485.487	3806
3487.197	3893
3488.908	3813
3490.617	3896
3492.327	3745
3494.035	3791
3495.743	3826
3497.451	3766
3499.158	3819
3500.866	3810
3502.572	3860
3504.278	3888
3505.984	3782
3507.689	3834
3509.396	3822
3511.1	3744
3512.804	3815
3514.508	3826
3516.211	3789
3517.913	3863
3519.616	3723
3521.319	3745
3523.021	3748
3524.722	3684
3526.422	3746
3528.124	3725
3529.824	3712
3531.524	3731
3533.222	3706
3534.921	3742
3536.62	3722
3538.318	3774
3540.016	3751
3541.714	3812
3543.41	3742
3545.107	3705
3546.803	3732
3548.5	3674
3550.194	3686
3551.889	3715
3553.583	3808
3555.279	3754
3556.972	3773
3558.666	3654
3560.358	3720
3562.051	3719
3563.742	3650
3565.435	3665
3567.126	3643
3568.817	3678
3570.507	3673
3572.197	3679
3573.888	3730
3575.577	3624
3577.265	3630
3578.954	3621
3580.642	3658
3582.329	3565
3584.017	3698
3585.704	3632
3587.391	3551
3589.077	3635
3590.762	3677
3592.449	3586
3594.133	3627
3595.817	3608
3597.501	3546
3599.185	3659
3600.869	3648
3602.552	3600
3604.234	3490
3605.916	3614
3607.598	3611
3609.279	3612
3610.961	3566
3612.642	3567
3614.321	3616
3616	3630
3617.68	3559
3619.36	3527
3621.039	3604
3622.716	3547
3624.394	3573
3626.071	3547
3627.748	3565
3629.425	3471
3631.102	3522
3632.778	3555
3634.452	3543
3636.127	3586
3637.803	3592
3639.477	3536
3641.151	3570
3642.823	3468
3644.497	3501
3646.171	3615
3647.842	3517
3649.515	3460
3651.185	3556
3652.857	3497
3654.527	3492
3656.198	3486
3657.868	3523
3659.537	3498
3661.207	3507
3662.875	3441
3664.544	3395
3666.212	3446
3667.879	3442
3669.546	3474
3671.212	3446
3672.88	3454
3674.546	3476
3676.211	3484
3677.875	3407
3679.541	3435
3681.205	3459
3682.87	3565
3684.533	3487
3686.196	3532
3687.859	3439
3689.521	3474
3691.184	3425
3692.845	3466
3694.507	3531
3696.167	3474
3697.827	3460
3699.487	3452
3701.148	3530
3702.808	3460
3704.466	3448
3706.125	3403
3707.783	3373
3709.442	3425
3711.099	3468
3712.757	3429
3714.412	3386
3716.068	3451
3717.725	3492
3719.381	3464
3721.036	3454
3722.689	3406
3724.344	3347
3725.998	3344
3727.652	3425
3729.305	3402
3730.958	3364
3732.61	3394
3734.262	3352
3735.915	3367
3737.565	3383
3739.217	3432
3740.866	3382
3742.516	3374
3744.165	3392
3745.816	3318
3747.464	3409
3749.113	3351
3750.761	3377
3752.409	3318
3754.057	3377
3755.703	3319
3757.35	3389
3758.996	3403
3760.641	3382
3762.289	3332
3763.933	3311
3765.577	3400
3767.222	3335
3768.865	3392
3770.508	3349
3772.152	3405
3773.796	3350
3775.438	3354
3777.079	3347
3778.721	3307
3780.363	3397
3782.003	3336
3783.643	3341
3785.283	3400
3786.923	3350
3788.563	3311
3790.203	3268
3791.841	3355
3793.479	3302
3795.115	3329
3796.753	3299
3798.391	3310
3800.027	3291
3801.664	3354
3803.299	3247
3804.935	3289
3806.571	3294
3808.206	3300
3809.839	3298
3811.473	3281
3813.107	3288
3814.74	3278
3816.375	3276
3818.006	3226
3819.638	3240
3821.27	3274
3822.9	3266
3824.532	3250
3826.163	3378
3827.792	3240
3829.423	3224
3831.051	3304
3832.682	3187
3834.311	3284
3835.938	3253
3837.566	3183
3839.193	3222
3840.821	3231
3842.448	3244
3844.075	3231
3845.7	3217
3847.325	3163
3848.951	3234
3850.576	3174
3852.201	3191
3853.825	3219
3855.448	3159
3857.072	3232
3858.694	3160
3860.318	3212
3861.939	3245
3863.562	3197
3865.183	3215
3866.804	3173
3868.426	3200
3870.045	3174
3871.666	3178
3873.285	3108
3874.904	3146
3876.524	3166
3878.142	3062
3879.76	3122
3881.378	3172
3882.995	3123
3884.612	3197
3886.229	3200
3887.845	3120
3889.461	3156
3891.076	3116
3892.691	3193
3894.307	3188
3895.922	3117
3897.536	3221
3899.149	3155
3900.761	3223
3902.374	3216
3903.988	3219
3905.6	3135
3907.212	3131
3908.822	3143
3910.433	3116
3912.045	3144
3913.655	3120
3915.265	3168
3916.875	3193
3918.483	3139
3920.093	3132
3921.702	3132
3923.309	3099
3924.917	3137
3926.523	3140
3928.13	3163
3929.739	3129
3931.344	3142
3932.95	3133
3934.555	3132
3936.159	3112
3937.766	3141
3939.369	3162
3940.974	3154
3942.577	3118
3944.181	3065
3945.783	3159
3947.386	3054
3948.989	3165
3950.59	3107
3952.191	3149
3953.791	3088
3955.394	3116
3956.994	3099
3958.593	3163
3960.192	3127
3961.791	3020
3963.392	3057
3964.99	3107
3966.588	3100
3968.185	3042
3969.782	3093
3971.379	3036
3972.976	3088
3974.572	3054
3976.168	3071
3977.763	3042
3979.358	3042
3980.954	3041
3982.548	3036
3984.142	3087
3985.736	2969
3987.329	2965
3988.922	3006
3990.516	3065
3992.108	2994
3993.698	3007
3995.29	3041
3996.881	3061
3998.473	3010
4000.064	2977
4001.653	3014
4003.242	2983
4004.832	3036
4006.422	3040
4008.01	2973
4009.598	2952
4011.186	2988
4012.773	3035
4014.36	2947
4015.947	2909
4017.534	2949
4019.119	2919
4020.705	3002
4022.291	2955
4023.876	2934
4025.461	3048
4027.044	2991
4028.627	2895
4030.211	2948
4031.795	2924
4033.378	2976
4034.96	2926
4036.542	2957
4038.124	2902
4039.704	2974
4041.286	2915
4042.867	2904
4044.447	2961
4046.026	2899
4047.606	2871
4049.187	2949
4050.765	2840
4052.343	2870
4053.92	2932
4055.498	2901
4057.076	2955
4058.654	2866
4060.23	2878
4061.806	2892
4063.381	2870
4064.957	2843
4066.533	2822
4068.107	2795
4069.682	2878
4071.256	2763
4072.829	2879
4074.404	2958
4075.977	2888
4077.549	2890
4079.121	2923
4080.693	2924
4082.265	2867
4083.836	2912
4085.407	2845
4086.977	2904
4088.547	2854
4090.117	2845
4091.687	2898
4093.256	2912
4094.825	2798
4096.392	2858
4097.96	2868
4099.528	2850
4101.097	2896
4102.663	2811
4104.229	2863
4105.795	2855
4107.361	2825
4108.928	2826
4110.493	2857
4112.058	2840
4113.621	2863
4115.186	2837
4116.75	2836
4118.313	2806
4119.876	2847
4121.438	2777
4123	2814
4124.562	2849
4126.125	2849
4127.686	2824
4129.246	2770
4130.807	2807
4132.367	2774
4133.927	2806
4135.486	2772
4137.046	2789
4138.604	2864
4140.162	2687
4141.72	2793
4143.279	2785
4144.836	2828
4146.393	2757
4147.949	2742
4149.505	2811
4151.062	2725
4152.617	2776
4154.172	2762
4155.727	2749
4157.281	2716
4158.836	2723
4160.39	2738
4161.943	2789
4163.496	2790
4165.048	2729
4166.601	2707
4168.154	2735
4169.706	2721
4171.257	2667
4172.808	2795
4174.358	2707
4175.909	2743
4177.458	2675
4179.008	2703
4180.558	2673
4182.106	2712
4183.655	2743
4185.204	2656
4186.751	2693
4188.298	2669
4189.845	2681
4191.392	2628
4192.939	2714
4194.485	2683
4196.031	2660
4197.576	2746
4199.121	2661
4200.666	2647
4202.211	2608
4203.754	2644
4205.298	2713
4206.84	2703
4208.384	2656
4209.927	2677
4211.47	2689
4213.011	2656
4214.552	2645
4216.094	2670
4217.635	2644
4219.175	2641
4220.716	2628
4222.255	2642
4223.793	2615
4225.335	2591
4226.873	2630
4228.411	2696
4229.948	2585
4231.486	2592
4233.024	2565
4234.562	2654
4236.098	2605
4237.634	2637
4239.169	2647
4240.705	2606
4242.241	2583
4243.776	2625
4245.31	2580
4246.844	2560
4248.378	2546
4249.911	2665
4251.445	2582
4252.978	2610
4254.51	2610
4256.042	2576
4257.574	2632
4259.107	2614
4260.638	2648
4262.169	2664
4263.699	2628
4265.228	2588
4266.759	2524
4268.289	2579
4269.818	2637
4271.345	2528
4272.874	2661
4274.402	2610
4275.931	2621
4277.458	2609
4278.985	2552
4280.512	2506
4282.037	2578
4283.564	2552
4285.089	2594
4286.615	2603
4288.139	2605
4289.664	2563
4291.187	2611
4292.712	2557
4294.235	2539
4295.759	2577
4297.281	2529
4298.804	2516
4300.327	2469
4301.849	2620
4303.37	2509
4304.891	2483
4306.412	2549
4307.933	2553
4309.453	2552
4310.973	2574
4312.492	2524
