398.1873	6865
400.7097	6899
403.2336	7009
405.7547	6986
408.2751	6948
410.7948	6958
413.3138	6965
415.83	7170
418.3497	6995
420.8666	7115
423.3829	7149
425.8985	7185
428.4133	7151
430.9275	7243
433.441	7299
435.9538	7330
438.4639	7265
440.9753	7512
443.4881	7390
445.9982	7305
448.5055	7443
451.0142	7406
453.5201	7420
456.0274	7430
458.5361	7356
461.04	7447
463.5453	7497
466.0478	7567
468.5517	7429
471.0549	7427
473.5574	7518
476.0572	7414
478.5584	7450
481.0568	7528
483.5545	7620
486.0557	7560
488.5521	7622
491.0478	7751
493.5449	7704
496.0392	7705
498.5349	7798
501.0299	7759
503.5222	7741
506.0139	7803
508.5048	7784
510.9991	7933
513.4887	7812
515.9777	7862
518.4659	7787
520.9534	7766
523.4403	7761
525.9306	7919
528.4161	7950
530.9009	7817
533.3851	7857
535.8687	7728
538.3535	7786
540.8356	7755
543.3171	7820
545.7979	7886
548.278	7943
550.7595	7963
553.2383	7949
555.7144	7807
558.1918	7787
560.6685	7986
563.1446	7746
565.6221	7867
568.0968	7946
570.5688	7782
573.0422	8016
575.515	7933
577.989	8000
580.4584	8091
582.9291	8019
585.3991	8117
587.8685	8065
590.3352	8070
592.8052	8085
595.2706	8110
597.7372	8090
600.2033	8158
602.6666	8093
605.1334	8053
607.5953	8132
610.0587	8128
612.5193	7933
614.9814	8128
617.4427	8112
619.9034	7938
622.3615	8297
624.8208	8055
627.2775	8171
629.7335	7886
632.1929	8083
634.6476	8087
637.1016	8142
639.5569	8095
642.0096	8119
644.4637	8003
646.9151	8096
649.3678	8186
651.8179	8122
654.2672	8287
656.7159	8372
659.166	8232
661.6154	8297
664.0622	8371
666.5082	8276
668.9537	8256
671.4005	8269
673.8445	8466
676.288	8528
678.7308	8526
681.1729	8371
683.6163	8480
686.0572	8416
688.4973	8361
690.9368	8429
693.3757	8396
695.8138	8538
698.2534	8452
700.6902	8324
703.1245	8322
705.56	8537
707.9949	8513
710.4311	8583
712.8647	8631
715.2957	8488
717.7279	8469
720.1595	8480
722.5905	8610
725.0208	8687
727.4505	8594
729.8795	8649
732.3058	8692
734.7336	8788
737.1626	8791
739.587	8809
742.0128	8743
744.4359	8946
746.8604	8750
749.2841	8882
751.7073	8803
754.1278	8965
756.5496	8973
758.9688	8832
761.3893	9135
763.8093	9077
766.2285	8987
768.6451	8953
771.0611	9104
773.4784	9023
775.895	9037
778.3091	9065
780.7244	8972
783.1371	9058
785.5493	8919
787.9626	9091
790.3754	8981
792.7856	9044
795.1951	9025
797.6039	8956
800.0121	9150
802.4236	9032
804.8306	9107
807.2369	9085
809.6425	9125
812.0475	9143
814.4538	9118
816.8575	9086
819.2606	9074
821.663	9179
824.0648	9343
826.4659	9185
828.8683	9035
831.2682	9280
833.6674	9131
836.066	9267
838.4639	9216
840.8632	9230
843.2579	9130
845.6539	9248
848.0493	9229
850.444	9362
852.84	9145
855.2315	9208
857.6243	9352
860.0165	9238
862.4081	9295
864.797	9252
867.1892	9159
869.5789	9233
871.9659	9237
874.3542	9317
876.74	9258
879.129	9246
881.5155	9146
883.8994	9236
886.2845	9276
888.6671	9143
891.051	9181
893.4343	9277
895.8169	9270
898.197	9349
900.5783	9246
902.9571	9290
905.3372	9163
907.7167	9244
910.0936	9275
912.4698	9412
914.8474	9338
917.2244	9615
919.5987	9552
921.9744	9520
924.3475	9435
926.72	9651
929.0918	9516
931.4669	9575
933.8375	9557
936.2074	9589
938.5767	9666
940.9454	9822
943.3154	9735
945.6829	9742
948.0497	9775
950.4178	9965
952.7833	10204
955.1483	10189
957.5145	10211
959.8782	10291
962.2412	10246
964.6036	10317
966.9655	10140
969.3266	9836
971.6871	9829
974.0471	9803
976.4064	9593
978.765	9773
981.125	9454
983.4824	9550
985.8373	9505
988.1935	9612
990.549	9538
992.9039	9453
995.2602	9470
997.6119	9553
999.965	9569
1002.317	9745
1004.667	9632
1007.02	9593
1009.371	9547
1011.719	9542
1014.068	9542
1016.415	9518
1018.765	9697
1021.111	9624
1023.458	9633
1025.804	9595
1028.147	9677
1030.49	9660
1032.837	9644
1035.179	9719
1037.522	9651
1039.862	9648
1042.204	9644
1044.546	9751
1046.884	9766
1049.224	9686
1051.562	9873
1053.899	9647
1056.237	9693
1058.575	9804
1060.91	9737
1063.244	9785
1065.58	9839
1067.913	9697
1070.248	9911
1072.579	10006
1074.911	9869
1077.242	9897
1079.572	9785
1081.905	9737
1084.234	9889
1086.562	9860
1088.89	9941
1091.217	9865
1093.544	9857
1095.871	9820
1098.197	9778
1100.521	9903
1102.845	9831
1105.169	9934
1107.491	9848
1109.814	9790
1112.135	9924
1114.456	9993
1116.776	9828
1119.096	9944
1121.415	9985
1123.734	10006
1126.052	10067
1128.369	10000
1130.686	10054
1133.002	9904
1135.318	9925
1137.632	9962
1139.945	9960
1142.258	9944
1144.573	10048
1146.884	10198
1149.196	10114
1151.505	10034
1153.816	10062
1156.124	10100
1158.435	9881
1160.742	10074
1163.051	10091
1165.356	9908
1167.663	10010
1169.97	10006
1172.276	9986
1174.579	9885
1176.881	10107
1179.186	10184
1181.487	10010
1183.79	9902
1186.092	10066
1188.392	9955
1190.691	9820
1192.991	10069
1195.291	10053
1197.588	10040
1199.885	9920
1202.181	10062
1204.479	9937
1206.775	9994
1209.07	10026
1211.363	9959
1213.656	10187
1215.949	10090
1218.241	10215
1220.534	10135
1222.825	10161
1225.115	10265
1227.405	10180
1229.693	10226
1231.984	10214
1234.271	10153
1236.558	10267
1238.845	10208
1241.131	10249
1243.416	10360
1245.703	10321
1247.987	10374
1250.269	10407
1252.552	10321
1254.834	10159
1257.118	10374
1259.399	10384
1261.678	10346
1263.958	10395
1266.237	10229
1268.516	10188
1270.794	10376
1273.072	10426
1275.347	10407
1277.624	10219
1279.899	10227
1282.175	10394
1284.449	10204
1286.722	10410
1288.995	10220
1291.266	10187
1293.54	10500
1295.81	10268
1298.081	10257
1300.35	10199
1302.62	10310
1304.889	10376
1307.156	10351
1309.425	10286
1311.69	10322
1313.957	10255
1316.222	10199
1318.488	10261
1320.751	10187
1323.016	10294
1325.278	10243
1327.54	10268
1329.803	10304
1332.065	10150
1334.325	10244
1336.584	10404
1338.843	10328
1341.101	10237
1343.36	10414
1345.617	10222
1347.876	10299
1350.131	10216
1352.387	10457
1354.643	10513
1356.897	10346
1359.151	10407
1361.403	10489
1363.656	10505
1365.909	10438
1368.16	10507
1370.409	10479
1372.659	10341
1374.909	10411
1377.157	10544
1379.407	10374
1381.655	10551
1383.9	10313
1386.147	10430
1388.393	10772
1390.64	10375
1392.885	10649
1395.127	10560
1397.37	10627
1399.614	10515
1401.854	10687
1404.098	10616
1406.339	10706
1408.578	10488
1410.818	10566
1413.056	10614
1415.297	10587
1417.533	10629
1419.771	10551
1422.006	10575
1424.243	10745
1426.479	10758
1428.715	10520
1430.948	10789
1433.182	10934
1435.414	10784
1437.647	10726
1439.88	10923
1442.11	10745
1444.342	10787
1446.571	10734
1448.799	10790
1451.029	10794
1453.258	10936
1455.485	10925
1457.711	10821
1459.937	10837
1462.164	10884
1464.39	10793
1466.614	10891
1468.838	10926
1471.06	10785
1473.283	10759
1475.506	10833
1477.727	10605
1479.949	10693
1482.169	10761
1484.389	10709
1486.609	10715
1488.828	10636
1491.045	10526
1493.261	10842
1495.477	10681
1497.693	10565
1499.91	10614
1502.125	10589
1504.339	10570
1506.553	10599
1508.766	10765
1510.979	10700
1513.191	10628
1515.402	10664
1517.613	10676
1519.823	10523
1522.033	10806
1524.242	10699
1526.451	10624
1528.657	10558
1530.865	10713
1533.072	10690
1535.278	10758
1537.484	10658
1539.687	10693
1541.892	10759
1544.096	10753
1546.299	10607
1548.502	10694
1550.703	10881
1552.905	10740
1555.104	10832
1557.303	10794
1559.505	10883
1561.703	10823
1563.902	10887
1566.099	10787
1568.295	10886
1570.494	10995
1572.689	11022
1574.883	11035
1577.079	11104
1579.272	10917
1581.467	11036
1583.659	10958
1585.853	11069
1588.044	11054
1590.234	11115
1592.424	10965
1594.615	11236
1596.806	11170
1598.994	11072
1601.182	11063
1603.369	11232
1605.557	11066
1607.744	11107
1609.929	11113
1612.114	11072
1614.298	11131
1616.482	11092
1618.667	11095
1620.85	11167
1623.032	11308
1625.214	11277
1627.395	11170
1629.575	11102
1631.755	11232
1633.935	11142
1636.114	11115
1638.292	11163
1640.471	11341
1642.647	11243
1644.823	11255
1647	11253
1649.175	11233
1651.348	11307
1653.525	11167
1655.698	11222
1657.87	11512
1660.043	11324
1662.213	11261
1664.387	11297
1666.558	11293
1668.727	11485
1670.896	11314
1673.064	11339
1675.233	11250
1677.401	11253
1679.569	11317
1681.735	11407
1683.902	11347
1686.066	11227
1688.233	11234
1690.397	11325
1692.559	11364
1694.723	11287
1696.885	11443
1699.048	11297
1701.21	11499
1703.37	11293
1705.53	11304
1707.689	11426
1709.849	11422
1712.009	11542
1714.166	11438
1716.323	11330
1718.479	11360
1720.634	11358
1722.793	11407
1724.948	11352
1727.102	11265
1729.255	11365
1731.408	11356
1733.562	11361
1735.714	11389
1737.865	11458
1740.016	11503
1742.166	11314
1744.316	11357
1746.467	11327
1748.616	11485
1750.764	11395
1752.911	11449
1755.056	11548
1757.205	11570
1759.35	11571
1761.496	11471
1763.641	11594
1765.785	11642
1767.927	11689
1770.072	11718
1772.214	11663
1774.355	11720
1776.496	11649
1778.637	11713
1780.778	11683
1782.918	11784
1785.057	11813
1787.194	11707
1789.333	11710
1791.472	11697
1793.608	11743
1795.745	11727
1797.879	11749
1800.015	11818
1802.148	11865
1804.284	11737
1806.417	11928
1808.548	11470
1810.682	11858
1812.812	11798
1814.946	11807
1817.075	11841
1819.205	11816
1821.335	11906
1823.463	11894
1825.59	11877
1827.721	11782
1829.847	12012
1831.973	11906
1834.098	12071
1836.223	11864
1838.351	11922
1840.475	11937
1842.598	11927
1844.721	11958
1846.843	11935
1848.966	11807
1851.087	11959
1853.21	11885
1855.33	12023
1857.449	11884
1859.568	11894
1861.688	11885
1863.806	11890
1865.924	11931
1868.039	11947
1870.155	11917
1872.273	11856
1874.388	12107
1876.503	12001
1878.617	11965
1880.73	12186
1882.844	11946
1884.956	12000
1887.068	12058
1889.18	12052
1891.291	12194
1893.4	12120
1895.511	12142
1897.621	12141
1899.73	12062
1901.837	12144
1903.944	12189
1906.053	12056
1908.159	12388
1910.265	12362
1912.369	12308
1914.474	12253
1916.577	12346
1918.683	12384
1920.785	12330
1922.888	12245
1924.989	12428
1927.091	12439
1929.193	12480
1931.294	12482
1933.393	12494
1935.493	12463
1937.59	12520
1939.689	12545
1941.788	12652
1943.884	12448
1945.98	12528
1948.077	12583
1950.171	12614
1952.267	12453
1954.361	12572
1956.455	12539
1958.548	12612
1960.64	12580
1962.733	12593
1964.824	12633
1966.915	12634
1969.005	12628
1971.096	12648
1973.185	12739
1975.275	12658
1977.363	12486
1979.45	12534
1981.537	12672
1983.623	12688
1985.711	12788
1987.796	12608
1989.881	12780
1991.965	12570
1994.047	12645
1996.132	12758
1998.215	12768
2000.297	12723
2002.378	12688
2004.46	12608
2006.54	12792
2008.62	12708
2010.7	12793
2012.779	12861
2014.858	12641
2016.934	12797
2019.013	12629
2021.09	12834
2023.165	12827
2025.241	12815
2027.317	12868
2029.39	12817
2031.466	13052
2033.538	12892
2035.612	13051
2037.683	13044
2039.755	12676
2041.827	12913
2043.898	12896
2045.968	12830
2048.038	13094
2050.106	12829
2052.177	13088
2054.244	13088
2056.313	13095
2058.379	13078
2060.444	13086
2062.511	13148
2064.577	13073
2066.641	13099
2068.705	13164
2070.77	13313
2072.832	13227
2074.896	13031
2076.958	13228
2079.02	13250
2081.081	13273
2083.141	13250
2085.2	13316
2087.261	13258
2089.319	13336
2091.377	13423
2093.435	13444
2095.492	13428
2097.552	13468
2099.607	13369
2101.663	13445
2103.718	13474
2105.771	13333
2107.826	13611
2109.879	13435
2111.932	13345
2113.985	13504
2116.037	13654
2118.088	13541
2120.141	13544
2122.191	13608
2124.239	13565
2126.288	13675
2128.337	13586
2130.387	13734
2132.434	13605
2134.481	13719
2136.528	13700
2138.574	13779
2140.618	13935
2142.665	13730
2144.71	13673
2146.753	13768
2148.797	13807
2150.838	13785
2152.883	13765
2154.923	13886
2156.965	13726
2159.007	13850
2161.046	13907
2163.086	13804
2165.126	13862
2167.163	13758
2169.202	14056
2171.239	13892
2173.277	13859
2175.314	14018
2177.349	13933
2179.385	14048
2181.42	14103
2183.453	13894
2185.49	13973
2187.522	14008
2189.555	14186
2191.586	14013
2193.619	14183
2195.651	14045
2197.682	14096
2199.711	14117
2201.74	13951
2203.769	14119
2205.799	14012
2207.828	14201
2209.855	14252
2211.882	14065
2213.908	14049
2215.934	14239
2217.961	14115
2219.986	14117
2222.01	14137
2224.034	14302
2226.057	14328
2228.08	14281
2230.104	14354
2232.124	14392
2234.145	14203
2236.166	14231
2238.186	14311
2240.207	14251
2242.227	14512
2244.244	14473
2246.262	14441
2248.28	14554
2250.299	14490
2252.314	14635
2254.33	14722
2256.346	14724
2258.36	14670
2260.375	14592
2262.391	14881
2264.403	14621
2266.416	14771
2268.427	14663
2270.44	14796
2272.453	14794
2274.463	14653
2276.474	14885
2278.483	14925
2280.493	14925
2282.501	15002
2284.51	14949
2286.518	15045
2288.524	15076
2290.532	15076
2292.537	15075
2294.544	15101
2296.55	15237
2298.554	15255
2300.557	15260
2302.562	15225
2304.566	15079
2306.568	15293
2308.569	15211
2310.572	15331
2312.573	15365
2314.573	15486
2316.574	15181
2318.573	15563
2320.571	15114
2322.571	15432
2324.569	15411
2326.567	15485
2328.564	15533
2330.56	15535
2332.556	15557
2334.551	15530
2336.546	15425
2338.542	15547
2340.535	15517
2342.529	15565
2344.521	15583
2346.512	15591
2348.505	15603
2350.497	15798
2352.487	15775
2354.478	15802
2356.468	15567
2358.457	15847
2360.446	15689
2362.434	16009
2364.422	15959
2366.408	16055
2368.395	15906
2370.383	16031
2372.369	15920
2374.353	16126
2376.338	16053
2378.321	16066
2380.307	16235
2382.29	16116
2384.272	16128
2386.254	16251
2388.235	16193
2390.218	16229
2392.198	16185
2394.179	16169
2396.157	16082
2398.137	16469
2400.115	16263
2402.095	16385
2404.072	16436
2406.048	16424
2408.026	16411
2410.001	16635
2411.977	16546
2413.953	16507
2415.927	16539
2417.9	16643
2419.875	16571
2421.847	16693
2423.821	16713
2425.792	16861
2427.763	16674
2429.736	17038
2431.706	16916
2433.677	16969
2435.646	16972
2437.615	16895
2439.583	16928
2441.551	17046
2443.519	16999
2445.486	17037
2447.452	17277
2449.418	17248
2451.383	17090
2453.348	17238
2455.314	17088
2457.278	17167
2459.241	17271
2461.205	17200
2463.167	17470
2465.131	17209
2467.091	17612
2469.052	17391
2471.012	17564
2472.972	17448
2474.932	17427
2476.891	17684
2478.85	17547
2480.808	17772
2482.766	17662
2484.722	17796
2486.68	17796
2488.636	17823
2490.591	17616
2492.546	17856
2494.5	17861
2496.456	17778
2498.41	17891
2500.362	17929
2502.315	17970
2504.266	18017
2506.218	18160
2508.169	18023
2510.121	18076
2512.07	18298
2514.019	18122
2515.968	18488
2517.918	18294
2519.866	18285
2521.813	18360
2523.76	18302
2525.707	18408
2527.653	18562
2529.599	18540
2531.543	18407
2533.489	18801
2535.433	18633
2537.376	18550
2539.32	18788
2541.264	18822
2543.205	18800
2545.147	18855
2547.087	18984
2549.029	19079
2550.969	19004
2552.908	19106
2554.847	19139
2556.786	19135
2558.724	19152
2560.663	19121
2562.6	19477
2564.537	19587
2566.473	19362
2568.408	19628
2570.345	19474
2572.28	19790
2574.214	19698
2576.148	19754
2578.081	19665
2580.014	19838
2581.947	19885
2583.879	19955
2585.81	19887
2587.741	19929
2589.67	20094
2591.602	20202
2593.532	20119
2595.461	20119
2597.388	20584
2599.316	20769
2601.244	20332
2603.172	20564
2605.098	20754
2607.023	20853
2608.949	20506
2610.873	20838
2612.8	20911
2614.723	20753
2616.647	20929
2618.569	20923
2620.493	21042
2622.416	21111
2624.338	21054
2626.258	21258
2628.179	21270
2630.099	21289
2632.019	21584
2633.939	21612
2635.857	21340
2637.775	21733
2639.694	21593
2641.61	21646
2643.528	21994
2645.444	21928
2647.361	21816
2649.276	22124
2651.19	22174
2653.105	22118
2655.019	22115
2656.934	22251
2658.846	22427
2660.758	22189
2662.67	22398
2664.583	22361
2666.493	22390
2668.404	22656
2670.313	22442
2672.223	22807
2674.134	22604
2676.042	22706
2677.95	22709
2679.858	22803
2681.765	22822
2683.673	22893
2685.579	23140
2687.483	22952
2689.389	23141
2691.294	23005
2693.198	23262
2695.104	23088
2697.006	23395
2698.909	23334
2700.811	23440
2702.713	23548
2704.615	23644
2706.516	23692
2708.417	23757
2710.316	23748
2712.216	23579
2714.115	23893
2716.014	23647
2717.913	24073
2719.81	23937
2721.707	24003
2723.603	24289
2725.501	24118
2727.396	24085
2729.292	24192
2731.186	24238
2733.081	24613
2734.976	24477
2736.87	24486
2738.762	24638
2740.653	24514
2742.546	24715
2744.437	24744
2746.329	24841
2748.22	24960
2750.11	24930
2751.999	25030
2753.889	24850
2755.778	25205
2757.666	25061
2759.553	25068
2761.44	25466
2763.328	25540
2765.215	25556
2767.101	25487
2768.986	25695
2770.87	25661
2772.754	25523
2774.638	25868
2776.523	25730
2778.405	26035
2780.288	26412
2782.17	26341
2784.051	26024
2785.934	26272
2787.814	26454
2789.694	26448
2791.574	26282
2793.453	26223
2795.332	26632
2797.212	26813
2799.088	26379
2800.966	26916
2802.843	26779
2804.719	26794
2806.597	27054
2808.471	26917
2810.346	27295
2812.221	27175
2814.094	27376
2815.969	27267
2817.843	27438
2819.714	27550
2821.587	27331
2823.459	27608
2825.329	27741
2827.202	27762
2829.072	27755
2830.942	27983
2832.811	28098
2834.68	28181
2836.549	28215
2838.418	28104
2840.284	28173
2842.152	28757
2844.018	28483
2845.885	28345
2847.751	28651
2849.616	28951
2851.482	28831
2853.345	28752
2855.208	28955
2857.074	29040
2858.937	29375
2860.799	29308
2862.66	29513
2864.522	29587
2866.385	29761
2868.245	29562
2870.104	29844
2871.964	29778
2873.824	30063
2875.683	29991
2877.542	30207
2879.4	30123
2881.257	30140
2883.114	30625
2884.97	30651
2886.827	30561
2888.683	30856
2890.537	31063
2892.392	30943
2894.246	31229
2896.1	31239
2897.954	31535
2899.807	31162
2901.66	31582
2903.51	31411
2905.362	31718
2907.214	31648
2909.065	31737
2910.915	32214
2912.765	31990
2914.613	31983
2916.463	31999
2918.311	32482
2920.158	32101
2922.006	32515
2923.853	32631
2925.698	33043
2927.546	32583
2929.392	33061
2931.236	33039
2933.081	33036
2934.924	33177
2936.77	33507
2938.613	33263
2940.455	33457
2942.298	33642
2944.139	33817
2945.982	34297
2947.823	33887
2949.662	34383
2951.503	34374
2953.342	33968
2955.182	34176
2957.021	34614
2958.858	34877
2960.697	34713
2962.534	34758
2964.37	35082
2966.207	34640
2968.044	34823
2969.879	34657
2971.714	35091
2973.548	35006
2975.383	34753
2977.218	35262
2979.051	35302
2980.883	34981
2982.715	35433
2984.547	35349
2986.379	35259
2988.21	35856
2990.04	35376
2991.87	35698
2993.7	35683
2995.53	35653
2997.359	35901
2999.187	35944
3001.015	36115
3002.842	36151
3004.669	36296
3006.497	36159
3008.323	36625
3010.148	36494
3011.974	36597
3013.797	36780
3015.623	36725
3017.447	36760
3019.27	37061
3021.094	36860
3022.915	36964
3024.737	37220
3026.56	37246
3028.38	37532
3030.201	37525
3032.022	37856
3033.84	37877
3035.662	37685
3037.481	38030
3039.298	38048
3041.117	37681
3042.933	38517
3044.752	38153
3046.568	38810
3048.385	38699
3050.2	38818
3052.016	38704
3053.83	38923
3055.646	39212
3057.46	39001
3059.272	39137
3061.086	38627
3062.898	39523
3064.711	39162
3066.524	39763
3068.335	39614
3070.145	39634
3071.956	39702
3073.766	39806
3075.576	39854
3077.385	40049
3079.193	40187
3081.002	40086
3082.81	40099
3084.618	40419
3086.425	40295
3088.231	40789
3090.036	40129
3091.842	40904
3093.648	40535
3095.452	41031
3097.257	41113
3099.06	40962
3100.863	41061
3102.666	41318
3104.47	41414
3106.272	41388
3108.073	41566
3109.875	41450
3111.676	42065
3113.477	41664
3115.277	42003
3117.077	42079
3118.874	42239
3120.673	41969
3122.473	42285
3124.271	42627
3126.066	42426
3127.863	42607
3129.66	42908
3131.456	42222
3133.252	43009
3135.047	43166
3136.842	43116
3138.635	42382
3140.429	43702
3142.223	43189
3144.016	43799
3145.808	43815
3147.6	43811
3149.392	43588
3151.183	44306
3152.975	43691
3154.765	44086
3156.553	43827
3158.344	44252
3160.132	44385
3161.922	44610
3163.71	44080
3165.497	44910
3167.285	44851
3169.071	44470
3170.858	44602
3172.645	45005
3174.429	45038
3176.214	45109
3177.998	45144
3179.783	45083
3181.568	45718
3183.351	45589
3185.133	45582
3186.915	45560
3188.698	46209
3190.481	45879
3192.261	46258
3194.042	45925
3195.822	46727
3197.601	46211
3199.381	46738
3201.161	46306
3202.939	47032
3204.717	46726
3206.495	47291
3208.272	46813
3210.05	47534
3211.826	47135
3213.602	47474
3215.376	47086
3217.151	48542
3218.927	47397
3220.702	47949
3222.476	47640
3224.249	48453
3226.021	48308
3227.793	48371
3229.567	48100
3231.339	48865
3233.109	48988
3234.88	48945
3236.651	48977
3238.421	49597
3240.191	49161
3241.96	49557
3243.728	49512
3245.497	49840
3247.263	49973
3249.033	50246
3250.799	49603
3252.566	50367
3254.331	50626
3256.097	50352
3257.863	51024
3259.628	50772
3261.392	51300
3263.156	51168
3264.919	51424
3266.683	51338
3268.447	51661
3270.208	51785
3271.969	51914
3273.731	52348
3275.492	52449
3277.253	52591
3279.013	52699
3280.773	52470
3282.532	53176
3284.291	52968
3286.05	53310
3287.808	53126
3289.566	53714
3291.323	53807
3293.079	54021
3294.835	53862
3296.593	54342
3298.348	54559
3300.102	54475
3301.857	54287
3303.611	55278
3305.366	54428
3307.119	54963
3308.872	54912
3310.624	55653
3312.376	54772
3314.129	55566
3315.881	55989
3317.631	56012
3319.38	55596
3321.13	56652
3322.88	56118
3324.631	56799
3326.379	56433
3328.126	57269
3329.875	56731
3331.622	57428
3333.371	57477
3335.116	57787
3336.863	57134
3338.609	58151
3340.353	57170
3342.1	58069
3343.845	58260
3345.588	58194
3347.332	58409
3349.074	58610
3350.817	58673
3352.56	58950
3354.303	59403
3356.043	59431
3357.785	59113
3359.525	59879
3361.268	59596
3363.007	60405
3364.745	59620
3366.485	60506
3368.223	60898
3369.962	60299
3371.701	60287
3373.438	60562
3375.174	61007
3376.911	61040
3378.647	61234
3380.384	61640
3382.118	61772
3383.854	61382
3385.588	61776
3387.322	62561
3389.057	62338
3390.79	62658
3392.522	62517
3394.255	63046
3395.987	63156
3397.719	62981
3399.451	63040
3401.181	63634
3402.911	63765
3404.641	63934
3406.371	63355
3408.101	64751
3409.83	64268
3411.558	64219
3413.285	64347
3415.011	64883
3416.739	65061
3418.467	65004
3420.193	65023
3421.919	65535
3423.644	65509
3425.368	65535
3427.094	65535
3428.818	65535
3430.542	65535
3432.264	65535
3433.987	65535
3435.712	65535
3437.434	65535
3439.155	65535
3440.876	65535
3442.596	65535
3444.317	65535
3446.039	65535
3447.757	65535
3449.477	65535
3451.195	65535
3452.914	65535
3454.632	65535
3456.35	65535
3458.067	65535
3459.784	65535
3461.5	65535
3463.216	65535
3464.932	65535
3466.647	65535
3468.362	65535
3470.076	65535
3471.789	65535
3473.505	65535
3475.217	65535
3476.929	65535
3478.641	65535
3480.354	65535
3482.066	65535
3483.777	65535
3485.487	65535
3487.197	65535
3488.908	65535
3490.617	65535
3492.327	65535
3494.035	65535
3495.743	65535
3497.451	65535
3499.158	65535
3500.866	65535
3502.572	65535
3504.278	65535
3505.984	65535
3507.689	65535
3509.396	65535
3511.1	65535
3512.804	65535
3514.508	65535
3516.211	65535
3517.913	65535
3519.616	65535
3521.319	65535
3523.021	65535
3524.722	65535
3526.422	65535
3528.124	65535
3529.824	65535
3531.524	65535
3533.222	65535
3534.921	65535
3536.62	65535
3538.318	65535
3540.016	65535
3541.714	65535
3543.41	65535
3545.107	65535
3546.803	65535
3548.5	65535
3550.194	65535
3551.889	65535
3553.583	65535
3555.279	65535
3556.972	65535
3558.666	65535
3560.358	65535
3562.051	65535
3563.742	65535
3565.435	65535
3567.126	65535
3568.817	65535
3570.507	65535
3572.197	65535
3573.888	65535
3575.577	65535
3577.265	65535
3578.954	65535
3580.642	65535
3582.329	65535
3584.017	65535
3585.704	65535
3587.391	65535
3589.077	65535
3590.762	65535
3592.449	65535
3594.133	65535
3595.817	65535
3597.501	65535
3599.185	65535
3600.869	65535
3602.552	65535
3604.234	65535
3605.916	65535
3607.598	65535
3609.279	65535
3610.961	65535
3612.642	65535
3614.321	65535
3616	65535
3617.68	65535
3619.36	65535
3621.039	65535
3622.716	65535
3624.394	65535
3626.071	65535
3627.748	65535
3629.425	65535
3631.102	65535
3632.778	65535
3634.452	65535
3636.127	65535
3637.803	65535
3639.477	65535
3641.151	65535
3642.823	65535
3644.497	65535
3646.171	65535
3647.842	65535
3649.515	65535
3651.185	65535
3652.857	65535
3654.527	65535
3656.198	65535
3657.868	65535
3659.537	65535
3661.207	65535
3662.875	65535
3664.544	65535
3666.212	65535
3667.879	65535
3669.546	65535
3671.212	65535
3672.88	65535
3674.546	65535
3676.211	65535
3677.875	65535
3679.541	65535
3681.205	65535
3682.87	65535
3684.533	65535
3686.196	65535
3687.859	65535
3689.521	65535
3691.184	65535
3692.845	65535
3694.507	65535
3696.167	65535
3697.827	65535
3699.487	65535
3701.148	65535
3702.808	65535
3704.466	65535
3706.125	65535
3707.783	65535
3709.442	65535
3711.099	65535
3712.757	65535
3714.412	65535
3716.068	65535
3717.725	65535
3719.381	65535
3721.036	65535
3722.689	65535
3724.344	65535
3725.998	65535
3727.652	65535
3729.305	65535
3730.958	65535
3732.61	65535
3734.262	65535
3735.915	65535
3737.565	65535
3739.217	65535
3740.866	65535
3742.516	65535
3744.165	65535
3745.816	65535
3747.464	65535
3749.113	65535
3750.761	65535
3752.409	65535
3754.057	65535
3755.703	65535
3757.35	65535
3758.996	65535
3760.641	65535
3762.289	65535
3763.933	65535
3765.577	65535
3767.222	65535
3768.865	65535
3770.508	65535
3772.152	65535
3773.796	65535
3775.438	65535
3777.079	65535
3778.721	65535
3780.363	65535
3782.003	65535
3783.643	65535
3785.283	65535
3786.923	65535
3788.563	65535
3790.203	65535
3791.841	65535
3793.479	65535
3795.115	65535
3796.753	65535
3798.391	65535
3800.027	65535
3801.664	65535
3803.299	65535
3804.935	65535
3806.571	65535
3808.206	65535
3809.839	65535
3811.473	65535
3813.107	65535
3814.74	65535
3816.375	65535
3818.006	65535
3819.638	65535
3821.27	65535
3822.9	65535
3824.532	65535
3826.163	65535
3827.792	65535
3829.423	65535
3831.051	65535
3832.682	65535
3834.311	65535
3835.938	65535
3837.566	65535
3839.193	65535
3840.821	65535
3842.448	65535
3844.075	65535
3845.7	65535
3847.325	65535
3848.951	65535
3850.576	65535
3852.201	65535
3853.825	65535
3855.448	65535
3857.072	65535
3858.694	65535
3860.318	65535
3861.939	65535
3863.562	65535
3865.183	65535
3866.804	65535
3868.426	65535
3870.045	65535
3871.666	65535
3873.285	65535
3874.904	65535
3876.524	65535
3878.142	65535
3879.76	65535
3881.378	65535
3882.995	65535
3884.612	65535
3886.229	65535
3887.845	65535
3889.461	65535
3891.076	65535
3892.691	65535
3894.307	65535
3895.922	65535
3897.536	65535
3899.149	65535
3900.761	65535
3902.374	65535
3903.988	65535
3905.6	65535
3907.212	65535
3908.822	65535
3910.433	65535
3912.045	65535
3913.655	65535
3915.265	65535
3916.875	65535
3918.483	65535
3920.093	65535
3921.702	65535
3923.309	65535
3924.917	65535
3926.523	65535
3928.13	65535
3929.739	65535
3931.344	65535
3932.95	65535
3934.555	65535
3936.159	65535
3937.766	65535
3939.369	65535
3940.974	65535
3942.577	65535
3944.181	65535
3945.783	65535
3947.386	65535
3948.989	65535
3950.59	65535
3952.191	65535
3953.791	65535
3955.394	65535
3956.994	65535
3958.593	65535
3960.192	65535
3961.791	65535
3963.392	65535
3964.99	65535
3966.588	65535
3968.185	65535
3969.782	65535
3971.379	65535
3972.976	65535
3974.572	65535
3976.168	65535
3977.763	65535
3979.358	65535
3980.954	65535
3982.548	65535
3984.142	65535
3985.736	65535
3987.329	65535
3988.922	65535
3990.516	65535
3992.108	65535
3993.698	65535
3995.29	65535
3996.881	65535
3998.473	65535
4000.064	65535
4001.653	65535
4003.242	65535
4004.832	65535
4006.422	65535
4008.01	65535
4009.598	65535
4011.186	65535
4012.773	65535
4014.36	65535
4015.947	65535
4017.534	65535
4019.119	65535
4020.705	65535
4022.291	65535
4023.876	65535
4025.461	65535
4027.044	65535
4028.627	65535
4030.211	65535
4031.795	65535
4033.378	65535
4034.96	65535
4036.542	65535
4038.124	65535
4039.704	65535
4041.286	65535
4042.867	65535
4044.447	65535
4046.026	65535
4047.606	65535
4049.187	65535
4050.765	65535
4052.343	65535
4053.92	65535
4055.498	65535
4057.076	65535
4058.654	65535
4060.23	65535
4061.806	65535
4063.381	65535
4064.957	65535
4066.533	65535
4068.107	65535
4069.682	65535
4071.256	65535
4072.829	65535
4074.404	65535
4075.977	65535
4077.549	65535
4079.121	65535
4080.693	65535
4082.265	65535
4083.836	65535
4085.407	65535
4086.977	65535
4088.547	65535
4090.117	65535
4091.687	65535
4093.256	65535
4094.825	65535
4096.392	65535
4097.96	65535
4099.528	65535
4101.097	65535
4102.663	65535
4104.229	65535
4105.795	65535
4107.361	65535
4108.928	65535
4110.493	65535
4112.058	65535
4113.621	65535
4115.186	65535
4116.75	65535
4118.313	65535
4119.876	65535
4121.438	65535
4123	65535
4124.562	65535
4126.125	65535
4127.686	65535
4129.246	65535
4130.807	65535
4132.367	65535
4133.927	65535
4135.486	65535
4137.046	65535
4138.604	65535
4140.162	65535
4141.72	65535
4143.279	65535
4144.836	65535
4146.393	65535
4147.949	65535
4149.505	65535
4151.062	65535
4152.617	65535
4154.172	65535
4155.727	65535
4157.281	65535
4158.836	65535
4160.39	65535
4161.943	65535
4163.496	65535
4165.048	65535
4166.601	65535
4168.154	65535
4169.706	65535
4171.257	65535
4172.808	65535
4174.358	65535
4175.909	65535
4177.458	65535
4179.008	65535
4180.558	65535
4182.106	65535
4183.655	65535
4185.204	65535
4186.751	65535
4188.298	65535
4189.845	65535
4191.392	65535
4192.939	65535
4194.485	65535
4196.031	65535
4197.576	65535
4199.121	65535
4200.666	65535
4202.211	65535
4203.754	65535
4205.298	65535
4206.84	65535
4208.384	65535
4209.927	65535
4211.47	65535
4213.011	65535
4214.552	65535
4216.094	65535
4217.635	65535
4219.175	65535
4220.716	65535
4222.255	65535
4223.793	65535
4225.335	65535
4226.873	65535
4228.411	65535
4229.948	65535
4231.486	65535
4233.024	65535
4234.562	65535
4236.098	65535
4237.634	65535
4239.169	65535
4240.705	65535
4242.241	65535
4243.776	65535
4245.31	65535
4246.844	65535
4248.378	65535
4249.911	65535
4251.445	65535
4252.978	65535
4254.51	65535
4256.042	65535
4257.574	65535
4259.107	65535
4260.638	65535
4262.169	65535
4263.699	65535
4265.228	65535
4266.759	65535
4268.289	65535
4269.818	65535
4271.345	65535
4272.874	65535
4274.402	65535
4275.931	65535
4277.458	65535
4278.985	65535
4280.512	65535
4282.037	65535
4283.564	65535
4285.089	65535
4286.615	65535
4288.139	65535
4289.664	65535
4291.187	65535
4292.712	65535
4294.235	65535
4295.759	65535
4297.281	65535
4298.804	65535
4300.327	65535
4301.849	65535
4303.37	65535
4304.891	65535
4306.412	65535
4307.933	65535
4309.453	65535
4310.973	65535
4312.492	65535
