398.1873	4676
400.7097	4770
403.2336	4790
405.7547	4796
408.2751	4785
410.7948	4779
413.3138	4854
415.83	4855
418.3497	4865
420.8666	4859
423.3829	4894
425.8985	4949
428.4133	5056
430.9275	4923
433.441	5055
435.9538	5072
438.4639	4942
440.9753	5109
443.4881	5004
445.9982	5007
448.5055	5053
451.0142	5066
453.5201	5031
456.0274	5066
458.5361	5090
461.04	5039
463.5453	5123
466.0478	5027
468.5517	5084
471.0549	5156
473.5574	5103
476.0572	5086
478.5584	5116
481.0568	5087
483.5545	5078
486.0557	5250
488.5521	4988
491.0478	5167
493.5449	5235
496.0392	5195
498.5349	5234
501.0299	5146
503.5222	5200
506.0139	5240
508.5048	5167
510.9991	5267
513.4887	5213
515.9777	5263
518.4659	5229
520.9534	5286
523.4403	5222
525.9306	5282
528.4161	5299
530.9009	5291
533.3851	5145
535.8687	5199
538.3535	5243
540.8356	5139
543.3171	5301
545.7979	5265
548.278	5252
550.7595	5279
553.2383	5384
555.7144	5222
558.1918	5372
560.6685	5374
563.1446	5339
565.6221	5274
568.0968	5239
570.5688	5396
573.0422	5334
575.515	5484
577.989	5474
580.4584	5619
582.9291	5505
585.3991	5431
587.8685	5521
590.3352	5522
592.8052	5446
595.2706	5430
597.7372	5465
600.2033	5494
602.6666	5441
605.1334	5404
607.5953	5448
610.0587	5470
612.5193	5315
614.9814	5419
617.4427	5390
619.9034	5421
622.3615	5341
624.8208	5416
627.2775	5426
629.7335	5385
632.1929	5403
634.6476	5436
637.1016	5472
639.5569	5469
642.0096	5415
644.4637	5434
646.9151	5477
649.3678	5412
651.8179	5468
654.2672	5472
656.7159	5572
659.166	5532
661.6154	5559
664.0622	5476
666.5082	5543
668.9537	5588
671.4005	5555
673.8445	5506
676.288	5500
678.7308	5686
681.1729	5662
683.6163	5575
686.0572	5611
688.4973	5654
690.9368	5608
693.3757	5658
695.8138	5575
698.2534	5654
700.6902	5629
703.1245	5772
705.56	5675
707.9949	5513
710.4311	5597
712.8647	5620
715.2957	5602
717.7279	5757
720.1595	5705
722.5905	5798
725.0208	5736
727.4505	5832
729.8795	5793
732.3058	5845
734.7336	5907
737.1626	5892
739.587	5948
742.0128	5928
744.4359	5779
746.8604	5745
749.2841	5813
751.7073	5857
754.1278	5941
756.5496	5905
758.9688	6034
761.3893	5910
763.8093	5985
766.2285	5977
768.6451	5990
771.0611	5907
773.4784	6068
775.895	6115
778.3091	5989
780.7244	6046
783.1371	5980
785.5493	6062
787.9626	6019
790.3754	6026
792.7856	6087
795.1951	6006
797.6039	6047
800.0121	6032
802.4236	5906
804.8306	6126
807.2369	6103
809.6425	6056
812.0475	6090
814.4538	6070
816.8575	6050
819.2606	6074
821.663	6061
824.0648	6191
826.4659	6000
828.8683	6060
831.2682	5936
833.6674	6095
836.066	6145
838.4639	6137
840.8632	6097
843.2579	6186
845.6539	6241
848.0493	6211
850.444	6102
852.84	6163
855.2315	6161
857.6243	6299
860.0165	6248
862.4081	6199
864.797	6198
867.1892	6267
869.5789	6213
871.9659	6312
874.3542	6288
876.74	6216
879.129	6261
881.5155	6155
883.8994	6087
886.2845	6217
888.6671	6232
891.051	6170
893.4343	6170
895.8169	6225
898.197	6209
900.5783	6242
902.9571	6127
905.3372	6162
907.7167	6104
910.0936	6219
912.4698	6340
914.8474	6413
917.2244	6467
919.5987	6378
921.9744	6261
924.3475	6390
926.72	6500
929.0918	6472
931.4669	6410
933.8375	6342
936.2074	6460
938.5767	6629
940.9454	6658
943.3154	6733
945.6829	6779
948.0497	6774
950.4178	7166
952.7833	7184
955.1483	7374
957.5145	7605
959.8782	7644
962.2412	7693
964.6036	7553
966.9655	7432
969.3266	7039
971.6871	6841
974.0471	6718
976.4064	6540
978.765	6575
981.125	6466
983.4824	6444
985.8373	6334
988.1935	6324
990.549	6323
992.9039	6363
995.2602	6367
997.6119	6359
999.965	6528
1002.317	6445
1004.667	6381
1007.02	6493
1009.371	6423
1011.719	6405
1014.068	6414
1016.415	6467
1018.765	6457
1021.111	6484
1023.458	6433
1025.804	6472
1028.147	6509
1030.49	6466
1032.837	6429
1035.179	6551
1037.522	6492
1039.862	6549
1042.204	6508
1044.546	6586
1046.884	6546
1049.224	6486
1051.562	6531
1053.899	6563
1056.237	6593
1058.575	6541
1060.91	6557
1063.244	6646
1065.58	6595
1067.913	6579
1070.248	6728
1072.579	6558
1074.911	6751
1077.242	6698
1079.572	6583
1081.905	6612
1084.234	6641
1086.562	6610
1088.89	6434
1091.217	6615
1093.544	6508
1095.871	6599
1098.197	6595
1100.521	6619
1102.845	6511
1105.169	6589
1107.491	6676
1109.814	6649
1112.135	6695
1114.456	6624
1116.776	6540
1119.096	6515
1121.415	6609
1123.734	6628
1126.052	6607
1128.369	6613
1130.686	6607
1133.002	6529
1135.318	6572
1137.632	6652
1139.945	6654
1142.258	6600
1144.573	6557
1146.884	6535
1149.196	6573
1151.505	6565
1153.816	6656
1156.124	6467
1158.435	6652
1160.742	6675
1163.051	6586
1165.356	6589
1167.663	6642
1169.97	6595
1172.276	6556
1174.579	6569
1176.881	6525
1179.186	6703
1181.487	6582
1183.79	6632
1186.092	6666
1188.392	6643
1190.691	6576
1192.991	6521
1195.291	6580
1197.588	6738
1199.885	6717
1202.181	6595
1204.479	6613
1206.775	6615
1209.07	6657
1211.363	6777
1213.656	6619
1215.949	6586
1218.241	6707
1220.534	6740
1222.825	6650
1225.115	6662
1227.405	6704
1229.693	6919
1231.984	6847
1234.271	6739
1236.558	6851
1238.845	6819
1241.131	6749
1243.416	6905
1245.703	6785
1247.987	6852
1250.269	6876
1252.552	6905
1254.834	6886
1257.118	6967
1259.399	6928
1261.678	6800
1263.958	6899
1266.237	6853
1268.516	6879
1270.794	6846
1273.072	6959
1275.347	6829
1277.624	6890
1279.899	6820
1282.175	6819
1284.449	6798
1286.722	6787
1288.995	6849
1291.266	6801
1293.54	6900
1295.81	6784
1298.081	6731
1300.35	6817
1302.62	6739
1304.889	6721
1307.156	6747
1309.425	6796
1311.69	6822
1313.957	6796
1316.222	6815
1318.488	6786
1320.751	6809
1323.016	6779
1325.278	6810
1327.54	6832
1329.803	6847
1332.065	6789
1334.325	6784
1336.584	6827
1338.843	6870
1341.101	6842
1343.36	6773
1345.617	6826
1347.876	6881
1350.131	6771
1352.387	6794
1354.643	6823
1356.897	6816
1359.151	6816
1361.403	6847
1363.656	6657
1365.909	6822
1368.16	6857
1370.409	6854
1372.659	6948
1374.909	6804
1377.157	6837
1379.407	6953
1381.655	6835
1383.9	6855
1386.147	6921
1388.393	6995
1390.64	6919
1392.885	6835
1395.127	6959
1397.37	6888
1399.614	6909
1401.854	6989
1404.098	6942
1406.339	6994
1408.578	6950
1410.818	6911
1413.056	7022
1415.297	6837
1417.533	6963
1419.771	6945
1422.006	6979
1424.243	6902
1426.479	7011
1428.715	7028
1430.948	7111
1433.182	7046
1435.414	7011
1437.647	7037
1439.88	7283
1442.11	6983
1444.342	7117
1446.571	7096
1448.799	7214
1451.029	7258
1453.258	7273
1455.485	6986
1457.711	7056
1459.937	7177
1462.164	7016
1464.39	7200
1466.614	7174
1468.838	7075
1471.06	7134
1473.283	7060
1475.506	7080
1477.727	7014
1479.949	6942
1482.169	6915
1484.389	6952
1486.609	6982
1488.828	7005
1491.045	6779
1493.261	6872
1495.477	6914
1497.693	6870
1499.91	6945
1502.125	6847
1504.339	6771
1506.553	6880
1508.766	6855
1510.979	6913
1513.191	6827
1515.402	6809
1517.613	6926
1519.823	6861
1522.033	6882
1524.242	6908
1526.451	6881
1528.657	6798
1530.865	6874
1533.072	6737
1535.278	6857
1537.484	6980
1539.687	6914
1541.892	6921
1544.096	6885
1546.299	6910
1548.502	6944
1550.703	6974
1552.905	6822
1555.104	6919
1557.303	6896
1559.505	6903
1561.703	7047
1563.902	7001
1566.099	7047
1568.295	6917
1570.494	7049
1572.689	7013
1574.883	7013
1577.079	6932
1579.272	6987
1581.467	7051
1583.659	7071
1585.853	7084
1588.044	7011
1590.234	6971
1592.424	7071
1594.615	7126
1596.806	7066
1598.994	7041
1601.182	7109
1603.369	7096
1605.557	7031
1607.744	7168
1609.929	7207
1612.114	7232
1614.298	7124
1616.482	7300
1618.667	7169
1620.85	7054
1623.032	7154
1625.214	7010
1627.395	7093
1629.575	7109
1631.755	7252
1633.935	7153
1636.114	7279
1638.292	7170
1640.471	7161
1642.647	7099
1644.823	7157
1647	7225
1649.175	7220
1651.348	7215
1653.525	7307
1655.698	7209
1657.87	7163
1660.043	7354
1662.213	7345
1664.387	7186
1666.558	7382
1668.727	7236
1670.896	7324
1673.064	7298
1675.233	7290
1677.401	7347
1679.569	7264
1681.735	7225
1683.902	7116
1686.066	7254
1688.233	7275
1690.397	7325
1692.559	7271
1694.723	7258
1696.885	7081
1699.048	7160
1701.21	7196
1703.37	7197
1705.53	7239
1707.689	7200
1709.849	7025
1712.009	7185
1714.166	7216
1716.323	7082
1718.479	7084
1720.634	7076
1722.793	7176
1724.948	7036
1727.102	7132
1729.255	7128
1731.408	7143
1733.562	7176
1735.714	7097
1737.865	7106
1740.016	7185
1742.166	7053
1744.316	7185
1746.467	7105
1748.616	7183
1750.764	7034
1752.911	7162
1755.056	7134
1757.205	7187
1759.35	7137
1761.496	7227
1763.641	7275
1765.785	7211
1767.927	7212
1770.072	7275
1772.214	7146
1774.355	7265
1776.496	7207
1778.637	7117
1780.778	7243
1782.918	7245
1785.057	7334
1787.194	7333
1789.333	7208
1791.472	7371
1793.608	7195
1795.745	7252
1797.879	7278
1800.015	7263
1802.148	7223
1804.284	7184
1806.417	7250
1808.548	7200
1810.682	7060
1812.812	7307
1814.946	7258
1817.075	7211
1819.205	7365
1821.335	7154
1823.463	7288
1825.59	7386
1827.721	7276
1829.847	7190
1831.973	7272
1834.098	7151
1836.223	7129
1838.351	7261
1840.475	7178
1842.598	7207
1844.721	7313
1846.843	7179
1848.966	7136
1851.087	7289
1853.21	7114
1855.33	7159
1857.449	7227
1859.568	7091
1861.688	7164
1863.806	7107
1865.924	7258
1868.039	7098
1870.155	7260
1872.273	7249
1874.388	7058
1876.503	7030
1878.617	7075
1880.73	7242
1882.844	7244
1884.956	7262
1887.068	7209
1889.18	7192
1891.291	7262
1893.4	7270
1895.511	7224
1897.621	7036
1899.73	7377
1901.837	7259
1903.944	7326
1906.053	7307
1908.159	7230
1910.265	7335
1912.369	7320
1914.474	7305
1916.577	7295
1918.683	7201
1920.785	7229
1922.888	7251
1924.989	7295
1927.091	7355
1929.193	7388
1931.294	7305
1933.393	7281
1935.493	7119
1937.59	7336
1939.689	7339
1941.788	7313
1943.884	7375
1945.98	7293
1948.077	7238
1950.171	7301
1952.267	7382
1954.361	7270
1956.455	7366
1958.548	7372
1960.64	7287
1962.733	7314
1964.824	7378
1966.915	7297
1969.005	7238
1971.096	7320
1973.185	7296
1975.275	7278
1977.363	7326
1979.45	7389
1981.537	7339
1983.623	7143
1985.711	7439
1987.796	7329
1989.881	7206
1991.965	7300
1994.047	7264
1996.132	7299
1998.215	7221
2000.297	7370
2002.378	7189
2004.46	7148
2006.54	7301
2008.62	7304
2010.7	7277
2012.779	7283
2014.858	7119
2016.934	7174
2019.013	7246
2021.09	7216
2023.165	7260
2025.241	7230
2027.317	7215
2029.39	7093
2031.466	7146
2033.538	7252
2035.612	7232
2037.683	7154
2039.755	7269
2041.827	7323
2043.898	7229
2045.968	7236
2048.038	7136
2050.106	7288
2052.177	7228
2054.244	7375
2056.313	7229
2058.379	7231
2060.444	7383
2062.511	7304
2064.577	7117
2066.641	7209
2068.705	7241
2070.77	7233
2072.832	7172
2074.896	7361
2076.958	7406
2079.02	7270
2081.081	7235
2083.141	7308
2085.2	7332
2087.261	7293
2089.319	7384
2091.377	7286
2093.435	7367
2095.492	7166
2097.552	7338
2099.607	7323
2101.663	7341
2103.718	7244
2105.771	7293
2107.826	7378
2109.879	7216
2111.932	7283
2113.985	7339
2116.037	7234
2118.088	7244
2120.141	7216
2122.191	7398
2124.239	7188
2126.288	7292
2128.337	7305
2130.387	7273
2132.434	7310
2134.481	7206
2136.528	7397
2138.574	7261
2140.618	7327
2142.665	7303
2144.71	7120
2146.753	7210
2148.797	7108
2150.838	7234
2152.883	7309
2154.923	7285
2156.965	7209
2159.007	7249
2161.046	7281
2163.086	7263
2165.126	7150
2167.163	7225
2169.202	7202
2171.239	7121
2173.277	7220
2175.314	7076
2177.349	7196
2179.385	7327
2181.42	7189
2183.453	7141
2185.49	7216
2187.522	7270
2189.555	7089
2191.586	7300
2193.619	7207
2195.651	7211
2197.682	7116
2199.711	7216
2201.74	7179
2203.769	7104
2205.799	7001
2207.828	7065
2209.855	7195
2211.882	7214
2213.908	7129
2215.934	7171
2217.961	7250
2219.986	7158
2222.01	7220
2224.034	7208
2226.057	7183
2228.08	7158
2230.104	7074
2232.124	7133
2234.145	7108
2236.166	7010
2238.186	7144
2240.207	7154
2242.227	7194
2244.244	7041
2246.262	7000
2248.28	7053
2250.299	7091
2252.314	7168
2254.33	7188
2256.346	7068
2258.36	6992
2260.375	7106
2262.391	7144
2264.403	7123
2266.416	7146
2268.427	7197
2270.44	6994
2272.453	7148
2274.463	7197
2276.474	7128
2278.483	7185
2280.493	7147
2282.501	7168
2284.51	7177
2286.518	7192
2288.524	7149
2290.532	7086
2292.537	7128
2294.544	7138
2296.55	7186
2298.554	7171
2300.557	7075
2302.562	7110
2304.566	7114
2306.568	7136
2308.569	7122
2310.572	7143
2312.573	7075
2314.573	7115
2316.574	7058
2318.573	7188
2320.571	7052
2322.571	7123
2324.569	7081
2326.567	7095
2328.564	6964
2330.56	6982
2332.556	7177
2334.551	7007
2336.546	6944
2338.542	7056
2340.535	7008
2342.529	7021
2344.521	7129
2346.512	7007
2348.505	7020
2350.497	7128
2352.487	6986
2354.478	7063
2356.468	6972
2358.457	6947
2360.446	6931
2362.434	7004
2364.422	7039
2366.408	6895
2368.395	6955
2370.383	6857
2372.369	6926
2374.353	7058
2376.338	6950
2378.321	7136
2380.307	7086
2382.29	7000
2384.272	6825
2386.254	7024
2388.235	6953
2390.218	7031
2392.198	6877
2394.179	6970
2396.157	6976
2398.137	7000
2400.115	6872
2402.095	6966
2404.072	6978
2406.048	6862
2408.026	6936
2410.001	6889
2411.977	6873
2413.953	6884
2415.927	6916
2417.9	6953
2419.875	6882
2421.847	6820
2423.821	7008
2425.792	7026
2427.763	7004
2429.736	6819
2431.706	6927
2433.677	6971
2435.646	6883
2437.615	6906
2439.583	6784
2441.551	6767
2443.519	6910
2445.486	6855
2447.452	6925
2449.418	6830
2451.383	6957
2453.348	6830
2455.314	6924
2457.278	6814
2459.241	6891
2461.205	6842
2463.167	6796
2465.131	6786
2467.091	6861
2469.052	6874
2471.012	6935
2472.972	6959
2474.932	6785
2476.891	6843
2478.85	6959
2480.808	6789
2482.766	6878
2484.722	6895
2486.68	6795
2488.636	6908
2490.591	6818
2492.546	6771
2494.5	6815
2496.456	6860
2498.41	6864
2500.362	6765
2502.315	6750
2504.266	6847
2506.218	6902
2508.169	6763
2510.121	6790
2512.07	6825
2514.019	6841
2515.968	6784
2517.918	6743
2519.866	6784
2521.813	6778
2523.76	6809
2525.707	6859
2527.653	6703
2529.599	6704
2531.543	6672
2533.489	6787
2535.433	6776
2537.376	6829
2539.32	6697
2541.264	6809
2543.205	6785
2545.147	6814
2547.087	6686
2549.029	6856
2550.969	6783
2552.908	6772
2554.847	6891
2556.786	6770
2558.724	6819
2560.663	6795
2562.6	6862
2564.537	6849
2566.473	6842
2568.408	6819
2570.345	6729
2572.28	6812
2574.214	6733
2576.148	6817
2578.081	6808
2580.014	6766
2581.947	6815
2583.879	6932
2585.81	6810
2587.741	6827
2589.67	6780
2591.602	6814
2593.532	6773
2595.461	6776
2597.388	6842
2599.316	6794
2601.244	6674
2603.172	6872
2605.098	6833
2607.023	6787
2608.949	6767
2610.873	6795
2612.8	6746
2614.723	6830
2616.647	6753
2618.569	6901
2620.493	6785
2622.416	6830
2624.338	7072
2626.258	6837
2628.179	6841
2630.099	6949
2632.019	6892
2633.939	6812
2635.857	6798
2637.775	6869
2639.694	6833
2641.61	6771
2643.528	6903
2645.444	6900
2647.361	6792
2649.276	6859
2651.19	6811
2653.105	6872
2655.019	6789
2656.934	6788
2658.846	6779
2660.758	6803
2662.67	6853
2664.583	6745
2666.493	6754
2668.404	6889
2670.313	6821
2672.223	6728
2674.134	6859
2676.042	6899
2677.95	6799
2679.858	6858
2681.765	6747
2683.673	6747
2685.579	6710
2687.483	6807
2689.389	6782
2691.294	6702
2693.198	6714
2695.104	6714
2697.006	6771
2698.909	6783
2700.811	6664
2702.713	6722
2704.615	6761
2706.516	6573
2708.417	6872
2710.316	6732
2712.216	6715
2714.115	6763
2716.014	6745
2717.913	6614
2719.81	6608
2721.707	6673
2723.603	6681
2725.501	6771
2727.396	6767
2729.292	6676
2731.186	6795
2733.081	6762
2734.976	6744
2736.87	6703
2738.762	6718
2740.653	6629
2742.546	6725
2744.437	6609
2746.329	6694
2748.22	6762
2750.11	6624
2751.999	6684
2753.889	6710
2755.778	6622
2757.666	6706
2759.553	6683
2761.44	6784
2763.328	6623
2765.215	6756
2767.101	6530
2768.986	6664
2770.87	6611
2772.754	6583
2774.638	6722
2776.523	6638
2778.405	6687
2780.288	6781
2782.17	6699
2784.051	6607
2785.934	6669
2787.814	6628
2789.694	6721
2791.574	6603
2793.453	6581
2795.332	6731
2797.212	6560
2799.088	6614
2800.966	6647
2802.843	6568
2804.719	6494
2806.597	6703
2808.471	6576
2810.346	6658
2812.221	6677
2814.094	6626
2815.969	6666
2817.843	6605
2819.714	6662
2821.587	6498
2823.459	6599
2825.329	6666
2827.202	6563
2829.072	6650
2830.942	6807
2832.811	6686
2834.68	6673
2836.549	6533
2838.418	6548
2840.284	6723
2842.152	6612
2844.018	6645
2845.885	6556
2847.751	6645
2849.616	6580
2851.482	6677
2853.345	6670
2855.208	6639
2857.074	6643
2858.937	6719
2860.799	6684
2862.66	6763
2864.522	6696
2866.385	6758
2868.245	6880
2870.104	6947
2871.964	6804
2873.824	6884
2875.683	6952
2877.542	6902
2879.4	6978
2881.257	7015
2883.114	6973
2884.97	7042
2886.827	7073
2888.683	7055
2890.537	7266
2892.392	7012
2894.246	7090
2896.1	7059
2897.954	7030
2899.807	7052
2901.66	7013
2903.51	7016
2905.362	7125
2907.214	6978
2909.065	7065
2910.915	7087
2912.765	6994
2914.613	7158
2916.463	7246
2918.311	7129
2920.158	7204
2922.006	7182
2923.853	7343
2925.698	7195
2927.546	7391
2929.392	7370
2931.236	7427
2933.081	7595
2934.924	7651
2936.77	7631
2938.613	7655
2940.455	7656
2942.298	7772
2944.139	7686
2945.982	7652
2947.823	7712
2949.662	7652
2951.503	7609
2953.342	7498
2955.182	7490
2957.021	7454
2958.858	7481
2960.697	7491
2962.534	7316
2964.37	7315
2966.207	7309
2968.044	7223
2969.879	7148
2971.714	7184
2973.548	7114
2975.383	7116
2977.218	7192
2979.051	7160
2980.883	6956
2982.715	7011
2984.547	7011
2986.379	6997
2988.21	6910
2990.04	7015
2991.87	6793
2993.7	6964
2995.53	6870
2997.359	6853
2999.187	6890
3001.015	6690
3002.842	6735
3004.669	6695
3006.497	6643
3008.323	6589
3010.148	6525
3011.974	6547
3013.797	6575
3015.623	6380
3017.447	6506
3019.27	6341
3021.094	6561
3022.915	6471
3024.737	6404
3026.56	6350
3028.38	6410
3030.201	6403
3032.022	6435
3033.84	6391
3035.662	6263
3037.481	6283
3039.298	6365
3041.117	6309
3042.933	6316
3044.752	6301
3046.568	6350
3048.385	6196
3050.2	6211
3052.016	6283
3053.83	6156
3055.646	6333
3057.46	6263
3059.272	6350
3061.086	6355
3062.898	6230
3064.711	6247
3066.524	6281
3068.335	6348
3070.145	6273
3071.956	6271
3073.766	6252
3075.576	6144
3077.385	6226
3079.193	6297
3081.002	6172
3082.81	6135
3084.618	6201
3086.425	6173
3088.231	6128
3090.036	5994
3091.842	6171
3093.648	6286
3095.452	6199
3097.257	6200
3099.06	6121
3100.863	6051
3102.666	6179
3104.47	6056
3106.272	6072
3108.073	6173
3109.875	5923
3111.676	6024
3113.477	6101
3115.277	6111
3117.077	6017
3118.874	5951
3120.673	6014
3122.473	5994
3124.271	6061
3126.066	6011
3127.863	5992
3129.66	5991
3131.456	5882
3133.252	6071
3135.047	6020
3136.842	6007
3138.635	6019
3140.429	5890
3142.223	5820
3144.016	6037
3145.808	5976
3147.6	5974
3149.392	6027
3151.183	6080
3152.975	5940
3154.765	5896
3156.553	6013
3158.344	5874
3160.132	5971
3161.922	5987
3163.71	5961
3165.497	5921
3167.285	5956
3169.071	5946
3170.858	5913
3172.645	5910
3174.429	5993
3176.214	5969
3177.998	5912
3179.783	5890
3181.568	5839
3183.351	5925
3185.133	5854
3186.915	5996
3188.698	5874
3190.481	5881
3192.261	5936
3194.042	5895
3195.822	5863
3197.601	5887
3199.381	5830
3201.161	6095
3202.939	5829
3204.717	5866
3206.495	5914
3208.272	5753
3210.05	5867
3211.826	5828
3213.602	5896
3215.376	5823
3217.151	5915
3218.927	5805
3220.702	5839
3222.476	5922
3224.249	5803
3226.021	5832
3227.793	5888
3229.567	5913
3231.339	5812
3233.109	5879
3234.88	5757
3236.651	5791
3238.421	5778
3240.191	5894
3241.96	5802
3243.728	5833
3245.497	5787
3247.263	5823
3249.033	5785
3250.799	5820
3252.566	5719
3254.331	5783
3256.097	5733
3257.863	5722
3259.628	5764
3261.392	5912
3263.156	5841
3264.919	5858
3266.683	5932
3268.447	5748
3270.208	5791
3271.969	5787
3273.731	5761
3275.492	5865
3277.253	5811
3279.013	5828
3280.773	5853
3282.532	5826
3284.291	5824
3286.05	5753
3287.808	5796
3289.566	5810
3291.323	5808
3293.079	5690
3294.835	5795
3296.593	5821
3298.348	5771
3300.102	5788
3301.857	5903
3303.611	5769
3305.366	5838
3307.119	5720
3308.872	5827
3310.624	5910
3312.376	5734
3314.129	5815
3315.881	5856
3317.631	5775
3319.38	5744
3321.13	5862
3322.88	5915
3324.631	5781
3326.379	5825
3328.126	5827
3329.875	5738
3331.622	5753
3333.371	5827
3335.116	5780
3336.863	5768
3338.609	5808
3340.353	5861
3342.1	5835
3343.845	5764
3345.588	5733
3347.332	5741
3349.074	5678
3350.817	5755
3352.56	5744
3354.303	5723
3356.043	5775
3357.785	5705
3359.525	5778
3361.268	5721
3363.007	5783
3364.745	5680
3366.485	5776
3368.223	5705
3369.962	5626
3371.701	5703
3373.438	5666
3375.174	5643
3376.911	5682
3378.647	5665
3380.384	5620
3382.118	5678
3383.854	5585
3385.588	5656
3387.322	5775
3389.057	5628
3390.79	5557
3392.522	5574
3394.255	5657
3395.987	5644
3397.719	5700
3399.451	5593
3401.181	5653
3402.911	5626
3404.641	5645
3406.371	5624
3408.101	5674
3409.83	5629
3411.558	5647
3413.285	5527
3415.011	5523
3416.739	5627
3418.467	5545
3420.193	5588
3421.919	5574
3423.644	5527
3425.368	5608
3427.094	5584
3428.818	5573
3430.542	5519
3432.264	5598
3433.987	5470
3435.712	5511
3437.434	5556
3439.155	5598
3440.876	5474
3442.596	5512
3444.317	5576
3446.039	5568
3447.757	5331
3449.477	5439
3451.195	5492
3452.914	5480
3454.632	5402
3456.35	5409
3458.067	5429
3459.784	5377
3461.5	5445
3463.216	5400
3464.932	5491
3466.647	5410
3468.362	5489
3470.076	5366
3471.789	5407
3473.505	5430
3475.217	5365
3476.929	5440
3478.641	5320
3480.354	5391
3482.066	5375
3483.777	5326
3485.487	5282
3487.197	5330
3488.908	5275
3490.617	5282
3492.327	5371
3494.035	5294
3495.743	5296
3497.451	5352
3499.158	5343
3500.866	5311
3502.572	5163
3504.278	5285
3505.984	5321
3507.689	5188
3509.396	5322
3511.1	5151
3512.804	5359
3514.508	5214
3516.211	5208
3517.913	5305
3519.616	5257
3521.319	5242
3523.021	5236
3524.722	5218
3526.422	5287
3528.124	5230
3529.824	5172
3531.524	5223
3533.222	5163
3534.921	5292
3536.62	5231
3538.318	5107
3540.016	5281
3541.714	5234
3543.41	5200
3545.107	5246
3546.803	5174
3548.5	5186
3550.194	5167
3551.889	5122
3553.583	5213
3555.279	5156
3556.972	5201
3558.666	5164
3560.358	5126
3562.051	5131
3563.742	5203
3565.435	5023
3567.126	5228
3568.817	5156
3570.507	5133
3572.197	5120
3573.888	5135
3575.577	4985
3577.265	5052
3578.954	5199
3580.642	5154
3582.329	5175
3584.017	5044
3585.704	5057
3587.391	5161
3589.077	5049
3590.762	5004
3592.449	4971
3594.133	4979
3595.817	4981
3597.501	5049
3599.185	5088
3600.869	4964
3602.552	4963
3604.234	4977
3605.916	5039
3607.598	4990
3609.279	5032
3610.961	4965
3612.642	5010
3614.321	4937
3616	4919
3617.68	5042
3619.36	4853
3621.039	4947
3622.716	4921
3624.394	4961
3626.071	4887
3627.748	4889
3629.425	4977
3631.102	4974
3632.778	4866
3634.452	4869
3636.127	4933
3637.803	4837
3639.477	4900
3641.151	4814
3642.823	4924
3644.497	4856
3646.171	4791
3647.842	4978
3649.515	4838
3651.185	4820
3652.857	4749
3654.527	4791
3656.198	4787
3657.868	4793
3659.537	4769
3661.207	4911
3662.875	4712
3664.544	4734
3666.212	4899
3667.879	4769
3669.546	4883
3671.212	4720
3672.88	4858
3674.546	4797
3676.211	4691
3677.875	4819
3679.541	4707
3681.205	4734
3682.87	4814
3684.533	4815
3686.196	4766
3687.859	4688
3689.521	4648
3691.184	4734
3692.845	4751
3694.507	4703
3696.167	4692
3697.827	4820
3699.487	4767
3701.148	4786
3702.808	4739
3704.466	4831
3706.125	4723
3707.783	4577
3709.442	4728
3711.099	4738
3712.757	4682
3714.412	4767
3716.068	4682
3717.725	4675
3719.381	4695
3721.036	4713
3722.689	4633
3724.344	4712
3725.998	4604
3727.652	4704
3729.305	4702
3730.958	4629
3732.61	4704
3734.262	4692
3735.915	4646
3737.565	4662
3739.217	4630
3740.866	4595
3742.516	4677
3744.165	4625
3745.816	4583
3747.464	4737
3749.113	4533
3750.761	4573
3752.409	4681
3754.057	4564
3755.703	4613
3757.35	4647
3758.996	4555
3760.641	4566
3762.289	4626
3763.933	4605
3765.577	4563
3767.222	4591
3768.865	4603
3770.508	4585
3772.152	4607
3773.796	4545
3775.438	4562
3777.079	4530
3778.721	4523
3780.363	4609
3782.003	4553
3783.643	4440
3785.283	4572
3786.923	4540
3788.563	4547
3790.203	4600
3791.841	4483
3793.479	4513
3795.115	4497
3796.753	4522
3798.391	4467
3800.027	4489
3801.664	4459
3803.299	4472
3804.935	4532
3806.571	4533
3808.206	4440
3809.839	4483
3811.473	4574
3813.107	4360
3814.74	4461
3816.375	4434
3818.006	4503
3819.638	4439
3821.27	4444
3822.9	4451
3824.532	4501
3826.163	4453
3827.792	4370
3829.423	4431
3831.051	4398
3832.682	4351
3834.311	4431
3835.938	4397
3837.566	4368
3839.193	4354
3840.821	4390
3842.448	4409
3844.075	4431
3845.7	4445
3847.325	4373
3848.951	4390
3850.576	4414
3852.201	4337
3853.825	4313
3855.448	4398
3857.072	4462
3858.694	4368
3860.318	4329
3861.939	4306
3863.562	4341
3865.183	4407
3866.804	4329
3868.426	4356
3870.045	4368
3871.666	4393
3873.285	4354
3874.904	4249
3876.524	4259
3878.142	4305
3879.76	4374
3881.378	4355
3882.995	4312
3884.612	4291
3886.229	4295
3887.845	4257
3889.461	4307
3891.076	4318
3892.691	4285
3894.307	4270
3895.922	4213
3897.536	4284
3899.149	4325
3900.761	4321
3902.374	4260
3903.988	4237
3905.6	4217
3907.212	4360
3908.822	4265
3910.433	4283
3912.045	4223
3913.655	4292
3915.265	4225
3916.875	4379
3918.483	4248
3920.093	4259
3921.702	4243
3923.309	4303
3924.917	4151
3926.523	4211
3928.13	4181
3929.739	4235
3931.344	4263
3932.95	4183
3934.555	4320
3936.159	4255
3937.766	4251
3939.369	4173
3940.974	4364
3942.577	4180
3944.181	4265
3945.783	4222
3947.386	4210
3948.989	4171
3950.59	4197
3952.191	4252
3953.791	4188
3955.394	4150
3956.994	4162
3958.593	4281
3960.192	4226
3961.791	4147
3963.392	4166
3964.99	4136
3966.588	4209
3968.185	4215
3969.782	4201
3971.379	4069
3972.976	4199
3974.572	4094
3976.168	4070
3977.763	4096
3979.358	4191
3980.954	4129
3982.548	4093
3984.142	4146
3985.736	4128
3987.329	4127
3988.922	4095
3990.516	4105
3992.108	4068
3993.698	4100
3995.29	4074
3996.881	4047
3998.473	4058
4000.064	4052
4001.653	3992
4003.242	4054
4004.832	4061
4006.422	4096
4008.01	3912
4009.598	4057
4011.186	4014
4012.773	3994
4014.36	4066
4015.947	4032
4017.534	4033
4019.119	4009
4020.705	4050
4022.291	3914
4023.876	4108
4025.461	3991
4027.044	4018
4028.627	4045
4030.211	3935
4031.795	3941
4033.378	3916
4034.96	3978
4036.542	3875
4038.124	3929
4039.704	3866
4041.286	3940
4042.867	3876
4044.447	4001
4046.026	3940
4047.606	3952
4049.187	3898
4050.765	3903
4052.343	3948
4053.92	3886
4055.498	3944
4057.076	3871
4058.654	3905
4060.23	3910
4061.806	3870
4063.381	3894
4064.957	3914
4066.533	3868
4068.107	3896
4069.682	3789
4071.256	3839
4072.829	3835
4074.404	3836
4075.977	3801
4077.549	3818
4079.121	3822
4080.693	3815
4082.265	3926
4083.836	3803
4085.407	3859
4086.977	3834
4088.547	3852
4090.117	3879
4091.687	3801
4093.256	3856
4094.825	3853
4096.392	3797
4097.96	3823
4099.528	3825
4101.097	3830
4102.663	3730
4104.229	3749
4105.795	3773
4107.361	3798
4108.928	3836
4110.493	3767
4112.058	3738
4113.621	3743
4115.186	3818
4116.75	3777
4118.313	3703
4119.876	3733
4121.438	3738
4123	3725
4124.562	3726
4126.125	3752
4127.686	3728
4129.246	3733
4130.807	3735
4132.367	3805
4133.927	3739
4135.486	3656
4137.046	3799
4138.604	3684
4140.162	3747
4141.72	3709
4143.279	3694
4144.836	3665
4146.393	3761
4147.949	3595
4149.505	3740
4151.062	3734
4152.617	3693
4154.172	3617
4155.727	3707
4157.281	3685
4158.836	3696
4160.39	3662
4161.943	3655
4163.496	3689
4165.048	3661
4166.601	3632
4168.154	3629
4169.706	3615
4171.257	3641
4172.808	3643
4174.358	3699
4175.909	3609
4177.458	3579
4179.008	3629
4180.558	3590
4182.106	3629
4183.655	3589
4185.204	3549
4186.751	3643
4188.298	3538
4189.845	3626
4191.392	3573
4192.939	3611
4194.485	3578
4196.031	3564
4197.576	3651
4199.121	3525
4200.666	3653
4202.211	3602
4203.754	3488
4205.298	3592
4206.84	3556
4208.384	3600
4209.927	3577
4211.47	3574
4213.011	3626
4214.552	3512
4216.094	3561
4217.635	3585
4219.175	3442
4220.716	3474
4222.255	3556
4223.793	3513
4225.335	3438
4226.873	3484
4228.411	3527
4229.948	3461
4231.486	3488
4233.024	3441
4234.562	3480
4236.098	3588
4237.634	3474
4239.169	3530
4240.705	3513
4242.241	3499
4243.776	3505
4245.31	3491
4246.844	3510
4248.378	3428
4249.911	3491
4251.445	3556
4252.978	3484
4254.51	3456
4256.042	3527
4257.574	3454
4259.107	3461
4260.638	3474
4262.169	3450
4263.699	3485
4265.228	3502
4266.759	3494
4268.289	3383
4269.818	3435
4271.345	3472
4272.874	3448
4274.402	3533
4275.931	3377
4277.458	3383
4278.985	3417
4280.512	3411
4282.037	3360
4283.564	3433
4285.089	3466
4286.615	3434
4288.139	3417
4289.664	3366
4291.187	3371
4292.712	3446
4294.235	3418
4295.759	3403
4297.281	3409
4298.804	3383
4300.327	3408
4301.849	3380
4303.37	3338
4304.891	3389
4306.412	3235
4307.933	3345
4309.453	3364
4310.973	3288
4312.492	3304
