398.1873	2889
400.7097	2932
403.2336	2928
405.7547	2940
408.2751	2844
410.7948	2965
413.3138	2940
415.83	3021
418.3497	2996
420.8666	3066
423.3829	3084
425.8985	3037
428.4133	3034
430.9275	3062
433.441	3165
435.9538	3075
438.4639	3081
440.9753	3077
443.4881	3084
445.9982	3132
448.5055	3056
451.0142	3094
453.5201	3080
456.0274	3175
458.5361	3090
461.04	3109
463.5453	3089
466.0478	3083
468.5517	3088
471.0549	3081
473.5574	3124
476.0572	3168
478.5584	3131
481.0568	3084
483.5545	3114
486.0557	3127
488.5521	3175
491.0478	3170
493.5449	3198
496.0392	3168
498.5349	3223
501.0299	3185
503.5222	3199
506.0139	3168
508.5048	3178
510.9991	3190
513.4887	3138
515.9777	3162
518.4659	3272
520.9534	3228
523.4403	3249
525.9306	3271
528.4161	3146
530.9009	3262
533.3851	3165
535.8687	3252
538.3535	3227
540.8356	3240
543.3171	3228
545.7979	3223
548.278	3276
550.7595	3227
553.2383	3274
555.7144	3170
558.1918	3213
560.6685	3238
563.1446	3216
565.6221	3323
568.0968	3270
570.5688	3234
573.0422	3271
575.515	3352
577.989	3316
580.4584	3342
582.9291	3335
585.3991	3340
587.8685	3307
590.3352	3392
592.8052	3286
595.2706	3353
597.7372	3380
600.2033	3297
602.6666	3364
605.1334	3391
607.5953	3304
610.0587	3278
612.5193	3284
614.9814	3359
617.4427	3176
619.9034	3299
622.3615	3321
624.8208	3286
627.2775	3278
629.7335	3298
632.1929	3321
634.6476	3337
637.1016	3328
639.5569	3229
642.0096	3292
644.4637	3332
646.9151	3339
649.3678	3340
651.8179	3280
654.2672	3389
656.7159	3328
659.166	3365
661.6154	3391
664.0622	3396
666.5082	3336
668.9537	3420
671.4005	3333
673.8445	3340
676.288	3389
678.7308	3392
681.1729	3414
683.6163	3466
686.0572	3358
688.4973	3420
690.9368	3382
693.3757	3365
695.8138	3349
698.2534	3358
700.6902	3455
703.1245	3475
705.56	3460
707.9949	3417
710.4311	3554
712.8647	3521
715.2957	3468
717.7279	3476
720.1595	3413
722.5905	3517
725.0208	3446
727.4505	3504
729.8795	3524
732.3058	3495
734.7336	3545
737.1626	3523
739.587	3569
742.0128	3537
744.4359	3562
746.8604	3515
749.2841	3553
751.7073	3649
754.1278	3522
756.5496	3591
758.9688	3643
761.3893	3632
763.8093	3506
766.2285	3666
768.6451	3682
771.0611	3661
773.4784	3624
775.895	3624
778.3091	3663
780.7244	3716
783.1371	3624
785.5493	3584
787.9626	3631
790.3754	3650
792.7856	3647
795.1951	3573
797.6039	3591
800.0121	3571
802.4236	3626
804.8306	3646
807.2369	3616
809.6425	3591
812.0475	3722
814.4538	3661
816.8575	3662
819.2606	3760
821.663	3642
824.0648	3662
826.4659	3723
828.8683	3637
831.2682	3697
833.6674	3642
836.066	3685
838.4639	3805
840.8632	3656
843.2579	3740
845.6539	3787
848.0493	3735
850.444	3780
852.84	3839
855.2315	3742
857.6243	3746
860.0165	3700
862.4081	3731
864.797	3768
867.1892	3794
869.5789	3812
871.9659	3776
874.3542	3785
876.74	3816
879.129	3685
881.5155	3761
883.8994	3765
886.2845	3780
888.6671	3779
891.051	3865
893.4343	3704
895.8169	3753
898.197	3640
900.5783	3713
902.9571	3751
905.3372	3795
907.7167	3786
910.0936	3766
912.4698	3823
914.8474	3907
917.2244	3818
919.5987	3954
921.9744	3895
924.3475	3805
926.72	3937
929.0918	3932
931.4669	3954
933.8375	3859
936.2074	3973
938.5767	3925
940.9454	3923
943.3154	3984
945.6829	4112
948.0497	4263
950.4178	4358
952.7833	4460
955.1483	4572
957.5145	4735
959.8782	4848
962.2412	4838
964.6036	4728
966.9655	4596
969.3266	4447
971.6871	4199
974.0471	4085
976.4064	4053
978.765	4040
981.125	3877
983.4824	3984
985.8373	3832
988.1935	3832
990.549	3903
992.9039	3929
995.2602	3856
997.6119	3842
999.965	3828
1002.317	3919
1004.667	3912
1007.02	3976
1009.371	3969
1011.719	3901
1014.068	3958
1016.415	3887
1018.765	3942
1021.111	3902
1023.458	3911
1025.804	3950
1028.147	3960
1030.49	3970
1032.837	4041
1035.179	3966
1037.522	3989
1039.862	4010
1042.204	4048
1044.546	4024
1046.884	4130
1049.224	4024
1051.562	3981
1053.899	3997
1056.237	4026
1058.575	3954
1060.91	4032
1063.244	4052
1065.58	3990
1067.913	4081
1070.248	4106
1072.579	4094
1074.911	4040
1077.242	4057
1079.572	4025
1081.905	3985
1084.234	3997
1086.562	4048
1088.89	3950
1091.217	4071
1093.544	4020
1095.871	4029
1098.197	4107
1100.521	4030
1102.845	4027
1105.169	4012
1107.491	3999
1109.814	4016
1112.135	3971
1114.456	3965
1116.776	3936
1119.096	4028
1121.415	3983
1123.734	3964
1126.052	3995
1128.369	3982
1130.686	4086
1133.002	4039
1135.318	3982
1137.632	4042
1139.945	4024
1142.258	4007
1144.573	3988
1146.884	4007
1149.196	4038
1151.505	4027
1153.816	3936
1156.124	4043
1158.435	3967
1160.742	4065
1163.051	4038
1165.356	4043
1167.663	4073
1169.97	4023
1172.276	4031
1174.579	4017
1176.881	4045
1179.186	3987
1181.487	4041
1183.79	4084
1186.092	4074
1188.392	4030
1190.691	4015
1192.991	4080
1195.291	4008
1197.588	4050
1199.885	4062
1202.181	4042
1204.479	4034
1206.775	4055
1209.07	4053
1211.363	4081
1213.656	4034
1215.949	4079
1218.241	4084
1220.534	4049
1222.825	4021
1225.115	4118
1227.405	4029
1229.693	4072
1231.984	4094
1234.271	4208
1236.558	4079
1238.845	4127
1241.131	4255
1243.416	4098
1245.703	4178
1247.987	4210
1250.269	4172
1252.552	4210
1254.834	4211
1257.118	4191
1259.399	4217
1261.678	4148
1263.958	4187
1266.237	4148
1268.516	4150
1270.794	4189
1273.072	4190
1275.347	4170
1277.624	4179
1279.899	4169
1282.175	4201
1284.449	4109
1286.722	4131
1288.995	4148
1291.266	4121
1293.54	4090
1295.81	4137
1298.081	4209
1300.35	4173
1302.62	4043
1304.889	4043
1307.156	4110
1309.425	4181
1311.69	4115
1313.957	4120
1316.222	4172
1318.488	4124
1320.751	4112
1323.016	4170
1325.278	4141
1327.54	4132
1329.803	4094
1332.065	4124
1334.325	4197
1336.584	4120
1338.843	4127
1341.101	4152
1343.36	4043
1345.617	4086
1347.876	4194
1350.131	4087
1352.387	4126
1354.643	4123
1356.897	4202
1359.151	4181
1361.403	4186
1363.656	4145
1365.909	4155
1368.16	4227
1370.409	4121
1372.659	4140
1374.909	4167
1377.157	4184
1379.407	4108
1381.655	4130
1383.9	4191
1386.147	4234
1388.393	4173
1390.64	4197
1392.885	4255
1395.127	4282
1397.37	4260
1399.614	4188
1401.854	4253
1404.098	4217
1406.339	4284
1408.578	4220
1410.818	4252
1413.056	4294
1415.297	4220
1417.533	4298
1419.771	4296
1422.006	4364
1424.243	4286
1426.479	4305
1428.715	4378
1430.948	4274
1433.182	4346
1435.414	4344
1437.647	4268
1439.88	4311
1442.11	4313
1444.342	4338
1446.571	4284
1448.799	4296
1451.029	4291
1453.258	4330
1455.485	4409
1457.711	4335
1459.937	4254
1462.164	4350
1464.39	4262
1466.614	4361
1468.838	4354
1471.06	4289
1473.283	4291
1475.506	4302
1477.727	4305
1479.949	4166
1482.169	4234
1484.389	4262
1486.609	4292
1488.828	4260
1491.045	4195
1493.261	4191
1495.477	4201
1497.693	4174
1499.91	4274
1502.125	4281
1504.339	4263
1506.553	4218
1508.766	4244
1510.979	4189
1513.191	4100
1515.402	4141
1517.613	4233
1519.823	4249
1522.033	4072
1524.242	4262
1526.451	4174
1528.657	4251
1530.865	4151
1533.072	4289
1535.278	4192
1537.484	4188
1539.687	4221
1541.892	4173
1544.096	4324
1546.299	4254
1548.502	4278
1550.703	4253
1552.905	4229
1555.104	4216
1557.303	4367
1559.505	4277
1561.703	4354
1563.902	4318
1566.099	4322
1568.295	4330
1570.494	4375
1572.689	4198
1574.883	4284
1577.079	4324
1579.272	4333
1581.467	4404
1583.659	4375
1585.853	4350
1588.044	4306
1590.234	4390
1592.424	4352
1594.615	4291
1596.806	4378
1598.994	4395
1601.182	4386
1603.369	4377
1605.557	4418
1607.744	4458
1609.929	4460
1612.114	4462
1614.298	4414
1616.482	4419
1618.667	4463
1620.85	4469
1623.032	4419
1625.214	4410
1627.395	4435
1629.575	4374
1631.755	4440
1633.935	4422
1636.114	4500
1638.292	4453
1640.471	4405
1642.647	4383
1644.823	4426
1647	4438
1649.175	4428
1651.348	4393
1653.525	4398
1655.698	4494
1657.87	4445
1660.043	4415
1662.213	4521
1664.387	4492
1666.558	4451
1668.727	4408
1670.896	4486
1673.064	4545
1675.233	4566
1677.401	4422
1679.569	4413
1681.735	4414
1683.902	4443
1686.066	4487
1688.233	4468
1690.397	4473
1692.559	4398
1694.723	4462
1696.885	4431
1699.048	4393
1701.21	4438
1703.37	4397
1705.53	4411
1707.689	4410
1709.849	4358
1712.009	4361
1714.166	4402
1716.323	4391
1718.479	4338
1720.634	4332
1722.793	4402
1724.948	4384
1727.102	4402
1729.255	4422
1731.408	4304
1733.562	4396
1735.714	4422
1737.865	4351
1740.016	4472
1742.166	4410
1744.316	4360
1746.467	4383
1748.616	4372
1750.764	4424
1752.911	4454
1755.056	4482
1757.205	4410
1759.35	4362
1761.496	4388
1763.641	4376
1765.785	4405
1767.927	4477
1770.072	4427
1772.214	4450
1774.355	4380
1776.496	4541
1778.637	4475
1780.778	4453
1782.918	4473
1785.057	4461
1787.194	4500
1789.333	4445
1791.472	4419
1793.608	4386
1795.745	4525
1797.879	4442
1800.015	4448
1802.148	4486
1804.284	4390
1806.417	4461
1808.548	4448
1810.682	4478
1812.812	4391
1814.946	4434
1817.075	4508
1819.205	4485
1821.335	4465
1823.463	4424
1825.59	4454
1827.721	4443
1829.847	4411
1831.973	4468
1834.098	4478
1836.223	4435
1838.351	4478
1840.475	4398
1842.598	4423
1844.721	4567
1846.843	4396
1848.966	4438
1851.087	4484
1853.21	4462
1855.33	4416
1857.449	4493
1859.568	4465
1861.688	4482
1863.806	4431
1865.924	4370
1868.039	4439
1870.155	4467
1872.273	4504
1874.388	4448
1876.503	4473
1878.617	4441
1880.73	4450
1882.844	4489
1884.956	4418
1887.068	4473
1889.18	4554
1891.291	4464
1893.4	4548
1895.511	4461
1897.621	4444
1899.73	4498
1901.837	4523
1903.944	4546
1906.053	4494
1908.159	4460
1910.265	4596
1912.369	4490
1914.474	4446
1916.577	4544
1918.683	4524
1920.785	4557
1922.888	4555
1924.989	4606
1927.091	4559
1929.193	4569
1931.294	4486
1933.393	4598
1935.493	4560
1937.59	4498
1939.689	4565
1941.788	4511
1943.884	4590
1945.98	4498
1948.077	4524
1950.171	4462
1952.267	4487
1954.361	4511
1956.455	4530
1958.548	4466
1960.64	4579
1962.733	4603
1964.824	4492
1966.915	4524
1969.005	4640
1971.096	4458
1973.185	4514
1975.275	4551
1977.363	4485
1979.45	4508
1981.537	4485
1983.623	4472
1985.711	4494
1987.796	4573
1989.881	4525
1991.965	4571
1994.047	4560
1996.132	4498
1998.215	4488
2000.297	4501
2002.378	4495
2004.46	4522
2006.54	4467
2008.62	4553
2010.7	4495
2012.779	4535
2014.858	4537
2016.934	4553
2019.013	4562
2021.09	4493
2023.165	4464
2025.241	4560
2027.317	4599
2029.39	4465
2031.466	4445
2033.538	4530
2035.612	4648
2037.683	4531
2039.755	4560
2041.827	4470
2043.898	4610
2045.968	4482
2048.038	4554
2050.106	4576
2052.177	4551
2054.244	4550
2056.313	4587
2058.379	4435
2060.444	4550
2062.511	4608
2064.577	4606
2066.641	4489
2068.705	4526
2070.77	4538
2072.832	4558
2074.896	4590
2076.958	4612
2079.02	4554
2081.081	4635
2083.141	4585
2085.2	4488
2087.261	4459
2089.319	4548
2091.377	4525
2093.435	4547
2095.492	4650
2097.552	4586
2099.607	4560
2101.663	4561
2103.718	4634
2105.771	4569
2107.826	4680
2109.879	4576
2111.932	4559
2113.985	4566
2116.037	4508
2118.088	4593
2120.141	4552
2122.191	4500
2124.239	4589
2126.288	4546
2128.337	4666
2130.387	4558
2132.434	4647
2134.481	4620
2136.528	4481
2138.574	4504
2140.618	4597
2142.665	4544
2144.71	4611
2146.753	4604
2148.797	4510
2150.838	4559
2152.883	4532
2154.923	4622
2156.965	4563
2159.007	4609
2161.046	4534
2163.086	4448
2165.126	4504
2167.163	4530
2169.202	4516
2171.239	4476
2173.277	4613
2175.314	4568
2177.349	4517
2179.385	4624
2181.42	4581
2183.453	4421
2185.49	4499
2187.522	4507
2189.555	4480
2191.586	4551
2193.619	4437
2195.651	4530
2197.682	4483
2199.711	4542
2201.74	4495
2203.769	4517
2205.799	4450
2207.828	4509
2209.855	4617
2211.882	4510
2213.908	4505
2215.934	4493
2217.961	4498
2219.986	4448
2222.01	4417
2224.034	4421
2226.057	4434
2228.08	4522
2230.104	4454
2232.124	4487
2234.145	4498
2236.166	4485
2238.186	4425
2240.207	4538
2242.227	4493
2244.244	4520
2246.262	4463
2248.28	4406
2250.299	4558
2252.314	4357
2254.33	4575
2256.346	4471
2258.36	4389
2260.375	4519
2262.391	4491
2264.403	4462
2266.416	4506
2268.427	4433
2270.44	4555
2272.453	4540
2274.463	4534
2276.474	4448
2278.483	4445
2280.493	4443
2282.501	4505
2284.51	4522
2286.518	4486
2288.524	4492
2290.532	4508
2292.537	4563
2294.544	4540
2296.55	4565
2298.554	4525
2300.557	4511
2302.562	4433
2304.566	4436
2306.568	4447
2308.569	4459
2310.572	4610
2312.573	4450
2314.573	4505
2316.574	4516
2318.573	4549
2320.571	4456
2322.571	4359
2324.569	4480
2326.567	4529
2328.564	4505
2330.56	4451
2332.556	4451
2334.551	4495
2336.546	4452
2338.542	4456
2340.535	4579
2342.529	4401
2344.521	4422
2346.512	4541
2348.505	4518
2350.497	4398
2352.487	4482
2354.478	4484
2356.468	4503
2358.457	4466
2360.446	4438
2362.434	4358
2364.422	4468
2366.408	4475
2368.395	4359
2370.383	4443
2372.369	4476
2374.353	4494
2376.338	4370
2378.321	4372
2380.307	4484
2382.29	4469
2384.272	4430
2386.254	4372
2388.235	4443
2390.218	4384
2392.198	4384
2394.179	4503
2396.157	4352
2398.137	4475
2400.115	4480
2402.095	4358
2404.072	4364
2406.048	4367
2408.026	4395
2410.001	4415
2411.977	4420
2413.953	4384
2415.927	4386
2417.9	4401
2419.875	4403
2421.847	4414
2423.821	4396
2425.792	4372
2427.763	4441
2429.736	4458
2431.706	4344
2433.677	4423
2435.646	4490
2437.615	4315
2439.583	4358
2441.551	4373
2443.519	4401
2445.486	4425
2447.452	4424
2449.418	4353
2451.383	4348
2453.348	4411
2455.314	4401
2457.278	4383
2459.241	4352
2461.205	4320
2463.167	4482
2465.131	4381
2467.091	4477
2469.052	4432
2471.012	4438
2472.972	4332
2474.932	4417
2476.891	4313
2478.85	4306
2480.808	4385
2482.766	4345
2484.722	4372
2486.68	4427
2488.636	4375
2490.591	4360
2492.546	4366
2494.5	4270
2496.456	4380
2498.41	4337
2500.362	4346
2502.315	4319
2504.266	4365
2506.218	4366
2508.169	4215
2510.121	4285
2512.07	4370
2514.019	4361
2515.968	4364
2517.918	4358
2519.866	4342
2521.813	4393
2523.76	4339
2525.707	4377
2527.653	4311
2529.599	4316
2531.543	4398
2533.489	4355
2535.433	4373
2537.376	4288
2539.32	4422
2541.264	4382
2543.205	4285
2545.147	4338
2547.087	4284
2549.029	4352
2550.969	4443
2552.908	4456
2554.847	4339
2556.786	4396
2558.724	4371
2560.663	4324
2562.6	4340
2564.537	4289
2566.473	4323
2568.408	4349
2570.345	4328
2572.28	4292
2574.214	4330
2576.148	4322
2578.081	4356
2580.014	4380
2581.947	4370
2583.879	4351
2585.81	4311
2587.741	4276
2589.67	4324
2591.602	4407
2593.532	4386
2595.461	4254
2597.388	4347
2599.316	4366
2601.244	4271
2603.172	4331
2605.098	4385
2607.023	4359
2608.949	4379
2610.873	4290
2612.8	4433
2614.723	4383
2616.647	4405
2618.569	4356
2620.493	4351
2622.416	4290
2624.338	4433
2626.258	4385
2628.179	4329
2630.099	4363
2632.019	4352
2633.939	4451
2635.857	4431
2637.775	4352
2639.694	4382
2641.61	4338
2643.528	4414
2645.444	4440
2647.361	4395
2649.276	4422
2651.19	4333
2653.105	4384
2655.019	4347
2656.934	4382
2658.846	4454
2660.758	4493
2662.67	4458
2664.583	4355
2666.493	4519
2668.404	4305
2670.313	4384
2672.223	4387
2674.134	4322
2676.042	4377
2677.95	4390
2679.858	4463
2681.765	4360
2683.673	4360
2685.579	4288
2687.483	4410
2689.389	4369
2691.294	4329
2693.198	4289
2695.104	4268
2697.006	4336
2698.909	4410
2700.811	4384
2702.713	4328
2704.615	4382
2706.516	4357
2708.417	4351
2710.316	4309
2712.216	4388
2714.115	4327
2716.014	4352
2717.913	4338
2719.81	4288
2721.707	4382
2723.603	4314
2725.501	4326
2727.396	4187
2729.292	4434
2731.186	4300
2733.081	4391
2734.976	4310
2736.87	4298
2738.762	4242
2740.653	4245
2742.546	4286
2744.437	4310
2746.329	4324
2748.22	4378
2750.11	4321
2751.999	4324
2753.889	4263
2755.778	4307
2757.666	4338
2759.553	4337
2761.44	4334
2763.328	4394
2765.215	4345
2767.101	4304
2768.986	4290
2770.87	4264
2772.754	4338
2774.638	4266
2776.523	4301
2778.405	4319
2780.288	4260
2782.17	4276
2784.051	4300
2785.934	4200
2787.814	4330
2789.694	4143
2791.574	4293
2793.453	4199
2795.332	4262
2797.212	4351
2799.088	4277
2800.966	4285
2802.843	4259
2804.719	4271
2806.597	4284
2808.471	4131
2810.346	4297
2812.221	4279
2814.094	4249
2815.969	4308
2817.843	4252
2819.714	4293
2821.587	4209
2823.459	4253
2825.329	4242
2827.202	4289
2829.072	4303
2830.942	4309
2832.811	4278
2834.68	4314
2836.549	4193
2838.418	4306
2840.284	4260
2842.152	4223
2844.018	4312
2845.885	4261
2847.751	4268
2849.616	4299
2851.482	4331
2853.345	4221
2855.208	4377
2857.074	4232
2858.937	4322
2860.799	4402
2862.66	4343
2864.522	4327
2866.385	4338
2868.245	4389
2870.104	4442
2871.964	4486
2873.824	4452
2875.683	4526
2877.542	4441
2879.4	4533
2881.257	4489
2883.114	4580
2884.97	4510
2886.827	4473
2888.683	4575
2890.537	4563
2892.392	4474
2894.246	4489
2896.1	4554
2897.954	4485
2899.807	4504
2901.66	4399
2903.51	4485
2905.362	4593
2907.214	4557
2909.065	4504
2910.915	4474
2912.765	4483
2914.613	4577
2916.463	4561
2918.311	4545
2920.158	4589
2922.006	4653
2923.853	4731
2925.698	4716
2927.546	4724
2929.392	4855
2931.236	4838
2933.081	4846
2934.924	4878
2936.77	4812
2938.613	4811
2940.455	4920
2942.298	4929
2944.139	4815
2945.982	4882
2947.823	4933
2949.662	4825
2951.503	4856
2953.342	4708
2955.182	4800
2957.021	4705
2958.858	4716
2960.697	4711
2962.534	4729
2964.37	4616
2966.207	4692
2968.044	4629
2969.879	4594
2971.714	4579
2973.548	4653
2975.383	4536
2977.218	4520
2979.051	4567
2980.883	4595
2982.715	4611
2984.547	4493
2986.379	4514
2988.21	4433
2990.04	4473
2991.87	4514
2993.7	4517
2995.53	4482
2997.359	4500
2999.187	4283
3001.015	4458
3002.842	4334
3004.669	4294
3006.497	4298
3008.323	4251
3010.148	4308
3011.974	4296
3013.797	4252
3015.623	4361
3017.447	4192
3019.27	4319
3021.094	4284
3022.915	4225
3024.737	4211
3026.56	4119
3028.38	4241
3030.201	4205
3032.022	4212
3033.84	4149
3035.662	4162
3037.481	4012
3039.298	4105
3041.117	4127
3042.933	4108
3044.752	4100
3046.568	4157
3048.385	4061
3050.2	4130
3052.016	4165
3053.83	4074
3055.646	4043
3057.46	4140
3059.272	4029
3061.086	4098
3062.898	4205
3064.711	4047
3066.524	4161
3068.335	4079
3070.145	4108
3071.956	4029
3073.766	4176
3075.576	4084
3077.385	4039
3079.193	4031
3081.002	4058
3082.81	4028
3084.618	4152
3086.425	4007
3088.231	4044
3090.036	4001
3091.842	4019
3093.648	4059
3095.452	4095
3097.257	4017
3099.06	3994
3100.863	4040
3102.666	3981
3104.47	4018
3106.272	4047
3108.073	3987
3109.875	3917
3111.676	4013
3113.477	3986
3115.277	4006
3117.077	4011
3118.874	3972
3120.673	3930
3122.473	3997
3124.271	3984
3126.066	3951
3127.863	3988
3129.66	3900
3131.456	3913
3133.252	3929
3135.047	4021
3136.842	3889
3138.635	3987
3140.429	3954
3142.223	3911
3144.016	3895
3145.808	3960
3147.6	3867
3149.392	3936
3151.183	3983
3152.975	3823
3154.765	3891
3156.553	3934
3158.344	3907
3160.132	3905
3161.922	3971
3163.71	3835
3165.497	3915
3167.285	4007
3169.071	3891
3170.858	3911
3172.645	3945
3174.429	3876
3176.214	3892
3177.998	3800
3179.783	3896
3181.568	3902
3183.351	3898
3185.133	3816
3186.915	3938
3188.698	3943
3190.481	3833
3192.261	3919
3194.042	3911
3195.822	3805
3197.601	3953
3199.381	3863
3201.161	3898
3202.939	3929
3204.717	3789
3206.495	3887
3208.272	3911
3210.05	3795
3211.826	3877
3213.602	3840
3215.376	3930
3217.151	3975
3218.927	3876
3220.702	3916
3222.476	3745
3224.249	3879
3226.021	3854
3227.793	3816
3229.567	3908
3231.339	3819
3233.109	3889
3234.88	3898
3236.651	3766
3238.421	3830
3240.191	3929
3241.96	3887
3243.728	3831
3245.497	3858
3247.263	3955
3249.033	3844
3250.799	3934
3252.566	3799
3254.331	3844
3256.097	3737
3257.863	3813
3259.628	3930
3261.392	3960
3263.156	3846
3264.919	3851
3266.683	3789
3268.447	3798
3270.208	3806
3271.969	3849
3273.731	3818
3275.492	3843
3277.253	3976
3279.013	3829
3280.773	3838
3282.532	3835
3284.291	3869
3286.05	3925
3287.808	3940
3289.566	3893
3291.323	3903
3293.079	3830
3294.835	3871
3296.593	3861
3298.348	3916
3300.102	3855
3301.857	3875
3303.611	3856
3305.366	3836
3307.119	3827
3308.872	3889
3310.624	3888
3312.376	3886
3314.129	3807
3315.881	3769
3317.631	3842
3319.38	3887
3321.13	3880
3322.88	3842
3324.631	3921
3326.379	3860
3328.126	3823
3329.875	3892
3331.622	3846
3333.371	3874
3335.116	3865
3336.863	3848
3338.609	3839
3340.353	3828
3342.1	3837
3343.845	3894
3345.588	3911
3347.332	3835
3349.074	3900
3350.817	3843
3352.56	3806
3354.303	3762
3356.043	3833
3357.785	3769
3359.525	3753
3361.268	3808
3363.007	3878
3364.745	3787
3366.485	3810
3368.223	3822
3369.962	3816
3371.701	3759
3373.438	3724
3375.174	3783
3376.911	3843
3378.647	3735
3380.384	3844
3382.118	3795
3383.854	3841
3385.588	3840
3387.322	3694
3389.057	3789
3390.79	3775
3392.522	3699
3394.255	3805
3395.987	3769
3397.719	3776
3399.451	3752
3401.181	3795
3402.911	3798
3404.641	3734
3406.371	3768
3408.101	3714
3409.83	3673
3411.558	3749
3413.285	3679
3415.011	3681
3416.739	3699
3418.467	3789
3420.193	3711
3421.919	3703
3423.644	3726
3425.368	3729
3427.094	3677
3428.818	3743
3430.542	3688
3432.264	3759
3433.987	3716
3435.712	3619
3437.434	3754
3439.155	3734
3440.876	3691
3442.596	3713
3444.317	3692
3446.039	3602
3447.757	3717
3449.477	3666
3451.195	3627
3452.914	3763
3454.632	3629
3456.35	3746
3458.067	3725
3459.784	3654
3461.5	3726
3463.216	3625
3464.932	3655
3466.647	3658
3468.362	3619
3470.076	3612
3471.789	3611
3473.505	3559
3475.217	3617
3476.929	3577
3478.641	3582
3480.354	3622
3482.066	3563
3483.777	3574
3485.487	3578
3487.197	3581
3488.908	3597
3490.617	3629
3492.327	3561
3494.035	3537
3495.743	3658
3497.451	3551
3499.158	3534
3500.866	3593
3502.572	3569
3504.278	3548
3505.984	3590
3507.689	3566
3509.396	3546
3511.1	3575
3512.804	3605
3514.508	3582
3516.211	3581
3517.913	3529
3519.616	3480
3521.319	3575
3523.021	3486
3524.722	3547
3526.422	3558
3528.124	3466
3529.824	3495
3531.524	3540
3533.222	3531
3534.921	3512
3536.62	3536
3538.318	3558
3540.016	3487
3541.714	3533
3543.41	3528
3545.107	3492
3546.803	3521
3548.5	3472
3550.194	3514
3551.889	3499
3553.583	3474
3555.279	3492
3556.972	3542
3558.666	3538
3560.358	3456
3562.051	3442
3563.742	3495
3565.435	3479
3567.126	3450
3568.817	3442
3570.507	3475
3572.197	3389
3573.888	3439
3575.577	3443
3577.265	3440
3578.954	3460
3580.642	3414
3582.329	3376
3584.017	3409
3585.704	3445
3587.391	3442
3589.077	3512
3590.762	3410
3592.449	3423
3594.133	3395
3595.817	3444
3597.501	3496
3599.185	3391
3600.869	3365
3602.552	3334
3604.234	3355
3605.916	3376
3607.598	3354
3609.279	3364
3610.961	3384
3612.642	3380
3614.321	3346
3616	3314
3617.68	3383
3619.36	3277
3621.039	3404
3622.716	3341
3624.394	3328
3626.071	3318
3627.748	3349
3629.425	3342
3631.102	3270
3632.778	3344
3634.452	3298
3636.127	3340
3637.803	3353
3639.477	3376
3641.151	3281
3642.823	3231
3644.497	3272
3646.171	3351
3647.842	3208
3649.515	3344
3651.185	3269
3652.857	3250
3654.527	3325
3656.198	3298
3657.868	3244
3659.537	3274
3661.207	3248
3662.875	3239
3664.544	3265
3666.212	3228
3667.879	3317
3669.546	3235
3671.212	3313
3672.88	3193
3674.546	3271
3676.211	3254
3677.875	3230
3679.541	3298
3681.205	3236
3682.87	3191
3684.533	3184
3686.196	3183
3687.859	3248
3689.521	3268
3691.184	3213
3692.845	3211
3694.507	3202
3696.167	3187
3697.827	3217
3699.487	3259
3701.148	3183
3702.808	3246
3704.466	3191
3706.125	3164
3707.783	3222
3709.442	3187
3711.099	3150
3712.757	3159
3714.412	3223
3716.068	3230
3717.725	3210
3719.381	3209
3721.036	3143
3722.689	3136
3724.344	3138
3725.998	3235
3727.652	3125
3729.305	3203
3730.958	3226
3732.61	3258
3734.262	3184
3735.915	3181
3737.565	3141
3739.217	3163
3740.866	3222
3742.516	3123
3744.165	3152
3745.816	3167
3747.464	3155
3749.113	3170
3750.761	3123
3752.409	3164
3754.057	3119
3755.703	3142
3757.35	3202
3758.996	3190
3760.641	3148
3762.289	3124
3763.933	3131
3765.577	3127
3767.222	3175
3768.865	3240
3770.508	3102
3772.152	3108
3773.796	3155
3775.438	3088
3777.079	3147
3778.721	3103
3780.363	3103
3782.003	3064
3783.643	3107
3785.283	3128
3786.923	3090
3788.563	3140
3790.203	3182
3791.841	3070
3793.479	3140
3795.115	3134
3796.753	3101
3798.391	3053
3800.027	3112
3801.664	3083
3803.299	3051
3804.935	3030
3806.571	3166
3808.206	3085
3809.839	3052
3811.473	3082
3813.107	3105
3814.74	3074
3816.375	3049
3818.006	3080
3819.638	3007
3821.27	3019
3822.9	3034
3824.532	3038
3826.163	3092
3827.792	3050
3829.423	3030
3831.051	3048
3832.682	2975
3834.311	2953
3835.938	2996
3837.566	3046
3839.193	3075
3840.821	3008
3842.448	3049
3844.075	2903
3845.7	3012
3847.325	3004
3848.951	3000
3850.576	2963
3852.201	2987
3853.825	3010
3855.448	2959
3857.072	2975
3858.694	3030
3860.318	2927
3861.939	2952
3863.562	3025
3865.183	3013
3866.804	2964
3868.426	3024
3870.045	3000
3871.666	2955
3873.285	2975
3874.904	3025
3876.524	3036
3878.142	2942
3879.76	2943
3881.378	2980
3882.995	2927
3884.612	2941
3886.229	3003
3887.845	2969
3889.461	2924
3891.076	2981
3892.691	2973
3894.307	2947
3895.922	2900
3897.536	2927
3899.149	2957
3900.761	2950
3902.374	2935
3903.988	2976
3905.6	2954
3907.212	2912
3908.822	2915
3910.433	2912
3912.045	2938
3913.655	2916
3915.265	2921
3916.875	2955
3918.483	2860
3920.093	2909
3921.702	2987
3923.309	2878
3924.917	2945
3926.523	2914
3928.13	2946
3929.739	2929
3931.344	2855
3932.95	2911
3934.555	2908
3936.159	2879
3937.766	2956
3939.369	2989
3940.974	2957
3942.577	2976
3944.181	2912
3945.783	2864
3947.386	2914
3948.989	2936
3950.59	2902
3952.191	2920
3953.791	2936
3955.394	2878
3956.994	2918
3958.593	2890
3960.192	2874
3961.791	2872
3963.392	2903
3964.99	2865
3966.588	2878
3968.185	2870
3969.782	2928
3971.379	2891
3972.976	2854
3974.572	2797
3976.168	2824
3977.763	2882
3979.358	2813
3980.954	2876
3982.548	2908
3984.142	2776
3985.736	2855
3987.329	2948
3988.922	2799
3990.516	2842
3992.108	2789
3993.698	2774
3995.29	2837
3996.881	2829
3998.473	2862
4000.064	2762
4001.653	2854
4003.242	2818
4004.832	2840
4006.422	2815
4008.01	2751
4009.598	2811
4011.186	2837
4012.773	2781
4014.36	2789
4015.947	2750
4017.534	2831
4019.119	2761
4020.705	2831
4022.291	2773
4023.876	2798
4025.461	2775
4027.044	2778
4028.627	2728
4030.211	2701
4031.795	2750
4033.378	2687
4034.96	2750
4036.542	2784
4038.124	2741
4039.704	2734
4041.286	2754
4042.867	2795
4044.447	2702
4046.026	2741
4047.606	2733
4049.187	2690
4050.765	2675
4052.343	2670
4053.92	2731
4055.498	2655
4057.076	2718
4058.654	2695
4060.23	2736
4061.806	2801
4063.381	2682
4064.957	2710
4066.533	2704
4068.107	2703
4069.682	2718
4071.256	2733
4072.829	2674
4074.404	2670
4075.977	2702
4077.549	2715
4079.121	2676
4080.693	2721
4082.265	2681
4083.836	2689
4085.407	2685
4086.977	2639
4088.547	2690
4090.117	2659
4091.687	2673
4093.256	2685
4094.825	2651
4096.392	2665
4097.96	2601
4099.528	2685
4101.097	2657
4102.663	2632
4104.229	2684
4105.795	2660
4107.361	2656
4108.928	2600
4110.493	2685
4112.058	2601
4113.621	2677
4115.186	2646
4116.75	2669
4118.313	2582
4119.876	2651
4121.438	2723
4123	2650
4124.562	2639
4126.125	2649
4127.686	2620
4129.246	2647
4130.807	2531
4132.367	2569
4133.927	2603
4135.486	2544
4137.046	2606
4138.604	2606
4140.162	2597
4141.72	2602
4143.279	2609
4144.836	2634
4146.393	2544
4147.949	2567
4149.505	2586
4151.062	2625
4152.617	2583
4154.172	2532
4155.727	2581
4157.281	2605
4158.836	2537
4160.39	2536
4161.943	2520
4163.496	2543
4165.048	2650
4166.601	2493
4168.154	2552
4169.706	2543
4171.257	2487
4172.808	2591
4174.358	2517
4175.909	2554
4177.458	2522
4179.008	2513
4180.558	2486
4182.106	2524
4183.655	2528
4185.204	2547
4186.751	2472
4188.298	2454
4189.845	2484
4191.392	2518
4192.939	2580
4194.485	2566
4196.031	2529
4197.576	2500
4199.121	2571
4200.666	2531
4202.211	2568
4203.754	2552
4205.298	2540
4206.84	2469
4208.384	2453
4209.927	2472
4211.47	2450
4213.011	2476
4214.552	2503
4216.094	2516
4217.635	2483
4219.175	2499
4220.716	2459
4222.255	2483
4223.793	2545
4225.335	2485
4226.873	2490
4228.411	2483
4229.948	2461
4231.486	2465
4233.024	2507
4234.562	2520
4236.098	2451
4237.634	2487
4239.169	2456
4240.705	2459
4242.241	2430
4243.776	2460
4245.31	2445
4246.844	2417
4248.378	2465
4249.911	2471
4251.445	2492
4252.978	2490
4254.51	2407
4256.042	2411
4257.574	2423
4259.107	2418
4260.638	2411
4262.169	2450
4263.699	2471
4265.228	2441
4266.759	2453
4268.289	2450
4269.818	2417
4271.345	2440
4272.874	2373
4274.402	2399
4275.931	2440
4277.458	2379
4278.985	2365
4280.512	2429
4282.037	2429
4283.564	2431
4285.089	2392
4286.615	2426
4288.139	2437
4289.664	2411
4291.187	2359
4292.712	2405
4294.235	2407
4295.759	2414
4297.281	2424
4298.804	2408
4300.327	2388
4301.849	2414
4303.37	2409
4304.891	2370
4306.412	2405
4307.933	2349
4309.453	2354
4310.973	2394
4312.492	2360
