398.1873	3059
400.7097	3141
403.2336	3072
405.7547	3051
408.2751	3155
410.7948	3096
413.3138	3158
415.83	3165
418.3497	3120
420.8666	3166
423.3829	3244
425.8985	3250
428.4133	3241
430.9275	3238
433.441	3259
435.9538	3288
438.4639	3318
440.9753	3268
443.4881	3312
445.9982	3284
448.5055	3275
451.0142	3272
453.5201	3270
456.0274	3267
458.5361	3302
461.04	3342
463.5453	3326
466.0478	3287
468.5517	3385
471.0549	3308
473.5574	3359
476.0572	3291
478.5584	3346
481.0568	3301
483.5545	3342
486.0557	3418
488.5521	3316
491.0478	3314
493.5449	3435
496.0392	3392
498.5349	3352
501.0299	3359
503.5222	3416
506.0139	3382
508.5048	3421
510.9991	3417
513.4887	3484
515.9777	3439
518.4659	3426
520.9534	3441
523.4403	3410
525.9306	3379
528.4161	3449
530.9009	3360
533.3851	3431
535.8687	3414
538.3535	3413
540.8356	3369
543.3171	3453
545.7979	3368
548.278	3405
550.7595	3446
553.2383	3449
555.7144	3439
558.1918	3392
560.6685	3473
563.1446	3427
565.6221	3447
568.0968	3534
570.5688	3401
573.0422	3538
575.515	3452
577.989	3554
580.4584	3580
582.9291	3546
585.3991	3558
587.8685	3482
590.3352	3538
592.8052	3516
595.2706	3502
597.7372	3574
600.2033	3604
602.6666	3528
605.1334	3477
607.5953	3467
610.0587	3473
612.5193	3602
614.9814	3530
617.4427	3537
619.9034	3532
622.3615	3564
624.8208	3547
627.2775	3487
629.7335	3498
632.1929	3494
634.6476	3495
637.1016	3596
639.5569	3557
642.0096	3600
644.4637	3493
646.9151	3566
649.3678	3582
651.8179	3641
654.2672	3571
656.7159	3559
659.166	3627
661.6154	3542
664.0622	3572
666.5082	3642
668.9537	3559
671.4005	3624
673.8445	3625
676.288	3668
678.7308	3606
681.1729	3672
683.6163	3630
686.0572	3597
688.4973	3639
690.9368	3681
693.3757	3723
695.8138	3648
698.2534	3739
700.6902	3628
703.1245	3732
705.56	3674
707.9949	3732
710.4311	3733
712.8647	3652
715.2957	3657
717.7279	3691
720.1595	3716
722.5905	3710
725.0208	3698
727.4505	3756
729.8795	3713
732.3058	3729
734.7336	3728
737.1626	3869
739.587	3794
742.0128	3737
744.4359	3803
746.8604	3821
749.2841	3854
751.7073	3845
754.1278	3813
756.5496	3838
758.9688	3805
761.3893	3925
763.8093	3865
766.2285	3917
768.6451	3893
771.0611	3890
773.4784	3875
775.895	3894
778.3091	3923
780.7244	3870
783.1371	3922
785.5493	3847
787.9626	3977
790.3754	3902
792.7856	3964
795.1951	3872
797.6039	3865
800.0121	3952
802.4236	3859
804.8306	3904
807.2369	3855
809.6425	3874
812.0475	3860
814.4538	3986
816.8575	3933
819.2606	3954
821.663	4017
824.0648	3965
826.4659	3927
828.8683	3812
831.2682	3969
833.6674	3948
836.066	3925
838.4639	3937
840.8632	3930
843.2579	4024
845.6539	3973
848.0493	4072
850.444	3994
852.84	3974
855.2315	3995
857.6243	4113
860.0165	3995
862.4081	4042
864.797	4047
867.1892	3991
869.5789	3948
871.9659	3967
874.3542	3973
876.74	3976
879.129	3867
881.5155	3946
883.8994	4005
886.2845	3984
888.6671	3988
891.051	3965
893.4343	4023
895.8169	3983
898.197	3966
900.5783	4038
902.9571	3965
905.3372	4064
907.7167	4080
910.0936	3985
912.4698	4078
914.8474	4179
917.2244	4156
919.5987	4187
921.9744	4171
924.3475	4088
926.72	4073
929.0918	4214
931.4669	4099
933.8375	4185
936.2074	4199
938.5767	4256
940.9454	4237
943.3154	4305
945.6829	4281
948.0497	4379
950.4178	4454
952.7833	4524
955.1483	4661
957.5145	4734
959.8782	4857
962.2412	4718
964.6036	4708
966.9655	4631
969.3266	4483
971.6871	4486
974.0471	4421
976.4064	4253
978.765	4165
981.125	4140
983.4824	4265
985.8373	4176
988.1935	4098
990.549	4061
992.9039	4150
995.2602	4177
997.6119	4146
999.965	4143
1002.317	4159
1004.667	4209
1007.02	4134
1009.371	4128
1011.719	4176
1014.068	4116
1016.415	4281
1018.765	4269
1021.111	4144
1023.458	4126
1025.804	4125
1028.147	4191
1030.49	4204
1032.837	4224
1035.179	4208
1037.522	4281
1039.862	4201
1042.204	4217
1044.546	4190
1046.884	4267
1049.224	4273
1051.562	4275
1053.899	4252
1056.237	4203
1058.575	4216
1060.91	4274
1063.244	4227
1065.58	4288
1067.913	4309
1070.248	4315
1072.579	4238
1074.911	4305
1077.242	4224
1079.572	4193
1081.905	4348
1084.234	4181
1086.562	4221
1088.89	4324
1091.217	4295
1093.544	4303
1095.871	4276
1098.197	4152
1100.521	4238
1102.845	4277
1105.169	4306
1107.491	4308
1109.814	4240
1112.135	4271
1114.456	4288
1116.776	4225
1119.096	4276
1121.415	4252
1123.734	4160
1126.052	4403
1128.369	4277
1130.686	4326
1133.002	4296
1135.318	4394
1137.632	4376
1139.945	4296
1142.258	4237
1144.573	4329
1146.884	4378
1149.196	4316
1151.505	4270
1153.816	4241
1156.124	4287
1158.435	4216
1160.742	4377
1163.051	4355
1165.356	4372
1167.663	4301
1169.97	4346
1172.276	4269
1174.579	4312
1176.881	4262
1179.186	4310
1181.487	4308
1183.79	4344
1186.092	4338
1188.392	4216
1190.691	4400
1192.991	4338
1195.291	4330
1197.588	4224
1199.885	4353
1202.181	4330
1204.479	4400
1206.775	4377
1209.07	4303
1211.363	4336
1213.656	4311
1215.949	4342
1218.241	4283
1220.534	4345
1222.825	4352
1225.115	4392
1227.405	4337
1229.693	4325
1231.984	4350
1234.271	4446
1236.558	4330
1238.845	4473
1241.131	4423
1243.416	4493
1245.703	4361
1247.987	4363
1250.269	4402
1252.552	4394
1254.834	4475
1257.118	4459
1259.399	4525
1261.678	4439
1263.958	4409
1266.237	4340
1268.516	4549
1270.794	4455
1273.072	4474
1275.347	4425
1277.624	4341
1279.899	4467
1282.175	4473
1284.449	4444
1286.722	4440
1288.995	4491
1291.266	4424
1293.54	4406
1295.81	4499
1298.081	4400
1300.35	4325
1302.62	4408
1304.889	4451
1307.156	4407
1309.425	4400
1311.69	4444
1313.957	4438
1316.222	4403
1318.488	4442
1320.751	4448
1323.016	4463
1325.278	4460
1327.54	4414
1329.803	4491
1332.065	4469
1334.325	4492
1336.584	4524
1338.843	4458
1341.101	4402
1343.36	4405
1345.617	4391
1347.876	4452
1350.131	4430
1352.387	4391
1354.643	4497
1356.897	4442
1359.151	4471
1361.403	4479
1363.656	4544
1365.909	4445
1368.16	4468
1370.409	4445
1372.659	4539
1374.909	4505
1377.157	4510
1379.407	4507
1381.655	4491
1383.9	4537
1386.147	4542
1388.393	4590
1390.64	4456
1392.885	4593
1395.127	4509
1397.37	4566
1399.614	4531
1401.854	4676
1404.098	4532
1406.339	4600
1408.578	4631
1410.818	4597
1413.056	4578
1415.297	4608
1417.533	4566
1419.771	4616
1422.006	4594
1424.243	4586
1426.479	4615
1428.715	4613
1430.948	4672
1433.182	4629
1435.414	4613
1437.647	4520
1439.88	4671
1442.11	4594
1444.342	4546
1446.571	4640
1448.799	4600
1451.029	4662
1453.258	4698
1455.485	4667
1457.711	4727
1459.937	4743
1462.164	4600
1464.39	4658
1466.614	4602
1468.838	4561
1471.06	4682
1473.283	4628
1475.506	4621
1477.727	4509
1479.949	4599
1482.169	4594
1484.389	4572
1486.609	4598
1488.828	4628
1491.045	4439
1493.261	4555
1495.477	4496
1497.693	4482
1499.91	4604
1502.125	4603
1504.339	4565
1506.553	4538
1508.766	4501
1510.979	4472
1513.191	4542
1515.402	4546
1517.613	4417
1519.823	4511
1522.033	4482
1524.242	4397
1526.451	4485
1528.657	4560
1530.865	4467
1533.072	4573
1535.278	4459
1537.484	4537
1539.687	4548
1541.892	4538
1544.096	4531
1546.299	4555
1548.502	4590
1550.703	4643
1552.905	4545
1555.104	4699
1557.303	4610
1559.505	4666
1561.703	4605
1563.902	4641
1566.099	4719
1568.295	4650
1570.494	4700
1572.689	4640
1574.883	4670
1577.079	4734
1579.272	4574
1581.467	4683
1583.659	4724
1585.853	4704
1588.044	4625
1590.234	4705
1592.424	4709
1594.615	4750
1596.806	4719
1598.994	4683
1601.182	4713
1603.369	4687
1605.557	4652
1607.744	4583
1609.929	4698
1612.114	4740
1614.298	4640
1616.482	4774
1618.667	4720
1620.85	4820
1623.032	4743
1625.214	4655
1627.395	4703
1629.575	4743
1631.755	4722
1633.935	4820
1636.114	4682
1638.292	4715
1640.471	4768
1642.647	4795
1644.823	4799
1647	4688
1649.175	4782
1651.348	4716
1653.525	4808
1655.698	4721
1657.87	4792
1660.043	4725
1662.213	4825
1664.387	4703
1666.558	4778
1668.727	4728
1670.896	4738
1673.064	4816
1675.233	4835
1677.401	4776
1679.569	4802
1681.735	4834
1683.902	4802
1686.066	4762
1688.233	4744
1690.397	4860
1692.559	4807
1694.723	4752
1696.885	4780
1699.048	4805
1701.21	4721
1703.37	4707
1705.53	4814
1707.689	4778
1709.849	4684
1712.009	4692
1714.166	4691
1716.323	4699
1718.479	4743
1720.634	4731
1722.793	4753
1724.948	4695
1727.102	4718
1729.255	4789
1731.408	4758
1733.562	4738
1735.714	4774
1737.865	4785
1740.016	4813
1742.166	4754
1744.316	4717
1746.467	4757
1748.616	4757
1750.764	4795
1752.911	4804
1755.056	4738
1757.205	4755
1759.35	4774
1761.496	4910
1763.641	4781
1765.785	4676
1767.927	4802
1770.072	4712
1772.214	4776
1774.355	4761
1776.496	4780
1778.637	4832
1780.778	4650
1782.918	4856
1785.057	4803
1787.194	4799
1789.333	4834
1791.472	4797
1793.608	4829
1795.745	4739
1797.879	4911
1800.015	4904
1802.148	4796
1804.284	4730
1806.417	4856
1808.548	4800
1810.682	4791
1812.812	4873
1814.946	4727
1817.075	4739
1819.205	4819
1821.335	4694
1823.463	4763
1825.59	4851
1827.721	4812
1829.847	4792
1831.973	4772
1834.098	4733
1836.223	4765
1838.351	4673
1840.475	4807
1842.598	4794
1844.721	4835
1846.843	4793
1848.966	4767
1851.087	4760
1853.21	4769
1855.33	4852
1857.449	4798
1859.568	4761
1861.688	4810
1863.806	4791
1865.924	4776
1868.039	4864
1870.155	4749
1872.273	4779
1874.388	4787
1876.503	4794
1878.617	4721
1880.73	4873
1882.844	4880
1884.956	4843
1887.068	4787
1889.18	4828
1891.291	4830
1893.4	4816
1895.511	4881
1897.621	4847
1899.73	4886
1901.837	4759
1903.944	4846
1906.053	4887
1908.159	4849
1910.265	4845
1912.369	4905
1914.474	4892
1916.577	4937
1918.683	4874
1920.785	4886
1922.888	4843
1924.989	4920
1927.091	5012
1929.193	4876
1931.294	4889
1933.393	4867
1935.493	4970
1937.59	4888
1939.689	4828
1941.788	4927
1943.884	4781
1945.98	5021
1948.077	4865
1950.171	4858
1952.267	4887
1954.361	4921
1956.455	4882
1958.548	4891
1960.64	4897
1962.733	4926
1964.824	4952
1966.915	4921
1969.005	4834
1971.096	4833
1973.185	4943
1975.275	4974
1977.363	4899
1979.45	4913
1981.537	4944
1983.623	4921
1985.711	4860
1987.796	4854
1989.881	4851
1991.965	4901
1994.047	4887
1996.132	4874
1998.215	4842
2000.297	4920
2002.378	4881
2004.46	4899
2006.54	4796
2008.62	4893
2010.7	4890
2012.779	4835
2014.858	4906
2016.934	4882
2019.013	4931
2021.09	4905
2023.165	4916
2025.241	4885
2027.317	4928
2029.39	4905
2031.466	4863
2033.538	4883
2035.612	4913
2037.683	4866
2039.755	4979
2041.827	4921
2043.898	4965
2045.968	4961
2048.038	4852
2050.106	4802
2052.177	4953
2054.244	4866
2056.313	4912
2058.379	4875
2060.444	4962
2062.511	4855
2064.577	4958
2066.641	4962
2068.705	4838
2070.77	4959
2072.832	4857
2074.896	4904
2076.958	4856
2079.02	5001
2081.081	4903
2083.141	4926
2085.2	4884
2087.261	4838
2089.319	4981
2091.377	4951
2093.435	4911
2095.492	4851
2097.552	4921
2099.607	4981
2101.663	4917
2103.718	4936
2105.771	4944
2107.826	4927
2109.879	4898
2111.932	4912
2113.985	4890
2116.037	5076
2118.088	4928
2120.141	4972
2122.191	4971
2124.239	4799
2126.288	4929
2128.337	4991
2130.387	4918
2132.434	5019
2134.481	4903
2136.528	5081
2138.574	4944
2140.618	4940
2142.665	4882
2144.71	4853
2146.753	4973
2148.797	4868
2150.838	4958
2152.883	4927
2154.923	5055
2156.965	4960
2159.007	4936
2161.046	4871
2163.086	4943
2165.126	4886
2167.163	4889
2169.202	4887
2171.239	4911
2173.277	4960
2175.314	4978
2177.349	4885
2179.385	4938
2181.42	4873
2183.453	4947
2185.49	4927
2187.522	4850
2189.555	4888
2191.586	4892
2193.619	4801
2195.651	4911
2197.682	5025
2199.711	4895
2201.74	4954
2203.769	4924
2205.799	4872
2207.828	4874
2209.855	4911
2211.882	4796
2213.908	4874
2215.934	4812
2217.961	4893
2219.986	4829
2222.01	4987
2224.034	4867
2226.057	4881
2228.08	4824
2230.104	4896
2232.124	4955
2234.145	4906
2236.166	4848
2238.186	4985
2240.207	4887
2242.227	4967
2244.244	4877
2246.262	4889
2248.28	4869
2250.299	4908
2252.314	4920
2254.33	4979
2256.346	4930
2258.36	4936
2260.375	5064
2262.391	4874
2264.403	4983
2266.416	4881
2268.427	4936
2270.44	4899
2272.453	4818
2274.463	4864
2276.474	4858
2278.483	4897
2280.493	4957
2282.501	4920
2284.51	4941
2286.518	5020
2288.524	4970
2290.532	4821
2292.537	4893
2294.544	4962
2296.55	4921
2298.554	4959
2300.557	4950
2302.562	4960
2304.566	4916
2306.568	4825
2308.569	5007
2310.572	4902
2312.573	4994
2314.573	4937
2316.574	4969
2318.573	4916
2320.571	4916
2322.571	4852
2324.569	4877
2326.567	4902
2328.564	4903
2330.56	4928
2332.556	5007
2334.551	4888
2336.546	4862
2338.542	4945
2340.535	4855
2342.529	4875
2344.521	4924
2346.512	4913
2348.505	4889
2350.497	4906
2352.487	4845
2354.478	4840
2356.468	4931
2358.457	4838
2360.446	4916
2362.434	4850
2364.422	4913
2366.408	4953
2368.395	4780
2370.383	4898
2372.369	4897
2374.353	4927
2376.338	4857
2378.321	4881
2380.307	4937
2382.29	4943
2384.272	4776
2386.254	4982
2388.235	4946
2390.218	4926
2392.198	4899
2394.179	4926
2396.157	4817
2398.137	4920
2400.115	4810
2402.095	4917
2404.072	4886
2406.048	4821
2408.026	4906
2410.001	4824
2411.977	4945
2413.953	4900
2415.927	4893
2417.9	4812
2419.875	4967
2421.847	4794
2423.821	4935
2425.792	4851
2427.763	4883
2429.736	4871
2431.706	4754
2433.677	4790
2435.646	4880
2437.615	4915
2439.583	4894
2441.551	4839
2443.519	4860
2445.486	4803
2447.452	4867
2449.418	4803
2451.383	4826
2453.348	4881
2455.314	4966
2457.278	4925
2459.241	4874
2461.205	4862
2463.167	4863
2465.131	4825
2467.091	4831
2469.052	4708
2471.012	4802
2472.972	4916
2474.932	4754
2476.891	4890
2478.85	4852
2480.808	4792
2482.766	4795
2484.722	4850
2486.68	4806
2488.636	4833
2490.591	4746
2492.546	4800
2494.5	4766
2496.456	4849
2498.41	4834
2500.362	4837
2502.315	4793
2504.266	4842
2506.218	4800
2508.169	4802
2510.121	4832
2512.07	4813
2514.019	4817
2515.968	4828
2517.918	4774
2519.866	4858
2521.813	4834
2523.76	4811
2525.707	4831
2527.653	4803
2529.599	4810
2531.543	4872
2533.489	4814
2535.433	4769
2537.376	4766
2539.32	4794
2541.264	4802
2543.205	4832
2545.147	4698
2547.087	4827
2549.029	4758
2550.969	4818
2552.908	4696
2554.847	4787
2556.786	4785
2558.724	4774
2560.663	4710
2562.6	4839
2564.537	4805
2566.473	4841
2568.408	4802
2570.345	4740
2572.28	4820
2574.214	4717
2576.148	4864
2578.081	4868
2580.014	4848
2581.947	4702
2583.879	4800
2585.81	4800
2587.741	4850
2589.67	4729
2591.602	4867
2593.532	4818
2595.461	4735
2597.388	4833
2599.316	4795
2601.244	4807
2603.172	4837
2605.098	4802
2607.023	4770
2608.949	4827
2610.873	4855
2612.8	4836
2614.723	4772
2616.647	4783
2618.569	4852
2620.493	4806
2622.416	4809
2624.338	4711
2626.258	4805
2628.179	4867
2630.099	4894
2632.019	4829
2633.939	4824
2635.857	4728
2637.775	4817
2639.694	4796
2641.61	4811
2643.528	4867
2645.444	4854
2647.361	4899
2649.276	4803
2651.19	4871
2653.105	4874
2655.019	4732
2656.934	4838
2658.846	4828
2660.758	4904
2662.67	4942
2664.583	4869
2666.493	4900
2668.404	4865
2670.313	4852
2672.223	4887
2674.134	4946
2676.042	4809
2677.95	4739
2679.858	4802
2681.765	4803
2683.673	4786
2685.579	4681
2687.483	4815
2689.389	4820
2691.294	4731
2693.198	4762
2695.104	4755
2697.006	4728
2698.909	4720
2700.811	4768
2702.713	4817
2704.615	4754
2706.516	4737
2708.417	4758
2710.316	4720
2712.216	4645
2714.115	4776
2716.014	4796
2717.913	4723
2719.81	4743
2721.707	4813
2723.603	4800
2725.501	4694
2727.396	4758
2729.292	4663
2731.186	4726
2733.081	4767
2734.976	4708
2736.87	4712
2738.762	4750
2740.653	4708
2742.546	4698
2744.437	4775
2746.329	4729
2748.22	4704
2750.11	4646
2751.999	4669
2753.889	4725
2755.778	4670
2757.666	4604
2759.553	4646
2761.44	4718
2763.328	4729
2765.215	4638
2767.101	4676
2768.986	4696
2770.87	4762
2772.754	4668
2774.638	4845
2776.523	4756
2778.405	4717
2780.288	4765
2782.17	4600
2784.051	4596
2785.934	4746
2787.814	4709
2789.694	4697
2791.574	4628
2793.453	4727
2795.332	4718
2797.212	4648
2799.088	4735
2800.966	4699
2802.843	4675
2804.719	4668
2806.597	4749
2808.471	4621
2810.346	4649
2812.221	4580
2814.094	4638
2815.969	4765
2817.843	4652
2819.714	4695
2821.587	4728
2823.459	4671
2825.329	4637
2827.202	4623
2829.072	4797
2830.942	4773
2832.811	4706
2834.68	4635
2836.549	4762
2838.418	4615
2840.284	4672
2842.152	4654
2844.018	4635
2845.885	4777
2847.751	4736
2849.616	4745
2851.482	4684
2853.345	4753
2855.208	4748
2857.074	4682
2858.937	4746
2860.799	4783
2862.66	4710
2864.522	4779
2866.385	4680
2868.245	4794
2870.104	4824
2871.964	4801
2873.824	4796
2875.683	4902
2877.542	4939
2879.4	4880
2881.257	4871
2883.114	4957
2884.97	4917
2886.827	4972
2888.683	4958
2890.537	4929
2892.392	5000
2894.246	4897
2896.1	4976
2897.954	5036
2899.807	4954
2901.66	4995
2903.51	4901
2905.362	4854
2907.214	4880
2909.065	4901
2910.915	4876
2912.765	4960
2914.613	4958
2916.463	4998
2918.311	5057
2920.158	4962
2922.006	5111
2923.853	5119
2925.698	5033
2927.546	5092
2929.392	5226
2931.236	5183
2933.081	5070
2934.924	5071
2936.77	5185
2938.613	5107
2940.455	5319
2942.298	5271
2944.139	5241
2945.982	5307
2947.823	5195
2949.662	5197
2951.503	5218
2953.342	5197
2955.182	5249
2957.021	5098
2958.858	5208
2960.697	5151
2962.534	5184
2964.37	5087
2966.207	5055
2968.044	4973
2969.879	5005
2971.714	4882
2973.548	4911
2975.383	4867
2977.218	4886
2979.051	4814
2980.883	4801
2982.715	4891
2984.547	4887
2986.379	4870
2988.21	4814
2990.04	4845
2991.87	4797
2993.7	4750
2995.53	4766
2997.359	4785
2999.187	4770
3001.015	4681
3002.842	4721
3004.669	4643
3006.497	4631
3008.323	4695
3010.148	4560
3011.974	4594
3013.797	4724
3015.623	4537
3017.447	4658
3019.27	4647
3021.094	4538
3022.915	4550
3024.737	4572
3026.56	4516
3028.38	4557
3030.201	4528
3032.022	4603
3033.84	4551
3035.662	4507
3037.481	4494
3039.298	4514
3041.117	4430
3042.933	4628
3044.752	4574
3046.568	4577
3048.385	4454
3050.2	4519
3052.016	4427
3053.83	4517
3055.646	4553
3057.46	4487
3059.272	4462
3061.086	4502
3062.898	4428
3064.711	4433
3066.524	4476
3068.335	4382
3070.145	4553
3071.956	4373
3073.766	4402
3075.576	4382
3077.385	4473
3079.193	4465
3081.002	4429
3082.81	4371
3084.618	4457
3086.425	4497
3088.231	4449
3090.036	4413
3091.842	4455
3093.648	4430
3095.452	4456
3097.257	4464
3099.06	4432
3100.863	4401
3102.666	4329
3104.47	4319
3106.272	4397
3108.073	4406
3109.875	4341
3111.676	4405
3113.477	4316
3115.277	4404
3117.077	4273
3118.874	4375
3120.673	4311
3122.473	4244
3124.271	4357
3126.066	4301
3127.863	4292
3129.66	4347
3131.456	4353
3133.252	4238
3135.047	4347
3136.842	4282
3138.635	4384
3140.429	4314
3142.223	4306
3144.016	4306
3145.808	4300
3147.6	4336
3149.392	4344
3151.183	4369
3152.975	4269
3154.765	4264
3156.553	4305
3158.344	4283
3160.132	4210
3161.922	4303
3163.71	4215
3165.497	4192
3167.285	4256
3169.071	4257
3170.858	4159
3172.645	4292
3174.429	4221
3176.214	4154
3177.998	4266
3179.783	4245
3181.568	4250
3183.351	4213
3185.133	4222
3186.915	4175
3188.698	4293
3190.481	4228
3192.261	4228
3194.042	4173
3195.822	4158
3197.601	4219
3199.381	4201
3201.161	4298
3202.939	4221
3204.717	4224
3206.495	4156
3208.272	4210
3210.05	4179
3211.826	4134
3213.602	4199
3215.376	4160
3217.151	4177
3218.927	4192
3220.702	4147
3222.476	4172
3224.249	4183
3226.021	4168
3227.793	4151
3229.567	4155
3231.339	4242
3233.109	4156
3234.88	4143
3236.651	4121
3238.421	4214
3240.191	4233
3241.96	4274
3243.728	4159
3245.497	4128
3247.263	4277
3249.033	4125
3250.799	4156
3252.566	4170
3254.331	4200
3256.097	4214
3257.863	4248
3259.628	4149
3261.392	4234
3263.156	4219
3264.919	4225
3266.683	4243
3268.447	4251
3270.208	4241
3271.969	4246
3273.731	4151
3275.492	4194
3277.253	4191
3279.013	4128
3280.773	4225
3282.532	4190
3284.291	4172
3286.05	4290
3287.808	4167
3289.566	4198
3291.323	4158
3293.079	4233
3294.835	4175
3296.593	4130
3298.348	4118
3300.102	4118
3301.857	4228
3303.611	4201
3305.366	4195
3307.119	4115
3308.872	4287
3310.624	4154
3312.376	4156
3314.129	4254
3315.881	4157
3317.631	4077
3319.38	4109
3321.13	4094
3322.88	4189
3324.631	4139
3326.379	4136
3328.126	4180
3329.875	4127
3331.622	4080
3333.371	4118
3335.116	4027
3336.863	4124
3338.609	4160
3340.353	4133
3342.1	4129
3343.845	4056
3345.588	4067
3347.332	4147
3349.074	4032
3350.817	4028
3352.56	4133
3354.303	4074
3356.043	4057
3357.785	4113
3359.525	4086
3361.268	4089
3363.007	4086
3364.745	4134
3366.485	4064
3368.223	4126
3369.962	4043
3371.701	4119
3373.438	4130
3375.174	4084
3376.911	4102
3378.647	4167
3380.384	4087
3382.118	4099
3383.854	4070
3385.588	4030
3387.322	4175
3389.057	4065
3390.79	4001
3392.522	4031
3394.255	4029
3395.987	4134
3397.719	4055
3399.451	4063
3401.181	4007
3402.911	4029
3404.641	4013
3406.371	3987
3408.101	4149
3409.83	4087
3411.558	4054
3413.285	4069
3415.011	4108
3416.739	4057
3418.467	4055
3420.193	4060
3421.919	3988
3423.644	4040
3425.368	4006
3427.094	4003
3428.818	4011
3430.542	4111
3432.264	3985
3433.987	4028
3435.712	3972
3437.434	4044
3439.155	4067
3440.876	3925
3442.596	4028
3444.317	3965
3446.039	3987
3447.757	3884
3449.477	4002
3451.195	3893
3452.914	3938
3454.632	3973
3456.35	3939
3458.067	3977
3459.784	3937
3461.5	3913
3463.216	3939
3464.932	3934
3466.647	3918
3468.362	3977
3470.076	3966
3471.789	3919
3473.505	3910
3475.217	3889
3476.929	3926
3478.641	3976
3480.354	3880
3482.066	3946
3483.777	3885
3485.487	3880
3487.197	3924
3488.908	3906
3490.617	3916
3492.327	3839
3494.035	3923
3495.743	3941
3497.451	3915
3499.158	3957
3500.866	3842
3502.572	3884
3504.278	3826
3505.984	3833
3507.689	3816
3509.396	3908
3511.1	3833
3512.804	3802
3514.508	3931
3516.211	3879
3517.913	3867
3519.616	3919
3521.319	3914
3523.021	3889
3524.722	3893
3526.422	3812
3528.124	3822
3529.824	3883
3531.524	3793
3533.222	3843
3534.921	3823
3536.62	3901
3538.318	3825
3540.016	3808
3541.714	3824
3543.41	3742
3545.107	3843
3546.803	3872
3548.5	3876
3550.194	3840
3551.889	3760
3553.583	3829
3555.279	3694
3556.972	3801
3558.666	3778
3560.358	3760
3562.051	3797
3563.742	3773
3565.435	3794
3567.126	3772
3568.817	3763
3570.507	3802
3572.197	3688
3573.888	3785
3575.577	3676
3577.265	3763
3578.954	3787
3580.642	3764
3582.329	3820
3584.017	3770
3585.704	3654
3587.391	3786
3589.077	3706
3590.762	3772
3592.449	3765
3594.133	3772
3595.817	3749
3597.501	3756
3599.185	3634
3600.869	3737
3602.552	3712
3604.234	3684
3605.916	3792
3607.598	3691
3609.279	3648
3610.961	3748
3612.642	3691
3614.321	3701
3616	3653
3617.68	3720
3619.36	3678
3621.039	3691
3622.716	3631
3624.394	3747
3626.071	3633
3627.748	3668
3629.425	3667
3631.102	3660
3632.778	3642
3634.452	3606
3636.127	3665
3637.803	3645
3639.477	3611
3641.151	3575
3642.823	3637
3644.497	3608
3646.171	3653
3647.842	3561
3649.515	3614
3651.185	3556
3652.857	3612
3654.527	3612
3656.198	3609
3657.868	3600
3659.537	3606
3661.207	3579
3662.875	3626
3664.544	3586
3666.212	3534
3667.879	3596
3669.546	3534
3671.212	3548
3672.88	3558
3674.546	3608
3676.211	3656
3677.875	3612
3679.541	3566
3681.205	3650
3682.87	3572
3684.533	3561
3686.196	3599
3687.859	3568
3689.521	3579
3691.184	3522
3692.845	3604
3694.507	3607
3696.167	3514
3697.827	3601
3699.487	3567
3701.148	3580
3702.808	3571
3704.466	3563
3706.125	3535
3707.783	3404
3709.442	3497
3711.099	3619
3712.757	3587
3714.412	3540
3716.068	3512
3717.725	3506
3719.381	3569
3721.036	3588
3722.689	3467
3724.344	3554
3725.998	3415
3727.652	3565
3729.305	3554
3730.958	3441
3732.61	3592
3734.262	3486
3735.915	3496
3737.565	3514
3739.217	3423
3740.866	3513
3742.516	3558
3744.165	3483
3745.816	3496
3747.464	3477
3749.113	3466
3750.761	3442
3752.409	3492
3754.057	3546
3755.703	3438
3757.35	3514
3758.996	3514
3760.641	3514
3762.289	3531
3763.933	3453
3765.577	3499
3767.222	3454
3768.865	3492
3770.508	3427
3772.152	3451
3773.796	3512
3775.438	3450
3777.079	3399
3778.721	3461
3780.363	3463
3782.003	3425
3783.643	3377
3785.283	3416
3786.923	3507
3788.563	3390
3790.203	3442
3791.841	3467
3793.479	3376
3795.115	3377
3796.753	3461
3798.391	3415
3800.027	3435
3801.664	3403
3803.299	3362
3804.935	3453
3806.571	3403
3808.206	3371
3809.839	3391
3811.473	3329
3813.107	3384
3814.74	3429
3816.375	3408
3818.006	3379
3819.638	3351
3821.27	3372
3822.9	3381
3824.532	3369
3826.163	3352
3827.792	3400
3829.423	3426
3831.051	3332
3832.682	3325
3834.311	3363
3835.938	3430
3837.566	3329
3839.193	3350
3840.821	3437
3842.448	3317
3844.075	3397
3845.7	3317
3847.325	3266
3848.951	3400
3850.576	3328
3852.201	3310
3853.825	3363
3855.448	3334
3857.072	3265
3858.694	3244
3860.318	3354
3861.939	3294
3863.562	3298
3865.183	3281
3866.804	3305
3868.426	3278
3870.045	3315
3871.666	3317
3873.285	3286
3874.904	3233
3876.524	3311
3878.142	3231
3879.76	3247
3881.378	3277
3882.995	3186
3884.612	3362
3886.229	3322
3887.845	3224
3889.461	3279
3891.076	3268
3892.691	3263
3894.307	3343
3895.922	3252
3897.536	3302
3899.149	3311
3900.761	3244
3902.374	3243
3903.988	3327
3905.6	3260
3907.212	3300
3908.822	3216
3910.433	3263
3912.045	3219
3913.655	3278
3915.265	3215
3916.875	3261
3918.483	3240
3920.093	3248
3921.702	3266
3923.309	3201
3924.917	3331
3926.523	3242
3928.13	3168
3929.739	3219
3931.344	3300
3932.95	3202
3934.555	3177
3936.159	3223
3937.766	3286
3939.369	3248
3940.974	3229
3942.577	3221
3944.181	3179
3945.783	3240
3947.386	3166
3948.989	3208
3950.59	3216
3952.191	3231
3953.791	3239
3955.394	3224
3956.994	3170
3958.593	3190
3960.192	3185
3961.791	3189
3963.392	3186
3964.99	3137
3966.588	3181
3968.185	3093
3969.782	3163
3971.379	3091
3972.976	3155
3974.572	3153
3976.168	3131
3977.763	3207
3979.358	3176
3980.954	3141
3982.548	3192
3984.142	3146
3985.736	3129
3987.329	3156
3988.922	3107
3990.516	3118
3992.108	3105
3993.698	3208
3995.29	3122
3996.881	3107
3998.473	3074
4000.064	3116
4001.653	3126
4003.242	3121
4004.832	3158
4006.422	3049
4008.01	3091
4009.598	3078
4011.186	3145
4012.773	3072
4014.36	3081
4015.947	3026
4017.534	3062
4019.119	2988
4020.705	3071
4022.291	3053
4023.876	3030
4025.461	3058
4027.044	3043
4028.627	3010
4030.211	2917
4031.795	3061
4033.378	2967
4034.96	3013
4036.542	2977
4038.124	3023
4039.704	3058
4041.286	3032
4042.867	3005
4044.447	3097
4046.026	2965
4047.606	3013
4049.187	3029
4050.765	2988
4052.343	3017
4053.92	3007
4055.498	2929
4057.076	3021
4058.654	2960
4060.23	2992
4061.806	2976
4063.381	3001
4064.957	3035
4066.533	3003
4068.107	3009
4069.682	2983
4071.256	2976
4072.829	3022
4074.404	2951
4075.977	2953
4077.549	2962
4079.121	2898
4080.693	3000
4082.265	2927
4083.836	2955
4085.407	2910
4086.977	2899
4088.547	2905
4090.117	3004
4091.687	2961
4093.256	2946
4094.825	2922
4096.392	3033
4097.96	2996
4099.528	2943
4101.097	2998
4102.663	2954
4104.229	2926
4105.795	2950
4107.361	2951
4108.928	2889
4110.493	2970
4112.058	2951
4113.621	2869
4115.186	2981
4116.75	2864
4118.313	2915
4119.876	2940
4121.438	2971
4123	2835
4124.562	2899
4126.125	2856
4127.686	2914
4129.246	2850
4130.807	2869
4132.367	2896
4133.927	2842
4135.486	2808
4137.046	2836
4138.604	2875
4140.162	2865
4141.72	2820
4143.279	2839
4144.836	2861
4146.393	2890
4147.949	2879
4149.505	2893
4151.062	2888
4152.617	2850
4154.172	2802
4155.727	2784
4157.281	2881
4158.836	2812
4160.39	2777
4161.943	2808
4163.496	2840
4165.048	2825
4166.601	2796
4168.154	2824
4169.706	2851
4171.257	2762
4172.808	2779
4174.358	2733
4175.909	2789
4177.458	2826
4179.008	2776
4180.558	2772
4182.106	2789
4183.655	2786
4185.204	2763
4186.751	2826
4188.298	2785
4189.845	2802
4191.392	2748
4192.939	2799
4194.485	2733
4196.031	2824
4197.576	2745
4199.121	2675
4200.666	2727
4202.211	2694
4203.754	2670
4205.298	2722
4206.84	2787
4208.384	2722
4209.927	2649
4211.47	2715
4213.011	2692
4214.552	2767
4216.094	2810
4217.635	2725
4219.175	2728
4220.716	2757
4222.255	2699
4223.793	2726
4225.335	2728
4226.873	2748
4228.411	2793
4229.948	2675
4231.486	2728
4233.024	2774
4234.562	2763
4236.098	2729
4237.634	2696
4239.169	2723
4240.705	2802
4242.241	2671
4243.776	2727
4245.31	2732
4246.844	2699
4248.378	2642
4249.911	2700
4251.445	2647
4252.978	2707
4254.51	2687
4256.042	2621
4257.574	2665
4259.107	2636
4260.638	2697
4262.169	2741
4263.699	2707
4265.228	2727
4266.759	2646
4268.289	2614
4269.818	2677
4271.345	2709
4272.874	2616
4274.402	2670
4275.931	2709
4277.458	2640
4278.985	2760
4280.512	2563
4282.037	2634
4283.564	2641
4285.089	2633
4286.615	2602
4288.139	2646
4289.664	2710
4291.187	2619
4292.712	2669
4294.235	2684
4295.759	2623
4297.281	2627
4298.804	2560
4300.327	2589
4301.849	2628
4303.37	2596
4304.891	2618
4306.412	2672
4307.933	2607
4309.453	2571
4310.973	2618
4312.492	2603
