398.1873	5391
400.7097	5446
403.2336	5486
405.7547	5327
408.2751	5538
410.7948	5524
413.3138	5448
415.83	5532
418.3497	5642
420.8666	5683
423.3829	5658
425.8985	5680
428.4133	5865
430.9275	5784
433.441	5808
435.9538	5834
438.4639	5896
440.9753	5829
443.4881	5924
445.9982	5864
448.5055	5916
451.0142	5800
453.5201	5908
456.0274	5889
458.5361	5905
461.04	5884
463.5453	5748
466.0478	5748
468.5517	5889
471.0549	5768
473.5574	5875
476.0572	5890
478.5584	5903
481.0568	5880
483.5545	5895
486.0557	5967
488.5521	5988
491.0478	5892
493.5449	5849
496.0392	6018
498.5349	5938
501.0299	5978
503.5222	5898
506.0139	6019
508.5048	5939
510.9991	5883
513.4887	6013
515.9777	5994
518.4659	6053
520.9534	5993
523.4403	6097
525.9306	6130
528.4161	6110
530.9009	6043
533.3851	6041
535.8687	6199
538.3535	6016
540.8356	5984
543.3171	5991
545.7979	6143
548.278	5966
550.7595	6163
553.2383	6144
555.7144	6088
558.1918	6143
560.6685	6127
563.1446	6180
565.6221	6159
568.0968	6291
570.5688	6307
573.0422	6342
575.515	6360
577.989	6335
580.4584	6307
582.9291	6306
585.3991	6323
587.8685	6175
590.3352	6338
592.8052	6445
595.2706	6295
597.7372	6332
600.2033	6336
602.6666	6347
605.1334	6373
607.5953	6295
610.0587	6264
612.5193	6298
614.9814	6261
617.4427	6322
619.9034	6308
622.3615	6149
624.8208	6303
627.2775	6260
629.7335	6309
632.1929	6169
634.6476	6215
637.1016	6253
639.5569	6272
642.0096	6227
644.4637	6270
646.9151	6254
649.3678	6281
651.8179	6318
654.2672	6394
656.7159	6343
659.166	6401
661.6154	6390
664.0622	6390
666.5082	6566
668.9537	6528
671.4005	6415
673.8445	6469
676.288	6404
678.7308	6400
681.1729	6366
683.6163	6453
686.0572	6385
688.4973	6436
690.9368	6506
693.3757	6438
695.8138	6527
698.2534	6478
700.6902	6584
703.1245	6562
705.56	6523
707.9949	6645
710.4311	6566
712.8647	6515
715.2957	6569
717.7279	6834
720.1595	6666
722.5905	6662
725.0208	6655
727.4505	6633
729.8795	6674
732.3058	6782
734.7336	6712
737.1626	6821
739.587	6819
742.0128	6691
744.4359	6789
746.8604	6754
749.2841	6845
751.7073	6861
754.1278	6845
756.5496	6885
758.9688	6885
761.3893	6915
763.8093	7037
766.2285	7012
768.6451	6988
771.0611	6896
773.4784	7072
775.895	6911
778.3091	6945
780.7244	6944
783.1371	7047
785.5493	6926
787.9626	6899
790.3754	6915
792.7856	6906
795.1951	7083
797.6039	7018
800.0121	7000
802.4236	7120
804.8306	7061
807.2369	6985
809.6425	6965
812.0475	7062
814.4538	7083
816.8575	6974
819.2606	7102
821.663	7004
824.0648	7075
826.4659	7112
828.8683	7086
831.2682	7070
833.6674	6956
836.066	7150
838.4639	7127
840.8632	7075
843.2579	7154
845.6539	7135
848.0493	7173
850.444	7202
852.84	7125
855.2315	7162
857.6243	7120
860.0165	7208
862.4081	7278
864.797	7239
867.1892	7234
869.5789	7167
871.9659	7205
874.3542	7262
876.74	7139
879.129	7196
881.5155	7153
883.8994	7109
886.2845	7087
888.6671	7140
891.051	7215
893.4343	7240
895.8169	7187
898.197	7141
900.5783	7138
902.9571	7106
905.3372	7192
907.7167	7307
910.0936	7287
912.4698	7264
914.8474	7202
917.2244	7322
919.5987	7323
921.9744	7437
924.3475	7372
926.72	7442
929.0918	7432
931.4669	7510
933.8375	7381
936.2074	7447
938.5767	7648
940.9454	7749
943.3154	7734
945.6829	7926
948.0497	8030
950.4178	8150
952.7833	8476
955.1483	8694
957.5145	9043
959.8782	9362
962.2412	9282
964.6036	8943
966.9655	8723
969.3266	8353
971.6871	8092
974.0471	7837
976.4064	7729
978.765	7431
981.125	7364
983.4824	7383
985.8373	7428
988.1935	7377
990.549	7444
992.9039	7440
995.2602	7322
997.6119	7420
999.965	7367
1002.317	7407
1004.667	7393
1007.02	7460
1009.371	7523
1011.719	7361
1014.068	7466
1016.415	7436
1018.765	7594
1021.111	7461
1023.458	7457
1025.804	7492
1028.147	7479
1030.49	7556
1032.837	7562
1035.179	7591
1037.522	7655
1039.862	7555
1042.204	7494
1044.546	7611
1046.884	7618
1049.224	7602
1051.562	7589
1053.899	7571
1056.237	7516
1058.575	7703
1060.91	7716
1063.244	7699
1065.58	7729
1067.913	7772
1070.248	7727
1072.579	7808
1074.911	7925
1077.242	7794
1079.572	7591
1081.905	7710
1084.234	7693
1086.562	7629
1088.89	7720
1091.217	7596
1093.544	7530
1095.871	7686
1098.197	7629
1100.521	7603
1102.845	7587
1105.169	7538
1107.491	7752
1109.814	7571
1112.135	7568
1114.456	7571
1116.776	7646
1119.096	7746
1121.415	7685
1123.734	7622
1126.052	7851
1128.369	7548
1130.686	7636
1133.002	7633
1135.318	7641
1137.632	7580
1139.945	7605
1142.258	7590
1144.573	7558
1146.884	7550
1149.196	7664
1151.505	7660
1153.816	7641
1156.124	7724
1158.435	7637
1160.742	7606
1163.051	7703
1165.356	7660
1167.663	7722
1169.97	7583
1172.276	7677
1174.579	7663
1176.881	7621
1179.186	7704
1181.487	7711
1183.79	7630
1186.092	7648
1188.392	7671
1190.691	7690
1192.991	7570
1195.291	7761
1197.588	7741
1199.885	7650
1202.181	7642
1204.479	7676
1206.775	7723
1209.07	7664
1211.363	7629
1213.656	7715
1215.949	7756
1218.241	7678
1220.534	7684
1222.825	7591
1225.115	7810
1227.405	7703
1229.693	7749
1231.984	7953
1234.271	7774
1236.558	7862
1238.845	7800
1241.131	7954
1243.416	7959
1245.703	7808
1247.987	8015
1250.269	8044
1252.552	8002
1254.834	8032
1257.118	7861
1259.399	7767
1261.678	7828
1263.958	8024
1266.237	7937
1268.516	8084
1270.794	7919
1273.072	7938
1275.347	7886
1277.624	7911
1279.899	7991
1282.175	7874
1284.449	7926
1286.722	7896
1288.995	7742
1291.266	7860
1293.54	7930
1295.81	7871
1298.081	7843
1300.35	7770
1302.62	7868
1304.889	7908
1307.156	7964
1309.425	7717
1311.69	7927
1313.957	7827
1316.222	7932
1318.488	7902
1320.751	7795
1323.016	7872
1325.278	7672
1327.54	7814
1329.803	7974
1332.065	7729
1334.325	7833
1336.584	7893
1338.843	7813
1341.101	7899
1343.36	7751
1345.617	7790
1347.876	7864
1350.131	7828
1352.387	7858
1354.643	7873
1356.897	7801
1359.151	7851
1361.403	7852
1363.656	7915
1365.909	7886
1368.16	7920
1370.409	7894
1372.659	7950
1374.909	7951
1377.157	7926
1379.407	7979
1381.655	7964
1383.9	7898
1386.147	7893
1388.393	7846
1390.64	7930
1392.885	7862
1395.127	7910
1397.37	7954
1399.614	8017
1401.854	8024
1404.098	7849
1406.339	8126
1408.578	7965
1410.818	7965
1413.056	7963
1415.297	8025
1417.533	7967
1419.771	8030
1422.006	8070
1424.243	8058
1426.479	8095
1428.715	7997
1430.948	8224
1433.182	8107
1435.414	8163
1437.647	8091
1439.88	8194
1442.11	8146
1444.342	8148
1446.571	8177
1448.799	8177
1451.029	8295
1453.258	8299
1455.485	8216
1457.711	8212
1459.937	8135
1462.164	8188
1464.39	8158
1466.614	8171
1468.838	8265
1471.06	8061
1473.283	8053
1475.506	8117
1477.727	7969
1479.949	7957
1482.169	8011
1484.389	8067
1486.609	8026
1488.828	8013
1491.045	7936
1493.261	8046
1495.477	7965
1497.693	7971
1499.91	8007
1502.125	7878
1504.339	7917
1506.553	7979
1508.766	7942
1510.979	7913
1513.191	7906
1515.402	7974
1517.613	7994
1519.823	7995
1522.033	8072
1524.242	7827
1526.451	7949
1528.657	8010
1530.865	7944
1533.072	7849
1535.278	7988
1537.484	7992
1539.687	7953
1541.892	7906
1544.096	7941
1546.299	7901
1548.502	7894
1550.703	7989
1552.905	8007
1555.104	8075
1557.303	8073
1559.505	8202
1561.703	7982
1563.902	8202
1566.099	8100
1568.295	8112
1570.494	8079
1572.689	8169
1574.883	8216
1577.079	8181
1579.272	8234
1581.467	8115
1583.659	8189
1585.853	8239
1588.044	8178
1590.234	8225
1592.424	8136
1594.615	8135
1596.806	8170
1598.994	8274
1601.182	8179
1603.369	8186
1605.557	8262
1607.744	8216
1609.929	8260
1612.114	8270
1614.298	8168
1616.482	8272
1618.667	8125
1620.85	8245
1623.032	8286
1625.214	8345
1627.395	8287
1629.575	8262
1631.755	8384
1633.935	8318
1636.114	8363
1638.292	8282
1640.471	8384
1642.647	8411
1644.823	8261
1647	8381
1649.175	8393
1651.348	8447
1653.525	8346
1655.698	8383
1657.87	8472
1660.043	8405
1662.213	8286
1664.387	8353
1666.558	8395
1668.727	8504
1670.896	8438
1673.064	8500
1675.233	8513
1677.401	8411
1679.569	8398
1681.735	8391
1683.902	8362
1686.066	8201
1688.233	8327
1690.397	8338
1692.559	8407
1694.723	8442
1696.885	8332
1699.048	8368
1701.21	8334
1703.37	8278
1705.53	8188
1707.689	8218
1709.849	8245
1712.009	8267
1714.166	8371
1716.323	8368
1718.479	8217
1720.634	8080
1722.793	8307
1724.948	8289
1727.102	8342
1729.255	8357
1731.408	8339
1733.562	8226
1735.714	8189
1737.865	8356
1740.016	8398
1742.166	8280
1744.316	8424
1746.467	8224
1748.616	8188
1750.764	8384
1752.911	8235
1755.056	8413
1757.205	8411
1759.35	8326
1761.496	8235
1763.641	8207
1765.785	8300
1767.927	8382
1770.072	8345
1772.214	8280
1774.355	8267
1776.496	8418
1778.637	8357
1780.778	8287
1782.918	8370
1785.057	8346
1787.194	8352
1789.333	8351
1791.472	8444
1793.608	8494
1795.745	8329
1797.879	8419
1800.015	8390
1802.148	8420
1804.284	8429
1806.417	8399
1808.548	8362
1810.682	8353
1812.812	8386
1814.946	8322
1817.075	8474
1819.205	8424
1821.335	8185
1823.463	8375
1825.59	8255
1827.721	8466
1829.847	8383
1831.973	8329
1834.098	8474
1836.223	8395
1838.351	8301
1840.475	8275
1842.598	8356
1844.721	8325
1846.843	8156
1848.966	8460
1851.087	8338
1853.21	8306
1855.33	8276
1857.449	8331
1859.568	8392
1861.688	8383
1863.806	8200
1865.924	8316
1868.039	8296
1870.155	8280
1872.273	8282
1874.388	8261
1876.503	8329
1878.617	8266
1880.73	8271
1882.844	8303
1884.956	8262
1887.068	8335
1889.18	8259
1891.291	8315
1893.4	8410
1895.511	8441
1897.621	8384
1899.73	8399
1901.837	8425
1903.944	8373
1906.053	8302
1908.159	8318
1910.265	8427
1912.369	8425
1914.474	8386
1916.577	8346
1918.683	8549
1920.785	8469
1922.888	8346
1924.989	8513
1927.091	8503
1929.193	8456
1931.294	8361
1933.393	8533
1935.493	8535
1937.59	8490
1939.689	8542
1941.788	8485
1943.884	8512
1945.98	8500
1948.077	8567
1950.171	8498
1952.267	8513
1954.361	8445
1956.455	8418
1958.548	8519
1960.64	8376
1962.733	8580
1964.824	8541
1966.915	8565
1969.005	8547
1971.096	8468
1973.185	8503
1975.275	8388
1977.363	8413
1979.45	8332
1981.537	8412
1983.623	8509
1985.711	8458
1987.796	8363
1989.881	8321
1991.965	8427
1994.047	8410
1996.132	8284
1998.215	8514
2000.297	8409
2002.378	8370
2004.46	8336
2006.54	8419
2008.62	8380
2010.7	8440
2012.779	8376
2014.858	8423
2016.934	8423
2019.013	8392
2021.09	8388
2023.165	8396
2025.241	8423
2027.317	8364
2029.39	8490
2031.466	8389
2033.538	8391
2035.612	8470
2037.683	8416
2039.755	8500
2041.827	8453
2043.898	8260
2045.968	8533
2048.038	8423
2050.106	8539
2052.177	8212
2054.244	8445
2056.313	8519
2058.379	8375
2060.444	8371
2062.511	8388
2064.577	8430
2066.641	8466
2068.705	8557
2070.77	8412
2072.832	8361
2074.896	8526
2076.958	8398
2079.02	8518
2081.081	8369
2083.141	8489
2085.2	8407
2087.261	8351
2089.319	8454
2091.377	8444
2093.435	8647
2095.492	8413
2097.552	8398
2099.607	8578
2101.663	8522
2103.718	8401
2105.771	8606
2107.826	8526
2109.879	8455
2111.932	8527
2113.985	8494
2116.037	8404
2118.088	8445
2120.141	8395
2122.191	8499
2124.239	8316
2126.288	8445
2128.337	8448
2130.387	8406
2132.434	8393
2134.481	8445
2136.528	8458
2138.574	8420
2140.618	8476
2142.665	8330
2144.71	8360
2146.753	8564
2148.797	8447
2150.838	8427
2152.883	8504
2154.923	8490
2156.965	8524
2159.007	8380
2161.046	8446
2163.086	8256
2165.126	8399
2167.163	8331
2169.202	8494
2171.239	8313
2173.277	8412
2175.314	8187
2177.349	8443
2179.385	8424
2181.42	8367
2183.453	8277
2185.49	8362
2187.522	8328
2189.555	8376
2191.586	8155
2193.619	8370
2195.651	8238
2197.682	8269
2199.711	8452
2201.74	8410
2203.769	8228
2205.799	8298
2207.828	8232
2209.855	8317
2211.882	8241
2213.908	8452
2215.934	8142
2217.961	8303
2219.986	8213
2222.01	8160
2224.034	8287
2226.057	8126
2228.08	8316
2230.104	8289
2232.124	8315
2234.145	8297
2236.166	8139
2238.186	8229
2240.207	8330
2242.227	8362
2244.244	8298
2246.262	8301
2248.28	8213
2250.299	8107
2252.314	8202
2254.33	8366
2256.346	8145
2258.36	8187
2260.375	8273
2262.391	8239
2264.403	8303
2266.416	8241
2268.427	8222
2270.44	8303
2272.453	8224
2274.463	8234
2276.474	8273
2278.483	8256
2280.493	8144
2282.501	8321
2284.51	8266
2286.518	8320
2288.524	8132
2290.532	8345
2292.537	8140
2294.544	8231
2296.55	8185
2298.554	8290
2300.557	8277
2302.562	8079
2304.566	8308
2306.568	8208
2308.569	8281
2310.572	8334
2312.573	8276
2314.573	8286
2316.574	8221
2318.573	8165
2320.571	8252
2322.571	8232
2324.569	8207
2326.567	8286
2328.564	8135
2330.56	8100
2332.556	8317
2334.551	8269
2336.546	8246
2338.542	8159
2340.535	8208
2342.529	8142
2344.521	8280
2346.512	8286
2348.505	8156
2350.497	8244
2352.487	8100
2354.478	8123
2356.468	7974
2358.457	8128
2360.446	8023
2362.434	8109
2364.422	8216
2366.408	8134
2368.395	8095
2370.383	8103
2372.369	8039
2374.353	8125
2376.338	8346
2378.321	7886
2380.307	8159
2382.29	8034
2384.272	8102
2386.254	8077
2388.235	7966
2390.218	8203
2392.198	8012
2394.179	7898
2396.157	7951
2398.137	8084
2400.115	7900
2402.095	8019
2404.072	8096
2406.048	8105
2408.026	8011
2410.001	7971
2411.977	8004
2413.953	8026
2415.927	7973
2417.9	8207
2419.875	8019
2421.847	7991
2423.821	7977
2425.792	8047
2427.763	8069
2429.736	8064
2431.706	8109
2433.677	7960
2435.646	8018
2437.615	8064
2439.583	7993
2441.551	8057
2443.519	8046
2445.486	7981
2447.452	8018
2449.418	8067
2451.383	8037
2453.348	7931
2455.314	8042
2457.278	7852
2459.241	8076
2461.205	8057
2463.167	8085
2465.131	7915
2467.091	8063
2469.052	8018
2471.012	8017
2472.972	7798
2474.932	7882
2476.891	7904
2478.85	7956
2480.808	7854
2482.766	7974
2484.722	7891
2486.68	8029
2488.636	7977
2490.591	7928
2492.546	7897
2494.5	7997
2496.456	7896
2498.41	7845
2500.362	7883
2502.315	7969
2504.266	7915
2506.218	7922
2508.169	7925
2510.121	7934
2512.07	7828
2514.019	7878
2515.968	7973
2517.918	7891
2519.866	7805
2521.813	7901
2523.76	7935
2525.707	7758
2527.653	7896
2529.599	7884
2531.543	7934
2533.489	7977
2535.433	7777
2537.376	7934
2539.32	7885
2541.264	7951
2543.205	7877
2545.147	7909
2547.087	7844
2549.029	7803
2550.969	7911
2552.908	7843
2554.847	7942
2556.786	7900
2558.724	7840
2560.663	7885
2562.6	7822
2564.537	7758
2566.473	7753
2568.408	7911
2570.345	7848
2572.28	7862
2574.214	7917
2576.148	7817
2578.081	7959
2580.014	7922
2581.947	7844
2583.879	7885
2585.81	7999
2587.741	7910
2589.67	7888
2591.602	7997
2593.532	7986
2595.461	7823
2597.388	7854
2599.316	7956
2601.244	7875
2603.172	7824
2605.098	7890
2607.023	7778
2608.949	7932
2610.873	7875
2612.8	7920
2614.723	7894
2616.647	7817
2618.569	7926
2620.493	7911
2622.416	7997
2624.338	7820
2626.258	7856
2628.179	8015
2630.099	7884
2632.019	7926
2633.939	7903
2635.857	7837
2637.775	7965
2639.694	7965
2641.61	7779
2643.528	7852
2645.444	7998
2647.361	7958
2649.276	7833
2651.19	8063
2653.105	7905
2655.019	7933
2656.934	7875
2658.846	7841
2660.758	7900
2662.67	7856
2664.583	7972
2666.493	7864
2668.404	7862
2670.313	7865
2672.223	7818
2674.134	7924
2676.042	7896
2677.95	7742
2679.858	7790
2681.765	7948
2683.673	7870
2685.579	7807
2687.483	7749
2689.389	7753
2691.294	7848
2693.198	7875
2695.104	7757
2697.006	7876
2698.909	7753
2700.811	7760
2702.713	7816
2704.615	7765
2706.516	7809
2708.417	7848
2710.316	7827
2712.216	7710
2714.115	7827
2716.014	7763
2717.913	7962
2719.81	7747
2721.707	7702
2723.603	7818
2725.501	7792
2727.396	7819
2729.292	7829
2731.186	7802
2733.081	7833
2734.976	7673
2736.87	7736
2738.762	7838
2740.653	7749
2742.546	7842
2744.437	7643
2746.329	7801
2748.22	7678
2750.11	7834
2751.999	7711
2753.889	7766
2755.778	7754
2757.666	7776
2759.553	7684
2761.44	7753
2763.328	7667
2765.215	7693
2767.101	7717
2768.986	7784
2770.87	7663
2772.754	7688
2774.638	7582
2776.523	7658
2778.405	7715
2780.288	7638
2782.17	7686
2784.051	7707
2785.934	7804
2787.814	7668
2789.694	7732
2791.574	7541
2793.453	7561
2795.332	7670
2797.212	7549
2799.088	7678
2800.966	7646
2802.843	7485
2804.719	7708
2806.597	7697
2808.471	7576
2810.346	7763
2812.221	7489
2814.094	7617
2815.969	7629
2817.843	7570
2819.714	7718
2821.587	7624
2823.459	7678
2825.329	7659
2827.202	7546
2829.072	7611
2830.942	7551
2832.811	7639
2834.68	7569
2836.549	7582
2838.418	7577
2840.284	7629
2842.152	7651
2844.018	7660
2845.885	7707
2847.751	7594
2849.616	7571
2851.482	7625
2853.345	7576
2855.208	7643
2857.074	7664
2858.937	7712
2860.799	7719
2862.66	7698
2864.522	7816
2866.385	7853
2868.245	7845
2870.104	7856
2871.964	7875
2873.824	8041
2875.683	7810
2877.542	7898
2879.4	7959
2881.257	8062
2883.114	8134
2884.97	8013
2886.827	8125
2888.683	8127
2890.537	7991
2892.392	7975
2894.246	8118
2896.1	8062
2897.954	8064
2899.807	7994
2901.66	8025
2903.51	8057
2905.362	7908
2907.214	7985
2909.065	7926
2910.915	8070
2912.765	8153
2914.613	8036
2916.463	8103
2918.311	8215
2920.158	8247
2922.006	8360
2923.853	8405
2925.698	8429
2927.546	8399
2929.392	8507
2931.236	8535
2933.081	8522
2934.924	8593
2936.77	8663
2938.613	8559
2940.455	8635
2942.298	8749
2944.139	8664
2945.982	8645
2947.823	8683
2949.662	8603
2951.503	8672
2953.342	8469
2955.182	8333
2957.021	8528
2958.858	8452
2960.697	8289
2962.534	8442
2964.37	8150
2966.207	8216
2968.044	8150
2969.879	8215
2971.714	8008
2973.548	8076
2975.383	8154
2977.218	8046
2979.051	8268
2980.883	8062
2982.715	8195
2984.547	8041
2986.379	7864
2988.21	7914
2990.04	7981
2991.87	8026
2993.7	7818
2995.53	7918
2997.359	7799
2999.187	7713
3001.015	7754
3002.842	7771
3004.669	7712
3006.497	7638
3008.323	7547
3010.148	7500
3011.974	7501
3013.797	7555
3015.623	7541
3017.447	7338
3019.27	7360
3021.094	7478
3022.915	7436
3024.737	7363
3026.56	7248
3028.38	7383
3030.201	7327
3032.022	7447
3033.84	7310
3035.662	7191
3037.481	7364
3039.298	7414
3041.117	7199
3042.933	7332
3044.752	7283
3046.568	7199
3048.385	7316
3050.2	7295
3052.016	7225
3053.83	7216
3055.646	7269
3057.46	7198
3059.272	7211
3061.086	7295
3062.898	7292
3064.711	7206
3066.524	7267
3068.335	7368
3070.145	7168
3071.956	7224
3073.766	7153
3075.576	7087
3077.385	7186
3079.193	7182
3081.002	7204
3082.81	7075
3084.618	7156
3086.425	7008
3088.231	7255
3090.036	7136
3091.842	7077
3093.648	7194
3095.452	7011
3097.257	7123
3099.06	7229
3100.863	7158
3102.666	7239
3104.47	7005
3106.272	7105
3108.073	7159
3109.875	7039
3111.676	7011
3113.477	6995
3115.277	7067
3117.077	6993
3118.874	6926
3120.673	7006
3122.473	7073
3124.271	6992
3126.066	6948
3127.863	6965
3129.66	7069
3131.456	6998
3133.252	6928
3135.047	7081
3136.842	7038
3138.635	6994
3140.429	6894
3142.223	6923
3144.016	6921
3145.808	6943
3147.6	6934
3149.392	6980
3151.183	6992
3152.975	6967
3154.765	6906
3156.553	6861
3158.344	6891
3160.132	6870
3161.922	6931
3163.71	6763
3165.497	6869
3167.285	6899
3169.071	6893
3170.858	6823
3172.645	6884
3174.429	6818
3176.214	6918
3177.998	6838
3179.783	6786
3181.568	6919
3183.351	6916
3185.133	6876
3186.915	6783
3188.698	6858
3190.481	6952
3192.261	6801
3194.042	6879
3195.822	6798
3197.601	6907
3199.381	6793
3201.161	6808
3202.939	6869
3204.717	6844
3206.495	6803
3208.272	6836
3210.05	6766
3211.826	6813
3213.602	6796
3215.376	6793
3217.151	6806
3218.927	6719
3220.702	6729
3222.476	6870
3224.249	6772
3226.021	6770
3227.793	6756
3229.567	6800
3231.339	6724
3233.109	6877
3234.88	6746
3236.651	6782
3238.421	6731
3240.191	6760
3241.96	6630
3243.728	6764
3245.497	6620
3247.263	6771
3249.033	6774
3250.799	6786
3252.566	6804
3254.331	6759
3256.097	6630
3257.863	6667
3259.628	6656
3261.392	6675
3263.156	6730
3264.919	6785
3266.683	6740
3268.447	6759
3270.208	6763
3271.969	6740
3273.731	6693
3275.492	6847
3277.253	6711
3279.013	6708
3280.773	6647
3282.532	6796
3284.291	6742
3286.05	6721
3287.808	6705
3289.566	6796
3291.323	6729
3293.079	6789
3294.835	6637
3296.593	6695
3298.348	6848
3300.102	6717
3301.857	6741
3303.611	6863
3305.366	6807
3307.119	6787
3308.872	6717
3310.624	6623
3312.376	6750
3314.129	6758
3315.881	6735
3317.631	6607
3319.38	6776
3321.13	6693
3322.88	6722
3324.631	6753
3326.379	6618
3328.126	6774
3329.875	6644
3331.622	6810
3333.371	6675
3335.116	6716
3336.863	6624
3338.609	6739
3340.353	6670
3342.1	6675
3343.845	6793
3345.588	6671
3347.332	6753
3349.074	6690
3350.817	6633
3352.56	6758
3354.303	6556
3356.043	6597
3357.785	6754
3359.525	6817
3361.268	6708
3363.007	6618
3364.745	6607
3366.485	6604
3368.223	6582
3369.962	6563
3371.701	6606
3373.438	6571
3375.174	6527
3376.911	6467
3378.647	6574
3380.384	6585
3382.118	6532
3383.854	6458
3385.588	6432
3387.322	6586
3389.057	6554
3390.79	6523
3392.522	6538
3394.255	6613
3395.987	6578
3397.719	6538
3399.451	6535
3401.181	6480
3402.911	6685
3404.641	6482
3406.371	6539
3408.101	6574
3409.83	6549
3411.558	6475
3413.285	6366
3415.011	6443
3416.739	6488
3418.467	6408
3420.193	6364
3421.919	6439
3423.644	6405
3425.368	6369
3427.094	6391
3428.818	6338
3430.542	6408
3432.264	6586
3433.987	6395
3435.712	6342
3437.434	6462
3439.155	6327
3440.876	6344
3442.596	6294
3444.317	6446
3446.039	6350
3447.757	6301
3449.477	6326
3451.195	6375
3452.914	6367
3454.632	6369
3456.35	6247
3458.067	6384
3459.784	6329
3461.5	6288
3463.216	6261
3464.932	6321
3466.647	6267
3468.362	6274
3470.076	6245
3471.789	6194
3473.505	6242
3475.217	6235
3476.929	6271
3478.641	6202
3480.354	6216
3482.066	6234
3483.777	6211
3485.487	6291
3487.197	6148
3488.908	6154
3490.617	6181
3492.327	6148
3494.035	6255
3495.743	6267
3497.451	6250
3499.158	6131
3500.866	6165
3502.572	6116
3504.278	6147
3505.984	6180
3507.689	6049
3509.396	6208
3511.1	6115
3512.804	6100
3514.508	6101
3516.211	6026
3517.913	6084
3519.616	5995
3521.319	6111
3523.021	6046
3524.722	6026
3526.422	6013
3528.124	6030
3529.824	6065
3531.524	6093
3533.222	6020
3534.921	6074
3536.62	6148
3538.318	6008
3540.016	6064
3541.714	6000
3543.41	6070
3545.107	6072
3546.803	5964
3548.5	5989
3550.194	5956
3551.889	5969
3553.583	6030
3555.279	5998
3556.972	6028
3558.666	5967
3560.358	5974
3562.051	5961
3563.742	5967
3565.435	6030
3567.126	5948
3568.817	5950
3570.507	5907
3572.197	5976
3573.888	5881
3575.577	5933
3577.265	5974
3578.954	5913
3580.642	5848
3582.329	5858
3584.017	5874
3585.704	5857
3587.391	5771
3589.077	5913
3590.762	5817
3592.449	5958
3594.133	5859
3595.817	5811
3597.501	5792
3599.185	5770
3600.869	5769
3602.552	5863
3604.234	5675
3605.916	5783
3607.598	5670
3609.279	5668
3610.961	5778
3612.642	5772
3614.321	5712
3616	5684
3617.68	5717
3619.36	5689
3621.039	5640
3622.716	5722
3624.394	5749
3626.071	5626
3627.748	5743
3629.425	5688
3631.102	5640
3632.778	5687
3634.452	5613
3636.127	5651
3637.803	5562
3639.477	5671
3641.151	5620
3642.823	5626
3644.497	5616
3646.171	5705
3647.842	5622
3649.515	5555
3651.185	5604
3652.857	5588
3654.527	5620
3656.198	5589
3657.868	5550
3659.537	5575
3661.207	5505
3662.875	5619
3664.544	5591
3666.212	5615
3667.879	5510
3669.546	5552
3671.212	5502
3672.88	5579
3674.546	5530
3676.211	5599
3677.875	5540
3679.541	5480
3681.205	5487
3682.87	5557
3684.533	5440
3686.196	5526
3687.859	5593
3689.521	5567
3691.184	5535
3692.845	5555
3694.507	5539
3696.167	5551
3697.827	5559
3699.487	5401
3701.148	5548
3702.808	5571
3704.466	5527
3706.125	5448
3707.783	5431
3709.442	5396
3711.099	5539
3712.757	5458
3714.412	5446
3716.068	5556
3717.725	5386
3719.381	5423
3721.036	5481
3722.689	5472
3724.344	5522
3725.998	5418
3727.652	5446
3729.305	5361
3730.958	5428
3732.61	5370
3734.262	5454
3735.915	5438
3737.565	5364
3739.217	5250
3740.866	5299
3742.516	5384
3744.165	5432
3745.816	5347
3747.464	5342
3749.113	5379
3750.761	5357
3752.409	5267
3754.057	5390
3755.703	5409
3757.35	5372
3758.996	5349
3760.641	5370
3762.289	5274
3763.933	5328
3765.577	5415
3767.222	5360
3768.865	5355
3770.508	5242
3772.152	5279
3773.796	5183
3775.438	5342
3777.079	5330
3778.721	5315
3780.363	5265
3782.003	5258
3783.643	5290
3785.283	5266
3786.923	5312
3788.563	5263
3790.203	5292
3791.841	5268
3793.479	5242
3795.115	5250
3796.753	5249
3798.391	5173
3800.027	5234
3801.664	5208
3803.299	5187
3804.935	5250
3806.571	5206
3808.206	5164
3809.839	5291
3811.473	5220
3813.107	5255
3814.74	5232
3816.375	5079
3818.006	5211
3819.638	5283
3821.27	5142
3822.9	5098
3824.532	5151
3826.163	5162
3827.792	5180
3829.423	5090
3831.051	5156
3832.682	5147
3834.311	5089
3835.938	5161
3837.566	5103
3839.193	5092
3840.821	5037
3842.448	5089
3844.075	5033
3845.7	4979
3847.325	4979
3848.951	5076
3850.576	5139
3852.201	5098
3853.825	4981
3855.448	5060
3857.072	5071
3858.694	5001
3860.318	5129
3861.939	5213
3863.562	5042
3865.183	4971
3866.804	5019
3868.426	5051
3870.045	5008
3871.666	4902
3873.285	5016
3874.904	4995
3876.524	5090
3878.142	5106
3879.76	4961
3881.378	4967
3882.995	4998
3884.612	5012
3886.229	5048
3887.845	5016
3889.461	4916
3891.076	4977
3892.691	4929
3894.307	4981
3895.922	4909
3897.536	4980
3899.149	4932
3900.761	4989
3902.374	4946
3903.988	5006
3905.6	4953
3907.212	4947
3908.822	4945
3910.433	4977
3912.045	4975
3913.655	4953
3915.265	4880
3916.875	4951
3918.483	4961
3920.093	4945
3921.702	4964
3923.309	4933
3924.917	4962
3926.523	4885
3928.13	4954
3929.739	4952
3931.344	4886
3932.95	4915
3934.555	4835
3936.159	4864
3937.766	4886
3939.369	4927
3940.974	4907
3942.577	4886
3944.181	4900
3945.783	4886
3947.386	4866
3948.989	4888
3950.59	4966
3952.191	4821
3953.791	4917
3955.394	4876
3956.994	4901
3958.593	4895
3960.192	4788
3961.791	4784
3963.392	4836
3964.99	4904
3966.588	4889
3968.185	4852
3969.782	4824
3971.379	4840
3972.976	4749
3974.572	4836
3976.168	4780
3977.763	4757
3979.358	4771
3980.954	4743
3982.548	4830
3984.142	4693
3985.736	4762
3987.329	4760
3988.922	4765
3990.516	4717
3992.108	4739
3993.698	4792
3995.29	4800
3996.881	4723
3998.473	4715
4000.064	4751
4001.653	4651
4003.242	4734
4004.832	4634
4006.422	4707
4008.01	4670
4009.598	4652
4011.186	4663
4012.773	4678
4014.36	4610
4015.947	4683
4017.534	4644
4019.119	4624
4020.705	4748
4022.291	4622
4023.876	4618
4025.461	4576
4027.044	4625
4028.627	4624
4030.211	4519
4031.795	4597
4033.378	4638
4034.96	4584
4036.542	4518
4038.124	4590
4039.704	4508
4041.286	4538
4042.867	4548
4044.447	4556
4046.026	4492
4047.606	4531
4049.187	4440
4050.765	4532
4052.343	4549
4053.92	4473
4055.498	4615
4057.076	4505
4058.654	4499
4060.23	4487
4061.806	4407
4063.381	4543
4064.957	4501
4066.533	4454
4068.107	4492
4069.682	4394
4071.256	4445
4072.829	4413
4074.404	4501
4075.977	4430
4077.549	4486
4079.121	4467
4080.693	4522
4082.265	4401
4083.836	4401
4085.407	4431
4086.977	4504
4088.547	4440
4090.117	4476
4091.687	4404
4093.256	4475
4094.825	4431
4096.392	4453
4097.96	4429
4099.528	4390
4101.097	4455
4102.663	4423
4104.229	4369
4105.795	4404
4107.361	4405
4108.928	4427
4110.493	4412
4112.058	4355
4113.621	4303
4115.186	4329
4116.75	4499
4118.313	4409
4119.876	4384
4121.438	4414
4123	4358
4124.562	4320
4126.125	4232
4127.686	4227
4129.246	4290
4130.807	4372
4132.367	4274
4133.927	4238
4135.486	4417
4137.046	4308
4138.604	4299
4140.162	4266
4141.72	4331
4143.279	4253
4144.836	4328
4146.393	4303
4147.949	4241
4149.505	4258
4151.062	4288
4152.617	4200
4154.172	4196
4155.727	4229
4157.281	4200
4158.836	4249
4160.39	4250
4161.943	4174
4163.496	4172
4165.048	4188
4166.601	4273
4168.154	4147
4169.706	4185
4171.257	4213
4172.808	4161
4174.358	4211
4175.909	4160
4177.458	4131
4179.008	4139
4180.558	4128
4182.106	4216
4183.655	4142
4185.204	4208
4186.751	4247
4188.298	4181
4189.845	4091
4191.392	4176
4192.939	4147
4194.485	4058
4196.031	4153
4197.576	4134
4199.121	4123
4200.666	4129
4202.211	3965
4203.754	4175
4205.298	4008
4206.84	4074
4208.384	4069
4209.927	4088
4211.47	4033
4213.011	4133
4214.552	4101
4216.094	4048
4217.635	4095
4219.175	3986
4220.716	4168
4222.255	4096
4223.793	4069
4225.335	4082
4226.873	4088
4228.411	4023
4229.948	4061
4231.486	3989
4233.024	4133
4234.562	4128
4236.098	4140
4237.634	4096
4239.169	4025
4240.705	3984
4242.241	4022
4243.776	4100
4245.31	3968
4246.844	3963
4248.378	4069
4249.911	3993
4251.445	3964
4252.978	3992
4254.51	3989
4256.042	3977
4257.574	4000
4259.107	3843
4260.638	4012
4262.169	4002
4263.699	4077
4265.228	3977
4266.759	3960
4268.289	4012
4269.818	3959
4271.345	3947
4272.874	3948
4274.402	3847
4275.931	3942
4277.458	4026
4278.985	3974
4280.512	3983
4282.037	3962
4283.564	4038
4285.089	4024
4286.615	3839
4288.139	3957
4289.664	3927
4291.187	3990
4292.712	3998
4294.235	3912
4295.759	3974
4297.281	3906
4298.804	3791
4300.327	3823
4301.849	3903
4303.37	3895
4304.891	3840
4306.412	3855
4307.933	3832
4309.453	3895
4310.973	3856
4312.492	3837
