398.1873	5208
400.7097	5267
403.2336	5259
405.7547	5276
408.2751	5287
410.7948	5227
413.3138	5385
415.83	5364
418.3497	5402
420.8666	5460
423.3829	5525
425.8985	5547
428.4133	5609
430.9275	5486
433.441	5594
435.9538	5553
438.4639	5565
440.9753	5681
443.4881	5550
445.9982	5609
448.5055	5509
451.0142	5640
453.5201	5569
456.0274	5585
458.5361	5543
461.04	5544
463.5453	5575
466.0478	5629
468.5517	5621
471.0549	5546
473.5574	5587
476.0572	5585
478.5584	5592
481.0568	5654
483.5545	5691
486.0557	5598
488.5521	5791
491.0478	5710
493.5449	5677
496.0392	5730
498.5349	5755
501.0299	5698
503.5222	5755
506.0139	5690
508.5048	5804
510.9991	5792
513.4887	5844
515.9777	5792
518.4659	5803
520.9534	5756
523.4403	5845
525.9306	5859
528.4161	5782
530.9009	5813
533.3851	5824
535.8687	5880
538.3535	5744
540.8356	5862
543.3171	5780
545.7979	5885
548.278	5875
550.7595	5918
553.2383	5908
555.7144	5863
558.1918	5880
560.6685	5885
563.1446	6003
565.6221	5897
568.0968	5889
570.5688	5933
573.0422	6049
575.515	6030
577.989	6083
580.4584	6045
582.9291	6033
585.3991	6133
587.8685	6132
590.3352	6140
592.8052	6014
595.2706	6054
597.7372	6039
600.2033	6011
602.6666	6072
605.1334	6145
607.5953	5985
610.0587	6039
612.5193	5926
614.9814	5978
617.4427	5946
619.9034	6023
622.3615	6047
624.8208	6011
627.2775	5971
629.7335	5977
632.1929	5979
634.6476	5986
637.1016	6082
639.5569	6099
642.0096	5919
644.4637	5923
646.9151	5981
649.3678	6005
651.8179	6105
654.2672	6117
656.7159	6079
659.166	6102
661.6154	6131
664.0622	6030
666.5082	6107
668.9537	6096
671.4005	6101
673.8445	6191
676.288	6198
678.7308	6211
681.1729	6239
683.6163	6186
686.0572	6182
688.4973	6285
690.9368	6182
693.3757	6099
695.8138	6223
698.2534	6191
700.6902	6223
703.1245	6286
705.56	6288
707.9949	6127
710.4311	6291
712.8647	6341
715.2957	6362
717.7279	6336
720.1595	6261
722.5905	6422
725.0208	6361
727.4505	6355
729.8795	6481
732.3058	6462
734.7336	6482
737.1626	6520
739.587	6417
742.0128	6516
744.4359	6539
746.8604	6380
749.2841	6461
751.7073	6517
754.1278	6591
756.5496	6619
758.9688	6518
761.3893	6601
763.8093	6646
766.2285	6615
768.6451	6615
771.0611	6654
773.4784	6711
775.895	6711
778.3091	6662
780.7244	6655
783.1371	6742
785.5493	6723
787.9626	6662
790.3754	6526
792.7856	6652
795.1951	6740
797.6039	6591
800.0121	6732
802.4236	6700
804.8306	6623
807.2369	6703
809.6425	6858
812.0475	6726
814.4538	6780
816.8575	6783
819.2606	6723
821.663	6786
824.0648	6787
826.4659	6820
828.8683	6707
831.2682	6681
833.6674	6722
836.066	6889
838.4639	6835
840.8632	6859
843.2579	6716
845.6539	6890
848.0493	6922
850.444	6915
852.84	6868
855.2315	6940
857.6243	6860
860.0165	6880
862.4081	6838
864.797	6864
867.1892	6939
869.5789	6826
871.9659	6791
874.3542	6866
876.74	6826
879.129	6803
881.5155	6856
883.8994	6916
886.2845	6842
888.6671	6906
891.051	6870
893.4343	6905
895.8169	6983
898.197	6918
900.5783	6844
902.9571	6922
905.3372	6934
907.7167	6935
910.0936	6985
912.4698	7020
914.8474	6976
917.2244	7078
919.5987	7047
921.9744	7001
924.3475	7085
926.72	7086
929.0918	7200
931.4669	7212
933.8375	7370
936.2074	7167
938.5767	7433
940.9454	7297
943.3154	7584
945.6829	7668
948.0497	7823
950.4178	8128
952.7833	8357
955.1483	8588
957.5145	8908
959.8782	9168
962.2412	9103
964.6036	8801
966.9655	8528
969.3266	8091
971.6871	7787
974.0471	7554
976.4064	7424
978.765	7330
981.125	7270
983.4824	7201
985.8373	7223
988.1935	7137
990.549	7135
992.9039	7046
995.2602	7130
997.6119	7137
999.965	7220
1002.317	7115
1004.667	7153
1007.02	7127
1009.371	7229
1011.719	7172
1014.068	7287
1016.415	7048
1018.765	7130
1021.111	7133
1023.458	7213
1025.804	7286
1028.147	7353
1030.49	7120
1032.837	7315
1035.179	7345
1037.522	7294
1039.862	7405
1042.204	7294
1044.546	7291
1046.884	7367
1049.224	7298
1051.562	7276
1053.899	7381
1056.237	7386
1058.575	7297
1060.91	7406
1063.244	7373
1065.58	7455
1067.913	7446
1070.248	7490
1072.579	7450
1074.911	7486
1077.242	7365
1079.572	7421
1081.905	7333
1084.234	7354
1086.562	7281
1088.89	7347
1091.217	7339
1093.544	7321
1095.871	7314
1098.197	7226
1100.521	7102
1102.845	7182
1105.169	7372
1107.491	7429
1109.814	7355
1112.135	7331
1114.456	7318
1116.776	7333
1119.096	7438
1121.415	7341
1123.734	7257
1126.052	7367
1128.369	7317
1130.686	7190
1133.002	7249
1135.318	7383
1137.632	7268
1139.945	7289
1142.258	7298
1144.573	7443
1146.884	7230
1149.196	7292
1151.505	7397
1153.816	7307
1156.124	7398
1158.435	7392
1160.742	7316
1163.051	7271
1165.356	7352
1167.663	7376
1169.97	7195
1172.276	7478
1174.579	7433
1176.881	7181
1179.186	7172
1181.487	7308
1183.79	7371
1186.092	7351
1188.392	7394
1190.691	7316
1192.991	7283
1195.291	7324
1197.588	7350
1199.885	7334
1202.181	7300
1204.479	7361
1206.775	7353
1209.07	7200
1211.363	7477
1213.656	7335
1215.949	7398
1218.241	7507
1220.534	7401
1222.825	7418
1225.115	7398
1227.405	7385
1229.693	7489
1231.984	7543
1234.271	7657
1236.558	7432
1238.845	7653
1241.131	7669
1243.416	7485
1245.703	7673
1247.987	7556
1250.269	7616
1252.552	7588
1254.834	7662
1257.118	7783
1259.399	7701
1261.678	7487
1263.958	7583
1266.237	7635
1268.516	7685
1270.794	7652
1273.072	7754
1275.347	7644
1277.624	7629
1279.899	7589
1282.175	7635
1284.449	7589
1286.722	7628
1288.995	7646
1291.266	7588
1293.54	7640
1295.81	7552
1298.081	7519
1300.35	7550
1302.62	7507
1304.889	7698
1307.156	7496
1309.425	7526
1311.69	7549
1313.957	7484
1316.222	7475
1318.488	7618
1320.751	7608
1323.016	7498
1325.278	7516
1327.54	7506
1329.803	7559
1332.065	7537
1334.325	7509
1336.584	7555
1338.843	7439
1341.101	7499
1343.36	7556
1345.617	7442
1347.876	7519
1350.131	7545
1352.387	7504
1354.643	7547
1356.897	7456
1359.151	7536
1361.403	7564
1363.656	7418
1365.909	7474
1368.16	7543
1370.409	7611
1372.659	7437
1374.909	7539
1377.157	7521
1379.407	7565
1381.655	7595
1383.9	7617
1386.147	7580
1388.393	7630
1390.64	7622
1392.885	7655
1395.127	7732
1397.37	7627
1399.614	7714
1401.854	7673
1404.098	7547
1406.339	7790
1408.578	7756
1410.818	7758
1413.056	7593
1415.297	7721
1417.533	7748
1419.771	7583
1422.006	7768
1424.243	7845
1426.479	7728
1428.715	7779
1430.948	7677
1433.182	7833
1435.414	7723
1437.647	7779
1439.88	7820
1442.11	7710
1444.342	7849
1446.571	7800
1448.799	8054
1451.029	8024
1453.258	7954
1455.485	7946
1457.711	8043
1459.937	7951
1462.164	7828
1464.39	7818
1466.614	7865
1468.838	7765
1471.06	7942
1473.283	7768
1475.506	7716
1477.727	7696
1479.949	7851
1482.169	7723
1484.389	7665
1486.609	7625
1488.828	7698
1491.045	7700
1493.261	7463
1495.477	7607
1497.693	7696
1499.91	7761
1502.125	7581
1504.339	7756
1506.553	7572
1508.766	7611
1510.979	7615
1513.191	7540
1515.402	7716
1517.613	7578
1519.823	7590
1522.033	7654
1524.242	7577
1526.451	7482
1528.657	7554
1530.865	7596
1533.072	7640
1535.278	7677
1537.484	7570
1539.687	7616
1541.892	7674
1544.096	7729
1546.299	7664
1548.502	7685
1550.703	7727
1552.905	7775
1555.104	7796
1557.303	7686
1559.505	7787
1561.703	7604
1563.902	7842
1566.099	7656
1568.295	7720
1570.494	7690
1572.689	7849
1574.883	7861
1577.079	7780
1579.272	7852
1581.467	7877
1583.659	7869
1585.853	7867
1588.044	7891
1590.234	7885
1592.424	7876
1594.615	7797
1596.806	7956
1598.994	7794
1601.182	7954
1603.369	7827
1605.557	7953
1607.744	7909
1609.929	7979
1612.114	7878
1614.298	7917
1616.482	7942
1618.667	7850
1620.85	7912
1623.032	7873
1625.214	7892
1627.395	7916
1629.575	8106
1631.755	7984
1633.935	7976
1636.114	8026
1638.292	7871
1640.471	7989
1642.647	8023
1644.823	8022
1647	8023
1649.175	7914
1651.348	7978
1653.525	7997
1655.698	8035
1657.87	8053
1660.043	8031
1662.213	7989
1664.387	7989
1666.558	8204
1668.727	8175
1670.896	8033
1673.064	8100
1675.233	8152
1677.401	8121
1679.569	8002
1681.735	8124
1683.902	8028
1686.066	8028
1688.233	8006
1690.397	8086
1692.559	8055
1694.723	7988
1696.885	7921
1699.048	7958
1701.21	7996
1703.37	8131
1705.53	7920
1707.689	8030
1709.849	7789
1712.009	7915
1714.166	7986
1716.323	7896
1718.479	7906
1720.634	8048
1722.793	7990
1724.948	7930
1727.102	7935
1729.255	7864
1731.408	7952
1733.562	8032
1735.714	7929
1737.865	7883
1740.016	7975
1742.166	7910
1744.316	7933
1746.467	7818
1748.616	7975
1750.764	7922
1752.911	8025
1755.056	7948
1757.205	7959
1759.35	7865
1761.496	7937
1763.641	7995
1765.785	8030
1767.927	8070
1770.072	8039
1772.214	7827
1774.355	8006
1776.496	7987
1778.637	8020
1780.778	8036
1782.918	7975
1785.057	7945
1787.194	8055
1789.333	8112
1791.472	7983
1793.608	8151
1795.745	7906
1797.879	8114
1800.015	8009
1802.148	7973
1804.284	8049
1806.417	8051
1808.548	7942
1810.682	8002
1812.812	7980
1814.946	8021
1817.075	7932
1819.205	8073
1821.335	8011
1823.463	7978
1825.59	7911
1827.721	8098
1829.847	7969
1831.973	8147
1834.098	8031
1836.223	8065
1838.351	7927
1840.475	8050
1842.598	7937
1844.721	7919
1846.843	7938
1848.966	7933
1851.087	7981
1853.21	7946
1855.33	8015
1857.449	8022
1859.568	7969
1861.688	8039
1863.806	7919
1865.924	8005
1868.039	7995
1870.155	7995
1872.273	8041
1874.388	7830
1876.503	7993
1878.617	7949
1880.73	7946
1882.844	8053
1884.956	7938
1887.068	8141
1889.18	8076
1891.291	7913
1893.4	7952
1895.511	7939
1897.621	8165
1899.73	8101
1901.837	8093
1903.944	8067
1906.053	7947
1908.159	8018
1910.265	7923
1912.369	8133
1914.474	8102
1916.577	8112
1918.683	8093
1920.785	8098
1922.888	8208
1924.989	8092
1927.091	8214
1929.193	8072
1931.294	8137
1933.393	8159
1935.493	8199
1937.59	8180
1939.689	8086
1941.788	8154
1943.884	8111
1945.98	8039
1948.077	8206
1950.171	8251
1952.267	8070
1954.361	8155
1956.455	8163
1958.548	8294
1960.64	8100
1962.733	8159
1964.824	8219
1966.915	8154
1969.005	8117
1971.096	8088
1973.185	8120
1975.275	8116
1977.363	8049
1979.45	8162
1981.537	8199
1983.623	8153
1985.711	8128
1987.796	8089
1989.881	8171
1991.965	8171
1994.047	8114
1996.132	8149
1998.215	8114
2000.297	8047
2002.378	8058
2004.46	8061
2006.54	8041
2008.62	8074
2010.7	8020
2012.779	8104
2014.858	8064
2016.934	8049
2019.013	8020
2021.09	8131
2023.165	8145
2025.241	8148
2027.317	7966
2029.39	8134
2031.466	8027
2033.538	8085
2035.612	8084
2037.683	8091
2039.755	7957
2041.827	8114
2043.898	8025
2045.968	8052
2048.038	8104
2050.106	8170
2052.177	8004
2054.244	8058
2056.313	8155
2058.379	8041
2060.444	8034
2062.511	8098
2064.577	8070
2066.641	8142
2068.705	8018
2070.77	8142
2072.832	8105
2074.896	8066
2076.958	8023
2079.02	8236
2081.081	8014
2083.141	8033
2085.2	8198
2087.261	7992
2089.319	8127
2091.377	8102
2093.435	8152
2095.492	8067
2097.552	8083
2099.607	8114
2101.663	8126
2103.718	8093
2105.771	8216
2107.826	8122
2109.879	8088
2111.932	8231
2113.985	8198
2116.037	8101
2118.088	8132
2120.141	8108
2122.191	8121
2124.239	8126
2126.288	8228
2128.337	8087
2130.387	8018
2132.434	8085
2134.481	8161
2136.528	8061
2138.574	8149
2140.618	8145
2142.665	8120
2144.71	8223
2146.753	8108
2148.797	8197
2150.838	8047
2152.883	7989
2154.923	8073
2156.965	7966
2159.007	8039
2161.046	8072
2163.086	8080
2165.126	8147
2167.163	8053
2169.202	7976
2171.239	8159
2173.277	8056
2175.314	7929
2177.349	8070
2179.385	8052
2181.42	8043
2183.453	8011
2185.49	7998
2187.522	8027
2189.555	8125
2191.586	7973
2193.619	8030
2195.651	8041
2197.682	7917
2199.711	7981
2201.74	7995
2203.769	7961
2205.799	8003
2207.828	7880
2209.855	7998
2211.882	8025
2213.908	7980
2215.934	8006
2217.961	7953
2219.986	7968
2222.01	7890
2224.034	7931
2226.057	7847
2228.08	7948
2230.104	7870
2232.124	7897
2234.145	8008
2236.166	7892
2238.186	7944
2240.207	7926
2242.227	7933
2244.244	8010
2246.262	7874
2248.28	7937
2250.299	7922
2252.314	8039
2254.33	8024
2256.346	8005
2258.36	7846
2260.375	8050
2262.391	8032
2264.403	7880
2266.416	7947
2268.427	7893
2270.44	8007
2272.453	7909
2274.463	7905
2276.474	7995
2278.483	8095
2280.493	7850
2282.501	7981
2284.51	7985
2286.518	7943
2288.524	7931
2290.532	8032
2292.537	7985
2294.544	7892
2296.55	7997
2298.554	8038
2300.557	8056
2302.562	7943
2304.566	7876
2306.568	7940
2308.569	8001
2310.572	8028
2312.573	7827
2314.573	7982
2316.574	7998
2318.573	8040
2320.571	7859
2322.571	7822
2324.569	7790
2326.567	7727
2328.564	8005
2330.56	7850
2332.556	7836
2334.551	7920
2336.546	7820
2338.542	7845
2340.535	7905
2342.529	7901
2344.521	7853
2346.512	7785
2348.505	7825
2350.497	7931
2352.487	8042
2354.478	7813
2356.468	7812
2358.457	7812
2360.446	7848
2362.434	7818
2364.422	7819
2366.408	7884
2368.395	7887
2370.383	7818
2372.369	7751
2374.353	7790
2376.338	7848
2378.321	7853
2380.307	7934
2382.29	7717
2384.272	7855
2386.254	7849
2388.235	7750
2390.218	7785
2392.198	7817
2394.179	7717
2396.157	7808
2398.137	7793
2400.115	7754
2402.095	7696
2404.072	7799
2406.048	7820
2408.026	7591
2410.001	7678
2411.977	7855
2413.953	7765
2415.927	7765
2417.9	7720
2419.875	7697
2421.847	7824
2423.821	7623
2425.792	7725
2427.763	7699
2429.736	7644
2431.706	7831
2433.677	7744
2435.646	7766
2437.615	7759
2439.583	7673
2441.551	7726
2443.519	7651
2445.486	7744
2447.452	7860
2449.418	7850
2451.383	7657
2453.348	7683
2455.314	7724
2457.278	7699
2459.241	7846
2461.205	7674
2463.167	7611
2465.131	7676
2467.091	7682
2469.052	7706
2471.012	7568
2472.972	7557
2474.932	7558
2476.891	7762
2478.85	7689
2480.808	7590
2482.766	7557
2484.722	7680
2486.68	7692
2488.636	7619
2490.591	7699
2492.546	7640
2494.5	7699
2496.456	7663
2498.41	7705
2500.362	7442
2502.315	7517
2504.266	7749
2506.218	7635
2508.169	7642
2510.121	7671
2512.07	7466
2514.019	7603
2515.968	7588
2517.918	7607
2519.866	7558
2521.813	7596
2523.76	7665
2525.707	7646
2527.653	7717
2529.599	7626
2531.543	7593
2533.489	7573
2535.433	7516
2537.376	7552
2539.32	7728
2541.264	7622
2543.205	7680
2545.147	7703
2547.087	7691
2549.029	7503
2550.969	7702
2552.908	7668
2554.847	7427
2556.786	7670
2558.724	7577
2560.663	7668
2562.6	7532
2564.537	7476
2566.473	7613
2568.408	7667
2570.345	7635
2572.28	7552
2574.214	7543
2576.148	7720
2578.081	7639
2580.014	7559
2581.947	7620
2583.879	7698
2585.81	7500
2587.741	7717
2589.67	7487
2591.602	7662
2593.532	7612
2595.461	7523
2597.388	7688
2599.316	7645
2601.244	7644
2603.172	7662
2605.098	7689
2607.023	7704
2608.949	7592
2610.873	7695
2612.8	7703
2614.723	7661
2616.647	7596
2618.569	7731
2620.493	7675
2622.416	7669
2624.338	7594
2626.258	7680
2628.179	7758
2630.099	7707
2632.019	7637
2633.939	7694
2635.857	7736
2637.775	7730
2639.694	7678
2641.61	7719
2643.528	7652
2645.444	7623
2647.361	7659
2649.276	7689
2651.19	7696
2653.105	7720
2655.019	7684
2656.934	7562
2658.846	7588
2660.758	7571
2662.67	7573
2664.583	7657
2666.493	7656
2668.404	7631
2670.313	7476
2672.223	7546
2674.134	7647
2676.042	7671
2677.95	7654
2679.858	7547
2681.765	7671
2683.673	7662
2685.579	7616
2687.483	7593
2689.389	7491
2691.294	7615
2693.198	7651
2695.104	7668
2697.006	7491
2698.909	7580
2700.811	7682
2702.713	7774
2704.615	7600
2706.516	7471
2708.417	7439
2710.316	7453
2712.216	7497
2714.115	7592
2716.014	7555
2717.913	7557
2719.81	7503
2721.707	7575
2723.603	7535
2725.501	7542
2727.396	7606
2729.292	7473
2731.186	7494
2733.081	7615
2734.976	7481
2736.87	7486
2738.762	7548
2740.653	7459
2742.546	7595
2744.437	7542
2746.329	7379
2748.22	7528
2750.11	7623
2751.999	7464
2753.889	7506
2755.778	7519
2757.666	7499
2759.553	7440
2761.44	7384
2763.328	7583
2765.215	7424
2767.101	7534
2768.986	7347
2770.87	7520
2772.754	7494
2774.638	7507
2776.523	7470
2778.405	7593
2780.288	7394
2782.17	7429
2784.051	7500
2785.934	7478
2787.814	7417
2789.694	7503
2791.574	7338
2793.453	7418
2795.332	7460
2797.212	7432
2799.088	7546
2800.966	7429
2802.843	7442
2804.719	7434
2806.597	7532
2808.471	7376
2810.346	7583
2812.221	7320
2814.094	7462
2815.969	7433
2817.843	7391
2819.714	7466
2821.587	7295
2823.459	7481
2825.329	7399
2827.202	7407
2829.072	7487
2830.942	7364
2832.811	7324
2834.68	7329
2836.549	7335
2838.418	7272
2840.284	7490
2842.152	7429
2844.018	7388
2845.885	7330
2847.751	7383
2849.616	7369
2851.482	7454
2853.345	7402
2855.208	7481
2857.074	7417
2858.937	7553
2860.799	7431
2862.66	7655
2864.522	7527
2866.385	7551
2868.245	7647
2870.104	7733
2871.964	7724
2873.824	7759
2875.683	7682
2877.542	7732
2879.4	7911
2881.257	7831
2883.114	7965
2884.97	7921
2886.827	7886
2888.683	7907
2890.537	7905
2892.392	7824
2894.246	7908
2896.1	7894
2897.954	7805
2899.807	7821
2901.66	7900
2903.51	7836
2905.362	7827
2907.214	7924
2909.065	7787
2910.915	7978
2912.765	7846
2914.613	7963
2916.463	8180
2918.311	8121
2920.158	8243
2922.006	8283
2923.853	8175
2925.698	8450
2927.546	8359
2929.392	8530
2931.236	8462
2933.081	8488
2934.924	8443
2936.77	8519
2938.613	8617
2940.455	8587
2942.298	8731
2944.139	8743
2945.982	8597
2947.823	8525
2949.662	8585
2951.503	8487
2953.342	8387
2955.182	8451
2957.021	8248
2958.858	8290
2960.697	8237
2962.534	8217
2964.37	8242
2966.207	8116
2968.044	8045
2969.879	8056
2971.714	7984
2973.548	7972
2975.383	8036
2977.218	8099
2979.051	7979
2980.883	7896
2982.715	8006
2984.547	8008
2986.379	7915
2988.21	7947
2990.04	7820
2991.87	7813
2993.7	7710
2995.53	7735
2997.359	7772
2999.187	7525
3001.015	7619
3002.842	7630
3004.669	7611
3006.497	7585
3008.323	7454
3010.148	7442
3011.974	7482
3013.797	7430
3015.623	7292
3017.447	7398
3019.27	7246
3021.094	7262
3022.915	7106
3024.737	7281
3026.56	7117
3028.38	7159
3030.201	7135
3032.022	7132
3033.84	7119
3035.662	7207
3037.481	7217
3039.298	7181
3041.117	7143
3042.933	7182
3044.752	7036
3046.568	7158
3048.385	7089
3050.2	7031
3052.016	7071
3053.83	7052
3055.646	7086
3057.46	7211
3059.272	7142
3061.086	7100
3062.898	7049
3064.711	7039
3066.524	7195
3068.335	6996
3070.145	7180
3071.956	7051
3073.766	6962
3075.576	7177
3077.385	7024
3079.193	7010
3081.002	7008
3082.81	7086
3084.618	6972
3086.425	7055
3088.231	7083
3090.036	6901
3091.842	6848
3093.648	6830
3095.452	6904
3097.257	7039
3099.06	6929
3100.863	6846
3102.666	6827
3104.47	6879
3106.272	6865
3108.073	6788
3109.875	6928
3111.676	6964
3113.477	6946
3115.277	6865
3117.077	6877
3118.874	6878
3120.673	6875
3122.473	6936
3124.271	6866
3126.066	6781
3127.863	6862
3129.66	6747
3131.456	6830
3133.252	6832
3135.047	6870
3136.842	6812
3138.635	6847
3140.429	6773
3142.223	6680
3144.016	6768
3145.808	6734
3147.6	6676
3149.392	6817
3151.183	6645
3152.975	6860
3154.765	6772
3156.553	6570
3158.344	6771
3160.132	6731
3161.922	6803
3163.71	6627
3165.497	6750
3167.285	6736
3169.071	6681
3170.858	6676
3172.645	6684
3174.429	6802
3176.214	6653
3177.998	6691
3179.783	6679
3181.568	6789
3183.351	6755
3185.133	6623
3186.915	6624
3188.698	6727
3190.481	6632
3192.261	6749
3194.042	6719
3195.822	6620
3197.601	6645
3199.381	6718
3201.161	6635
3202.939	6630
3204.717	6584
3206.495	6679
3208.272	6658
3210.05	6499
3211.826	6638
3213.602	6638
3215.376	6504
3217.151	6589
3218.927	6553
3220.702	6516
3222.476	6554
3224.249	6676
3226.021	6654
3227.793	6576
3229.567	6622
3231.339	6662
3233.109	6682
3234.88	6661
3236.651	6697
3238.421	6706
3240.191	6645
3241.96	6577
3243.728	6695
3245.497	6613
3247.263	6717
3249.033	6638
3250.799	6683
3252.566	6750
3254.331	6577
3256.097	6565
3257.863	6646
3259.628	6683
3261.392	6588
3263.156	6695
3264.919	6585
3266.683	6651
3268.447	6686
3270.208	6462
3271.969	6671
3273.731	6615
3275.492	6652
3277.253	6612
3279.013	6528
3280.773	6651
3282.532	6691
3284.291	6654
3286.05	6641
3287.808	6554
3289.566	6683
3291.323	6627
3293.079	6610
3294.835	6527
3296.593	6621
3298.348	6556
3300.102	6502
3301.857	6645
3303.611	6653
3305.366	6743
3307.119	6626
3308.872	6549
3310.624	6612
3312.376	6596
3314.129	6701
3315.881	6628
3317.631	6524
3319.38	6604
3321.13	6626
3322.88	6655
3324.631	6582
3326.379	6625
3328.126	6694
3329.875	6520
3331.622	6612
3333.371	6645
3335.116	6594
3336.863	6604
3338.609	6683
3340.353	6603
3342.1	6599
3343.845	6563
3345.588	6587
3347.332	6535
3349.074	6576
3350.817	6609
3352.56	6580
3354.303	6395
3356.043	6502
3357.785	6485
3359.525	6479
3361.268	6505
3363.007	6616
3364.745	6509
3366.485	6543
3368.223	6466
3369.962	6477
3371.701	6579
3373.438	6475
3375.174	6494
3376.911	6474
3378.647	6411
3380.384	6495
3382.118	6601
3383.854	6391
3385.588	6465
3387.322	6470
3389.057	6386
3390.79	6490
3392.522	6349
3394.255	6362
3395.987	6446
3397.719	6421
3399.451	6409
3401.181	6444
3402.911	6428
3404.641	6510
3406.371	6209
3408.101	6480
3409.83	6363
3411.558	6362
3413.285	6497
3415.011	6271
3416.739	6431
3418.467	6442
3420.193	6340
3421.919	6342
3423.644	6431
3425.368	6391
3427.094	6348
3428.818	6391
3430.542	6375
3432.264	6256
3433.987	6284
3435.712	6334
3437.434	6374
3439.155	6368
3440.876	6271
3442.596	6231
3444.317	6265
3446.039	6337
3447.757	6253
3449.477	6186
3451.195	6269
3452.914	6247
3454.632	6246
3456.35	6352
3458.067	6212
3459.784	6226
3461.5	6226
3463.216	6252
3464.932	6148
3466.647	6207
3468.362	6296
3470.076	6259
3471.789	6151
3473.505	6102
3475.217	6058
3476.929	6082
3478.641	6145
3480.354	6175
3482.066	6087
3483.777	6210
3485.487	6077
3487.197	6003
3488.908	6189
3490.617	6156
3492.327	6113
3494.035	6158
3495.743	6065
3497.451	6052
3499.158	6071
3500.866	5995
3502.572	6043
3504.278	5987
3505.984	6105
3507.689	5885
3509.396	6016
3511.1	5995
3512.804	5928
3514.508	5994
3516.211	5978
3517.913	5980
3519.616	5944
3521.319	5937
3523.021	6087
3524.722	6014
3526.422	5913
3528.124	5976
3529.824	5928
3531.524	6011
3533.222	5852
3534.921	5951
3536.62	5934
3538.318	5880
3540.016	5891
3541.714	5918
3543.41	5880
3545.107	5853
3546.803	5895
3548.5	5930
3550.194	5872
3551.889	5927
3553.583	5893
3555.279	5842
3556.972	5896
3558.666	5774
3560.358	5861
3562.051	5830
3563.742	5812
3565.435	5876
3567.126	5820
3568.817	5815
3570.507	5807
3572.197	5802
3573.888	5818
3575.577	5862
3577.265	5879
3578.954	5831
3580.642	5861
3582.329	5710
3584.017	5712
3585.704	5761
3587.391	5779
3589.077	5826
3590.762	5740
3592.449	5673
3594.133	5808
3595.817	5804
3597.501	5778
3599.185	5628
3600.869	5726
3602.552	5709
3604.234	5763
3605.916	5645
3607.598	5616
3609.279	5620
3610.961	5716
3612.642	5702
3614.321	5720
3616	5754
3617.68	5549
3619.36	5651
3621.039	5608
3622.716	5602
3624.394	5570
3626.071	5597
3627.748	5760
3629.425	5620
3631.102	5544
3632.778	5718
3634.452	5437
3636.127	5522
3637.803	5498
3639.477	5565
3641.151	5556
3642.823	5522
3644.497	5583
3646.171	5559
3647.842	5528
3649.515	5457
3651.185	5554
3652.857	5513
3654.527	5556
3656.198	5523
3657.868	5460
3659.537	5650
3661.207	5416
3662.875	5473
3664.544	5564
3666.212	5555
3667.879	5432
3669.546	5480
3671.212	5408
3672.88	5452
3674.546	5439
3676.211	5466
3677.875	5513
3679.541	5402
3681.205	5411
3682.87	5441
3684.533	5433
3686.196	5392
3687.859	5401
3689.521	5555
3691.184	5359
3692.845	5337
3694.507	5447
3696.167	5447
3697.827	5430
3699.487	5351
3701.148	5392
3702.808	5302
3704.466	5406
3706.125	5333
3707.783	5405
3709.442	5362
3711.099	5347
3712.757	5345
3714.412	5352
3716.068	5346
3717.725	5406
3719.381	5351
3721.036	5359
3722.689	5365
3724.344	5226
3725.998	5343
3727.652	5423
3729.305	5383
3730.958	5254
3732.61	5330
3734.262	5376
3735.915	5244
3737.565	5288
3739.217	5331
3740.866	5285
3742.516	5252
3744.165	5246
3745.816	5390
3747.464	5277
3749.113	5279
3750.761	5272
3752.409	5322
3754.057	5269
3755.703	5251
3757.35	5316
3758.996	5236
3760.641	5188
3762.289	5183
3763.933	5284
3765.577	5333
3767.222	5150
3768.865	5235
3770.508	5091
3772.152	5103
3773.796	5167
3775.438	5216
3777.079	5194
3778.721	5179
3780.363	5224
3782.003	5325
3783.643	5215
3785.283	5120
3786.923	5185
3788.563	5113
3790.203	5155
3791.841	5208
3793.479	5067
3795.115	5192
3796.753	5163
3798.391	5094
3800.027	5076
3801.664	5122
3803.299	5049
3804.935	5122
3806.571	5138
3808.206	5177
3809.839	5123
3811.473	5222
3813.107	5071
3814.74	5119
3816.375	5138
3818.006	5193
3819.638	5150
3821.27	5086
3822.9	5154
3824.532	5091
3826.163	5139
3827.792	5051
3829.423	4956
3831.051	5060
3832.682	5025
3834.311	5049
3835.938	5103
3837.566	5055
3839.193	5080
3840.821	4986
3842.448	5011
3844.075	5028
3845.7	5071
3847.325	4999
3848.951	5000
3850.576	4979
3852.201	4934
3853.825	4982
3855.448	5032
3857.072	4975
3858.694	5020
3860.318	4976
3861.939	4976
3863.562	5015
3865.183	4990
3866.804	4923
3868.426	4959
3870.045	4942
3871.666	4972
3873.285	4941
3874.904	4968
3876.524	4970
3878.142	4879
3879.76	4942
3881.378	4847
3882.995	4936
3884.612	4939
3886.229	4969
3887.845	4828
3889.461	4872
3891.076	4993
3892.691	4945
3894.307	4926
3895.922	4803
3897.536	4948
3899.149	4891
3900.761	4974
3902.374	4881
3903.988	4920
3905.6	4872
3907.212	4789
3908.822	4829
3910.433	4866
3912.045	4926
3913.655	4891
3915.265	4868
3916.875	4931
3918.483	4851
3920.093	4931
3921.702	4824
3923.309	4864
3924.917	4795
3926.523	4777
3928.13	4811
3929.739	4813
3931.344	4820
3932.95	4911
3934.555	4883
3936.159	4727
3937.766	4836
3939.369	4827
3940.974	4775
3942.577	4778
3944.181	4921
3945.783	4817
3947.386	4882
3948.989	4776
3950.59	4822
3952.191	4790
3953.791	4729
3955.394	4822
3956.994	4777
3958.593	4712
3960.192	4832
3961.791	4863
3963.392	4843
3964.99	4822
3966.588	4705
3968.185	4738
3969.782	4761
3971.379	4763
3972.976	4771
3974.572	4738
3976.168	4792
3977.763	4744
3979.358	4748
3980.954	4680
3982.548	4706
3984.142	4696
3985.736	4662
3987.329	4724
3988.922	4723
3990.516	4611
3992.108	4647
3993.698	4708
3995.29	4590
3996.881	4602
3998.473	4754
4000.064	4646
4001.653	4626
4003.242	4663
4004.832	4609
4006.422	4604
4008.01	4672
4009.598	4631
4011.186	4600
4012.773	4641
4014.36	4515
4015.947	4619
4017.534	4633
4019.119	4556
4020.705	4629
4022.291	4631
4023.876	4558
4025.461	4551
4027.044	4538
4028.627	4655
4030.211	4521
4031.795	4536
4033.378	4559
4034.96	4619
4036.542	4388
4038.124	4499
4039.704	4480
4041.286	4379
4042.867	4508
4044.447	4559
4046.026	4529
4047.606	4472
4049.187	4489
4050.765	4511
4052.343	4527
4053.92	4349
4055.498	4498
4057.076	4449
4058.654	4516
4060.23	4479
4061.806	4491
4063.381	4509
4064.957	4501
4066.533	4445
4068.107	4449
4069.682	4409
4071.256	4388
4072.829	4475
4074.404	4460
4075.977	4401
4077.549	4364
4079.121	4330
4080.693	4397
4082.265	4440
4083.836	4432
4085.407	4386
4086.977	4408
4088.547	4417
4090.117	4444
4091.687	4398
4093.256	4387
4094.825	4401
4096.392	4313
4097.96	4370
4099.528	4362
4101.097	4408
4102.663	4296
4104.229	4351
4105.795	4386
4107.361	4381
4108.928	4333
4110.493	4427
4112.058	4146
4113.621	4404
4115.186	4343
4116.75	4307
4118.313	4378
4119.876	4380
4121.438	4245
4123	4403
4124.562	4297
4126.125	4372
4127.686	4352
4129.246	4261
4130.807	4249
4132.367	4116
4133.927	4200
4135.486	4303
4137.046	4227
4138.604	4224
4140.162	4235
4141.72	4219
4143.279	4321
4144.836	4241
4146.393	4224
4147.949	4160
4149.505	4241
4151.062	4144
4152.617	4255
4154.172	4188
4155.727	4155
4157.281	4253
4158.836	4158
4160.39	4179
4161.943	4174
4163.496	4165
4165.048	4140
4166.601	4216
4168.154	4162
4169.706	4170
4171.257	4166
4172.808	4140
4174.358	4122
4175.909	4009
4177.458	4094
4179.008	4098
4180.558	4135
4182.106	4086
4183.655	4117
4185.204	4086
4186.751	4106
4188.298	4111
4189.845	4057
4191.392	4097
4192.939	4129
4194.485	4032
4196.031	4038
4197.576	4083
4199.121	3982
4200.666	4153
4202.211	4035
4203.754	4064
4205.298	4023
4206.84	4118
4208.384	4120
4209.927	4025
4211.47	4079
4213.011	4091
4214.552	3987
4216.094	4051
4217.635	4051
4219.175	4034
4220.716	4020
4222.255	4043
4223.793	4062
4225.335	4018
4226.873	3971
4228.411	4019
4229.948	3994
4231.486	4010
4233.024	4006
4234.562	3929
4236.098	4021
4237.634	3945
4239.169	4018
4240.705	3975
4242.241	4048
4243.776	4003
4245.31	3923
4246.844	3948
4248.378	3936
4249.911	4008
4251.445	3892
4252.978	3996
4254.51	3969
4256.042	3998
4257.574	3987
4259.107	4048
4260.638	3988
4262.169	4045
4263.699	3977
4265.228	3945
4266.759	3961
4268.289	3896
4269.818	3877
4271.345	3934
4272.874	3907
4274.402	3947
4275.931	3955
4277.458	3872
4278.985	3896
4280.512	3938
4282.037	3892
4283.564	3971
4285.089	3930
4286.615	4015
4288.139	3934
4289.664	3908
4291.187	3900
4292.712	3879
4294.235	3827
4295.759	3955
4297.281	3824
4298.804	3918
4300.327	3789
4301.849	3826
4303.37	3860
4304.891	3767
4306.412	3829
4307.933	3895
4309.453	3831
4310.973	3952
4312.492	3906
