398.1873	2529
400.7097	2541
403.2336	2563
405.7547	2501
408.2751	2548
410.7948	2563
413.3138	2554
415.83	2665
418.3497	2619
420.8666	2593
423.3829	2665
425.8985	2668
428.4133	2682
430.9275	2646
433.441	2711
435.9538	2738
438.4639	2575
440.9753	2752
443.4881	2764
445.9982	2735
448.5055	2667
451.0142	2699
453.5201	2701
456.0274	2780
458.5361	2727
461.04	2634
463.5453	2714
466.0478	2709
468.5517	2688
471.0549	2645
473.5574	2728
476.0572	2723
478.5584	2773
481.0568	2706
483.5545	2797
486.0557	2714
488.5521	2816
491.0478	2748
493.5449	2740
496.0392	2741
498.5349	2757
501.0299	2762
503.5222	2729
506.0139	2791
508.5048	2818
510.9991	2792
513.4887	2756
515.9777	2797
518.4659	2815
520.9534	2765
523.4403	2754
525.9306	2787
528.4161	2728
530.9009	2845
533.3851	2803
535.8687	2866
538.3535	2756
540.8356	2832
543.3171	2718
545.7979	2777
548.278	2842
550.7595	2859
553.2383	2834
555.7144	2849
558.1918	2889
560.6685	2886
563.1446	2809
565.6221	2852
568.0968	2890
570.5688	2972
573.0422	2815
575.515	2948
577.989	2889
580.4584	2881
582.9291	2944
585.3991	2941
587.8685	2882
590.3352	2987
592.8052	2920
595.2706	2889
597.7372	2950
600.2033	2895
602.6666	2885
605.1334	2939
607.5953	2827
610.0587	2880
612.5193	2939
614.9814	2923
617.4427	2814
619.9034	2937
622.3615	2889
624.8208	2904
627.2775	2874
629.7335	2872
632.1929	2820
634.6476	2902
637.1016	2939
639.5569	2886
642.0096	2918
644.4637	2867
646.9151	2851
649.3678	2910
651.8179	2937
654.2672	2932
656.7159	2877
659.166	2906
661.6154	2959
664.0622	2926
666.5082	2927
668.9537	2941
671.4005	2927
673.8445	3026
676.288	2991
678.7308	2965
681.1729	3007
683.6163	2974
686.0572	2997
688.4973	2992
690.9368	3027
693.3757	2924
695.8138	3040
698.2534	2948
700.6902	2966
703.1245	2932
705.56	3000
707.9949	2961
710.4311	3097
712.8647	3015
715.2957	3061
717.7279	3045
720.1595	3019
722.5905	3065
725.0208	3067
727.4505	2971
729.8795	3049
732.3058	3091
734.7336	3094
737.1626	3058
739.587	3060
742.0128	3107
744.4359	3088
746.8604	3077
749.2841	3178
751.7073	3006
754.1278	3177
756.5496	3214
758.9688	3081
761.3893	3160
763.8093	3174
766.2285	3185
768.6451	3222
771.0611	3218
773.4784	3259
775.895	3223
778.3091	3196
780.7244	3142
783.1371	3144
785.5493	3177
787.9626	3199
790.3754	3189
792.7856	3159
795.1951	3116
797.6039	3141
800.0121	3120
802.4236	3183
804.8306	3127
807.2369	3234
809.6425	3228
812.0475	3200
814.4538	3228
816.8575	3222
819.2606	3271
821.663	3240
824.0648	3171
826.4659	3259
828.8683	3223
831.2682	3209
833.6674	3297
836.066	3245
838.4639	3264
840.8632	3259
843.2579	3314
845.6539	3238
848.0493	3273
850.444	3273
852.84	3261
855.2315	3274
857.6243	3184
860.0165	3251
862.4081	3304
864.797	3246
867.1892	3274
869.5789	3269
871.9659	3303
874.3542	3180
876.74	3246
879.129	3274
881.5155	3244
883.8994	3300
886.2845	3321
888.6671	3265
891.051	3246
893.4343	3203
895.8169	3250
898.197	3186
900.5783	3352
902.9571	3271
905.3372	3286
907.7167	3288
910.0936	3298
912.4698	3313
914.8474	3278
917.2244	3356
919.5987	3369
921.9744	3389
924.3475	3376
926.72	3397
929.0918	3311
931.4669	3384
933.8375	3427
936.2074	3397
938.5767	3445
940.9454	3521
943.3154	3548
945.6829	3601
948.0497	3567
950.4178	3607
952.7833	3658
955.1483	3919
957.5145	3942
959.8782	3936
962.2412	3978
964.6036	3865
966.9655	3799
969.3266	3674
971.6871	3560
974.0471	3533
976.4064	3384
978.765	3481
981.125	3351
983.4824	3385
985.8373	3377
988.1935	3304
990.549	3388
992.9039	3402
995.2602	3343
997.6119	3390
999.965	3450
1002.317	3384
1004.667	3387
1007.02	3430
1009.371	3330
1011.719	3378
1014.068	3367
1016.415	3460
1018.765	3333
1021.111	3379
1023.458	3376
1025.804	3363
1028.147	3332
1030.49	3427
1032.837	3448
1035.179	3459
1037.522	3445
1039.862	3508
1042.204	3424
1044.546	3437
1046.884	3455
1049.224	3377
1051.562	3525
1053.899	3386
1056.237	3512
1058.575	3506
1060.91	3466
1063.244	3512
1065.58	3492
1067.913	3547
1070.248	3461
1072.579	3523
1074.911	3606
1077.242	3554
1079.572	3462
1081.905	3487
1084.234	3463
1086.562	3440
1088.89	3502
1091.217	3468
1093.544	3503
1095.871	3475
1098.197	3500
1100.521	3543
1102.845	3449
1105.169	3488
1107.491	3524
1109.814	3543
1112.135	3478
1114.456	3509
1116.776	3436
1119.096	3539
1121.415	3454
1123.734	3604
1126.052	3418
1128.369	3400
1130.686	3463
1133.002	3499
1135.318	3489
1137.632	3490
1139.945	3514
1142.258	3482
1144.573	3588
1146.884	3577
1149.196	3493
1151.505	3583
1153.816	3429
1156.124	3531
1158.435	3561
1160.742	3474
1163.051	3485
1165.356	3498
1167.663	3568
1169.97	3441
1172.276	3553
1174.579	3481
1176.881	3474
1179.186	3555
1181.487	3549
1183.79	3560
1186.092	3535
1188.392	3492
1190.691	3488
1192.991	3518
1195.291	3527
1197.588	3575
1199.885	3519
1202.181	3495
1204.479	3491
1206.775	3489
1209.07	3488
1211.363	3526
1213.656	3472
1215.949	3461
1218.241	3628
1220.534	3483
1222.825	3515
1225.115	3581
1227.405	3565
1229.693	3579
1231.984	3566
1234.271	3629
1236.558	3626
1238.845	3633
1241.131	3661
1243.416	3635
1245.703	3578
1247.987	3660
1250.269	3671
1252.552	3661
1254.834	3656
1257.118	3650
1259.399	3679
1261.678	3626
1263.958	3615
1266.237	3586
1268.516	3617
1270.794	3625
1273.072	3633
1275.347	3607
1277.624	3609
1279.899	3648
1282.175	3592
1284.449	3645
1286.722	3617
1288.995	3658
1291.266	3538
1293.54	3677
1295.81	3643
1298.081	3612
1300.35	3603
1302.62	3616
1304.889	3661
1307.156	3565
1309.425	3596
1311.69	3609
1313.957	3605
1316.222	3624
1318.488	3547
1320.751	3562
1323.016	3646
1325.278	3574
1327.54	3625
1329.803	3643
1332.065	3683
1334.325	3550
1336.584	3678
1338.843	3689
1341.101	3605
1343.36	3660
1345.617	3656
1347.876	3632
1350.131	3580
1352.387	3642
1354.643	3588
1356.897	3633
1359.151	3626
1361.403	3610
1363.656	3737
1365.909	3589
1368.16	3605
1370.409	3621
1372.659	3629
1374.909	3656
1377.157	3577
1379.407	3623
1381.655	3633
1383.9	3650
1386.147	3602
1388.393	3770
1390.64	3593
1392.885	3594
1395.127	3605
1397.37	3706
1399.614	3731
1401.854	3732
1404.098	3671
1406.339	3684
1408.578	3639
1410.818	3680
1413.056	3632
1415.297	3698
1417.533	3782
1419.771	3748
1422.006	3740
1424.243	3708
1426.479	3731
1428.715	3747
1430.948	3792
1433.182	3780
1435.414	3805
1437.647	3773
1439.88	3739
1442.11	3756
1444.342	3705
1446.571	3752
1448.799	3807
1451.029	3712
1453.258	3802
1455.485	3756
1457.711	3769
1459.937	3867
1462.164	3794
1464.39	3762
1466.614	3740
1468.838	3795
1471.06	3758
1473.283	3723
1475.506	3786
1477.727	3763
1479.949	3710
1482.169	3683
1484.389	3721
1486.609	3710
1488.828	3683
1491.045	3736
1493.261	3727
1495.477	3688
1497.693	3707
1499.91	3724
1502.125	3723
1504.339	3699
1506.553	3704
1508.766	3699
1510.979	3743
1513.191	3608
1515.402	3713
1517.613	3685
1519.823	3692
1522.033	3709
1524.242	3645
1526.451	3664
1528.657	3643
1530.865	3715
1533.072	3752
1535.278	3669
1537.484	3698
1539.687	3636
1541.892	3752
1544.096	3692
1546.299	3647
1548.502	3688
1550.703	3654
1552.905	3725
1555.104	3650
1557.303	3707
1559.505	3766
1561.703	3751
1563.902	3796
1566.099	3748
1568.295	3774
1570.494	3752
1572.689	3796
1574.883	3784
1577.079	3754
1579.272	3805
1581.467	3751
1583.659	3792
1585.853	3781
1588.044	3793
1590.234	3832
1592.424	3816
1594.615	3777
1596.806	3822
1598.994	3841
1601.182	3834
1603.369	3882
1605.557	3702
1607.744	3812
1609.929	3803
1612.114	3793
1614.298	3776
1616.482	3857
1618.667	3861
1620.85	3841
1623.032	3841
1625.214	3851
1627.395	3854
1629.575	3835
1631.755	3846
1633.935	3895
1636.114	3953
1638.292	3867
1640.471	3930
1642.647	3790
1644.823	3921
1647	3844
1649.175	3865
1651.348	3839
1653.525	3918
1655.698	3891
1657.87	3878
1660.043	3794
1662.213	3855
1664.387	3834
1666.558	3912
1668.727	3895
1670.896	3931
1673.064	3868
1675.233	4025
1677.401	3868
1679.569	3890
1681.735	3909
1683.902	3935
1686.066	3868
1688.233	3879
1690.397	3854
1692.559	3788
1694.723	3906
1696.885	3892
1699.048	3814
1701.21	4012
1703.37	3872
1705.53	3713
1707.689	3900
1709.849	3805
1712.009	3841
1714.166	3825
1716.323	3914
1718.479	3828
1720.634	3803
1722.793	3881
1724.948	3818
1727.102	3816
1729.255	3902
1731.408	3850
1733.562	3851
1735.714	3872
1737.865	3897
1740.016	3862
1742.166	3910
1744.316	3866
1746.467	3893
1748.616	3871
1750.764	3820
1752.911	3907
1755.056	3827
1757.205	3894
1759.35	3854
1761.496	3917
1763.641	3976
1765.785	3896
1767.927	3825
1770.072	3947
1772.214	3826
1774.355	3836
1776.496	3953
1778.637	3860
1780.778	3819
1782.918	3907
1785.057	3941
1787.194	3876
1789.333	3960
1791.472	3997
1793.608	3889
1795.745	3929
1797.879	3930
1800.015	3870
1802.148	3951
1804.284	3906
1806.417	3817
1808.548	3990
1810.682	3934
1812.812	3942
1814.946	3925
1817.075	3989
1819.205	3797
1821.335	3946
1823.463	3911
1825.59	3868
1827.721	3844
1829.847	3933
1831.973	3966
1834.098	3947
1836.223	3935
1838.351	3903
1840.475	3937
1842.598	3870
1844.721	3909
1846.843	3876
1848.966	3871
1851.087	3969
1853.21	3772
1855.33	3879
1857.449	3879
1859.568	3917
1861.688	3967
1863.806	4044
1865.924	3900
1868.039	3926
1870.155	3849
1872.273	3884
1874.388	3933
1876.503	3926
1878.617	3892
1880.73	3932
1882.844	3912
1884.956	3950
1887.068	3857
1889.18	3943
1891.291	3933
1893.4	3885
1895.511	3891
1897.621	3884
1899.73	3950
1901.837	3927
1903.944	3966
1906.053	3989
1908.159	3941
1910.265	3889
1912.369	3978
1914.474	3908
1916.577	4010
1918.683	3948
1920.785	4010
1922.888	4012
1924.989	4049
1927.091	4004
1929.193	3951
1931.294	3930
1933.393	3993
1935.493	4042
1937.59	3928
1939.689	4003
1941.788	4051
1943.884	3960
1945.98	4062
1948.077	3984
1950.171	3959
1952.267	3965
1954.361	4046
1956.455	3970
1958.548	4027
1960.64	3978
1962.733	4063
1964.824	3984
1966.915	3920
1969.005	4032
1971.096	4064
1973.185	4019
1975.275	3943
1977.363	3881
1979.45	3809
1981.537	3949
1983.623	3933
1985.711	4048
1987.796	3933
1989.881	3975
1991.965	3990
1994.047	4013
1996.132	3896
1998.215	3960
2000.297	4076
2002.378	4022
2004.46	3889
2006.54	3903
2008.62	4038
2010.7	4002
2012.779	3993
2014.858	3957
2016.934	3984
2019.013	3993
2021.09	3950
2023.165	3988
2025.241	3964
2027.317	4028
2029.39	3914
2031.466	3962
2033.538	4024
2035.612	3992
2037.683	3904
2039.755	4004
2041.827	3896
2043.898	4052
2045.968	3839
2048.038	3997
2050.106	3949
2052.177	4014
2054.244	3975
2056.313	3923
2058.379	3982
2060.444	3952
2062.511	3939
2064.577	4018
2066.641	4073
2068.705	4010
2070.77	3964
2072.832	4029
2074.896	3992
2076.958	3942
2079.02	4038
2081.081	4022
2083.141	3971
2085.2	4023
2087.261	3921
2089.319	3971
2091.377	3975
2093.435	3928
2095.492	3961
2097.552	3978
2099.607	3978
2101.663	4022
2103.718	4067
2105.771	3963
2107.826	4005
2109.879	3980
2111.932	3991
2113.985	4046
2116.037	4032
2118.088	3989
2120.141	3962
2122.191	4092
2124.239	3927
2126.288	3961
2128.337	4084
2130.387	3933
2132.434	3950
2134.481	4066
2136.528	4041
2138.574	4103
2140.618	4030
2142.665	3970
2144.71	3996
2146.753	3956
2148.797	3906
2150.838	4043
2152.883	3935
2154.923	3988
2156.965	4049
2159.007	3973
2161.046	3941
2163.086	3904
2165.126	4013
2167.163	3921
2169.202	4001
2171.239	4028
2173.277	4028
2175.314	3905
2177.349	4017
2179.385	3973
2181.42	3917
2183.453	3945
2185.49	3920
2187.522	3967
2189.555	3958
2191.586	3947
2193.619	3999
2195.651	3871
2197.682	3936
2199.711	3923
2201.74	3978
2203.769	3934
2205.799	3925
2207.828	3848
2209.855	3956
2211.882	3904
2213.908	3952
2215.934	3906
2217.961	3907
2219.986	3937
2222.01	3972
2224.034	3944
2226.057	3910
2228.08	3882
2230.104	3913
2232.124	3919
2234.145	3913
2236.166	3996
2238.186	3844
2240.207	3924
2242.227	3936
2244.244	3918
2246.262	3920
2248.28	3860
2250.299	3874
2252.314	3937
2254.33	3946
2256.346	3927
2258.36	3906
2260.375	3976
2262.391	3985
2264.403	3902
2266.416	4018
2268.427	3977
2270.44	3883
2272.453	3951
2274.463	3945
2276.474	4025
2278.483	4012
2280.493	3899
2282.501	3944
2284.51	3984
2286.518	3999
2288.524	3937
2290.532	4000
2292.537	3950
2294.544	3847
2296.55	4017
2298.554	3992
2300.557	3938
2302.562	3971
2304.566	3882
2306.568	3944
2308.569	3897
2310.572	3972
2312.573	3955
2314.573	3852
2316.574	4007
2318.573	3971
2320.571	3891
2322.571	3941
2324.569	3904
2326.567	3879
2328.564	3914
2330.56	3909
2332.556	3926
2334.551	3903
2336.546	3864
2338.542	3936
2340.535	3893
2342.529	3914
2344.521	3906
2346.512	3950
2348.505	3950
2350.497	3892
2352.487	3930
2354.478	3906
2356.468	3845
2358.457	3830
2360.446	3866
2362.434	3931
2364.422	3945
2366.408	3937
2368.395	3896
2370.383	3854
2372.369	3869
2374.353	3934
2376.338	3901
2378.321	3825
2380.307	3880
2382.29	3875
2384.272	3855
2386.254	3837
2388.235	3798
2390.218	3929
2392.198	3771
2394.179	3926
2396.157	3893
2398.137	3888
2400.115	3917
2402.095	3830
2404.072	3889
2406.048	3838
2408.026	3888
2410.001	3922
2411.977	3861
2413.953	3831
2415.927	3820
2417.9	3803
2419.875	3868
2421.847	3909
2423.821	3896
2425.792	3890
2427.763	3858
2429.736	3926
2431.706	3877
2433.677	3858
2435.646	3839
2437.615	3829
2439.583	3807
2441.551	3971
2443.519	3885
2445.486	3821
2447.452	3815
2449.418	3791
2451.383	3817
2453.348	3840
2455.314	3894
2457.278	3827
2459.241	3851
2461.205	3860
2463.167	3819
2465.131	3847
2467.091	3787
2469.052	3805
2471.012	3816
2472.972	3888
2474.932	3751
2476.891	3784
2478.85	3767
2480.808	3822
2482.766	3824
2484.722	3830
2486.68	3747
2488.636	3919
2490.591	3800
2492.546	3839
2494.5	3835
2496.456	3829
2498.41	3767
2500.362	3792
2502.315	3835
2504.266	3815
2506.218	3831
2508.169	3804
2510.121	3736
2512.07	3875
2514.019	3809
2515.968	3829
2517.918	3799
2519.866	3816
2521.813	3801
2523.76	3842
2525.707	3854
2527.653	3823
2529.599	3898
2531.543	3796
2533.489	3799
2535.433	3794
2537.376	3705
2539.32	3782
2541.264	3854
2543.205	3872
2545.147	3854
2547.087	3786
2549.029	3732
2550.969	3849
2552.908	3783
2554.847	3888
2556.786	3823
2558.724	3795
2560.663	3755
2562.6	3752
2564.537	3816
2566.473	3816
2568.408	3871
2570.345	3850
2572.28	3847
2574.214	3827
2576.148	3800
2578.081	3752
2580.014	3777
2581.947	3845
2583.879	3857
2585.81	3776
2587.741	3787
2589.67	3747
2591.602	3821
2593.532	3852
2595.461	3838
2597.388	3886
2599.316	3814
2601.244	3780
2603.172	3775
2605.098	3894
2607.023	3697
2608.949	3914
2610.873	3841
2612.8	3881
2614.723	3802
2616.647	3927
2618.569	3874
2620.493	3778
2622.416	3839
2624.338	3814
2626.258	3806
2628.179	3786
2630.099	3806
2632.019	3915
2633.939	3839
2635.857	3898
2637.775	3870
2639.694	3818
2641.61	3845
2643.528	3803
2645.444	3762
2647.361	3832
2649.276	3784
2651.19	3835
2653.105	3904
2655.019	3812
2656.934	3870
2658.846	3840
2660.758	3791
2662.67	3809
2664.583	3824
2666.493	3871
2668.404	3854
2670.313	3767
2672.223	3893
2674.134	3901
2676.042	3916
2677.95	3888
2679.858	3842
2681.765	3878
2683.673	3734
2685.579	3808
2687.483	3835
2689.389	3812
2691.294	3757
2693.198	3838
2695.104	3830
2697.006	3891
2698.909	3818
2700.811	3814
2702.713	3829
2704.615	3867
2706.516	3867
2708.417	3726
2710.316	3792
2712.216	3787
2714.115	3714
2716.014	3797
2717.913	3682
2719.81	3706
2721.707	3779
2723.603	3814
2725.501	3782
2727.396	3778
2729.292	3750
2731.186	3703
2733.081	3830
2734.976	3694
2736.87	3850
2738.762	3838
2740.653	3705
2742.546	3787
2744.437	3821
2746.329	3688
2748.22	3694
2750.11	3785
2751.999	3727
2753.889	3729
2755.778	3790
2757.666	3758
2759.553	3755
2761.44	3738
2763.328	3709
2765.215	3801
2767.101	3742
2768.986	3795
2770.87	3734
2772.754	3784
2774.638	3810
2776.523	3672
2778.405	3733
2780.288	3812
2782.17	3900
2784.051	3751
2785.934	3745
2787.814	3753
2789.694	3759
2791.574	3744
2793.453	3667
2795.332	3786
2797.212	3782
2799.088	3761
2800.966	3891
2802.843	3634
2804.719	3734
2806.597	3757
2808.471	3739
2810.346	3816
2812.221	3724
2814.094	3842
2815.969	3757
2817.843	3757
2819.714	3713
2821.587	3721
2823.459	3652
2825.329	3739
2827.202	3755
2829.072	3722
2830.942	3725
2832.811	3710
2834.68	3673
2836.549	3759
2838.418	3713
2840.284	3787
2842.152	3806
2844.018	3788
2845.885	3800
2847.751	3852
2849.616	3771
2851.482	3766
2853.345	3760
2855.208	3825
2857.074	3770
2858.937	3877
2860.799	3730
2862.66	3808
2864.522	3840
2866.385	3762
2868.245	3816
2870.104	3807
2871.964	3772
2873.824	3937
2875.683	3837
2877.542	3835
2879.4	3827
2881.257	3884
2883.114	3891
2884.97	3942
2886.827	3899
2888.683	3885
2890.537	3782
2892.392	3896
2894.246	3877
2896.1	4025
2897.954	3875
2899.807	3894
2901.66	3902
2903.51	3899
2905.362	3850
2907.214	3927
2909.065	3916
2910.915	3907
2912.765	3873
2914.613	3935
2916.463	3877
2918.311	3891
2920.158	3938
2922.006	3944
2923.853	3963
2925.698	3947
2927.546	4051
2929.392	3930
2931.236	4074
2933.081	4039
2934.924	4133
2936.77	4192
2938.613	4070
2940.455	4119
2942.298	4151
2944.139	4077
2945.982	4158
2947.823	4081
2949.662	4083
2951.503	4131
2953.342	4155
2955.182	4080
2957.021	4001
2958.858	4104
2960.697	4022
2962.534	4000
2964.37	3984
2966.207	3964
2968.044	3874
2969.879	3989
2971.714	3875
2973.548	3883
2975.383	3853
2977.218	3895
2979.051	3968
2980.883	3934
2982.715	3928
2984.547	3930
2986.379	3892
2988.21	3886
2990.04	3796
2991.87	3797
2993.7	3782
2995.53	3827
2997.359	3730
2999.187	3708
3001.015	3790
3002.842	3718
3004.669	3679
3006.497	3664
3008.323	3669
3010.148	3733
3011.974	3647
3013.797	3745
3015.623	3663
3017.447	3677
3019.27	3633
3021.094	3596
3022.915	3673
3024.737	3609
3026.56	3577
3028.38	3570
3030.201	3622
3032.022	3633
3033.84	3553
3035.662	3567
3037.481	3600
3039.298	3515
3041.117	3658
3042.933	3594
3044.752	3578
3046.568	3652
3048.385	3561
3050.2	3611
3052.016	3630
3053.83	3593
3055.646	3609
3057.46	3622
3059.272	3619
3061.086	3543
3062.898	3526
3064.711	3567
3066.524	3565
3068.335	3566
3070.145	3575
3071.956	3565
3073.766	3546
3075.576	3549
3077.385	3597
3079.193	3533
3081.002	3584
3082.81	3513
3084.618	3612
3086.425	3511
3088.231	3552
3090.036	3495
3091.842	3473
3093.648	3509
3095.452	3514
3097.257	3541
3099.06	3547
3100.863	3501
3102.666	3517
3104.47	3504
3106.272	3525
3108.073	3502
3109.875	3519
3111.676	3493
3113.477	3384
3115.277	3448
3117.077	3413
3118.874	3467
3120.673	3485
3122.473	3457
3124.271	3451
3126.066	3443
3127.863	3453
3129.66	3431
3131.456	3415
3133.252	3484
3135.047	3503
3136.842	3478
3138.635	3451
3140.429	3463
3142.223	3487
3144.016	3421
3145.808	3483
3147.6	3368
3149.392	3438
3151.183	3422
3152.975	3423
3154.765	3422
3156.553	3401
3158.344	3377
3160.132	3427
3161.922	3500
3163.71	3408
3165.497	3353
3167.285	3526
3169.071	3364
3170.858	3457
3172.645	3406
3174.429	3355
3176.214	3444
3177.998	3388
3179.783	3452
3181.568	3386
3183.351	3377
3185.133	3434
3186.915	3382
3188.698	3341
3190.481	3422
3192.261	3370
3194.042	3313
3195.822	3354
3197.601	3386
3199.381	3421
3201.161	3364
3202.939	3366
3204.717	3400
3206.495	3398
3208.272	3388
3210.05	3400
3211.826	3306
3213.602	3368
3215.376	3368
3217.151	3358
3218.927	3389
3220.702	3389
3222.476	3343
3224.249	3376
3226.021	3353
3227.793	3459
3229.567	3329
3231.339	3435
3233.109	3300
3234.88	3315
3236.651	3381
3238.421	3373
3240.191	3352
3241.96	3414
3243.728	3296
3245.497	3398
3247.263	3363
3249.033	3377
3250.799	3307
3252.566	3354
3254.331	3363
3256.097	3359
3257.863	3297
3259.628	3389
3261.392	3336
3263.156	3325
3264.919	3339
3266.683	3363
3268.447	3322
3270.208	3360
3271.969	3396
3273.731	3365
3275.492	3286
3277.253	3322
3279.013	3356
3280.773	3291
3282.532	3343
3284.291	3322
3286.05	3372
3287.808	3346
3289.566	3309
3291.323	3421
3293.079	3275
3294.835	3370
3296.593	3390
3298.348	3365
3300.102	3369
3301.857	3372
3303.611	3403
3305.366	3367
3307.119	3352
3308.872	3364
3310.624	3250
3312.376	3331
3314.129	3286
3315.881	3326
3317.631	3267
3319.38	3354
3321.13	3372
3322.88	3320
3324.631	3302
3326.379	3332
3328.126	3384
3329.875	3340
3331.622	3301
3333.371	3395
3335.116	3360
3336.863	3289
3338.609	3339
3340.353	3329
3342.1	3354
3343.845	3338
3345.588	3326
3347.332	3397
3349.074	3319
3350.817	3310
3352.56	3287
3354.303	3322
3356.043	3264
3357.785	3246
3359.525	3336
3361.268	3319
3363.007	3303
3364.745	3333
3366.485	3221
3368.223	3291
3369.962	3279
3371.701	3234
3373.438	3300
3375.174	3267
3376.911	3257
3378.647	3333
3380.384	3333
3382.118	3318
3383.854	3276
3385.588	3304
3387.322	3262
3389.057	3265
3390.79	3248
3392.522	3279
3394.255	3311
3395.987	3240
3397.719	3254
3399.451	3259
3401.181	3313
3402.911	3258
3404.641	3297
3406.371	3244
3408.101	3257
3409.83	3297
3411.558	3172
3413.285	3269
3415.011	3196
3416.739	3267
3418.467	3273
3420.193	3253
3421.919	3219
3423.644	3221
3425.368	3220
3427.094	3245
3428.818	3209
3430.542	3277
3432.264	3170
3433.987	3245
3435.712	3187
3437.434	3283
3439.155	3290
3440.876	3199
3442.596	3248
3444.317	3193
3446.039	3197
3447.757	3232
3449.477	3145
3451.195	3210
3452.914	3161
3454.632	3135
3456.35	3149
3458.067	3169
3459.784	3204
3461.5	3206
3463.216	3202
3464.932	3135
3466.647	3163
3468.362	3218
3470.076	3243
3471.789	3185
3473.505	3268
3475.217	3127
3476.929	3113
3478.641	3114
3480.354	3130
3482.066	3097
3483.777	3154
3485.487	3143
3487.197	3131
3488.908	3133
3490.617	3147
3492.327	3122
3494.035	3180
3495.743	3108
3497.451	3105
3499.158	3115
3500.866	3183
3502.572	3051
3504.278	3158
3505.984	3102
3507.689	3110
3509.396	3090
3511.1	3065
3512.804	3036
3514.508	3065
3516.211	3097
3517.913	3065
3519.616	3057
3521.319	3073
3523.021	3061
3524.722	3064
3526.422	3104
3528.124	3126
3529.824	3009
3531.524	3086
3533.222	3047
3534.921	2999
3536.62	3076
3538.318	3120
3540.016	3001
3541.714	3098
3543.41	3011
3545.107	3013
3546.803	3117
3548.5	3069
3550.194	3080
3551.889	3031
3553.583	3043
3555.279	3106
3556.972	3084
3558.666	3068
3560.358	3022
3562.051	3089
3563.742	3066
3565.435	3074
3567.126	2948
3568.817	3005
3570.507	3075
3572.197	2974
3573.888	3056
3575.577	2971
3577.265	3080
3578.954	2997
3580.642	2976
3582.329	2987
3584.017	3031
3585.704	2993
3587.391	2986
3589.077	2966
3590.762	2993
3592.449	2973
3594.133	2992
3595.817	2961
3597.501	3021
3599.185	2971
3600.869	2989
3602.552	2945
3604.234	2965
3605.916	2940
3607.598	2955
3609.279	2914
3610.961	2918
3612.642	2881
3614.321	2889
3616	2863
3617.68	2933
3619.36	2952
3621.039	2927
3622.716	2931
3624.394	2949
3626.071	2961
3627.748	2909
3629.425	2943
3631.102	2853
3632.778	2909
3634.452	2918
3636.127	2944
3637.803	2929
3639.477	2897
3641.151	2916
3642.823	2893
3644.497	2907
3646.171	2845
3647.842	2901
3649.515	2842
3651.185	2853
3652.857	2903
3654.527	2897
3656.198	2860
3657.868	2893
3659.537	2887
3661.207	2924
3662.875	2832
3664.544	2817
3666.212	2860
3667.879	2807
3669.546	2906
3671.212	2882
3672.88	2796
3674.546	2789
3676.211	2933
3677.875	2799
3679.541	2777
3681.205	2783
3682.87	2815
3684.533	2868
3686.196	2844
3687.859	2856
3689.521	2814
3691.184	2865
3692.845	2826
3694.507	2823
3696.167	2804
3697.827	2858
3699.487	2840
3701.148	2891
3702.808	2748
3704.466	2811
3706.125	2783
3707.783	2849
3709.442	2845
3711.099	2829
3712.757	2794
3714.412	2857
3716.068	2791
3717.725	2841
3719.381	2766
3721.036	2781
3722.689	2800
3724.344	2864
3725.998	2779
3727.652	2802
3729.305	2767
3730.958	2779
3732.61	2816
3734.262	2794
3735.915	2771
3737.565	2769
3739.217	2756
3740.866	2818
3742.516	2762
3744.165	2803
3745.816	2786
3747.464	2760
3749.113	2855
3750.761	2788
3752.409	2807
3754.057	2811
3755.703	2849
3757.35	2807
3758.996	2769
3760.641	2722
3762.289	2764
3763.933	2766
3765.577	2739
3767.222	2753
3768.865	2757
3770.508	2711
3772.152	2757
3773.796	2700
3775.438	2798
3777.079	2724
3778.721	2779
3780.363	2715
3782.003	2733
3783.643	2763
3785.283	2738
3786.923	2710
3788.563	2700
3790.203	2671
3791.841	2707
3793.479	2654
3795.115	2702
3796.753	2738
3798.391	2754
3800.027	2706
3801.664	2708
3803.299	2689
3804.935	2773
3806.571	2713
3808.206	2702
3809.839	2693
3811.473	2712
3813.107	2685
3814.74	2718
3816.375	2658
3818.006	2644
3819.638	2723
3821.27	2723
3822.9	2657
3824.532	2683
3826.163	2677
3827.792	2607
3829.423	2711
3831.051	2727
3832.682	2620
3834.311	2653
3835.938	2704
3837.566	2607
3839.193	2686
3840.821	2658
3842.448	2673
3844.075	2638
3845.7	2635
3847.325	2638
3848.951	2700
3850.576	2637
3852.201	2628
3853.825	2667
3855.448	2650
3857.072	2668
3858.694	2598
3860.318	2633
3861.939	2618
3863.562	2657
3865.183	2645
3866.804	2612
3868.426	2563
3870.045	2588
3871.666	2598
3873.285	2649
3874.904	2617
3876.524	2581
3878.142	2664
3879.76	2618
3881.378	2644
3882.995	2607
3884.612	2669
3886.229	2677
3887.845	2605
3889.461	2585
3891.076	2572
3892.691	2586
3894.307	2578
3895.922	2548
3897.536	2555
3899.149	2553
3900.761	2562
3902.374	2582
3903.988	2561
3905.6	2608
3907.212	2544
3908.822	2608
3910.433	2551
3912.045	2609
3913.655	2633
3915.265	2615
3916.875	2535
3918.483	2586
3920.093	2559
3921.702	2598
3923.309	2583
3924.917	2610
3926.523	2596
3928.13	2496
3929.739	2544
3931.344	2594
3932.95	2524
3934.555	2601
3936.159	2496
3937.766	2522
3939.369	2575
3940.974	2542
3942.577	2565
3944.181	2562
3945.783	2605
3947.386	2568
3948.989	2555
3950.59	2528
3952.191	2546
3953.791	2558
3955.394	2512
3956.994	2561
3958.593	2522
3960.192	2506
3961.791	2473
3963.392	2489
3964.99	2557
3966.588	2446
3968.185	2518
3969.782	2484
3971.379	2504
3972.976	2492
3974.572	2497
3976.168	2576
3977.763	2561
3979.358	2494
3980.954	2454
3982.548	2552
3984.142	2489
3985.736	2465
3987.329	2552
3988.922	2528
3990.516	2557
3992.108	2463
3993.698	2483
3995.29	2507
3996.881	2546
3998.473	2467
4000.064	2423
4001.653	2494
4003.242	2537
4004.832	2517
4006.422	2467
4008.01	2430
4009.598	2525
4011.186	2511
4012.773	2419
4014.36	2477
4015.947	2444
4017.534	2414
4019.119	2490
4020.705	2405
4022.291	2420
4023.876	2438
4025.461	2407
4027.044	2431
4028.627	2503
4030.211	2473
4031.795	2447
4033.378	2381
4034.96	2430
4036.542	2420
4038.124	2406
4039.704	2427
4041.286	2384
4042.867	2363
4044.447	2450
4046.026	2430
4047.606	2403
4049.187	2349
4050.765	2417
4052.343	2375
4053.92	2393
4055.498	2439
4057.076	2403
4058.654	2380
4060.23	2355
4061.806	2388
4063.381	2344
4064.957	2354
4066.533	2423
4068.107	2401
4069.682	2348
4071.256	2437
4072.829	2383
4074.404	2354
4075.977	2399
4077.549	2415
4079.121	2405
4080.693	2361
4082.265	2378
4083.836	2397
4085.407	2370
4086.977	2401
4088.547	2349
4090.117	2345
4091.687	2353
4093.256	2315
4094.825	2339
4096.392	2334
4097.96	2386
4099.528	2289
4101.097	2338
4102.663	2294
4104.229	2424
4105.795	2356
4107.361	2341
4108.928	2295
4110.493	2370
4112.058	2340
4113.621	2315
4115.186	2361
4116.75	2315
4118.313	2352
4119.876	2325
4121.438	2334
4123	2281
4124.562	2307
4126.125	2302
4127.686	2298
4129.246	2268
4130.807	2342
4132.367	2268
4133.927	2299
4135.486	2298
4137.046	2321
4138.604	2317
4140.162	2260
4141.72	2280
4143.279	2261
4144.836	2216
4146.393	2314
4147.949	2264
4149.505	2221
4151.062	2282
4152.617	2273
4154.172	2326
4155.727	2231
4157.281	2260
4158.836	2288
4160.39	2296
4161.943	2192
4163.496	2313
4165.048	2290
4166.601	2257
4168.154	2255
4169.706	2208
4171.257	2268
4172.808	2271
4174.358	2265
4175.909	2232
4177.458	2233
4179.008	2233
4180.558	2276
4182.106	2201
4183.655	2210
4185.204	2219
4186.751	2198
4188.298	2194
4189.845	2161
4191.392	2279
4192.939	2249
4194.485	2215
4196.031	2244
4197.576	2198
4199.121	2204
4200.666	2223
4202.211	2166
4203.754	2228
4205.298	2229
4206.84	2149
4208.384	2190
4209.927	2217
4211.47	2252
4213.011	2254
4214.552	2209
4216.094	2277
4217.635	2121
4219.175	2157
4220.716	2205
4222.255	2178
4223.793	2137
4225.335	2169
4226.873	2165
4228.411	2201
4229.948	2216
4231.486	2222
4233.024	2186
4234.562	2120
4236.098	2168
4237.634	2190
4239.169	2166
4240.705	2163
4242.241	2152
4243.776	2202
4245.31	2143
4246.844	2161
4248.378	2169
4249.911	2138
4251.445	2136
4252.978	2195
4254.51	2145
4256.042	2145
4257.574	2165
4259.107	2128
4260.638	2145
4262.169	2150
4263.699	2122
4265.228	2105
4266.759	2138
4268.289	2179
4269.818	2153
4271.345	2081
4272.874	2161
4274.402	2124
4275.931	2106
4277.458	2062
4278.985	2172
4280.512	2070
4282.037	2134
4283.564	2125
4285.089	2170
4286.615	2087
4288.139	2126
4289.664	2085
4291.187	2110
4292.712	2112
4294.235	2090
4295.759	2117
4297.281	2137
4298.804	2125
4300.327	2071
4301.849	2087
4303.37	2129
4304.891	2077
4306.412	2073
4307.933	2099
4309.453	2082
4310.973	2096
4312.492	2040
