398.1873	3151
400.7097	3096
403.2336	3120
405.7547	3125
408.2751	3106
410.7948	3114
413.3138	3145
415.83	3218
418.3497	3197
420.8666	3220
423.3829	3224
425.8985	3179
428.4133	3286
430.9275	3278
433.441	3297
435.9538	3275
438.4639	3327
440.9753	3304
443.4881	3241
445.9982	3322
448.5055	3297
451.0142	3267
453.5201	3303
456.0274	3314
458.5361	3312
461.04	3278
463.5453	3229
466.0478	3319
468.5517	3263
471.0549	3310
473.5574	3395
476.0572	3363
478.5584	3335
481.0568	3353
483.5545	3316
486.0557	3320
488.5521	3371
491.0478	3304
493.5449	3337
496.0392	3383
498.5349	3371
501.0299	3367
503.5222	3459
506.0139	3357
508.5048	3459
510.9991	3415
513.4887	3427
515.9777	3415
518.4659	3382
520.9534	3412
523.4403	3432
525.9306	3425
528.4161	3388
530.9009	3499
533.3851	3499
535.8687	3511
538.3535	3367
540.8356	3425
543.3171	3438
545.7979	3264
548.278	3446
550.7595	3397
553.2383	3477
555.7144	3440
558.1918	3437
560.6685	3438
563.1446	3458
565.6221	3611
568.0968	3550
570.5688	3433
573.0422	3494
575.515	3516
577.989	3522
580.4584	3510
582.9291	3531
585.3991	3520
587.8685	3527
590.3352	3570
592.8052	3501
595.2706	3550
597.7372	3535
600.2033	3502
602.6666	3495
605.1334	3571
607.5953	3591
610.0587	3459
612.5193	3542
614.9814	3528
617.4427	3430
619.9034	3471
622.3615	3495
624.8208	3512
627.2775	3476
629.7335	3536
632.1929	3549
634.6476	3512
637.1016	3536
639.5569	3549
642.0096	3499
644.4637	3497
646.9151	3524
649.3678	3611
651.8179	3525
654.2672	3608
656.7159	3591
659.166	3584
661.6154	3659
664.0622	3542
666.5082	3585
668.9537	3658
671.4005	3440
673.8445	3615
676.288	3612
678.7308	3594
681.1729	3583
683.6163	3568
686.0572	3612
688.4973	3567
690.9368	3617
693.3757	3657
695.8138	3642
698.2534	3631
700.6902	3682
703.1245	3635
705.56	3748
707.9949	3663
710.4311	3640
712.8647	3667
715.2957	3605
717.7279	3729
720.1595	3721
722.5905	3741
725.0208	3699
727.4505	3756
729.8795	3732
732.3058	3759
734.7336	3754
737.1626	3702
739.587	3834
742.0128	3736
744.4359	3820
746.8604	3854
749.2841	3874
751.7073	3722
754.1278	3929
756.5496	3827
758.9688	3811
761.3893	3859
763.8093	3840
766.2285	3861
768.6451	3932
771.0611	3919
773.4784	3875
775.895	3843
778.3091	3815
780.7244	3866
783.1371	3910
785.5493	3861
787.9626	3887
790.3754	3841
792.7856	3929
795.1951	3874
797.6039	3906
800.0121	3884
802.4236	3837
804.8306	3931
807.2369	3773
809.6425	3901
812.0475	3965
814.4538	3937
816.8575	3873
819.2606	3969
821.663	3954
824.0648	3943
826.4659	3971
828.8683	3916
831.2682	3964
833.6674	3938
836.066	3975
838.4639	3971
840.8632	3959
843.2579	3967
845.6539	4015
848.0493	3951
850.444	4046
852.84	3913
855.2315	4043
857.6243	3981
860.0165	4015
862.4081	3965
864.797	3926
867.1892	3977
869.5789	4051
871.9659	4004
874.3542	3929
876.74	3963
879.129	3933
881.5155	3985
883.8994	4015
886.2845	4014
888.6671	3995
891.051	4023
893.4343	4065
895.8169	4032
898.197	4024
900.5783	3972
902.9571	4050
905.3372	3998
907.7167	3980
910.0936	3970
912.4698	4144
914.8474	4068
917.2244	4101
919.5987	4024
921.9744	4096
924.3475	4096
926.72	4169
929.0918	4149
931.4669	4158
933.8375	4149
936.2074	4250
938.5767	4176
940.9454	4238
943.3154	4245
945.6829	4432
948.0497	4432
950.4178	4546
952.7833	4543
955.1483	4710
957.5145	4799
959.8782	4925
962.2412	4880
964.6036	4746
966.9655	4641
969.3266	4583
971.6871	4456
974.0471	4178
976.4064	4172
978.765	4220
981.125	4223
983.4824	4059
985.8373	4142
988.1935	4142
990.549	4143
992.9039	4184
995.2602	4173
997.6119	4011
999.965	4182
1002.317	4162
1004.667	4204
1007.02	4151
1009.371	4103
1011.719	4164
1014.068	4073
1016.415	4165
1018.765	4123
1021.111	4142
1023.458	4116
1025.804	4238
1028.147	4191
1030.49	4245
1032.837	4190
1035.179	4239
1037.522	4274
1039.862	4190
1042.204	4247
1044.546	4309
1046.884	4214
1049.224	4200
1051.562	4277
1053.899	4301
1056.237	4277
1058.575	4267
1060.91	4220
1063.244	4336
1065.58	4282
1067.913	4317
1070.248	4325
1072.579	4350
1074.911	4374
1077.242	4312
1079.572	4292
1081.905	4237
1084.234	4271
1086.562	4265
1088.89	4259
1091.217	4244
1093.544	4275
1095.871	4266
1098.197	4320
1100.521	4271
1102.845	4147
1105.169	4259
1107.491	4242
1109.814	4274
1112.135	4239
1114.456	4267
1116.776	4271
1119.096	4355
1121.415	4291
1123.734	4319
1126.052	4272
1128.369	4242
1130.686	4302
1133.002	4191
1135.318	4337
1137.632	4323
1139.945	4278
1142.258	4279
1144.573	4280
1146.884	4333
1149.196	4355
1151.505	4249
1153.816	4265
1156.124	4321
1158.435	4414
1160.742	4333
1163.051	4267
1165.356	4240
1167.663	4341
1169.97	4257
1172.276	4340
1174.579	4283
1176.881	4314
1179.186	4339
1181.487	4289
1183.79	4280
1186.092	4293
1188.392	4209
1190.691	4274
1192.991	4194
1195.291	4281
1197.588	4248
1199.885	4293
1202.181	4338
1204.479	4261
1206.775	4332
1209.07	4348
1211.363	4311
1213.656	4423
1215.949	4286
1218.241	4311
1220.534	4372
1222.825	4395
1225.115	4345
1227.405	4437
1229.693	4414
1231.984	4399
1234.271	4439
1236.558	4359
1238.845	4457
1241.131	4471
1243.416	4389
1245.703	4504
1247.987	4547
1250.269	4422
1252.552	4405
1254.834	4483
1257.118	4355
1259.399	4443
1261.678	4482
1263.958	4471
1266.237	4430
1268.516	4414
1270.794	4542
1273.072	4546
1275.347	4411
1277.624	4502
1279.899	4482
1282.175	4410
1284.449	4492
1286.722	4488
1288.995	4365
1291.266	4419
1293.54	4423
1295.81	4449
1298.081	4391
1300.35	4439
1302.62	4531
1304.889	4416
1307.156	4441
1309.425	4406
1311.69	4290
1313.957	4381
1316.222	4475
1318.488	4317
1320.751	4390
1323.016	4407
1325.278	4468
1327.54	4328
1329.803	4434
1332.065	4418
1334.325	4409
1336.584	4534
1338.843	4468
1341.101	4452
1343.36	4423
1345.617	4399
1347.876	4424
1350.131	4363
1352.387	4417
1354.643	4514
1356.897	4400
1359.151	4567
1361.403	4465
1363.656	4410
1365.909	4550
1368.16	4480
1370.409	4525
1372.659	4411
1374.909	4488
1377.157	4410
1379.407	4498
1381.655	4515
1383.9	4492
1386.147	4476
1388.393	4440
1390.64	4503
1392.885	4528
1395.127	4532
1397.37	4548
1399.614	4553
1401.854	4580
1404.098	4499
1406.339	4513
1408.578	4553
1410.818	4488
1413.056	4569
1415.297	4554
1417.533	4605
1419.771	4514
1422.006	4602
1424.243	4595
1426.479	4523
1428.715	4554
1430.948	4669
1433.182	4575
1435.414	4587
1437.647	4697
1439.88	4576
1442.11	4591
1444.342	4546
1446.571	4571
1448.799	4599
1451.029	4772
1453.258	4767
1455.485	4700
1457.711	4693
1459.937	4592
1462.164	4598
1464.39	4602
1466.614	4554
1468.838	4563
1471.06	4677
1473.283	4569
1475.506	4530
1477.727	4540
1479.949	4569
1482.169	4506
1484.389	4451
1486.609	4536
1488.828	4469
1491.045	4510
1493.261	4589
1495.477	4468
1497.693	4596
1499.91	4471
1502.125	4446
1504.339	4493
1506.553	4466
1508.766	4442
1510.979	4511
1513.191	4490
1515.402	4539
1517.613	4533
1519.823	4502
1522.033	4617
1524.242	4518
1526.451	4508
1528.657	4588
1530.865	4476
1533.072	4460
1535.278	4535
1537.484	4487
1539.687	4655
1541.892	4534
1544.096	4564
1546.299	4582
1548.502	4535
1550.703	4422
1552.905	4532
1555.104	4419
1557.303	4554
1559.505	4634
1561.703	4639
1563.902	4678
1566.099	4747
1568.295	4605
1570.494	4622
1572.689	4574
1574.883	4576
1577.079	4683
1579.272	4634
1581.467	4664
1583.659	4739
1585.853	4698
1588.044	4752
1590.234	4720
1592.424	4693
1594.615	4647
1596.806	4645
1598.994	4635
1601.182	4673
1603.369	4665
1605.557	4707
1607.744	4607
1609.929	4586
1612.114	4673
1614.298	4810
1616.482	4710
1618.667	4661
1620.85	4791
1623.032	4654
1625.214	4696
1627.395	4876
1629.575	4648
1631.755	4738
1633.935	4660
1636.114	4712
1638.292	4802
1640.471	4757
1642.647	4665
1644.823	4859
1647	4795
1649.175	4743
1651.348	4740
1653.525	4787
1655.698	4738
1657.87	4752
1660.043	4710
1662.213	4750
1664.387	4775
1666.558	4825
1668.727	4710
1670.896	4715
1673.064	4789
1675.233	4834
1677.401	4818
1679.569	4706
1681.735	4794
1683.902	4745
1686.066	4802
1688.233	4806
1690.397	4753
1692.559	4727
1694.723	4768
1696.885	4843
1699.048	4731
1701.21	4711
1703.37	4698
1705.53	4759
1707.689	4735
1709.849	4686
1712.009	4690
1714.166	4624
1716.323	4755
1718.479	4731
1720.634	4730
1722.793	4702
1724.948	4849
1727.102	4636
1729.255	4735
1731.408	4707
1733.562	4779
1735.714	4739
1737.865	4719
1740.016	4767
1742.166	4709
1744.316	4809
1746.467	4751
1748.616	4766
1750.764	4736
1752.911	4781
1755.056	4739
1757.205	4705
1759.35	4741
1761.496	4744
1763.641	4819
1765.785	4771
1767.927	4757
1770.072	4781
1772.214	4797
1774.355	4822
1776.496	4769
1778.637	4830
1780.778	4735
1782.918	4840
1785.057	4880
1787.194	4871
1789.333	4844
1791.472	4874
1793.608	4802
1795.745	4808
1797.879	4808
1800.015	4888
1802.148	4802
1804.284	4768
1806.417	4845
1808.548	4815
1810.682	4699
1812.812	4846
1814.946	4838
1817.075	4735
1819.205	4800
1821.335	4772
1823.463	4800
1825.59	4790
1827.721	4775
1829.847	4866
1831.973	4831
1834.098	4845
1836.223	4819
1838.351	4754
1840.475	4802
1842.598	4774
1844.721	4915
1846.843	4831
1848.966	4876
1851.087	4776
1853.21	4715
1855.33	4798
1857.449	4761
1859.568	4849
1861.688	4886
1863.806	4741
1865.924	4844
1868.039	4864
1870.155	4788
1872.273	4745
1874.388	4803
1876.503	4832
1878.617	4850
1880.73	4844
1882.844	4792
1884.956	4819
1887.068	4807
1889.18	4847
1891.291	4848
1893.4	4782
1895.511	4927
1897.621	4862
1899.73	4887
1901.837	4697
1903.944	4866
1906.053	4910
1908.159	4840
1910.265	4873
1912.369	4949
1914.474	4925
1916.577	4870
1918.683	4868
1920.785	4789
1922.888	4939
1924.989	4935
1927.091	4783
1929.193	4982
1931.294	4925
1933.393	4942
1935.493	4959
1937.59	4936
1939.689	4921
1941.788	4952
1943.884	4786
1945.98	4935
1948.077	4904
1950.171	4854
1952.267	4888
1954.361	4912
1956.455	4847
1958.548	4911
1960.64	4891
1962.733	4929
1964.824	4966
1966.915	4899
1969.005	4851
1971.096	4836
1973.185	4993
1975.275	4898
1977.363	4842
1979.45	4925
1981.537	4923
1983.623	4838
1985.711	4920
1987.796	4902
1989.881	4835
1991.965	4863
1994.047	4863
1996.132	4903
1998.215	4821
2000.297	4887
2002.378	4944
2004.46	4913
2006.54	4894
2008.62	4850
2010.7	4859
2012.779	4907
2014.858	4782
2016.934	4845
2019.013	4795
2021.09	4933
2023.165	4926
2025.241	4933
2027.317	4943
2029.39	4954
2031.466	4881
2033.538	4896
2035.612	4847
2037.683	5000
2039.755	4862
2041.827	4855
2043.898	4866
2045.968	4924
2048.038	4808
2050.106	4930
2052.177	4915
2054.244	4773
2056.313	4972
2058.379	4964
2060.444	4891
2062.511	4976
2064.577	4855
2066.641	4859
2068.705	4897
2070.77	4933
2072.832	4842
2074.896	4952
2076.958	4954
2079.02	5030
2081.081	4889
2083.141	4940
2085.2	4875
2087.261	4904
2089.319	4838
2091.377	4914
2093.435	4995
2095.492	4770
2097.552	4879
2099.607	4893
2101.663	4900
2103.718	4905
2105.771	4897
2107.826	4922
2109.879	4911
2111.932	4939
2113.985	4947
2116.037	4947
2118.088	4975
2120.141	4969
2122.191	4898
2124.239	4978
2126.288	4854
2128.337	4991
2130.387	4956
2132.434	4985
2134.481	4840
2136.528	5083
2138.574	4916
2140.618	4911
2142.665	4960
2144.71	4863
2146.753	4979
2148.797	4904
2150.838	4877
2152.883	4931
2154.923	4920
2156.965	4882
2159.007	4831
2161.046	4937
2163.086	4946
2165.126	4898
2167.163	4868
2169.202	4972
2171.239	4962
2173.277	4862
2175.314	4892
2177.349	4768
2179.385	4891
2181.42	4822
2183.453	4900
2185.49	4866
2187.522	4883
2189.555	4884
2191.586	4859
2193.619	4865
2195.651	4851
2197.682	4813
2199.711	4845
2201.74	4867
2203.769	4849
2205.799	4851
2207.828	4902
2209.855	4802
2211.882	4886
2213.908	4776
2215.934	4874
2217.961	4838
2219.986	4934
2222.01	4852
2224.034	4911
2226.057	4866
2228.08	4854
2230.104	4914
2232.124	4874
2234.145	4882
2236.166	4830
2238.186	4762
2240.207	4871
2242.227	4871
2244.244	4806
2246.262	4831
2248.28	4891
2250.299	4845
2252.314	4826
2254.33	4894
2256.346	4881
2258.36	4837
2260.375	4920
2262.391	4889
2264.403	4872
2266.416	4936
2268.427	4888
2270.44	4832
2272.453	4882
2274.463	4820
2276.474	4890
2278.483	4752
2280.493	4900
2282.501	4788
2284.51	4850
2286.518	4860
2288.524	4849
2290.532	4845
2292.537	4884
2294.544	4937
2296.55	4912
2298.554	4815
2300.557	4880
2302.562	4852
2304.566	4844
2306.568	4964
2308.569	4930
2310.572	4885
2312.573	4880
2314.573	4879
2316.574	4790
2318.573	4887
2320.571	4873
2322.571	4880
2324.569	4838
2326.567	4761
2328.564	4994
2330.56	4808
2332.556	4830
2334.551	4795
2336.546	4823
2338.542	4813
2340.535	4844
2342.529	4804
2344.521	4786
2346.512	4889
2348.505	4850
2350.497	4850
2352.487	4776
2354.478	4907
2356.468	4782
2358.457	4809
2360.446	4763
2362.434	4687
2364.422	4851
2366.408	4740
2368.395	4783
2370.383	4801
2372.369	4766
2374.353	4816
2376.338	4706
2378.321	4789
2380.307	4785
2382.29	4848
2384.272	4749
2386.254	4733
2388.235	4805
2390.218	4777
2392.198	4784
2394.179	4686
2396.157	4717
2398.137	4788
2400.115	4730
2402.095	4734
2404.072	4805
2406.048	4777
2408.026	4742
2410.001	4856
2411.977	4713
2413.953	4818
2415.927	4805
2417.9	4743
2419.875	4733
2421.847	4791
2423.821	4817
2425.792	4681
2427.763	4759
2429.736	4759
2431.706	4782
2433.677	4784
2435.646	4856
2437.615	4737
2439.583	4741
2441.551	4851
2443.519	4794
2445.486	4760
2447.452	4783
2449.418	4752
2451.383	4699
2453.348	4694
2455.314	4813
2457.278	4692
2459.241	4707
2461.205	4665
2463.167	4750
2465.131	4678
2467.091	4706
2469.052	4762
2471.012	4757
2472.972	4795
2474.932	4657
2476.891	4699
2478.85	4759
2480.808	4706
2482.766	4780
2484.722	4724
2486.68	4762
2488.636	4753
2490.591	4787
2492.546	4732
2494.5	4753
2496.456	4705
2498.41	4603
2500.362	4752
2502.315	4715
2504.266	4710
2506.218	4581
2508.169	4580
2510.121	4790
2512.07	4714
2514.019	4705
2515.968	4668
2517.918	4715
2519.866	4716
2521.813	4676
2523.76	4793
2525.707	4697
2527.653	4666
2529.599	4759
2531.543	4666
2533.489	4676
2535.433	4599
2537.376	4631
2539.32	4767
2541.264	4716
2543.205	4688
2545.147	4734
2547.087	4673
2549.029	4682
2550.969	4691
2552.908	4711
2554.847	4693
2556.786	4666
2558.724	4741
2560.663	4623
2562.6	4634
2564.537	4772
2566.473	4723
2568.408	4698
2570.345	4660
2572.28	4761
2574.214	4689
2576.148	4650
2578.081	4639
2580.014	4621
2581.947	4629
2583.879	4697
2585.81	4697
2587.741	4717
2589.67	4676
2591.602	4709
2593.532	4697
2595.461	4678
2597.388	4639
2599.316	4705
2601.244	4645
2603.172	4803
2605.098	4617
2607.023	4717
2608.949	4793
2610.873	4668
2612.8	4691
2614.723	4782
2616.647	4668
2618.569	4745
2620.493	4730
2622.416	4701
2624.338	4768
2626.258	4748
2628.179	4763
2630.099	4775
2632.019	4773
2633.939	4687
2635.857	4806
2637.775	4800
2639.694	4755
2641.61	4816
2643.528	4763
2645.444	4729
2647.361	4841
2649.276	4744
2651.19	4605
2653.105	4727
2655.019	4685
2656.934	4770
2658.846	4823
2660.758	4813
2662.67	4761
2664.583	4787
2666.493	4786
2668.404	4696
2670.313	4695
2672.223	4751
2674.134	4638
2676.042	4765
2677.95	4618
2679.858	4702
2681.765	4674
2683.673	4650
2685.579	4682
2687.483	4771
2689.389	4617
2691.294	4733
2693.198	4730
2695.104	4718
2697.006	4722
2698.909	4664
2700.811	4687
2702.713	4742
2704.615	4802
2706.516	4697
2708.417	4688
2710.316	4677
2712.216	4747
2714.115	4697
2716.014	4728
2717.913	4680
2719.81	4674
2721.707	4756
2723.603	4687
2725.501	4658
2727.396	4619
2729.292	4685
2731.186	4719
2733.081	4750
2734.976	4632
2736.87	4651
2738.762	4601
2740.653	4700
2742.546	4638
2744.437	4728
2746.329	4691
2748.22	4691
2750.11	4666
2751.999	4607
2753.889	4666
2755.778	4631
2757.666	4686
2759.553	4750
2761.44	4680
2763.328	4710
2765.215	4709
2767.101	4629
2768.986	4724
2770.87	4674
2772.754	4666
2774.638	4677
2776.523	4678
2778.405	4678
2780.288	4542
2782.17	4601
2784.051	4654
2785.934	4634
2787.814	4804
2789.694	4683
2791.574	4560
2793.453	4601
2795.332	4716
2797.212	4668
2799.088	4680
2800.966	4681
2802.843	4554
2804.719	4647
2806.597	4584
2808.471	4635
2810.346	4612
2812.221	4606
2814.094	4542
2815.969	4563
2817.843	4610
2819.714	4644
2821.587	4642
2823.459	4650
2825.329	4630
2827.202	4665
2829.072	4570
2830.942	4613
2832.811	4615
2834.68	4605
2836.549	4664
2838.418	4618
2840.284	4636
2842.152	4674
2844.018	4681
2845.885	4642
2847.751	4644
2849.616	4531
2851.482	4595
2853.345	4637
2855.208	4625
2857.074	4644
2858.937	4622
2860.799	4612
2862.66	4698
2864.522	4683
2866.385	4658
2868.245	4648
2870.104	4775
2871.964	4636
2873.824	4812
2875.683	4751
2877.542	4779
2879.4	4785
2881.257	4852
2883.114	4856
2884.97	4834
2886.827	4762
2888.683	4868
2890.537	4865
2892.392	4749
2894.246	4826
2896.1	4796
2897.954	4852
2899.807	4892
2901.66	4847
2903.51	4817
2905.362	4772
2907.214	4852
2909.065	4825
2910.915	4818
2912.765	4837
2914.613	4846
2916.463	4805
2918.311	4913
2920.158	5004
2922.006	4841
2923.853	4908
2925.698	4984
2927.546	5029
2929.392	4983
2931.236	5001
2933.081	5054
2934.924	5018
2936.77	5089
2938.613	5132
2940.455	5011
2942.298	5160
2944.139	5106
2945.982	5206
2947.823	5179
2949.662	5162
2951.503	5118
2953.342	5104
2955.182	5028
2957.021	4981
2958.858	5025
2960.697	5012
2962.534	4992
2964.37	4979
2966.207	5031
2968.044	4943
2969.879	4836
2971.714	4791
2973.548	4875
2975.383	4826
2977.218	4854
2979.051	4875
2980.883	4777
2982.715	4779
2984.547	4798
2986.379	4709
2988.21	4839
2990.04	4742
2991.87	4789
2993.7	4720
2995.53	4736
2997.359	4727
2999.187	4738
3001.015	4689
3002.842	4602
3004.669	4550
3006.497	4544
3008.323	4530
3010.148	4553
3011.974	4486
3013.797	4560
3015.623	4558
3017.447	4529
3019.27	4531
3021.094	4587
3022.915	4497
3024.737	4598
3026.56	4440
3028.38	4533
3030.201	4463
3032.022	4579
3033.84	4479
3035.662	4408
3037.481	4378
3039.298	4500
3041.117	4508
3042.933	4470
3044.752	4452
3046.568	4350
3048.385	4436
3050.2	4471
3052.016	4391
3053.83	4396
3055.646	4511
3057.46	4421
3059.272	4523
3061.086	4399
3062.898	4440
3064.711	4422
3066.524	4485
3068.335	4435
3070.145	4430
3071.956	4446
3073.766	4364
3075.576	4434
3077.385	4452
3079.193	4418
3081.002	4333
3082.81	4402
3084.618	4405
3086.425	4421
3088.231	4401
3090.036	4332
3091.842	4339
3093.648	4310
3095.452	4377
3097.257	4350
3099.06	4251
3100.863	4292
3102.666	4403
3104.47	4288
3106.272	4393
3108.073	4381
3109.875	4256
3111.676	4340
3113.477	4234
3115.277	4358
3117.077	4346
3118.874	4318
3120.673	4342
3122.473	4278
3124.271	4265
3126.066	4346
3127.863	4335
3129.66	4354
3131.456	4186
3133.252	4227
3135.047	4227
3136.842	4230
3138.635	4340
3140.429	4312
3142.223	4192
3144.016	4262
3145.808	4214
3147.6	4238
3149.392	4272
3151.183	4220
3152.975	4262
3154.765	4173
3156.553	4293
3158.344	4235
3160.132	4214
3161.922	4324
3163.71	4223
3165.497	4184
3167.285	4243
3169.071	4259
3170.858	4273
3172.645	4222
3174.429	4219
3176.214	4282
3177.998	4150
3179.783	4196
3181.568	4325
3183.351	4153
3185.133	4233
3186.915	4082
3188.698	4174
3190.481	4158
3192.261	4159
3194.042	4243
3195.822	4195
3197.601	4242
3199.381	4196
3201.161	4269
3202.939	4210
3204.717	4135
3206.495	4205
3208.272	4137
3210.05	4095
3211.826	4140
3213.602	4113
3215.376	4165
3217.151	4082
3218.927	4111
3220.702	4178
3222.476	4141
3224.249	4191
3226.021	4147
3227.793	4173
3229.567	4222
3231.339	4095
3233.109	4143
3234.88	4192
3236.651	4177
3238.421	4189
3240.191	4125
3241.96	4071
3243.728	4150
3245.497	4111
3247.263	4207
3249.033	4157
3250.799	4087
3252.566	4101
3254.331	4169
3256.097	4070
3257.863	4083
3259.628	4066
3261.392	4167
3263.156	4254
3264.919	4072
3266.683	4099
3268.447	4190
3270.208	4104
3271.969	4126
3273.731	4224
3275.492	4115
3277.253	4127
3279.013	4189
3280.773	4160
3282.532	4123
3284.291	4073
3286.05	4188
3287.808	4113
3289.566	4093
3291.323	4114
3293.079	4121
3294.835	4117
3296.593	4083
3298.348	4121
3300.102	4181
3301.857	4189
3303.611	4105
3305.366	4084
3307.119	4150
3308.872	4152
3310.624	4122
3312.376	4139
3314.129	4114
3315.881	4101
3317.631	4084
3319.38	4143
3321.13	4048
3322.88	4143
3324.631	4095
3326.379	4119
3328.126	4172
3329.875	4049
3331.622	4107
3333.371	4058
3335.116	4077
3336.863	4109
3338.609	4107
3340.353	3980
3342.1	4131
3343.845	4091
3345.588	4066
3347.332	4070
3349.074	4101
3350.817	4063
3352.56	4076
3354.303	4066
3356.043	4065
3357.785	4122
3359.525	4067
3361.268	4041
3363.007	4043
3364.745	4111
3366.485	4075
3368.223	4139
3369.962	3982
3371.701	4017
3373.438	4051
3375.174	4061
3376.911	4075
3378.647	4068
3380.384	4052
3382.118	4068
3383.854	3973
3385.588	4062
3387.322	4066
3389.057	4072
3390.79	4018
3392.522	4083
3394.255	4010
3395.987	4103
3397.719	3969
3399.451	4006
3401.181	4037
3402.911	3987
3404.641	4031
3406.371	3904
3408.101	4054
3409.83	4097
3411.558	4010
3413.285	4002
3415.011	4018
3416.739	3983
3418.467	3944
3420.193	4035
3421.919	4006
3423.644	4002
3425.368	3901
3427.094	3925
3428.818	4036
3430.542	3941
3432.264	3924
3433.987	3995
3435.712	3960
3437.434	3931
3439.155	3935
3440.876	4021
3442.596	3870
3444.317	3885
3446.039	4004
3447.757	3921
3449.477	3935
3451.195	3932
3452.914	3955
3454.632	3936
3456.35	3874
3458.067	3988
3459.784	3924
3461.5	3927
3463.216	3962
3464.932	3905
3466.647	3858
3468.362	3855
3470.076	3921
3471.789	3822
3473.505	3890
3475.217	3764
3476.929	3890
3478.641	3848
3480.354	3809
3482.066	3828
3483.777	3871
3485.487	3866
3487.197	3802
3488.908	3737
3490.617	3851
3492.327	3847
3494.035	3920
3495.743	3895
3497.451	3798
3499.158	3815
3500.866	3774
3502.572	3805
3504.278	3774
3505.984	3934
3507.689	3858
3509.396	3833
3511.1	3784
3512.804	3805
3514.508	3848
3516.211	3717
3517.913	3840
3519.616	3870
3521.319	3750
3523.021	3754
3524.722	3731
3526.422	3795
3528.124	3825
3529.824	3751
3531.524	3767
3533.222	3796
3534.921	3797
3536.62	3822
3538.318	3786
3540.016	3763
3541.714	3696
3543.41	3750
3545.107	3775
3546.803	3849
3548.5	3825
3550.194	3800
3551.889	3767
3553.583	3768
3555.279	3795
3556.972	3716
3558.666	3694
3560.358	3793
3562.051	3750
3563.742	3753
3565.435	3751
3567.126	3696
3568.817	3683
3570.507	3757
3572.197	3666
3573.888	3637
3575.577	3619
3577.265	3615
3578.954	3654
3580.642	3641
3582.329	3708
3584.017	3717
3585.704	3643
3587.391	3683
3589.077	3703
3590.762	3656
3592.449	3616
3594.133	3679
3595.817	3605
3597.501	3663
3599.185	3650
3600.869	3673
3602.552	3633
3604.234	3610
3605.916	3654
3607.598	3623
3609.279	3549
3610.961	3620
3612.642	3600
3614.321	3571
3616	3559
3617.68	3607
3619.36	3671
3621.039	3530
3622.716	3598
3624.394	3595
3626.071	3673
3627.748	3568
3629.425	3570
3631.102	3589
3632.778	3615
3634.452	3524
3636.127	3563
3637.803	3542
3639.477	3612
3641.151	3476
3642.823	3596
3644.497	3552
3646.171	3519
3647.842	3600
3649.515	3490
3651.185	3546
3652.857	3492
3654.527	3555
3656.198	3516
3657.868	3467
3659.537	3572
3661.207	3445
3662.875	3511
3664.544	3463
3666.212	3519
3667.879	3514
3669.546	3513
3671.212	3501
3672.88	3529
3674.546	3493
3676.211	3452
3677.875	3557
3679.541	3475
3681.205	3462
3682.87	3483
3684.533	3490
3686.196	3567
3687.859	3498
3689.521	3529
3691.184	3510
3692.845	3493
3694.507	3443
3696.167	3528
3697.827	3520
3699.487	3536
3701.148	3450
3702.808	3463
3704.466	3479
3706.125	3504
3707.783	3417
3709.442	3464
3711.099	3514
3712.757	3416
3714.412	3494
3716.068	3418
3717.725	3446
3719.381	3396
3721.036	3433
3722.689	3461
3724.344	3422
3725.998	3435
3727.652	3376
3729.305	3454
3730.958	3556
3732.61	3437
3734.262	3441
3735.915	3333
3737.565	3446
3739.217	3381
3740.866	3437
3742.516	3367
3744.165	3479
3745.816	3364
3747.464	3494
3749.113	3375
3750.761	3425
3752.409	3296
3754.057	3355
3755.703	3400
3757.35	3387
3758.996	3391
3760.641	3395
3762.289	3398
3763.933	3341
3765.577	3435
3767.222	3367
3768.865	3408
3770.508	3390
3772.152	3326
3773.796	3353
3775.438	3381
3777.079	3351
3778.721	3337
3780.363	3391
3782.003	3342
3783.643	3385
3785.283	3293
3786.923	3326
3788.563	3396
3790.203	3407
3791.841	3304
3793.479	3299
3795.115	3284
3796.753	3362
3798.391	3262
3800.027	3260
3801.664	3322
3803.299	3328
3804.935	3334
3806.571	3336
3808.206	3348
3809.839	3225
3811.473	3280
3813.107	3278
3814.74	3268
3816.375	3298
3818.006	3249
3819.638	3289
3821.27	3312
3822.9	3286
3824.532	3354
3826.163	3260
3827.792	3273
3829.423	3290
3831.051	3315
3832.682	3228
3834.311	3271
3835.938	3290
3837.566	3294
3839.193	3261
3840.821	3227
3842.448	3218
3844.075	3212
3845.7	3268
3847.325	3248
3848.951	3213
3850.576	3239
3852.201	3257
3853.825	3189
3855.448	3169
3857.072	3237
3858.694	3177
3860.318	3202
3861.939	3257
3863.562	3187
3865.183	3209
3866.804	3196
3868.426	3151
3870.045	3198
3871.666	3244
3873.285	3235
3874.904	3176
3876.524	3236
3878.142	3121
3879.76	3165
3881.378	3246
3882.995	3256
3884.612	3171
3886.229	3186
3887.845	3193
3889.461	3114
3891.076	3120
3892.691	3181
3894.307	3255
3895.922	3221
3897.536	3184
3899.149	3154
3900.761	3177
3902.374	3154
3903.988	3217
3905.6	3238
3907.212	3187
3908.822	3092
3910.433	3241
3912.045	3145
3913.655	3200
3915.265	3196
3916.875	3166
3918.483	3155
3920.093	3190
3921.702	3092
3923.309	3133
3924.917	3126
3926.523	3127
3928.13	3154
3929.739	3142
3931.344	3111
3932.95	3126
3934.555	3101
3936.159	3125
3937.766	3190
3939.369	3177
3940.974	3182
3942.577	3116
3944.181	3133
3945.783	3129
3947.386	3168
3948.989	3137
3950.59	3209
3952.191	3121
3953.791	3114
3955.394	3029
3956.994	3103
3958.593	3101
3960.192	3082
3961.791	3098
3963.392	3141
3964.99	3104
3966.588	3059
3968.185	3081
3969.782	3126
3971.379	3085
3972.976	3114
3974.572	3123
3976.168	3097
3977.763	3017
3979.358	3024
3980.954	3060
3982.548	3099
3984.142	3054
3985.736	3114
3987.329	3057
3988.922	3018
3990.516	3008
3992.108	3012
3993.698	3057
3995.29	3012
3996.881	3005
3998.473	2995
4000.064	3019
4001.653	3025
4003.242	3003
4004.832	2948
4006.422	2996
4008.01	3045
4009.598	3019
4011.186	3040
4012.773	3041
4014.36	2987
4015.947	2902
4017.534	3020
4019.119	2991
4020.705	2968
4022.291	2947
4023.876	2940
4025.461	2934
4027.044	2951
4028.627	2976
4030.211	2966
4031.795	2933
4033.378	2940
4034.96	3057
4036.542	2942
4038.124	2872
4039.704	2860
4041.286	2976
4042.867	2858
4044.447	2916
4046.026	2975
4047.606	2934
4049.187	2849
4050.765	3044
4052.343	2880
4053.92	2947
4055.498	2917
4057.076	2945
4058.654	2905
4060.23	2902
4061.806	2951
4063.381	2963
4064.957	2964
4066.533	2953
4068.107	2820
4069.682	2905
4071.256	2902
4072.829	2874
4074.404	2938
4075.977	2898
4077.549	2898
4079.121	2922
4080.693	2852
4082.265	2978
4083.836	2845
4085.407	2926
4086.977	2847
4088.547	2905
4090.117	2872
4091.687	2889
4093.256	2867
4094.825	2816
4096.392	2904
4097.96	2854
4099.528	2903
4101.097	2844
4102.663	2799
4104.229	2847
4105.795	2853
4107.361	2793
4108.928	2845
4110.493	2897
4112.058	2875
4113.621	2869
4115.186	2806
4116.75	2886
4118.313	2879
4119.876	2792
4121.438	2914
4123	2819
4124.562	2836
4126.125	2783
4127.686	2888
4129.246	2771
4130.807	2767
4132.367	2794
4133.927	2845
4135.486	2726
4137.046	2799
4138.604	2840
4140.162	2796
4141.72	2789
4143.279	2801
4144.836	2786
4146.393	2793
4147.949	2790
4149.505	2771
4151.062	2755
4152.617	2736
4154.172	2724
4155.727	2761
4157.281	2753
4158.836	2744
4160.39	2789
4161.943	2740
4163.496	2709
4165.048	2711
4166.601	2745
4168.154	2727
4169.706	2717
4171.257	2744
4172.808	2688
4174.358	2794
4175.909	2729
4177.458	2756
4179.008	2767
4180.558	2700
4182.106	2766
4183.655	2687
4185.204	2638
4186.751	2695
4188.298	2666
4189.845	2647
4191.392	2728
4192.939	2753
4194.485	2761
4196.031	2658
4197.576	2703
4199.121	2715
4200.666	2678
4202.211	2665
4203.754	2717
4205.298	2700
4206.84	2660
4208.384	2582
4209.927	2644
4211.47	2649
4213.011	2690
4214.552	2691
4216.094	2700
4217.635	2637
4219.175	2641
4220.716	2639
4222.255	2652
4223.793	2658
4225.335	2658
4226.873	2605
4228.411	2679
4229.948	2618
4231.486	2670
4233.024	2685
4234.562	2658
4236.098	2633
4237.634	2685
4239.169	2603
4240.705	2640
4242.241	2650
4243.776	2622
4245.31	2638
4246.844	2605
4248.378	2575
4249.911	2548
4251.445	2622
4252.978	2570
4254.51	2580
4256.042	2646
4257.574	2597
4259.107	2680
4260.638	2565
4262.169	2605
4263.699	2603
4265.228	2488
4266.759	2618
4268.289	2640
4269.818	2620
4271.345	2591
4272.874	2551
4274.402	2566
4275.931	2636
4277.458	2589
4278.985	2588
4280.512	2549
4282.037	2579
4283.564	2598
4285.089	2536
4286.615	2609
4288.139	2595
4289.664	2520
4291.187	2584
4292.712	2547
4294.235	2552
4295.759	2604
4297.281	2523
4298.804	2603
4300.327	2526
4301.849	2552
4303.37	2600
4304.891	2537
4306.412	2570
4307.933	2500
4309.453	2532
4310.973	2614
4312.492	2521
