398.1873	7883
400.7097	7875
403.2336	7911
405.7547	7847
408.2751	8021
410.7948	7946
413.3138	8046
415.83	8042
418.3497	8135
420.8666	8175
423.3829	8235
425.8985	8221
428.4133	8352
430.9275	8356
433.441	8446
435.9538	8397
438.4639	8507
440.9753	8357
443.4881	8539
445.9982	8344
448.5055	8421
451.0142	8436
453.5201	8326
456.0274	8509
458.5361	8453
461.04	8504
463.5453	8576
466.0478	8418
468.5517	8662
471.0549	8554
473.5574	8629
476.0572	8575
478.5584	8597
481.0568	8667
483.5545	8684
486.0557	8632
488.5521	8867
491.0478	8731
493.5449	8830
496.0392	8711
498.5349	8935
501.0299	8867
503.5222	8851
506.0139	8966
508.5048	8948
510.9991	8853
513.4887	8921
515.9777	8960
518.4659	9000
520.9534	8973
523.4403	9035
525.9306	8905
528.4161	8938
530.9009	8906
533.3851	9020
535.8687	9062
538.3535	8996
540.8356	8931
543.3171	8892
545.7979	9047
548.278	9019
550.7595	8965
553.2383	9009
555.7144	8921
558.1918	9064
560.6685	9097
563.1446	9013
565.6221	9122
568.0968	9131
570.5688	9118
573.0422	9231
575.515	9209
577.989	9203
580.4584	9198
582.9291	9234
585.3991	9339
587.8685	9331
590.3352	9257
592.8052	9321
595.2706	9267
597.7372	9318
600.2033	9311
602.6666	9349
605.1334	9362
607.5953	9236
610.0587	9275
612.5193	9325
614.9814	9148
617.4427	9230
619.9034	9420
622.3615	9151
624.8208	9233
627.2775	9287
629.7335	9243
632.1929	9246
634.6476	9284
637.1016	9293
639.5569	9372
642.0096	9327
644.4637	9283
646.9151	9396
649.3678	9381
651.8179	9464
654.2672	9369
656.7159	9454
659.166	9518
661.6154	9559
664.0622	9593
666.5082	9512
668.9537	9517
671.4005	9594
673.8445	9431
676.288	9510
678.7308	9687
681.1729	9567
683.6163	9585
686.0572	9603
688.4973	9793
690.9368	9606
693.3757	9646
695.8138	9633
698.2534	9643
700.6902	9807
703.1245	9694
705.56	9745
707.9949	9804
710.4311	9822
712.8647	9715
715.2957	9765
717.7279	9911
720.1595	9951
722.5905	9836
725.0208	9883
727.4505	9897
729.8795	9948
732.3058	10177
734.7336	10003
737.1626	9953
739.587	9968
742.0128	10187
744.4359	9984
746.8604	10101
749.2841	10183
751.7073	10130
754.1278	10127
756.5496	10248
758.9688	10308
761.3893	10119
763.8093	10343
766.2285	10287
768.6451	10367
771.0611	10345
773.4784	10231
775.895	10341
778.3091	10388
780.7244	10409
783.1371	10439
785.5493	10382
787.9626	10574
790.3754	10227
792.7856	10248
795.1951	10447
797.6039	10380
800.0121	10352
802.4236	10369
804.8306	10486
807.2369	10379
809.6425	10566
812.0475	10425
814.4538	10404
816.8575	10530
819.2606	10491
821.663	10525
824.0648	10497
826.4659	10500
828.8683	10476
831.2682	10357
833.6674	10457
836.066	10445
838.4639	10610
840.8632	10665
843.2579	10583
845.6539	10460
848.0493	10528
850.444	10664
852.84	10666
855.2315	10506
857.6243	10625
860.0165	10679
862.4081	10570
864.797	10649
867.1892	10532
869.5789	10486
871.9659	10553
874.3542	10684
876.74	10602
879.129	10473
881.5155	10571
883.8994	10567
886.2845	10531
888.6671	10529
891.051	10525
893.4343	10549
895.8169	10666
898.197	10520
900.5783	10653
902.9571	10811
905.3372	10595
907.7167	10661
910.0936	10742
912.4698	10620
914.8474	10610
917.2244	10847
919.5987	10797
921.9744	10767
924.3475	10838
926.72	10931
929.0918	11042
931.4669	10924
933.8375	10959
936.2074	11010
938.5767	11193
940.9454	11133
943.3154	11217
945.6829	11175
948.0497	11349
950.4178	11584
952.7833	11736
955.1483	12070
957.5145	12175
959.8782	12460
962.2412	12323
964.6036	12305
966.9655	12064
969.3266	11761
971.6871	11477
974.0471	11283
976.4064	11134
978.765	11089
981.125	10868
983.4824	11015
985.8373	10853
988.1935	10885
990.549	10806
992.9039	11050
995.2602	11095
997.6119	10932
999.965	10947
1002.317	10833
1004.667	10937
1007.02	11124
1009.371	10921
1011.719	11026
1014.068	11073
1016.415	11050
1018.765	10953
1021.111	11083
1023.458	10936
1025.804	11102
1028.147	10994
1030.49	10954
1032.837	11228
1035.179	11097
1037.522	11167
1039.862	11063
1042.204	11027
1044.546	11124
1046.884	11334
1049.224	11108
1051.562	11250
1053.899	11089
1056.237	11228
1058.575	11301
1060.91	11121
1063.244	11404
1065.58	11302
1067.913	11107
1070.248	11277
1072.579	11395
1074.911	11407
1077.242	11236
1079.572	11141
1081.905	11387
1084.234	11251
1086.562	11239
1088.89	11120
1091.217	11123
1093.544	11260
1095.871	11300
1098.197	11311
1100.521	11360
1102.845	11322
1105.169	11338
1107.491	11094
1109.814	11379
1112.135	11419
1114.456	11300
1116.776	11121
1119.096	11322
1121.415	11529
1123.734	11459
1126.052	11337
1128.369	11373
1130.686	11308
1133.002	11449
1135.318	11465
1137.632	11278
1139.945	11246
1142.258	11450
1144.573	11411
1146.884	11211
1149.196	11350
1151.505	11614
1153.816	11300
1156.124	11477
1158.435	11332
1160.742	11339
1163.051	11303
1165.356	11329
1167.663	11360
1169.97	11201
1172.276	11466
1174.579	11508
1176.881	11356
1179.186	11277
1181.487	11331
1183.79	11329
1186.092	11479
1188.392	11395
1190.691	11366
1192.991	11336
1195.291	11439
1197.588	11466
1199.885	11446
1202.181	11376
1204.479	11353
1206.775	11340
1209.07	11410
1211.363	11418
1213.656	11513
1215.949	11430
1218.241	11380
1220.534	11424
1222.825	11350
1225.115	11539
1227.405	11695
1229.693	11723
1231.984	11410
1234.271	11561
1236.558	11553
1238.845	11751
1241.131	11726
1243.416	11532
1245.703	11639
1247.987	11639
1250.269	11691
1252.552	11704
1254.834	11560
1257.118	11673
1259.399	11773
1261.678	11813
1263.958	11705
1266.237	11686
1268.516	11748
1270.794	11755
1273.072	11760
1275.347	11742
1277.624	11599
1279.899	11764
1282.175	11736
1284.449	11755
1286.722	11712
1288.995	11625
1291.266	11527
1293.54	11575
1295.81	11619
1298.081	11541
1300.35	11462
1302.62	11654
1304.889	11651
1307.156	11611
1309.425	11636
1311.69	11676
1313.957	11602
1316.222	11643
1318.488	11654
1320.751	11643
1323.016	11522
1325.278	11625
1327.54	11670
1329.803	11729
1332.065	11564
1334.325	11498
1336.584	11540
1338.843	11514
1341.101	11544
1343.36	11704
1345.617	11684
1347.876	11742
1350.131	11661
1352.387	11668
1354.643	11749
1356.897	11606
1359.151	11652
1361.403	11598
1363.656	11562
1365.909	11680
1368.16	11617
1370.409	11672
1372.659	11588
1374.909	11753
1377.157	11686
1379.407	11777
1381.655	11596
1383.9	11888
1386.147	11769
1388.393	11725
1390.64	11878
1392.885	11772
1395.127	11673
1397.37	11880
1399.614	11865
1401.854	11846
1404.098	11711
1406.339	11702
1408.578	11738
1410.818	11885
1413.056	11868
1415.297	11895
1417.533	11847
1419.771	11900
1422.006	11903
1424.243	11939
1426.479	11940
1428.715	12056
1430.948	12021
1433.182	11890
1435.414	12266
1437.647	12162
1439.88	12180
1442.11	12058
1444.342	12039
1446.571	12093
1448.799	11999
1451.029	12131
1453.258	12060
1455.485	12122
1457.711	12191
1459.937	12043
1462.164	12036
1464.39	12036
1466.614	11984
1468.838	11861
1471.06	12020
1473.283	11954
1475.506	11913
1477.727	11819
1479.949	11967
1482.169	11742
1484.389	11943
1486.609	11910
1488.828	11787
1491.045	11630
1493.261	11828
1495.477	11909
1497.693	11839
1499.91	11816
1502.125	11663
1504.339	11780
1506.553	11807
1508.766	11803
1510.979	11714
1513.191	11719
1515.402	11747
1517.613	11915
1519.823	11657
1522.033	11762
1524.242	11891
1526.451	11691
1528.657	11650
1530.865	11720
1533.072	11871
1535.278	11916
1537.484	11740
1539.687	11750
1541.892	11755
1544.096	11669
1546.299	11776
1548.502	11894
1550.703	11907
1552.905	11872
1555.104	11788
1557.303	11959
1559.505	11960
1561.703	11869
1563.902	11997
1566.099	12041
1568.295	12051
1570.494	11948
1572.689	12015
1574.883	12069
1577.079	11870
1579.272	12005
1581.467	12163
1583.659	12180
1585.853	12242
1588.044	12027
1590.234	12336
1592.424	12208
1594.615	12209
1596.806	12109
1598.994	12215
1601.182	12164
1603.369	12264
1605.557	12063
1607.744	12117
1609.929	12140
1612.114	12250
1614.298	12327
1616.482	12152
1618.667	12121
1620.85	12081
1623.032	12126
1625.214	12162
1627.395	12159
1629.575	12394
1631.755	12203
1633.935	12287
1636.114	12374
1638.292	12167
1640.471	12187
1642.647	12306
1644.823	12164
1647	12161
1649.175	12380
1651.348	12177
1653.525	12342
1655.698	12354
1657.87	12279
1660.043	12019
1662.213	12374
1664.387	12377
1666.558	12430
1668.727	12229
1670.896	12311
1673.064	12357
1675.233	12434
1677.401	12341
1679.569	12380
1681.735	12301
1683.902	12369
1686.066	12208
1688.233	12239
1690.397	12168
1692.559	12378
1694.723	12229
1696.885	12250
1699.048	12200
1701.21	12265
1703.37	12195
1705.53	12193
1707.689	12178
1709.849	12162
1712.009	12094
1714.166	12302
1716.323	12117
1718.479	12107
1720.634	12231
1722.793	12138
1724.948	12095
1727.102	12243
1729.255	12187
1731.408	12160
1733.562	12155
1735.714	12295
1737.865	12240
1740.016	12165
1742.166	12275
1744.316	12154
1746.467	12047
1748.616	12240
1750.764	12157
1752.911	12352
1755.056	12299
1757.205	12170
1759.35	12294
1761.496	12283
1763.641	12303
1765.785	12238
1767.927	12451
1770.072	12341
1772.214	12267
1774.355	12215
1776.496	12337
1778.637	12235
1780.778	12358
1782.918	12356
1785.057	12392
1787.194	12409
1789.333	12383
1791.472	12465
1793.608	12448
1795.745	12235
1797.879	12362
1800.015	12208
1802.148	12334
1804.284	12271
1806.417	12509
1808.548	12434
1810.682	12443
1812.812	12532
1814.946	12405
1817.075	12459
1819.205	12434
1821.335	12237
1823.463	12296
1825.59	12470
1827.721	12274
1829.847	12330
1831.973	12229
1834.098	12319
1836.223	12364
1838.351	12263
1840.475	12246
1842.598	12247
1844.721	12385
1846.843	12242
1848.966	12207
1851.087	12270
1853.21	12125
1855.33	12394
1857.449	12336
1859.568	12147
1861.688	12360
1863.806	12191
1865.924	12166
1868.039	12327
1870.155	12152
1872.273	12177
1874.388	12161
1876.503	12327
1878.617	12115
1880.73	12232
1882.844	12252
1884.956	12327
1887.068	12247
1889.18	12364
1891.291	12102
1893.4	12312
1895.511	12272
1897.621	12303
1899.73	12351
1901.837	12298
1903.944	12386
1906.053	12407
1908.159	12412
1910.265	12316
1912.369	12383
1914.474	12309
1916.577	12520
1918.683	12297
1920.785	12396
1922.888	12330
1924.989	12368
1927.091	12561
1929.193	12446
1931.294	12484
1933.393	12340
1935.493	12356
1937.59	12351
1939.689	12554
1941.788	12456
1943.884	12404
1945.98	12434
1948.077	12455
1950.171	12462
1952.267	12473
1954.361	12368
1956.455	12474
1958.548	12409
1960.64	12519
1962.733	12339
1964.824	12373
1966.915	12638
1969.005	12454
1971.096	12450
1973.185	12222
1975.275	12400
1977.363	12434
1979.45	12368
1981.537	12399
1983.623	12408
1985.711	12422
1987.796	12278
1989.881	12380
1991.965	12286
1994.047	12370
1996.132	12391
1998.215	12314
2000.297	12397
2002.378	12246
2004.46	12356
2006.54	12194
2008.62	12382
2010.7	12217
2012.779	12270
2014.858	12257
2016.934	12251
2019.013	12242
2021.09	12157
2023.165	12359
2025.241	12447
2027.317	12342
2029.39	12299
2031.466	12212
2033.538	12475
2035.612	12342
2037.683	12366
2039.755	12334
2041.827	12437
2043.898	12300
2045.968	12248
2048.038	12381
2050.106	12294
2052.177	12288
2054.244	12286
2056.313	12368
2058.379	12301
2060.444	12313
2062.511	12299
2064.577	12430
2066.641	12262
2068.705	12288
2070.77	12453
2072.832	12295
2074.896	12477
2076.958	12224
2079.02	12455
2081.081	12336
2083.141	12234
2085.2	12491
2087.261	12475
2089.319	12366
2091.377	12176
2093.435	12322
2095.492	12352
2097.552	12218
2099.607	12268
2101.663	12419
2103.718	12405
2105.771	12412
2107.826	12421
2109.879	12314
2111.932	12408
2113.985	12306
2116.037	12273
2118.088	12311
2120.141	12225
2122.191	12388
2124.239	12185
2126.288	12385
2128.337	12305
2130.387	12298
2132.434	12284
2134.481	12188
2136.528	12408
2138.574	12236
2140.618	12244
2142.665	12191
2144.71	12414
2146.753	12279
2148.797	12443
2150.838	12302
2152.883	12288
2154.923	12269
2156.965	12382
2159.007	12039
2161.046	12258
2163.086	12176
2165.126	12444
2167.163	12129
2169.202	12246
2171.239	12255
2173.277	12117
2175.314	12032
2177.349	12231
2179.385	12141
2181.42	12057
2183.453	12084
2185.49	12039
2187.522	12017
2189.555	12068
2191.586	12117
2193.619	12041
2195.651	12114
2197.682	11926
2199.711	12002
2201.74	12073
2203.769	12051
2205.799	11977
2207.828	11973
2209.855	11911
2211.882	12097
2213.908	12070
2215.934	12104
2217.961	11982
2219.986	11961
2222.01	11932
2224.034	11978
2226.057	11881
2228.08	11996
2230.104	11860
2232.124	12030
2234.145	11893
2236.166	12007
2238.186	11925
2240.207	11889
2242.227	12027
2244.244	11868
2246.262	11911
2248.28	11799
2250.299	11892
2252.314	11850
2254.33	12235
2256.346	11898
2258.36	12007
2260.375	11899
2262.391	12005
2264.403	11957
2266.416	11941
2268.427	11958
2270.44	12032
2272.453	12037
2274.463	11965
2276.474	12112
2278.483	11983
2280.493	12160
2282.501	12055
2284.51	11870
2286.518	11961
2288.524	11948
2290.532	11981
2292.537	11927
2294.544	11878
2296.55	11959
2298.554	11787
2300.557	12096
2302.562	11925
2304.566	11909
2306.568	11929
2308.569	11907
2310.572	11927
2312.573	11862
2314.573	11933
2316.574	11874
2318.573	12092
2320.571	11856
2322.571	11918
2324.569	11838
2326.567	11860
2328.564	11938
2330.56	11903
2332.556	11961
2334.551	11764
2336.546	11827
2338.542	11903
2340.535	11737
2342.529	11867
2344.521	11841
2346.512	11596
2348.505	11822
2350.497	11815
2352.487	11766
2354.478	11773
2356.468	11594
2358.457	11880
2360.446	11727
2362.434	11610
2364.422	11744
2366.408	11752
2368.395	11707
2370.383	11753
2372.369	11623
2374.353	11648
2376.338	11509
2378.321	11669
2380.307	11651
2382.29	11681
2384.272	11561
2386.254	11591
2388.235	11496
2390.218	11618
2392.198	11514
2394.179	11627
2396.157	11528
2398.137	11692
2400.115	11650
2402.095	11643
2404.072	11592
2406.048	11548
2408.026	11573
2410.001	11592
2411.977	11453
2413.953	11557
2415.927	11693
2417.9	11574
2419.875	11452
2421.847	11552
2423.821	11533
2425.792	11517
2427.763	11591
2429.736	11492
2431.706	11607
2433.677	11470
2435.646	11616
2437.615	11450
2439.583	11478
2441.551	11700
2443.519	11465
2445.486	11452
2447.452	11584
2449.418	11407
2451.383	11542
2453.348	11518
2455.314	11426
2457.278	11443
2459.241	11542
2461.205	11382
2463.167	11382
2465.131	11504
2467.091	11583
2469.052	11282
2471.012	11370
2472.972	11401
2474.932	11373
2476.891	11376
2478.85	11501
2480.808	11443
2482.766	11334
2484.722	11309
2486.68	11456
2488.636	11489
2490.591	11339
2492.546	11374
2494.5	11420
2496.456	11344
2498.41	11293
2500.362	11297
2502.315	11288
2504.266	11343
2506.218	11487
2508.169	11341
2510.121	11286
2512.07	11432
2514.019	11364
2515.968	11390
2517.918	11267
2519.866	11392
2521.813	11369
2523.76	11331
2525.707	11329
2527.653	11338
2529.599	11282
2531.543	11324
2533.489	11324
2535.433	11143
2537.376	11363
2539.32	11467
2541.264	11103
2543.205	11255
2545.147	11311
2547.087	11269
2549.029	11338
2550.969	11401
2552.908	11255
2554.847	11202
2556.786	11214
2558.724	11347
2560.663	11096
2562.6	11232
2564.537	11230
2566.473	11274
2568.408	11410
2570.345	11320
2572.28	11411
2574.214	11271
2576.148	11286
2578.081	11195
2580.014	11382
2581.947	11191
2583.879	11198
2585.81	11318
2587.741	11256
2589.67	11308
2591.602	11382
2593.532	11455
2595.461	11337
2597.388	11170
2599.316	11347
2601.244	11197
2603.172	11318
2605.098	11266
2607.023	11284
2608.949	11239
2610.873	11382
2612.8	11322
2614.723	11238
2616.647	11335
2618.569	11472
2620.493	11295
2622.416	11440
2624.338	11291
2626.258	11389
2628.179	11397
2630.099	11246
2632.019	11294
2633.939	11251
2635.857	11412
2637.775	11388
2639.694	11312
2641.61	11397
2643.528	11397
2645.444	11297
2647.361	11335
2649.276	11257
2651.19	11379
2653.105	11314
2655.019	11324
2656.934	11377
2658.846	11205
2660.758	11251
2662.67	11264
2664.583	11193
2666.493	11292
2668.404	11217
2670.313	11338
2672.223	11303
2674.134	11264
2676.042	11132
2677.95	11234
2679.858	11111
2681.765	11100
2683.673	11234
2685.579	11267
2687.483	11252
2689.389	11308
2691.294	11098
2693.198	11209
2695.104	11212
2697.006	11132
2698.909	11048
2700.811	11121
2702.713	11234
2704.615	11143
2706.516	10898
2708.417	11190
2710.316	11153
2712.216	10995
2714.115	11177
2716.014	11016
2717.913	10835
2719.81	11026
2721.707	10823
2723.603	11084
2725.501	10938
2727.396	11016
2729.292	10934
2731.186	11047
2733.081	10972
2734.976	10961
2736.87	11036
2738.762	10946
2740.653	10941
2742.546	10966
2744.437	10953
2746.329	10850
2748.22	10968
2750.11	11089
2751.999	11010
2753.889	10943
2755.778	11008
2757.666	11034
2759.553	11125
2761.44	10911
2763.328	10989
2765.215	11053
2767.101	11035
2768.986	11014
2770.87	10795
2772.754	10861
2774.638	10849
2776.523	10888
2778.405	10956
2780.288	10880
2782.17	10977
2784.051	10847
2785.934	10945
2787.814	10855
2789.694	10815
2791.574	10834
2793.453	10942
2795.332	11088
2797.212	10918
2799.088	10840
2800.966	10924
2802.843	10860
2804.719	10887
2806.597	10849
2808.471	10678
2810.346	10923
2812.221	10898
2814.094	10846
2815.969	10789
2817.843	10779
2819.714	10806
2821.587	10840
2823.459	10718
2825.329	10728
2827.202	10788
2829.072	10737
2830.942	10730
2832.811	10706
2834.68	10810
2836.549	10814
2838.418	10786
2840.284	10727
2842.152	10637
2844.018	10807
2845.885	10714
2847.751	10718
2849.616	10844
2851.482	10871
2853.345	10646
2855.208	10764
2857.074	10845
2858.937	10853
2860.799	10826
2862.66	10758
2864.522	10795
2866.385	10856
2868.245	11014
2870.104	10966
2871.964	11007
2873.824	10867
2875.683	11076
2877.542	11043
2879.4	11078
2881.257	11097
2883.114	11220
2884.97	11290
2886.827	11087
2888.683	11171
2890.537	11150
2892.392	11103
2894.246	11211
2896.1	11105
2897.954	10949
2899.807	11108
2901.66	11027
2903.51	11155
2905.362	11071
2907.214	10960
2909.065	10922
2910.915	11200
2912.765	11051
2914.613	11121
2916.463	11339
2918.311	11351
2920.158	11245
2922.006	11271
2923.853	11294
2925.698	11365
2927.546	11443
2929.392	11470
2931.236	11542
2933.081	11685
2934.924	11567
2936.77	11599
2938.613	11519
2940.455	11777
2942.298	11568
2944.139	11481
2945.982	11757
2947.823	11628
2949.662	11556
2951.503	11639
2953.342	11639
2955.182	11539
2957.021	11353
2958.858	11509
2960.697	11292
2962.534	11273
2964.37	11340
2966.207	11269
2968.044	11194
2969.879	11159
2971.714	10974
2973.548	11081
2975.383	10990
2977.218	10928
2979.051	11135
2980.883	10830
2982.715	11004
2984.547	11011
2986.379	10913
2988.21	10963
2990.04	10852
2991.87	10859
2993.7	10728
2995.53	10723
2997.359	10896
2999.187	10840
3001.015	10658
3002.842	10683
3004.669	10669
3006.497	10435
3008.323	10619
3010.148	10454
3011.974	10495
3013.797	10567
3015.623	10252
3017.447	10425
3019.27	10357
3021.094	10414
3022.915	10457
3024.737	10215
3026.56	10190
3028.38	10487
3030.201	10179
3032.022	10319
3033.84	10189
3035.662	10251
3037.481	10203
3039.298	10261
3041.117	10239
3042.933	10195
3044.752	10060
3046.568	10055
3048.385	10228
3050.2	10286
3052.016	10098
3053.83	10056
3055.646	10213
3057.46	10228
3059.272	10177
3061.086	10134
3062.898	10251
3064.711	10054
3066.524	10169
3068.335	10111
3070.145	9991
3071.956	10096
3073.766	9960
3075.576	10144
3077.385	10062
3079.193	10042
3081.002	9985
3082.81	9892
3084.618	9992
3086.425	9803
3088.231	9960
3090.036	9999
3091.842	9814
3093.648	9857
3095.452	9893
3097.257	9835
3099.06	9842
3100.863	9694
3102.666	9887
3104.47	9853
3106.272	9704
3108.073	9851
3109.875	9806
3111.676	9865
3113.477	9709
3115.277	9912
3117.077	9850
3118.874	9822
3120.673	9862
3122.473	9868
3124.271	9780
3126.066	9627
3127.863	10004
3129.66	9742
3131.456	9713
3133.252	9626
3135.047	9646
3136.842	9617
3138.635	9646
3140.429	9618
3142.223	9636
3144.016	9756
3145.808	9587
3147.6	9657
3149.392	9757
3151.183	9597
3152.975	9661
3154.765	9579
3156.553	9519
3158.344	9616
3160.132	9648
3161.922	9632
3163.71	9453
3165.497	9592
3167.285	9754
3169.071	9363
3170.858	9386
3172.645	9558
3174.429	9505
3176.214	9537
3177.998	9624
3179.783	9553
3181.568	9487
3183.351	9505
3185.133	9322
3186.915	9342
3188.698	9371
3190.481	9427
3192.261	9362
3194.042	9456
3195.822	9471
3197.601	9424
3199.381	9495
3201.161	9459
3202.939	9407
3204.717	9266
3206.495	9459
3208.272	9428
3210.05	9310
3211.826	9493
3213.602	9376
3215.376	9374
3217.151	9421
3218.927	9299
3220.702	9297
3222.476	9440
3224.249	9441
3226.021	9363
3227.793	9655
3229.567	9250
3231.339	9324
3233.109	9291
3234.88	9196
3236.651	9483
3238.421	9304
3240.191	9319
3241.96	9270
3243.728	9397
3245.497	9285
3247.263	9398
3249.033	9358
3250.799	9329
3252.566	9291
3254.331	9247
3256.097	9344
3257.863	9296
3259.628	9192
3261.392	9391
3263.156	9300
3264.919	9310
3266.683	9202
3268.447	9138
3270.208	9318
3271.969	9437
3273.731	9309
3275.492	9351
3277.253	9244
3279.013	9243
3280.773	9257
3282.532	9425
3284.291	9336
3286.05	9267
3287.808	9075
3289.566	9269
3291.323	9213
3293.079	9320
3294.835	9058
3296.593	9224
3298.348	9133
3300.102	9185
3301.857	9372
3303.611	9194
3305.366	9260
3307.119	9307
3308.872	9207
3310.624	9235
3312.376	9211
3314.129	9137
3315.881	9165
3317.631	9156
3319.38	9211
3321.13	9221
3322.88	9242
3324.631	9165
3326.379	9069
3328.126	9165
3329.875	9079
3331.622	9227
3333.371	9042
3335.116	9267
3336.863	9067
3338.609	9028
3340.353	9156
3342.1	9150
3343.845	9039
3345.588	9100
3347.332	8977
3349.074	9024
3350.817	9054
3352.56	9146
3354.303	9121
3356.043	9151
3357.785	9109
3359.525	8995
3361.268	9074
3363.007	9158
3364.745	8991
3366.485	9090
3368.223	9056
3369.962	9129
3371.701	8992
3373.438	8907
3375.174	8989
3376.911	9031
3378.647	9080
3380.384	8918
3382.118	8943
3383.854	8869
3385.588	8979
3387.322	8928
3389.057	8993
3390.79	8883
3392.522	8919
3394.255	8873
3395.987	8752
3397.719	8778
3399.451	8954
3401.181	8954
3402.911	8803
3404.641	8805
3406.371	8760
3408.101	8949
3409.83	8786
3411.558	8800
3413.285	8845
3415.011	8803
3416.739	8863
3418.467	8731
3420.193	8839
3421.919	8888
3423.644	8910
3425.368	8852
3427.094	8743
3428.818	8756
3430.542	8688
3432.264	8698
3433.987	8741
3435.712	8760
3437.434	8689
3439.155	8683
3440.876	8705
3442.596	8620
3444.317	8680
3446.039	8668
3447.757	8557
3449.477	8634
3451.195	8719
3452.914	8743
3454.632	8618
3456.35	8589
3458.067	8494
3459.784	8557
3461.5	8613
3463.216	8684
3464.932	8426
3466.647	8593
3468.362	8480
3470.076	8586
3471.789	8522
3473.505	8595
3475.217	8559
3476.929	8602
3478.641	8533
3480.354	8463
3482.066	8309
3483.777	8561
3485.487	8389
3487.197	8400
3488.908	8321
3490.617	8412
3492.327	8305
3494.035	8342
3495.743	8386
3497.451	8490
3499.158	8482
3500.866	8504
3502.572	8426
3504.278	8512
3505.984	8320
3507.689	8264
3509.396	8421
3511.1	8412
3512.804	8287
3514.508	8322
3516.211	8307
3517.913	8278
3519.616	8330
3521.319	8253
3523.021	8401
3524.722	8299
3526.422	8192
3528.124	8247
3529.824	8329
3531.524	8250
3533.222	8218
3534.921	8172
3536.62	8256
3538.318	8240
3540.016	8325
3541.714	8166
3543.41	8351
3545.107	8164
3546.803	8218
3548.5	8129
3550.194	8307
3551.889	8235
3553.583	8239
3555.279	8239
3556.972	8186
3558.666	8257
3560.358	8092
3562.051	8273
3563.742	8057
3565.435	8032
3567.126	8052
3568.817	8260
3570.507	8148
3572.197	8045
3573.888	8228
3575.577	8081
3577.265	8085
3578.954	8028
3580.642	8113
3582.329	8072
3584.017	8024
3585.704	8138
3587.391	8002
3589.077	7988
3590.762	7928
3592.449	7958
3594.133	7997
3595.817	8068
3597.501	7961
3599.185	7879
3600.869	7928
3602.552	8040
3604.234	7907
3605.916	7942
3607.598	7831
3609.279	7915
3610.961	7768
3612.642	7957
3614.321	7748
3616	7683
3617.68	7828
3619.36	7823
3621.039	7836
3622.716	7872
3624.394	7791
3626.071	7731
3627.748	7720
3629.425	7660
3631.102	7815
3632.778	7767
3634.452	7730
3636.127	7812
3637.803	7769
3639.477	7761
3641.151	7783
3642.823	7726
3644.497	7720
3646.171	7744
3647.842	7678
3649.515	7600
3651.185	7637
3652.857	7682
3654.527	7682
3656.198	7659
3657.868	7591
3659.537	7583
3661.207	7543
3662.875	7622
3664.544	7573
3666.212	7677
3667.879	7652
3669.546	7570
3671.212	7469
3672.88	7764
3674.546	7512
3676.211	7703
3677.875	7638
3679.541	7593
3681.205	7592
3682.87	7548
3684.533	7572
3686.196	7464
3687.859	7505
3689.521	7547
3691.184	7546
3692.845	7576
3694.507	7492
3696.167	7580
3697.827	7566
3699.487	7477
3701.148	7436
3702.808	7499
3704.466	7409
3706.125	7497
3707.783	7427
3709.442	7390
3711.099	7420
3712.757	7496
3714.412	7481
3716.068	7512
3717.725	7368
3719.381	7528
3721.036	7419
3722.689	7347
3724.344	7464
3725.998	7521
3727.652	7379
3729.305	7371
3730.958	7392
3732.61	7454
3734.262	7346
3735.915	7412
3737.565	7359
3739.217	7395
3740.866	7237
3742.516	7326
3744.165	7335
3745.816	7256
3747.464	7404
3749.113	7398
3750.761	7336
3752.409	7336
3754.057	7380
3755.703	7362
3757.35	7392
3758.996	7242
3760.641	7309
3762.289	7377
3763.933	7346
3765.577	7261
3767.222	7213
3768.865	7227
3770.508	7209
3772.152	7196
3773.796	7170
3775.438	7194
3777.079	7153
3778.721	7260
3780.363	7216
3782.003	7199
3783.643	7173
3785.283	7240
3786.923	7114
3788.563	7106
3790.203	7107
3791.841	7210
3793.479	7236
3795.115	7243
3796.753	7029
3798.391	7188
3800.027	7118
3801.664	7172
3803.299	7046
3804.935	7072
3806.571	7181
3808.206	7183
3809.839	6993
3811.473	7090
3813.107	7081
3814.74	7078
3816.375	7127
3818.006	6973
3819.638	6958
3821.27	7028
3822.9	6982
3824.532	6995
3826.163	6888
3827.792	7005
3829.423	7033
3831.051	7001
3832.682	7035
3834.311	7056
3835.938	7094
3837.566	6848
3839.193	6861
3840.821	6905
3842.448	6889
3844.075	7116
3845.7	6886
3847.325	6837
3848.951	6836
3850.576	6960
3852.201	6857
3853.825	6873
3855.448	7013
3857.072	6969
3858.694	7056
3860.318	6907
3861.939	6944
3863.562	6891
3865.183	6817
3866.804	6848
3868.426	6887
3870.045	6776
3871.666	6784
3873.285	6853
3874.904	6802
3876.524	6735
3878.142	6886
3879.76	6834
3881.378	6716
3882.995	6783
3884.612	6846
3886.229	6944
3887.845	6654
3889.461	6715
3891.076	6697
3892.691	6707
3894.307	6800
3895.922	6719
3897.536	6778
3899.149	6809
3900.761	6677
3902.374	6737
3903.988	6775
3905.6	6772
3907.212	6754
3908.822	6680
3910.433	6688
3912.045	6779
3913.655	6701
3915.265	6775
3916.875	6798
3918.483	6766
3920.093	6665
3921.702	6658
3923.309	6629
3924.917	6600
3926.523	6676
3928.13	6702
3929.739	6598
3931.344	6608
3932.95	6730
3934.555	6672
3936.159	6675
3937.766	6678
3939.369	6600
3940.974	6589
3942.577	6644
3944.181	6689
3945.783	6666
3947.386	6553
3948.989	6568
3950.59	6612
3952.191	6624
3953.791	6627
3955.394	6604
3956.994	6613
3958.593	6663
3960.192	6551
3961.791	6667
3963.392	6535
3964.99	6522
3966.588	6533
3968.185	6637
3969.782	6493
3971.379	6474
3972.976	6538
3974.572	6504
3976.168	6479
3977.763	6430
3979.358	6501
3980.954	6466
3982.548	6492
3984.142	6378
3985.736	6472
3987.329	6378
3988.922	6419
3990.516	6409
3992.108	6346
3993.698	6233
3995.29	6369
3996.881	6456
3998.473	6393
4000.064	6330
4001.653	6270
4003.242	6378
4004.832	6414
4006.422	6365
4008.01	6368
4009.598	6296
4011.186	6396
4012.773	6284
4014.36	6263
4015.947	6124
4017.534	6283
4019.119	6307
4020.705	6172
4022.291	6302
4023.876	6188
4025.461	6246
4027.044	6304
4028.627	6286
4030.211	6235
4031.795	6198
4033.378	6139
4034.96	6318
4036.542	6189
4038.124	6221
4039.704	6165
4041.286	6141
4042.867	6245
4044.447	6185
4046.026	6136
4047.606	6145
4049.187	6037
4050.765	6088
4052.343	6144
4053.92	6094
4055.498	6036
4057.076	6016
4058.654	6066
4060.23	6132
4061.806	6006
4063.381	6012
4064.957	6131
4066.533	5977
4068.107	6090
4069.682	6110
4071.256	6000
4072.829	5952
4074.404	6031
4075.977	5988
4077.549	6153
4079.121	5931
4080.693	6019
4082.265	6095
4083.836	6031
4085.407	5926
4086.977	5915
4088.547	5983
4090.117	5961
4091.687	6019
4093.256	5857
4094.825	5982
4096.392	5907
4097.96	5901
4099.528	5886
4101.097	5879
4102.663	5964
4104.229	5897
4105.795	5972
4107.361	5972
4108.928	5948
4110.493	5923
4112.058	5987
4113.621	5871
4115.186	5951
4116.75	5898
4118.313	5777
4119.876	5900
4121.438	5937
4123	5802
4124.562	5861
4126.125	5805
4127.686	5784
4129.246	5924
4130.807	5850
4132.367	5815
4133.927	5837
4135.486	5695
4137.046	5749
4138.604	5761
4140.162	5657
4141.72	5740
4143.279	5713
4144.836	5772
4146.393	5813
4147.949	5706
4149.505	5668
4151.062	5745
4152.617	5697
4154.172	5714
4155.727	5641
4157.281	5665
4158.836	5760
4160.39	5644
4161.943	5727
4163.496	5608
4165.048	5740
4166.601	5664
4168.154	5660
4169.706	5616
4171.257	5686
4172.808	5582
4174.358	5682
4175.909	5582
4177.458	5469
4179.008	5562
4180.558	5663
4182.106	5666
4183.655	5661
4185.204	5553
4186.751	5602
4188.298	5636
4189.845	5486
4191.392	5584
4192.939	5625
4194.485	5511
4196.031	5587
4197.576	5495
4199.121	5470
4200.666	5506
4202.211	5538
4203.754	5533
4205.298	5502
4206.84	5385
4208.384	5490
4209.927	5436
4211.47	5435
4213.011	5441
4214.552	5540
4216.094	5428
4217.635	5462
4219.175	5534
4220.716	5524
4222.255	5446
4223.793	5440
4225.335	5394
4226.873	5465
4228.411	5475
4229.948	5320
4231.486	5335
4233.024	5392
4234.562	5420
4236.098	5321
4237.634	5339
4239.169	5357
4240.705	5424
4242.241	5387
4243.776	5396
4245.31	5304
4246.844	5373
4248.378	5334
4249.911	5412
4251.445	5375
4252.978	5341
4254.51	5366
4256.042	5295
4257.574	5349
4259.107	5316
4260.638	5265
4262.169	5340
4263.699	5422
4265.228	5288
4266.759	5287
4268.289	5324
4269.818	5337
4271.345	5281
4272.874	5226
4274.402	5330
4275.931	5222
4277.458	5256
4278.985	5297
4280.512	5297
4282.037	5247
4283.564	5276
4285.089	5251
4286.615	5235
4288.139	5335
4289.664	5157
4291.187	5212
4292.712	5258
4294.235	5152
4295.759	5266
4297.281	5209
4298.804	5149
4300.327	5253
4301.849	5167
4303.37	5250
4304.891	5228
4306.412	5251
4307.933	5208
4309.453	5108
4310.973	5071
4312.492	5122
