398.1873	2841
400.7097	2888
403.2336	2952
405.7547	2917
408.2751	2900
410.7948	2911
413.3138	2937
415.83	2985
418.3497	2982
420.8666	3074
423.3829	3029
425.8985	3079
428.4133	3077
430.9275	3203
433.441	3055
435.9538	3143
438.4639	3049
440.9753	3084
443.4881	3145
445.9982	3072
448.5055	3137
451.0142	3109
453.5201	3111
456.0274	3127
458.5361	3134
461.04	3118
463.5453	3137
466.0478	3073
468.5517	3073
471.0549	3092
473.5574	3170
476.0572	3018
478.5584	3085
481.0568	3013
483.5545	3082
486.0557	3147
488.5521	3136
491.0478	3153
493.5449	3079
496.0392	3151
498.5349	3147
501.0299	3113
503.5222	3191
506.0139	3197
508.5048	3186
510.9991	3192
513.4887	3230
515.9777	3134
518.4659	3186
520.9534	3184
523.4403	3238
525.9306	3196
528.4161	3277
530.9009	3208
533.3851	3168
535.8687	3200
538.3535	3266
540.8356	3210
543.3171	3178
545.7979	3187
548.278	3238
550.7595	3272
553.2383	3142
555.7144	3202
558.1918	3210
560.6685	3293
563.1446	3220
565.6221	3301
568.0968	3241
570.5688	3298
573.0422	3213
575.515	3362
577.989	3311
580.4584	3261
582.9291	3393
585.3991	3414
587.8685	3289
590.3352	3392
592.8052	3314
595.2706	3355
597.7372	3232
600.2033	3378
602.6666	3329
605.1334	3291
607.5953	3304
610.0587	3348
612.5193	3321
614.9814	3330
617.4427	3330
619.9034	3286
622.3615	3306
624.8208	3324
627.2775	3280
629.7335	3285
632.1929	3289
634.6476	3319
637.1016	3250
639.5569	3322
642.0096	3304
644.4637	3327
646.9151	3273
649.3678	3382
651.8179	3332
654.2672	3347
656.7159	3283
659.166	3305
661.6154	3368
664.0622	3352
666.5082	3389
668.9537	3319
671.4005	3344
673.8445	3377
676.288	3346
678.7308	3382
681.1729	3353
683.6163	3429
686.0572	3434
688.4973	3384
690.9368	3410
693.3757	3412
695.8138	3339
698.2534	3486
700.6902	3351
703.1245	3364
705.56	3457
707.9949	3502
710.4311	3405
712.8647	3422
715.2957	3513
717.7279	3476
720.1595	3445
722.5905	3475
725.0208	3514
727.4505	3499
729.8795	3434
732.3058	3499
734.7336	3460
737.1626	3488
739.587	3467
742.0128	3578
744.4359	3581
746.8604	3565
749.2841	3519
751.7073	3553
754.1278	3628
756.5496	3532
758.9688	3610
761.3893	3592
763.8093	3664
766.2285	3633
768.6451	3685
771.0611	3600
773.4784	3613
775.895	3670
778.3091	3658
780.7244	3644
783.1371	3592
785.5493	3692
787.9626	3581
790.3754	3615
792.7856	3680
795.1951	3696
797.6039	3653
800.0121	3686
802.4236	3638
804.8306	3752
807.2369	3588
809.6425	3590
812.0475	3671
814.4538	3693
816.8575	3700
819.2606	3591
821.663	3604
824.0648	3675
826.4659	3675
828.8683	3648
831.2682	3736
833.6674	3658
836.066	3620
838.4639	3661
840.8632	3656
843.2579	3703
845.6539	3769
848.0493	3696
850.444	3752
852.84	3760
855.2315	3698
857.6243	3703
860.0165	3763
862.4081	3664
864.797	3793
867.1892	3834
869.5789	3716
871.9659	3731
874.3542	3797
876.74	3723
879.129	3754
881.5155	3754
883.8994	3733
886.2845	3746
888.6671	3740
891.051	3685
893.4343	3793
895.8169	3752
898.197	3648
900.5783	3777
902.9571	3802
905.3372	3781
907.7167	3778
910.0936	3852
912.4698	3740
914.8474	3820
917.2244	3830
919.5987	3831
921.9744	3832
924.3475	3858
926.72	3888
929.0918	3917
931.4669	3848
933.8375	3894
936.2074	3897
938.5767	3977
940.9454	3963
943.3154	4105
945.6829	4028
948.0497	4174
950.4178	4328
952.7833	4493
955.1483	4620
957.5145	4769
959.8782	4789
962.2412	4773
964.6036	4652
966.9655	4565
969.3266	4375
971.6871	4247
974.0471	3991
976.4064	4052
978.765	3981
981.125	4021
983.4824	3817
985.8373	3878
988.1935	3893
990.549	3919
992.9039	3835
995.2602	3860
997.6119	3877
999.965	3975
1002.317	3857
1004.667	3862
1007.02	3891
1009.371	3946
1011.719	3929
1014.068	3850
1016.415	3906
1018.765	3900
1021.111	3908
1023.458	3871
1025.804	3961
1028.147	3841
1030.49	3921
1032.837	4027
1035.179	3972
1037.522	3993
1039.862	3904
1042.204	4083
1044.546	4033
1046.884	4024
1049.224	3981
1051.562	4029
1053.899	4006
1056.237	3964
1058.575	4016
1060.91	3970
1063.244	4160
1065.58	3971
1067.913	4109
1070.248	4046
1072.579	4157
1074.911	4081
1077.242	4035
1079.572	4002
1081.905	4036
1084.234	4049
1086.562	4001
1088.89	3889
1091.217	4037
1093.544	4049
1095.871	3942
1098.197	3943
1100.521	3980
1102.845	3946
1105.169	3892
1107.491	4056
1109.814	3955
1112.135	3997
1114.456	3979
1116.776	3926
1119.096	3972
1121.415	3916
1123.734	3976
1126.052	3977
1128.369	4040
1130.686	4089
1133.002	4060
1135.318	3942
1137.632	4059
1139.945	3946
1142.258	3987
1144.573	3985
1146.884	4054
1149.196	3984
1151.505	4035
1153.816	4032
1156.124	3993
1158.435	4054
1160.742	4011
1163.051	3972
1165.356	4006
1167.663	4039
1169.97	4024
1172.276	4068
1174.579	3978
1176.881	4046
1179.186	4067
1181.487	4104
1183.79	3944
1186.092	3945
1188.392	4042
1190.691	3992
1192.991	3928
1195.291	4059
1197.588	3980
1199.885	3984
1202.181	4019
1204.479	4053
1206.775	3991
1209.07	4114
1211.363	4019
1213.656	3941
1215.949	4110
1218.241	4160
1220.534	4013
1222.825	4052
1225.115	4104
1227.405	4111
1229.693	4066
1231.984	4104
1234.271	4106
1236.558	4114
1238.845	4056
1241.131	4130
1243.416	4072
1245.703	4107
1247.987	4129
1250.269	4129
1252.552	4193
1254.834	4217
1257.118	4199
1259.399	4117
1261.678	4142
1263.958	4121
1266.237	4172
1268.516	4122
1270.794	4154
1273.072	4100
1275.347	4096
1277.624	4110
1279.899	4190
1282.175	4132
1284.449	4169
1286.722	4153
1288.995	4114
1291.266	4199
1293.54	4101
1295.81	4174
1298.081	4012
1300.35	4050
1302.62	4089
1304.889	4096
1307.156	4158
1309.425	4105
1311.69	4045
1313.957	4193
1316.222	4159
1318.488	4153
1320.751	4064
1323.016	4069
1325.278	4051
1327.54	4161
1329.803	4122
1332.065	4116
1334.325	4133
1336.584	4050
1338.843	4137
1341.101	4091
1343.36	4144
1345.617	4164
1347.876	4170
1350.131	4124
1352.387	4138
1354.643	4193
1356.897	4069
1359.151	4132
1361.403	4165
1363.656	4122
1365.909	4150
1368.16	4224
1370.409	4208
1372.659	4176
1374.909	4121
1377.157	4103
1379.407	4182
1381.655	4164
1383.9	4145
1386.147	4213
1388.393	4152
1390.64	4231
1392.885	4151
1395.127	4201
1397.37	4168
1399.614	4237
1401.854	4247
1404.098	4177
1406.339	4197
1408.578	4188
1410.818	4266
1413.056	4230
1415.297	4253
1417.533	4267
1419.771	4226
1422.006	4173
1424.243	4234
1426.479	4301
1428.715	4278
1430.948	4366
1433.182	4322
1435.414	4196
1437.647	4329
1439.88	4340
1442.11	4235
1444.342	4309
1446.571	4315
1448.799	4282
1451.029	4389
1453.258	4294
1455.485	4386
1457.711	4354
1459.937	4347
1462.164	4336
1464.39	4245
1466.614	4264
1468.838	4290
1471.06	4354
1473.283	4325
1475.506	4243
1477.727	4297
1479.949	4269
1482.169	4099
1484.389	4141
1486.609	4190
1488.828	4246
1491.045	4196
1493.261	4281
1495.477	4171
1497.693	4199
1499.91	4153
1502.125	4272
1504.339	4183
1506.553	4229
1508.766	4263
1510.979	4188
1513.191	4206
1515.402	4222
1517.613	4183
1519.823	4134
1522.033	4247
1524.242	4155
1526.451	4133
1528.657	4201
1530.865	4237
1533.072	4181
1535.278	4090
1537.484	4181
1539.687	4225
1541.892	4217
1544.096	4207
1546.299	4291
1548.502	4285
1550.703	4226
1552.905	4276
1555.104	4235
1557.303	4293
1559.505	4269
1561.703	4195
1563.902	4230
1566.099	4221
1568.295	4323
1570.494	4282
1572.689	4249
1574.883	4246
1577.079	4359
1579.272	4362
1581.467	4352
1583.659	4381
1585.853	4235
1588.044	4337
1590.234	4301
1592.424	4298
1594.615	4246
1596.806	4290
1598.994	4435
1601.182	4385
1603.369	4336
1605.557	4333
1607.744	4335
1609.929	4325
1612.114	4412
1614.298	4485
1616.482	4365
1618.667	4294
1620.85	4473
1623.032	4355
1625.214	4340
1627.395	4399
1629.575	4356
1631.755	4427
1633.935	4389
1636.114	4451
1638.292	4354
1640.471	4409
1642.647	4380
1644.823	4422
1647	4414
1649.175	4426
1651.348	4395
1653.525	4495
1655.698	4467
1657.87	4501
1660.043	4415
1662.213	4449
1664.387	4348
1666.558	4493
1668.727	4532
1670.896	4408
1673.064	4365
1675.233	4487
1677.401	4525
1679.569	4324
1681.735	4414
1683.902	4427
1686.066	4448
1688.233	4433
1690.397	4509
1692.559	4489
1694.723	4488
1696.885	4427
1699.048	4454
1701.21	4431
1703.37	4413
1705.53	4424
1707.689	4456
1709.849	4363
1712.009	4413
1714.166	4403
1716.323	4434
1718.479	4391
1720.634	4470
1722.793	4443
1724.948	4372
1727.102	4360
1729.255	4344
1731.408	4326
1733.562	4422
1735.714	4332
1737.865	4409
1740.016	4422
1742.166	4327
1744.316	4328
1746.467	4361
1748.616	4413
1750.764	4491
1752.911	4418
1755.056	4316
1757.205	4299
1759.35	4424
1761.496	4441
1763.641	4362
1765.785	4488
1767.927	4487
1770.072	4449
1772.214	4459
1774.355	4403
1776.496	4327
1778.637	4457
1780.778	4432
1782.918	4418
1785.057	4519
1787.194	4450
1789.333	4452
1791.472	4412
1793.608	4410
1795.745	4487
1797.879	4447
1800.015	4467
1802.148	4489
1804.284	4438
1806.417	4472
1808.548	4384
1810.682	4468
1812.812	4405
1814.946	4526
1817.075	4441
1819.205	4390
1821.335	4496
1823.463	4500
1825.59	4460
1827.721	4490
1829.847	4405
1831.973	4443
1834.098	4485
1836.223	4426
1838.351	4445
1840.475	4473
1842.598	4492
1844.721	4474
1846.843	4483
1848.966	4405
1851.087	4444
1853.21	4446
1855.33	4395
1857.449	4418
1859.568	4441
1861.688	4421
1863.806	4435
1865.924	4452
1868.039	4463
1870.155	4470
1872.273	4478
1874.388	4495
1876.503	4436
1878.617	4374
1880.73	4440
1882.844	4395
1884.956	4525
1887.068	4416
1889.18	4401
1891.291	4456
1893.4	4507
1895.511	4419
1897.621	4452
1899.73	4487
1901.837	4418
1903.944	4511
1906.053	4491
1908.159	4518
1910.265	4484
1912.369	4637
1914.474	4545
1916.577	4494
1918.683	4410
1920.785	4549
1922.888	4581
1924.989	4478
1927.091	4481
1929.193	4488
1931.294	4541
1933.393	4506
1935.493	4541
1937.59	4510
1939.689	4549
1941.788	4519
1943.884	4514
1945.98	4516
1948.077	4582
1950.171	4494
1952.267	4549
1954.361	4546
1956.455	4579
1958.548	4581
1960.64	4474
1962.733	4580
1964.824	4491
1966.915	4519
1969.005	4469
1971.096	4568
1973.185	4587
1975.275	4502
1977.363	4468
1979.45	4605
1981.537	4497
1983.623	4495
1985.711	4517
1987.796	4466
1989.881	4483
1991.965	4506
1994.047	4502
1996.132	4558
1998.215	4517
2000.297	4449
2002.378	4528
2004.46	4487
2006.54	4483
2008.62	4516
2010.7	4645
2012.779	4613
2014.858	4524
2016.934	4447
2019.013	4538
2021.09	4515
2023.165	4565
2025.241	4554
2027.317	4523
2029.39	4556
2031.466	4486
2033.538	4463
2035.612	4502
2037.683	4518
2039.755	4475
2041.827	4563
2043.898	4502
2045.968	4463
2048.038	4526
2050.106	4438
2052.177	4515
2054.244	4553
2056.313	4490
2058.379	4565
2060.444	4609
2062.511	4573
2064.577	4503
2066.641	4628
2068.705	4672
2070.77	4643
2072.832	4544
2074.896	4527
2076.958	4576
2079.02	4511
2081.081	4555
2083.141	4553
2085.2	4520
2087.261	4483
2089.319	4575
2091.377	4541
2093.435	4631
2095.492	4542
2097.552	4506
2099.607	4585
2101.663	4500
2103.718	4631
2105.771	4516
2107.826	4618
2109.879	4452
2111.932	4584
2113.985	4623
2116.037	4616
2118.088	4579
2120.141	4487
2122.191	4578
2124.239	4531
2126.288	4634
2128.337	4500
2130.387	4595
2132.434	4579
2134.481	4590
2136.528	4507
2138.574	4562
2140.618	4557
2142.665	4558
2144.71	4490
2146.753	4560
2148.797	4565
2150.838	4529
2152.883	4579
2154.923	4451
2156.965	4668
2159.007	4537
2161.046	4530
2163.086	4484
2165.126	4502
2167.163	4620
2169.202	4429
2171.239	4534
2173.277	4572
2175.314	4556
2177.349	4460
2179.385	4524
2181.42	4501
2183.453	4547
2185.49	4527
2187.522	4515
2189.555	4498
2191.586	4474
2193.619	4492
2195.651	4575
2197.682	4529
2199.711	4470
2201.74	4511
2203.769	4443
2205.799	4456
2207.828	4497
2209.855	4436
2211.882	4448
2213.908	4486
2215.934	4531
2217.961	4385
2219.986	4500
2222.01	4467
2224.034	4390
2226.057	4441
2228.08	4478
2230.104	4422
2232.124	4532
2234.145	4513
2236.166	4417
2238.186	4470
2240.207	4543
2242.227	4486
2244.244	4402
2246.262	4372
2248.28	4524
2250.299	4521
2252.314	4446
2254.33	4478
2256.346	4546
2258.36	4441
2260.375	4566
2262.391	4500
2264.403	4519
2266.416	4498
2268.427	4490
2270.44	4527
2272.453	4575
2274.463	4520
2276.474	4497
2278.483	4599
2280.493	4466
2282.501	4503
2284.51	4400
2286.518	4537
2288.524	4439
2290.532	4597
2292.537	4647
2294.544	4537
2296.55	4548
2298.554	4624
2300.557	4501
2302.562	4519
2304.566	4514
2306.568	4487
2308.569	4505
2310.572	4452
2312.573	4536
2314.573	4508
2316.574	4426
2318.573	4497
2320.571	4471
2322.571	4443
2324.569	4446
2326.567	4433
2328.564	4511
2330.56	4500
2332.556	4463
2334.551	4420
2336.546	4451
2338.542	4417
2340.535	4495
2342.529	4476
2344.521	4541
2346.512	4433
2348.505	4415
2350.497	4436
2352.487	4341
2354.478	4405
2356.468	4414
2358.457	4312
2360.446	4454
2362.434	4502
2364.422	4452
2366.408	4400
2368.395	4318
2370.383	4501
2372.369	4393
2374.353	4440
2376.338	4360
2378.321	4505
2380.307	4353
2382.29	4442
2384.272	4456
2386.254	4408
2388.235	4452
2390.218	4346
2392.198	4427
2394.179	4389
2396.157	4425
2398.137	4473
2400.115	4391
2402.095	4420
2404.072	4379
2406.048	4472
2408.026	4454
2410.001	4399
2411.977	4380
2413.953	4437
2415.927	4422
2417.9	4381
2419.875	4352
2421.847	4414
2423.821	4345
2425.792	4352
2427.763	4433
2429.736	4365
2431.706	4412
2433.677	4372
2435.646	4389
2437.615	4461
2439.583	4356
2441.551	4404
2443.519	4433
2445.486	4399
2447.452	4402
2449.418	4407
2451.383	4303
2453.348	4358
2455.314	4446
2457.278	4469
2459.241	4512
2461.205	4325
2463.167	4252
2465.131	4329
2467.091	4288
2469.052	4426
2471.012	4294
2472.972	4377
2474.932	4380
2476.891	4315
2478.85	4418
2480.808	4393
2482.766	4409
2484.722	4360
2486.68	4346
2488.636	4347
2490.591	4310
2492.546	4372
2494.5	4344
2496.456	4244
2498.41	4314
2500.362	4407
2502.315	4333
2504.266	4355
2506.218	4289
2508.169	4392
2510.121	4455
2512.07	4319
2514.019	4290
2515.968	4382
2517.918	4343
2519.866	4273
2521.813	4390
2523.76	4426
2525.707	4345
2527.653	4307
2529.599	4287
2531.543	4368
2533.489	4374
2535.433	4284
2537.376	4242
2539.32	4425
2541.264	4327
2543.205	4367
2545.147	4337
2547.087	4292
2549.029	4401
2550.969	4340
2552.908	4353
2554.847	4353
2556.786	4330
2558.724	4411
2560.663	4306
2562.6	4430
2564.537	4334
2566.473	4254
2568.408	4263
2570.345	4327
2572.28	4395
2574.214	4427
2576.148	4380
2578.081	4390
2580.014	4268
2581.947	4393
2583.879	4350
2585.81	4352
2587.741	4327
2589.67	4345
2591.602	4295
2593.532	4330
2595.461	4263
2597.388	4410
2599.316	4402
2601.244	4452
2603.172	4405
2605.098	4368
2607.023	4377
2608.949	4349
2610.873	4347
2612.8	4370
2614.723	4303
2616.647	4289
2618.569	4395
2620.493	4379
2622.416	4343
2624.338	4272
2626.258	4475
2628.179	4355
2630.099	4434
2632.019	4441
2633.939	4349
2635.857	4360
2637.775	4427
2639.694	4336
2641.61	4325
2643.528	4424
2645.444	4363
2647.361	4401
2649.276	4461
2651.19	4378
2653.105	4388
2655.019	4372
2656.934	4420
2658.846	4403
2660.758	4363
2662.67	4352
2664.583	4304
2666.493	4263
2668.404	4338
2670.313	4372
2672.223	4372
2674.134	4297
2676.042	4391
2677.95	4364
2679.858	4300
2681.765	4373
2683.673	4350
2685.579	4292
2687.483	4416
2689.389	4393
2691.294	4396
2693.198	4327
2695.104	4361
2697.006	4421
2698.909	4305
2700.811	4358
2702.713	4306
2704.615	4335
2706.516	4362
2708.417	4324
2710.316	4346
2712.216	4353
2714.115	4363
2716.014	4369
2717.913	4269
2719.81	4305
2721.707	4322
2723.603	4347
2725.501	4299
2727.396	4316
2729.292	4366
2731.186	4282
2733.081	4372
2734.976	4319
2736.87	4348
2738.762	4274
2740.653	4279
2742.546	4323
2744.437	4358
2746.329	4239
2748.22	4300
2750.11	4394
2751.999	4241
2753.889	4417
2755.778	4352
2757.666	4205
2759.553	4250
2761.44	4304
2763.328	4322
2765.215	4416
2767.101	4342
2768.986	4285
2770.87	4300
2772.754	4340
2774.638	4367
2776.523	4342
2778.405	4314
2780.288	4314
2782.17	4310
2784.051	4317
2785.934	4315
2787.814	4269
2789.694	4369
2791.574	4266
2793.453	4265
2795.332	4278
2797.212	4274
2799.088	4307
2800.966	4302
2802.843	4264
2804.719	4252
2806.597	4259
2808.471	4281
2810.346	4253
2812.221	4329
2814.094	4274
2815.969	4240
2817.843	4394
2819.714	4369
2821.587	4244
2823.459	4347
2825.329	4322
2827.202	4214
2829.072	4348
2830.942	4222
2832.811	4282
2834.68	4245
2836.549	4244
2838.418	4256
2840.284	4227
2842.152	4333
2844.018	4271
2845.885	4250
2847.751	4268
2849.616	4303
2851.482	4250
2853.345	4210
2855.208	4315
2857.074	4342
2858.937	4380
2860.799	4356
2862.66	4369
2864.522	4364
2866.385	4357
2868.245	4350
2870.104	4410
2871.964	4411
2873.824	4338
2875.683	4469
2877.542	4508
2879.4	4490
2881.257	4393
2883.114	4557
2884.97	4561
2886.827	4434
2888.683	4509
2890.537	4495
2892.392	4556
2894.246	4378
2896.1	4413
2897.954	4544
2899.807	4527
2901.66	4544
2903.51	4446
2905.362	4515
2907.214	4471
2909.065	4514
2910.915	4589
2912.765	4587
2914.613	4589
2916.463	4594
2918.311	4603
2920.158	4576
2922.006	4673
2923.853	4686
2925.698	4681
2927.546	4856
2929.392	4851
2931.236	4797
2933.081	4866
2934.924	4878
2936.77	4880
2938.613	4888
2940.455	4897
2942.298	4944
2944.139	4827
2945.982	4873
2947.823	4906
2949.662	4822
2951.503	4880
2953.342	4769
2955.182	4766
2957.021	4733
2958.858	4774
2960.697	4764
2962.534	4766
2964.37	4725
2966.207	4525
2968.044	4577
2969.879	4615
2971.714	4615
2973.548	4504
2975.383	4536
2977.218	4599
2979.051	4620
2980.883	4500
2982.715	4512
2984.547	4528
2986.379	4550
2988.21	4517
2990.04	4399
2991.87	4478
2993.7	4502
2995.53	4393
2997.359	4455
2999.187	4263
3001.015	4410
3002.842	4355
3004.669	4343
3006.497	4319
3008.323	4330
3010.148	4299
3011.974	4261
3013.797	4234
3015.623	4281
3017.447	4195
3019.27	4173
3021.094	4261
3022.915	4222
3024.737	4099
3026.56	4145
3028.38	4092
3030.201	4098
3032.022	4199
3033.84	4040
3035.662	4075
3037.481	4138
3039.298	4079
3041.117	4116
3042.933	4114
3044.752	4086
3046.568	4156
3048.385	4074
3050.2	4062
3052.016	4083
3053.83	4087
3055.646	4068
3057.46	4049
3059.272	4187
3061.086	4082
3062.898	4054
3064.711	4032
3066.524	4030
3068.335	4140
3070.145	4090
3071.956	4125
3073.766	4010
3075.576	4036
3077.385	3990
3079.193	4109
3081.002	3941
3082.81	4084
3084.618	4062
3086.425	4065
3088.231	4114
3090.036	4017
3091.842	4086
3093.648	4005
3095.452	4054
3097.257	3978
3099.06	3979
3100.863	4048
3102.666	3999
3104.47	4005
3106.272	3973
3108.073	3963
3109.875	4020
3111.676	3909
3113.477	4016
3115.277	3983
3117.077	3967
3118.874	3985
3120.673	3919
3122.473	3956
3124.271	4005
3126.066	3956
3127.863	3932
3129.66	4020
3131.456	3938
3133.252	3990
3135.047	3951
3136.842	3977
3138.635	3957
3140.429	3908
3142.223	3848
3144.016	3926
3145.808	4010
3147.6	3981
3149.392	3920
3151.183	3859
3152.975	3838
3154.765	3899
3156.553	3842
3158.344	3865
3160.132	3928
3161.922	3909
3163.71	3927
3165.497	3933
3167.285	3983
3169.071	4007
3170.858	3875
3172.645	3896
3174.429	3928
3176.214	3827
3177.998	3922
3179.783	3867
3181.568	3900
3183.351	3953
3185.133	3828
3186.915	3985
3188.698	3821
3190.481	3853
3192.261	3874
3194.042	3847
3195.822	3864
3197.601	4013
3199.381	3940
3201.161	3887
3202.939	3842
3204.717	3783
3206.495	3906
3208.272	3762
3210.05	3907
3211.826	3844
3213.602	3918
3215.376	3851
3217.151	3872
3218.927	3890
3220.702	3804
3222.476	3746
3224.249	3870
3226.021	3804
3227.793	3879
3229.567	3891
3231.339	3884
3233.109	3927
3234.88	3833
3236.651	3920
3238.421	3895
3240.191	3885
3241.96	3842
3243.728	3882
3245.497	3832
3247.263	3887
3249.033	3855
3250.799	3837
3252.566	3837
3254.331	3973
3256.097	3838
3257.863	3787
3259.628	3845
3261.392	3776
3263.156	3858
3264.919	3823
3266.683	3813
3268.447	3901
3270.208	3864
3271.969	3818
3273.731	3816
3275.492	3903
3277.253	3768
3279.013	3841
3280.773	3895
3282.532	3916
3284.291	3874
3286.05	3864
3287.808	3752
3289.566	3864
3291.323	3921
3293.079	3785
3294.835	3837
3296.593	3897
3298.348	3884
3300.102	3840
3301.857	3816
3303.611	3878
3305.366	3856
3307.119	3834
3308.872	3838
3310.624	3834
3312.376	3847
3314.129	3881
3315.881	3764
3317.631	3913
3319.38	3913
3321.13	3766
3322.88	3810
3324.631	3840
3326.379	3913
3328.126	3831
3329.875	3889
3331.622	3779
3333.371	3785
3335.116	3873
3336.863	3740
3338.609	3746
3340.353	3809
3342.1	3776
3343.845	3826
3345.588	3848
3347.332	3798
3349.074	3858
3350.817	3865
3352.56	3778
3354.303	3818
3356.043	3678
3357.785	3727
3359.525	3848
3361.268	3807
3363.007	3770
3364.745	3846
3366.485	3685
3368.223	3832
3369.962	3741
3371.701	3807
3373.438	3694
3375.174	3846
3376.911	3772
3378.647	3790
3380.384	3769
3382.118	3750
3383.854	3694
3385.588	3804
3387.322	3775
3389.057	3739
3390.79	3707
3392.522	3750
3394.255	3861
3395.987	3718
3397.719	3736
3399.451	3670
3401.181	3759
3402.911	3745
3404.641	3709
3406.371	3651
3408.101	3737
3409.83	3791
3411.558	3668
3413.285	3677
3415.011	3622
3416.739	3662
3418.467	3678
3420.193	3790
3421.919	3753
3423.644	3717
3425.368	3774
3427.094	3717
3428.818	3711
3430.542	3730
3432.264	3732
3433.987	3665
3435.712	3630
3437.434	3630
3439.155	3711
3440.876	3715
3442.596	3675
3444.317	3654
3446.039	3704
3447.757	3710
3449.477	3629
3451.195	3684
3452.914	3758
3454.632	3631
3456.35	3615
3458.067	3745
3459.784	3671
3461.5	3604
3463.216	3592
3464.932	3656
3466.647	3606
3468.362	3656
3470.076	3491
3471.789	3595
3473.505	3671
3475.217	3587
3476.929	3628
3478.641	3693
3480.354	3590
3482.066	3629
3483.777	3596
3485.487	3573
3487.197	3621
3488.908	3553
3490.617	3619
3492.327	3572
3494.035	3623
3495.743	3568
3497.451	3621
3499.158	3565
3500.866	3634
3502.572	3510
3504.278	3533
3505.984	3524
3507.689	3580
3509.396	3602
3511.1	3525
3512.804	3570
3514.508	3610
3516.211	3578
3517.913	3581
3519.616	3520
3521.319	3562
3523.021	3480
3524.722	3538
3526.422	3519
3528.124	3516
3529.824	3523
3531.524	3489
3533.222	3576
3534.921	3436
3536.62	3482
3538.318	3465
3540.016	3423
3541.714	3490
3543.41	3517
3545.107	3559
3546.803	3495
3548.5	3445
3550.194	3559
3551.889	3535
3553.583	3526
3555.279	3370
3556.972	3507
3558.666	3529
3560.358	3486
3562.051	3412
3563.742	3469
3565.435	3438
3567.126	3491
3568.817	3453
3570.507	3437
3572.197	3431
3573.888	3422
3575.577	3419
3577.265	3508
3578.954	3387
3580.642	3443
3582.329	3425
3584.017	3342
3585.704	3443
3587.391	3431
3589.077	3428
3590.762	3340
3592.449	3345
3594.133	3453
3595.817	3322
3597.501	3368
3599.185	3404
3600.869	3352
3602.552	3341
3604.234	3411
3605.916	3382
3607.598	3394
3609.279	3375
3610.961	3355
3612.642	3434
3614.321	3425
3616	3406
3617.68	3331
3619.36	3319
3621.039	3349
3622.716	3346
3624.394	3262
3626.071	3300
3627.748	3299
3629.425	3343
3631.102	3274
3632.778	3298
3634.452	3257
3636.127	3325
3637.803	3341
3639.477	3313
3641.151	3230
3642.823	3300
3644.497	3348
3646.171	3297
3647.842	3305
3649.515	3253
3651.185	3306
3652.857	3317
3654.527	3285
3656.198	3284
3657.868	3333
3659.537	3267
3661.207	3245
3662.875	3207
3664.544	3272
3666.212	3235
3667.879	3225
3669.546	3286
3671.212	3345
3672.88	3235
3674.546	3247
3676.211	3251
3677.875	3261
3679.541	3275
3681.205	3176
3682.87	3283
3684.533	3227
3686.196	3223
3687.859	3278
3689.521	3255
3691.184	3251
3692.845	3236
3694.507	3170
3696.167	3266
3697.827	3183
3699.487	3173
3701.148	3220
3702.808	3272
3704.466	3130
3706.125	3190
3707.783	3176
3709.442	3193
3711.099	3183
3712.757	3165
3714.412	3120
3716.068	3238
3717.725	3158
3719.381	3211
3721.036	3214
3722.689	3164
3724.344	3138
3725.998	3140
3727.652	3057
3729.305	3168
3730.958	3211
3732.61	3118
3734.262	3141
3735.915	3108
3737.565	3154
3739.217	3195
3740.866	3176
3742.516	3221
3744.165	3168
3745.816	3142
3747.464	3211
3749.113	3156
3750.761	3131
3752.409	3113
3754.057	3199
3755.703	3117
3757.35	3087
3758.996	3176
3760.641	3123
3762.289	3178
3763.933	3135
3765.577	3141
3767.222	3105
3768.865	3162
3770.508	3180
3772.152	3121
3773.796	3130
3775.438	3104
3777.079	3169
3778.721	3066
3780.363	3097
3782.003	3135
3783.643	3043
3785.283	3129
3786.923	3075
3788.563	3060
3790.203	3073
3791.841	3085
3793.479	3096
3795.115	3069
3796.753	3114
3798.391	3070
3800.027	3109
3801.664	3108
3803.299	2989
3804.935	3026
3806.571	3024
3808.206	3056
3809.839	2972
3811.473	3065
3813.107	3091
3814.74	3058
3816.375	3066
3818.006	3021
3819.638	2999
3821.27	3053
3822.9	3027
3824.532	3011
3826.163	3065
3827.792	2947
3829.423	2984
3831.051	3064
3832.682	3073
3834.311	3063
3835.938	3048
3837.566	2968
3839.193	3035
3840.821	3008
3842.448	3038
3844.075	3050
3845.7	3024
3847.325	2940
3848.951	3039
3850.576	2974
3852.201	2987
3853.825	2966
3855.448	2985
3857.072	2951
3858.694	2923
3860.318	2962
3861.939	3068
3863.562	2954
3865.183	2946
3866.804	2990
3868.426	2899
3870.045	2958
3871.666	2971
3873.285	2967
3874.904	3001
3876.524	2934
3878.142	2955
3879.76	2908
3881.378	2955
3882.995	2937
3884.612	2939
3886.229	2954
3887.845	2916
3889.461	2918
3891.076	2893
3892.691	2938
3894.307	2939
3895.922	2975
3897.536	2956
3899.149	2897
3900.761	2926
3902.374	2941
3903.988	2912
3905.6	2943
3907.212	2931
3908.822	2947
3910.433	2927
3912.045	2991
3913.655	2912
3915.265	2904
3916.875	2920
3918.483	2940
3920.093	2898
3921.702	2951
3923.309	2926
3924.917	2962
3926.523	2904
3928.13	2899
3929.739	2907
3931.344	2830
3932.95	2939
3934.555	2986
3936.159	2839
3937.766	2908
3939.369	2971
3940.974	2931
3942.577	2990
3944.181	2937
3945.783	2918
3947.386	2899
3948.989	2957
3950.59	2900
3952.191	2904
3953.791	2886
3955.394	2816
3956.994	2928
3958.593	2903
3960.192	2880
3961.791	2850
3963.392	2844
3964.99	2867
3966.588	2860
3968.185	2872
3969.782	2880
3971.379	2805
3972.976	2827
3974.572	2786
3976.168	2806
3977.763	2894
3979.358	2808
3980.954	2805
3982.548	2886
3984.142	2843
3985.736	2912
3987.329	2826
3988.922	2886
3990.516	2782
3992.108	2809
3993.698	2841
3995.29	2768
3996.881	2756
3998.473	2769
4000.064	2828
4001.653	2854
4003.242	2805
4004.832	2818
4006.422	2770
4008.01	2809
4009.598	2773
4011.186	2730
4012.773	2823
4014.36	2769
4015.947	2754
4017.534	2759
4019.119	2791
4020.705	2768
4022.291	2726
4023.876	2771
4025.461	2752
4027.044	2792
4028.627	2763
4030.211	2787
4031.795	2757
4033.378	2767
4034.96	2744
4036.542	2795
4038.124	2757
4039.704	2697
4041.286	2652
4042.867	2692
4044.447	2730
4046.026	2704
4047.606	2726
4049.187	2701
4050.765	2728
4052.343	2607
4053.92	2688
4055.498	2706
4057.076	2700
4058.654	2719
4060.23	2699
4061.806	2634
4063.381	2718
4064.957	2741
4066.533	2736
4068.107	2677
4069.682	2727
4071.256	2733
4072.829	2641
4074.404	2698
4075.977	2662
4077.549	2666
4079.121	2628
4080.693	2697
4082.265	2667
4083.836	2741
4085.407	2734
4086.977	2629
4088.547	2626
4090.117	2695
4091.687	2657
4093.256	2620
4094.825	2680
4096.392	2680
4097.96	2542
4099.528	2712
4101.097	2645
4102.663	2647
4104.229	2661
4105.795	2663
4107.361	2721
4108.928	2588
4110.493	2640
4112.058	2579
4113.621	2618
4115.186	2691
4116.75	2689
4118.313	2670
4119.876	2638
4121.438	2654
4123	2576
4124.562	2608
4126.125	2576
4127.686	2716
4129.246	2650
4130.807	2601
4132.367	2603
4133.927	2608
4135.486	2613
4137.046	2551
4138.604	2639
4140.162	2646
4141.72	2594
4143.279	2601
4144.836	2553
4146.393	2591
4147.949	2572
4149.505	2634
4151.062	2565
4152.617	2567
4154.172	2517
4155.727	2550
4157.281	2541
4158.836	2582
4160.39	2588
4161.943	2542
4163.496	2584
4165.048	2529
4166.601	2569
4168.154	2520
4169.706	2536
4171.257	2551
4172.808	2559
4174.358	2526
4175.909	2530
4177.458	2498
4179.008	2555
4180.558	2541
4182.106	2520
4183.655	2512
4185.204	2541
4186.751	2536
4188.298	2558
4189.845	2467
4191.392	2495
4192.939	2490
4194.485	2484
4196.031	2505
4197.576	2477
4199.121	2473
4200.666	2499
4202.211	2452
4203.754	2509
4205.298	2420
4206.84	2522
4208.384	2395
4209.927	2528
4211.47	2492
4213.011	2474
4214.552	2434
4216.094	2424
4217.635	2433
4219.175	2493
4220.716	2449
4222.255	2421
4223.793	2524
4225.335	2443
4226.873	2502
4228.411	2441
4229.948	2418
4231.486	2513
4233.024	2476
4234.562	2470
4236.098	2448
4237.634	2452
4239.169	2556
4240.705	2407
4242.241	2445
4243.776	2484
4245.31	2444
4246.844	2504
4248.378	2473
4249.911	2421
4251.445	2394
4252.978	2456
4254.51	2447
4256.042	2396
4257.574	2435
4259.107	2438
4260.638	2430
4262.169	2467
4263.699	2432
4265.228	2446
4266.759	2478
4268.289	2424
4269.818	2451
4271.345	2453
4272.874	2389
4274.402	2373
4275.931	2373
4277.458	2477
4278.985	2368
4280.512	2408
4282.037	2375
4283.564	2363
4285.089	2419
4286.615	2444
4288.139	2359
4289.664	2351
4291.187	2415
4292.712	2358
4294.235	2372
4295.759	2385
4297.281	2421
4298.804	2351
4300.327	2384
4301.849	2308
4303.37	2383
4304.891	2388
4306.412	2360
4307.933	2369
4309.453	2338
4310.973	2345
4312.492	2307
