398.1873	2994
400.7097	3025
403.2336	3076
405.7547	3010
408.2751	2989
410.7948	3087
413.3138	3022
415.83	3069
418.3497	3054
420.8666	3138
423.3829	3054
425.8985	3157
428.4133	3171
430.9275	3127
433.441	3267
435.9538	3204
438.4639	3182
440.9753	3178
443.4881	3282
445.9982	3189
448.5055	3188
451.0142	3287
453.5201	3191
456.0274	3200
458.5361	3278
461.04	3151
463.5453	3262
466.0478	3215
468.5517	3178
471.0549	3285
473.5574	3245
476.0572	3213
478.5584	3166
481.0568	3302
483.5545	3231
486.0557	3249
488.5521	3232
491.0478	3337
493.5449	3302
496.0392	3253
498.5349	3251
501.0299	3301
503.5222	3305
506.0139	3336
508.5048	3367
510.9991	3326
513.4887	3281
515.9777	3340
518.4659	3330
520.9534	3299
523.4403	3375
525.9306	3316
528.4161	3344
530.9009	3264
533.3851	3339
535.8687	3351
538.3535	3314
540.8356	3419
543.3171	3289
545.7979	3474
548.278	3323
550.7595	3298
553.2383	3340
555.7144	3322
558.1918	3304
560.6685	3378
563.1446	3316
565.6221	3331
568.0968	3504
570.5688	3452
573.0422	3352
575.515	3420
577.989	3357
580.4584	3341
582.9291	3415
585.3991	3440
587.8685	3539
590.3352	3501
592.8052	3454
595.2706	3457
597.7372	3380
600.2033	3512
602.6666	3505
605.1334	3420
607.5953	3408
610.0587	3400
612.5193	3381
614.9814	3504
617.4427	3481
619.9034	3352
622.3615	3359
624.8208	3417
627.2775	3386
629.7335	3453
632.1929	3449
634.6476	3408
637.1016	3421
639.5569	3419
642.0096	3489
644.4637	3475
646.9151	3473
649.3678	3431
651.8179	3468
654.2672	3475
656.7159	3503
659.166	3507
661.6154	3569
664.0622	3543
666.5082	3538
668.9537	3588
671.4005	3488
673.8445	3532
676.288	3511
678.7308	3479
681.1729	3505
683.6163	3525
686.0572	3524
688.4973	3552
690.9368	3543
693.3757	3535
695.8138	3587
698.2534	3561
700.6902	3584
703.1245	3657
705.56	3617
707.9949	3565
710.4311	3624
712.8647	3628
715.2957	3545
717.7279	3623
720.1595	3621
722.5905	3633
725.0208	3637
727.4505	3667
729.8795	3597
732.3058	3643
734.7336	3730
737.1626	3721
739.587	3707
742.0128	3686
744.4359	3679
746.8604	3738
749.2841	3742
751.7073	3764
754.1278	3790
756.5496	3738
758.9688	3803
761.3893	3774
763.8093	3842
766.2285	3850
768.6451	3747
771.0611	3800
773.4784	3919
775.895	3873
778.3091	3763
780.7244	3888
783.1371	3804
785.5493	3749
787.9626	3758
790.3754	3859
792.7856	3862
795.1951	3844
797.6039	3866
800.0121	3787
802.4236	3842
804.8306	3832
807.2369	3865
809.6425	3870
812.0475	3892
814.4538	3886
816.8575	3852
819.2606	3839
821.663	3786
824.0648	3796
826.4659	3879
828.8683	3833
831.2682	3865
833.6674	3944
836.066	3842
838.4639	3865
840.8632	3959
843.2579	3898
845.6539	3906
848.0493	3898
850.444	3955
852.84	3831
855.2315	3855
857.6243	3820
860.0165	3814
862.4081	3844
864.797	3907
867.1892	3922
869.5789	3880
871.9659	3882
874.3542	3928
876.74	3926
879.129	3887
881.5155	3914
883.8994	3905
886.2845	3919
888.6671	3896
891.051	3839
893.4343	3888
895.8169	3940
898.197	3908
900.5783	3929
902.9571	3952
905.3372	3885
907.7167	3902
910.0936	3980
912.4698	4015
914.8474	3990
917.2244	3991
919.5987	3913
921.9744	3994
924.3475	4049
926.72	4014
929.0918	4114
931.4669	3934
933.8375	4095
936.2074	4118
938.5767	4062
940.9454	4153
943.3154	4104
945.6829	4176
948.0497	4158
950.4178	4129
952.7833	4280
955.1483	4388
957.5145	4378
959.8782	4548
962.2412	4517
964.6036	4425
966.9655	4315
969.3266	4235
971.6871	4168
974.0471	4175
976.4064	4072
978.765	4057
981.125	4076
983.4824	4080
985.8373	3994
988.1935	3985
990.549	4051
992.9039	4067
995.2602	3991
997.6119	4092
999.965	4107
1002.317	4052
1004.667	4114
1007.02	4079
1009.371	4013
1011.719	4021
1014.068	4053
1016.415	4065
1018.765	4060
1021.111	4075
1023.458	4034
1025.804	4081
1028.147	4027
1030.49	4106
1032.837	4127
1035.179	4055
1037.522	4135
1039.862	4060
1042.204	4107
1044.546	4043
1046.884	4076
1049.224	4044
1051.562	4025
1053.899	4150
1056.237	4069
1058.575	4110
1060.91	4090
1063.244	4107
1065.58	4079
1067.913	4171
1070.248	4244
1072.579	4110
1074.911	4228
1077.242	4163
1079.572	4132
1081.905	4129
1084.234	4098
1086.562	4117
1088.89	4107
1091.217	4080
1093.544	4088
1095.871	4100
1098.197	4161
1100.521	4166
1102.845	4173
1105.169	4162
1107.491	4202
1109.814	4058
1112.135	4128
1114.456	4245
1116.776	4114
1119.096	4196
1121.415	4203
1123.734	4139
1126.052	4136
1128.369	4163
1130.686	4157
1133.002	4180
1135.318	4154
1137.632	4159
1139.945	4236
1142.258	4194
1144.573	4174
1146.884	4171
1149.196	4272
1151.505	4178
1153.816	4167
1156.124	4107
1158.435	4175
1160.742	4181
1163.051	4200
1165.356	4213
1167.663	4146
1169.97	4089
1172.276	4171
1174.579	4199
1176.881	4151
1179.186	4191
1181.487	4256
1183.79	4175
1186.092	4165
1188.392	4155
1190.691	4200
1192.991	4254
1195.291	4190
1197.588	4215
1199.885	4230
1202.181	4138
1204.479	4238
1206.775	4193
1209.07	4185
1211.363	4339
1213.656	4214
1215.949	4219
1218.241	4151
1220.534	4246
1222.825	4174
1225.115	4284
1227.405	4266
1229.693	4317
1231.984	4245
1234.271	4201
1236.558	4265
1238.845	4419
1241.131	4324
1243.416	4270
1245.703	4286
1247.987	4375
1250.269	4329
1252.552	4383
1254.834	4394
1257.118	4239
1259.399	4233
1261.678	4254
1263.958	4374
1266.237	4317
1268.516	4323
1270.794	4313
1273.072	4201
1275.347	4319
1277.624	4444
1279.899	4329
1282.175	4298
1284.449	4354
1286.722	4280
1288.995	4291
1291.266	4197
1293.54	4214
1295.81	4275
1298.081	4260
1300.35	4389
1302.62	4290
1304.889	4342
1307.156	4314
1309.425	4321
1311.69	4248
1313.957	4278
1316.222	4364
1318.488	4306
1320.751	4327
1323.016	4353
1325.278	4334
1327.54	4310
1329.803	4294
1332.065	4337
1334.325	4266
1336.584	4314
1338.843	4414
1341.101	4325
1343.36	4257
1345.617	4278
1347.876	4284
1350.131	4370
1352.387	4281
1354.643	4295
1356.897	4306
1359.151	4312
1361.403	4405
1363.656	4378
1365.909	4374
1368.16	4315
1370.409	4328
1372.659	4426
1374.909	4432
1377.157	4318
1379.407	4412
1381.655	4415
1383.9	4328
1386.147	4394
1388.393	4322
1390.64	4400
1392.885	4353
1395.127	4372
1397.37	4345
1399.614	4470
1401.854	4435
1404.098	4430
1406.339	4433
1408.578	4448
1410.818	4408
1413.056	4482
1415.297	4367
1417.533	4447
1419.771	4404
1422.006	4422
1424.243	4411
1426.479	4503
1428.715	4400
1430.948	4460
1433.182	4398
1435.414	4560
1437.647	4463
1439.88	4504
1442.11	4503
1444.342	4536
1446.571	4539
1448.799	4509
1451.029	4402
1453.258	4498
1455.485	4553
1457.711	4530
1459.937	4473
1462.164	4458
1464.39	4567
1466.614	4511
1468.838	4501
1471.06	4388
1473.283	4504
1475.506	4513
1477.727	4553
1479.949	4464
1482.169	4369
1484.389	4418
1486.609	4368
1488.828	4411
1491.045	4470
1493.261	4450
1495.477	4429
1497.693	4334
1499.91	4443
1502.125	4387
1504.339	4397
1506.553	4379
1508.766	4247
1510.979	4428
1513.191	4316
1515.402	4430
1517.613	4427
1519.823	4323
1522.033	4403
1524.242	4381
1526.451	4421
1528.657	4424
1530.865	4389
1533.072	4423
1535.278	4388
1537.484	4476
1539.687	4410
1541.892	4433
1544.096	4475
1546.299	4395
1548.502	4379
1550.703	4311
1552.905	4490
1555.104	4351
1557.303	4440
1559.505	4381
1561.703	4461
1563.902	4441
1566.099	4498
1568.295	4482
1570.494	4527
1572.689	4502
1574.883	4495
1577.079	4502
1579.272	4463
1581.467	4528
1583.659	4452
1585.853	4525
1588.044	4598
1590.234	4468
1592.424	4546
1594.615	4461
1596.806	4517
1598.994	4598
1601.182	4562
1603.369	4639
1605.557	4511
1607.744	4535
1609.929	4535
1612.114	4534
1614.298	4499
1616.482	4530
1618.667	4506
1620.85	4562
1623.032	4519
1625.214	4653
1627.395	4637
1629.575	4574
1631.755	4483
1633.935	4673
1636.114	4595
1638.292	4622
1640.471	4617
1642.647	4637
1644.823	4448
1647	4576
1649.175	4597
1651.348	4582
1653.525	4578
1655.698	4548
1657.87	4583
1660.043	4543
1662.213	4553
1664.387	4664
1666.558	4638
1668.727	4568
1670.896	4569
1673.064	4610
1675.233	4614
1677.401	4547
1679.569	4593
1681.735	4560
1683.902	4553
1686.066	4520
1688.233	4566
1690.397	4670
1692.559	4529
1694.723	4545
1696.885	4535
1699.048	4648
1701.21	4657
1703.37	4613
1705.53	4590
1707.689	4603
1709.849	4597
1712.009	4635
1714.166	4556
1716.323	4529
1718.479	4688
1720.634	4514
1722.793	4602
1724.948	4627
1727.102	4535
1729.255	4565
1731.408	4554
1733.562	4501
1735.714	4602
1737.865	4508
1740.016	4648
1742.166	4560
1744.316	4619
1746.467	4547
1748.616	4545
1750.764	4606
1752.911	4593
1755.056	4707
1757.205	4567
1759.35	4616
1761.496	4701
1763.641	4654
1765.785	4588
1767.927	4701
1770.072	4667
1772.214	4655
1774.355	4598
1776.496	4579
1778.637	4675
1780.778	4697
1782.918	4701
1785.057	4685
1787.194	4619
1789.333	4689
1791.472	4590
1793.608	4669
1795.745	4552
1797.879	4659
1800.015	4693
1802.148	4630
1804.284	4694
1806.417	4618
1808.548	4653
1810.682	4587
1812.812	4718
1814.946	4697
1817.075	4608
1819.205	4686
1821.335	4604
1823.463	4726
1825.59	4606
1827.721	4684
1829.847	4646
1831.973	4760
1834.098	4672
1836.223	4543
1838.351	4654
1840.475	4606
1842.598	4711
1844.721	4697
1846.843	4656
1848.966	4654
1851.087	4705
1853.21	4603
1855.33	4680
1857.449	4646
1859.568	4626
1861.688	4665
1863.806	4664
1865.924	4635
1868.039	4596
1870.155	4556
1872.273	4657
1874.388	4745
1876.503	4609
1878.617	4610
1880.73	4549
1882.844	4702
1884.956	4652
1887.068	4621
1889.18	4731
1891.291	4661
1893.4	4602
1895.511	4697
1897.621	4820
1899.73	4779
1901.837	4583
1903.944	4621
1906.053	4645
1908.159	4712
1910.265	4716
1912.369	4768
1914.474	4740
1916.577	4701
1918.683	4664
1920.785	4608
1922.888	4718
1924.989	4661
1927.091	4778
1929.193	4671
1931.294	4714
1933.393	4704
1935.493	4737
1937.59	4715
1939.689	4831
1941.788	4775
1943.884	4629
1945.98	4741
1948.077	4669
1950.171	4621
1952.267	4677
1954.361	4756
1956.455	4748
1958.548	4718
1960.64	4727
1962.733	4716
1964.824	4788
1966.915	4627
1969.005	4686
1971.096	4762
1973.185	4706
1975.275	4761
1977.363	4638
1979.45	4600
1981.537	4633
1983.623	4724
1985.711	4741
1987.796	4702
1989.881	4839
1991.965	4720
1994.047	4679
1996.132	4665
1998.215	4661
2000.297	4741
2002.378	4623
2004.46	4679
2006.54	4658
2008.62	4717
2010.7	4591
2012.779	4635
2014.858	4662
2016.934	4652
2019.013	4788
2021.09	4736
2023.165	4749
2025.241	4723
2027.317	4719
2029.39	4653
2031.466	4732
2033.538	4700
2035.612	4688
2037.683	4715
2039.755	4695
2041.827	4743
2043.898	4662
2045.968	4738
2048.038	4754
2050.106	4750
2052.177	4775
2054.244	4738
2056.313	4700
2058.379	4810
2060.444	4763
2062.511	4721
2064.577	4759
2066.641	4743
2068.705	4766
2070.77	4661
2072.832	4757
2074.896	4771
2076.958	4803
2079.02	4730
2081.081	4701
2083.141	4769
2085.2	4743
2087.261	4768
2089.319	4780
2091.377	4666
2093.435	4767
2095.492	4771
2097.552	4715
2099.607	4740
2101.663	4725
2103.718	4719
2105.771	4683
2107.826	4840
2109.879	4752
2111.932	4709
2113.985	4740
2116.037	4707
2118.088	4710
2120.141	4757
2122.191	4682
2124.239	4636
2126.288	4720
2128.337	4705
2130.387	4736
2132.434	4743
2134.481	4765
2136.528	4743
2138.574	4689
2140.618	4702
2142.665	4709
2144.71	4749
2146.753	4760
2148.797	4680
2150.838	4774
2152.883	4678
2154.923	4726
2156.965	4740
2159.007	4740
2161.046	4747
2163.086	4763
2165.126	4646
2167.163	4676
2169.202	4736
2171.239	4670
2173.277	4681
2175.314	4739
2177.349	4587
2179.385	4617
2181.42	4669
2183.453	4695
2185.49	4738
2187.522	4626
2189.555	4724
2191.586	4683
2193.619	4721
2195.651	4707
2197.682	4694
2199.711	4690
2201.74	4697
2203.769	4678
2205.799	4650
2207.828	4608
2209.855	4713
2211.882	4606
2213.908	4643
2215.934	4706
2217.961	4633
2219.986	4616
2222.01	4614
2224.034	4539
2226.057	4617
2228.08	4645
2230.104	4554
2232.124	4624
2234.145	4690
2236.166	4664
2238.186	4640
2240.207	4553
2242.227	4624
2244.244	4627
2246.262	4561
2248.28	4683
2250.299	4610
2252.314	4673
2254.33	4571
2256.346	4637
2258.36	4734
2260.375	4707
2262.391	4581
2264.403	4642
2266.416	4682
2268.427	4636
2270.44	4703
2272.453	4657
2274.463	4708
2276.474	4627
2278.483	4641
2280.493	4639
2282.501	4670
2284.51	4571
2286.518	4733
2288.524	4665
2290.532	4707
2292.537	4575
2294.544	4677
2296.55	4650
2298.554	4558
2300.557	4735
2302.562	4618
2304.566	4643
2306.568	4645
2308.569	4584
2310.572	4616
2312.573	4645
2314.573	4677
2316.574	4555
2318.573	4545
2320.571	4615
2322.571	4613
2324.569	4639
2326.567	4630
2328.564	4508
2330.56	4597
2332.556	4651
2334.551	4547
2336.546	4615
2338.542	4574
2340.535	4552
2342.529	4653
2344.521	4589
2346.512	4644
2348.505	4648
2350.497	4655
2352.487	4591
2354.478	4518
2356.468	4510
2358.457	4578
2360.446	4610
2362.434	4521
2364.422	4605
2366.408	4563
2368.395	4600
2370.383	4531
2372.369	4513
2374.353	4608
2376.338	4691
2378.321	4552
2380.307	4574
2382.29	4549
2384.272	4493
2386.254	4537
2388.235	4545
2390.218	4561
2392.198	4556
2394.179	4595
2396.157	4397
2398.137	4559
2400.115	4537
2402.095	4581
2404.072	4458
2406.048	4603
2408.026	4532
2410.001	4613
2411.977	4551
2413.953	4515
2415.927	4571
2417.9	4580
2419.875	4635
2421.847	4525
2423.821	4467
2425.792	4492
2427.763	4507
2429.736	4454
2431.706	4544
2433.677	4465
2435.646	4485
2437.615	4574
2439.583	4552
2441.551	4539
2443.519	4554
2445.486	4557
2447.452	4543
2449.418	4504
2451.383	4547
2453.348	4391
2455.314	4542
2457.278	4440
2459.241	4589
2461.205	4498
2463.167	4536
2465.131	4442
2467.091	4515
2469.052	4508
2471.012	4432
2472.972	4435
2474.932	4480
2476.891	4537
2478.85	4546
2480.808	4363
2482.766	4526
2484.722	4489
2486.68	4423
2488.636	4581
2490.591	4493
2492.546	4418
2494.5	4489
2496.456	4358
2498.41	4483
2500.362	4445
2502.315	4381
2504.266	4520
2506.218	4420
2508.169	4396
2510.121	4461
2512.07	4510
2514.019	4441
2515.968	4511
2517.918	4466
2519.866	4509
2521.813	4432
2523.76	4492
2525.707	4440
2527.653	4469
2529.599	4442
2531.543	4507
2533.489	4484
2535.433	4528
2537.376	4479
2539.32	4414
2541.264	4466
2543.205	4494
2545.147	4568
2547.087	4505
2549.029	4448
2550.969	4480
2552.908	4395
2554.847	4481
2556.786	4447
2558.724	4460
2560.663	4451
2562.6	4534
2564.537	4461
2566.473	4403
2568.408	4439
2570.345	4511
2572.28	4507
2574.214	4365
2576.148	4497
2578.081	4460
2580.014	4387
2581.947	4473
2583.879	4483
2585.81	4371
2587.741	4531
2589.67	4501
2591.602	4437
2593.532	4556
2595.461	4399
2597.388	4537
2599.316	4470
2601.244	4485
2603.172	4378
2605.098	4542
2607.023	4529
2608.949	4425
2610.873	4439
2612.8	4519
2614.723	4532
2616.647	4441
2618.569	4425
2620.493	4442
2622.416	4482
2624.338	4391
2626.258	4552
2628.179	4514
2630.099	4593
2632.019	4506
2633.939	4519
2635.857	4447
2637.775	4567
2639.694	4446
2641.61	4439
2643.528	4519
2645.444	4489
2647.361	4415
2649.276	4405
2651.19	4466
2653.105	4598
2655.019	4379
2656.934	4493
2658.846	4448
2660.758	4475
2662.67	4467
2664.583	4551
2666.493	4523
2668.404	4439
2670.313	4520
2672.223	4507
2674.134	4459
2676.042	4541
2677.95	4474
2679.858	4436
2681.765	4501
2683.673	4415
2685.579	4474
2687.483	4463
2689.389	4501
2691.294	4476
2693.198	4389
2695.104	4480
2697.006	4424
2698.909	4438
2700.811	4374
2702.713	4366
2704.615	4430
2706.516	4364
2708.417	4396
2710.316	4402
2712.216	4520
2714.115	4310
2716.014	4423
2717.913	4365
2719.81	4396
2721.707	4476
2723.603	4439
2725.501	4390
2727.396	4441
2729.292	4386
2731.186	4402
2733.081	4325
2734.976	4417
2736.87	4411
2738.762	4383
2740.653	4397
2742.546	4464
2744.437	4304
2746.329	4377
2748.22	4405
2750.11	4386
2751.999	4396
2753.889	4395
2755.778	4407
2757.666	4378
2759.553	4395
2761.44	4377
2763.328	4315
2765.215	4408
2767.101	4443
2768.986	4318
2770.87	4454
2772.754	4384
2774.638	4381
2776.523	4405
2778.405	4407
2780.288	4341
2782.17	4394
2784.051	4346
2785.934	4396
2787.814	4374
2789.694	4342
2791.574	4416
2793.453	4357
2795.332	4417
2797.212	4349
2799.088	4442
2800.966	4364
2802.843	4289
2804.719	4343
2806.597	4281
2808.471	4337
2810.346	4434
2812.221	4314
2814.094	4314
2815.969	4333
2817.843	4324
2819.714	4326
2821.587	4303
2823.459	4334
2825.329	4286
2827.202	4355
2829.072	4314
2830.942	4367
2832.811	4379
2834.68	4381
2836.549	4409
2838.418	4283
2840.284	4320
2842.152	4304
2844.018	4419
2845.885	4291
2847.751	4358
2849.616	4346
2851.482	4341
2853.345	4385
2855.208	4277
2857.074	4339
2858.937	4324
2860.799	4341
2862.66	4445
2864.522	4338
2866.385	4287
2868.245	4386
2870.104	4323
2871.964	4321
2873.824	4423
2875.683	4417
2877.542	4402
2879.4	4399
2881.257	4458
2883.114	4541
2884.97	4534
2886.827	4330
2888.683	4446
2890.537	4429
2892.392	4463
2894.246	4495
2896.1	4409
2897.954	4476
2899.807	4420
2901.66	4385
2903.51	4448
2905.362	4497
2907.214	4427
2909.065	4463
2910.915	4556
2912.765	4464
2914.613	4385
2916.463	4478
2918.311	4460
2920.158	4452
2922.006	4500
2923.853	4531
2925.698	4545
2927.546	4586
2929.392	4564
2931.236	4629
2933.081	4601
2934.924	4624
2936.77	4571
2938.613	4703
2940.455	4706
2942.298	4692
2944.139	4666
2945.982	4717
2947.823	4659
2949.662	4753
2951.503	4706
2953.342	4507
2955.182	4656
2957.021	4539
2958.858	4684
2960.697	4565
2962.534	4558
2964.37	4575
2966.207	4493
2968.044	4462
2969.879	4421
2971.714	4526
2973.548	4495
2975.383	4385
2977.218	4359
2979.051	4435
2980.883	4432
2982.715	4277
2984.547	4470
2986.379	4372
2988.21	4331
2990.04	4295
2991.87	4385
2993.7	4325
2995.53	4375
2997.359	4366
2999.187	4420
3001.015	4225
3002.842	4405
3004.669	4231
3006.497	4279
3008.323	4250
3010.148	4281
3011.974	4288
3013.797	4182
3015.623	4199
3017.447	4363
3019.27	4166
3021.094	4185
3022.915	4244
3024.737	4211
3026.56	4188
3028.38	4175
3030.201	4185
3032.022	4207
3033.84	4168
3035.662	4113
3037.481	4150
3039.298	3992
3041.117	4081
3042.933	4037
3044.752	4115
3046.568	4128
3048.385	4182
3050.2	4094
3052.016	4167
3053.83	4162
3055.646	4038
3057.46	4131
3059.272	4152
3061.086	4087
3062.898	4025
3064.711	4072
3066.524	4150
3068.335	4108
3070.145	4064
3071.956	4058
3073.766	4123
3075.576	3950
3077.385	4068
3079.193	4115
3081.002	4114
3082.81	3979
3084.618	4036
3086.425	4165
3088.231	4011
3090.036	4047
3091.842	4072
3093.648	4048
3095.452	4077
3097.257	4053
3099.06	4036
3100.863	4068
3102.666	4040
3104.47	3936
3106.272	4004
3108.073	4009
3109.875	3943
3111.676	4030
3113.477	4001
3115.277	3988
3117.077	3965
3118.874	3965
3120.673	3991
3122.473	3978
3124.271	3958
3126.066	3986
3127.863	3986
3129.66	3940
3131.456	3876
3133.252	4014
3135.047	3956
3136.842	3997
3138.635	3916
3140.429	3930
3142.223	3911
3144.016	3937
3145.808	3930
3147.6	3965
3149.392	3917
3151.183	3963
3152.975	3964
3154.765	3950
3156.553	3907
3158.344	3980
3160.132	3959
3161.922	3825
3163.71	3913
3165.497	3885
3167.285	3915
3169.071	3847
3170.858	3939
3172.645	3968
3174.429	3935
3176.214	3903
3177.998	3875
3179.783	3890
3181.568	3885
3183.351	3850
3185.133	3872
3186.915	3857
3188.698	3868
3190.481	3867
3192.261	3880
3194.042	3902
3195.822	3779
3197.601	3938
3199.381	3756
3201.161	3925
3202.939	3927
3204.717	3930
3206.495	3758
3208.272	3903
3210.05	3806
3211.826	3859
3213.602	3853
3215.376	3803
3217.151	3893
3218.927	3827
3220.702	3837
3222.476	3879
3224.249	3848
3226.021	3836
3227.793	3825
3229.567	3829
3231.339	3769
3233.109	3896
3234.88	3844
3236.651	3871
3238.421	3840
3240.191	3857
3241.96	3761
3243.728	3816
3245.497	3824
3247.263	3813
3249.033	3842
3250.799	3861
3252.566	3817
3254.331	3813
3256.097	3768
3257.863	3821
3259.628	3878
3261.392	3783
3263.156	3876
3264.919	3837
3266.683	3768
3268.447	3819
3270.208	3808
3271.969	3835
3273.731	3800
3275.492	3855
3277.253	3823
3279.013	3858
3280.773	3738
3282.532	3876
3284.291	3812
3286.05	3815
3287.808	3766
3289.566	3872
3291.323	3778
3293.079	3755
3294.835	3795
3296.593	3894
3298.348	3799
3300.102	3911
3301.857	3755
3303.611	3798
3305.366	3805
3307.119	3826
3308.872	3786
3310.624	3778
3312.376	3804
3314.129	3840
3315.881	3799
3317.631	3799
3319.38	3769
3321.13	3759
3322.88	3786
3324.631	3786
3326.379	3639
3328.126	3790
3329.875	3780
3331.622	3791
3333.371	3728
3335.116	3773
3336.863	3780
3338.609	3758
3340.353	3815
3342.1	3746
3343.845	3796
3345.588	3805
3347.332	3739
3349.074	3750
3350.817	3748
3352.56	3818
3354.303	3765
3356.043	3765
3357.785	3796
3359.525	3653
3361.268	3729
3363.007	3734
3364.745	3677
3366.485	3695
3368.223	3806
3369.962	3739
3371.701	3878
3373.438	3680
3375.174	3750
3376.911	3658
3378.647	3732
3380.384	3712
3382.118	3757
3383.854	3723
3385.588	3762
3387.322	3629
3389.057	3725
3390.79	3755
3392.522	3626
3394.255	3705
3395.987	3656
3397.719	3765
3399.451	3725
3401.181	3723
3402.911	3661
3404.641	3714
3406.371	3693
3408.101	3734
3409.83	3733
3411.558	3652
3413.285	3732
3415.011	3599
3416.739	3682
3418.467	3637
3420.193	3629
3421.919	3691
3423.644	3641
3425.368	3653
3427.094	3597
3428.818	3639
3430.542	3623
3432.264	3645
3433.987	3606
3435.712	3610
3437.434	3653
3439.155	3619
3440.876	3622
3442.596	3612
3444.317	3610
3446.039	3558
3447.757	3581
3449.477	3661
3451.195	3626
3452.914	3529
3454.632	3595
3456.35	3629
3458.067	3621
3459.784	3569
3461.5	3552
3463.216	3482
3464.932	3574
3466.647	3583
3468.362	3603
3470.076	3571
3471.789	3549
3473.505	3597
3475.217	3582
3476.929	3570
3478.641	3557
3480.354	3500
3482.066	3511
3483.777	3592
3485.487	3512
3487.197	3525
3488.908	3498
3490.617	3606
3492.327	3546
3494.035	3588
3495.743	3524
3497.451	3520
3499.158	3521
3500.866	3467
3502.572	3472
3504.278	3498
3505.984	3547
3507.689	3531
3509.396	3475
3511.1	3500
3512.804	3461
3514.508	3472
3516.211	3499
3517.913	3484
3519.616	3470
3521.319	3558
3523.021	3453
3524.722	3428
3526.422	3444
3528.124	3534
3529.824	3496
3531.524	3457
3533.222	3448
3534.921	3498
3536.62	3490
3538.318	3527
3540.016	3448
3541.714	3430
3543.41	3465
3545.107	3443
3546.803	3432
3548.5	3439
3550.194	3396
3551.889	3419
3553.583	3433
3555.279	3473
3556.972	3420
3558.666	3460
3560.358	3408
3562.051	3504
3563.742	3439
3565.435	3408
3567.126	3420
3568.817	3430
3570.507	3459
3572.197	3384
3573.888	3420
3575.577	3378
3577.265	3455
3578.954	3334
3580.642	3376
3582.329	3407
3584.017	3416
3585.704	3407
3587.391	3354
3589.077	3431
3590.762	3413
3592.449	3373
3594.133	3395
3595.817	3339
3597.501	3365
3599.185	3298
3600.869	3335
3602.552	3355
3604.234	3355
3605.916	3297
3607.598	3339
3609.279	3312
3610.961	3259
3612.642	3306
3614.321	3359
3616	3304
3617.68	3337
3619.36	3274
3621.039	3398
3622.716	3336
3624.394	3289
3626.071	3364
3627.748	3328
3629.425	3368
3631.102	3350
3632.778	3350
3634.452	3262
3636.127	3247
3637.803	3283
3639.477	3278
3641.151	3279
3642.823	3222
3644.497	3206
3646.171	3289
3647.842	3327
3649.515	3278
3651.185	3255
3652.857	3247
3654.527	3262
3656.198	3293
3657.868	3288
3659.537	3313
3661.207	3236
3662.875	3236
3664.544	3274
3666.212	3199
3667.879	3283
3669.546	3262
3671.212	3153
3672.88	3251
3674.546	3228
3676.211	3258
3677.875	3226
3679.541	3221
3681.205	3270
3682.87	3230
3684.533	3216
3686.196	3202
3687.859	3254
3689.521	3187
3691.184	3273
3692.845	3248
3694.507	3138
3696.167	3229
3697.827	3239
3699.487	3297
3701.148	3187
3702.808	3260
3704.466	3184
3706.125	3138
3707.783	3157
3709.442	3190
3711.099	3191
3712.757	3249
3714.412	3230
3716.068	3205
3717.725	3137
3719.381	3158
3721.036	3083
3722.689	3104
3724.344	3124
3725.998	3251
3727.652	3142
3729.305	3190
3730.958	3212
3732.61	3193
3734.262	3198
3735.915	3183
3737.565	3136
3739.217	3071
3740.866	3145
3742.516	3230
3744.165	3170
3745.816	3177
3747.464	3118
3749.113	3075
3750.761	3148
3752.409	3159
3754.057	3119
3755.703	3199
3757.35	3145
3758.996	3089
3760.641	3142
3762.289	3103
3763.933	3098
3765.577	3126
3767.222	3091
3768.865	3125
3770.508	3140
3772.152	7365
3773.796	8602
3775.438	3963
3777.079	3044
3778.721	3113
3780.363	3136
3782.003	3059
3783.643	3148
3785.283	3013
3786.923	3125
3788.563	3108
3790.203	3016
3791.841	3054
3793.479	3153
3795.115	3108
3796.753	3028
3798.391	3010
3800.027	3060
3801.664	3082
3803.299	3085
3804.935	3103
3806.571	3026
3808.206	2965
3809.839	2988
3811.473	3038
3813.107	3107
3814.74	3061
3816.375	2984
3818.006	3042
3819.638	3032
3821.27	3028
3822.9	3001
3824.532	2984
3826.163	3024
3827.792	3044
3829.423	3032
3831.051	3049
3832.682	2996
3834.311	3002
3835.938	2974
3837.566	3000
3839.193	2978
3840.821	2953
3842.448	2994
3844.075	2978
3845.7	2988
3847.325	2990
3848.951	2951
3850.576	2943
3852.201	3000
3853.825	2927
3855.448	3011
3857.072	3058
3858.694	2984
3860.318	2974
3861.939	2952
3863.562	3004
3865.183	2938
3866.804	2895
3868.426	2882
3870.045	2985
3871.666	2973
3873.285	2933
3874.904	2930
3876.524	2954
3878.142	2922
3879.76	2927
3881.378	2878
3882.995	2947
3884.612	2888
3886.229	2970
3887.845	2936
3889.461	2952
3891.076	2956
3892.691	2901
3894.307	2909
3895.922	2968
3897.536	2988
3899.149	2932
3900.761	2946
3902.374	2913
3903.988	2980
3905.6	2867
3907.212	2944
3908.822	2981
3910.433	2888
3912.045	2940
3913.655	2957
3915.265	2906
3916.875	2904
3918.483	2928
3920.093	2861
3921.702	2859
3923.309	2989
3924.917	2894
3926.523	2855
3928.13	2920
3929.739	2827
3931.344	2906
3932.95	2929
3934.555	2858
3936.159	2846
3937.766	2881
3939.369	2887
3940.974	2861
3942.577	2867
3944.181	2911
3945.783	2850
3947.386	2831
3948.989	2802
3950.59	2883
3952.191	2816
3953.791	2836
3955.394	2782
3956.994	2807
3958.593	2873
3960.192	2810
3961.791	2917
3963.392	2790
3964.99	2816
3966.588	2909
3968.185	2822
3969.782	2810
3971.379	2838
3972.976	2795
3974.572	2858
3976.168	2769
3977.763	2877
3979.358	2825
3980.954	2831
3982.548	2851
3984.142	2751
3985.736	2813
3987.329	2754
3988.922	2827
3990.516	2750
3992.108	2722
3993.698	2733
3995.29	2827
3996.881	2815
3998.473	2825
4000.064	2754
4001.653	2731
4003.242	2771
4004.832	2766
4006.422	2776
4008.01	2707
4009.598	2719
4011.186	2757
4012.773	2774
4014.36	2750
4015.947	2706
4017.534	2710
4019.119	2716
4020.705	2703
4022.291	2780
4023.876	2740
4025.461	2722
4027.044	2756
4028.627	2722
4030.211	2690
4031.795	2677
4033.378	2665
4034.96	2697
4036.542	2682
4038.124	2706
4039.704	2779
4041.286	2698
4042.867	2632
4044.447	2659
4046.026	2676
4047.606	2757
4049.187	2696
4050.765	2645
4052.343	2690
4053.92	2673
4055.498	2669
4057.076	2653
4058.654	2666
4060.23	2675
4061.806	2645
4063.381	2678
4064.957	2670
4066.533	2624
4068.107	2656
4069.682	2605
4071.256	2692
4072.829	2624
4074.404	2716
4075.977	2618
4077.549	2723
4079.121	2678
4080.693	2693
4082.265	2648
4083.836	2594
4085.407	2621
4086.977	2709
4088.547	2639
4090.117	2667
4091.687	2609
4093.256	2587
4094.825	2598
4096.392	2617
4097.96	2655
4099.528	2597
4101.097	2602
4102.663	2652
4104.229	2626
4105.795	2620
4107.361	2584
4108.928	2617
4110.493	2688
4112.058	2549
4113.621	2656
4115.186	2652
4116.75	2640
4118.313	2514
4119.876	2582
4121.438	2581
4123	2603
4124.562	2528
4126.125	2575
4127.686	2563
4129.246	2508
4130.807	2573
4132.367	2622
4133.927	2587
4135.486	2622
4137.046	2609
4138.604	2584
4140.162	2549
4141.72	2535
4143.279	2526
4144.836	2496
4146.393	2590
4147.949	2485
4149.505	2490
4151.062	2510
4152.617	2516
4154.172	2494
4155.727	2490
4157.281	2543
4158.836	2513
4160.39	2500
4161.943	2499
4163.496	2495
4165.048	2531
4166.601	2539
4168.154	2527
4169.706	2456
4171.257	2468
4172.808	2469
4174.358	2506
4175.909	2457
4177.458	2482
4179.008	2471
4180.558	2455
4182.106	2492
4183.655	2421
4185.204	2437
4186.751	2462
4188.298	2502
4189.845	2441
4191.392	2422
4192.939	2430
4194.485	2506
4196.031	2397
4197.576	2511
4199.121	2423
4200.666	2521
4202.211	2477
4203.754	2485
4205.298	2415
4206.84	2459
4208.384	2474
4209.927	2432
4211.47	2435
4213.011	2453
4214.552	2422
4216.094	2455
4217.635	2419
4219.175	2432
4220.716	2385
4222.255	2432
4223.793	2394
4225.335	2416
4226.873	2460
4228.411	2451
4229.948	2420
4231.486	2412
4233.024	2408
4234.562	2387
4236.098	2373
4237.634	2400
4239.169	2374
4240.705	2447
4242.241	2464
4243.776	2441
4245.31	2343
4246.844	2380
4248.378	2396
4249.911	2450
4251.445	2352
4252.978	2395
4254.51	2352
4256.042	2403
4257.574	2397
4259.107	2384
4260.638	2342
4262.169	2437
4263.699	2367
4265.228	2414
4266.759	2321
4268.289	2326
4269.818	2383
4271.345	2383
4272.874	2344
4274.402	2316
4275.931	2394
4277.458	2341
4278.985	2298
4280.512	2380
4282.037	2358
4283.564	2394
4285.089	2368
4286.615	2367
4288.139	2331
4289.664	2295
4291.187	2330
4292.712	2334
4294.235	2329
4295.759	2384
4297.281	2301
4298.804	2359
4300.327	2285
4301.849	2349
4303.37	2390
4304.891	2304
4306.412	2312
4307.933	2334
4309.453	2264
4310.973	2344
4312.492	2315
