398.1873	2703
400.7097	2706
403.2336	2725
405.7547	2716
408.2751	2680
410.7948	2763
413.3138	2739
415.83	2811
418.3497	2713
420.8666	2800
423.3829	2836
425.8985	2847
428.4133	2876
430.9275	2873
433.441	2873
435.9538	2927
438.4639	2848
440.9753	2832
443.4881	2857
445.9982	2926
448.5055	2868
451.0142	2886
453.5201	2810
456.0274	2856
458.5361	2862
461.04	2901
463.5453	2866
466.0478	2836
468.5517	2858
471.0549	2957
473.5574	2811
476.0572	2877
478.5584	2898
481.0568	2918
483.5545	2903
486.0557	2858
488.5521	2965
491.0478	2936
493.5449	2949
496.0392	2944
498.5349	2928
501.0299	2927
503.5222	2943
506.0139	2906
508.5048	2970
510.9991	3016
513.4887	3009
515.9777	2985
518.4659	2987
520.9534	3017
523.4403	2995
525.9306	2982
528.4161	2974
530.9009	2978
533.3851	2997
535.8687	3060
538.3535	3018
540.8356	3025
543.3171	2941
545.7979	3009
548.278	2975
550.7595	2999
553.2383	3009
555.7144	3012
558.1918	3030
560.6685	2993
563.1446	3053
565.6221	3125
568.0968	3022
570.5688	3076
573.0422	3003
575.515	3058
577.989	3047
580.4584	3104
582.9291	3102
585.3991	3070
587.8685	3155
590.3352	3062
592.8052	3127
595.2706	3194
597.7372	3095
600.2033	3112
602.6666	3105
605.1334	3110
607.5953	3028
610.0587	3077
612.5193	3073
614.9814	3052
617.4427	3074
619.9034	3059
622.3615	3117
624.8208	3066
627.2775	3098
629.7335	3072
632.1929	3059
634.6476	3111
637.1016	3040
639.5569	3048
642.0096	3036
644.4637	3129
646.9151	3116
649.3678	3083
651.8179	3114
654.2672	3115
656.7159	3129
659.166	3165
661.6154	3179
664.0622	3174
666.5082	3085
668.9537	3126
671.4005	3078
673.8445	3085
676.288	3142
678.7308	3131
681.1729	3119
683.6163	3253
686.0572	3236
688.4973	3134
690.9368	3130
693.3757	3277
695.8138	3210
698.2534	3192
700.6902	3106
703.1245	3223
705.56	3189
707.9949	3281
710.4311	3229
712.8647	3180
715.2957	3188
717.7279	3192
720.1595	3251
722.5905	3213
725.0208	3246
727.4505	3271
729.8795	3286
732.3058	3252
734.7336	3292
737.1626	3271
739.587	3285
742.0128	3259
744.4359	3295
746.8604	3306
749.2841	3331
751.7073	3314
754.1278	3332
756.5496	3381
758.9688	3371
761.3893	3321
763.8093	3429
766.2285	3381
768.6451	3366
771.0611	3415
773.4784	3281
775.895	3347
778.3091	3389
780.7244	3359
783.1371	3386
785.5493	3268
787.9626	3375
790.3754	3398
792.7856	3401
795.1951	3477
797.6039	3348
800.0121	3390
802.4236	3370
804.8306	3423
807.2369	3373
809.6425	3461
812.0475	3445
814.4538	3387
816.8575	3375
819.2606	3396
821.663	3461
824.0648	3416
826.4659	3438
828.8683	3440
831.2682	3447
833.6674	3439
836.066	3422
838.4639	3545
840.8632	3489
843.2579	3414
845.6539	3464
848.0493	3425
850.444	3507
852.84	3502
855.2315	3441
857.6243	3506
860.0165	3571
862.4081	3527
864.797	3508
867.1892	3569
869.5789	3444
871.9659	3513
874.3542	3483
876.74	3369
879.129	3430
881.5155	3454
883.8994	3512
886.2845	3478
888.6671	3437
891.051	3426
893.4343	3510
895.8169	3435
898.197	3422
900.5783	3485
902.9571	3506
905.3372	3457
907.7167	3501
910.0936	3541
912.4698	3479
914.8474	3548
917.2244	3525
919.5987	3560
921.9744	3563
924.3475	3577
926.72	3612
929.0918	3650
931.4669	3646
933.8375	3653
936.2074	3663
938.5767	3691
940.9454	3692
943.3154	3771
945.6829	3784
948.0497	3881
950.4178	3888
952.7833	4053
955.1483	4211
957.5145	4221
959.8782	4287
962.2412	4297
964.6036	4214
966.9655	4200
969.3266	4073
971.6871	3906
974.0471	3750
976.4064	3625
978.765	3612
981.125	3629
983.4824	3647
985.8373	3627
988.1935	3604
990.549	3593
992.9039	3598
995.2602	3619
997.6119	3634
999.965	3597
1002.317	3621
1004.667	3642
1007.02	3633
1009.371	3684
1011.719	3597
1014.068	3620
1016.415	3635
1018.765	3667
1021.111	3606
1023.458	3596
1025.804	3628
1028.147	3651
1030.49	3661
1032.837	3732
1035.179	3568
1037.522	3694
1039.862	3675
1042.204	3619
1044.546	3659
1046.884	3698
1049.224	3624
1051.562	3696
1053.899	3702
1056.237	3741
1058.575	3686
1060.91	3737
1063.244	3742
1065.58	3715
1067.913	3748
1070.248	3793
1072.579	3804
1074.911	3728
1077.242	3806
1079.572	3690
1081.905	3750
1084.234	3772
1086.562	3779
1088.89	3726
1091.217	3670
1093.544	3674
1095.871	3703
1098.197	3692
1100.521	3735
1102.845	3691
1105.169	3672
1107.491	3695
1109.814	3693
1112.135	3713
1114.456	3719
1116.776	3771
1119.096	3744
1121.415	3800
1123.734	3723
1126.052	3714
1128.369	3745
1130.686	3685
1133.002	3735
1135.318	3753
1137.632	3674
1139.945	3768
1142.258	3726
1144.573	3755
1146.884	3696
1149.196	3798
1151.505	3726
1153.816	3721
1156.124	3731
1158.435	3702
1160.742	3678
1163.051	3713
1165.356	3744
1167.663	3797
1169.97	3693
1172.276	3757
1174.579	3733
1176.881	3678
1179.186	3732
1181.487	3752
1183.79	3724
1186.092	3793
1188.392	3702
1190.691	3759
1192.991	3809
1195.291	3654
1197.588	3689
1199.885	3708
1202.181	3802
1204.479	3768
1206.775	3705
1209.07	3696
1211.363	3774
1213.656	3761
1215.949	3761
1218.241	3836
1220.534	3790
1222.825	3747
1225.115	3864
1227.405	3774
1229.693	3806
1231.984	3834
1234.271	3747
1236.558	3768
1238.845	3839
1241.131	3847
1243.416	3937
1245.703	3895
1247.987	3859
1250.269	3780
1252.552	3845
1254.834	3787
1257.118	3876
1259.399	3923
1261.678	3852
1263.958	3965
1266.237	3790
1268.516	3864
1270.794	3868
1273.072	3902
1275.347	3880
1277.624	3795
1279.899	3905
1282.175	3894
1284.449	3868
1286.722	3859
1288.995	3743
1291.266	3823
1293.54	3909
1295.81	3863
1298.081	3851
1300.35	3768
1302.62	3810
1304.889	3808
1307.156	3818
1309.425	3812
1311.69	3791
1313.957	3822
1316.222	3889
1318.488	3943
1320.751	3791
1323.016	3856
1325.278	3774
1327.54	3865
1329.803	3828
1332.065	3771
1334.325	3812
1336.584	3893
1338.843	3873
1341.101	3840
1343.36	3853
1345.617	3864
1347.876	3789
1350.131	3839
1352.387	3836
1354.643	3809
1356.897	3800
1359.151	3850
1361.403	3879
1363.656	3836
1365.909	3889
1368.16	3890
1370.409	3846
1372.659	3927
1374.909	3917
1377.157	3802
1379.407	3839
1381.655	3853
1383.9	3813
1386.147	3939
1388.393	3911
1390.64	3920
1392.885	3926
1395.127	3933
1397.37	3917
1399.614	3859
1401.854	3928
1404.098	3907
1406.339	3939
1408.578	3936
1410.818	3965
1413.056	3931
1415.297	3897
1417.533	4003
1419.771	3938
1422.006	3971
1424.243	3979
1426.479	3957
1428.715	3971
1430.948	3972
1433.182	4064
1435.414	3968
1437.647	3974
1439.88	3994
1442.11	4051
1444.342	4050
1446.571	4080
1448.799	3987
1451.029	4052
1453.258	4042
1455.485	3994
1457.711	4043
1459.937	4022
1462.164	4012
1464.39	4145
1466.614	4086
1468.838	4011
1471.06	3931
1473.283	3996
1475.506	3949
1477.727	4014
1479.949	3962
1482.169	3991
1484.389	3884
1486.609	3924
1488.828	3944
1491.045	3944
1493.261	3917
1495.477	3911
1497.693	3916
1499.91	3946
1502.125	3866
1504.339	3940
1506.553	3906
1508.766	3888
1510.979	3932
1513.191	3802
1515.402	3903
1517.613	3949
1519.823	3893
1522.033	3897
1524.242	3912
1526.451	3889
1528.657	3945
1530.865	3877
1533.072	3856
1535.278	3901
1537.484	3970
1539.687	3853
1541.892	3968
1544.096	3919
1546.299	3929
1548.502	3947
1550.703	3936
1552.905	4013
1555.104	3880
1557.303	4009
1559.505	3957
1561.703	3951
1563.902	3988
1566.099	3939
1568.295	4103
1570.494	4034
1572.689	3980
1574.883	4028
1577.079	3964
1579.272	4128
1581.467	4104
1583.659	4016
1585.853	4005
1588.044	4022
1590.234	4064
1592.424	4011
1594.615	4085
1596.806	3976
1598.994	4063
1601.182	4052
1603.369	4090
1605.557	4098
1607.744	4111
1609.929	4126
1612.114	4011
1614.298	4022
1616.482	4070
1618.667	4006
1620.85	4037
1623.032	4085
1625.214	3981
1627.395	4089
1629.575	4096
1631.755	4130
1633.935	4169
1636.114	4127
1638.292	4107
1640.471	4141
1642.647	4048
1644.823	4162
1647	4114
1649.175	4159
1651.348	4076
1653.525	4097
1655.698	4072
1657.87	4103
1660.043	4139
1662.213	4192
1664.387	4102
1666.558	4164
1668.727	4162
1670.896	4160
1673.064	4124
1675.233	4097
1677.401	4083
1679.569	4130
1681.735	4167
1683.902	4151
1686.066	4142
1688.233	4177
1690.397	4138
1692.559	4089
1694.723	4091
1696.885	4103
1699.048	4012
1701.21	4125
1703.37	4141
1705.53	4024
1707.689	4111
1709.849	4101
1712.009	4069
1714.166	4153
1716.323	4116
1718.479	4068
1720.634	4143
1722.793	4128
1724.948	4089
1727.102	4060
1729.255	4119
1731.408	4034
1733.562	4123
1735.714	4086
1737.865	4093
1740.016	4111
1742.166	4074
1744.316	4091
1746.467	4078
1748.616	4179
1750.764	4156
1752.911	4124
1755.056	4135
1757.205	4091
1759.35	4130
1761.496	4155
1763.641	4101
1765.785	4082
1767.927	4171
1770.072	4176
1772.214	4147
1774.355	4178
1776.496	4198
1778.637	4104
1780.778	4087
1782.918	4140
1785.057	4084
1787.194	4121
1789.333	4117
1791.472	4157
1793.608	4148
1795.745	4177
1797.879	4174
1800.015	4201
1802.148	4111
1804.284	4157
1806.417	4190
1808.548	4166
1810.682	4093
1812.812	4178
1814.946	4140
1817.075	4181
1819.205	4159
1821.335	4167
1823.463	4267
1825.59	4166
1827.721	4098
1829.847	4241
1831.973	4160
1834.098	4149
1836.223	4072
1838.351	4168
1840.475	4109
1842.598	4119
1844.721	4197
1846.843	4123
1848.966	4116
1851.087	4171
1853.21	4125
1855.33	4108
1857.449	4145
1859.568	4062
1861.688	4147
1863.806	4123
1865.924	4209
1868.039	4188
1870.155	4159
1872.273	4101
1874.388	4118
1876.503	4078
1878.617	4119
1880.73	4157
1882.844	4137
1884.956	4119
1887.068	4100
1889.18	4219
1891.291	4188
1893.4	4226
1895.511	4166
1897.621	4161
1899.73	4207
1901.837	4158
1903.944	4154
1906.053	4198
1908.159	4172
1910.265	4242
1912.369	4170
1914.474	4192
1916.577	4231
1918.683	4271
1920.785	4239
1922.888	4202
1924.989	4174
1927.091	4147
1929.193	4340
1931.294	4184
1933.393	4219
1935.493	4273
1937.59	4241
1939.689	4246
1941.788	4296
1943.884	4177
1945.98	4289
1948.077	4192
1950.171	4268
1952.267	4183
1954.361	4245
1956.455	4258
1958.548	4304
1960.64	4223
1962.733	4280
1964.824	4218
1966.915	4267
1969.005	4299
1971.096	4329
1973.185	4279
1975.275	4124
1977.363	4176
1979.45	4214
1981.537	4191
1983.623	4272
1985.711	4289
1987.796	4233
1989.881	4256
1991.965	4243
1994.047	4214
1996.132	4170
1998.215	4130
2000.297	4190
2002.378	4260
2004.46	4263
2006.54	4134
2008.62	4225
2010.7	4226
2012.779	4289
2014.858	4206
2016.934	4245
2019.013	4247
2021.09	4237
2023.165	4236
2025.241	4255
2027.317	4299
2029.39	4183
2031.466	4229
2033.538	4288
2035.612	4219
2037.683	4178
2039.755	4105
2041.827	4221
2043.898	4253
2045.968	4306
2048.038	4216
2050.106	4276
2052.177	4210
2054.244	4245
2056.313	4261
2058.379	4254
2060.444	4285
2062.511	4208
2064.577	4295
2066.641	4346
2068.705	4255
2070.77	4266
2072.832	4264
2074.896	4273
2076.958	4245
2079.02	4205
2081.081	4222
2083.141	4286
2085.2	4178
2087.261	4310
2089.319	4272
2091.377	4181
2093.435	4253
2095.492	4256
2097.552	4261
2099.607	4262
2101.663	4265
2103.718	4216
2105.771	4284
2107.826	4222
2109.879	4345
2111.932	4247
2113.985	4270
2116.037	4264
2118.088	4236
2120.141	4257
2122.191	4206
2124.239	4208
2126.288	4332
2128.337	4309
2130.387	4228
2132.434	4312
2134.481	4230
2136.528	4178
2138.574	4279
2140.618	4229
2142.665	4271
2144.71	4247
2146.753	4303
2148.797	4249
2150.838	4327
2152.883	4233
2154.923	4319
2156.965	4267
2159.007	4292
2161.046	4227
2163.086	4269
2165.126	4236
2167.163	4192
2169.202	4233
2171.239	4215
2173.277	4211
2175.314	4191
2177.349	4215
2179.385	4236
2181.42	4185
2183.453	4227
2185.49	4192
2187.522	4205
2189.555	4195
2191.586	4172
2193.619	4189
2195.651	4231
2197.682	4168
2199.711	4230
2201.74	4182
2203.769	4192
2205.799	4136
2207.828	4190
2209.855	4219
2211.882	4176
2213.908	4125
2215.934	4212
2217.961	4244
2219.986	4208
2222.01	4209
2224.034	4235
2226.057	4118
2228.08	4176
2230.104	4168
2232.124	4299
2234.145	4188
2236.166	4160
2238.186	4249
2240.207	4196
2242.227	4215
2244.244	4163
2246.262	4188
2248.28	4220
2250.299	4152
2252.314	4201
2254.33	4229
2256.346	4152
2258.36	4269
2260.375	4193
2262.391	4194
2264.403	4257
2266.416	4202
2268.427	4172
2270.44	4185
2272.453	4177
2274.463	4254
2276.474	4334
2278.483	4266
2280.493	4210
2282.501	4245
2284.51	4220
2286.518	4265
2288.524	4140
2290.532	4207
2292.537	4184
2294.544	4063
2296.55	4183
2298.554	4112
2300.557	4225
2302.562	4173
2304.566	4118
2306.568	4229
2308.569	4221
2310.572	4209
2312.573	4216
2314.573	4120
2316.574	4177
2318.573	4143
2320.571	4177
2322.571	4225
2324.569	4141
2326.567	4166
2328.564	4092
2330.56	4236
2332.556	4152
2334.551	4260
2336.546	4124
2338.542	4184
2340.535	4166
2342.529	4191
2344.521	4163
2346.512	4056
2348.505	4091
2350.497	4158
2352.487	4270
2354.478	4158
2356.468	4123
2358.457	4090
2360.446	4190
2362.434	4161
2364.422	4160
2366.408	4140
2368.395	4124
2370.383	4185
2372.369	4118
2374.353	4193
2376.338	4095
2378.321	4171
2380.307	4041
2382.29	4179
2384.272	4103
2386.254	4171
2388.235	4150
2390.218	4091
2392.198	4097
2394.179	4082
2396.157	4046
2398.137	4219
2400.115	4110
2402.095	4082
2404.072	4093
2406.048	4121
2408.026	4158
2410.001	4084
2411.977	4110
2413.953	4109
2415.927	4042
2417.9	4060
2419.875	4159
2421.847	4122
2423.821	4179
2425.792	4089
2427.763	4134
2429.736	4192
2431.706	4132
2433.677	4124
2435.646	4095
2437.615	4164
2439.583	4077
2441.551	4193
2443.519	4143
2445.486	4093
2447.452	4086
2449.418	4056
2451.383	4144
2453.348	4107
2455.314	4085
2457.278	4066
2459.241	4071
2461.205	4047
2463.167	4158
2465.131	4118
2467.091	4133
2469.052	4017
2471.012	3962
2472.972	4118
2474.932	4140
2476.891	4111
2478.85	4081
2480.808	4101
2482.766	4110
2484.722	4166
2486.68	4073
2488.636	4164
2490.591	4026
2492.546	4133
2494.5	4105
2496.456	4056
2498.41	4086
2500.362	4027
2502.315	4161
2504.266	4072
2506.218	4064
2508.169	4042
2510.121	4013
2512.07	3984
2514.019	4061
2515.968	4156
2517.918	4173
2519.866	4168
2521.813	4136
2523.76	4108
2525.707	4078
2527.653	4110
2529.599	4030
2531.543	4106
2533.489	4125
2535.433	4079
2537.376	4015
2539.32	4073
2541.264	4078
2543.205	4088
2545.147	3929
2547.087	4088
2549.029	3976
2550.969	4103
2552.908	4039
2554.847	4049
2556.786	3971
2558.724	4040
2560.663	4065
2562.6	4056
2564.537	4073
2566.473	4033
2568.408	4056
2570.345	3991
2572.28	4096
2574.214	4080
2576.148	4039
2578.081	4099
2580.014	4060
2581.947	4059
2583.879	4099
2585.81	3985
2587.741	4031
2589.67	4013
2591.602	4029
2593.532	4129
2595.461	4030
2597.388	4129
2599.316	4127
2601.244	4093
2603.172	4102
2605.098	4052
2607.023	4098
2608.949	4092
2610.873	4139
2612.8	4130
2614.723	4147
2616.647	4145
2618.569	4071
2620.493	4048
2622.416	4117
2624.338	4042
2626.258	4027
2628.179	4086
2630.099	4096
2632.019	4110
2633.939	4134
2635.857	4086
2637.775	4132
2639.694	4190
2641.61	4144
2643.528	4161
2645.444	4201
2647.361	4131
2649.276	4194
2651.19	4088
2653.105	4123
2655.019	4134
2656.934	4221
2658.846	4141
2660.758	4127
2662.67	4081
2664.583	4154
2666.493	4031
2668.404	4088
2670.313	4109
2672.223	4069
2674.134	4057
2676.042	4136
2677.95	4049
2679.858	4048
2681.765	4099
2683.673	3945
2685.579	4094
2687.483	4078
2689.389	4147
2691.294	4069
2693.198	4101
2695.104	4087
2697.006	4009
2698.909	4060
2700.811	4080
2702.713	4051
2704.615	4020
2706.516	4052
2708.417	4036
2710.316	4034
2712.216	4022
2714.115	4082
2716.014	4027
2717.913	4091
2719.81	4043
2721.707	4062
2723.603	4049
2725.501	4021
2727.396	4077
2729.292	4043
2731.186	4052
2733.081	4017
2734.976	4007
2736.87	4038
2738.762	4051
2740.653	4093
2742.546	3979
2744.437	3991
2746.329	4011
2748.22	3984
2750.11	4001
2751.999	4023
2753.889	4021
2755.778	4079
2757.666	3970
2759.553	4077
2761.44	4031
2763.328	3989
2765.215	4097
2767.101	4044
2768.986	4116
2770.87	4039
2772.754	4034
2774.638	4020
2776.523	4044
2778.405	4036
2780.288	4104
2782.17	4035
2784.051	4000
2785.934	4079
2787.814	4020
2789.694	4085
2791.574	3991
2793.453	4008
2795.332	3999
2797.212	3978
2799.088	3980
2800.966	3979
2802.843	4054
2804.719	4017
2806.597	4022
2808.471	4008
2810.346	3988
2812.221	3983
2814.094	3972
2815.969	4017
2817.843	4009
2819.714	4012
2821.587	3975
2823.459	4036
2825.329	3918
2827.202	4000
2829.072	4072
2830.942	4075
2832.811	4036
2834.68	4043
2836.549	4004
2838.418	4011
2840.284	4106
2842.152	3990
2844.018	3990
2845.885	3929
2847.751	4005
2849.616	4016
2851.482	4010
2853.345	4028
2855.208	4000
2857.074	3958
2858.937	4093
2860.799	4029
2862.66	4023
2864.522	3997
2866.385	4051
2868.245	4078
2870.104	4114
2871.964	4095
2873.824	4088
2875.683	4212
2877.542	4143
2879.4	4250
2881.257	4209
2883.114	4235
2884.97	4174
2886.827	4176
2888.683	4231
2890.537	4257
2892.392	4129
2894.246	4191
2896.1	4191
2897.954	4164
2899.807	4259
2901.66	4158
2903.51	4144
2905.362	4099
2907.214	4175
2909.065	4267
2910.915	4290
2912.765	4241
2914.613	4204
2916.463	4318
2918.311	4362
2920.158	4267
2922.006	4302
2923.853	4351
2925.698	4343
2927.546	4418
2929.392	4430
2931.236	4416
2933.081	4550
2934.924	4456
2936.77	4508
2938.613	4499
2940.455	4586
2942.298	4594
2944.139	4576
2945.982	4600
2947.823	4573
2949.662	4498
2951.503	4423
2953.342	4422
2955.182	4394
2957.021	4444
2958.858	4433
2960.697	4383
2962.534	4274
2964.37	4393
2966.207	4319
2968.044	4285
2969.879	4224
2971.714	4222
2973.548	4219
2975.383	4202
2977.218	4212
2979.051	4213
2980.883	4235
2982.715	4144
2984.547	4246
2986.379	4199
2988.21	4218
2990.04	4102
2991.87	4233
2993.7	4121
2995.53	4107
2997.359	4105
2999.187	4118
3001.015	4056
3002.842	4064
3004.669	3998
3006.497	4015
3008.323	3988
3010.148	4002
3011.974	3921
3013.797	4008
3015.623	3858
3017.447	3907
3019.27	3879
3021.094	3914
3022.915	3954
3024.737	3895
3026.56	3947
3028.38	3864
3030.201	3882
3032.022	3888
3033.84	3847
3035.662	3852
3037.481	3848
3039.298	3948
3041.117	3869
3042.933	3834
3044.752	3843
3046.568	3875
3048.385	3790
3050.2	3840
3052.016	3903
3053.83	3841
3055.646	3892
3057.46	3804
3059.272	3828
3061.086	3815
3062.898	3872
3064.711	3866
3066.524	3822
3068.335	3859
3070.145	3869
3071.956	3842
3073.766	3847
3075.576	3900
3077.385	3838
3079.193	3839
3081.002	3793
3082.81	3884
3084.618	3787
3086.425	3839
3088.231	3732
3090.036	3821
3091.842	3770
3093.648	3812
3095.452	3772
3097.257	3715
3099.06	3729
3100.863	3804
3102.666	3775
3104.47	3778
3106.272	3669
3108.073	3866
3109.875	3721
3111.676	3706
3113.477	3706
3115.277	3687
3117.077	3643
3118.874	3636
3120.673	3818
3122.473	3740
3124.271	3703
3126.066	3741
3127.863	3716
3129.66	3731
3131.456	3675
3133.252	3719
3135.047	3799
3136.842	3757
3138.635	3656
3140.429	3686
3142.223	3778
3144.016	3743
3145.808	3684
3147.6	3680
3149.392	3725
3151.183	3659
3152.975	3655
3154.765	3752
3156.553	3637
3158.344	3664
3160.132	3697
3161.922	3686
3163.71	3626
3165.497	3556
3167.285	3645
3169.071	3717
3170.858	3630
3172.645	3677
3174.429	3653
3176.214	3661
3177.998	3707
3179.783	3673
3181.568	3680
3183.351	3595
3185.133	3613
3186.915	3624
3188.698	3698
3190.481	3664
3192.261	3633
3194.042	3650
3195.822	3537
3197.601	3598
3199.381	3641
3201.161	3718
3202.939	3609
3204.717	3627
3206.495	3596
3208.272	3655
3210.05	3668
3211.826	3634
3213.602	3517
3215.376	3557
3217.151	3652
3218.927	3622
3220.702	3593
3222.476	3641
3224.249	3669
3226.021	3589
3227.793	3629
3229.567	3536
3231.339	3619
3233.109	3633
3234.88	3554
3236.651	3630
3238.421	3597
3240.191	3511
3241.96	3610
3243.728	3619
3245.497	3614
3247.263	3699
3249.033	3624
3250.799	3632
3252.566	3541
3254.331	3560
3256.097	3572
3257.863	3588
3259.628	3626
3261.392	3680
3263.156	3528
3264.919	3602
3266.683	3634
3268.447	3603
3270.208	3582
3271.969	3572
3273.731	3664
3275.492	3622
3277.253	3614
3279.013	3598
3280.773	3578
3282.532	3638
3284.291	3590
3286.05	3699
3287.808	3591
3289.566	3686
3291.323	3630
3293.079	3621
3294.835	3618
3296.593	3554
3298.348	3605
3300.102	3611
3301.857	3664
3303.611	3635
3305.366	3637
3307.119	3558
3308.872	3651
3310.624	3620
3312.376	3593
3314.129	3546
3315.881	3609
3317.631	3635
3319.38	3608
3321.13	3602
3322.88	3602
3324.631	3619
3326.379	3620
3328.126	3716
3329.875	3605
3331.622	3547
3333.371	3607
3335.116	3613
3336.863	3562
3338.609	3614
3340.353	3548
3342.1	3596
3343.845	3629
3345.588	3618
3347.332	3615
3349.074	3588
3350.817	3524
3352.56	3627
3354.303	3593
3356.043	3584
3357.785	3603
3359.525	3578
3361.268	3557
3363.007	3546
3364.745	3548
3366.485	3546
3368.223	3610
3369.962	3572
3371.701	3585
3373.438	3542
3375.174	3514
3376.911	3537
3378.647	3586
3380.384	3475
3382.118	3533
3383.854	3512
3385.588	3534
3387.322	3501
3389.057	3426
3390.79	3508
3392.522	3558
3394.255	3593
3395.987	3501
3397.719	3512
3399.451	3549
3401.181	3592
3402.911	3455
3404.641	3551
3406.371	3394
3408.101	3526
3409.83	3546
3411.558	3446
3413.285	3543
3415.011	3482
3416.739	3570
3418.467	3424
3420.193	3542
3421.919	3449
3423.644	3439
3425.368	3459
3427.094	3414
3428.818	3466
3430.542	3467
3432.264	3529
3433.987	3391
3435.712	3499
3437.434	3435
3439.155	3472
3440.876	3442
3442.596	3381
3444.317	3425
3446.039	3404
3447.757	3431
3449.477	3413
3451.195	3366
3452.914	3526
3454.632	3437
3456.35	3313
3458.067	3415
3459.784	3416
3461.5	3395
3463.216	3417
3464.932	3441
3466.647	3434
3468.362	3431
3470.076	3367
3471.789	3388
3473.505	3381
3475.217	3368
3476.929	3395
3478.641	3431
3480.354	3388
3482.066	3370
3483.777	3351
3485.487	3347
3487.197	3371
3488.908	3330
3490.617	3413
3492.327	3329
3494.035	3334
3495.743	3407
3497.451	3351
3499.158	3340
3500.866	3390
3502.572	3237
3504.278	3293
3505.984	3350
3507.689	3308
3509.396	3321
3511.1	3288
3512.804	3335
3514.508	3408
3516.211	3311
3517.913	3270
3519.616	3285
3521.319	3324
3523.021	3282
3524.722	3293
3526.422	3347
3528.124	3259
3529.824	3301
3531.524	3287
3533.222	3339
3534.921	3275
3536.62	3316
3538.318	3250
3540.016	3244
3541.714	3248
3543.41	3284
3545.107	3265
3546.803	3297
3548.5	3253
3550.194	3355
3551.889	3277
3553.583	3263
3555.279	3249
3556.972	3350
3558.666	3240
3560.358	3273
3562.051	3286
3563.742	3249
3565.435	3292
3567.126	3244
3568.817	3289
3570.507	3190
3572.197	3288
3573.888	3201
3575.577	3285
3577.265	3267
3578.954	3198
3580.642	3238
3582.329	3188
3584.017	3180
3585.704	3179
3587.391	3234
3589.077	3211
3590.762	3227
3592.449	3197
3594.133	3221
3595.817	3144
3597.501	3198
3599.185	3245
3600.869	3193
3602.552	3274
3604.234	3179
3605.916	3210
3607.598	3174
3609.279	3210
3610.961	3202
3612.642	3162
3614.321	3157
3616	3131
3617.68	3087
3619.36	3174
3621.039	3122
3622.716	3155
3624.394	3132
3626.071	3136
3627.748	3160
3629.425	3155
3631.102	3120
3632.778	3123
3634.452	3121
3636.127	3090
3637.803	3098
3639.477	3158
3641.151	3141
3642.823	3078
3644.497	3098
3646.171	3161
3647.842	3086
3649.515	3160
3651.185	3107
3652.857	3006
3654.527	3115
3656.198	3087
3657.868	3095
3659.537	3092
3661.207	3065
3662.875	3132
3664.544	3134
3666.212	3073
3667.879	3036
3669.546	3101
3671.212	3109
3672.88	2980
3674.546	3073
3676.211	3077
3677.875	3042
3679.541	3070
3681.205	3071
3682.87	3138
3684.533	3054
3686.196	3067
3687.859	3064
3689.521	3070
3691.184	3104
3692.845	2989
3694.507	3060
3696.167	3027
3697.827	3028
3699.487	3065
3701.148	3002
3702.808	3023
3704.466	3030
3706.125	3058
3707.783	3061
3709.442	3027
3711.099	3114
3712.757	3023
3714.412	3047
3716.068	3021
3717.725	3048
3719.381	3039
3721.036	3078
3722.689	3113
3724.344	3068
3725.998	2981
3727.652	3027
3729.305	2981
3730.958	2998
3732.61	3052
3734.262	3040
3735.915	2954
3737.565	2992
3739.217	2982
3740.866	3008
3742.516	3044
3744.165	2954
3745.816	2980
3747.464	2956
3749.113	3035
3750.761	2966
3752.409	2920
3754.057	3008
3755.703	3016
3757.35	2966
3758.996	3038
3760.641	2980
3762.289	2911
3763.933	3048
3765.577	3064
3767.222	2944
3768.865	2961
3770.508	2920
3772.152	3015
3773.796	3023
3775.438	3023
3777.079	2925
3778.721	2929
3780.363	2990
3782.003	2936
3783.643	2975
3785.283	2930
3786.923	2942
3788.563	2919
3790.203	2903
3791.841	2942
3793.479	2932
3795.115	2904
3796.753	2961
3798.391	2842
3800.027	2924
3801.664	2906
3803.299	2940
3804.935	2965
3806.571	2944
3808.206	2892
3809.839	2944
3811.473	2933
3813.107	2849
3814.74	2920
3816.375	2911
3818.006	2819
3819.638	2912
3821.27	2858
3822.9	2887
3824.532	2847
3826.163	2882
3827.792	2865
3829.423	2859
3831.051	2932
3832.682	2899
3834.311	2869
3835.938	2832
3837.566	2864
3839.193	2941
3840.821	2822
3842.448	2845
3844.075	2855
3845.7	2884
3847.325	2864
3848.951	2844
3850.576	2886
3852.201	2827
3853.825	2865
3855.448	2848
3857.072	2909
3858.694	2819
3860.318	2823
3861.939	2799
3863.562	2806
3865.183	2867
3866.804	2775
3868.426	2865
3870.045	2862
3871.666	2785
3873.285	2789
3874.904	2769
3876.524	2879
3878.142	2748
3879.76	2828
3881.378	2823
3882.995	2838
3884.612	2831
3886.229	2858
3887.845	2835
3889.461	2776
3891.076	2805
3892.691	2789
3894.307	2762
3895.922	2821
3897.536	2791
3899.149	2842
3900.761	2819
3902.374	2746
3903.988	2868
3905.6	2769
3907.212	2822
3908.822	2793
3910.433	2719
3912.045	2774
3913.655	2840
3915.265	2786
3916.875	2731
3918.483	2826
3920.093	2758
3921.702	2817
3923.309	2769
3924.917	2829
3926.523	2725
3928.13	2776
3929.739	2754
3931.344	2711
3932.95	2787
3934.555	2756
3936.159	2761
3937.766	2702
3939.369	2743
3940.974	2745
3942.577	2787
3944.181	2724
3945.783	2788
3947.386	2722
3948.989	2784
3950.59	2734
3952.191	2762
3953.791	2794
3955.394	2724
3956.994	2752
3958.593	2807
3960.192	2742
3961.791	2734
3963.392	2736
3964.99	2704
3966.588	2749
3968.185	2746
3969.782	2716
3971.379	2746
3972.976	2665
3974.572	2723
3976.168	2745
3977.763	2688
3979.358	2658
3980.954	2782
3982.548	2687
3984.142	2737
3985.736	2692
3987.329	2694
3988.922	2732
3990.516	2632
3992.108	2716
3993.698	2655
3995.29	2589
3996.881	2660
3998.473	2693
4000.064	2604
4001.653	2720
4003.242	2649
4004.832	2696
4006.422	2674
4008.01	2661
4009.598	2621
4011.186	2654
4012.773	2640
4014.36	2636
4015.947	2613
4017.534	2696
4019.119	2588
4020.705	2677
4022.291	2596
4023.876	2658
4025.461	2638
4027.044	2612
4028.627	2556
4030.211	2552
4031.795	2588
4033.378	2639
4034.96	2638
4036.542	2649
4038.124	2615
4039.704	2637
4041.286	2568
4042.867	2617
4044.447	2642
4046.026	2659
4047.606	2587
4049.187	2586
4050.765	2602
4052.343	2578
4053.92	2563
4055.498	2565
4057.076	2583
4058.654	2587
4060.23	2628
4061.806	2580
4063.381	2561
4064.957	2615
4066.533	2580
4068.107	2583
4069.682	2574
4071.256	2543
4072.829	2535
4074.404	2601
4075.977	2511
4077.549	2542
4079.121	2543
4080.693	2472
4082.265	2613
4083.836	2634
4085.407	2539
4086.977	2526
4088.547	2489
4090.117	2548
4091.687	2534
4093.256	2563
4094.825	2563
4096.392	2551
4097.96	2515
4099.528	2562
4101.097	2490
4102.663	2498
4104.229	2579
4105.795	2498
4107.361	2478
4108.928	2459
4110.493	2549
4112.058	2518
4113.621	2521
4115.186	2545
4116.75	2600
4118.313	2497
4119.876	2547
4121.438	2543
4123	2475
4124.562	2483
4126.125	2503
4127.686	2507
4129.246	2441
4130.807	2484
4132.367	2450
4133.927	2512
4135.486	2458
4137.046	2430
4138.604	2472
4140.162	2471
4141.72	2538
4143.279	2462
4144.836	2435
4146.393	2477
4147.949	2471
4149.505	2443
4151.062	2409
4152.617	2498
4154.172	2493
4155.727	2416
4157.281	2474
4158.836	2412
4160.39	2431
4161.943	2425
4163.496	2443
4165.048	2435
4166.601	2463
4168.154	2425
4169.706	2415
4171.257	2365
4172.808	2408
4174.358	2402
4175.909	2375
4177.458	2391
4179.008	2433
4180.558	2361
4182.106	2389
4183.655	2372
4185.204	2356
4186.751	2399
4188.298	2365
4189.845	2374
4191.392	2407
4192.939	2366
4194.485	2414
4196.031	2380
4197.576	2356
4199.121	2412
4200.666	2379
4202.211	2349
4203.754	2398
4205.298	2323
4206.84	2355
4208.384	2355
4209.927	2371
4211.47	2325
4213.011	2355
4214.552	2343
4216.094	2310
4217.635	2365
4219.175	2364
4220.716	2322
4222.255	2391
4223.793	2419
4225.335	2356
4226.873	2256
4228.411	2354
4229.948	2360
4231.486	2302
4233.024	2358
4234.562	2318
4236.098	2369
4237.634	2326
4239.169	2266
4240.705	2315
4242.241	2294
4243.776	2354
4245.31	2374
4246.844	2322
4248.378	2392
4249.911	2318
4251.445	2344
4252.978	2295
4254.51	2344
4256.042	2363
4257.574	2273
4259.107	2311
4260.638	2342
4262.169	2301
4263.699	2233
4265.228	2281
4266.759	2344
4268.289	2285
4269.818	2321
4271.345	2309
4272.874	2318
4274.402	2319
4275.931	2245
4277.458	2287
4278.985	2297
4280.512	2277
4282.037	2245
4283.564	2295
4285.089	2281
4286.615	2303
4288.139	2310
4289.664	2276
4291.187	2252
4292.712	2298
4294.235	2283
4295.759	2234
4297.281	2228
4298.804	2233
4300.327	2242
4301.849	2255
4303.37	2264
4304.891	2317
4306.412	2292
4307.933	2323
4309.453	2236
4310.973	2229
4312.492	2233
