398.1873	2890
400.7097	2894
403.2336	2872
405.7547	2857
408.2751	2913
410.7948	2804
413.3138	2888
415.83	2877
418.3497	2949
420.8666	2923
423.3829	2958
425.8985	3018
428.4133	3004
430.9275	2970
433.441	3064
435.9538	3077
438.4639	3072
440.9753	2941
443.4881	3086
445.9982	3035
448.5055	3050
451.0142	3035
453.5201	3089
456.0274	3051
458.5361	3009
461.04	3050
463.5453	3060
466.0478	3042
468.5517	3081
471.0549	3077
473.5574	3021
476.0572	3062
478.5584	3092
481.0568	2975
483.5545	3082
486.0557	3103
488.5521	3067
491.0478	3120
493.5449	3048
496.0392	3108
498.5349	3093
501.0299	3137
503.5222	3058
506.0139	3109
508.5048	3041
510.9991	3069
513.4887	3113
515.9777	3168
518.4659	3131
520.9534	3151
523.4403	3170
525.9306	3103
528.4161	3145
530.9009	3179
533.3851	3188
535.8687	3133
538.3535	3199
540.8356	3164
543.3171	3128
545.7979	3139
548.278	3142
550.7595	3141
553.2383	3165
555.7144	3190
558.1918	3132
560.6685	3224
563.1446	3163
565.6221	3230
568.0968	3258
570.5688	3192
573.0422	3248
575.515	3251
577.989	3205
580.4584	3295
582.9291	3272
585.3991	3266
587.8685	3195
590.3352	3291
592.8052	3275
595.2706	3301
597.7372	3303
600.2033	3281
602.6666	3260
605.1334	3279
607.5953	3217
610.0587	3217
612.5193	3303
614.9814	3250
617.4427	3238
619.9034	3238
622.3615	3201
624.8208	3327
627.2775	3210
629.7335	3232
632.1929	3207
634.6476	3200
637.1016	3291
639.5569	3296
642.0096	3237
644.4637	3279
646.9151	3313
649.3678	3184
651.8179	3174
654.2672	3290
656.7159	3300
659.166	3366
661.6154	3293
664.0622	3296
666.5082	3289
668.9537	3325
671.4005	3367
673.8445	3301
676.288	3278
678.7308	3352
681.1729	3351
683.6163	3376
686.0572	3265
688.4973	3398
690.9368	3305
693.3757	3282
695.8138	3366
698.2534	3351
700.6902	3321
703.1245	3337
705.56	3407
707.9949	3377
710.4311	3415
712.8647	3263
715.2957	3362
717.7279	3463
720.1595	3389
722.5905	3434
725.0208	3368
727.4505	3460
729.8795	3488
732.3058	3418
734.7336	3495
737.1626	3528
739.587	3443
742.0128	3432
744.4359	3510
746.8604	3509
749.2841	3459
751.7073	3554
754.1278	3506
756.5496	3490
758.9688	3544
761.3893	3517
763.8093	3595
766.2285	3635
768.6451	3622
771.0611	3573
773.4784	3533
775.895	3570
778.3091	3543
780.7244	3531
783.1371	3579
785.5493	3614
787.9626	3594
790.3754	3603
792.7856	3538
795.1951	3550
797.6039	3540
800.0121	3629
802.4236	3568
804.8306	3591
807.2369	3591
809.6425	3628
812.0475	3610
814.4538	3547
816.8575	3575
819.2606	3636
821.663	3612
824.0648	3599
826.4659	3603
828.8683	3592
831.2682	3621
833.6674	3701
836.066	3637
838.4639	3589
840.8632	3631
843.2579	3606
845.6539	3621
848.0493	3623
850.444	3640
852.84	3649
855.2315	3624
857.6243	3681
860.0165	3570
862.4081	3573
864.797	3662
867.1892	3643
869.5789	3716
871.9659	3683
874.3542	3702
876.74	3658
879.129	3722
881.5155	3583
883.8994	3748
886.2845	3640
888.6671	3588
891.051	3660
893.4343	3635
895.8169	3679
898.197	3677
900.5783	3641
902.9571	3700
905.3372	3611
907.7167	3638
910.0936	3716
912.4698	3659
914.8474	3703
917.2244	3669
919.5987	3831
921.9744	3734
924.3475	3806
926.72	3796
929.0918	3801
931.4669	3741
933.8375	3865
936.2074	3838
938.5767	3979
940.9454	3917
943.3154	3889
945.6829	4083
948.0497	4120
950.4178	4220
952.7833	4280
955.1483	4381
957.5145	4499
959.8782	4599
962.2412	4558
964.6036	4416
966.9655	4329
969.3266	4227
971.6871	4153
974.0471	3920
976.4064	3901
978.765	3879
981.125	3831
983.4824	3841
985.8373	3852
988.1935	3895
990.549	3715
992.9039	3879
995.2602	3779
997.6119	3840
999.965	3841
1002.317	3832
1004.667	3857
1007.02	3842
1009.371	3824
1011.719	3844
1014.068	3834
1016.415	3853
1018.765	3911
1021.111	3839
1023.458	3850
1025.804	3918
1028.147	3841
1030.49	3877
1032.837	3899
1035.179	3820
1037.522	3974
1039.862	3881
1042.204	3896
1044.546	3916
1046.884	3885
1049.224	3927
1051.562	3950
1053.899	3889
1056.237	3960
1058.575	3905
1060.91	4013
1063.244	3960
1065.58	3948
1067.913	3945
1070.248	3955
1072.579	4025
1074.911	4029
1077.242	3977
1079.572	3977
1081.905	4024
1084.234	3942
1086.562	3997
1088.89	3874
1091.217	3917
1093.544	3953
1095.871	3967
1098.197	3907
1100.521	3853
1102.845	3878
1105.169	3897
1107.491	3902
1109.814	3911
1112.135	4004
1114.456	4010
1116.776	3926
1119.096	3950
1121.415	3957
1123.734	4011
1126.052	3966
1128.369	3926
1130.686	3920
1133.002	3950
1135.318	3905
1137.632	3944
1139.945	3985
1142.258	3901
1144.573	3907
1146.884	4013
1149.196	3911
1151.505	3917
1153.816	3974
1156.124	3922
1158.435	3936
1160.742	4074
1163.051	4023
1165.356	3912
1167.663	3967
1169.97	3886
1172.276	3970
1174.579	3978
1176.881	3877
1179.186	3949
1181.487	3990
1183.79	3934
1186.092	3921
1188.392	4029
1190.691	3952
1192.991	3896
1195.291	3901
1197.588	3915
1199.885	3893
1202.181	3984
1204.479	3897
1206.775	3990
1209.07	3956
1211.363	3966
1213.656	4021
1215.949	4075
1218.241	4063
1220.534	3985
1222.825	3975
1225.115	3908
1227.405	3952
1229.693	4008
1231.984	4012
1234.271	4066
1236.558	4080
1238.845	4163
1241.131	4032
1243.416	4112
1245.703	4150
1247.987	4178
1250.269	4093
1252.552	4060
1254.834	4086
1257.118	4066
1259.399	4106
1261.678	4022
1263.958	4079
1266.237	4119
1268.516	4054
1270.794	4082
1273.072	4042
1275.347	4132
1277.624	4105
1279.899	4078
1282.175	4171
1284.449	4070
1286.722	4037
1288.995	4076
1291.266	4007
1293.54	4062
1295.81	4108
1298.081	4074
1300.35	3988
1302.62	4011
1304.889	4028
1307.156	4032
1309.425	4015
1311.69	4065
1313.957	3995
1316.222	4054
1318.488	4110
1320.751	4077
1323.016	4052
1325.278	4070
1327.54	4042
1329.803	4058
1332.065	4037
1334.325	4041
1336.584	4146
1338.843	4094
1341.101	4071
1343.36	4036
1345.617	4097
1347.876	4027
1350.131	4080
1352.387	4098
1354.643	4104
1356.897	4095
1359.151	4054
1361.403	4067
1363.656	4120
1365.909	4072
1368.16	4096
1370.409	4202
1372.659	4047
1374.909	4097
1377.157	4084
1379.407	4052
1381.655	4156
1383.9	4068
1386.147	4057
1388.393	4064
1390.64	4094
1392.885	4200
1395.127	4171
1397.37	4205
1399.614	4143
1401.854	4115
1404.098	4045
1406.339	4152
1408.578	4096
1410.818	4103
1413.056	4206
1415.297	4188
1417.533	4186
1419.771	4142
1422.006	4106
1424.243	4223
1426.479	4108
1428.715	4224
1430.948	4203
1433.182	4199
1435.414	4177
1437.647	4244
1439.88	4198
1442.11	4147
1444.342	4269
1446.571	4153
1448.799	4232
1451.029	4223
1453.258	4211
1455.485	4286
1457.711	4258
1459.937	4257
1462.164	4292
1464.39	4277
1466.614	4197
1468.838	4080
1471.06	4182
1473.283	4164
1475.506	4279
1477.727	4264
1479.949	4197
1482.169	4204
1484.389	4144
1486.609	4042
1488.828	4168
1491.045	4100
1493.261	4020
1495.477	4134
1497.693	4125
1499.91	4147
1502.125	4044
1504.339	4214
1506.553	4236
1508.766	4243
1510.979	4117
1513.191	4148
1515.402	4118
1517.613	4118
1519.823	4153
1522.033	4087
1524.242	4152
1526.451	4114
1528.657	4103
1530.865	4120
1533.072	4136
1535.278	4153
1537.484	4151
1539.687	4234
1541.892	4112
1544.096	4117
1546.299	4097
1548.502	4125
1550.703	4173
1552.905	4226
1555.104	4169
1557.303	4122
1559.505	4168
1561.703	4242
1563.902	4139
1566.099	4290
1568.295	4258
1570.494	4229
1572.689	4277
1574.883	4212
1577.079	4225
1579.272	4230
1581.467	4215
1583.659	4181
1585.853	4119
1588.044	4239
1590.234	4216
1592.424	4244
1594.615	4227
1596.806	4286
1598.994	4374
1601.182	4286
1603.369	4206
1605.557	4213
1607.744	4247
1609.929	4290
1612.114	4303
1614.298	4253
1616.482	4311
1618.667	4372
1620.85	4369
1623.032	4277
1625.214	4222
1627.395	4364
1629.575	4358
1631.755	4388
1633.935	4272
1636.114	4307
1638.292	4315
1640.471	4304
1642.647	4355
1644.823	4281
1647	4347
1649.175	4369
1651.348	4299
1653.525	4448
1655.698	4395
1657.87	4484
1660.043	4378
1662.213	4311
1664.387	4370
1666.558	4434
1668.727	4301
1670.896	4449
1673.064	4433
1675.233	4334
1677.401	4340
1679.569	4400
1681.735	4358
1683.902	4284
1686.066	4317
1688.233	4340
1690.397	4294
1692.559	4298
1694.723	4357
1696.885	4361
1699.048	4272
1701.21	4323
1703.37	4344
1705.53	4311
1707.689	4340
1709.849	4323
1712.009	4351
1714.166	4329
1716.323	4306
1718.479	4320
1720.634	4321
1722.793	4347
1724.948	4317
1727.102	4284
1729.255	4231
1731.408	4278
1733.562	4344
1735.714	4333
1737.865	4276
1740.016	4317
1742.166	4223
1744.316	4322
1746.467	4341
1748.616	4344
1750.764	4322
1752.911	4321
1755.056	4307
1757.205	4371
1759.35	4349
1761.496	4365
1763.641	4350
1765.785	4341
1767.927	4361
1770.072	4374
1772.214	4266
1774.355	4347
1776.496	4392
1778.637	4403
1780.778	4454
1782.918	4361
1785.057	4423
1787.194	4349
1789.333	4466
1791.472	4371
1793.608	4392
1795.745	4407
1797.879	4440
1800.015	4280
1802.148	4357
1804.284	4378
1806.417	4472
1808.548	4464
1810.682	4378
1812.812	4409
1814.946	4398
1817.075	4408
1819.205	4397
1821.335	4337
1823.463	4384
1825.59	4413
1827.721	4452
1829.847	4420
1831.973	4394
1834.098	4337
1836.223	4473
1838.351	4350
1840.475	4299
1842.598	4505
1844.721	4396
1846.843	4458
1848.966	4298
1851.087	4368
1853.21	4301
1855.33	4376
1857.449	4446
1859.568	4299
1861.688	4415
1863.806	4302
1865.924	4393
1868.039	4347
1870.155	4444
1872.273	4339
1874.388	4327
1876.503	4270
1878.617	4417
1880.73	4370
1882.844	4393
1884.956	4428
1887.068	4364
1889.18	4399
1891.291	4377
1893.4	4311
1895.511	4369
1897.621	4464
1899.73	4375
1901.837	4375
1903.944	4448
1906.053	4416
1908.159	4339
1910.265	4333
1912.369	4451
1914.474	4403
1916.577	4514
1918.683	4506
1920.785	4459
1922.888	4452
1924.989	4466
1927.091	4558
1929.193	4464
1931.294	4511
1933.393	4342
1935.493	4470
1937.59	4406
1939.689	4458
1941.788	4558
1943.884	4425
1945.98	4480
1948.077	4422
1950.171	4448
1952.267	4430
1954.361	4532
1956.455	4434
1958.548	4530
1960.64	4449
1962.733	4385
1964.824	4522
1966.915	4472
1969.005	4465
1971.096	4503
1973.185	4466
1975.275	4484
1977.363	4393
1979.45	4598
1981.537	4424
1983.623	4394
1985.711	4441
1987.796	4530
1989.881	4363
1991.965	4507
1994.047	4518
1996.132	4423
1998.215	4356
2000.297	4539
2002.378	4427
2004.46	4354
2006.54	4418
2008.62	4555
2010.7	4493
2012.779	4440
2014.858	4378
2016.934	4484
2019.013	4383
2021.09	4337
2023.165	4383
2025.241	4422
2027.317	4430
2029.39	4360
2031.466	4492
2033.538	4438
2035.612	4341
2037.683	4429
2039.755	4403
2041.827	4453
2043.898	4462
2045.968	4472
2048.038	4512
2050.106	4409
2052.177	4457
2054.244	4442
2056.313	4512
2058.379	4549
2060.444	4460
2062.511	4496
2064.577	4461
2066.641	4411
2068.705	4412
2070.77	4426
2072.832	4392
2074.896	4436
2076.958	4473
2079.02	4394
2081.081	4555
2083.141	4481
2085.2	4472
2087.261	4473
2089.319	4452
2091.377	4448
2093.435	4503
2095.492	4467
2097.552	4443
2099.607	4449
2101.663	4478
2103.718	4584
2105.771	4438
2107.826	4509
2109.879	4404
2111.932	4408
2113.985	4444
2116.037	4490
2118.088	4506
2120.141	4493
2122.191	4511
2124.239	4388
2126.288	4516
2128.337	4467
2130.387	4370
2132.434	4554
2134.481	4411
2136.528	4586
2138.574	4513
2140.618	4432
2142.665	4427
2144.71	4397
2146.753	4473
2148.797	4496
2150.838	4339
2152.883	4440
2154.923	4497
2156.965	4401
2159.007	4371
2161.046	4380
2163.086	4440
2165.126	4511
2167.163	4434
2169.202	4447
2171.239	4469
2173.277	4479
2175.314	4459
2177.349	4374
2179.385	4407
2181.42	4435
2183.453	4444
2185.49	4404
2187.522	4338
2189.555	4394
2191.586	4342
2193.619	4279
2195.651	4447
2197.682	4388
2199.711	4413
2201.74	4395
2203.769	4441
2205.799	4316
2207.828	4415
2209.855	4344
2211.882	4369
2213.908	4320
2215.934	4486
2217.961	4434
2219.986	4458
2222.01	4353
2224.034	4441
2226.057	4386
2228.08	4450
2230.104	4381
2232.124	4464
2234.145	4336
2236.166	4370
2238.186	4397
2240.207	4393
2242.227	4391
2244.244	4434
2246.262	4413
2248.28	4377
2250.299	4284
2252.314	4361
2254.33	4357
2256.346	4453
2258.36	4396
2260.375	4400
2262.391	4474
2264.403	4386
2266.416	4414
2268.427	4390
2270.44	4323
2272.453	4423
2274.463	4409
2276.474	4417
2278.483	4455
2280.493	4419
2282.501	4456
2284.51	4387
2286.518	4414
2288.524	4458
2290.532	4389
2292.537	4438
2294.544	4329
2296.55	4485
2298.554	4400
2300.557	4304
2302.562	4482
2304.566	4443
2306.568	4401
2308.569	4378
2310.572	4361
2312.573	4356
2314.573	4363
2316.574	4327
2318.573	4399
2320.571	4438
2322.571	4413
2324.569	4394
2326.567	4374
2328.564	4310
2330.56	4442
2332.556	4351
2334.551	4368
2336.546	4268
2338.542	4387
2340.535	4412
2342.529	4359
2344.521	4385
2346.512	4375
2348.505	4352
2350.497	4349
2352.487	4336
2354.478	4395
2356.468	4374
2358.457	4339
2360.446	4463
2362.434	4303
2364.422	4368
2366.408	4277
2368.395	4355
2370.383	4403
2372.369	4303
2374.353	4289
2376.338	4202
2378.321	4309
2380.307	4381
2382.29	4358
2384.272	4260
2386.254	4340
2388.235	4323
2390.218	4350
2392.198	4259
2394.179	4238
2396.157	4225
2398.137	4433
2400.115	4337
2402.095	4265
2404.072	4396
2406.048	4323
2408.026	4239
2410.001	4233
2411.977	4349
2413.953	4321
2415.927	4362
2417.9	4244
2419.875	4297
2421.847	4235
2423.821	4372
2425.792	4329
2427.763	4316
2429.736	4290
2431.706	4230
2433.677	4315
2435.646	4358
2437.615	4368
2439.583	4341
2441.551	4247
2443.519	4331
2445.486	4321
2447.452	4325
2449.418	4277
2451.383	4292
2453.348	4387
2455.314	4285
2457.278	4361
2459.241	4261
2461.205	4303
2463.167	4324
2465.131	4308
2467.091	4176
2469.052	4243
2471.012	4322
2472.972	4294
2474.932	4294
2476.891	4392
2478.85	4284
2480.808	4220
2482.766	4279
2484.722	4276
2486.68	4248
2488.636	4309
2490.591	4202
2492.546	4332
2494.5	4284
2496.456	4265
2498.41	4225
2500.362	4284
2502.315	4266
2504.266	4221
2506.218	4233
2508.169	4272
2510.121	4271
2512.07	4354
2514.019	4191
2515.968	4273
2517.918	4210
2519.866	4268
2521.813	4196
2523.76	4210
2525.707	4293
2527.653	4234
2529.599	4276
2531.543	4195
2533.489	4290
2535.433	4206
2537.376	4217
2539.32	4334
2541.264	4309
2543.205	4328
2545.147	4252
2547.087	4200
2549.029	4281
2550.969	4176
2552.908	4302
2554.847	4200
2556.786	4256
2558.724	4314
2560.663	4252
2562.6	4332
2564.537	4190
2566.473	4265
2568.408	4379
2570.345	4293
2572.28	4250
2574.214	4300
2576.148	4227
2578.081	4215
2580.014	4293
2581.947	4297
2583.879	4232
2585.81	4198
2587.741	4303
2589.67	4192
2591.602	4242
2593.532	4243
2595.461	4220
2597.388	4303
2599.316	4295
2601.244	4282
2603.172	4255
2605.098	4222
2607.023	4265
2608.949	4266
2610.873	4163
2612.8	4317
2614.723	4174
2616.647	4208
2618.569	4268
2620.493	4265
2622.416	4363
2624.338	4322
2626.258	4293
2628.179	4262
2630.099	4368
2632.019	4308
2633.939	4320
2635.857	4237
2637.775	4274
2639.694	4431
2641.61	4262
2643.528	4292
2645.444	4287
2647.361	4363
2649.276	4241
2651.19	4207
2653.105	4282
2655.019	4214
2656.934	4344
2658.846	4368
2660.758	4330
2662.67	4260
2664.583	4310
2666.493	4287
2668.404	4251
2670.313	4320
2672.223	4399
2674.134	4236
2676.042	4232
2677.95	4229
2679.858	4336
2681.765	4204
2683.673	4275
2685.579	4242
2687.483	4251
2689.389	4302
2691.294	4231
2693.198	4249
2695.104	4266
2697.006	4113
2698.909	4228
2700.811	4208
2702.713	4220
2704.615	4240
2706.516	4188
2708.417	4231
2710.316	4273
2712.216	4131
2714.115	4262
2716.014	4271
2717.913	4159
2719.81	4193
2721.707	4219
2723.603	4226
2725.501	4152
2727.396	4185
2729.292	4216
2731.186	4209
2733.081	4231
2734.976	4194
2736.87	4258
2738.762	4096
2740.653	4206
2742.546	4135
2744.437	4251
2746.329	4134
2748.22	4231
2750.11	4201
2751.999	4122
2753.889	4303
2755.778	4209
2757.666	4220
2759.553	4198
2761.44	4209
2763.328	4175
2765.215	4196
2767.101	4174
2768.986	4189
2770.87	4239
2772.754	4167
2774.638	4191
2776.523	4115
2778.405	4207
2780.288	4176
2782.17	4267
2784.051	4191
2785.934	4129
2787.814	4136
2789.694	4125
2791.574	4198
2793.453	4228
2795.332	4168
2797.212	4213
2799.088	4173
2800.966	4126
2802.843	4156
2804.719	4144
2806.597	4131
2808.471	4184
2810.346	4190
2812.221	4183
2814.094	4169
2815.969	4166
2817.843	4225
2819.714	4101
2821.587	4231
2823.459	4185
2825.329	4184
2827.202	4164
2829.072	4233
2830.942	4171
2832.811	4119
2834.68	4152
2836.549	4164
2838.418	4132
2840.284	4170
2842.152	4165
2844.018	4153
2845.885	4132
2847.751	4154
2849.616	4226
2851.482	4200
2853.345	4171
2855.208	4094
2857.074	4219
2858.937	4116
2860.799	4181
2862.66	4219
2864.522	4208
2866.385	4241
2868.245	4288
2870.104	4205
2871.964	4303
2873.824	4291
2875.683	4316
2877.542	4289
2879.4	4393
2881.257	4348
2883.114	4474
2884.97	4439
2886.827	4443
2888.683	4375
2890.537	4334
2892.392	4397
2894.246	4377
2896.1	4359
2897.954	4365
2899.807	4350
2901.66	4338
2903.51	4350
2905.362	4387
2907.214	4378
2909.065	4415
2910.915	4388
2912.765	4458
2914.613	4436
2916.463	4443
2918.311	4446
2920.158	4578
2922.006	4562
2923.853	4538
2925.698	4541
2927.546	4542
2929.392	4540
2931.236	4648
2933.081	4714
2934.924	4722
2936.77	4722
2938.613	4633
2940.455	4834
2942.298	4668
2944.139	4721
2945.982	4810
2947.823	4744
2949.662	4541
2951.503	4681
2953.342	4681
2955.182	4626
2957.021	4578
2958.858	4595
2960.697	4554
2962.534	4493
2964.37	4543
2966.207	4488
2968.044	4482
2969.879	4389
2971.714	4432
2973.548	4410
2975.383	4491
2977.218	4419
2979.051	4501
2980.883	4413
2982.715	4380
2984.547	4351
2986.379	4389
2988.21	4362
2990.04	4375
2991.87	4354
2993.7	4369
2995.53	4377
2997.359	4321
2999.187	4279
3001.015	4285
3002.842	4242
3004.669	4313
3006.497	4155
3008.323	4194
3010.148	4204
3011.974	4071
3013.797	4116
3015.623	4059
3017.447	4160
3019.27	4070
3021.094	4135
3022.915	4034
3024.737	3996
3026.56	4116
3028.38	4065
3030.201	4077
3032.022	4094
3033.84	3960
3035.662	3988
3037.481	4022
3039.298	4004
3041.117	3950
3042.933	3983
3044.752	4058
3046.568	4021
3048.385	3971
3050.2	4048
3052.016	3966
3053.83	3971
3055.646	4086
3057.46	3983
3059.272	3955
3061.086	4045
3062.898	4018
3064.711	3999
3066.524	3957
3068.335	3937
3070.145	3999
3071.956	3952
3073.766	3960
3075.576	3901
3077.385	3928
3079.193	3975
3081.002	3970
3082.81	4008
3084.618	3995
3086.425	3954
3088.231	3963
3090.036	3899
3091.842	3975
3093.648	3918
3095.452	3963
3097.257	3924
3099.06	3904
3100.863	3890
3102.666	3878
3104.47	3931
3106.272	3837
3108.073	3887
3109.875	3904
3111.676	3925
3113.477	3826
3115.277	3885
3117.077	3914
3118.874	3834
3120.673	3841
3122.473	3840
3124.271	3748
3126.066	3856
3127.863	3772
3129.66	3896
3131.456	3904
3133.252	3764
3135.047	3860
3136.842	3870
3138.635	3813
3140.429	3819
3142.223	3773
3144.016	3855
3145.808	3766
3147.6	3822
3149.392	3801
3151.183	3849
3152.975	3828
3154.765	3778
3156.553	3822
3158.344	3835
3160.132	3800
3161.922	3791
3163.71	3803
3165.497	3811
3167.285	3849
3169.071	3775
3170.858	3748
3172.645	3774
3174.429	3872
3176.214	3825
3177.998	3772
3179.783	3712
3181.568	3758
3183.351	3765
3185.133	3720
3186.915	3755
3188.698	3737
3190.481	3753
3192.261	3727
3194.042	3825
3195.822	3770
3197.601	3795
3199.381	3781
3201.161	3718
3202.939	3719
3204.717	3779
3206.495	3789
3208.272	3734
3210.05	3772
3211.826	3778
3213.602	3811
3215.376	3743
3217.151	3806
3218.927	3723
3220.702	3790
3222.476	3793
3224.249	3678
3226.021	3786
3227.793	3741
3229.567	3732
3231.339	3755
3233.109	3841
3234.88	3741
3236.651	3681
3238.421	3658
3240.191	3739
3241.96	3652
3243.728	3678
3245.497	3698
3247.263	3732
3249.033	3742
3250.799	3755
3252.566	3753
3254.331	3762
3256.097	3672
3257.863	3777
3259.628	3782
3261.392	3795
3263.156	3673
3264.919	3750
3266.683	3660
3268.447	3753
3270.208	3742
3271.969	3711
3273.731	3791
3275.492	3734
3277.253	3802
3279.013	3778
3280.773	3756
3282.532	3848
3284.291	3674
3286.05	3782
3287.808	3699
3289.566	3825
3291.323	3716
3293.079	3736
3294.835	3771
3296.593	3759
3298.348	3737
3300.102	3773
3301.857	3704
3303.611	3747
3305.366	3761
3307.119	3809
3308.872	3684
3310.624	3707
3312.376	3757
3314.129	3642
3315.881	3753
3317.631	3683
3319.38	3726
3321.13	3763
3322.88	3770
3324.631	3681
3326.379	3769
3328.126	3700
3329.875	3670
3331.622	3741
3333.371	3673
3335.116	3746
3336.863	3740
3338.609	3679
3340.353	3722
3342.1	3699
3343.845	3760
3345.588	3680
3347.332	3715
3349.074	3739
3350.817	3710
3352.56	3666
3354.303	3663
3356.043	3726
3357.785	3703
3359.525	3707
3361.268	3649
3363.007	3769
3364.745	3734
3366.485	3658
3368.223	3738
3369.962	3748
3371.701	3671
3373.438	3658
3375.174	3731
3376.911	3717
3378.647	3660
3380.384	3651
3382.118	3697
3383.854	3645
3385.588	3615
3387.322	3600
3389.057	3617
3390.79	3616
3392.522	3617
3394.255	3600
3395.987	3614
3397.719	3670
3399.451	3613
3401.181	3588
3402.911	3654
3404.641	3662
3406.371	3619
3408.101	3645
3409.83	3653
3411.558	3628
3413.285	3638
3415.011	3609
3416.739	3619
3418.467	3682
3420.193	3672
3421.919	3575
3423.644	3656
3425.368	3571
3427.094	3561
3428.818	3649
3430.542	3522
3432.264	3646
3433.987	3596
3435.712	3629
3437.434	3567
3439.155	3612
3440.876	3614
3442.596	3519
3444.317	3588
3446.039	3542
3447.757	3544
3449.477	3458
3451.195	3536
3452.914	3514
3454.632	3634
3456.35	3563
3458.067	3578
3459.784	3501
3461.5	3625
3463.216	3524
3464.932	3555
3466.647	3537
3468.362	3544
3470.076	3540
3471.789	3520
3473.505	3583
3475.217	3428
3476.929	3488
3478.641	3450
3480.354	3461
3482.066	3529
3483.777	3455
3485.487	3514
3487.197	3509
3488.908	3511
3490.617	3527
3492.327	3445
3494.035	3494
3495.743	3455
3497.451	3577
3499.158	3480
3500.866	3489
3502.572	3403
3504.278	3490
3505.984	3512
3507.689	3422
3509.396	3483
3511.1	3365
3512.804	3450
3514.508	3510
3516.211	3335
3517.913	3408
3519.616	3442
3521.319	3439
3523.021	3437
3524.722	3401
3526.422	3398
3528.124	3420
3529.824	3444
3531.524	3401
3533.222	3412
3534.921	3436
3536.62	3384
3538.318	3405
3540.016	3378
3541.714	3371
3543.41	3398
3545.107	3368
3546.803	3345
3548.5	3404
3550.194	3372
3551.889	3357
3553.583	3457
3555.279	3410
3556.972	3319
3558.666	3394
3560.358	3342
3562.051	3326
3563.742	3368
3565.435	3367
3567.126	3331
3568.817	3340
3570.507	3305
3572.197	3327
3573.888	3344
3575.577	3356
3577.265	3321
3578.954	3356
3580.642	3345
3582.329	3275
3584.017	3352
3585.704	3312
3587.391	3295
3589.077	3316
3590.762	3355
3592.449	3320
3594.133	3297
3595.817	3231
3597.501	3299
3599.185	3364
3600.869	3243
3602.552	3304
3604.234	3255
3605.916	3270
3607.598	3328
3609.279	3365
3610.961	3254
3612.642	3262
3614.321	3338
3616	3262
3617.68	3310
3619.36	3230
3621.039	3191
3622.716	3285
3624.394	3177
3626.071	3273
3627.748	3213
3629.425	3224
3631.102	3239
3632.778	3220
3634.452	3197
3636.127	3199
3637.803	3222
3639.477	3235
3641.151	3264
3642.823	3210
3644.497	3197
3646.171	3223
3647.842	3183
3649.515	3235
3651.185	3200
3652.857	3150
3654.527	3116
3656.198	3146
3657.868	3123
3659.537	3181
3661.207	3164
3662.875	3154
3664.544	3137
3666.212	3122
3667.879	3145
3669.546	3120
3671.212	3224
3672.88	3149
3674.546	3135
3676.211	3220
3677.875	3146
3679.541	3105
3681.205	3154
3682.87	3124
3684.533	3154
3686.196	3111
3687.859	3157
3689.521	3136
3691.184	3155
3692.845	3067
3694.507	3213
3696.167	3153
3697.827	3130
3699.487	3104
3701.148	3172
3702.808	3074
3704.466	3047
3706.125	3090
3707.783	3089
3709.442	3126
3711.099	3134
3712.757	3079
3714.412	3131
3716.068	3109
3717.725	3048
3719.381	3120
3721.036	3080
3722.689	3135
3724.344	3049
3725.998	3082
3727.652	3109
3729.305	3059
3730.958	3142
3732.61	3084
3734.262	3023
3735.915	3088
3737.565	3040
3739.217	3107
3740.866	3106
3742.516	3112
3744.165	3105
3745.816	3040
3747.464	3009
3749.113	3029
3750.761	3027
3752.409	3036
3754.057	3036
3755.703	3003
3757.35	3115
3758.996	3061
3760.641	3100
3762.289	2975
3763.933	3064
3765.577	3015
3767.222	3037
3768.865	3012
3770.508	3020
3772.152	3008
3773.796	3004
3775.438	3004
3777.079	3031
3778.721	3043
3780.363	2925
3782.003	3096
3783.643	3065
3785.283	3021
3786.923	2946
3788.563	2978
3790.203	3029
3791.841	2983
3793.479	2931
3795.115	3003
3796.753	3061
3798.391	2969
3800.027	3004
3801.664	2940
3803.299	2943
3804.935	3007
3806.571	3027
3808.206	2959
3809.839	2952
3811.473	2937
3813.107	2993
3814.74	2966
3816.375	2977
3818.006	3015
3819.638	2969
3821.27	2931
3822.9	2934
3824.532	3001
3826.163	2924
3827.792	2949
3829.423	2896
3831.051	2893
3832.682	2922
3834.311	2976
3835.938	2906
3837.566	2964
3839.193	2950
3840.821	2956
3842.448	2962
3844.075	2895
3845.7	2860
3847.325	2896
3848.951	2935
3850.576	2961
3852.201	2879
3853.825	2933
3855.448	2900
3857.072	2928
3858.694	2843
3860.318	2875
3861.939	2934
3863.562	2927
3865.183	2873
3866.804	2892
3868.426	2922
3870.045	2860
3871.666	2888
3873.285	2858
3874.904	2941
3876.524	2824
3878.142	2871
3879.76	2881
3881.378	2874
3882.995	2842
3884.612	2851
3886.229	2821
3887.845	2810
3889.461	2822
3891.076	2827
3892.691	2770
3894.307	2803
3895.922	2801
3897.536	2847
3899.149	2848
3900.761	2899
3902.374	2892
3903.988	2860
3905.6	2840
3907.212	2820
3908.822	2858
3910.433	2858
3912.045	2875
3913.655	2798
3915.265	2827
3916.875	2808
3918.483	2775
3920.093	2860
3921.702	2823
3923.309	2872
3924.917	2790
3926.523	2901
3928.13	2860
3929.739	2881
3931.344	2856
3932.95	2850
3934.555	2725
3936.159	2834
3937.766	2782
3939.369	2820
3940.974	2826
3942.577	2820
3944.181	2941
3945.783	2798
3947.386	2804
3948.989	2794
3950.59	2817
3952.191	2851
3953.791	2844
3955.394	2721
3956.994	2838
3958.593	2833
3960.192	2734
3961.791	2867
3963.392	2764
3964.99	2789
3966.588	2742
3968.185	2752
3969.782	2777
3971.379	2726
3972.976	2805
3974.572	2749
3976.168	2780
3977.763	2731
3979.358	2805
3980.954	2847
3982.548	2728
3984.142	2761
3985.736	2753
3987.329	2766
3988.922	2759
3990.516	2726
3992.108	2711
3993.698	2716
3995.29	2694
3996.881	2732
3998.473	2710
4000.064	2723
4001.653	2704
4003.242	2678
4004.832	2702
4006.422	2738
4008.01	2698
4009.598	2702
4011.186	2707
4012.773	2662
4014.36	2656
4015.947	2733
4017.534	2670
4019.119	2691
4020.705	2633
4022.291	2721
4023.876	2674
4025.461	2663
4027.044	2582
4028.627	2642
4030.211	2795
4031.795	2668
4033.378	2681
4034.96	2668
4036.542	2628
4038.124	2585
4039.704	2602
4041.286	2649
4042.867	2639
4044.447	2631
4046.026	2700
4047.606	2653
4049.187	2596
4050.765	2665
4052.343	2590
4053.92	2676
4055.498	2687
4057.076	2603
4058.654	2660
4060.23	2612
4061.806	2621
4063.381	2632
4064.957	2693
4066.533	2556
4068.107	2642
4069.682	2641
4071.256	2606
4072.829	2636
4074.404	2645
4075.977	2618
4077.549	2614
4079.121	2599
4080.693	2541
4082.265	2634
4083.836	2648
4085.407	2593
4086.977	2620
4088.547	2560
4090.117	2564
4091.687	2650
4093.256	2600
4094.825	2587
4096.392	2536
4097.96	2666
4099.528	2615
4101.097	2645
4102.663	2515
4104.229	2583
4105.795	2603
4107.361	2531
4108.928	2639
4110.493	2501
4112.058	2541
4113.621	2537
4115.186	2624
4116.75	2593
4118.313	2562
4119.876	2526
4121.438	2553
4123	2558
4124.562	2568
4126.125	2598
4127.686	2570
4129.246	2560
4130.807	2487
4132.367	2542
4133.927	2457
4135.486	2552
4137.046	2530
4138.604	2512
4140.162	2542
4141.72	2462
4143.279	2562
4144.836	2530
4146.393	2495
4147.949	2441
4149.505	2540
4151.062	2520
4152.617	2551
4154.172	2491
4155.727	2472
4157.281	2446
4158.836	2422
4160.39	2476
4161.943	2458
4163.496	2436
4165.048	2522
4166.601	2464
4168.154	2443
4169.706	2466
4171.257	2418
4172.808	2474
4174.358	2410
4175.909	2434
4177.458	2383
4179.008	2479
4180.558	2430
4182.106	2420
4183.655	2439
4185.204	2492
4186.751	2448
4188.298	2450
4189.845	2500
4191.392	2445
4192.939	2430
4194.485	2415
4196.031	2413
4197.576	2454
4199.121	2443
4200.666	2359
4202.211	2432
4203.754	2471
4205.298	2409
4206.84	2488
4208.384	2388
4209.927	2466
4211.47	2408
4213.011	2326
4214.552	2403
4216.094	2430
4217.635	2388
4219.175	2400
4220.716	2334
4222.255	2370
4223.793	2408
4225.335	2396
4226.873	2423
4228.411	2377
4229.948	2380
4231.486	2349
4233.024	2345
4234.562	2352
4236.098	2423
4237.634	2440
4239.169	2343
4240.705	2368
4242.241	2358
4243.776	2380
4245.31	2369
4246.844	2346
4248.378	2391
4249.911	2361
4251.445	2404
4252.978	2315
4254.51	2396
4256.042	2334
4257.574	2404
4259.107	2320
4260.638	2339
4262.169	2396
4263.699	2382
4265.228	2376
4266.759	2338
4268.289	2306
4269.818	2292
4271.345	2314
4272.874	2263
4274.402	2330
4275.931	2327
4277.458	2302
4278.985	2265
4280.512	2358
4282.037	2349
4283.564	2393
4285.089	2250
4286.615	2335
4288.139	2309
4289.664	2273
4291.187	2306
4292.712	2436
4294.235	2287
4295.759	2292
4297.281	2291
4298.804	2261
4300.327	2348
4301.849	2327
4303.37	2263
4304.891	2314
4306.412	2324
4307.933	2278
4309.453	2303
4310.973	2274
4312.492	2330
