398.1873	3716
400.7097	3823
403.2336	3731
405.7547	3802
408.2751	3786
410.7948	3770
413.3138	3812
415.83	3838
418.3497	3823
420.8666	3855
423.3829	3913
425.8985	3952
428.4133	3900
430.9275	3890
433.441	4003
435.9538	3964
438.4639	4011
440.9753	3953
443.4881	3925
445.9982	4033
448.5055	3975
451.0142	4061
453.5201	3970
456.0274	3985
458.5361	3853
461.04	3974
463.5453	3965
466.0478	4023
468.5517	4027
471.0549	3915
473.5574	3973
476.0572	4021
478.5584	4017
481.0568	3999
483.5545	3941
486.0557	4084
488.5521	4088
491.0478	4040
493.5449	4028
496.0392	4134
498.5349	4176
501.0299	4109
503.5222	4088
506.0139	4147
508.5048	4058
510.9991	4129
513.4887	4137
515.9777	4206
518.4659	4116
520.9534	4167
523.4403	4168
525.9306	4156
528.4161	4173
530.9009	4154
533.3851	4103
535.8687	4244
538.3535	4234
540.8356	4195
543.3171	4076
545.7979	4109
548.278	4153
550.7595	4027
553.2383	4163
555.7144	4155
558.1918	4124
560.6685	4180
563.1446	4173
565.6221	4332
568.0968	4252
570.5688	4215
573.0422	4178
575.515	4240
577.989	4307
580.4584	4273
582.9291	4334
585.3991	4248
587.8685	4282
590.3352	4315
592.8052	4350
595.2706	4274
597.7372	4310
600.2033	4301
602.6666	4367
605.1334	4247
607.5953	4208
610.0587	4306
612.5193	4309
614.9814	4313
617.4427	4376
619.9034	4282
622.3615	4208
624.8208	4251
627.2775	4201
629.7335	4273
632.1929	4264
634.6476	4262
637.1016	4217
639.5569	4258
642.0096	4253
644.4637	4255
646.9151	4307
649.3678	4253
651.8179	4353
654.2672	4331
656.7159	4360
659.166	4412
661.6154	4431
664.0622	4305
666.5082	4396
668.9537	4416
671.4005	4429
673.8445	4393
676.288	4390
678.7308	4476
681.1729	4377
683.6163	4404
686.0572	4446
688.4973	4323
690.9368	4389
693.3757	4428
695.8138	4423
698.2534	4525
700.6902	4458
703.1245	4516
705.56	4496
707.9949	4466
710.4311	4492
712.8647	4537
715.2957	4458
717.7279	4545
720.1595	4415
722.5905	4610
725.0208	4488
727.4505	4589
729.8795	4515
732.3058	4574
734.7336	4605
737.1626	4643
739.587	4708
742.0128	4621
744.4359	4560
746.8604	4702
749.2841	4644
751.7073	4574
754.1278	4681
756.5496	4700
758.9688	4717
761.3893	4578
763.8093	4773
766.2285	4646
768.6451	4769
771.0611	4695
773.4784	4721
775.895	4706
778.3091	4687
780.7244	4699
783.1371	4720
785.5493	4741
787.9626	4702
790.3754	4722
792.7856	4695
795.1951	4727
797.6039	4655
800.0121	4653
802.4236	4750
804.8306	4770
807.2369	4767
809.6425	4820
812.0475	4865
814.4538	4791
816.8575	4766
819.2606	4814
821.663	4830
824.0648	4752
826.4659	4807
828.8683	4825
831.2682	4850
833.6674	4869
836.066	4763
838.4639	4861
840.8632	4851
843.2579	4889
845.6539	4839
848.0493	4875
850.444	4899
852.84	4860
855.2315	4957
857.6243	4866
860.0165	4919
862.4081	4844
864.797	4802
867.1892	4905
869.5789	4824
871.9659	4836
874.3542	4991
876.74	4881
879.129	4779
881.5155	4936
883.8994	4845
886.2845	4898
888.6671	4887
891.051	4820
893.4343	4861
895.8169	4917
898.197	4876
900.5783	4824
902.9571	4920
905.3372	4917
907.7167	4852
910.0936	4858
912.4698	4947
914.8474	5027
917.2244	4938
919.5987	5076
921.9744	5039
924.3475	5074
926.72	5124
929.0918	5023
931.4669	5112
933.8375	5124
936.2074	5008
938.5767	5100
940.9454	5138
943.3154	5159
945.6829	5280
948.0497	5257
950.4178	5402
952.7833	5450
955.1483	5683
957.5145	5866
959.8782	5868
962.2412	5880
964.6036	5765
966.9655	5570
969.3266	5562
971.6871	5465
974.0471	5210
976.4064	5205
978.765	5187
981.125	5016
983.4824	5048
985.8373	5116
988.1935	5074
990.549	5070
992.9039	5008
995.2602	5026
997.6119	5005
999.965	5120
1002.317	4979
1004.667	5067
1007.02	5020
1009.371	5068
1011.719	5073
1014.068	5036
1016.415	5099
1018.765	5004
1021.111	5022
1023.458	5109
1025.804	5163
1028.147	5148
1030.49	4997
1032.837	5177
1035.179	5104
1037.522	5140
1039.862	5106
1042.204	5170
1044.546	5112
1046.884	5202
1049.224	5121
1051.562	5116
1053.899	5099
1056.237	5097
1058.575	5137
1060.91	5086
1063.244	5126
1065.58	5268
1067.913	5195
1070.248	5245
1072.579	5317
1074.911	5230
1077.242	5235
1079.572	5218
1081.905	5314
1084.234	5151
1086.562	5130
1088.89	5061
1091.217	5165
1093.544	5210
1095.871	5134
1098.197	5127
1100.521	5199
1102.845	5241
1105.169	5230
1107.491	5211
1109.814	5174
1112.135	5227
1114.456	5198
1116.776	5139
1119.096	5245
1121.415	5159
1123.734	5211
1126.052	5219
1128.369	5226
1130.686	5250
1133.002	5259
1135.318	5271
1137.632	5187
1139.945	5179
1142.258	5167
1144.573	5217
1146.884	5198
1149.196	5124
1151.505	5116
1153.816	5227
1156.124	5277
1158.435	5313
1160.742	5167
1163.051	5238
1165.356	5236
1167.663	5260
1169.97	5269
1172.276	5250
1174.579	5201
1176.881	5204
1179.186	5204
1181.487	5261
1183.79	5273
1186.092	5205
1188.392	5203
1190.691	5208
1192.991	5270
1195.291	5278
1197.588	5198
1199.885	5246
1202.181	5216
1204.479	5274
1206.775	5280
1209.07	5144
1211.363	5230
1213.656	5263
1215.949	5180
1218.241	5211
1220.534	5220
1222.825	5360
1225.115	5304
1227.405	5358
1229.693	5271
1231.984	5321
1234.271	5354
1236.558	5411
1238.845	5347
1241.131	5385
1243.416	5506
1245.703	5395
1247.987	5405
1250.269	5428
1252.552	5262
1254.834	5417
1257.118	5390
1259.399	5341
1261.678	5414
1263.958	5351
1266.237	5454
1268.516	5447
1270.794	5341
1273.072	5489
1275.347	5411
1277.624	5390
1279.899	5378
1282.175	5461
1284.449	5307
1286.722	5391
1288.995	5310
1291.266	5408
1293.54	5413
1295.81	5374
1298.081	5423
1300.35	5388
1302.62	5393
1304.889	5431
1307.156	5405
1309.425	5301
1311.69	5307
1313.957	5333
1316.222	5445
1318.488	5364
1320.751	5363
1323.016	5287
1325.278	5293
1327.54	5423
1329.803	5464
1332.065	5436
1334.325	5319
1336.584	5385
1338.843	5383
1341.101	5335
1343.36	5362
1345.617	5396
1347.876	5388
1350.131	5360
1352.387	5229
1354.643	5423
1356.897	5457
1359.151	5356
1361.403	5435
1363.656	5384
1365.909	5311
1368.16	5383
1370.409	5365
1372.659	5324
1374.909	5501
1377.157	5350
1379.407	5413
1381.655	5390
1383.9	5418
1386.147	5457
1388.393	5574
1390.64	5395
1392.885	5544
1395.127	5425
1397.37	5632
1399.614	5444
1401.854	5556
1404.098	5431
1406.339	5459
1408.578	5447
1410.818	5412
1413.056	5457
1415.297	5649
1417.533	5503
1419.771	5527
1422.006	5462
1424.243	5553
1426.479	5525
1428.715	5529
1430.948	5570
1433.182	5553
1435.414	5531
1437.647	5671
1439.88	5674
1442.11	5548
1444.342	5576
1446.571	5619
1448.799	5637
1451.029	5616
1453.258	5649
1455.485	5655
1457.711	5590
1459.937	5676
1462.164	5625
1464.39	5689
1466.614	5618
1468.838	5535
1471.06	5736
1473.283	5524
1475.506	5527
1477.727	5532
1479.949	5585
1482.169	5517
1484.389	5553
1486.609	5564
1488.828	5483
1491.045	5376
1493.261	5336
1495.477	5474
1497.693	5425
1499.91	5452
1502.125	5372
1504.339	5442
1506.553	5425
1508.766	5470
1510.979	5567
1513.191	5412
1515.402	5401
1517.613	5362
1519.823	5328
1522.033	5368
1524.242	5408
1526.451	5315
1528.657	5405
1530.865	5476
1533.072	5380
1535.278	5539
1537.484	5428
1539.687	5442
1541.892	5356
1544.096	5424
1546.299	5447
1548.502	5422
1550.703	5529
1552.905	5514
1555.104	5612
1557.303	5604
1559.505	5584
1561.703	5467
1563.902	5534
1566.099	5592
1568.295	5489
1570.494	5567
1572.689	5587
1574.883	5538
1577.079	5569
1579.272	5625
1581.467	5653
1583.659	5612
1585.853	5552
1588.044	5608
1590.234	5604
1592.424	5636
1594.615	5634
1596.806	5631
1598.994	5674
1601.182	5611
1603.369	5674
1605.557	5621
1607.744	5669
1609.929	5600
1612.114	5649
1614.298	5711
1616.482	5694
1618.667	5653
1620.85	5662
1623.032	5726
1625.214	5618
1627.395	5734
1629.575	5652
1631.755	5631
1633.935	5645
1636.114	5639
1638.292	5685
1640.471	5733
1642.647	5741
1644.823	5728
1647	5747
1649.175	5740
1651.348	5704
1653.525	5777
1655.698	5701
1657.87	5720
1660.043	5734
1662.213	5789
1664.387	5716
1666.558	5748
1668.727	5736
1670.896	5766
1673.064	5703
1675.233	5673
1677.401	5711
1679.569	5632
1681.735	5706
1683.902	5775
1686.066	5635
1688.233	5659
1690.397	5680
1692.559	5693
1694.723	5688
1696.885	5635
1699.048	5616
1701.21	5610
1703.37	5674
1705.53	5576
1707.689	5604
1709.849	5539
1712.009	5688
1714.166	5641
1716.323	5719
1718.479	5671
1720.634	5623
1722.793	5763
1724.948	5592
1727.102	5621
1729.255	5652
1731.408	5717
1733.562	5645
1735.714	5627
1737.865	5696
1740.016	5685
1742.166	5684
1744.316	5606
1746.467	5533
1748.616	5675
1750.764	5610
1752.911	5637
1755.056	5794
1757.205	5619
1759.35	5664
1761.496	5724
1763.641	5744
1765.785	5579
1767.927	5725
1770.072	5801
1772.214	5651
1774.355	5778
1776.496	5645
1778.637	5696
1780.778	5669
1782.918	5754
1785.057	5756
1787.194	5730
1789.333	5804
1791.472	5770
1793.608	5712
1795.745	5721
1797.879	5673
1800.015	5830
1802.148	5773
1804.284	5718
1806.417	5755
1808.548	5700
1810.682	5670
1812.812	5744
1814.946	5742
1817.075	5682
1819.205	5796
1821.335	5749
1823.463	5781
1825.59	5645
1827.721	5690
1829.847	5701
1831.973	5767
1834.098	5710
1836.223	5646
1838.351	5674
1840.475	5734
1842.598	5736
1844.721	5662
1846.843	5654
1848.966	5645
1851.087	5683
1853.21	5657
1855.33	5708
1857.449	5732
1859.568	5637
1861.688	5734
1863.806	5681
1865.924	5681
1868.039	5745
1870.155	5637
1872.273	5710
1874.388	5684
1876.503	5698
1878.617	5760
1880.73	5703
1882.844	5637
1884.956	5676
1887.068	5649
1889.18	5762
1891.291	5690
1893.4	5720
1895.511	5760
1897.621	5578
1899.73	5697
1901.837	5697
1903.944	5737
1906.053	5863
1908.159	5701
1910.265	5818
1912.369	5847
1914.474	5767
1916.577	5689
1918.683	5823
1920.785	5738
1922.888	5790
1924.989	5826
1927.091	5835
1929.193	5798
1931.294	5777
1933.393	5796
1935.493	5725
1937.59	5884
1939.689	5920
1941.788	5740
1943.884	5873
1945.98	5791
1948.077	5777
1950.171	5811
1952.267	5730
1954.361	5846
1956.455	5849
1958.548	5826
1960.64	5802
1962.733	5909
1964.824	5815
1966.915	5832
1969.005	5832
1971.096	5795
1973.185	5872
1975.275	5734
1977.363	5718
1979.45	5792
1981.537	5736
1983.623	5775
1985.711	5762
1987.796	5806
1989.881	5700
1991.965	6003
1994.047	5769
1996.132	5732
1998.215	5692
2000.297	5762
2002.378	5779
2004.46	5741
2006.54	5671
2008.62	5801
2010.7	5722
2012.779	5728
2014.858	5838
2016.934	5699
2019.013	5690
2021.09	5785
2023.165	5757
2025.241	5689
2027.317	5814
2029.39	5690
2031.466	5719
2033.538	5788
2035.612	5708
2037.683	5780
2039.755	5710
2041.827	5912
2043.898	5760
2045.968	5925
2048.038	5795
2050.106	5774
2052.177	5762
2054.244	5771
2056.313	5750
2058.379	5781
2060.444	5815
2062.511	5900
2064.577	5676
2066.641	5746
2068.705	5849
2070.77	5792
2072.832	5729
2074.896	5878
2076.958	5774
2079.02	5721
2081.081	5731
2083.141	5707
2085.2	5769
2087.261	5805
2089.319	5722
2091.377	5778
2093.435	5848
2095.492	5863
2097.552	5777
2099.607	5804
2101.663	5870
2103.718	5849
2105.771	5738
2107.826	5800
2109.879	5793
2111.932	5813
2113.985	5788
2116.037	5815
2118.088	5780
2120.141	5797
2122.191	5801
2124.239	5775
2126.288	5787
2128.337	5770
2130.387	5828
2132.434	5829
2134.481	5810
2136.528	5787
2138.574	5840
2140.618	5810
2142.665	5708
2144.71	5808
2146.753	5771
2148.797	5861
2150.838	5772
2152.883	5690
2154.923	5805
2156.965	5782
2159.007	5727
2161.046	5801
2163.086	5699
2165.126	5835
2167.163	5735
2169.202	5767
2171.239	5729
2173.277	5674
2175.314	5666
2177.349	5737
2179.385	5769
2181.42	5751
2183.453	5676
2185.49	5613
2187.522	5732
2189.555	5708
2191.586	5694
2193.619	5572
2195.651	5722
2197.682	5640
2199.711	5641
2201.74	5724
2203.769	5609
2205.799	5698
2207.828	5734
2209.855	5690
2211.882	5684
2213.908	5650
2215.934	5759
2217.961	5737
2219.986	5804
2222.01	5637
2224.034	5568
2226.057	5763
2228.08	5634
2230.104	5650
2232.124	5701
2234.145	5759
2236.166	5650
2238.186	5704
2240.207	5728
2242.227	5587
2244.244	5661
2246.262	5715
2248.28	5640
2250.299	5735
2252.314	5688
2254.33	5721
2256.346	5585
2258.36	5625
2260.375	5721
2262.391	5608
2264.403	5592
2266.416	5703
2268.427	5729
2270.44	5748
2272.453	5614
2274.463	5652
2276.474	5685
2278.483	5695
2280.493	5614
2282.501	5713
2284.51	5685
2286.518	5656
2288.524	5598
2290.532	5684
2292.537	5741
2294.544	5727
2296.55	5600
2298.554	5701
2300.557	5691
2302.562	5676
2304.566	5648
2306.568	5717
2308.569	5731
2310.572	5751
2312.573	5590
2314.573	5607
2316.574	5658
2318.573	5570
2320.571	5619
2322.571	5713
2324.569	5543
2326.567	5558
2328.564	5714
2330.56	5591
2332.556	5666
2334.551	5583
2336.546	5568
2338.542	5609
2340.535	5606
2342.529	5624
2344.521	5575
2346.512	5586
2348.505	5612
2350.497	5583
2352.487	5684
2354.478	5634
2356.468	5581
2358.457	5564
2360.446	5467
2362.434	5633
2364.422	5562
2366.408	5635
2368.395	5590
2370.383	5677
2372.369	5630
2374.353	5625
2376.338	5615
2378.321	5478
2380.307	5538
2382.29	5480
2384.272	5543
2386.254	5593
2388.235	5500
2390.218	5517
2392.198	5496
2394.179	5501
2396.157	5521
2398.137	5539
2400.115	5489
2402.095	5413
2404.072	5518
2406.048	5583
2408.026	5529
2410.001	5553
2411.977	5449
2413.953	5566
2415.927	5293
2417.9	5494
2419.875	5635
2421.847	5515
2423.821	5539
2425.792	5577
2427.763	5536
2429.736	5562
2431.706	5507
2433.677	5576
2435.646	5527
2437.615	5532
2439.583	5444
2441.551	5659
2443.519	5585
2445.486	5549
2447.452	5575
2449.418	5513
2451.383	5523
2453.348	5512
2455.314	5500
2457.278	5469
2459.241	5418
2461.205	5369
2463.167	5529
2465.131	5607
2467.091	5516
2469.052	5435
2471.012	5492
2472.972	5519
2474.932	5598
2476.891	5466
2478.85	5554
2480.808	5450
2482.766	5524
2484.722	5316
2486.68	5468
2488.636	5489
2490.591	5302
2492.546	5452
2494.5	5422
2496.456	5456
2498.41	5443
2500.362	5387
2502.315	5451
2504.266	5476
2506.218	5515
2508.169	5458
2510.121	5420
2512.07	5425
2514.019	5539
2515.968	5497
2517.918	5387
2519.866	5395
2521.813	5351
2523.76	5405
2525.707	5464
2527.653	5541
2529.599	5467
2531.543	5482
2533.489	5467
2535.433	5418
2537.376	5433
2539.32	5369
2541.264	5487
2543.205	5440
2545.147	5444
2547.087	5504
2549.029	5369
2550.969	5538
2552.908	5379
2554.847	5378
2556.786	5386
2558.724	5466
2560.663	5402
2562.6	5442
2564.537	5508
2566.473	5442
2568.408	5450
2570.345	5502
2572.28	5498
2574.214	5397
2576.148	5364
2578.081	5435
2580.014	5347
2581.947	5407
2583.879	5466
2585.81	5368
2587.741	5440
2589.67	5423
2591.602	5442
2593.532	5383
2595.461	5409
2597.388	5435
2599.316	5461
2601.244	5427
2603.172	5464
2605.098	5499
2607.023	5425
2608.949	5400
2610.873	5448
2612.8	5518
2614.723	5508
2616.647	5457
2618.569	5491
2620.493	5439
2622.416	5458
2624.338	5392
2626.258	5559
2628.179	5425
2630.099	5434
2632.019	5467
2633.939	5472
2635.857	5383
2637.775	5507
2639.694	5368
2641.61	5561
2643.528	5477
2645.444	5457
2647.361	5432
2649.276	5490
2651.19	5481
2653.105	5409
2655.019	5516
2656.934	5471
2658.846	5446
2660.758	5467
2662.67	5496
2664.583	5541
2666.493	5467
2668.404	5358
2670.313	5384
2672.223	5463
2674.134	5456
2676.042	5496
2677.95	5500
2679.858	5513
2681.765	5442
2683.673	5473
2685.579	5387
2687.483	5428
2689.389	5488
2691.294	5441
2693.198	5473
2695.104	5455
2697.006	5444
2698.909	5473
2700.811	5375
2702.713	5479
2704.615	5334
2706.516	5340
2708.417	5416
2710.316	5360
2712.216	5404
2714.115	5455
2716.014	5348
2717.913	5421
2719.81	5412
2721.707	5355
2723.603	5517
2725.501	5364
2727.396	5454
2729.292	5377
2731.186	5240
2733.081	5314
2734.976	5406
2736.87	5220
2738.762	5404
2740.653	5491
2742.546	5417
2744.437	5385
2746.329	5289
2748.22	5485
2750.11	5355
2751.999	5347
2753.889	5386
2755.778	5339
2757.666	5348
2759.553	5383
2761.44	5393
2763.328	5317
2765.215	5369
2767.101	5228
2768.986	5334
2770.87	5337
2772.754	5395
2774.638	5262
2776.523	5298
2778.405	5405
2780.288	5290
2782.17	5293
2784.051	5289
2785.934	5339
2787.814	5355
2789.694	5331
2791.574	5349
2793.453	5209
2795.332	5305
2797.212	5376
2799.088	5315
2800.966	5254
2802.843	5253
2804.719	5328
2806.597	5327
2808.471	5317
2810.346	5401
2812.221	5265
2814.094	5254
2815.969	5284
2817.843	5305
2819.714	5449
2821.587	5287
2823.459	5296
2825.329	5231
2827.202	5280
2829.072	5380
2830.942	5242
2832.811	5332
2834.68	5377
2836.549	5355
2838.418	5351
2840.284	5259
2842.152	5271
2844.018	5329
2845.885	5390
2847.751	5373
2849.616	5393
2851.482	5283
2853.345	5378
2855.208	5379
2857.074	5401
2858.937	5457
2860.799	5361
2862.66	5431
2864.522	5335
2866.385	5478
2868.245	5517
2870.104	5510
2871.964	5457
2873.824	5548
2875.683	5504
2877.542	5568
2879.4	5528
2881.257	5615
2883.114	5628
2884.97	5574
2886.827	5647
2888.683	5667
2890.537	5600
2892.392	5677
2894.246	5713
2896.1	5636
2897.954	5626
2899.807	5524
2901.66	5664
2903.51	5558
2905.362	5541
2907.214	5674
2909.065	5655
2910.915	5617
2912.765	5557
2914.613	5760
2916.463	5832
2918.311	5755
2920.158	5817
2922.006	5837
2923.853	5773
2925.698	5775
2927.546	5914
2929.392	5923
2931.236	5887
2933.081	6030
2934.924	5939
2936.77	6033
2938.613	5926
2940.455	6076
2942.298	6109
2944.139	6166
2945.982	6125
2947.823	6216
2949.662	6036
2951.503	6083
2953.342	6016
2955.182	6017
2957.021	6022
2958.858	5997
2960.697	5854
2962.534	5939
2964.37	5829
2966.207	5829
2968.044	5758
2969.879	5717
2971.714	5699
2973.548	5769
2975.383	5657
2977.218	5646
2979.051	5676
2980.883	5537
2982.715	5567
2984.547	5543
2986.379	5673
2988.21	5518
2990.04	5510
2991.87	5438
2993.7	5407
2995.53	5462
2997.359	5330
2999.187	5418
3001.015	5366
3002.842	5445
3004.669	5347
3006.497	5243
3008.323	5236
3010.148	5293
3011.974	5196
3013.797	5345
3015.623	5188
3017.447	5246
3019.27	5170
3021.094	5191
3022.915	5086
3024.737	5113
3026.56	5169
3028.38	5088
3030.201	5136
3032.022	4973
3033.84	5153
3035.662	5080
3037.481	5061
3039.298	5067
3041.117	5052
3042.933	5157
3044.752	5058
3046.568	5072
3048.385	5054
3050.2	5024
3052.016	5098
3053.83	5110
3055.646	5120
3057.46	4958
3059.272	5046
3061.086	5063
3062.898	5006
3064.711	4983
3066.524	5051
3068.335	5040
3070.145	5051
3071.956	5003
3073.766	5017
3075.576	4999
3077.385	5021
3079.193	5031
3081.002	5025
3082.81	4879
3084.618	5020
3086.425	5047
3088.231	4880
3090.036	4992
3091.842	4939
3093.648	4893
3095.452	4877
3097.257	4970
3099.06	4982
3100.863	4955
3102.666	4815
3104.47	4830
3106.272	4833
3108.073	4897
3109.875	4937
3111.676	4992
3113.477	4840
3115.277	4923
3117.077	4894
3118.874	4844
3120.673	4802
3122.473	4816
3124.271	4806
3126.066	4914
3127.863	4794
3129.66	4842
3131.456	4848
3133.252	4802
3135.047	4904
3136.842	4889
3138.635	4923
3140.429	4741
3142.223	4797
3144.016	4815
3145.808	4730
3147.6	4804
3149.392	4800
3151.183	4848
3152.975	4837
3154.765	4784
3156.553	4820
3158.344	4772
3160.132	4719
3161.922	4878
3163.71	4764
3165.497	4821
3167.285	4742
3169.071	4776
3170.858	4771
3172.645	4787
3174.429	4794
3176.214	4713
3177.998	4702
3179.783	4837
3181.568	4813
3183.351	4877
3185.133	4718
3186.915	4815
3188.698	4694
3190.481	4718
3192.261	4815
3194.042	4751
3195.822	4769
3197.601	4704
3199.381	4715
3201.161	4724
3202.939	4801
3204.717	4688
3206.495	4675
3208.272	4710
3210.05	4691
3211.826	4757
3213.602	4652
3215.376	4741
3217.151	4763
3218.927	4749
3220.702	4733
3222.476	4726
3224.249	4619
3226.021	4699
3227.793	4726
3229.567	4680
3231.339	4669
3233.109	4629
3234.88	4641
3236.651	4589
3238.421	4671
3240.191	4741
3241.96	4681
3243.728	4682
3245.497	4679
3247.263	4675
3249.033	4626
3250.799	4719
3252.566	4657
3254.331	4674
3256.097	4738
3257.863	4683
3259.628	4645
3261.392	4715
3263.156	4719
3264.919	4660
3266.683	4708
3268.447	4635
3270.208	4624
3271.969	4714
3273.731	4729
3275.492	4723
3277.253	4745
3279.013	4695
3280.773	4633
3282.532	4689
3284.291	4646
3286.05	4639
3287.808	4567
3289.566	4704
3291.323	4689
3293.079	4722
3294.835	4648
3296.593	4652
3298.348	4715
3300.102	4657
3301.857	4640
3303.611	4706
3305.366	4486
3307.119	4690
3308.872	4652
3310.624	4700
3312.376	4714
3314.129	4614
3315.881	4669
3317.631	4599
3319.38	4601
3321.13	4663
3322.88	4604
3324.631	4669
3326.379	4567
3328.126	4676
3329.875	4602
3331.622	4599
3333.371	4640
3335.116	4597
3336.863	4633
3338.609	4714
3340.353	4652
3342.1	4598
3343.845	4686
3345.588	4508
3347.332	4608
3349.074	4479
3350.817	4523
3352.56	4574
3354.303	4640
3356.043	4562
3357.785	4599
3359.525	4639
3361.268	4632
3363.007	4629
3364.745	4519
3366.485	4498
3368.223	4575
3369.962	4497
3371.701	4565
3373.438	4524
3375.174	4598
3376.911	4480
3378.647	4478
3380.384	4565
3382.118	4578
3383.854	4527
3385.588	4516
3387.322	4553
3389.057	4516
3390.79	4537
3392.522	4507
3394.255	4568
3395.987	4503
3397.719	4655
3399.451	4556
3401.181	4578
3402.911	4471
3404.641	4522
3406.371	4466
3408.101	4562
3409.83	4449
3411.558	4517
3413.285	4458
3415.011	4442
3416.739	4548
3418.467	4522
3420.193	4470
3421.919	4405
3423.644	4470
3425.368	4471
3427.094	4592
3428.818	4496
3430.542	4456
3432.264	4375
3433.987	4436
3435.712	4382
3437.434	4418
3439.155	4409
3440.876	4440
3442.596	4400
3444.317	4464
3446.039	4385
3447.757	4367
3449.477	4369
3451.195	4393
3452.914	4449
3454.632	4402
3456.35	4383
3458.067	4324
3459.784	4502
3461.5	4397
3463.216	4314
3464.932	4352
3466.647	4431
3468.362	4359
3470.076	4379
3471.789	4367
3473.505	4358
3475.217	4285
3476.929	4315
3478.641	4274
3480.354	4287
3482.066	4299
3483.777	4330
3485.487	4281
3487.197	4272
3488.908	4296
3490.617	4348
3492.327	4280
3494.035	4282
3495.743	4278
3497.451	4292
3499.158	4278
3500.866	4278
3502.572	4295
3504.278	4243
3505.984	4314
3507.689	4359
3509.396	4249
3511.1	4186
3512.804	4287
3514.508	4210
3516.211	4241
3517.913	4284
3519.616	4202
3521.319	4215
3523.021	4190
3524.722	4183
3526.422	4118
3528.124	4256
3529.824	4159
3531.524	4223
3533.222	4191
3534.921	4202
3536.62	4161
3538.318	4233
3540.016	4150
3541.714	4213
3543.41	4260
3545.107	4202
3546.803	4190
3548.5	4179
3550.194	4177
3551.889	4186
3553.583	4146
3555.279	4085
3556.972	4160
3558.666	4198
3560.358	4227
3562.051	4153
3563.742	4115
3565.435	4184
3567.126	4131
3568.817	4212
3570.507	4081
3572.197	4032
3573.888	4147
3575.577	4141
3577.265	4182
3578.954	4141
3580.642	4166
3582.329	4092
3584.017	4032
3585.704	4183
3587.391	4066
3589.077	4067
3590.762	4024
3592.449	4081
3594.133	4060
3595.817	4050
3597.501	4057
3599.185	4029
3600.869	4096
3602.552	4014
3604.234	3977
3605.916	4102
3607.598	4014
3609.279	4079
3610.961	3983
3612.642	4057
3614.321	4045
3616	3968
3617.68	4027
3619.36	4034
3621.039	3966
3622.716	3912
3624.394	4022
3626.071	3894
3627.748	3908
3629.425	3944
3631.102	4000
3632.778	3982
3634.452	3938
3636.127	3982
3637.803	3953
3639.477	3958
3641.151	3920
3642.823	3914
3644.497	3941
3646.171	3957
3647.842	3877
3649.515	3948
3651.185	3925
3652.857	3880
3654.527	3943
3656.198	3936
3657.868	3862
3659.537	3853
3661.207	3904
3662.875	3877
3664.544	3966
3666.212	3869
3667.879	3859
3669.546	3980
3671.212	3913
3672.88	3826
3674.546	3902
3676.211	3910
3677.875	3840
3679.541	3863
3681.205	3812
3682.87	3814
3684.533	3874
3686.196	3787
3687.859	3857
3689.521	3757
3691.184	3781
3692.845	3889
3694.507	3774
3696.167	3827
3697.827	3785
3699.487	3826
3701.148	3861
3702.808	3784
3704.466	3782
3706.125	3856
3707.783	3721
3709.442	3786
3711.099	3759
3712.757	3883
3714.412	3878
3716.068	3807
3717.725	3830
3719.381	3877
3721.036	3795
3722.689	3843
3724.344	3815
3725.998	3792
3727.652	3750
3729.305	3760
3730.958	3820
3732.61	3829
3734.262	3739
3735.915	3828
3737.565	3769
3739.217	3743
3740.866	3767
3742.516	3773
3744.165	3743
3745.816	3802
3747.464	3755
3749.113	3715
3750.761	3718
3752.409	3760
3754.057	3709
3755.703	3677
3757.35	3716
3758.996	3719
3760.641	3743
3762.289	3756
3763.933	3623
3765.577	3707
3767.222	3674
3768.865	3758
3770.508	3707
3772.152	3727
3773.796	3782
3775.438	3763
3777.079	3721
3778.721	3703
3780.363	3725
3782.003	3672
3783.643	3649
3785.283	3675
3786.923	3674
3788.563	3699
3790.203	3681
3791.841	3613
3793.479	3714
3795.115	3680
3796.753	3654
3798.391	3701
3800.027	3631
3801.664	3641
3803.299	3652
3804.935	3599
3806.571	3660
3808.206	3647
3809.839	3626
3811.473	3639
3813.107	3630
3814.74	3617
3816.375	3633
3818.006	3640
3819.638	3548
3821.27	3658
3822.9	3627
3824.532	3615
3826.163	3644
3827.792	3616
3829.423	3579
3831.051	3567
3832.682	3593
3834.311	3569
3835.938	3613
3837.566	3556
3839.193	3641
3840.821	3589
3842.448	3504
3844.075	3547
3845.7	3528
3847.325	3594
3848.951	3523
3850.576	3543
3852.201	3566
3853.825	3506
3855.448	3553
3857.072	3476
3858.694	3572
3860.318	3491
3861.939	3558
3863.562	3498
3865.183	3503
3866.804	3511
3868.426	3536
3870.045	3512
3871.666	3504
3873.285	3647
3874.904	3511
3876.524	3503
3878.142	3528
3879.76	3436
3881.378	3631
3882.995	3536
3884.612	3436
3886.229	3556
3887.845	3434
3889.461	3427
3891.076	3406
3892.691	3423
3894.307	3500
3895.922	3496
3897.536	3502
3899.149	3515
3900.761	3386
3902.374	3515
3903.988	3478
3905.6	3529
3907.212	3440
3908.822	3444
3910.433	3496
3912.045	3499
3913.655	3443
3915.265	3420
3916.875	3471
3918.483	3397
3920.093	3442
3921.702	3430
3923.309	3426
3924.917	3420
3926.523	3485
3928.13	3433
3929.739	3403
3931.344	3479
3932.95	3391
3934.555	3469
3936.159	3366
3937.766	3521
3939.369	3340
3940.974	3395
3942.577	3485
3944.181	3433
3945.783	3410
3947.386	3374
3948.989	3508
3950.59	3459
3952.191	3401
3953.791	3381
3955.394	3443
3956.994	3363
3958.593	3417
3960.192	3440
3961.791	3407
3963.392	3281
3964.99	3446
3966.588	3438
3968.185	3303
3969.782	3372
3971.379	3369
3972.976	3334
3974.572	3390
3976.168	3415
3977.763	3421
3979.358	3393
3980.954	3372
3982.548	3398
3984.142	3331
3985.736	3322
3987.329	3330
3988.922	3356
3990.516	3339
3992.108	3352
3993.698	3286
3995.29	3279
3996.881	3342
3998.473	3373
4000.064	3315
4001.653	3298
4003.242	3247
4004.832	3307
4006.422	3244
4008.01	3343
4009.598	3344
4011.186	3309
4012.773	3196
4014.36	3317
4015.947	3292
4017.534	3309
4019.119	3275
4020.705	3232
4022.291	3290
4023.876	3230
4025.461	3281
4027.044	3221
4028.627	3166
4030.211	3246
4031.795	3210
4033.378	3207
4034.96	3296
4036.542	3264
4038.124	3244
4039.704	3215
4041.286	3144
4042.867	3193
4044.447	3215
4046.026	3173
4047.606	3237
4049.187	3187
4050.765	3148
4052.343	3187
4053.92	3211
4055.498	3191
4057.076	3176
4058.654	3137
4060.23	3186
4061.806	3146
4063.381	3196
4064.957	3180
4066.533	3157
4068.107	3183
4069.682	3144
4071.256	3175
4072.829	3173
4074.404	3231
4075.977	3140
4077.549	3125
4079.121	3220
4080.693	3138
4082.265	3114
4083.836	3181
4085.407	3097
4086.977	3127
4088.547	3215
4090.117	3128
4091.687	3113
4093.256	3166
4094.825	3053
4096.392	3132
4097.96	3114
4099.528	3106
4101.097	3127
4102.663	3134
4104.229	3062
4105.795	3138
4107.361	3113
4108.928	3076
4110.493	3039
4112.058	3095
4113.621	3033
4115.186	3065
4116.75	3158
4118.313	3071
4119.876	3141
4121.438	3064
4123	3076
4124.562	3082
4126.125	3067
4127.686	3110
4129.246	3101
4130.807	3033
4132.367	3026
4133.927	3127
4135.486	2954
4137.046	3016
4138.604	3076
4140.162	2959
4141.72	3064
4143.279	2958
4144.836	3075
4146.393	3071
4147.949	3000
4149.505	2966
4151.062	3052
4152.617	2996
4154.172	2992
4155.727	2999
4157.281	3044
4158.836	2948
4160.39	3039
4161.943	3014
4163.496	2997
4165.048	2890
4166.601	3011
4168.154	2939
4169.706	2962
4171.257	2925
4172.808	2906
4174.358	2993
4175.909	2965
4177.458	2910
4179.008	3020
4180.558	2951
4182.106	2998
4183.655	2998
4185.204	2962
4186.751	2936
4188.298	2918
4189.845	2885
4191.392	2940
4192.939	2981
4194.485	2955
4196.031	2857
4197.576	2955
4199.121	2836
4200.666	2929
4202.211	2941
4203.754	2844
4205.298	2893
4206.84	2886
4208.384	2889
4209.927	2918
4211.47	2858
4213.011	2895
4214.552	2896
4216.094	2900
4217.635	2919
4219.175	2842
4220.716	2861
4222.255	2902
4223.793	2867
4225.335	2899
4226.873	2880
4228.411	2854
4229.948	2846
4231.486	2922
4233.024	2932
4234.562	2907
4236.098	2860
4237.634	2839
4239.169	2801
4240.705	2811
4242.241	2816
4243.776	2825
4245.31	2852
4246.844	2855
4248.378	2869
4249.911	2837
4251.445	2868
4252.978	2838
4254.51	2835
4256.042	2909
4257.574	2828
4259.107	2813
4260.638	2835
4262.169	2830
4263.699	2789
4265.228	2884
4266.759	2859
4268.289	2826
4269.818	2846
4271.345	2854
4272.874	2828
4274.402	2778
4275.931	2787
4277.458	2871
4278.985	2768
4280.512	2813
4282.037	2758
4283.564	2798
4285.089	2835
4286.615	2792
4288.139	2823
4289.664	2780
4291.187	2787
4292.712	2743
4294.235	2818
4295.759	2708
4297.281	2830
4298.804	2784
4300.327	2794
4301.849	2710
4303.37	2762
4304.891	2751
4306.412	2789
4307.933	2750
4309.453	2720
4310.973	2758
4312.492	2766
