398.1873	8373
400.7097	8439
403.2336	8357
405.7547	8364
408.2751	8471
410.7948	8558
413.3138	8454
415.83	8577
418.3497	8648
420.8666	8666
423.3829	8783
425.8985	8794
428.4133	8932
430.9275	8752
433.441	8904
435.9538	8866
438.4639	8943
440.9753	8927
443.4881	8931
445.9982	8982
448.5055	9016
451.0142	8967
453.5201	8954
456.0274	9054
458.5361	8936
461.04	9036
463.5453	8997
466.0478	9103
468.5517	9120
471.0549	9213
473.5574	9106
476.0572	9113
478.5584	9155
481.0568	9109
483.5545	9198
486.0557	9478
488.5521	9373
491.0478	9302
493.5449	9459
496.0392	9276
498.5349	9517
501.0299	9416
503.5222	9485
506.0139	9372
508.5048	9486
510.9991	9611
513.4887	9334
515.9777	9514
518.4659	9444
520.9534	9473
523.4403	9498
525.9306	9460
528.4161	9520
530.9009	9481
533.3851	9674
535.8687	9530
538.3535	9462
540.8356	9617
543.3171	9499
545.7979	9593
548.278	9683
550.7595	9573
553.2383	9667
555.7144	9619
558.1918	9556
560.6685	9590
563.1446	9530
565.6221	9580
568.0968	9565
570.5688	9795
573.0422	9659
575.515	9712
577.989	9785
580.4584	9872
582.9291	9782
585.3991	9858
587.8685	9885
590.3352	10018
592.8052	9903
595.2706	9889
597.7372	9821
600.2033	9877
602.6666	9864
605.1334	9903
607.5953	9765
610.0587	9924
612.5193	9995
614.9814	10004
617.4427	9887
619.9034	9869
622.3615	9925
624.8208	9881
627.2775	9739
629.7335	9904
632.1929	10000
634.6476	9824
637.1016	9864
639.5569	10047
642.0096	9878
644.4637	9933
646.9151	10075
649.3678	9999
651.8179	10065
654.2672	10021
656.7159	9974
659.166	10111
661.6154	10077
664.0622	9994
666.5082	10212
668.9537	10132
671.4005	10183
673.8445	10323
676.288	10150
678.7308	10181
681.1729	10328
683.6163	10168
686.0572	10274
688.4973	10414
690.9368	10360
693.3757	10227
695.8138	10349
698.2534	10377
700.6902	10284
703.1245	10212
705.56	10260
707.9949	10338
710.4311	10387
712.8647	10539
715.2957	10518
717.7279	10375
720.1595	10467
722.5905	10454
725.0208	10435
727.4505	10562
729.8795	10492
732.3058	10552
734.7336	10655
737.1626	10772
739.587	10584
742.0128	10821
744.4359	10635
746.8604	10810
749.2841	10805
751.7073	10953
754.1278	10820
756.5496	10885
758.9688	11014
761.3893	10957
763.8093	10981
766.2285	10956
768.6451	11031
771.0611	10976
773.4784	10932
775.895	11170
778.3091	11165
780.7244	11085
783.1371	10975
785.5493	11020
787.9626	11036
790.3754	11085
792.7856	11005
795.1951	11204
797.6039	11025
800.0121	11025
802.4236	11044
804.8306	11202
807.2369	11170
809.6425	11133
812.0475	11168
814.4538	11153
816.8575	11170
819.2606	11177
821.663	11057
824.0648	11381
826.4659	11166
828.8683	11212
831.2682	11156
833.6674	11111
836.066	11221
838.4639	11113
840.8632	11117
843.2579	11258
845.6539	11116
848.0493	11248
850.444	11383
852.84	11260
855.2315	11393
857.6243	11394
860.0165	11213
862.4081	11303
864.797	11329
867.1892	11220
869.5789	11290
871.9659	11194
874.3542	11491
876.74	11257
879.129	11084
881.5155	11143
883.8994	11387
886.2845	11378
888.6671	11131
891.051	11150
893.4343	11346
895.8169	11234
898.197	11178
900.5783	11384
902.9571	11357
905.3372	11261
907.7167	11256
910.0936	11399
912.4698	11395
914.8474	11571
917.2244	11391
919.5987	11652
921.9744	11656
924.3475	11569
926.72	11655
929.0918	11629
931.4669	11620
933.8375	11641
936.2074	11727
938.5767	11579
940.9454	11898
943.3154	11789
945.6829	11918
948.0497	12205
950.4178	12294
952.7833	12390
955.1483	12446
957.5145	12848
959.8782	12873
962.2412	12859
964.6036	12953
966.9655	12407
969.3266	12388
971.6871	11905
974.0471	11829
976.4064	11712
978.765	11797
981.125	11688
983.4824	11522
985.8373	11543
988.1935	11559
990.549	11407
992.9039	11688
995.2602	11522
997.6119	11591
999.965	11616
1002.317	11671
1004.667	11645
1007.02	11456
1009.371	11681
1011.719	11581
1014.068	11688
1016.415	11735
1018.765	11768
1021.111	11576
1023.458	11866
1025.804	11754
1028.147	11507
1030.49	11782
1032.837	11730
1035.179	11920
1037.522	11772
1039.862	11784
1042.204	11858
1044.546	11843
1046.884	11900
1049.224	11936
1051.562	11810
1053.899	11759
1056.237	11915
1058.575	11884
1060.91	11802
1063.244	12039
1065.58	11968
1067.913	11940
1070.248	11797
1072.579	11955
1074.911	11901
1077.242	11898
1079.572	11959
1081.905	11756
1084.234	11993
1086.562	11997
1088.89	11903
1091.217	11806
1093.544	12023
1095.871	11687
1098.197	11977
1100.521	11976
1102.845	11884
1105.169	11814
1107.491	11928
1109.814	11949
1112.135	12039
1114.456	12105
1116.776	12023
1119.096	11948
1121.415	12077
1123.734	12131
1126.052	12023
1128.369	12018
1130.686	11963
1133.002	12156
1135.318	12092
1137.632	12054
1139.945	12017
1142.258	11971
1144.573	11973
1146.884	11976
1149.196	12168
1151.505	12017
1153.816	11970
1156.124	12057
1158.435	12025
1160.742	12190
1163.051	11905
1165.356	12127
1167.663	11990
1169.97	11884
1172.276	12179
1174.579	12084
1176.881	12050
1179.186	12092
1181.487	12066
1183.79	12107
1186.092	12055
1188.392	12100
1190.691	12011
1192.991	12033
1195.291	12023
1197.588	12135
1199.885	12043
1202.181	11941
1204.479	11919
1206.775	12111
1209.07	12004
1211.363	12089
1213.656	12130
1215.949	12080
1218.241	12283
1220.534	12044
1222.825	12089
1225.115	12207
1227.405	12046
1229.693	12279
1231.984	12227
1234.271	12290
1236.558	12257
1238.845	12293
1241.131	12456
1243.416	12304
1245.703	12346
1247.987	12392
1250.269	12344
1252.552	12296
1254.834	12280
1257.118	12342
1259.399	12278
1261.678	12542
1263.958	12379
1266.237	12361
1268.516	12469
1270.794	12367
1273.072	12427
1275.347	12539
1277.624	12385
1279.899	12339
1282.175	12404
1284.449	12252
1286.722	12400
1288.995	12157
1291.266	12446
1293.54	12463
1295.81	12321
1298.081	12280
1300.35	12277
1302.62	12236
1304.889	12167
1307.156	12208
1309.425	12352
1311.69	12365
1313.957	12272
1316.222	12316
1318.488	12388
1320.751	12214
1323.016	12354
1325.278	12251
1327.54	12385
1329.803	12306
1332.065	12435
1334.325	12206
1336.584	12393
1338.843	12252
1341.101	12140
1343.36	12348
1345.617	12370
1347.876	12192
1350.131	12480
1352.387	12273
1354.643	12295
1356.897	12224
1359.151	12320
1361.403	12277
1363.656	12356
1365.909	12382
1368.16	12179
1370.409	12487
1372.659	12437
1374.909	12364
1377.157	12329
1379.407	12350
1381.655	12437
1383.9	12343
1386.147	12343
1388.393	12500
1390.64	12325
1392.885	12499
1395.127	12419
1397.37	12349
1399.614	12413
1401.854	12529
1404.098	12427
1406.339	12610
1408.578	12641
1410.818	12561
1413.056	12550
1415.297	12665
1417.533	12555
1419.771	12628
1422.006	12554
1424.243	12520
1426.479	12600
1428.715	12551
1430.948	12649
1433.182	12723
1435.414	12616
1437.647	12549
1439.88	12797
1442.11	12685
1444.342	12781
1446.571	12682
1448.799	12671
1451.029	12741
1453.258	12871
1455.485	12807
1457.711	12738
1459.937	12787
1462.164	12687
1464.39	12733
1466.614	12689
1468.838	12667
1471.06	12561
1473.283	12570
1475.506	12539
1477.727	12615
1479.949	12648
1482.169	12694
1484.389	12614
1486.609	12615
1488.828	12551
1491.045	12420
1493.261	12224
1495.477	12528
1497.693	12526
1499.91	12460
1502.125	12493
1504.339	12219
1506.553	12394
1508.766	12411
1510.979	12425
1513.191	12459
1515.402	12414
1517.613	12292
1519.823	12327
1522.033	12413
1524.242	12468
1526.451	12389
1528.657	12524
1530.865	12355
1533.072	12555
1535.278	12405
1537.484	12363
1539.687	12262
1541.892	12405
1544.096	12462
1546.299	12509
1548.502	12547
1550.703	12516
1552.905	12432
1555.104	12570
1557.303	12646
1559.505	12626
1561.703	12680
1563.902	12585
1566.099	12695
1568.295	12673
1570.494	12712
1572.689	12686
1574.883	12638
1577.079	12573
1579.272	12763
1581.467	12900
1583.659	12868
1585.853	12787
1588.044	12763
1590.234	12831
1592.424	12731
1594.615	12728
1596.806	12854
1598.994	12876
1601.182	12824
1603.369	12642
1605.557	12915
1607.744	12834
1609.929	12869
1612.114	12925
1614.298	12829
1616.482	12839
1618.667	12907
1620.85	12903
1623.032	12853
1625.214	12866
1627.395	12927
1629.575	12843
1631.755	12859
1633.935	12908
1636.114	12848
1638.292	12764
1640.471	13003
1642.647	12789
1644.823	12705
1647	12867
1649.175	12874
1651.348	12865
1653.525	13003
1655.698	12863
1657.87	12969
1660.043	12764
1662.213	12950
1664.387	12772
1666.558	12903
1668.727	13000
1670.896	12946
1673.064	12940
1675.233	12815
1677.401	12846
1679.569	12804
1681.735	12808
1683.902	12894
1686.066	12847
1688.233	12848
1690.397	12821
1692.559	12870
1694.723	12764
1696.885	12892
1699.048	12745
1701.21	12955
1703.37	12770
1705.53	12681
1707.689	12805
1709.849	12811
1712.009	12851
1714.166	12781
1716.323	12900
1718.479	12908
1720.634	12763
1722.793	12798
1724.948	12777
1727.102	12910
1729.255	12839
1731.408	12816
1733.562	12737
1735.714	12690
1737.865	12725
1740.016	12828
1742.166	12786
1744.316	12795
1746.467	12710
1748.616	12849
1750.764	12796
1752.911	12850
1755.056	12892
1757.205	12815
1759.35	12955
1761.496	12848
1763.641	12849
1765.785	12715
1767.927	12900
1770.072	12862
1772.214	12847
1774.355	12896
1776.496	12896
1778.637	13117
1780.778	12762
1782.918	12949
1785.057	12930
1787.194	12856
1789.333	12935
1791.472	12905
1793.608	13013
1795.745	12898
1797.879	12927
1800.015	12867
1802.148	12949
1804.284	13000
1806.417	12967
1808.548	12823
1810.682	12881
1812.812	13100
1814.946	12943
1817.075	12985
1819.205	13034
1821.335	12825
1823.463	12983
1825.59	12817
1827.721	12817
1829.847	12733
1831.973	12965
1834.098	12894
1836.223	12856
1838.351	12961
1840.475	12791
1842.598	12816
1844.721	12988
1846.843	12662
1848.966	12863
1851.087	12759
1853.21	12932
1855.33	12870
1857.449	12702
1859.568	12726
1861.688	12689
1863.806	12859
1865.924	12790
1868.039	12785
1870.155	12823
1872.273	12810
1874.388	12686
1876.503	12687
1878.617	12792
1880.73	12836
1882.844	12709
1884.956	12760
1887.068	12894
1889.18	12763
1891.291	12691
1893.4	12790
1895.511	12825
1897.621	12778
1899.73	12833
1901.837	12841
1903.944	12830
1906.053	12874
1908.159	12924
1910.265	12954
1912.369	12994
1914.474	12849
1916.577	12712
1918.683	12819
1920.785	12870
1922.888	12917
1924.989	12704
1927.091	13166
1929.193	12964
1931.294	13074
1933.393	12766
1935.493	12871
1937.59	12954
1939.689	12959
1941.788	12945
1943.884	12963
1945.98	12933
1948.077	13177
1950.171	13089
1952.267	12983
1954.361	12931
1956.455	13032
1958.548	12933
1960.64	12896
1962.733	12938
1964.824	12955
1966.915	12939
1969.005	12830
1971.096	12820
1973.185	13020
1975.275	13114
1977.363	12844
1979.45	13022
1981.537	12900
1983.623	12921
1985.711	12867
1987.796	12931
1989.881	12702
1991.965	12764
1994.047	12764
1996.132	12738
1998.215	12689
2000.297	12778
2002.378	12760
2004.46	12676
2006.54	12602
2008.62	12747
2010.7	12757
2012.779	12721
2014.858	12807
2016.934	12774
2019.013	12687
2021.09	12865
2023.165	12757
2025.241	12869
2027.317	12697
2029.39	12687
2031.466	12631
2033.538	12686
2035.612	12724
2037.683	12728
2039.755	12683
2041.827	12875
2043.898	12639
2045.968	12757
2048.038	12723
2050.106	12693
2052.177	12739
2054.244	12785
2056.313	12797
2058.379	12747
2060.444	12917
2062.511	12740
2064.577	12727
2066.641	12571
2068.705	12691
2070.77	12953
2072.832	12734
2074.896	12678
2076.958	12774
2079.02	12905
2081.081	12788
2083.141	12542
2085.2	12774
2087.261	12615
2089.319	12780
2091.377	12727
2093.435	12873
2095.492	12762
2097.552	12812
2099.607	12752
2101.663	12824
2103.718	12796
2105.771	12680
2107.826	12965
2109.879	12539
2111.932	12806
2113.985	12721
2116.037	12650
2118.088	12695
2120.141	12682
2122.191	12833
2124.239	12642
2126.288	12689
2128.337	12868
2130.387	12600
2132.434	12740
2134.481	12825
2136.528	12805
2138.574	12705
2140.618	12572
2142.665	12821
2144.71	12516
2146.753	12666
2148.797	12509
2150.838	12573
2152.883	12784
2154.923	12777
2156.965	12658
2159.007	12487
2161.046	12678
2163.086	12439
2165.126	12420
2167.163	12480
2169.202	12636
2171.239	12545
2173.277	12565
2175.314	12500
2177.349	12553
2179.385	12565
2181.42	12536
2183.453	12649
2185.49	12478
2187.522	12504
2189.555	12417
2191.586	12613
2193.619	12406
2195.651	12342
2197.682	12617
2199.711	12454
2201.74	12392
2203.769	12505
2205.799	12212
2207.828	12479
2209.855	12293
2211.882	12515
2213.908	12473
2215.934	12373
2217.961	12464
2219.986	12325
2222.01	12411
2224.034	12378
2226.057	12272
2228.08	12350
2230.104	12186
2232.124	12405
2234.145	12350
2236.166	12344
2238.186	12288
2240.207	12243
2242.227	12464
2244.244	12203
2246.262	12400
2248.28	12387
2250.299	12159
2252.314	12321
2254.33	12284
2256.346	12486
2258.36	12357
2260.375	12373
2262.391	12332
2264.403	12239
2266.416	12324
2268.427	12160
2270.44	12279
2272.453	12389
2274.463	12351
2276.474	12268
2278.483	12258
2280.493	12338
2282.501	12464
2284.51	12321
2286.518	12283
2288.524	12102
2290.532	12390
2292.537	12279
2294.544	12246
2296.55	12310
2298.554	12211
2300.557	12464
2302.562	12263
2304.566	12367
2306.568	12093
2308.569	12235
2310.572	12374
2312.573	12281
2314.573	12165
2316.574	12111
2318.573	12073
2320.571	12153
2322.571	12312
2324.569	12292
2326.567	12073
2328.564	12239
2330.56	11978
2332.556	12059
2334.551	12200
2336.546	12084
2338.542	12098
2340.535	12149
2342.529	12076
2344.521	12010
2346.512	12020
2348.505	12005
2350.497	11929
2352.487	12217
2354.478	12009
2356.468	11938
2358.457	12122
2360.446	11910
2362.434	12092
2364.422	12034
2366.408	12078
2368.395	12000
2370.383	12006
2372.369	11908
2374.353	11940
2376.338	11855
2378.321	11919
2380.307	11957
2382.29	12017
2384.272	11924
2386.254	11790
2388.235	11807
2390.218	11979
2392.198	11787
2394.179	11866
2396.157	11891
2398.137	11908
2400.115	11633
2402.095	11925
2404.072	11811
2406.048	11905
2408.026	11876
2410.001	11929
2411.977	11847
2413.953	11895
2415.927	11860
2417.9	11847
2419.875	11958
2421.847	11838
2423.821	11851
2425.792	11784
2427.763	11860
2429.736	11856
2431.706	11823
2433.677	11742
2435.646	11835
2437.615	11968
2439.583	11794
2441.551	11882
2443.519	11767
2445.486	11609
2447.452	11847
2449.418	11714
2451.383	11774
2453.348	11740
2455.314	11774
2457.278	11798
2459.241	11782
2461.205	11742
2463.167	11627
2465.131	11738
2467.091	11814
2469.052	11590
2471.012	11623
2472.972	11685
2474.932	11522
2476.891	11664
2478.85	11781
2480.808	11683
2482.766	11638
2484.722	11566
2486.68	11575
2488.636	11609
2490.591	11643
2492.546	11660
2494.5	11665
2496.456	11599
2498.41	11512
2500.362	11645
2502.315	11522
2504.266	11526
2506.218	11500
2508.169	11582
2510.121	11661
2512.07	11541
2514.019	11479
2515.968	11431
2517.918	11546
2519.866	11423
2521.813	11612
2523.76	11767
2525.707	11500
2527.653	11491
2529.599	11533
2531.543	11675
2533.489	11510
2535.433	11603
2537.376	11479
2539.32	11637
2541.264	11366
2543.205	11515
2545.147	11580
2547.087	11556
2549.029	11480
2550.969	11496
2552.908	11431
2554.847	11613
2556.786	11453
2558.724	11444
2560.663	11530
2562.6	11483
2564.537	11536
2566.473	11472
2568.408	11591
2570.345	11342
2572.28	11423
2574.214	11419
2576.148	11441
2578.081	11360
2580.014	11459
2581.947	11506
2583.879	11573
2585.81	11448
2587.741	11537
2589.67	11415
2591.602	11417
2593.532	11536
2595.461	11518
2597.388	11553
2599.316	11555
2601.244	11532
2603.172	11398
2605.098	11459
2607.023	11621
2608.949	11346
2610.873	11610
2612.8	11425
2614.723	11378
2616.647	11535
2618.569	11563
2620.493	11400
2622.416	11519
2624.338	11385
2626.258	11627
2628.179	11546
2630.099	11446
2632.019	11568
2633.939	11560
2635.857	11289
2637.775	11489
2639.694	11431
2641.61	11561
2643.528	11442
2645.444	11588
2647.361	11268
2649.276	11445
2651.19	11483
2653.105	11636
2655.019	11389
2656.934	11491
2658.846	11341
2660.758	11520
2662.67	11381
2664.583	11347
2666.493	11414
2668.404	11437
2670.313	11304
2672.223	11454
2674.134	11367
2676.042	11213
2677.95	11537
2679.858	11331
2681.765	11360
2683.673	11344
2685.579	11468
2687.483	11416
2689.389	11476
2691.294	11250
2693.198	11250
2695.104	11228
2697.006	11394
2698.909	11297
2700.811	11375
2702.713	11197
2704.615	11311
2706.516	11266
2708.417	11264
2710.316	11178
2712.216	11275
2714.115	11136
2716.014	11220
2717.913	11281
2719.81	11243
2721.707	11167
2723.603	11386
2725.501	11190
2727.396	11131
2729.292	11111
2731.186	11132
2733.081	11270
2734.976	11084
2736.87	11146
2738.762	11227
2740.653	11152
2742.546	11240
2744.437	11069
2746.329	10920
2748.22	11184
2750.11	11128
2751.999	11129
2753.889	11265
2755.778	11115
2757.666	10944
2759.553	11237
2761.44	11037
2763.328	11018
2765.215	11040
2767.101	11095
2768.986	11143
2770.87	10997
2772.754	11148
2774.638	11125
2776.523	11033
2778.405	10986
2780.288	11022
2782.17	11092
2784.051	11054
2785.934	10907
2787.814	11061
2789.694	11098
2791.574	10937
2793.453	10976
2795.332	11055
2797.212	10840
2799.088	10862
2800.966	10999
2802.843	10880
2804.719	10927
2806.597	11105
2808.471	10885
2810.346	10901
2812.221	11018
2814.094	10904
2815.969	10948
2817.843	10936
2819.714	11044
2821.587	10932
2823.459	10897
2825.329	10848
2827.202	10817
2829.072	10822
2830.942	10875
2832.811	10923
2834.68	10839
2836.549	10950
2838.418	10849
2840.284	10984
2842.152	10871
2844.018	10871
2845.885	10847
2847.751	10946
2849.616	10911
2851.482	10825
2853.345	11027
2855.208	10851
2857.074	10913
2858.937	10913
2860.799	10933
2862.66	11074
2864.522	11097
2866.385	10829
2868.245	11087
2870.104	11059
2871.964	11066
2873.824	11322
2875.683	11138
2877.542	11189
2879.4	11249
2881.257	11107
2883.114	11300
2884.97	11270
2886.827	11182
2888.683	11131
2890.537	11269
2892.392	11235
2894.246	11310
2896.1	11270
2897.954	11264
2899.807	11226
2901.66	11148
2903.51	11208
2905.362	11224
2907.214	11326
2909.065	11181
2910.915	11295
2912.765	11287
2914.613	11283
2916.463	11305
2918.311	11175
2920.158	11317
2922.006	11391
2923.853	11393
2925.698	11569
2927.546	11519
2929.392	11622
2931.236	11651
2933.081	11616
2934.924	11773
2936.77	11567
2938.613	11663
2940.455	11796
2942.298	11992
2944.139	11848
2945.982	11876
2947.823	11747
2949.662	11709
2951.503	11811
2953.342	11636
2955.182	11591
2957.021	11566
2958.858	11674
2960.697	11368
2962.534	11479
2964.37	11443
2966.207	11322
2968.044	11265
2969.879	11272
2971.714	11054
2973.548	11194
2975.383	11202
2977.218	11079
2979.051	11089
2980.883	11045
2982.715	11001
2984.547	10993
2986.379	10895
2988.21	11076
2990.04	10962
2991.87	10807
2993.7	10894
2995.53	10781
2997.359	10859
2999.187	10838
3001.015	10741
3002.842	10591
3004.669	10614
3006.497	10799
3008.323	10614
3010.148	10531
3011.974	10483
3013.797	10468
3015.623	10511
3017.447	10453
3019.27	10433
3021.094	10388
3022.915	10403
3024.737	10441
3026.56	10226
3028.38	10403
3030.201	10285
3032.022	10260
3033.84	10264
3035.662	10244
3037.481	10125
3039.298	10184
3041.117	10110
3042.933	10353
3044.752	10152
3046.568	10127
3048.385	9976
3050.2	10234
3052.016	10250
3053.83	10138
3055.646	10241
3057.46	10052
3059.272	10181
3061.086	10119
3062.898	10098
3064.711	10031
3066.524	10284
3068.335	10122
3070.145	10036
3071.956	10075
3073.766	9998
3075.576	10143
3077.385	10158
3079.193	9998
3081.002	10021
3082.81	10010
3084.618	9993
3086.425	10038
3088.231	9935
3090.036	9959
3091.842	9923
3093.648	9987
3095.452	9784
3097.257	9848
3099.06	9829
3100.863	9889
3102.666	9838
3104.47	9852
3106.272	9795
3108.073	9961
3109.875	9718
3111.676	9784
3113.477	9791
3115.277	9777
3117.077	9832
3118.874	9742
3120.673	9709
3122.473	9744
3124.271	9626
3126.066	9691
3127.863	9614
3129.66	9688
3131.456	9626
3133.252	9604
3135.047	9655
3136.842	9740
3138.635	9555
3140.429	9739
3142.223	9663
3144.016	9676
3145.808	9697
3147.6	9615
3149.392	9659
3151.183	9703
3152.975	9671
3154.765	9641
3156.553	9457
3158.344	9725
3160.132	9506
3161.922	9632
3163.71	9493
3165.497	9459
3167.285	9475
3169.071	9513
3170.858	9359
3172.645	9575
3174.429	9414
3176.214	9507
3177.998	9453
3179.783	9400
3181.568	9515
3183.351	9424
3185.133	9483
3186.915	9378
3188.698	9545
3190.481	9496
3192.261	9379
3194.042	9595
3195.822	9358
3197.601	9400
3199.381	9436
3201.161	9409
3202.939	9295
3204.717	9465
3206.495	9361
3208.272	9273
3210.05	9245
3211.826	9287
3213.602	9312
3215.376	9419
3217.151	9359
3218.927	9331
3220.702	9375
3222.476	9453
3224.249	9333
3226.021	9333
3227.793	9259
3229.567	9145
3231.339	9223
3233.109	9284
3234.88	9372
3236.651	9210
3238.421	9092
3240.191	9311
3241.96	9324
3243.728	9332
3245.497	9243
3247.263	9290
3249.033	9337
3250.799	9312
3252.566	9309
3254.331	9415
3256.097	9218
3257.863	9233
3259.628	9228
3261.392	9204
3263.156	9268
3264.919	9117
3266.683	9209
3268.447	9221
3270.208	9323
3271.969	9207
3273.731	9169
3275.492	9160
3277.253	9319
3279.013	9259
3280.773	9100
3282.532	9302
3284.291	9341
3286.05	9149
3287.808	9034
3289.566	9213
3291.323	9206
3293.079	9102
3294.835	9115
3296.593	9096
3298.348	9179
3300.102	9155
3301.857	9119
3303.611	9164
3305.366	9075
3307.119	9100
3308.872	9154
3310.624	9181
3312.376	9268
3314.129	9048
3315.881	9056
3317.631	9134
3319.38	9071
3321.13	9110
3322.88	9138
3324.631	9006
3326.379	9094
3328.126	9091
3329.875	8948
3331.622	9065
3333.371	8981
3335.116	8941
3336.863	8989
3338.609	9048
3340.353	9072
3342.1	8940
3343.845	8975
3345.588	9067
3347.332	9026
3349.074	8998
3350.817	8991
3352.56	8908
3354.303	8973
3356.043	8880
3357.785	8972
3359.525	9021
3361.268	9068
3363.007	8924
3364.745	8878
3366.485	8959
3368.223	8832
3369.962	8737
3371.701	8785
3373.438	8920
3375.174	8920
3376.911	8931
3378.647	8876
3380.384	8988
3382.118	8822
3383.854	8832
3385.588	8933
3387.322	8799
3389.057	8838
3390.79	8842
3392.522	8730
3394.255	8716
3395.987	8750
3397.719	8707
3399.451	8750
3401.181	8765
3402.911	8717
3404.641	8707
3406.371	8752
3408.101	8768
3409.83	8872
3411.558	8744
3413.285	8685
3415.011	8680
3416.739	8652
3418.467	8625
3420.193	8792
3421.919	8746
3423.644	8895
3425.368	8665
3427.094	8693
3428.818	8766
3430.542	8607
3432.264	8611
3433.987	8668
3435.712	8750
3437.434	8569
3439.155	8633
3440.876	8526
3442.596	8616
3444.317	8613
3446.039	8484
3447.757	8434
3449.477	8543
3451.195	8561
3452.914	8535
3454.632	8471
3456.35	8398
3458.067	8498
3459.784	8522
3461.5	8463
3463.216	8366
3464.932	8406
3466.647	8438
3468.362	8393
3470.076	8486
3471.789	8427
3473.505	8419
3475.217	8229
3476.929	8319
3478.641	8331
3480.354	8309
3482.066	8361
3483.777	8419
3485.487	8373
3487.197	8302
3488.908	8390
3490.617	8417
3492.327	8334
3494.035	8302
3495.743	8316
3497.451	8326
3499.158	8201
3500.866	8205
3502.572	8138
3504.278	8293
3505.984	8344
3507.689	8151
3509.396	8269
3511.1	8112
3512.804	8220
3514.508	8072
3516.211	8109
3517.913	8267
3519.616	8222
3521.319	8134
3523.021	8228
3524.722	8072
3526.422	8099
3528.124	8119
3529.824	8186
3531.524	8143
3533.222	8061
3534.921	7955
3536.62	8094
3538.318	8293
3540.016	8108
3541.714	8047
3543.41	8033
3545.107	8049
3546.803	8097
3548.5	8050
3550.194	8005
3551.889	8049
3553.583	7924
3555.279	7993
3556.972	7972
3558.666	7925
3560.358	8112
3562.051	7997
3563.742	8042
3565.435	7938
3567.126	7864
3568.817	7987
3570.507	7916
3572.197	8015
3573.888	8016
3575.577	7964
3577.265	7758
3578.954	7840
3580.642	7868
3582.329	7903
3584.017	7865
3585.704	7931
3587.391	7774
3589.077	7969
3590.762	7818
3592.449	7713
3594.133	7750
3595.817	7848
3597.501	7929
3599.185	7769
3600.869	7829
3602.552	7882
3604.234	7674
3605.916	7810
3607.598	7734
3609.279	7683
3610.961	7608
3612.642	7860
3614.321	7646
3616	7563
3617.68	7619
3619.36	7754
3621.039	7718
3622.716	7705
3624.394	7655
3626.071	7519
3627.748	7541
3629.425	7694
3631.102	7520
3632.778	7627
3634.452	7595
3636.127	7599
3637.803	7602
3639.477	7611
3641.151	7643
3642.823	7513
3644.497	7579
3646.171	7513
3647.842	7614
3649.515	7527
3651.185	7653
3652.857	7607
3654.527	7499
3656.198	7390
3657.868	7545
3659.537	7563
3661.207	7489
3662.875	7504
3664.544	7431
3666.212	7444
3667.879	7455
3669.546	7412
3671.212	7349
3672.88	7333
3674.546	7483
3676.211	7437
3677.875	7377
3679.541	7414
3681.205	7514
3682.87	7376
3684.533	7444
3686.196	7397
3687.859	7443
3689.521	7410
3691.184	7373
3692.845	7291
3694.507	7300
3696.167	7397
3697.827	7508
3699.487	7322
3701.148	7328
3702.808	7360
3704.466	7341
3706.125	7367
3707.783	7181
3709.442	7304
3711.099	7353
3712.757	7334
3714.412	7252
3716.068	7342
3717.725	7250
3719.381	7353
3721.036	7272
3722.689	7301
3724.344	7362
3725.998	7298
3727.652	7283
3729.305	7192
3730.958	7128
3732.61	7178
3734.262	7213
3735.915	7128
3737.565	7163
3739.217	7125
3740.866	7250
3742.516	7257
3744.165	7209
3745.816	7223
3747.464	7231
3749.113	7227
3750.761	7249
3752.409	7150
3754.057	6888
3755.703	7015
3757.35	7169
3758.996	7107
3760.641	7061
3762.289	7087
3763.933	6998
3765.577	7029
3767.222	7045
3768.865	7136
3770.508	6973
3772.152	7068
3773.796	6935
3775.438	7116
3777.079	7112
3778.721	7074
3780.363	7003
3782.003	6870
3783.643	6952
3785.283	6995
3786.923	6915
3788.563	6995
3790.203	6973
3791.841	6886
3793.479	6834
3795.115	6946
3796.753	6957
3798.391	6947
3800.027	6911
3801.664	6976
3803.299	6835
3804.935	7007
3806.571	6956
3808.206	6836
3809.839	6866
3811.473	6926
3813.107	6899
3814.74	6817
3816.375	6819
3818.006	6804
3819.638	6840
3821.27	6790
3822.9	6824
3824.532	6837
3826.163	6885
3827.792	6816
3829.423	6823
3831.051	6851
3832.682	6811
3834.311	6844
3835.938	6744
3837.566	6659
3839.193	6718
3840.821	6727
3842.448	6729
3844.075	6705
3845.7	6634
3847.325	6663
3848.951	6776
3850.576	6719
3852.201	6746
3853.825	6738
3855.448	6657
3857.072	6594
3858.694	6658
3860.318	6699
3861.939	6747
3863.562	6590
3865.183	6765
3866.804	6669
3868.426	6665
3870.045	6657
3871.666	6611
3873.285	6606
3874.904	6621
3876.524	6635
3878.142	6692
3879.76	6623
3881.378	6545
3882.995	6611
3884.612	6672
3886.229	6561
3887.845	6661
3889.461	6653
3891.076	6481
3892.691	6551
3894.307	6581
3895.922	6361
3897.536	6458
3899.149	6431
3900.761	6561
3902.374	6647
3903.988	6500
3905.6	6514
3907.212	6474
3908.822	6489
3910.433	6492
3912.045	6561
3913.655	6521
3915.265	6550
3916.875	6521
3918.483	6420
3920.093	6450
3921.702	6407
3923.309	6490
3924.917	6484
3926.523	6502
3928.13	6379
3929.739	6457
3931.344	6462
3932.95	6491
3934.555	6465
3936.159	6415
3937.766	6547
3939.369	6459
3940.974	6237
3942.577	6389
3944.181	6416
3945.783	6309
3947.386	6295
3948.989	6318
3950.59	6429
3952.191	6551
3953.791	6390
3955.394	6395
3956.994	6357
3958.593	6265
3960.192	6433
3961.791	6221
3963.392	6300
3964.99	6353
3966.588	6276
3968.185	6268
3969.782	6342
3971.379	6299
3972.976	6219
3974.572	6215
3976.168	6276
3977.763	6257
3979.358	6226
3980.954	6279
3982.548	6257
3984.142	6235
3985.736	6205
3987.329	6143
3988.922	6209
3990.516	6171
3992.108	6053
3993.698	6157
3995.29	6163
3996.881	6161
3998.473	6086
4000.064	6191
4001.653	6061
4003.242	6151
4004.832	6063
4006.422	6101
4008.01	6100
4009.598	6089
4011.186	5959
4012.773	5975
4014.36	6117
4015.947	6065
4017.534	6059
4019.119	6056
4020.705	6068
4022.291	6075
4023.876	5980
4025.461	6035
4027.044	5895
4028.627	6100
4030.211	5879
4031.795	6022
4033.378	5973
4034.96	6059
4036.542	5903
4038.124	5950
4039.704	5929
4041.286	5897
4042.867	5858
4044.447	5843
4046.026	5884
4047.606	5893
4049.187	5855
4050.765	5924
4052.343	5873
4053.92	5887
4055.498	5813
4057.076	5911
4058.654	5873
4060.23	5854
4061.806	5843
4063.381	5863
4064.957	5791
4066.533	5832
4068.107	5764
4069.682	5854
4071.256	5780
4072.829	5842
4074.404	5873
4075.977	5800
4077.549	5769
4079.121	5721
4080.693	5821
4082.265	5740
4083.836	5873
4085.407	5760
4086.977	5790
4088.547	5816
4090.117	5785
4091.687	5737
4093.256	5684
4094.825	5766
4096.392	5647
4097.96	5773
4099.528	5747
4101.097	5685
4102.663	5621
4104.229	5675
4105.795	5685
4107.361	5673
4108.928	5800
4110.493	5635
4112.058	5668
4113.621	5635
4115.186	5591
4116.75	5647
4118.313	5631
4119.876	5605
4121.438	5591
4123	5687
4124.562	5555
4126.125	5697
4127.686	5639
4129.246	5691
4130.807	5503
4132.367	5572
4133.927	5508
4135.486	5641
4137.046	5614
4138.604	5526
4140.162	5567
4141.72	5529
4143.279	5485
4144.836	5490
4146.393	5565
4147.949	5522
4149.505	5438
4151.062	5643
4152.617	5395
4154.172	5467
4155.727	5472
4157.281	5371
4158.836	5514
4160.39	5565
4161.943	5409
4163.496	5430
4165.048	5358
4166.601	5514
4168.154	5355
4169.706	5435
4171.257	5349
4172.808	5392
4174.358	5416
4175.909	5443
4177.458	5280
4179.008	5350
4180.558	5376
4182.106	5414
4183.655	5348
4185.204	5382
4186.751	5265
4188.298	5348
4189.845	5274
4191.392	5299
4192.939	5269
4194.485	5302
4196.031	5338
4197.576	5304
4199.121	5264
4200.666	5300
4202.211	5217
4203.754	5261
4205.298	5156
4206.84	5362
4208.384	5267
4209.927	5243
4211.47	5294
4213.011	5209
4214.552	5191
4216.094	5256
4217.635	5296
4219.175	5267
4220.716	5322
4222.255	5195
4223.793	5252
4225.335	5240
4226.873	5177
4228.411	5272
4229.948	5216
4231.486	5174
4233.024	5120
4234.562	5180
4236.098	5183
4237.634	5162
4239.169	5246
4240.705	5209
4242.241	5254
4243.776	5151
4245.31	5199
4246.844	5161
4248.378	5064
4249.911	5199
4251.445	5105
4252.978	5147
4254.51	5120
4256.042	5096
4257.574	5178
4259.107	5141
4260.638	5175
4262.169	5081
4263.699	5092
4265.228	5058
4266.759	5084
4268.289	5079
4269.818	5097
4271.345	5107
4272.874	5097
4274.402	5096
4275.931	4981
4277.458	5100
4278.985	5077
4280.512	5095
4282.037	5147
4283.564	5080
4285.089	4944
4286.615	5070
4288.139	4983
4289.664	4945
4291.187	4975
4292.712	4986
4294.235	4985
4295.759	5044
4297.281	4953
4298.804	5030
4300.327	4986
4301.849	4971
4303.37	4823
4304.891	4899
4306.412	4914
4307.933	4952
4309.453	4913
4310.973	4895
4312.492	4901
