398.1873	5734
400.7097	5808
403.2336	5726
405.7547	5892
408.2751	5727
410.7948	5822
413.3138	5915
415.83	5861
418.3497	5992
420.8666	5901
423.3829	5986
425.8985	6037
428.4133	5936
430.9275	6068
433.441	6094
435.9538	6108
438.4639	6070
440.9753	6143
443.4881	6072
445.9982	6096
448.5055	6193
451.0142	6077
453.5201	6152
456.0274	6029
458.5361	6197
461.04	6176
463.5453	6146
466.0478	6189
468.5517	6087
471.0549	6261
473.5574	6225
476.0572	6184
478.5584	6242
481.0568	6197
483.5545	6278
486.0557	6272
488.5521	6177
491.0478	6265
493.5449	6331
496.0392	6387
498.5349	6414
501.0299	6390
503.5222	6407
506.0139	6383
508.5048	6412
510.9991	6443
513.4887	6400
515.9777	6406
518.4659	6488
520.9534	6395
523.4403	6503
525.9306	6385
528.4161	6427
530.9009	6484
533.3851	6419
535.8687	6502
538.3535	6584
540.8356	6447
543.3171	6407
545.7979	6403
548.278	6569
550.7595	6434
553.2383	6424
555.7144	6440
558.1918	6434
560.6685	6575
563.1446	6575
565.6221	6559
568.0968	6597
570.5688	6554
573.0422	6650
575.515	6665
577.989	6698
580.4584	6689
582.9291	6751
585.3991	6638
587.8685	6783
590.3352	6699
592.8052	6614
595.2706	6718
597.7372	6622
600.2033	6600
602.6666	6696
605.1334	6718
607.5953	6614
610.0587	6682
612.5193	6647
614.9814	6652
617.4427	6580
619.9034	6620
622.3615	6727
624.8208	6602
627.2775	6752
629.7335	6728
632.1929	6726
634.6476	6662
637.1016	6643
639.5569	6775
642.0096	6718
644.4637	6711
646.9151	6869
649.3678	6770
651.8179	6718
654.2672	6819
656.7159	6806
659.166	6710
661.6154	6751
664.0622	6815
666.5082	6805
668.9537	6869
671.4005	6891
673.8445	6913
676.288	6788
678.7308	6856
681.1729	6891
683.6163	6909
686.0572	6963
688.4973	6992
690.9368	6827
693.3757	6951
695.8138	7068
698.2534	6906
700.6902	6887
703.1245	6857
705.56	6947
707.9949	6997
710.4311	6952
712.8647	7069
715.2957	7050
717.7279	7075
720.1595	7102
722.5905	6994
725.0208	7062
727.4505	7086
729.8795	7057
732.3058	7119
734.7336	7135
737.1626	7226
739.587	7220
742.0128	7222
744.4359	7227
746.8604	7356
749.2841	7274
751.7073	7230
754.1278	7390
756.5496	7415
758.9688	7283
761.3893	7459
763.8093	7524
766.2285	7291
768.6451	7405
771.0611	7458
773.4784	7303
775.895	7334
778.3091	7406
780.7244	7409
783.1371	7461
785.5493	7385
787.9626	7481
790.3754	7292
792.7856	7421
795.1951	7515
797.6039	7415
800.0121	7317
802.4236	7474
804.8306	7526
807.2369	7455
809.6425	7547
812.0475	7389
814.4538	7608
816.8575	7339
819.2606	7636
821.663	7477
824.0648	7506
826.4659	7447
828.8683	7495
831.2682	7670
833.6674	7586
836.066	7529
838.4639	7541
840.8632	7447
843.2579	7571
845.6539	7675
848.0493	7618
850.444	7548
852.84	7627
855.2315	7569
857.6243	7588
860.0165	7531
862.4081	7540
864.797	7587
867.1892	7675
869.5789	7516
871.9659	7700
874.3542	7667
876.74	7533
879.129	7546
881.5155	7641
883.8994	7575
886.2845	7702
888.6671	7549
891.051	7723
893.4343	7501
895.8169	7645
898.197	7621
900.5783	7636
902.9571	7641
905.3372	7674
907.7167	7622
910.0936	7605
912.4698	7803
914.8474	7749
917.2244	7803
919.5987	7750
921.9744	7817
924.3475	7806
926.72	7885
929.0918	7893
931.4669	7863
933.8375	7993
936.2074	7877
938.5767	8092
940.9454	7972
943.3154	7961
945.6829	8126
948.0497	8257
950.4178	8208
952.7833	8479
955.1483	8743
957.5145	8894
959.8782	8962
962.2412	8910
964.6036	8892
966.9655	8766
969.3266	8442
971.6871	8407
974.0471	8225
976.4064	8083
978.765	7971
981.125	7942
983.4824	7870
985.8373	7876
988.1935	7757
990.549	7822
992.9039	7763
995.2602	7757
997.6119	7812
999.965	7860
1002.317	7923
1004.667	7982
1007.02	7902
1009.371	7811
1011.719	7741
1014.068	7891
1016.415	7886
1018.765	7930
1021.111	7946
1023.458	7950
1025.804	7985
1028.147	7967
1030.49	8000
1032.837	8002
1035.179	8086
1037.522	7911
1039.862	8064
1042.204	8032
1044.546	7946
1046.884	8024
1049.224	8067
1051.562	8106
1053.899	8047
1056.237	8155
1058.575	7995
1060.91	8119
1063.244	8176
1065.58	8044
1067.913	8198
1070.248	8009
1072.579	8197
1074.911	8196
1077.242	8123
1079.572	8129
1081.905	8070
1084.234	8128
1086.562	8094
1088.89	8059
1091.217	8142
1093.544	8069
1095.871	8198
1098.197	8010
1100.521	8058
1102.845	8049
1105.169	8193
1107.491	7955
1109.814	8154
1112.135	8114
1114.456	8184
1116.776	8141
1119.096	8125
1121.415	8214
1123.734	8148
1126.052	8236
1128.369	8199
1130.686	8047
1133.002	8176
1135.318	8227
1137.632	8063
1139.945	8058
1142.258	8211
1144.573	8069
1146.884	8164
1149.196	8045
1151.505	8279
1153.816	8070
1156.124	8238
1158.435	8082
1160.742	8130
1163.051	8114
1165.356	8129
1167.663	8169
1169.97	8105
1172.276	8145
1174.579	8276
1176.881	8131
1179.186	8155
1181.487	8275
1183.79	8011
1186.092	8165
1188.392	8155
1190.691	8057
1192.991	8066
1195.291	8188
1197.588	8134
1199.885	8108
1202.181	8227
1204.479	8237
1206.775	8140
1209.07	8139
1211.363	8301
1213.656	8314
1215.949	8232
1218.241	8188
1220.534	8162
1222.825	8270
1225.115	8199
1227.405	8267
1229.693	8370
1231.984	8341
1234.271	8325
1236.558	8341
1238.845	8491
1241.131	8285
1243.416	8459
1245.703	8474
1247.987	8383
1250.269	8344
1252.552	8477
1254.834	8452
1257.118	8394
1259.399	8476
1261.678	8376
1263.958	8575
1266.237	8500
1268.516	8388
1270.794	8416
1273.072	8568
1275.347	8397
1277.624	8443
1279.899	8448
1282.175	8326
1284.449	8403
1286.722	8386
1288.995	8476
1291.266	8341
1293.54	8291
1295.81	8275
1298.081	8252
1300.35	8284
1302.62	8313
1304.889	8196
1307.156	8405
1309.425	8385
1311.69	8345
1313.957	8422
1316.222	8226
1318.488	8267
1320.751	8341
1323.016	8527
1325.278	8224
1327.54	8398
1329.803	8350
1332.065	8348
1334.325	8232
1336.584	8404
1338.843	8184
1341.101	8403
1343.36	8355
1345.617	8414
1347.876	8447
1350.131	8283
1352.387	8219
1354.643	8440
1356.897	8256
1359.151	8532
1361.403	8432
1363.656	8467
1365.909	8348
1368.16	8332
1370.409	8554
1372.659	8450
1374.909	8440
1377.157	8332
1379.407	8309
1381.655	8533
1383.9	8423
1386.147	8490
1388.393	8503
1390.64	8488
1392.885	8465
1395.127	8423
1397.37	8381
1399.614	8434
1401.854	8504
1404.098	8488
1406.339	8553
1408.578	8680
1410.818	8531
1413.056	8572
1415.297	8548
1417.533	8581
1419.771	8472
1422.006	8667
1424.243	8602
1426.479	8664
1428.715	8673
1430.948	8673
1433.182	8557
1435.414	8511
1437.647	8726
1439.88	8661
1442.11	8786
1444.342	8725
1446.571	8691
1448.799	8645
1451.029	8709
1453.258	8691
1455.485	8649
1457.711	8689
1459.937	8807
1462.164	8805
1464.39	8754
1466.614	8699
1468.838	8707
1471.06	8565
1473.283	8582
1475.506	8610
1477.727	8500
1479.949	8633
1482.169	8667
1484.389	8537
1486.609	8608
1488.828	8596
1491.045	8462
1493.261	8446
1495.477	8573
1497.693	8469
1499.91	8472
1502.125	8475
1504.339	8514
1506.553	8446
1508.766	8439
1510.979	8316
1513.191	8530
1515.402	8519
1517.613	8480
1519.823	8472
1522.033	8574
1524.242	8442
1526.451	8359
1528.657	8431
1530.865	8454
1533.072	8571
1535.278	8537
1537.484	8549
1539.687	8406
1541.892	8420
1544.096	8537
1546.299	8458
1548.502	8621
1550.703	8517
1552.905	8559
1555.104	8626
1557.303	8592
1559.505	8474
1561.703	8605
1563.902	8607
1566.099	8635
1568.295	8635
1570.494	8582
1572.689	8666
1574.883	8521
1577.079	8712
1579.272	8624
1581.467	8747
1583.659	8760
1585.853	8689
1588.044	8581
1590.234	8852
1592.424	8666
1594.615	8766
1596.806	8755
1598.994	8739
1601.182	8767
1603.369	8879
1605.557	8717
1607.744	8787
1609.929	8852
1612.114	8765
1614.298	8743
1616.482	8802
1618.667	8663
1620.85	8820
1623.032	8878
1625.214	8839
1627.395	8767
1629.575	8802
1631.755	8879
1633.935	8826
1636.114	8729
1638.292	8847
1640.471	8765
1642.647	8766
1644.823	8919
1647	8826
1649.175	8755
1651.348	8849
1653.525	8922
1655.698	8846
1657.87	9029
1660.043	8778
1662.213	8881
1664.387	8811
1666.558	9007
1668.727	8924
1670.896	8755
1673.064	8920
1675.233	8869
1677.401	8960
1679.569	8937
1681.735	8924
1683.902	8858
1686.066	8772
1688.233	8964
1690.397	8854
1692.559	8953
1694.723	8811
1696.885	8822
1699.048	8901
1701.21	8724
1703.37	8831
1705.53	8692
1707.689	8811
1709.849	8654
1712.009	8856
1714.166	8772
1716.323	8829
1718.479	8792
1720.634	8746
1722.793	8762
1724.948	8705
1727.102	8728
1729.255	8752
1731.408	8791
1733.562	8747
1735.714	8818
1737.865	8858
1740.016	8943
1742.166	8749
1744.316	8853
1746.467	8757
1748.616	8810
1750.764	8838
1752.911	8692
1755.056	8928
1757.205	8760
1759.35	8819
1761.496	8913
1763.641	8969
1765.785	8757
1767.927	8891
1770.072	8881
1772.214	8822
1774.355	8823
1776.496	8878
1778.637	8888
1780.778	8848
1782.918	8794
1785.057	8759
1787.194	8908
1789.333	8981
1791.472	8916
1793.608	8829
1795.745	8985
1797.879	8959
1800.015	8976
1802.148	8929
1804.284	8896
1806.417	8982
1808.548	8888
1810.682	8986
1812.812	8856
1814.946	8953
1817.075	8850
1819.205	8892
1821.335	8927
1823.463	8948
1825.59	8866
1827.721	8884
1829.847	8952
1831.973	8906
1834.098	8852
1836.223	8812
1838.351	9077
1840.475	8867
1842.598	8676
1844.721	8823
1846.843	8872
1848.966	8802
1851.087	8941
1853.21	8840
1855.33	8819
1857.449	8779
1859.568	8832
1861.688	8874
1863.806	8826
1865.924	8905
1868.039	8956
1870.155	8826
1872.273	8840
1874.388	8935
1876.503	8700
1878.617	8780
1880.73	8891
1882.844	8820
1884.956	8900
1887.068	8864
1889.18	8838
1891.291	8873
1893.4	8970
1895.511	8770
1897.621	8905
1899.73	8855
1901.837	8896
1903.944	9040
1906.053	8991
1908.159	8848
1910.265	8944
1912.369	9015
1914.474	8965
1916.577	8867
1918.683	8964
1920.785	9014
1922.888	9073
1924.989	8887
1927.091	8965
1929.193	8933
1931.294	8931
1933.393	8993
1935.493	9017
1937.59	9011
1939.689	9045
1941.788	9033
1943.884	9021
1945.98	9038
1948.077	8950
1950.171	9022
1952.267	9112
1954.361	8888
1956.455	8863
1958.548	9158
1960.64	9044
1962.733	8968
1964.824	9006
1966.915	8934
1969.005	9001
1971.096	8970
1973.185	8917
1975.275	8963
1977.363	9084
1979.45	8900
1981.537	8992
1983.623	8861
1985.711	9069
1987.796	8994
1989.881	8875
1991.965	8905
1994.047	8962
1996.132	8790
1998.215	8861
2000.297	8866
2002.378	8887
2004.46	8946
2006.54	8944
2008.62	8838
2010.7	9137
2012.779	8950
2014.858	8942
2016.934	8908
2019.013	8875
2021.09	8955
2023.165	8880
2025.241	9052
2027.317	8839
2029.39	8775
2031.466	8770
2033.538	8973
2035.612	8846
2037.683	8931
2039.755	8933
2041.827	8964
2043.898	8966
2045.968	8867
2048.038	8890
2050.106	8855
2052.177	9005
2054.244	9005
2056.313	9091
2058.379	8888
2060.444	8901
2062.511	8862
2064.577	9000
2066.641	8977
2068.705	8924
2070.77	9110
2072.832	8837
2074.896	8889
2076.958	8940
2079.02	8919
2081.081	8904
2083.141	8828
2085.2	8859
2087.261	9048
2089.319	8954
2091.377	8900
2093.435	8886
2095.492	8985
2097.552	9016
2099.607	8966
2101.663	9003
2103.718	8885
2105.771	9018
2107.826	8940
2109.879	8857
2111.932	8901
2113.985	8986
2116.037	8970
2118.088	8770
2120.141	8865
2122.191	8977
2124.239	9006
2126.288	8944
2128.337	8951
2130.387	8919
2132.434	8927
2134.481	8997
2136.528	8834
2138.574	8799
2140.618	8982
2142.665	8871
2144.71	8926
2146.753	8772
2148.797	8972
2150.838	8833
2152.883	8803
2154.923	8781
2156.965	8833
2159.007	8946
2161.046	8870
2163.086	8905
2165.126	8863
2167.163	8834
2169.202	8862
2171.239	8911
2173.277	8890
2175.314	8766
2177.349	8839
2179.385	8892
2181.42	8831
2183.453	8888
2185.49	8862
2187.522	8832
2189.555	8747
2191.586	8734
2193.619	8938
2195.651	8785
2197.682	8762
2199.711	8688
2201.74	8699
2203.769	8679
2205.799	8639
2207.828	8720
2209.855	8745
2211.882	8690
2213.908	8756
2215.934	8708
2217.961	8768
2219.986	8742
2222.01	8779
2224.034	8873
2226.057	8626
2228.08	8752
2230.104	8859
2232.124	8841
2234.145	8732
2236.166	8608
2238.186	8734
2240.207	8594
2242.227	8745
2244.244	8707
2246.262	8650
2248.28	8788
2250.299	8770
2252.314	8726
2254.33	8668
2256.346	8778
2258.36	8679
2260.375	8681
2262.391	8682
2264.403	8629
2266.416	8760
2268.427	8814
2270.44	8724
2272.453	8866
2274.463	8724
2276.474	8807
2278.483	8776
2280.493	8788
2282.501	8694
2284.51	8751
2286.518	8615
2288.524	8633
2290.532	8629
2292.537	8744
2294.544	8790
2296.55	8710
2298.554	8641
2300.557	8740
2302.562	8753
2304.566	8631
2306.568	8639
2308.569	8706
2310.572	8665
2312.573	8729
2314.573	8730
2316.574	8685
2318.573	8740
2320.571	8610
2322.571	8667
2324.569	8681
2326.567	8580
2328.564	8620
2330.56	8645
2332.556	8497
2334.551	8634
2336.546	8518
2338.542	8564
2340.535	8544
2342.529	8563
2344.521	8504
2346.512	8616
2348.505	8609
2350.497	8474
2352.487	8556
2354.478	8544
2356.468	8498
2358.457	8586
2360.446	8445
2362.434	8531
2364.422	8614
2366.408	8724
2368.395	8447
2370.383	8606
2372.369	8392
2374.353	8495
2376.338	8408
2378.321	8557
2380.307	8469
2382.29	8538
2384.272	8369
2386.254	8372
2388.235	8536
2390.218	8445
2392.198	8360
2394.179	8572
2396.157	8373
2398.137	8483
2400.115	8471
2402.095	8617
2404.072	8456
2406.048	8541
2408.026	8301
2410.001	8386
2411.977	8452
2413.953	8420
2415.927	8398
2417.9	8436
2419.875	8417
2421.847	8267
2423.821	8463
2425.792	8355
2427.763	8391
2429.736	8440
2431.706	8482
2433.677	8437
2435.646	8463
2437.615	8538
2439.583	8368
2441.551	8455
2443.519	8415
2445.486	8365
2447.452	8549
2449.418	8488
2451.383	8540
2453.348	8485
2455.314	8327
2457.278	8330
2459.241	8477
2461.205	8363
2463.167	8416
2465.131	8353
2467.091	8307
2469.052	8357
2471.012	8403
2472.972	8448
2474.932	8326
2476.891	8430
2478.85	8398
2480.808	8156
2482.766	8417
2484.722	8391
2486.68	8473
2488.636	8262
2490.591	8469
2492.546	8379
2494.5	8283
2496.456	8315
2498.41	8329
2500.362	8261
2502.315	8258
2504.266	8214
2506.218	8354
2508.169	8350
2510.121	8337
2512.07	8398
2514.019	8233
2515.968	8390
2517.918	8302
2519.866	8247
2521.813	8282
2523.76	8259
2525.707	8198
2527.653	8257
2529.599	8348
2531.543	8320
2533.489	8209
2535.433	8257
2537.376	8245
2539.32	8255
2541.264	8218
2543.205	8253
2545.147	8198
2547.087	8274
2549.029	8309
2550.969	8243
2552.908	8314
2554.847	8133
2556.786	8368
2558.724	8338
2560.663	8212
2562.6	8313
2564.537	8403
2566.473	8233
2568.408	8195
2570.345	8255
2572.28	8382
2574.214	8188
2576.148	8299
2578.081	8378
2580.014	8366
2581.947	8275
2583.879	8261
2585.81	8225
2587.741	8257
2589.67	8281
2591.602	8211
2593.532	8262
2595.461	8275
2597.388	8311
2599.316	8345
2601.244	8367
2603.172	8423
2605.098	8272
2607.023	8303
2608.949	8245
2610.873	8216
2612.8	8341
2614.723	8369
2616.647	8336
2618.569	8331
2620.493	8287
2622.416	8323
2624.338	8310
2626.258	8339
2628.179	8285
2630.099	8354
2632.019	8222
2633.939	8384
2635.857	8307
2637.775	8280
2639.694	8392
2641.61	8405
2643.528	8397
2645.444	8319
2647.361	8281
2649.276	8433
2651.19	8307
2653.105	8319
2655.019	8349
2656.934	8281
2658.846	8289
2660.758	8335
2662.67	8315
2664.583	8283
2666.493	8413
2668.404	8361
2670.313	8328
2672.223	8307
2674.134	8333
2676.042	8410
2677.95	8097
2679.858	8175
2681.765	8229
2683.673	8158
2685.579	8235
2687.483	8288
2689.389	8255
2691.294	8138
2693.198	8302
2695.104	8310
2697.006	8278
2698.909	8210
2700.811	8138
2702.713	8080
2704.615	8169
2706.516	8165
2708.417	8209
2710.316	8126
2712.216	8048
2714.115	8121
2716.014	8219
2717.913	8230
2719.81	8085
2721.707	8033
2723.603	8093
2725.501	8067
2727.396	8161
2729.292	8164
2731.186	8290
2733.081	8208
2734.976	8222
2736.87	8086
2738.762	8110
2740.653	8027
2742.546	8211
2744.437	8074
2746.329	8129
2748.22	8152
2750.11	8027
2751.999	8069
2753.889	8005
2755.778	8225
2757.666	8036
2759.553	8123
2761.44	8123
2763.328	7977
2765.215	8045
2767.101	8102
2768.986	8078
2770.87	8064
2772.754	8199
2774.638	8257
2776.523	7988
2778.405	8121
2780.288	8080
2782.17	7996
2784.051	8126
2785.934	8010
2787.814	8175
2789.694	7985
2791.574	8093
2793.453	7989
2795.332	8050
2797.212	8146
2799.088	7947
2800.966	7991
2802.843	7919
2804.719	7917
2806.597	8023
2808.471	7945
2810.346	7983
2812.221	8045
2814.094	8021
2815.969	7972
2817.843	7870
2819.714	8073
2821.587	7974
2823.459	8159
2825.329	7996
2827.202	7890
2829.072	7918
2830.942	8020
2832.811	7976
2834.68	7978
2836.549	7991
2838.418	7989
2840.284	8067
2842.152	7922
2844.018	7942
2845.885	7928
2847.751	7992
2849.616	7969
2851.482	7936
2853.345	8045
2855.208	8037
2857.074	8040
2858.937	7906
2860.799	7926
2862.66	8086
2864.522	8155
2866.385	8090
2868.245	8181
2870.104	8195
2871.964	8065
2873.824	8257
2875.683	8204
2877.542	8179
2879.4	8432
2881.257	8371
2883.114	8412
2884.97	8426
2886.827	8368
2888.683	8319
2890.537	8443
2892.392	8379
2894.246	8404
2896.1	8269
2897.954	8260
2899.807	8339
2901.66	8312
2903.51	8325
2905.362	8340
2907.214	8541
2909.065	8421
2910.915	8260
2912.765	8411
2914.613	8387
2916.463	8373
2918.311	8382
2920.158	8378
2922.006	8505
2923.853	8675
2925.698	8533
2927.546	8724
2929.392	8525
2931.236	8576
2933.081	8813
2934.924	8715
2936.77	8785
2938.613	8773
2940.455	8887
2942.298	8921
2944.139	8905
2945.982	9023
2947.823	8822
2949.662	8917
2951.503	8970
2953.342	8683
2955.182	8785
2957.021	8650
2958.858	8691
2960.697	8584
2962.534	8532
2964.37	8494
2966.207	8590
2968.044	8446
2969.879	8544
2971.714	8344
2973.548	8350
2975.383	8290
2977.218	8383
2979.051	8376
2980.883	8183
2982.715	8175
2984.547	8272
2986.379	8277
2988.21	8162
2990.04	8033
2991.87	8087
2993.7	8285
2995.53	8149
2997.359	8140
2999.187	8118
3001.015	8028
3002.842	7874
3004.669	7853
3006.497	8087
3008.323	7816
3010.148	7976
3011.974	7787
3013.797	7842
3015.623	7809
3017.447	7687
3019.27	7776
3021.094	7706
3022.915	7687
3024.737	7724
3026.56	7649
3028.38	7691
3030.201	7603
3032.022	7637
3033.84	7652
3035.662	7648
3037.481	7669
3039.298	7630
3041.117	7487
3042.933	7526
3044.752	7515
3046.568	7610
3048.385	7500
3050.2	7561
3052.016	7643
3053.83	7463
3055.646	7637
3057.46	7596
3059.272	7555
3061.086	7520
3062.898	7585
3064.711	7424
3066.524	7637
3068.335	7481
3070.145	7410
3071.956	7464
3073.766	7407
3075.576	7530
3077.385	7385
3079.193	7418
3081.002	7426
3082.81	7430
3084.618	7535
3086.425	7527
3088.231	7409
3090.036	7414
3091.842	7339
3093.648	7357
3095.452	7428
3097.257	7336
3099.06	7462
3100.863	7344
3102.666	7379
3104.47	7372
3106.272	7433
3108.073	7448
3109.875	7398
3111.676	7377
3113.477	7341
3115.277	7353
3117.077	7327
3118.874	7296
3120.673	7282
3122.473	7269
3124.271	7208
3126.066	7345
3127.863	7157
3129.66	7365
3131.456	7348
3133.252	7266
3135.047	7189
3136.842	7315
3138.635	7096
3140.429	7169
3142.223	7246
3144.016	7193
3145.808	7241
3147.6	7284
3149.392	7105
3151.183	7086
3152.975	7081
3154.765	7313
3156.553	7218
3158.344	7313
3160.132	7116
3161.922	7221
3163.71	7167
3165.497	7230
3167.285	7184
3169.071	7234
3170.858	7079
3172.645	7190
3174.429	7073
3176.214	7248
3177.998	7157
3179.783	7223
3181.568	7196
3183.351	7194
3185.133	7014
3186.915	7132
3188.698	7071
3190.481	7206
3192.261	7153
3194.042	7135
3195.822	6947
3197.601	7009
3199.381	7114
3201.161	7113
3202.939	7052
3204.717	7130
3206.495	7066
3208.272	6974
3210.05	7068
3211.826	6986
3213.602	7004
3215.376	7092
3217.151	7038
3218.927	7011
3220.702	7015
3222.476	6950
3224.249	7081
3226.021	7053
3227.793	7143
3229.567	7032
3231.339	7025
3233.109	7059
3234.88	6946
3236.651	6871
3238.421	7044
3240.191	6945
3241.96	6968
3243.728	7066
3245.497	6856
3247.263	7019
3249.033	7149
3250.799	7003
3252.566	7010
3254.331	6954
3256.097	7078
3257.863	7049
3259.628	7126
3261.392	6962
3263.156	6915
3264.919	6804
3266.683	7021
3268.447	6871
3270.208	7005
3271.969	6927
3273.731	7032
3275.492	6974
3277.253	7000
3279.013	7025
3280.773	6983
3282.532	7023
3284.291	7006
3286.05	7007
3287.808	6929
3289.566	7113
3291.323	6887
3293.079	6993
3294.835	6949
3296.593	7011
3298.348	6926
3300.102	6948
3301.857	6926
3303.611	6985
3305.366	6912
3307.119	6996
3308.872	6974
3310.624	6946
3312.376	6939
3314.129	6962
3315.881	6952
3317.631	6968
3319.38	6899
3321.13	6857
3322.88	6994
3324.631	7038
3326.379	6874
3328.126	6954
3329.875	6652
3331.622	6942
3333.371	6795
3335.116	6953
3336.863	6897
3338.609	6926
3340.353	6948
3342.1	6994
3343.845	6841
3345.588	6966
3347.332	6818
3349.074	6788
3350.817	6854
3352.56	6903
3354.303	6819
3356.043	6798
3357.785	6779
3359.525	6825
3361.268	6915
3363.007	6881
3364.745	6764
3366.485	6774
3368.223	6930
3369.962	6636
3371.701	6633
3373.438	6826
3375.174	6893
3376.911	6731
3378.647	6775
3380.384	6683
3382.118	6788
3383.854	6746
3385.588	6788
3387.322	6706
3389.057	6793
3390.79	6768
3392.522	6603
3394.255	6728
3395.987	6735
3397.719	6643
3399.451	6754
3401.181	6739
3402.911	6640
3404.641	6763
3406.371	6529
3408.101	6735
3409.83	6680
3411.558	6795
3413.285	6746
3415.011	6603
3416.739	6682
3418.467	6627
3420.193	6603
3421.919	6675
3423.644	6696
3425.368	6611
3427.094	6668
3428.818	6648
3430.542	6614
3432.264	6727
3433.987	6610
3435.712	6617
3437.434	6683
3439.155	6688
3440.876	6606
3442.596	6564
3444.317	6601
3446.039	6657
3447.757	6628
3449.477	6488
3451.195	6575
3452.914	6436
3454.632	6450
3456.35	6560
3458.067	6506
3459.784	6541
3461.5	6445
3463.216	6509
3464.932	6601
3466.647	6487
3468.362	6397
3470.076	6471
3471.789	6559
3473.505	6505
3475.217	6448
3476.929	6544
3478.641	6336
3480.354	6389
3482.066	6412
3483.777	6383
3485.487	6361
3487.197	6420
3488.908	6455
3490.617	6487
3492.327	6459
3494.035	6423
3495.743	6371
3497.451	6345
3499.158	6392
3500.866	6401
3502.572	6402
3504.278	6299
3505.984	6253
3507.689	6317
3509.396	6379
3511.1	6245
3512.804	6356
3514.508	6343
3516.211	6282
3517.913	6168
3519.616	6257
3521.319	6243
3523.021	6285
3524.722	6250
3526.422	6313
3528.124	6332
3529.824	6297
3531.524	6227
3533.222	6306
3534.921	6129
3536.62	6283
3538.318	6241
3540.016	6205
3541.714	6183
3543.41	6179
3545.107	6352
3546.803	6321
3548.5	6080
3550.194	6193
3551.889	6258
3553.583	6285
3555.279	6124
3556.972	6159
3558.666	6204
3560.358	6215
3562.051	6253
3563.742	6160
3565.435	6263
3567.126	6121
3568.817	6241
3570.507	6197
3572.197	6161
3573.888	6027
3575.577	6119
3577.265	6148
3578.954	6055
3580.642	6126
3582.329	6057
3584.017	6196
3585.704	6150
3587.391	6139
3589.077	6122
3590.762	6029
3592.449	6171
3594.133	6071
3595.817	6051
3597.501	6092
3599.185	5922
3600.869	6085
3602.552	6059
3604.234	6094
3605.916	6089
3607.598	5977
3609.279	6000
3610.961	5917
3612.642	5899
3614.321	6009
3616	5990
3617.68	5969
3619.36	6042
3621.039	5905
3622.716	5913
3624.394	6084
3626.071	5838
3627.748	6017
3629.425	5903
3631.102	5943
3632.778	5868
3634.452	5999
3636.127	5877
3637.803	5921
3639.477	5805
3641.151	5855
3642.823	5814
3644.497	5911
3646.171	5880
3647.842	5778
3649.515	5817
3651.185	5772
3652.857	5900
3654.527	5744
3656.198	5817
3657.868	5706
3659.537	5846
3661.207	5729
3662.875	5773
3664.544	5743
3666.212	5822
3667.879	5760
3669.546	5812
3671.212	5865
3672.88	5667
3674.546	5787
3676.211	5899
3677.875	5772
3679.541	5669
3681.205	5671
3682.87	5692
3684.533	5720
3686.196	5689
3687.859	5825
3689.521	5755
3691.184	5705
3692.845	5650
3694.507	5649
3696.167	5760
3697.827	5705
3699.487	5692
3701.148	5667
3702.808	5637
3704.466	5718
3706.125	5677
3707.783	5634
3709.442	5708
3711.099	5719
3712.757	5656
3714.412	5669
3716.068	5631
3717.725	5773
3719.381	5636
3721.036	5673
3722.689	5694
3724.344	5617
3725.998	5586
3727.652	5651
3729.305	5575
3730.958	5718
3732.61	5572
3734.262	5628
3735.915	5623
3737.565	5550
3739.217	5680
3740.866	5532
3742.516	5624
3744.165	5523
3745.816	5530
3747.464	5488
3749.113	5578
3750.761	5634
3752.409	5559
3754.057	5674
3755.703	5521
3757.35	5454
3758.996	5472
3760.641	5511
3762.289	5523
3763.933	5597
3765.577	5627
3767.222	5481
3768.865	5531
3770.508	5476
3772.152	5524
3773.796	5493
3775.438	5446
3777.079	5527
3778.721	5524
3780.363	5396
3782.003	5461
3783.643	5553
3785.283	5395
3786.923	5416
3788.563	5487
3790.203	5529
3791.841	5467
3793.479	5428
3795.115	5490
3796.753	5340
3798.391	5482
3800.027	5393
3801.664	5348
3803.299	5374
3804.935	5314
3806.571	5384
3808.206	5391
3809.839	5372
3811.473	5427
3813.107	5352
3814.74	5317
3816.375	5425
3818.006	5271
3819.638	5360
3821.27	5396
3822.9	5326
3824.532	5340
3826.163	5432
3827.792	5379
3829.423	5397
3831.051	5322
3832.682	5312
3834.311	5354
3835.938	5269
3837.566	5312
3839.193	5374
3840.821	5251
3842.448	5262
3844.075	5328
3845.7	5321
3847.325	5306
3848.951	5328
3850.576	5292
3852.201	5184
3853.825	5206
3855.448	5276
3857.072	5194
3858.694	5176
3860.318	5218
3861.939	5199
3863.562	5249
3865.183	5229
3866.804	5226
3868.426	5191
3870.045	5278
3871.666	5118
3873.285	5226
3874.904	5237
3876.524	5180
3878.142	5180
3879.76	5211
3881.378	5272
3882.995	5256
3884.612	5099
3886.229	5236
3887.845	5167
3889.461	5234
3891.076	5075
3892.691	5237
3894.307	5145
3895.922	5124
3897.536	5095
3899.149	5222
3900.761	5165
3902.374	5180
3903.988	5235
3905.6	5155
3907.212	5133
3908.822	5118
3910.433	5169
3912.045	5190
3913.655	5154
3915.265	5179
3916.875	5156
3918.483	5101
3920.093	5063
3921.702	5125
3923.309	5008
3924.917	5201
3926.523	5092
3928.13	5083
3929.739	5048
3931.344	5125
3932.95	5055
3934.555	5096
3936.159	5120
3937.766	5061
3939.369	5003
3940.974	5039
3942.577	5079
3944.181	5113
3945.783	5042
3947.386	5063
3948.989	5128
3950.59	5107
3952.191	5055
3953.791	5040
3955.394	4977
3956.994	5087
3958.593	5042
3960.192	4939
3961.791	4997
3963.392	4994
3964.99	5034
3966.588	4986
3968.185	5058
3969.782	4992
3971.379	5024
3972.976	4959
3974.572	4953
3976.168	4928
3977.763	4917
3979.358	4920
3980.954	4991
3982.548	4910
3984.142	4904
3985.736	4819
3987.329	4977
3988.922	4857
3990.516	4891
3992.108	5014
3993.698	4933
3995.29	4904
3996.881	4915
3998.473	4805
4000.064	4873
4001.653	4839
4003.242	4797
4004.832	4862
4006.422	4783
4008.01	4845
4009.598	4966
4011.186	4862
4012.773	4833
4014.36	4810
4015.947	4797
4017.534	4842
4019.119	4745
4020.705	4698
4022.291	4818
4023.876	4727
4025.461	4719
4027.044	4780
4028.627	4813
4030.211	4724
4031.795	4737
4033.378	4859
4034.96	4824
4036.542	4641
4038.124	4739
4039.704	4796
4041.286	4637
4042.867	4693
4044.447	4688
4046.026	4654
4047.606	4722
4049.187	4669
4050.765	4720
4052.343	4681
4053.92	4709
4055.498	4686
4057.076	4634
4058.654	4749
4060.23	4673
4061.806	4630
4063.381	4788
4064.957	4672
4066.533	4704
4068.107	4660
4069.682	4625
4071.256	4665
4072.829	4635
4074.404	4608
4075.977	4633
4077.549	4727
4079.121	4645
4080.693	4596
4082.265	4670
4083.836	4668
4085.407	4658
4086.977	4515
4088.547	4571
4090.117	4641
4091.687	4504
4093.256	4674
4094.825	4665
4096.392	4536
4097.96	4621
4099.528	4488
4101.097	4534
4102.663	4585
4104.229	4577
4105.795	4593
4107.361	4545
4108.928	4558
4110.493	4692
4112.058	4549
4113.621	4558
4115.186	4616
4116.75	4547
4118.313	4516
4119.876	4491
4121.438	4524
4123	4449
4124.562	4472
4126.125	4513
4127.686	4417
4129.246	4469
4130.807	4495
4132.367	4411
4133.927	4451
4135.486	4528
4137.046	4365
4138.604	4498
4140.162	4487
4141.72	4378
4143.279	4433
4144.836	4490
4146.393	4473
4147.949	4403
4149.505	4389
4151.062	4450
4152.617	4461
4154.172	4376
4155.727	4436
4157.281	4488
4158.836	4359
4160.39	4332
4161.943	4382
4163.496	4467
4165.048	4348
4166.601	4349
4168.154	4386
4169.706	4375
4171.257	4319
4172.808	4369
4174.358	4320
4175.909	4388
4177.458	4332
4179.008	4354
4180.558	4379
4182.106	4278
4183.655	4318
4185.204	4263
4186.751	4368
4188.298	4342
4189.845	4330
4191.392	4268
4192.939	4270
4194.485	4220
4196.031	4259
4197.576	4264
4199.121	4301
4200.666	4223
4202.211	4232
4203.754	4286
4205.298	4184
4206.84	4268
4208.384	4302
4209.927	4226
4211.47	4247
4213.011	4285
4214.552	4279
4216.094	4244
4217.635	4161
4219.175	4174
4220.716	4274
4222.255	4249
4223.793	4125
4225.335	4202
4226.873	4219
4228.411	4164
4229.948	4172
4231.486	4272
4233.024	4178
4234.562	4177
4236.098	4166
4237.634	4220
4239.169	4246
4240.705	4228
4242.241	4192
4243.776	4140
4245.31	4177
4246.844	4106
4248.378	4103
4249.911	4137
4251.445	4178
4252.978	4265
4254.51	4113
4256.042	4195
4257.574	4221
4259.107	4224
4260.638	4087
4262.169	4088
4263.699	4148
4265.228	4180
4266.759	4135
4268.289	4082
4269.818	4110
4271.345	4129
4272.874	4108
4274.402	4085
4275.931	4113
4277.458	4119
4278.985	4084
4280.512	4112
4282.037	4143
4283.564	4102
4285.089	4009
4286.615	4110
4288.139	4128
4289.664	3989
4291.187	4066
4292.712	4066
4294.235	4044
4295.759	4088
4297.281	3994
4298.804	4023
4300.327	4013
4301.849	4020
4303.37	4012
4304.891	4084
4306.412	4067
4307.933	4080
4309.453	4032
4310.973	3981
4312.492	4024
