398.1873	2480
400.7097	2424
403.2336	2504
405.7547	2532
408.2751	2520
410.7948	2582
413.3138	2560
415.83	2602
418.3497	2578
420.8666	2633
423.3829	2656
425.8985	2698
428.4133	2638
430.9275	2668
433.441	2682
435.9538	2669
438.4639	2694
440.9753	2700
443.4881	2669
445.9982	2687
448.5055	2634
451.0142	2611
453.5201	2607
456.0274	2619
458.5361	2703
461.04	2593
463.5453	2630
466.0478	2651
468.5517	2637
471.0549	2703
473.5574	2642
476.0572	2653
478.5584	2686
481.0568	2743
483.5545	2663
486.0557	2709
488.5521	2725
491.0478	2683
493.5449	2653
496.0392	2689
498.5349	2653
501.0299	2727
503.5222	2726
506.0139	2756
508.5048	2748
510.9991	2699
513.4887	2699
515.9777	2669
518.4659	2714
520.9534	2749
523.4403	2743
525.9306	2704
528.4161	2706
530.9009	2716
533.3851	2671
535.8687	2764
538.3535	2722
540.8356	2687
543.3171	2737
545.7979	2793
548.278	2767
550.7595	2808
553.2383	2767
555.7144	2785
558.1918	2754
560.6685	2796
563.1446	2773
565.6221	2810
568.0968	2855
570.5688	2781
573.0422	2845
575.515	2830
577.989	2758
580.4584	2847
582.9291	2856
585.3991	2882
587.8685	2938
590.3352	2895
592.8052	2840
595.2706	2855
597.7372	2827
600.2033	2816
602.6666	2886
605.1334	2870
607.5953	2857
610.0587	2856
612.5193	2891
614.9814	2790
617.4427	2815
619.9034	2801
622.3615	2847
624.8208	2802
627.2775	2832
629.7335	2830
632.1929	2836
634.6476	2816
637.1016	2844
639.5569	2740
642.0096	2849
644.4637	2858
646.9151	2815
649.3678	2781
651.8179	2847
654.2672	2842
656.7159	2837
659.166	2781
661.6154	2902
664.0622	2816
666.5082	2972
668.9537	2874
671.4005	2915
673.8445	2874
676.288	2869
678.7308	2865
681.1729	2995
683.6163	2933
686.0572	2866
688.4973	2936
690.9368	2904
693.3757	2865
695.8138	2846
698.2534	2909
700.6902	2881
703.1245	2931
705.56	2941
707.9949	2927
710.4311	2921
712.8647	2991
715.2957	3028
717.7279	2948
720.1595	2991
722.5905	3004
725.0208	3040
727.4505	2938
729.8795	3023
732.3058	3003
734.7336	2990
737.1626	3066
739.587	3055
742.0128	3032
744.4359	3045
746.8604	3050
749.2841	3097
751.7073	3094
754.1278	3110
756.5496	3104
758.9688	3117
761.3893	3094
763.8093	3133
766.2285	2978
768.6451	3151
771.0611	3077
773.4784	3113
775.895	3163
778.3091	3116
780.7244	3135
783.1371	3089
785.5493	3137
787.9626	3136
790.3754	3130
792.7856	3061
795.1951	3107
797.6039	3161
800.0121	3194
802.4236	3070
804.8306	3142
807.2369	3053
809.6425	3149
812.0475	3116
814.4538	3169
816.8575	3073
819.2606	3151
821.663	3155
824.0648	3207
826.4659	3128
828.8683	3137
831.2682	3206
833.6674	3144
836.066	3143
838.4639	3171
840.8632	3191
843.2579	3175
845.6539	3187
848.0493	3239
850.444	3278
852.84	3198
855.2315	3206
857.6243	3201
860.0165	3138
862.4081	3277
864.797	3193
867.1892	3218
869.5789	3232
871.9659	3227
874.3542	3258
876.74	3309
879.129	3158
881.5155	3206
883.8994	3168
886.2845	3221
888.6671	3155
891.051	3188
893.4343	3211
895.8169	3215
898.197	3178
900.5783	3231
902.9571	3318
905.3372	3322
907.7167	3259
910.0936	3301
912.4698	3298
914.8474	3262
917.2244	3259
919.5987	3240
921.9744	3224
924.3475	3304
926.72	3393
929.0918	3279
931.4669	3343
933.8375	3383
936.2074	3365
938.5767	3359
940.9454	3402
943.3154	3423
945.6829	3470
948.0497	3598
950.4178	3702
952.7833	3728
955.1483	3893
957.5145	3984
959.8782	4049
962.2412	4010
964.6036	3990
966.9655	3915
969.3266	3724
971.6871	3569
974.0471	3517
976.4064	3423
978.765	3391
981.125	3336
983.4824	3287
985.8373	3336
988.1935	3340
990.549	3325
992.9039	3427
995.2602	3372
997.6119	3305
999.965	3276
1002.317	3394
1004.667	3437
1007.02	3388
1009.371	3325
1011.719	3348
1014.068	3379
1016.415	3412
1018.765	3347
1021.111	3392
1023.458	3420
1025.804	3354
1028.147	3474
1030.49	3451
1032.837	3380
1035.179	3408
1037.522	3494
1039.862	3443
1042.204	3403
1044.546	3419
1046.884	3423
1049.224	3429
1051.562	3462
1053.899	3494
1056.237	3388
1058.575	3422
1060.91	3426
1063.244	3382
1065.58	3504
1067.913	3441
1070.248	3487
1072.579	3430
1074.911	3540
1077.242	3417
1079.572	3453
1081.905	3493
1084.234	3422
1086.562	3464
1088.89	3341
1091.217	3403
1093.544	3437
1095.871	3413
1098.197	3479
1100.521	3441
1102.845	3466
1105.169	3446
1107.491	3460
1109.814	3450
1112.135	3440
1114.456	3451
1116.776	3371
1119.096	3614
1121.415	3393
1123.734	3465
1126.052	3477
1128.369	3476
1130.686	3436
1133.002	3439
1135.318	3502
1137.632	3416
1139.945	3489
1142.258	3375
1144.573	3570
1146.884	3526
1149.196	3456
1151.505	3423
1153.816	3536
1156.124	3504
1158.435	3492
1160.742	3406
1163.051	3486
1165.356	3484
1167.663	3501
1169.97	3539
1172.276	3490
1174.579	3555
1176.881	3470
1179.186	3546
1181.487	3404
1183.79	3425
1186.092	3515
1188.392	3485
1190.691	3471
1192.991	3452
1195.291	3435
1197.588	3526
1199.885	3499
1202.181	3476
1204.479	3503
1206.775	3491
1209.07	3479
1211.363	3486
1213.656	3524
1215.949	3498
1218.241	3597
1220.534	3474
1222.825	3523
1225.115	3574
1227.405	3548
1229.693	3547
1231.984	3683
1234.271	3543
1236.558	3606
1238.845	3622
1241.131	3572
1243.416	3751
1245.703	3607
1247.987	3634
1250.269	3623
1252.552	3630
1254.834	3547
1257.118	3567
1259.399	3650
1261.678	3724
1263.958	3655
1266.237	3645
1268.516	3609
1270.794	3650
1273.072	3623
1275.347	3648
1277.624	3618
1279.899	3613
1282.175	3648
1284.449	3651
1286.722	3618
1288.995	3590
1291.266	3647
1293.54	3742
1295.81	3594
1298.081	3672
1300.35	3583
1302.62	3582
1304.889	3674
1307.156	3617
1309.425	3611
1311.69	3660
1313.957	3540
1316.222	3652
1318.488	3633
1320.751	3635
1323.016	3683
1325.278	3562
1327.54	3674
1329.803	3673
1332.065	3710
1334.325	3641
1336.584	3635
1338.843	3702
1341.101	3629
1343.36	3606
1345.617	3674
1347.876	3692
1350.131	3644
1352.387	3584
1354.643	3763
1356.897	3656
1359.151	3640
1361.403	3683
1363.656	3684
1365.909	3692
1368.16	3693
1370.409	3735
1372.659	3678
1374.909	3725
1377.157	3669
1379.407	3710
1381.655	3763
1383.9	3654
1386.147	3799
1388.393	3770
1390.64	3781
1392.885	3744
1395.127	3722
1397.37	3774
1399.614	3757
1401.854	3697
1404.098	3734
1406.339	3763
1408.578	3693
1410.818	3766
1413.056	3711
1415.297	3809
1417.533	3724
1419.771	3822
1422.006	3778
1424.243	3868
1426.479	3811
1428.715	3777
1430.948	3832
1433.182	3883
1435.414	3839
1437.647	3843
1439.88	3782
1442.11	3851
1444.342	3847
1446.571	3830
1448.799	3837
1451.029	3891
1453.258	3951
1455.485	3842
1457.711	3904
1459.937	3870
1462.164	3872
1464.39	3854
1466.614	3841
1468.838	3820
1471.06	3769
1473.283	3762
1475.506	3776
1477.727	3831
1479.949	3826
1482.169	3794
1484.389	3768
1486.609	3675
1488.828	3760
1491.045	3785
1493.261	3796
1495.477	3725
1497.693	3808
1499.91	3779
1502.125	3695
1504.339	3737
1506.553	3697
1508.766	3724
1510.979	3756
1513.191	3715
1515.402	3730
1517.613	3697
1519.823	3740
1522.033	3806
1524.242	3657
1526.451	3728
1528.657	3720
1530.865	3762
1533.072	3841
1535.278	3726
1537.484	3824
1539.687	3767
1541.892	3767
1544.096	3773
1546.299	3814
1548.502	3743
1550.703	3849
1552.905	3815
1555.104	3824
1557.303	3831
1559.505	3915
1561.703	3765
1563.902	3781
1566.099	3897
1568.295	3836
1570.494	3870
1572.689	3810
1574.883	3899
1577.079	3893
1579.272	3870
1581.467	3869
1583.659	3948
1585.853	3912
1588.044	3914
1590.234	3982
1592.424	3843
1594.615	3918
1596.806	3907
1598.994	3913
1601.182	3916
1603.369	3959
1605.557	3932
1607.744	3960
1609.929	3885
1612.114	3887
1614.298	3902
1616.482	3934
1618.667	3944
1620.85	3953
1623.032	3928
1625.214	3976
1627.395	3976
1629.575	3941
1631.755	3883
1633.935	4008
1636.114	3867
1638.292	3917
1640.471	3958
1642.647	3966
1644.823	4010
1647	3870
1649.175	3909
1651.348	3963
1653.525	4005
1655.698	3933
1657.87	3952
1660.043	3954
1662.213	4005
1664.387	4029
1666.558	3973
1668.727	3970
1670.896	3938
1673.064	3959
1675.233	3975
1677.401	3937
1679.569	3916
1681.735	4039
1683.902	3888
1686.066	3926
1688.233	4031
1690.397	3935
1692.559	3962
1694.723	4045
1696.885	3998
1699.048	3921
1701.21	3973
1703.37	3895
1705.53	3899
1707.689	3833
1709.849	3891
1712.009	3956
1714.166	3961
1716.323	3912
1718.479	3869
1720.634	3913
1722.793	3886
1724.948	3873
1727.102	3940
1729.255	3873
1731.408	3960
1733.562	3873
1735.714	3960
1737.865	3876
1740.016	3827
1742.166	3963
1744.316	3923
1746.467	3962
1748.616	3910
1750.764	3933
1752.911	3945
1755.056	3863
1757.205	3916
1759.35	3948
1761.496	3959
1763.641	3878
1765.785	3867
1767.927	4006
1770.072	3876
1772.214	3967
1774.355	3893
1776.496	3983
1778.637	4018
1780.778	3883
1782.918	3938
1785.057	3947
1787.194	3993
1789.333	3998
1791.472	3978
1793.608	3954
1795.745	4021
1797.879	3955
1800.015	4005
1802.148	3999
1804.284	4021
1806.417	3972
1808.548	3877
1810.682	3968
1812.812	4025
1814.946	3972
1817.075	3923
1819.205	3872
1821.335	3874
1823.463	4010
1825.59	3925
1827.721	3968
1829.847	3978
1831.973	4004
1834.098	3920
1836.223	3866
1838.351	3845
1840.475	4012
1842.598	3870
1844.721	4003
1846.843	3969
1848.966	3884
1851.087	3888
1853.21	3854
1855.33	4006
1857.449	3857
1859.568	3826
1861.688	3929
1863.806	3892
1865.924	3895
1868.039	3924
1870.155	4005
1872.273	3998
1874.388	3920
1876.503	3939
1878.617	3977
1880.73	3984
1882.844	3944
1884.956	4084
1887.068	3921
1889.18	3875
1891.291	3922
1893.4	4016
1895.511	3979
1897.621	3991
1899.73	3978
1901.837	3963
1903.944	3925
1906.053	3951
1908.159	3909
1910.265	3951
1912.369	4038
1914.474	3930
1916.577	4055
1918.683	3929
1920.785	3890
1922.888	3961
1924.989	3962
1927.091	4024
1929.193	3945
1931.294	4036
1933.393	4016
1935.493	3979
1937.59	4072
1939.689	3962
1941.788	4042
1943.884	3906
1945.98	4012
1948.077	4124
1950.171	3995
1952.267	3961
1954.361	4013
1956.455	4077
1958.548	4045
1960.64	3961
1962.733	3973
1964.824	4016
1966.915	4000
1969.005	4060
1971.096	3969
1973.185	3986
1975.275	4028
1977.363	4068
1979.45	4058
1981.537	4056
1983.623	4024
1985.711	4054
1987.796	4011
1989.881	4027
1991.965	3998
1994.047	4028
1996.132	4002
1998.215	4028
2000.297	3999
2002.378	3950
2004.46	3909
2006.54	4069
2008.62	4047
2010.7	4097
2012.779	4005
2014.858	4011
2016.934	3992
2019.013	3980
2021.09	4030
2023.165	3945
2025.241	4044
2027.317	3977
2029.39	4016
2031.466	4046
2033.538	4020
2035.612	3971
2037.683	3999
2039.755	3953
2041.827	4038
2043.898	4012
2045.968	3932
2048.038	3994
2050.106	3972
2052.177	3888
2054.244	4051
2056.313	4054
2058.379	3993
2060.444	4004
2062.511	4002
2064.577	3972
2066.641	4004
2068.705	3922
2070.77	4027
2072.832	3981
2074.896	3959
2076.958	4029
2079.02	3912
2081.081	3965
2083.141	3991
2085.2	4030
2087.261	4017
2089.319	3950
2091.377	4037
2093.435	4070
2095.492	3909
2097.552	3992
2099.607	4051
2101.663	4014
2103.718	4024
2105.771	4024
2107.826	4017
2109.879	4046
2111.932	4063
2113.985	4063
2116.037	3988
2118.088	4002
2120.141	4021
2122.191	4017
2124.239	4068
2126.288	4062
2128.337	3936
2130.387	3925
2132.434	3980
2134.481	3962
2136.528	4034
2138.574	4092
2140.618	4040
2142.665	3936
2144.71	4089
2146.753	3900
2148.797	3936
2150.838	3938
2152.883	4045
2154.923	3993
2156.965	4033
2159.007	3983
2161.046	4031
2163.086	3985
2165.126	4123
2167.163	4009
2169.202	4037
2171.239	4027
2173.277	3958
2175.314	3948
2177.349	3967
2179.385	4064
2181.42	3960
2183.453	3972
2185.49	3955
2187.522	4035
2189.555	3894
2191.586	3902
2193.619	3890
2195.651	3948
2197.682	3958
2199.711	3913
2201.74	3969
2203.769	3984
2205.799	3930
2207.828	3964
2209.855	3952
2211.882	3940
2213.908	3949
2215.934	3901
2217.961	4002
2219.986	3966
2222.01	3904
2224.034	3885
2226.057	3847
2228.08	3976
2230.104	4025
2232.124	3991
2234.145	3949
2236.166	3894
2238.186	4018
2240.207	3943
2242.227	3965
2244.244	3929
2246.262	3901
2248.28	3903
2250.299	3924
2252.314	3876
2254.33	4008
2256.346	3940
2258.36	4000
2260.375	3939
2262.391	3971
2264.403	3977
2266.416	3924
2268.427	3944
2270.44	4051
2272.453	4081
2274.463	3962
2276.474	3876
2278.483	4041
2280.493	3913
2282.501	4001
2284.51	4034
2286.518	3944
2288.524	3911
2290.532	3953
2292.537	3945
2294.544	4009
2296.55	4053
2298.554	3953
2300.557	4014
2302.562	3959
2304.566	4004
2306.568	3927
2308.569	3916
2310.572	3998
2312.573	3934
2314.573	3997
2316.574	4033
2318.573	3968
2320.571	3953
2322.571	3964
2324.569	3913
2326.567	3930
2328.564	3984
2330.56	3866
2332.556	3986
2334.551	3944
2336.546	3900
2338.542	3889
2340.535	3928
2342.529	3920
2344.521	3910
2346.512	3920
2348.505	3867
2350.497	3914
2352.487	3895
2354.478	3905
2356.468	3971
2358.457	3923
2360.446	3846
2362.434	3883
2364.422	3883
2366.408	3936
2368.395	3824
2370.383	3983
2372.369	3986
2374.353	3836
2376.338	3864
2378.321	3911
2380.307	4007
2382.29	3869
2384.272	3906
2386.254	3911
2388.235	3883
2390.218	3876
2392.198	3929
2394.179	3915
2396.157	3894
2398.137	3928
2400.115	3841
2402.095	3946
2404.072	3878
2406.048	3975
2408.026	3800
2410.001	3868
2411.977	3950
2413.953	3888
2415.927	3821
2417.9	3918
2419.875	3836
2421.847	3827
2423.821	3785
2425.792	3924
2427.763	3886
2429.736	3966
2431.706	3911
2433.677	3906
2435.646	3856
2437.615	3811
2439.583	3886
2441.551	3826
2443.519	3849
2445.486	3866
2447.452	3953
2449.418	3872
2451.383	3894
2453.348	3891
2455.314	3921
2457.278	3814
2459.241	3806
2461.205	3911
2463.167	3986
2465.131	3904
2467.091	3890
2469.052	3896
2471.012	3838
2472.972	3900
2474.932	3838
2476.891	3915
2478.85	3846
2480.808	3807
2482.766	3848
2484.722	3869
2486.68	3857
2488.636	3883
2490.591	3908
2492.546	3860
2494.5	3842
2496.456	3820
2498.41	3830
2500.362	3841
2502.315	3844
2504.266	3909
2506.218	3880
2508.169	3799
2510.121	3822
2512.07	3862
2514.019	3786
2515.968	3874
2517.918	3831
2519.866	3846
2521.813	3874
2523.76	3872
2525.707	3822
2527.653	3799
2529.599	3728
2531.543	3888
2533.489	3832
2535.433	3809
2537.376	3712
2539.32	3779
2541.264	3825
2543.205	3795
2545.147	3834
2547.087	3765
2549.029	3952
2550.969	3901
2552.908	3794
2554.847	3834
2556.786	3825
2558.724	3840
2560.663	3861
2562.6	3853
2564.537	3814
2566.473	3827
2568.408	3828
2570.345	3825
2572.28	3877
2574.214	3891
2576.148	3879
2578.081	3797
2580.014	3836
2581.947	3842
2583.879	3870
2585.81	3841
2587.741	3928
2589.67	3875
2591.602	3899
2593.532	3876
2595.461	3835
2597.388	3867
2599.316	3934
2601.244	3768
2603.172	3918
2605.098	3910
2607.023	3870
2608.949	3929
2610.873	3893
2612.8	3850
2614.723	3947
2616.647	3905
2618.569	3915
2620.493	3796
2622.416	3865
2624.338	3852
2626.258	3914
2628.179	3881
2630.099	3937
2632.019	3928
2633.939	3845
2635.857	3925
2637.775	3814
2639.694	3913
2641.61	3943
2643.528	3875
2645.444	3918
2647.361	3860
2649.276	3802
2651.19	3929
2653.105	3856
2655.019	3917
2656.934	3875
2658.846	3869
2660.758	3890
2662.67	3915
2664.583	3819
2666.493	3956
2668.404	3819
2670.313	3858
2672.223	3893
2674.134	3915
2676.042	3888
2677.95	3869
2679.858	3871
2681.765	3902
2683.673	3837
2685.579	3859
2687.483	3873
2689.389	3868
2691.294	3898
2693.198	3944
2695.104	3810
2697.006	3863
2698.909	3863
2700.811	3914
2702.713	3804
2704.615	3864
2706.516	3871
2708.417	3852
2710.316	3915
2712.216	3838
2714.115	3731
2716.014	3754
2717.913	3819
2719.81	3865
2721.707	3855
2723.603	3882
2725.501	3849
2727.396	3876
2729.292	3837
2731.186	3746
2733.081	3855
2734.976	3829
2736.87	3911
2738.762	3827
2740.653	3825
2742.546	3739
2744.437	3902
2746.329	3811
2748.22	3759
2750.11	3866
2751.999	3823
2753.889	3860
2755.778	3819
2757.666	3788
2759.553	3862
2761.44	3914
2763.328	3839
2765.215	3870
2767.101	3794
2768.986	3884
2770.87	3920
2772.754	3772
2774.638	3815
2776.523	3873
2778.405	3814
2780.288	3808
2782.17	3817
2784.051	3826
2785.934	3864
2787.814	3793
2789.694	3877
2791.574	3861
2793.453	3754
2795.332	3836
2797.212	3775
2799.088	3852
2800.966	3770
2802.843	3802
2804.719	3822
2806.597	3836
2808.471	3744
2810.346	3792
2812.221	3784
2814.094	3745
2815.969	3748
2817.843	3818
2819.714	3920
2821.587	3802
2823.459	3840
2825.329	3834
2827.202	3776
2829.072	3812
2830.942	3812
2832.811	3852
2834.68	3840
2836.549	3770
2838.418	3773
2840.284	3843
2842.152	3865
2844.018	3800
2845.885	3816
2847.751	3808
2849.616	3870
2851.482	3790
2853.345	3883
2855.208	3836
2857.074	3864
2858.937	3863
2860.799	3823
2862.66	4008
2864.522	3930
2866.385	3894
2868.245	3997
2870.104	3966
2871.964	3968
2873.824	4005
2875.683	4049
2877.542	4018
2879.4	4065
2881.257	4068
2883.114	4081
2884.97	4013
2886.827	3968
2888.683	4018
2890.537	4117
2892.392	4041
2894.246	4098
2896.1	4111
2897.954	4163
2899.807	4092
2901.66	4025
2903.51	4030
2905.362	4043
2907.214	4047
2909.065	4099
2910.915	4085
2912.765	4023
2914.613	4106
2916.463	4146
2918.311	4117
2920.158	4166
2922.006	4277
2923.853	4165
2925.698	4255
2927.546	4312
2929.392	4207
2931.236	4271
2933.081	4313
2934.924	4337
2936.77	4414
2938.613	4364
2940.455	4447
2942.298	4353
2944.139	4349
2945.982	4387
2947.823	4395
2949.662	4353
2951.503	4309
2953.342	4472
2955.182	4338
2957.021	4298
2958.858	4278
2960.697	4258
2962.534	4227
2964.37	4233
2966.207	4128
2968.044	4171
2969.879	4120
2971.714	4116
2973.548	4118
2975.383	4100
2977.218	4172
2979.051	4066
2980.883	4160
2982.715	4086
2984.547	4008
2986.379	4028
2988.21	4049
2990.04	3999
2991.87	3991
2993.7	3953
2995.53	4009
2997.359	3973
2999.187	3952
3001.015	3911
3002.842	3858
3004.669	3887
3006.497	3925
3008.323	3839
3010.148	3793
3011.974	3809
3013.797	3821
3015.623	3803
3017.447	3878
3019.27	3808
3021.094	3763
3022.915	3800
3024.737	3777
3026.56	3808
3028.38	3719
3030.201	3713
3032.022	3748
3033.84	3669
3035.662	3671
3037.481	3720
3039.298	3778
3041.117	3675
3042.933	3774
3044.752	3720
3046.568	3696
3048.385	3758
3050.2	3718
3052.016	3711
3053.83	3688
3055.646	3643
3057.46	3623
3059.272	3718
3061.086	3738
3062.898	3799
3064.711	3624
3066.524	3667
3068.335	3643
3070.145	3683
3071.956	3662
3073.766	3639
3075.576	3622
3077.385	3657
3079.193	3675
3081.002	3651
3082.81	3642
3084.618	3659
3086.425	3715
3088.231	3613
3090.036	3647
3091.842	3695
3093.648	3645
3095.452	3694
3097.257	3685
3099.06	3608
3100.863	3562
3102.666	3613
3104.47	3587
3106.272	3574
3108.073	3606
3109.875	3555
3111.676	3598
3113.477	3535
3115.277	3631
3117.077	3598
3118.874	3532
3120.673	3638
3122.473	3597
3124.271	3610
3126.066	3515
3127.863	3592
3129.66	3557
3131.456	3587
3133.252	3562
3135.047	3600
3136.842	3549
3138.635	3547
3140.429	3646
3142.223	3548
3144.016	3537
3145.808	3572
3147.6	3530
3149.392	3617
3151.183	3575
3152.975	3541
3154.765	3562
3156.553	3464
3158.344	3564
3160.132	3501
3161.922	3535
3163.71	3559
3165.497	3659
3167.285	3521
3169.071	3524
3170.858	3536
3172.645	3499
3174.429	3512
3176.214	3539
3177.998	3493
3179.783	3480
3181.568	3576
3183.351	3512
3185.133	3586
3186.915	3557
3188.698	3538
3190.481	3549
3192.261	3511
3194.042	3480
3195.822	3503
3197.601	3467
3199.381	3491
3201.161	3470
3202.939	3457
3204.717	3528
3206.495	3536
3208.272	3451
3210.05	3473
3211.826	3546
3213.602	3417
3215.376	3475
3217.151	3476
3218.927	3499
3220.702	3485
3222.476	3526
3224.249	3410
3226.021	3491
3227.793	3436
3229.567	3463
3231.339	3461
3233.109	3513
3234.88	3501
3236.651	3573
3238.421	3510
3240.191	3512
3241.96	3576
3243.728	3566
3245.497	3557
3247.263	3524
3249.033	3473
3250.799	3470
3252.566	3510
3254.331	3443
3256.097	3492
3257.863	3499
3259.628	3469
3261.392	3493
3263.156	3483
3264.919	3502
3266.683	3467
3268.447	3477
3270.208	3479
3271.969	3508
3273.731	3403
3275.492	3487
3277.253	3457
3279.013	3474
3280.773	3506
3282.532	3512
3284.291	3480
3286.05	3545
3287.808	3469
3289.566	3536
3291.323	3495
3293.079	3498
3294.835	3493
3296.593	3543
3298.348	3490
3300.102	3471
3301.857	3403
3303.611	3540
3305.366	3459
3307.119	3489
3308.872	3462
3310.624	3416
3312.376	3483
3314.129	3491
3315.881	3450
3317.631	3440
3319.38	3494
3321.13	3565
3322.88	3495
3324.631	3421
3326.379	3497
3328.126	3472
3329.875	3520
3331.622	3397
3333.371	3513
3335.116	3536
3336.863	3441
3338.609	3419
3340.353	3490
3342.1	3485
3343.845	3483
3345.588	3431
3347.332	3435
3349.074	3395
3350.817	3517
3352.56	3482
3354.303	3477
3356.043	3443
3357.785	3473
3359.525	3476
3361.268	3421
3363.007	3515
3364.745	3407
3366.485	3436
3368.223	3501
3369.962	3460
3371.701	3441
3373.438	3349
3375.174	3452
3376.911	3492
3378.647	3421
3380.384	3363
3382.118	3459
3383.854	3489
3385.588	3400
3387.322	3392
3389.057	3487
3390.79	3428
3392.522	3416
3394.255	3375
3395.987	3427
3397.719	3347
3399.451	3425
3401.181	3448
3402.911	3484
3404.641	3462
3406.371	3346
3408.101	3332
3409.83	3447
3411.558	3416
3413.285	3408
3415.011	3445
3416.739	3314
3418.467	3378
3420.193	3416
3421.919	3412
3423.644	3312
3425.368	3348
3427.094	3346
3428.818	3345
3430.542	3380
3432.264	3336
3433.987	3407
3435.712	3396
3437.434	3364
3439.155	3389
3440.876	3335
3442.596	3286
3444.317	3353
3446.039	3389
3447.757	3317
3449.477	3314
3451.195	3293
3452.914	3228
3454.632	3312
3456.35	3293
3458.067	3300
3459.784	3349
3461.5	3323
3463.216	3391
3464.932	3248
3466.647	3291
3468.362	3232
3470.076	3225
3471.789	3252
3473.505	3254
3475.217	3293
3476.929	3281
3478.641	3269
3480.354	3347
3482.066	3221
3483.777	3324
3485.487	3221
3487.197	3238
3488.908	3259
3490.617	3277
3492.327	3236
3494.035	3248
3495.743	3188
3497.451	3255
3499.158	3260
3500.866	3261
3502.572	3271
3504.278	3217
3505.984	3261
3507.689	3222
3509.396	3259
3511.1	3223
3512.804	3217
3514.508	3181
3516.211	3251
3517.913	3189
3519.616	3175
3521.319	3238
3523.021	3216
3524.722	3211
3526.422	3239
3528.124	3131
3529.824	3241
3531.524	3248
3533.222	3197
3534.921	3140
3536.62	3265
3538.318	3160
3540.016	3156
3541.714	3173
3543.41	3240
3545.107	3251
3546.803	3147
3548.5	3203
3550.194	3238
3551.889	3229
3553.583	3145
3555.279	3173
3556.972	3211
3558.666	3246
3560.358	3198
3562.051	3216
3563.742	3232
3565.435	3168
3567.126	3125
3568.817	3213
3570.507	3120
3572.197	3142
3573.888	3082
3575.577	3134
3577.265	3212
3578.954	3150
3580.642	3157
3582.329	3131
3584.017	3169
3585.704	3112
3587.391	3088
3589.077	3143
3590.762	3121
3592.449	3167
3594.133	3134
3595.817	3141
3597.501	3127
3599.185	3097
3600.869	3119
3602.552	3116
3604.234	3138
3605.916	3104
3607.598	3118
3609.279	3083
3610.961	3135
3612.642	3111
3614.321	3079
3616	3138
3617.68	3086
3619.36	3074
3621.039	2992
3622.716	3130
3624.394	3108
3626.071	3004
3627.748	3001
3629.425	3042
3631.102	2983
3632.778	3045
3634.452	3074
3636.127	3064
3637.803	3016
3639.477	3040
3641.151	3063
3642.823	2955
3644.497	3062
3646.171	2980
3647.842	3014
3649.515	2991
3651.185	3041
3652.857	3091
3654.527	3036
3656.198	2955
3657.868	3025
3659.537	2966
3661.207	3053
3662.875	3055
3664.544	2970
3666.212	2915
3667.879	2991
3669.546	3021
3671.212	2943
3672.88	2969
3674.546	3011
3676.211	2885
3677.875	3078
3679.541	3022
3681.205	3047
3682.87	3031
3684.533	2966
3686.196	2984
3687.859	3049
3689.521	3065
3691.184	3028
3692.845	3034
3694.507	2983
3696.167	3047
3697.827	2982
3699.487	3001
3701.148	3015
3702.808	3101
3704.466	2941
3706.125	3006
3707.783	2980
3709.442	3025
3711.099	2963
3712.757	3006
3714.412	2933
3716.068	2968
3717.725	2945
3719.381	2920
3721.036	2991
3722.689	2900
3724.344	2951
3725.998	2926
3727.652	3001
3729.305	2940
3730.958	2983
3732.61	2975
3734.262	2986
3735.915	2956
3737.565	2900
3739.217	3002
3740.866	2895
3742.516	2994
3744.165	2882
3745.816	2955
3747.464	2875
3749.113	2886
3750.761	2903
3752.409	2872
3754.057	2898
3755.703	2918
3757.35	2934
3758.996	2914
3760.641	2985
3762.289	2911
3763.933	3009
3765.577	2932
3767.222	2869
3768.865	2918
3770.508	2951
3772.152	2890
3773.796	2957
3775.438	2855
3777.079	2919
3778.721	2875
3780.363	2844
3782.003	2883
3783.643	2883
3785.283	2875
3786.923	2819
3788.563	2923
3790.203	2926
3791.841	2911
3793.479	2873
3795.115	2916
3796.753	2883
3798.391	2842
3800.027	2866
3801.664	2915
3803.299	2876
3804.935	2835
3806.571	2861
3808.206	2934
3809.839	2802
3811.473	2849
3813.107	2872
3814.74	2798
3816.375	2831
3818.006	2902
3819.638	2884
3821.27	2794
3822.9	2824
3824.532	2813
3826.163	2858
3827.792	2865
3829.423	2840
3831.051	2864
3832.682	2846
3834.311	2835
3835.938	2863
3837.566	2881
3839.193	2883
3840.821	2856
3842.448	2834
3844.075	2905
3845.7	2894
3847.325	2822
3848.951	2725
3850.576	2777
3852.201	2805
3853.825	2844
3855.448	2898
3857.072	2810
3858.694	2776
3860.318	2807
3861.939	2878
3863.562	2820
3865.183	2790
3866.804	2792
3868.426	2736
3870.045	2846
3871.666	2855
3873.285	2791
3874.904	2803
3876.524	2800
3878.142	2819
3879.76	2730
3881.378	2815
3882.995	2752
3884.612	2829
3886.229	2792
3887.845	2781
3889.461	2841
3891.076	2766
3892.691	2793
3894.307	2786
3895.922	2781
3897.536	2786
3899.149	2842
3900.761	2808
3902.374	2806
3903.988	2813
3905.6	2789
3907.212	2828
3908.822	2785
3910.433	2713
3912.045	2830
3913.655	2779
3915.265	2722
3916.875	2814
3918.483	2811
3920.093	2832
3921.702	2794
3923.309	2770
3924.917	2797
3926.523	2767
3928.13	2801
3929.739	2743
3931.344	2776
3932.95	2787
3934.555	2723
3936.159	2725
3937.766	2764
3939.369	2723
3940.974	2765
3942.577	2708
3944.181	2724
3945.783	2802
3947.386	2766
3948.989	2770
3950.59	2766
3952.191	2707
3953.791	2752
3955.394	2818
3956.994	2780
3958.593	2758
3960.192	2725
3961.791	2847
3963.392	2757
3964.99	2751
3966.588	2696
3968.185	2695
3969.782	2712
3971.379	2737
3972.976	2812
3974.572	2682
3976.168	2711
3977.763	2750
3979.358	2643
3980.954	2709
3982.548	2714
3984.142	2655
3985.736	2655
3987.329	2696
3988.922	2668
3990.516	2669
3992.108	2689
3993.698	2639
3995.29	2703
3996.881	2717
3998.473	2622
4000.064	2618
4001.653	2624
4003.242	2661
4004.832	2715
4006.422	2662
4008.01	2630
4009.598	2618
4011.186	2686
4012.773	2626
4014.36	2658
4015.947	2699
4017.534	2659
4019.119	2628
4020.705	2613
4022.291	2658
4023.876	2647
4025.461	2624
4027.044	2672
4028.627	2646
4030.211	2605
4031.795	2607
4033.378	2631
4034.96	2657
4036.542	2642
4038.124	2644
4039.704	2620
4041.286	2645
4042.867	2575
4044.447	2595
4046.026	2613
4047.606	2581
4049.187	2716
4050.765	2639
4052.343	2651
4053.92	2649
4055.498	2618
4057.076	2588
4058.654	2605
4060.23	2542
4061.806	2639
4063.381	2574
4064.957	2667
4066.533	2655
4068.107	2579
4069.682	2534
4071.256	2588
4072.829	2585
4074.404	2540
4075.977	2636
4077.549	2579
4079.121	2607
4080.693	2603
4082.265	2618
4083.836	2557
4085.407	2542
4086.977	2618
4088.547	2589
4090.117	2557
4091.687	2544
4093.256	2598
4094.825	2586
4096.392	2580
4097.96	2545
4099.528	2592
4101.097	2601
4102.663	2556
4104.229	2576
4105.795	2579
4107.361	2635
4108.928	2530
4110.493	2515
4112.058	2500
4113.621	2563
4115.186	2564
4116.75	2525
4118.313	2584
4119.876	2549
4121.438	2592
4123	2506
4124.562	2543
4126.125	2565
4127.686	2543
4129.246	2537
4130.807	2543
4132.367	2504
4133.927	2528
4135.486	2552
4137.046	2483
4138.604	2490
4140.162	2479
4141.72	2501
4143.279	2491
4144.836	2525
4146.393	2556
4147.949	2471
4149.505	2489
4151.062	2504
4152.617	2497
4154.172	2526
4155.727	2514
4157.281	2489
4158.836	2484
4160.39	2470
4161.943	2565
4163.496	2475
4165.048	2507
4166.601	2495
4168.154	2500
4169.706	2436
4171.257	2456
4172.808	2421
4174.358	2500
4175.909	2531
4177.458	2449
4179.008	2465
4180.558	2488
4182.106	2410
4183.655	2482
4185.204	2449
4186.751	2405
4188.298	2424
4189.845	2468
4191.392	2477
4192.939	2427
4194.485	2435
4196.031	2415
4197.576	2498
4199.121	2457
4200.666	2390
4202.211	2425
4203.754	2442
4205.298	2434
4206.84	2449
4208.384	2403
4209.927	2436
4211.47	2435
4213.011	2428
4214.552	2359
4216.094	2449
4217.635	2410
4219.175	2441
4220.716	2412
4222.255	2428
4223.793	2446
4225.335	2396
4226.873	2427
4228.411	2399
4229.948	2440
4231.486	2400
4233.024	2479
4234.562	2399
4236.098	2462
4237.634	2411
4239.169	2386
4240.705	2410
4242.241	2434
4243.776	2416
4245.31	2369
4246.844	2370
4248.378	2436
4249.911	2415
4251.445	2401
4252.978	2398
4254.51	2307
4256.042	2362
4257.574	2378
4259.107	2448
4260.638	2381
4262.169	2436
4263.699	2385
4265.228	2344
4266.759	2319
4268.289	2381
4269.818	2395
4271.345	2333
4272.874	2376
4274.402	2337
4275.931	2379
4277.458	2363
4278.985	2406
4280.512	2403
4282.037	2407
4283.564	2419
4285.089	2305
4286.615	2379
4288.139	2324
4289.664	2373
4291.187	2378
4292.712	2372
4294.235	2369
4295.759	2314
4297.281	2399
4298.804	2317
4300.327	2352
4301.849	2349
4303.37	2310
4304.891	2345
4306.412	2303
4307.933	2397
4309.453	2359
4310.973	2312
4312.492	2393
