398.1873	3232
400.7097	3199
403.2336	3161
405.7547	3232
408.2751	3233
410.7948	3163
413.3138	3273
415.83	3269
418.3497	3279
420.8666	3304
423.3829	3331
425.8985	3372
428.4133	3331
430.9275	3377
433.441	3304
435.9538	3403
438.4639	3397
440.9753	3342
443.4881	3385
445.9982	3361
448.5055	3491
451.0142	3487
453.5201	3390
456.0274	3392
458.5361	3432
461.04	3399
463.5453	3338
466.0478	3374
468.5517	3421
471.0549	3372
473.5574	3385
476.0572	3468
478.5584	3457
481.0568	3395
483.5545	3437
486.0557	3487
488.5521	3424
491.0478	3412
493.5449	3475
496.0392	3509
498.5349	3489
501.0299	3587
503.5222	3482
506.0139	3419
508.5048	3506
510.9991	3573
513.4887	3558
515.9777	3544
518.4659	3508
520.9534	3530
523.4403	3499
525.9306	3555
528.4161	3525
530.9009	3561
533.3851	3501
535.8687	3583
538.3535	3560
540.8356	3474
543.3171	3507
545.7979	3517
548.278	3555
550.7595	3599
553.2383	3520
555.7144	3559
558.1918	3577
560.6685	3525
563.1446	3558
565.6221	3579
568.0968	3574
570.5688	3564
573.0422	3727
575.515	3619
577.989	3676
580.4584	3653
582.9291	3570
585.3991	3683
587.8685	3660
590.3352	3669
592.8052	3678
595.2706	3753
597.7372	3573
600.2033	3744
602.6666	3698
605.1334	3673
607.5953	3687
610.0587	3669
612.5193	3592
614.9814	3591
617.4427	3621
619.9034	3644
622.3615	3619
624.8208	3635
627.2775	3619
629.7335	3630
632.1929	3646
634.6476	3714
637.1016	3588
639.5569	3713
642.0096	3657
644.4637	3680
646.9151	3650
649.3678	3690
651.8179	3661
654.2672	3669
656.7159	3687
659.166	3743
661.6154	3610
664.0622	3702
666.5082	3728
668.9537	3766
671.4005	3759
673.8445	3719
676.288	3749
678.7308	3722
681.1729	3710
683.6163	3770
686.0572	3754
688.4973	3736
690.9368	3732
693.3757	3736
695.8138	3741
698.2534	3832
700.6902	3747
703.1245	3767
705.56	3791
707.9949	3841
710.4311	3869
712.8647	3834
715.2957	3733
717.7279	3848
720.1595	3730
722.5905	3850
725.0208	3889
727.4505	3873
729.8795	3832
732.3058	3864
734.7336	3898
737.1626	3999
739.587	3924
742.0128	3961
744.4359	3848
746.8604	3959
749.2841	3987
751.7073	3931
754.1278	4013
756.5496	4045
758.9688	4007
761.3893	3944
763.8093	4044
766.2285	3952
768.6451	4004
771.0611	4117
773.4784	4048
775.895	3967
778.3091	3997
780.7244	4095
783.1371	4113
785.5493	4111
787.9626	4073
790.3754	3982
792.7856	3938
795.1951	4111
797.6039	4083
800.0121	4059
802.4236	4112
804.8306	4082
807.2369	4036
809.6425	4093
812.0475	4088
814.4538	4095
816.8575	4029
819.2606	4028
821.663	4135
824.0648	4131
826.4659	4055
828.8683	4048
831.2682	4079
833.6674	4095
836.066	4047
838.4639	4086
840.8632	4087
843.2579	4208
845.6539	4192
848.0493	4185
850.444	4251
852.84	4191
855.2315	4071
857.6243	4167
860.0165	4170
862.4081	4226
864.797	4139
867.1892	4133
869.5789	4191
871.9659	4160
874.3542	4140
876.74	4319
879.129	4203
881.5155	4103
883.8994	4182
886.2845	4259
888.6671	4145
891.051	4196
893.4343	4035
895.8169	4181
898.197	4146
900.5783	4246
902.9571	4176
905.3372	4273
907.7167	4113
910.0936	4210
912.4698	4163
914.8474	4193
917.2244	4234
919.5987	4262
921.9744	4278
924.3475	4306
926.72	4313
929.0918	4371
931.4669	4277
933.8375	4323
936.2074	4357
938.5767	4368
940.9454	4450
943.3154	4482
945.6829	4579
948.0497	4678
950.4178	4682
952.7833	4801
955.1483	5097
957.5145	5116
959.8782	5271
962.2412	5209
964.6036	5077
966.9655	5035
969.3266	4738
971.6871	4664
974.0471	4521
976.4064	4407
978.765	4431
981.125	4413
983.4824	4281
985.8373	4360
988.1935	4265
990.549	4260
992.9039	4386
995.2602	4361
997.6119	4320
999.965	4441
1002.317	4329
1004.667	4304
1007.02	4349
1009.371	4290
1011.719	4345
1014.068	4406
1016.415	4454
1018.765	4319
1021.111	4374
1023.458	4296
1025.804	4389
1028.147	4485
1030.49	4409
1032.837	4363
1035.179	4446
1037.522	4423
1039.862	4424
1042.204	4423
1044.546	4458
1046.884	4470
1049.224	4424
1051.562	4397
1053.899	4421
1056.237	4427
1058.575	4414
1060.91	4522
1063.244	4487
1065.58	4406
1067.913	4523
1070.248	4542
1072.579	4537
1074.911	4520
1077.242	4567
1079.572	4599
1081.905	4489
1084.234	4490
1086.562	4480
1088.89	4474
1091.217	4468
1093.544	4542
1095.871	4469
1098.197	4502
1100.521	4414
1102.845	4504
1105.169	4424
1107.491	4425
1109.814	4415
1112.135	4446
1114.456	4458
1116.776	4416
1119.096	4510
1121.415	4569
1123.734	4473
1126.052	4553
1128.369	4497
1130.686	4469
1133.002	4511
1135.318	4469
1137.632	4437
1139.945	4592
1142.258	4588
1144.573	4460
1146.884	4467
1149.196	4552
1151.505	4490
1153.816	4521
1156.124	4558
1158.435	4515
1160.742	4478
1163.051	4623
1165.356	4541
1167.663	4571
1169.97	4513
1172.276	4547
1174.579	4552
1176.881	4554
1179.186	4537
1181.487	4564
1183.79	4519
1186.092	4578
1188.392	4588
1190.691	4566
1192.991	4455
1195.291	4563
1197.588	4470
1199.885	4580
1202.181	4583
1204.479	4559
1206.775	4583
1209.07	4549
1211.363	4609
1213.656	4591
1215.949	4451
1218.241	4621
1220.534	4592
1222.825	4487
1225.115	4574
1227.405	4570
1229.693	4719
1231.984	4619
1234.271	4691
1236.558	4636
1238.845	4682
1241.131	4752
1243.416	4754
1245.703	4836
1247.987	4631
1250.269	4783
1252.552	4781
1254.834	4719
1257.118	4761
1259.399	4745
1261.678	4745
1263.958	4650
1266.237	4737
1268.516	4769
1270.794	4742
1273.072	4783
1275.347	4812
1277.624	4785
1279.899	4704
1282.175	4691
1284.449	4734
1286.722	4737
1288.995	4627
1291.266	4777
1293.54	4723
1295.81	4797
1298.081	4693
1300.35	4593
1302.62	4658
1304.889	4715
1307.156	4727
1309.425	4726
1311.69	4678
1313.957	4751
1316.222	4695
1318.488	4700
1320.751	4761
1323.016	4740
1325.278	4688
1327.54	4727
1329.803	4785
1332.065	4769
1334.325	4815
1336.584	4771
1338.843	4728
1341.101	4745
1343.36	4822
1345.617	4775
1347.876	4718
1350.131	4747
1352.387	4805
1354.643	4786
1356.897	4811
1359.151	4774
1361.403	4830
1363.656	4726
1365.909	4827
1368.16	4857
1370.409	4823
1372.659	4807
1374.909	4868
1377.157	4780
1379.407	4821
1381.655	4848
1383.9	4837
1386.147	4759
1388.393	4859
1390.64	4890
1392.885	4855
1395.127	4971
1397.37	4895
1399.614	4865
1401.854	4886
1404.098	4931
1406.339	5015
1408.578	4909
1410.818	4816
1413.056	4922
1415.297	4843
1417.533	4946
1419.771	4954
1422.006	4915
1424.243	4984
1426.479	4922
1428.715	4956
1430.948	4913
1433.182	4895
1435.414	5026
1437.647	4982
1439.88	4961
1442.11	5036
1444.342	5024
1446.571	4919
1448.799	5095
1451.029	4949
1453.258	5079
1455.485	4878
1457.711	4984
1459.937	4899
1462.164	5040
1464.39	4973
1466.614	5033
1468.838	5033
1471.06	4961
1473.283	4964
1475.506	4839
1477.727	4922
1479.949	5026
1482.169	4895
1484.389	4964
1486.609	4861
1488.828	5015
1491.045	4852
1493.261	4916
1495.477	4878
1497.693	4815
1499.91	4889
1502.125	4779
1504.339	4835
1506.553	4873
1508.766	4890
1510.979	4911
1513.191	4832
1515.402	4932
1517.613	4907
1519.823	4867
1522.033	4825
1524.242	4867
1526.451	4827
1528.657	4910
1530.865	4894
1533.072	4822
1535.278	4813
1537.484	4953
1539.687	4855
1541.892	4955
1544.096	4741
1546.299	4945
1548.502	4989
1550.703	4940
1552.905	5029
1555.104	4891
1557.303	5048
1559.505	4950
1561.703	4978
1563.902	5011
1566.099	4945
1568.295	4970
1570.494	4913
1572.689	4977
1574.883	4963
1577.079	4947
1579.272	5088
1581.467	5077
1583.659	5136
1585.853	4986
1588.044	4959
1590.234	5124
1592.424	5059
1594.615	5127
1596.806	5093
1598.994	5076
1601.182	5116
1603.369	5103
1605.557	5005
1607.744	5101
1609.929	4949
1612.114	5067
1614.298	5015
1616.482	5076
1618.667	5080
1620.85	5201
1623.032	4997
1625.214	5157
1627.395	5115
1629.575	5070
1631.755	5178
1633.935	5060
1636.114	5074
1638.292	5070
1640.471	5082
1642.647	5158
1644.823	5145
1647	5046
1649.175	5159
1651.348	5207
1653.525	5016
1655.698	5167
1657.87	5162
1660.043	5089
1662.213	5128
1664.387	5132
1666.558	5011
1668.727	5135
1670.896	5138
1673.064	5133
1675.233	5133
1677.401	5083
1679.569	5148
1681.735	5147
1683.902	5205
1686.066	5089
1688.233	5172
1690.397	5107
1692.559	5009
1694.723	5090
1696.885	5033
1699.048	5087
1701.21	5158
1703.37	4993
1705.53	5149
1707.689	5054
1709.849	5155
1712.009	5063
1714.166	5079
1716.323	5121
1718.479	5096
1720.634	5144
1722.793	5141
1724.948	5046
1727.102	5156
1729.255	5022
1731.408	5013
1733.562	5132
1735.714	5034
1737.865	5048
1740.016	5094
1742.166	5100
1744.316	5026
1746.467	5117
1748.616	5148
1750.764	5108
1752.911	5033
1755.056	5118
1757.205	5068
1759.35	5133
1761.496	5150
1763.641	4998
1765.785	5098
1767.927	5150
1770.072	5118
1772.214	5148
1774.355	5174
1776.496	5113
1778.637	5136
1780.778	5111
1782.918	5287
1785.057	5103
1787.194	5164
1789.333	5213
1791.472	5240
1793.608	5157
1795.745	5263
1797.879	5151
1800.015	5221
1802.148	5238
1804.284	5187
1806.417	5136
1808.548	5165
1810.682	5179
1812.812	5210
1814.946	5179
1817.075	5177
1819.205	5154
1821.335	5108
1823.463	5191
1825.59	5126
1827.721	5159
1829.847	5178
1831.973	5203
1834.098	5156
1836.223	5157
1838.351	5136
1840.475	5150
1842.598	5154
1844.721	5195
1846.843	5150
1848.966	5114
1851.087	5227
1853.21	5104
1855.33	5077
1857.449	5111
1859.568	5210
1861.688	5141
1863.806	5176
1865.924	5111
1868.039	5158
1870.155	5031
1872.273	5069
1874.388	5267
1876.503	5218
1878.617	5131
1880.73	5201
1882.844	5170
1884.956	5142
1887.068	5277
1889.18	5149
1891.291	5335
1893.4	5132
1895.511	5158
1897.621	5148
1899.73	5178
1901.837	5130
1903.944	5266
1906.053	5214
1908.159	5091
1910.265	5202
1912.369	5318
1914.474	5258
1916.577	5228
1918.683	5222
1920.785	5381
1922.888	5283
1924.989	5129
1927.091	5265
1929.193	5230
1931.294	5309
1933.393	5324
1935.493	5332
1937.59	5289
1939.689	5296
1941.788	5288
1943.884	5394
1945.98	5368
1948.077	5398
1950.171	5218
1952.267	5313
1954.361	5327
1956.455	5212
1958.548	5234
1960.64	5202
1962.733	5184
1964.824	5313
1966.915	5340
1969.005	5245
1971.096	5303
1973.185	5289
1975.275	5228
1977.363	5337
1979.45	5243
1981.537	5207
1983.623	5283
1985.711	5306
1987.796	5220
1989.881	5294
1991.965	5267
1994.047	5294
1996.132	5296
1998.215	5196
2000.297	5291
2002.378	5402
2004.46	5302
2006.54	5258
2008.62	5262
2010.7	5385
2012.779	5243
2014.858	5294
2016.934	5225
2019.013	5305
2021.09	5311
2023.165	5136
2025.241	5190
2027.317	5268
2029.39	5294
2031.466	5231
2033.538	5309
2035.612	5279
2037.683	5251
2039.755	5274
2041.827	5267
2043.898	5266
2045.968	5220
2048.038	5358
2050.106	5268
2052.177	5250
2054.244	5370
2056.313	5265
2058.379	5275
2060.444	5305
2062.511	5295
2064.577	5231
2066.641	5226
2068.705	5365
2070.77	5305
2072.832	5290
2074.896	5271
2076.958	5326
2079.02	5291
2081.081	5354
2083.141	5248
2085.2	5431
2087.261	5341
2089.319	5325
2091.377	5320
2093.435	5268
2095.492	5350
2097.552	5276
2099.607	5197
2101.663	5367
2103.718	5371
2105.771	5373
2107.826	5360
2109.879	5405
2111.932	5355
2113.985	5300
2116.037	5313
2118.088	5332
2120.141	5290
2122.191	5435
2124.239	5320
2126.288	5230
2128.337	5310
2130.387	5232
2132.434	5312
2134.481	5277
2136.528	5432
2138.574	5195
2140.618	5378
2142.665	5406
2144.71	5357
2146.753	5256
2148.797	5282
2150.838	5387
2152.883	5278
2154.923	5312
2156.965	5266
2159.007	5239
2161.046	5350
2163.086	5310
2165.126	5319
2167.163	5366
2169.202	5247
2171.239	5325
2173.277	5315
2175.314	5255
2177.349	5326
2179.385	5379
2181.42	5360
2183.453	5272
2185.49	5313
2187.522	5279
2189.555	5255
2191.586	5204
2193.619	5286
2195.651	5307
2197.682	5279
2199.711	5183
2201.74	5249
2203.769	5237
2205.799	5291
2207.828	5358
2209.855	5189
2211.882	5179
2213.908	5314
2215.934	5183
2217.961	5208
2219.986	5183
2222.01	5318
2224.034	5205
2226.057	5343
2228.08	5233
2230.104	5239
2232.124	5211
2234.145	5211
2236.166	5235
2238.186	5313
2240.207	5249
2242.227	5392
2244.244	5257
2246.262	5323
2248.28	5311
2250.299	5314
2252.314	5326
2254.33	5380
2256.346	5269
2258.36	5265
2260.375	5273
2262.391	5269
2264.403	5216
2266.416	5366
2268.427	5252
2270.44	5340
2272.453	5390
2274.463	5206
2276.474	5280
2278.483	5244
2280.493	5257
2282.501	5262
2284.51	5308
2286.518	5340
2288.524	5292
2290.532	5189
2292.537	5325
2294.544	5284
2296.55	5282
2298.554	5350
2300.557	5270
2302.562	5317
2304.566	5316
2306.568	5260
2308.569	5273
2310.572	5247
2312.573	5306
2314.573	5280
2316.574	5156
2318.573	5352
2320.571	5400
2322.571	5363
2324.569	5174
2326.567	5347
2328.564	5305
2330.56	5166
2332.556	5357
2334.551	5126
2336.546	5165
2338.542	5199
2340.535	5240
2342.529	5190
2344.521	5258
2346.512	5214
2348.505	5272
2350.497	5162
2352.487	5319
2354.478	5272
2356.468	5310
2358.457	5238
2360.446	5216
2362.434	5231
2364.422	5252
2366.408	5354
2368.395	5183
2370.383	5178
2372.369	5178
2374.353	5202
2376.338	5211
2378.321	5171
2380.307	5346
2382.29	5248
2384.272	5210
2386.254	5154
2388.235	5189
2390.218	5320
2392.198	5125
2394.179	5184
2396.157	5202
2398.137	5220
2400.115	5228
2402.095	5235
2404.072	5350
2406.048	5157
2408.026	5192
2410.001	5279
2411.977	5235
2413.953	5180
2415.927	5193
2417.9	5179
2419.875	5171
2421.847	5214
2423.821	5278
2425.792	5132
2427.763	5298
2429.736	5219
2431.706	5229
2433.677	5192
2435.646	5250
2437.615	5234
2439.583	5299
2441.551	5123
2443.519	5209
2445.486	5066
2447.452	5147
2449.418	5374
2451.383	5226
2453.348	5223
2455.314	5129
2457.278	5153
2459.241	5253
2461.205	5234
2463.167	5137
2465.131	5133
2467.091	5266
2469.052	5197
2471.012	5257
2472.972	5287
2474.932	5218
2476.891	5233
2478.85	5194
2480.808	5231
2482.766	5291
2484.722	5160
2486.68	5141
2488.636	5139
2490.591	5206
2492.546	5164
2494.5	5150
2496.456	5068
2498.41	5165
2500.362	5238
2502.315	5132
2504.266	5190
2506.218	5106
2508.169	5131
2510.121	5202
2512.07	5170
2514.019	5152
2515.968	5253
2517.918	5128
2519.866	5197
2521.813	5138
2523.76	5224
2525.707	5209
2527.653	5149
2529.599	5180
2531.543	5147
2533.489	5223
2535.433	5286
2537.376	5109
2539.32	5341
2541.264	5263
2543.205	5225
2545.147	5200
2547.087	5146
2549.029	5120
2550.969	5165
2552.908	5166
2554.847	5288
2556.786	5150
2558.724	5208
2560.663	5094
2562.6	5121
2564.537	5208
2566.473	5107
2568.408	5134
2570.345	5255
2572.28	5149
2574.214	5268
2576.148	5205
2578.081	5177
2580.014	5225
2581.947	5317
2583.879	5178
2585.81	5280
2587.741	5198
2589.67	5187
2591.602	5221
2593.532	5228
2595.461	5171
2597.388	5231
2599.316	5132
2601.244	5203
2603.172	5217
2605.098	5102
2607.023	5213
2608.949	5241
2610.873	5226
2612.8	5254
2614.723	5271
2616.647	5222
2618.569	5284
2620.493	5265
2622.416	5307
2624.338	5229
2626.258	5293
2628.179	5278
2630.099	5325
2632.019	5304
2633.939	5261
2635.857	5197
2637.775	5306
2639.694	5268
2641.61	5154
2643.528	5360
2645.444	5384
2647.361	5322
2649.276	5228
2651.19	5252
2653.105	5323
2655.019	5333
2656.934	5272
2658.846	5264
2660.758	5308
2662.67	5234
2664.583	5270
2666.493	5291
2668.404	5352
2670.313	5245
2672.223	5295
2674.134	5303
2676.042	5230
2677.95	5265
2679.858	5252
2681.765	5276
2683.673	5265
2685.579	5301
2687.483	5273
2689.389	5268
2691.294	5308
2693.198	5295
2695.104	5277
2697.006	5400
2698.909	5267
2700.811	5266
2702.713	5302
2704.615	5230
2706.516	5207
2708.417	5279
2710.316	5247
2712.216	5187
2714.115	5178
2716.014	5153
2717.913	5232
2719.81	5273
2721.707	5208
2723.603	5279
2725.501	5254
2727.396	5281
2729.292	5239
2731.186	5201
2733.081	5319
2734.976	5301
2736.87	5206
2738.762	5267
2740.653	5213
2742.546	5279
2744.437	5258
2746.329	5219
2748.22	5216
2750.11	5290
2751.999	5209
2753.889	5220
2755.778	5244
2757.666	5155
2759.553	5280
2761.44	5155
2763.328	5254
2765.215	5189
2767.101	5233
2768.986	5237
2770.87	5187
2772.754	5278
2774.638	5255
2776.523	5154
2778.405	5257
2780.288	5159
2782.17	5208
2784.051	5200
2785.934	5316
2787.814	5184
2789.694	5204
2791.574	5292
2793.453	5203
2795.332	5314
2797.212	5284
2799.088	5282
2800.966	5267
2802.843	5212
2804.719	5184
2806.597	5247
2808.471	5102
2810.346	5211
2812.221	5224
2814.094	5233
2815.969	5209
2817.843	5224
2819.714	5203
2821.587	5280
2823.459	5343
2825.329	5268
2827.202	5282
2829.072	5205
2830.942	5236
2832.811	5316
2834.68	5232
2836.549	5198
2838.418	5306
2840.284	5234
2842.152	5324
2844.018	5213
2845.885	5228
2847.751	5228
2849.616	5256
2851.482	5350
2853.345	5247
2855.208	5251
2857.074	5279
2858.937	5299
2860.799	5272
2862.66	5317
2864.522	5341
2866.385	5357
2868.245	5319
2870.104	5403
2871.964	5476
2873.824	5462
2875.683	5445
2877.542	5513
2879.4	5513
2881.257	5466
2883.114	5510
2884.97	5611
2886.827	5513
2888.683	5638
2890.537	5584
2892.392	5617
2894.246	5623
2896.1	5652
2897.954	5502
2899.807	5509
2901.66	5526
2903.51	5487
2905.362	5496
2907.214	5545
2909.065	5557
2910.915	5469
2912.765	5584
2914.613	5574
2916.463	5655
2918.311	5614
2920.158	5667
2922.006	5675
2923.853	5752
2925.698	5821
2927.546	5710
2929.392	5813
2931.236	5831
2933.081	5842
2934.924	6002
2936.77	5792
2938.613	5928
2940.455	5996
2942.298	5865
2944.139	5934
2945.982	5991
2947.823	5855
2949.662	6001
2951.503	5966
2953.342	5862
2955.182	5806
2957.021	5807
2958.858	5797
2960.697	5832
2962.534	5803
2964.37	5816
2966.207	5696
2968.044	5716
2969.879	5685
2971.714	5566
2973.548	5701
2975.383	5646
2977.218	5574
2979.051	5655
2980.883	5538
2982.715	5573
2984.547	5539
2986.379	5553
2988.21	5466
2990.04	5511
2991.87	5536
2993.7	5337
2995.53	5447
2997.359	5403
2999.187	5355
3001.015	5398
3002.842	5390
3004.669	5336
3006.497	5308
3008.323	5273
3010.148	5218
3011.974	5214
3013.797	5270
3015.623	5262
3017.447	5250
3019.27	5195
3021.094	5127
3022.915	5287
3024.737	5186
3026.56	5142
3028.38	5208
3030.201	5085
3032.022	5208
3033.84	5079
3035.662	5083
3037.481	5178
3039.298	5170
3041.117	5204
3042.933	5055
3044.752	5054
3046.568	5149
3048.385	5079
3050.2	5162
3052.016	5077
3053.83	5138
3055.646	5141
3057.46	5192
3059.272	5102
3061.086	5106
3062.898	5220
3064.711	5154
3066.524	5023
3068.335	4966
3070.145	5078
3071.956	5078
3073.766	5110
3075.576	5119
3077.385	5056
3079.193	5030
3081.002	5066
3082.81	4927
3084.618	4998
3086.425	4978
3088.231	5150
3090.036	4947
3091.842	5033
3093.648	5023
3095.452	4986
3097.257	5030
3099.06	5037
3100.863	4954
3102.666	5046
3104.47	4980
3106.272	4908
3108.073	4984
3109.875	4999
3111.676	5014
3113.477	4953
3115.277	4958
3117.077	5016
3118.874	5029
3120.673	4947
3122.473	4908
3124.271	4934
3126.066	4954
3127.863	4919
3129.66	4968
3131.456	4988
3133.252	4896
3135.047	4927
3136.842	4854
3138.635	4949
3140.429	4906
3142.223	4926
3144.016	4941
3145.808	4880
3147.6	4921
3149.392	4957
3151.183	4887
3152.975	4905
3154.765	4841
3156.553	4898
3158.344	4884
3160.132	4844
3161.922	4883
3163.71	4818
3165.497	4867
3167.285	4824
3169.071	4893
3170.858	4818
3172.645	4849
3174.429	4940
3176.214	4837
3177.998	4901
3179.783	4850
3181.568	4873
3183.351	4855
3185.133	4884
3186.915	4838
3188.698	4909
3190.481	4897
3192.261	4749
3194.042	4972
3195.822	4890
3197.601	4873
3199.381	4871
3201.161	4849
3202.939	4913
3204.717	4915
3206.495	4848
3208.272	4765
3210.05	4912
3211.826	4851
3213.602	4857
3215.376	4861
3217.151	4820
3218.927	4810
3220.702	4875
3222.476	4824
3224.249	4790
3226.021	4807
3227.793	4882
3229.567	4787
3231.339	4813
3233.109	4812
3234.88	4692
3236.651	4864
3238.421	4817
3240.191	4906
3241.96	4815
3243.728	4815
3245.497	4848
3247.263	4857
3249.033	4820
3250.799	4862
3252.566	4814
3254.331	4787
3256.097	4766
3257.863	4743
3259.628	4897
3261.392	4776
3263.156	4852
3264.919	4823
3266.683	4830
3268.447	4867
3270.208	4743
3271.969	4844
3273.731	4757
3275.492	4804
3277.253	4800
3279.013	4875
3280.773	4759
3282.532	4881
3284.291	4772
3286.05	4702
3287.808	4902
3289.566	4859
3291.323	4855
3293.079	4877
3294.835	4849
3296.593	4863
3298.348	4866
3300.102	4802
3301.857	4826
3303.611	4808
3305.366	4877
3307.119	4772
3308.872	4849
3310.624	4846
3312.376	4776
3314.129	4825
3315.881	4787
3317.631	4774
3319.38	4888
3321.13	4869
3322.88	4783
3324.631	4889
3326.379	4817
3328.126	4819
3329.875	4798
3331.622	4821
3333.371	4803
3335.116	4687
3336.863	4830
3338.609	4789
3340.353	4759
3342.1	4784
3343.845	4827
3345.588	4807
3347.332	4811
3349.074	4752
3350.817	4810
3352.56	4730
3354.303	4805
3356.043	4754
3357.785	4772
3359.525	4742
3361.268	4759
3363.007	4710
3364.745	4766
3366.485	4668
3368.223	4802
3369.962	4754
3371.701	4768
3373.438	4708
3375.174	4775
3376.911	4766
3378.647	4767
3380.384	4706
3382.118	4731
3383.854	4740
3385.588	4729
3387.322	4812
3389.057	4617
3390.79	4775
3392.522	4803
3394.255	4671
3395.987	4659
3397.719	4742
3399.451	4757
3401.181	4681
3402.911	4617
3404.641	4744
3406.371	4648
3408.101	4667
3409.83	4723
3411.558	4680
3413.285	4794
3415.011	4589
3416.739	4686
3418.467	4660
3420.193	4668
3421.919	4757
3423.644	4689
3425.368	4671
3427.094	4615
3428.818	4686
3430.542	4697
3432.264	4633
3433.987	4644
3435.712	4670
3437.434	4702
3439.155	4689
3440.876	4656
3442.596	4537
3444.317	4637
3446.039	4699
3447.757	4570
3449.477	4667
3451.195	4656
3452.914	4613
3454.632	4579
3456.35	4660
3458.067	4640
3459.784	4686
3461.5	4641
3463.216	4533
3464.932	4564
3466.647	4599
3468.362	4558
3470.076	4595
3471.789	4623
3473.505	4594
3475.217	4543
3476.929	4559
3478.641	4603
3480.354	4574
3482.066	4471
3483.777	4632
3485.487	4505
3487.197	4541
3488.908	4477
3490.617	4536
3492.327	4433
3494.035	4516
3495.743	4510
3497.451	4428
3499.158	4532
3500.866	4506
3502.572	4448
3504.278	4493
3505.984	4481
3507.689	4489
3509.396	4590
3511.1	4470
3512.804	4509
3514.508	4504
3516.211	4534
3517.913	4425
3519.616	4477
3521.319	4535
3523.021	4469
3524.722	4446
3526.422	4355
3528.124	4495
3529.824	4560
3531.524	4488
3533.222	4401
3534.921	4423
3536.62	4491
3538.318	4465
3540.016	4444
3541.714	4327
3543.41	4418
3545.107	4438
3546.803	4470
3548.5	4411
3550.194	4321
3551.889	4462
3553.583	4467
3555.279	4437
3556.972	4523
3558.666	4456
3560.358	4416
3562.051	4537
3563.742	4486
3565.435	4366
3567.126	4341
3568.817	4428
3570.507	4399
3572.197	4328
3573.888	4412
3575.577	4418
3577.265	4374
3578.954	4398
3580.642	4419
3582.329	4395
3584.017	4310
3585.704	4364
3587.391	4372
3589.077	4362
3590.762	4400
3592.449	4420
3594.133	4356
3595.817	4307
3597.501	4445
3599.185	4346
3600.869	4273
3602.552	4383
3604.234	4293
3605.916	4310
3607.598	4192
3609.279	4216
3610.961	4272
3612.642	4202
3614.321	4309
3616	4296
3617.68	4239
3619.36	4269
3621.039	4242
3622.716	4298
3624.394	4326
3626.071	4222
3627.748	4297
3629.425	4266
3631.102	4189
3632.778	4298
3634.452	4282
3636.127	4219
3637.803	4263
3639.477	4297
3641.151	4285
3642.823	4205
3644.497	4279
3646.171	4214
3647.842	4362
3649.515	4274
3651.185	4144
3652.857	4252
3654.527	4273
3656.198	4238
3657.868	4236
3659.537	4169
3661.207	4210
3662.875	4254
3664.544	4263
3666.212	4146
3667.879	4119
3669.546	4267
3671.212	4164
3672.88	4146
3674.546	4162
3676.211	4146
3677.875	4262
3679.541	4156
3681.205	4180
3682.87	4219
3684.533	4158
3686.196	4141
3687.859	4191
3689.521	4146
3691.184	4206
3692.845	4076
3694.507	4116
3696.167	4164
3697.827	4117
3699.487	4125
3701.148	4244
3702.808	4195
3704.466	4218
3706.125	4188
3707.783	4209
3709.442	4097
3711.099	4127
3712.757	4164
3714.412	4185
3716.068	4127
3717.725	4060
3719.381	4103
3721.036	4124
3722.689	4135
3724.344	4182
3725.998	4164
3727.652	4162
3729.305	4102
3730.958	4151
3732.61	4136
3734.262	4156
3735.915	4171
3737.565	4061
3739.217	4078
3740.866	4048
3742.516	4077
3744.165	4122
3745.816	4095
3747.464	4029
3749.113	4142
3750.761	4080
3752.409	4116
3754.057	4097
3755.703	4048
3757.35	4056
3758.996	3975
3760.641	4112
3762.289	4064
3763.933	4066
3765.577	4036
3767.222	4124
3768.865	4084
3770.508	4151
3772.152	3997
3773.796	4052
3775.438	3992
3777.079	4072
3778.721	4083
3780.363	4083
3782.003	4011
3783.643	4049
3785.283	4085
3786.923	4013
3788.563	4087
3790.203	4091
3791.841	4070
3793.479	4060
3795.115	4093
3796.753	4036
3798.391	4011
3800.027	4033
3801.664	3967
3803.299	3983
3804.935	3920
3806.571	3986
3808.206	3957
3809.839	3922
3811.473	4022
3813.107	3931
3814.74	3964
3816.375	3940
3818.006	4002
3819.638	3967
3821.27	3970
3822.9	3916
3824.532	3915
3826.163	3934
3827.792	3978
3829.423	3966
3831.051	4008
3832.682	3945
3834.311	3951
3835.938	4004
3837.566	3983
3839.193	3985
3840.821	4027
3842.448	3984
3844.075	4026
3845.7	3971
3847.325	3979
3848.951	4019
3850.576	3925
3852.201	3957
3853.825	3863
3855.448	3832
3857.072	3988
3858.694	3893
3860.318	3899
3861.939	3935
3863.562	3939
3865.183	3800
3866.804	3889
3868.426	3968
3870.045	3840
3871.666	3862
3873.285	3921
3874.904	3858
3876.524	3911
3878.142	3847
3879.76	3913
3881.378	3904
3882.995	3818
3884.612	3921
3886.229	3857
3887.845	3885
3889.461	3896
3891.076	3860
3892.691	3948
3894.307	3883
3895.922	3806
3897.536	3899
3899.149	3799
3900.761	3829
3902.374	3832
3903.988	3883
3905.6	3831
3907.212	3870
3908.822	3795
3910.433	3883
3912.045	3886
3913.655	3852
3915.265	3864
3916.875	3807
3918.483	3839
3920.093	3816
3921.702	3833
3923.309	3801
3924.917	3843
3926.523	3959
3928.13	3826
3929.739	3842
3931.344	3922
3932.95	3882
3934.555	3743
3936.159	3937
3937.766	3853
3939.369	3754
3940.974	3875
3942.577	3852
3944.181	3849
3945.783	3837
3947.386	3864
3948.989	3861
3950.59	3888
3952.191	3831
3953.791	3782
3955.394	3901
3956.994	3832
3958.593	3846
3960.192	3796
3961.791	3867
3963.392	3831
3964.99	3802
3966.588	3798
3968.185	3762
3969.782	3880
3971.379	3764
3972.976	3792
3974.572	3766
3976.168	3744
3977.763	3794
3979.358	3825
3980.954	3790
3982.548	3825
3984.142	3727
3985.736	3788
3987.329	3802
3988.922	3756
3990.516	3669
3992.108	3830
3993.698	3794
3995.29	3704
3996.881	3809
3998.473	3717
4000.064	3721
4001.653	3725
4003.242	3671
4004.832	3680
4006.422	3769
4008.01	3721
4009.598	3749
4011.186	3731
4012.773	3662
4014.36	3796
4015.947	3658
4017.534	3749
4019.119	3691
4020.705	3754
4022.291	3729
4023.876	3762
4025.461	3605
4027.044	3697
4028.627	3569
4030.211	3663
4031.795	3661
4033.378	3669
4034.96	3690
4036.542	3586
4038.124	3620
4039.704	3682
4041.286	3615
4042.867	3622
4044.447	3698
4046.026	3686
4047.606	3745
4049.187	3723
4050.765	3699
4052.343	3665
4053.92	3586
4055.498	3618
4057.076	3608
4058.654	3604
4060.23	3598
4061.806	3689
4063.381	3597
4064.957	3625
4066.533	3618
4068.107	3598
4069.682	3587
4071.256	3652
4072.829	3598
4074.404	3590
4075.977	3611
4077.549	3671
4079.121	3612
4080.693	3645
4082.265	3633
4083.836	3681
4085.407	3607
4086.977	3468
4088.547	3589
4090.117	3619
4091.687	3631
4093.256	3483
4094.825	3628
4096.392	3573
4097.96	3546
4099.528	3609
4101.097	3524
4102.663	3573
4104.229	3507
4105.795	3626
4107.361	3508
4108.928	3523
4110.493	3622
4112.058	3524
4113.621	3540
4115.186	3632
4116.75	3533
4118.313	3545
4119.876	3517
4121.438	3503
4123	3559
4124.562	3559
4126.125	3607
4127.686	3499
4129.246	3613
4130.807	3579
4132.367	3518
4133.927	3492
4135.486	3526
4137.046	3581
4138.604	3575
4140.162	3423
4141.72	3552
4143.279	3469
4144.836	3484
4146.393	3449
4147.949	3407
4149.505	3474
4151.062	3525
4152.617	3542
4154.172	3493
4155.727	3467
4157.281	3462
4158.836	3524
4160.39	3438
4161.943	3455
4163.496	3473
4165.048	3504
4166.601	3391
4168.154	3467
4169.706	3426
4171.257	3428
4172.808	3408
4174.358	3358
4175.909	3447
4177.458	3371
4179.008	3381
4180.558	3384
4182.106	3469
4183.655	3483
4185.204	3374
4186.751	3413
4188.298	3419
4189.845	3421
4191.392	3442
4192.939	3354
4194.485	3462
4196.031	3403
4197.576	3344
4199.121	3320
4200.666	3438
4202.211	3381
4203.754	3336
4205.298	3395
4206.84	3392
4208.384	3419
4209.927	3402
4211.47	3357
4213.011	3341
4214.552	3385
4216.094	3431
4217.635	3344
4219.175	3380
4220.716	3295
4222.255	3343
4223.793	3257
4225.335	3366
4226.873	3363
4228.411	3340
4229.948	3298
4231.486	3342
4233.024	3316
4234.562	3350
4236.098	3344
4237.634	3366
4239.169	3330
4240.705	3331
4242.241	3299
4243.776	3368
4245.31	3323
4246.844	3339
4248.378	3277
4249.911	3361
4251.445	3285
4252.978	3304
4254.51	3291
4256.042	3314
4257.574	3367
4259.107	3304
4260.638	3279
4262.169	3288
4263.699	3308
4265.228	3319
4266.759	3318
4268.289	3283
4269.818	3383
4271.345	3319
4272.874	3308
4274.402	3347
4275.931	3308
4277.458	3298
4278.985	3340
4280.512	3242
4282.037	3332
4283.564	3338
4285.089	3327
4286.615	3272
4288.139	3267
4289.664	3301
4291.187	3316
4292.712	3281
4294.235	3186
4295.759	3239
4297.281	3384
4298.804	3309
4300.327	3243
4301.849	3208
4303.37	3224
4304.891	3266
4306.412	3283
4307.933	3201
4309.453	3246
4310.973	3209
4312.492	3170
