398.1873	2944
400.7097	2935
403.2336	2985
405.7547	2936
408.2751	2900
410.7948	2879
413.3138	3016
415.83	2991
418.3497	3005
420.8666	3034
423.3829	3047
425.8985	2987
428.4133	3108
430.9275	3049
433.441	3113
435.9538	3181
438.4639	3109
440.9753	3067
443.4881	3065
445.9982	3077
448.5055	3096
451.0142	3183
453.5201	3115
456.0274	3096
458.5361	3166
461.04	3118
463.5453	3131
466.0478	3032
468.5517	3157
471.0549	3106
473.5574	3158
476.0572	3092
478.5584	3145
481.0568	3096
483.5545	3122
486.0557	3168
488.5521	3051
491.0478	3178
493.5449	3157
496.0392	3148
498.5349	3110
501.0299	3125
503.5222	3207
506.0139	3196
508.5048	3100
510.9991	3232
513.4887	3204
515.9777	3157
518.4659	3200
520.9534	3223
523.4403	3147
525.9306	3163
528.4161	3139
530.9009	3168
533.3851	3206
535.8687	3230
538.3535	3155
540.8356	3215
543.3171	3200
545.7979	3233
548.278	3301
550.7595	3189
553.2383	3274
555.7144	3207
558.1918	3224
560.6685	3193
563.1446	3219
565.6221	3248
568.0968	3307
570.5688	3317
573.0422	3217
575.515	3347
577.989	3321
580.4584	3359
582.9291	3327
585.3991	3347
587.8685	3346
590.3352	3327
592.8052	3278
595.2706	3423
597.7372	3325
600.2033	3324
602.6666	3378
605.1334	3309
607.5953	3356
610.0587	3327
612.5193	3336
614.9814	3340
617.4427	3300
619.9034	3309
622.3615	3270
624.8208	3337
627.2775	3288
629.7335	3312
632.1929	3360
634.6476	3247
637.1016	3302
639.5569	3262
642.0096	3307
644.4637	3290
646.9151	3375
649.3678	3329
651.8179	3260
654.2672	3414
656.7159	3317
659.166	3370
661.6154	3321
664.0622	3215
666.5082	3357
668.9537	3316
671.4005	3352
673.8445	3412
676.288	3403
678.7308	3409
681.1729	3435
683.6163	3415
686.0572	3349
688.4973	3423
690.9368	3414
693.3757	3454
695.8138	3368
698.2534	3361
700.6902	3405
703.1245	3442
705.56	3494
707.9949	3495
710.4311	3563
712.8647	3452
715.2957	3446
717.7279	3492
720.1595	3592
722.5905	3510
725.0208	3471
727.4505	3487
729.8795	3481
732.3058	3532
734.7336	3558
737.1626	3517
739.587	3553
742.0128	3599
744.4359	3521
746.8604	3557
749.2841	3563
751.7073	3626
754.1278	3616
756.5496	3699
758.9688	3609
761.3893	3599
763.8093	3610
766.2285	3513
768.6451	3666
771.0611	3696
773.4784	3604
775.895	3624
778.3091	3553
780.7244	3672
783.1371	3664
785.5493	3648
787.9626	3582
790.3754	3608
792.7856	3643
795.1951	3591
797.6039	3672
800.0121	3528
802.4236	3649
804.8306	3634
807.2369	3615
809.6425	3792
812.0475	3720
814.4538	3696
816.8575	3712
819.2606	3731
821.663	3732
824.0648	3705
826.4659	3715
828.8683	3651
831.2682	3736
833.6674	3629
836.066	3750
838.4639	3756
840.8632	3768
843.2579	3725
845.6539	3756
848.0493	3683
850.444	3715
852.84	3733
855.2315	3807
857.6243	3904
860.0165	3750
862.4081	3838
864.797	3811
867.1892	3737
869.5789	3778
871.9659	3719
874.3542	3768
876.74	3711
879.129	3795
881.5155	3687
883.8994	3713
886.2845	3769
888.6671	3744
891.051	3926
893.4343	3777
895.8169	3800
898.197	3711
900.5783	3777
902.9571	3715
905.3372	3780
907.7167	3742
910.0936	3851
912.4698	3876
914.8474	3867
917.2244	3879
919.5987	3894
921.9744	3896
924.3475	4006
926.72	3869
929.0918	3919
931.4669	3924
933.8375	3949
936.2074	3991
938.5767	3977
940.9454	4041
943.3154	4139
945.6829	4182
948.0497	4188
950.4178	4264
952.7833	4406
955.1483	4616
957.5145	4736
959.8782	4696
962.2412	4767
964.6036	4673
966.9655	4562
969.3266	4445
971.6871	4254
974.0471	4056
976.4064	3997
978.765	4023
981.125	3963
983.4824	3811
985.8373	3838
988.1935	3876
990.549	3886
992.9039	3967
995.2602	3917
997.6119	3852
999.965	3807
1002.317	3912
1004.667	3909
1007.02	3898
1009.371	3887
1011.719	3904
1014.068	3918
1016.415	3942
1018.765	3906
1021.111	3888
1023.458	3853
1025.804	4044
1028.147	3899
1030.49	3944
1032.837	3985
1035.179	3989
1037.522	4015
1039.862	3871
1042.204	4009
1044.546	4011
1046.884	3896
1049.224	3896
1051.562	3994
1053.899	3980
1056.237	4055
1058.575	4085
1060.91	4047
1063.244	4109
1065.58	4049
1067.913	4005
1070.248	4092
1072.579	4122
1074.911	4088
1077.242	4050
1079.572	4083
1081.905	4018
1084.234	4095
1086.562	3983
1088.89	3954
1091.217	4002
1093.544	4004
1095.871	4000
1098.197	4053
1100.521	3987
1102.845	4046
1105.169	3925
1107.491	4048
1109.814	3975
1112.135	3950
1114.456	3998
1116.776	4092
1119.096	4097
1121.415	3966
1123.734	4107
1126.052	3981
1128.369	4031
1130.686	3978
1133.002	4034
1135.318	4045
1137.632	3970
1139.945	4016
1142.258	3990
1144.573	4015
1146.884	4010
1149.196	4091
1151.505	3978
1153.816	4032
1156.124	4000
1158.435	4055
1160.742	4167
1163.051	3986
1165.356	4039
1167.663	4026
1169.97	4028
1172.276	4086
1174.579	3958
1176.881	4022
1179.186	4070
1181.487	4066
1183.79	4024
1186.092	4075
1188.392	4010
1190.691	4074
1192.991	4014
1195.291	4077
1197.588	4060
1199.885	4076
1202.181	4023
1204.479	3971
1206.775	4087
1209.07	4053
1211.363	4016
1213.656	4029
1215.949	4195
1218.241	4156
1220.534	4010
1222.825	4051
1225.115	4142
1227.405	4084
1229.693	4167
1231.984	4113
1234.271	4158
1236.558	4196
1238.845	4174
1241.131	4187
1243.416	4192
1245.703	4121
1247.987	4211
1250.269	4138
1252.552	4141
1254.834	4152
1257.118	4179
1259.399	4152
1261.678	4115
1263.958	4178
1266.237	4137
1268.516	4187
1270.794	4211
1273.072	4232
1275.347	4192
1277.624	4093
1279.899	4113
1282.175	4230
1284.449	4247
1286.722	4179
1288.995	4204
1291.266	4121
1293.54	4037
1295.81	4170
1298.081	4100
1300.35	4217
1302.62	4203
1304.889	4199
1307.156	4073
1309.425	4167
1311.69	4145
1313.957	4114
1316.222	4205
1318.488	4178
1320.751	4172
1323.016	4135
1325.278	4251
1327.54	4114
1329.803	4191
1332.065	4183
1334.325	4166
1336.584	4234
1338.843	4111
1341.101	4132
1343.36	4235
1345.617	4272
1347.876	4199
1350.131	4193
1352.387	4115
1354.643	4184
1356.897	4183
1359.151	4184
1361.403	4149
1363.656	4075
1365.909	4186
1368.16	4229
1370.409	4177
1372.659	4220
1374.909	4232
1377.157	4192
1379.407	4341
1381.655	4180
1383.9	4209
1386.147	4177
1388.393	4258
1390.64	4251
1392.885	4194
1395.127	4285
1397.37	4319
1399.614	4267
1401.854	4283
1404.098	4321
1406.339	4291
1408.578	4260
1410.818	4271
1413.056	4228
1415.297	4325
1417.533	4206
1419.771	4241
1422.006	4398
1424.243	4203
1426.479	4248
1428.715	4306
1430.948	4251
1433.182	4307
1435.414	4417
1437.647	4340
1439.88	4332
1442.11	4332
1444.342	4365
1446.571	4365
1448.799	4364
1451.029	4408
1453.258	4386
1455.485	4427
1457.711	4335
1459.937	4395
1462.164	4299
1464.39	4406
1466.614	4409
1468.838	4281
1471.06	4394
1473.283	4361
1475.506	4331
1477.727	4257
1479.949	4250
1482.169	4221
1484.389	4309
1486.609	4316
1488.828	4256
1491.045	4286
1493.261	4229
1495.477	4274
1497.693	4313
1499.91	4291
1502.125	4228
1504.339	4207
1506.553	4219
1508.766	4250
1510.979	4191
1513.191	4215
1515.402	4202
1517.613	4278
1519.823	4167
1522.033	4280
1524.242	4190
1526.451	4322
1528.657	4179
1530.865	4139
1533.072	4204
1535.278	4181
1537.484	4257
1539.687	4334
1541.892	4243
1544.096	4347
1546.299	4340
1548.502	4254
1550.703	4264
1552.905	4297
1555.104	4263
1557.303	4283
1559.505	4378
1561.703	4190
1563.902	4286
1566.099	4374
1568.295	4334
1570.494	4337
1572.689	4320
1574.883	4316
1577.079	4328
1579.272	4356
1581.467	4417
1583.659	4331
1585.853	4367
1588.044	4476
1590.234	4399
1592.424	4371
1594.615	4439
1596.806	4328
1598.994	4398
1601.182	4378
1603.369	4447
1605.557	4403
1607.744	4452
1609.929	4383
1612.114	4348
1614.298	4375
1616.482	4364
1618.667	4370
1620.85	4460
1623.032	4401
1625.214	4432
1627.395	4439
1629.575	4466
1631.755	4438
1633.935	4411
1636.114	4354
1638.292	4435
1640.471	4440
1642.647	4402
1644.823	4444
1647	4455
1649.175	4490
1651.348	4393
1653.525	4445
1655.698	4555
1657.87	4493
1660.043	4411
1662.213	4592
1664.387	4536
1666.558	4552
1668.727	4482
1670.896	4582
1673.064	4483
1675.233	4555
1677.401	4473
1679.569	4498
1681.735	4533
1683.902	4516
1686.066	4416
1688.233	4527
1690.397	4463
1692.559	4495
1694.723	4468
1696.885	4435
1699.048	4515
1701.21	4473
1703.37	4419
1705.53	4477
1707.689	4456
1709.849	4434
1712.009	4532
1714.166	4309
1716.323	4495
1718.479	4437
1720.634	4466
1722.793	4421
1724.948	4440
1727.102	4429
1729.255	4486
1731.408	4386
1733.562	4478
1735.714	4448
1737.865	4539
1740.016	4446
1742.166	4414
1744.316	4390
1746.467	4478
1748.616	4467
1750.764	4416
1752.911	4519
1755.056	4509
1757.205	4489
1759.35	4401
1761.496	4423
1763.641	4451
1765.785	4448
1767.927	4456
1770.072	4514
1772.214	4452
1774.355	4585
1776.496	4541
1778.637	4422
1780.778	4456
1782.918	4456
1785.057	4514
1787.194	4462
1789.333	4602
1791.472	4454
1793.608	4546
1795.745	4465
1797.879	4433
1800.015	4589
1802.148	4473
1804.284	4578
1806.417	4552
1808.548	4609
1810.682	4501
1812.812	4534
1814.946	4517
1817.075	4476
1819.205	4530
1821.335	4497
1823.463	4550
1825.59	4451
1827.721	4453
1829.847	4489
1831.973	4417
1834.098	4580
1836.223	4503
1838.351	4584
1840.475	4448
1842.598	4535
1844.721	4609
1846.843	4485
1848.966	4442
1851.087	4470
1853.21	4481
1855.33	4479
1857.449	4447
1859.568	4493
1861.688	4542
1863.806	4546
1865.924	4494
1868.039	4527
1870.155	4439
1872.273	4543
1874.388	4506
1876.503	4445
1878.617	4467
1880.73	4517
1882.844	4487
1884.956	4573
1887.068	4549
1889.18	4543
1891.291	4475
1893.4	4358
1895.511	4513
1897.621	4591
1899.73	4503
1901.837	4484
1903.944	4601
1906.053	4473
1908.159	4622
1910.265	4563
1912.369	4558
1914.474	4548
1916.577	4601
1918.683	4488
1920.785	4591
1922.888	4581
1924.989	4558
1927.091	4670
1929.193	4591
1931.294	4600
1933.393	4617
1935.493	4598
1937.59	4597
1939.689	4621
1941.788	4677
1943.884	4584
1945.98	4588
1948.077	4627
1950.171	4565
1952.267	4617
1954.361	4583
1956.455	4552
1958.548	4582
1960.64	4581
1962.733	4704
1964.824	4548
1966.915	4557
1969.005	4591
1971.096	4567
1973.185	4679
1975.275	4509
1977.363	4600
1979.45	4572
1981.537	4637
1983.623	4628
1985.711	4573
1987.796	4615
1989.881	4533
1991.965	4551
1994.047	4576
1996.132	4590
1998.215	4656
2000.297	4637
2002.378	4533
2004.46	4560
2006.54	4527
2008.62	4535
2010.7	4537
2012.779	4621
2014.858	4603
2016.934	4599
2019.013	4608
2021.09	4526
2023.165	4592
2025.241	4573
2027.317	4618
2029.39	4633
2031.466	4550
2033.538	4639
2035.612	4443
2037.683	4623
2039.755	4635
2041.827	4619
2043.898	4620
2045.968	4581
2048.038	4566
2050.106	4572
2052.177	4556
2054.244	4578
2056.313	4649
2058.379	4595
2060.444	4730
2062.511	4677
2064.577	4487
2066.641	4634
2068.705	4508
2070.77	4567
2072.832	4674
2074.896	4676
2076.958	4612
2079.02	4682
2081.081	4683
2083.141	4703
2085.2	4686
2087.261	4715
2089.319	4692
2091.377	4510
2093.435	4555
2095.492	4625
2097.552	4609
2099.607	4622
2101.663	4704
2103.718	4668
2105.771	4639
2107.826	4655
2109.879	4628
2111.932	4792
2113.985	4705
2116.037	4683
2118.088	4693
2120.141	4625
2122.191	4585
2124.239	4615
2126.288	4627
2128.337	4639
2130.387	4674
2132.434	4633
2134.481	4675
2136.528	4700
2138.574	4577
2140.618	4616
2142.665	4690
2144.71	4631
2146.753	4655
2148.797	4598
2150.838	4601
2152.883	4637
2154.923	4655
2156.965	4624
2159.007	4688
2161.046	4613
2163.086	4573
2165.126	4580
2167.163	4635
2169.202	4616
2171.239	4645
2173.277	4589
2175.314	4597
2177.349	4664
2179.385	4511
2181.42	4575
2183.453	4492
2185.49	4526
2187.522	4703
2189.555	4596
2191.586	4572
2193.619	4539
2195.651	4591
2197.682	4512
2199.711	4561
2201.74	4577
2203.769	4606
2205.799	4562
2207.828	4587
2209.855	4580
2211.882	4520
2213.908	4530
2215.934	4521
2217.961	4535
2219.986	4515
2222.01	4606
2224.034	4552
2226.057	4566
2228.08	4585
2230.104	4586
2232.124	4598
2234.145	4585
2236.166	4545
2238.186	4614
2240.207	4564
2242.227	4547
2244.244	4487
2246.262	4667
2248.28	4496
2250.299	4628
2252.314	4668
2254.33	4667
2256.346	4579
2258.36	4552
2260.375	4597
2262.391	4435
2264.403	4591
2266.416	4580
2268.427	4566
2270.44	4615
2272.453	4574
2274.463	4632
2276.474	4576
2278.483	4530
2280.493	4524
2282.501	4554
2284.51	4706
2286.518	4583
2288.524	4593
2290.532	4646
2292.537	4511
2294.544	4614
2296.55	4557
2298.554	4653
2300.557	4599
2302.562	4619
2304.566	4619
2306.568	4555
2308.569	4532
2310.572	4660
2312.573	4526
2314.573	4554
2316.574	4553
2318.573	4460
2320.571	4620
2322.571	4541
2324.569	4516
2326.567	4512
2328.564	4608
2330.56	4635
2332.556	4537
2334.551	4610
2336.546	4520
2338.542	4563
2340.535	4607
2342.529	4469
2344.521	4506
2346.512	4614
2348.505	4501
2350.497	4542
2352.487	4542
2354.478	4508
2356.468	4535
2358.457	4524
2360.446	4456
2362.434	4480
2364.422	4558
2366.408	4613
2368.395	4542
2370.383	4570
2372.369	4572
2374.353	4583
2376.338	4503
2378.321	4529
2380.307	4498
2382.29	4560
2384.272	4404
2386.254	4505
2388.235	4533
2390.218	4585
2392.198	4507
2394.179	4462
2396.157	4501
2398.137	4547
2400.115	4400
2402.095	4445
2404.072	4515
2406.048	4507
2408.026	4474
2410.001	4568
2411.977	4518
2413.953	4484
2415.927	4364
2417.9	4486
2419.875	4533
2421.847	4527
2423.821	4554
2425.792	4530
2427.763	4536
2429.736	4528
2431.706	4511
2433.677	4412
2435.646	4513
2437.615	4474
2439.583	4453
2441.551	4518
2443.519	4509
2445.486	4500
2447.452	4531
2449.418	4522
2451.383	4459
2453.348	4403
2455.314	4513
2457.278	4480
2459.241	4438
2461.205	4423
2463.167	4494
2465.131	4440
2467.091	4531
2469.052	4515
2471.012	4368
2472.972	4532
2474.932	4482
2476.891	4390
2478.85	4447
2480.808	4529
2482.766	4578
2484.722	4469
2486.68	4536
2488.636	4450
2490.591	4474
2492.546	4442
2494.5	4501
2496.456	4484
2498.41	4439
2500.362	4491
2502.315	4477
2504.266	4423
2506.218	4460
2508.169	4498
2510.121	4411
2512.07	4532
2514.019	4371
2515.968	4543
2517.918	4502
2519.866	4429
2521.813	4426
2523.76	4397
2525.707	4496
2527.653	4463
2529.599	4504
2531.543	4474
2533.489	4563
2535.433	4407
2537.376	4494
2539.32	4465
2541.264	4463
2543.205	4408
2545.147	4503
2547.087	4445
2549.029	4365
2550.969	4606
2552.908	4419
2554.847	4485
2556.786	4523
2558.724	4477
2560.663	4473
2562.6	4512
2564.537	4508
2566.473	4460
2568.408	4478
2570.345	4440
2572.28	4496
2574.214	4449
2576.148	4495
2578.081	4471
2580.014	4428
2581.947	4467
2583.879	4592
2585.81	4531
2587.741	4378
2589.67	4417
2591.602	4575
2593.532	4446
2595.461	4504
2597.388	4454
2599.316	4444
2601.244	4475
2603.172	4488
2605.098	4455
2607.023	4490
2608.949	4473
2610.873	4404
2612.8	4453
2614.723	4530
2616.647	4450
2618.569	4465
2620.493	4456
2622.416	4550
2624.338	4555
2626.258	4486
2628.179	4611
2630.099	4473
2632.019	4610
2633.939	4435
2635.857	4532
2637.775	4441
2639.694	4410
2641.61	4579
2643.528	4533
2645.444	4532
2647.361	4519
2649.276	4545
2651.19	4534
2653.105	4577
2655.019	4536
2656.934	4574
2658.846	4541
2660.758	4414
2662.67	4470
2664.583	4672
2666.493	4472
2668.404	4492
2670.313	4447
2672.223	4528
2674.134	4510
2676.042	4497
2677.95	4450
2679.858	4573
2681.765	4487
2683.673	4408
2685.579	4519
2687.483	4471
2689.389	4458
2691.294	4526
2693.198	4549
2695.104	4429
2697.006	4470
2698.909	4519
2700.811	4383
2702.713	4402
2704.615	4481
2706.516	4444
2708.417	4394
2710.316	4428
2712.216	4525
2714.115	4488
2716.014	4464
2717.913	4448
2719.81	4486
2721.707	4460
2723.603	4428
2725.501	4521
2727.396	4442
2729.292	4528
2731.186	4454
2733.081	4438
2734.976	4419
2736.87	4423
2738.762	4396
2740.653	4503
2742.546	4458
2744.437	4421
2746.329	4456
2748.22	4474
2750.11	4510
2751.999	4513
2753.889	4423
2755.778	4450
2757.666	4438
2759.553	4454
2761.44	4436
2763.328	4447
2765.215	4429
2767.101	4430
2768.986	4403
2770.87	4430
2772.754	4390
2774.638	4436
2776.523	4372
2778.405	4344
2780.288	4488
2782.17	4452
2784.051	4397
2785.934	4502
2787.814	4474
2789.694	4338
2791.574	4409
2793.453	4311
2795.332	4410
2797.212	4428
2799.088	4383
2800.966	4380
2802.843	4417
2804.719	4323
2806.597	4480
2808.471	4439
2810.346	4504
2812.221	4449
2814.094	4430
2815.969	4361
2817.843	4374
2819.714	4412
2821.587	4388
2823.459	4428
2825.329	4404
2827.202	4442
2829.072	4490
2830.942	4329
2832.811	4518
2834.68	4443
2836.549	4421
2838.418	4426
2840.284	4454
2842.152	4483
2844.018	4385
2845.885	4451
2847.751	4333
2849.616	4441
2851.482	4459
2853.345	4455
2855.208	4453
2857.074	4508
2858.937	4492
2860.799	4540
2862.66	4451
2864.522	4544
2866.385	4515
2868.245	4529
2870.104	4491
2871.964	4580
2873.824	4569
2875.683	4587
2877.542	4611
2879.4	4655
2881.257	4584
2883.114	4721
2884.97	4715
2886.827	4634
2888.683	4734
2890.537	4746
2892.392	4635
2894.246	4709
2896.1	4733
2897.954	4719
2899.807	4721
2901.66	4678
2903.51	4745
2905.362	4698
2907.214	4725
2909.065	4664
2910.915	4682
2912.765	4747
2914.613	4700
2916.463	4762
2918.311	4899
2920.158	4721
2922.006	4818
2923.853	4882
2925.698	4898
2927.546	4880
2929.392	4870
2931.236	4950
2933.081	4937
2934.924	4958
2936.77	4928
2938.613	5010
2940.455	5008
2942.298	5040
2944.139	5076
2945.982	5181
2947.823	5014
2949.662	5088
2951.503	5040
2953.342	5005
2955.182	4956
2957.021	4953
2958.858	4969
2960.697	4905
2962.534	4899
2964.37	4852
2966.207	4804
2968.044	4744
2969.879	4793
2971.714	4776
2973.548	4728
2975.383	4730
2977.218	4671
2979.051	4696
2980.883	4574
2982.715	4784
2984.547	4720
2986.379	4694
2988.21	4612
2990.04	4624
2991.87	4642
2993.7	4523
2995.53	4629
2997.359	4601
2999.187	4585
3001.015	4584
3002.842	4493
3004.669	4453
3006.497	4459
3008.323	4398
3010.148	4471
3011.974	4448
3013.797	4373
3015.623	4393
3017.447	4353
3019.27	4387
3021.094	4381
3022.915	4384
3024.737	4372
3026.56	4326
3028.38	4283
3030.201	4369
3032.022	4385
3033.84	4271
3035.662	4292
3037.481	4310
3039.298	4311
3041.117	4273
3042.933	4319
3044.752	4316
3046.568	4309
3048.385	4402
3050.2	4338
3052.016	4276
3053.83	4228
3055.646	4238
3057.46	4349
3059.272	4313
3061.086	4239
3062.898	4360
3064.711	4330
3066.524	4288
3068.335	4327
3070.145	4223
3071.956	4254
3073.766	4198
3075.576	4259
3077.385	4285
3079.193	4306
3081.002	4334
3082.81	4180
3084.618	4255
3086.425	4227
3088.231	4276
3090.036	4138
3091.842	4187
3093.648	4214
3095.452	4225
3097.257	4162
3099.06	4180
3100.863	4259
3102.666	4179
3104.47	4241
3106.272	4155
3108.073	4229
3109.875	4106
3111.676	4237
3113.477	4176
3115.277	4199
3117.077	4102
3118.874	4153
3120.673	4157
3122.473	4154
3124.271	4106
3126.066	4235
3127.863	4152
3129.66	4150
3131.456	4147
3133.252	4089
3135.047	4180
3136.842	4094
3138.635	4126
3140.429	4061
3142.223	4119
3144.016	4113
3145.808	4184
3147.6	4154
3149.392	4096
3151.183	4036
3152.975	4195
3154.765	4101
3156.553	4155
3158.344	4012
3160.132	4125
3161.922	4126
3163.71	4099
3165.497	3965
3167.285	4064
3169.071	4178
3170.858	4108
3172.645	4075
3174.429	4116
3176.214	4091
3177.998	4101
3179.783	4126
3181.568	4094
3183.351	4073
3185.133	3985
3186.915	4107
3188.698	4101
3190.481	4042
3192.261	4128
3194.042	4114
3195.822	4122
3197.601	3994
3199.381	4101
3201.161	4123
3202.939	4059
3204.717	3977
3206.495	3981
3208.272	4025
3210.05	4002
3211.826	4124
3213.602	4058
3215.376	4085
3217.151	4038
3218.927	4025
3220.702	3998
3222.476	4152
3224.249	4030
3226.021	4056
3227.793	4109
3229.567	3991
3231.339	3965
3233.109	4007
3234.88	3938
3236.651	4037
3238.421	4054
3240.191	4036
3241.96	4006
3243.728	4056
3245.497	4010
3247.263	4026
3249.033	3999
3250.799	3924
3252.566	4054
3254.331	4051
3256.097	4120
3257.863	4015
3259.628	3992
3261.392	4099
3263.156	4085
3264.919	3983
3266.683	4001
3268.447	4010
3270.208	4083
3271.969	3959
3273.731	3993
3275.492	4039
3277.253	4013
3279.013	4062
3280.773	3953
3282.532	4078
3284.291	4102
3286.05	3971
3287.808	3991
3289.566	3993
3291.323	4062
3293.079	4058
3294.835	4056
3296.593	4116
3298.348	4061
3300.102	3975
3301.857	4098
3303.611	4050
3305.366	4107
3307.119	4061
3308.872	4067
3310.624	4097
3312.376	4075
3314.129	4026
3315.881	4078
3317.631	3994
3319.38	4009
3321.13	4064
3322.88	4075
3324.631	4027
3326.379	4025
3328.126	4058
3329.875	4067
3331.622	3989
3333.371	4026
3335.116	4059
3336.863	3867
3338.609	3972
3340.353	4074
3342.1	3957
3343.845	4069
3345.588	4008
3347.332	3954
3349.074	4014
3350.817	3944
3352.56	3999
3354.303	3932
3356.043	3961
3357.785	4030
3359.525	3992
3361.268	3961
3363.007	3960
3364.745	3862
3366.485	3990
3368.223	4041
3369.962	3993
3371.701	3966
3373.438	4011
3375.174	3893
3376.911	3945
3378.647	4036
3380.384	3944
3382.118	4024
3383.854	3908
3385.588	3917
3387.322	4023
3389.057	3870
3390.79	3850
3392.522	3877
3394.255	3983
3395.987	4000
3397.719	3927
3399.451	4029
3401.181	3920
3402.911	3934
3404.641	3840
3406.371	3901
3408.101	4006
3409.83	3889
3411.558	3868
3413.285	3893
3415.011	3953
3416.739	4001
3418.467	3833
3420.193	3956
3421.919	3913
3423.644	3913
3425.368	3916
3427.094	3926
3428.818	3942
3430.542	3882
3432.264	3831
3433.987	3897
3435.712	3858
3437.434	3896
3439.155	3901
3440.876	3876
3442.596	3802
3444.317	3899
3446.039	3817
3447.757	3779
3449.477	3864
3451.195	3898
3452.914	3875
3454.632	3903
3456.35	3788
3458.067	3867
3459.784	3763
3461.5	3759
3463.216	3905
3464.932	3761
3466.647	3826
3468.362	3797
3470.076	3873
3471.789	3805
3473.505	3824
3475.217	3703
3476.929	3833
3478.641	3736
3480.354	3789
3482.066	3735
3483.777	3830
3485.487	3743
3487.197	3685
3488.908	3771
3490.617	3746
3492.327	3728
3494.035	3731
3495.743	3726
3497.451	3722
3499.158	3716
3500.866	3732
3502.572	3736
3504.278	3728
3505.984	3741
3507.689	3663
3509.396	3785
3511.1	3691
3512.804	3647
3514.508	3770
3516.211	3702
3517.913	3737
3519.616	3777
3521.319	3642
3523.021	3753
3524.722	3694
3526.422	3637
3528.124	3776
3529.824	3740
3531.524	3660
3533.222	3769
3534.921	3710
3536.62	3725
3538.318	3760
3540.016	3639
3541.714	3668
3543.41	3694
3545.107	3649
3546.803	3726
3548.5	3689
3550.194	3631
3551.889	3673
3553.583	3718
3555.279	3636
3556.972	3680
3558.666	3616
3560.358	3603
3562.051	3707
3563.742	3640
3565.435	3565
3567.126	3609
3568.817	3602
3570.507	3640
3572.197	3638
3573.888	3676
3575.577	3587
3577.265	3604
3578.954	3570
3580.642	3653
3582.329	3585
3584.017	3599
3585.704	3562
3587.391	3613
3589.077	3577
3590.762	3670
3592.449	3636
3594.133	3606
3595.817	3570
3597.501	3621
3599.185	3619
3600.869	3469
3602.552	3562
3604.234	3568
3605.916	3544
3607.598	3619
3609.279	3557
3610.961	3486
3612.642	3566
3614.321	3482
3616	3528
3617.68	3459
3619.36	3619
3621.039	3498
3622.716	3512
3624.394	3495
3626.071	3494
3627.748	3441
3629.425	3486
3631.102	3599
3632.778	3544
3634.452	3477
3636.127	3443
3637.803	3481
3639.477	3402
3641.151	3507
3642.823	3376
3644.497	3494
3646.171	3511
3647.842	3486
3649.515	3531
3651.185	3477
3652.857	3455
3654.527	3550
3656.198	3515
3657.868	3457
3659.537	3426
3661.207	3419
3662.875	3448
3664.544	3493
3666.212	3422
3667.879	3298
3669.546	3437
3671.212	3445
3672.88	3479
3674.546	3298
3676.211	3458
3677.875	3350
3679.541	3455
3681.205	3491
3682.87	3459
3684.533	3445
3686.196	3382
3687.859	3373
3689.521	3359
3691.184	3387
3692.845	3401
3694.507	3503
3696.167	3427
3697.827	3461
3699.487	3428
3701.148	3432
3702.808	3438
3704.466	3377
3706.125	3324
3707.783	3383
3709.442	3374
3711.099	3310
3712.757	3405
3714.412	3329
3716.068	3402
3717.725	3367
3719.381	3424
3721.036	3395
3722.689	3357
3724.344	3313
3725.998	3378
3727.652	3336
3729.305	3410
3730.958	3415
3732.61	3363
3734.262	3338
3735.915	3304
3737.565	3329
3739.217	3308
3740.866	3363
3742.516	3372
3744.165	3312
3745.816	3422
3747.464	3387
3749.113	3291
3750.761	3297
3752.409	3357
3754.057	3295
3755.703	3283
3757.35	3295
3758.996	3390
3760.641	3281
3762.289	3331
3763.933	3351
3765.577	3294
3767.222	3367
3768.865	3285
3770.508	3335
3772.152	3298
3773.796	3326
3775.438	3308
3777.079	3299
3778.721	3248
3780.363	3371
3782.003	3272
3783.643	3267
3785.283	3298
3786.923	3284
3788.563	3215
3790.203	3289
3791.841	3274
3793.479	3268
3795.115	3246
3796.753	3205
3798.391	3289
3800.027	3263
3801.664	3263
3803.299	3239
3804.935	3289
3806.571	3288
3808.206	3280
3809.839	3276
3811.473	3297
3813.107	3161
3814.74	3219
3816.375	3228
3818.006	3169
3819.638	3277
3821.27	3275
3822.9	3208
3824.532	3255
3826.163	3249
3827.792	3197
3829.423	3237
3831.051	3164
3832.682	3212
3834.311	3151
3835.938	3209
3837.566	3249
3839.193	3265
3840.821	3246
3842.448	3198
3844.075	3250
3845.7	3181
3847.325	3273
3848.951	3143
3850.576	3184
3852.201	3101
3853.825	3160
3855.448	3194
3857.072	3223
3858.694	3248
3860.318	3120
3861.939	3222
3863.562	3197
3865.183	3172
3866.804	3207
3868.426	3171
3870.045	3134
3871.666	3105
3873.285	3223
3874.904	3215
3876.524	3161
3878.142	3163
3879.76	3170
3881.378	3099
3882.995	3097
3884.612	3175
3886.229	3086
3887.845	3108
3889.461	3147
3891.076	3178
3892.691	3227
3894.307	3192
3895.922	3126
3897.536	3183
3899.149	3173
3900.761	3136
3902.374	3102
3903.988	3076
3905.6	3140
3907.212	3188
3908.822	3068
3910.433	3163
3912.045	3185
3913.655	3102
3915.265	3160
3916.875	3173
3918.483	3155
3920.093	3115
3921.702	3128
3923.309	3058
3924.917	3171
3926.523	3125
3928.13	3163
3929.739	3134
3931.344	3092
3932.95	3108
3934.555	3085
3936.159	3132
3937.766	3166
3939.369	3133
3940.974	3078
3942.577	3081
3944.181	3083
3945.783	3094
3947.386	3117
3948.989	3098
3950.59	3078
3952.191	3083
3953.791	3082
3955.394	3056
3956.994	3047
3958.593	2982
3960.192	3069
3961.791	3040
3963.392	3112
3964.99	2992
3966.588	3095
3968.185	3056
3969.782	3059
3971.379	3083
3972.976	3038
3974.572	3056
3976.168	3103
3977.763	3101
3979.358	3050
3980.954	3028
3982.548	3085
3984.142	3020
3985.736	3092
3987.329	3075
3988.922	3041
3990.516	3013
3992.108	2980
3993.698	2992
3995.29	2927
3996.881	3054
3998.473	2975
4000.064	3065
4001.653	2960
4003.242	2992
4004.832	2997
4006.422	3002
4008.01	2986
4009.598	3016
4011.186	3028
4012.773	2941
4014.36	3082
4015.947	2951
4017.534	3013
4019.119	2973
4020.705	2904
4022.291	2975
4023.876	2917
4025.461	2902
4027.044	2938
4028.627	2917
4030.211	2882
4031.795	2914
4033.378	2887
4034.96	2904
4036.542	2869
4038.124	2940
4039.704	2949
4041.286	2931
4042.867	2897
4044.447	2956
4046.026	2933
4047.606	2994
4049.187	2950
4050.765	2910
4052.343	2942
4053.92	2851
4055.498	2898
4057.076	2991
4058.654	2923
4060.23	2847
4061.806	2885
4063.381	2857
4064.957	2930
4066.533	2891
4068.107	2950
4069.682	2917
4071.256	2834
4072.829	2826
4074.404	2892
4075.977	2883
4077.549	2869
4079.121	2845
4080.693	2913
4082.265	2853
4083.836	2860
4085.407	2865
4086.977	2859
4088.547	2915
4090.117	2879
4091.687	2910
4093.256	2834
4094.825	2824
4096.392	2866
4097.96	2846
4099.528	2853
4101.097	2906
4102.663	2837
4104.229	2903
4105.795	2854
4107.361	2741
4108.928	2863
4110.493	2848
4112.058	2859
4113.621	2756
4115.186	2894
4116.75	2810
4118.313	2772
4119.876	2778
4121.438	2788
4123	2862
4124.562	2800
4126.125	2770
4127.686	2820
4129.246	2767
4130.807	2753
4132.367	2856
4133.927	2871
4135.486	2844
4137.046	2775
4138.604	2810
4140.162	2782
4141.72	2807
4143.279	2727
4144.836	2747
4146.393	2780
4147.949	2777
4149.505	2729
4151.062	2752
4152.617	2753
4154.172	2703
4155.727	2763
4157.281	2816
4158.836	2764
4160.39	2762
4161.943	2752
4163.496	2671
4165.048	2728
4166.601	2750
4168.154	2729
4169.706	2764
4171.257	2747
4172.808	2777
4174.358	2705
4175.909	2711
4177.458	2734
4179.008	2721
4180.558	2765
4182.106	2727
4183.655	2714
4185.204	2706
4186.751	2728
4188.298	2715
4189.845	2693
4191.392	2710
4192.939	2685
4194.485	2737
4196.031	2653
4197.576	2752
4199.121	2609
4200.666	2687
4202.211	2641
4203.754	2695
4205.298	2655
4206.84	2636
4208.384	2656
4209.927	2668
4211.47	2686
4213.011	2671
4214.552	2730
4216.094	2683
4217.635	2653
4219.175	2639
4220.716	2634
4222.255	2733
4223.793	2671
4225.335	2690
4226.873	2604
4228.411	2615
4229.948	2696
4231.486	2647
4233.024	2711
4234.562	2700
4236.098	2683
4237.634	2679
4239.169	2613
4240.705	2653
4242.241	2645
4243.776	2677
4245.31	2737
4246.844	2633
4248.378	2622
4249.911	2598
4251.445	2647
4252.978	2701
4254.51	2611
4256.042	2667
4257.574	2587
4259.107	2702
4260.638	2647
4262.169	2614
4263.699	2651
4265.228	2642
4266.759	2628
4268.289	2583
4269.818	2608
4271.345	2596
4272.874	2597
4274.402	2644
4275.931	2609
4277.458	2577
4278.985	2557
4280.512	2669
4282.037	2547
4283.564	2568
4285.089	2608
4286.615	2642
4288.139	2649
4289.664	2578
4291.187	2528
4292.712	2603
4294.235	2601
4295.759	2590
4297.281	2628
4298.804	2551
4300.327	2595
4301.849	2552
4303.37	2521
4304.891	2589
4306.412	2521
4307.933	2600
4309.453	2523
4310.973	2540
4312.492	2566
