398.1873	7716
400.7097	7803
403.2336	7834
405.7547	7838
408.2751	7987
410.7948	8034
413.3138	7883
415.83	8000
418.3497	8024
420.8666	8173
423.3829	8205
425.8985	8288
428.4133	8253
430.9275	8330
433.441	8323
435.9538	8310
438.4639	8395
440.9753	8306
443.4881	8323
445.9982	8382
448.5055	8457
451.0142	8510
453.5201	8410
456.0274	8384
458.5361	8545
461.04	8562
463.5453	8437
466.0478	8367
468.5517	8459
471.0549	8478
473.5574	8514
476.0572	8579
478.5584	8584
481.0568	8491
483.5545	8680
486.0557	8502
488.5521	8492
491.0478	8792
493.5449	8760
496.0392	8750
498.5349	8650
501.0299	8704
503.5222	8824
506.0139	8694
508.5048	8924
510.9991	8836
513.4887	8882
515.9777	8825
518.4659	8729
520.9534	8817
523.4403	8901
525.9306	8821
528.4161	8717
530.9009	8848
533.3851	8941
535.8687	8815
538.3535	8945
540.8356	8993
543.3171	8928
545.7979	8892
548.278	8797
550.7595	8795
553.2383	8999
555.7144	8917
558.1918	8855
560.6685	8995
563.1446	8926
565.6221	9011
568.0968	8961
570.5688	8949
573.0422	9143
575.515	9131
577.989	9275
580.4584	9165
582.9291	9202
585.3991	9229
587.8685	9172
590.3352	9278
592.8052	9193
595.2706	9063
597.7372	9170
600.2033	9114
602.6666	9199
605.1334	9114
607.5953	9148
610.0587	9342
612.5193	9105
614.9814	9146
617.4427	9114
619.9034	9187
622.3615	9130
624.8208	9009
627.2775	9191
629.7335	9098
632.1929	8995
634.6476	9124
637.1016	9291
639.5569	9296
642.0096	9223
644.4637	9236
646.9151	9157
649.3678	9151
651.8179	9275
654.2672	9442
656.7159	9378
659.166	9403
661.6154	9479
664.0622	9269
666.5082	9362
668.9537	9328
671.4005	9333
673.8445	9380
676.288	9496
678.7308	9376
681.1729	9515
683.6163	9477
686.0572	9477
688.4973	9590
690.9368	9385
693.3757	9585
695.8138	9565
698.2534	9584
700.6902	9461
703.1245	9751
705.56	9628
707.9949	9556
710.4311	9768
712.8647	9587
715.2957	9587
717.7279	9687
720.1595	9688
722.5905	9710
725.0208	9676
727.4505	9818
729.8795	9843
732.3058	9828
734.7336	9895
737.1626	9894
739.587	10038
742.0128	9966
744.4359	9904
746.8604	10001
749.2841	10027
751.7073	10093
754.1278	10199
756.5496	10227
758.9688	10073
761.3893	10163
763.8093	10226
766.2285	10292
768.6451	10045
771.0611	10315
773.4784	10193
775.895	10158
778.3091	10274
780.7244	10273
783.1371	10137
785.5493	10262
787.9626	10258
790.3754	10183
792.7856	10176
795.1951	10239
797.6039	10143
800.0121	10327
802.4236	10198
804.8306	10432
807.2369	10239
809.6425	10298
812.0475	10176
814.4538	10340
816.8575	10276
819.2606	10317
821.663	10349
824.0648	10292
826.4659	10334
828.8683	10259
831.2682	10464
833.6674	10482
836.066	10296
838.4639	10516
840.8632	10323
843.2579	10375
845.6539	10462
848.0493	10492
850.444	10521
852.84	10532
855.2315	10532
857.6243	10481
860.0165	10416
862.4081	10423
864.797	10402
867.1892	10448
869.5789	10412
871.9659	10493
874.3542	10401
876.74	10585
879.129	10382
881.5155	10513
883.8994	10510
886.2845	10484
888.6671	10420
891.051	10488
893.4343	10560
895.8169	10478
898.197	10524
900.5783	10531
902.9571	10454
905.3372	10376
907.7167	10574
910.0936	10461
912.4698	10656
914.8474	10658
917.2244	10666
919.5987	10793
921.9744	10846
924.3475	10811
926.72	10887
929.0918	10700
931.4669	10928
933.8375	11072
936.2074	10824
938.5767	11073
940.9454	11137
943.3154	11184
945.6829	11404
948.0497	11508
950.4178	11655
952.7833	11914
955.1483	12361
957.5145	12439
959.8782	12495
962.2412	12632
964.6036	12353
966.9655	11943
969.3266	11666
971.6871	11491
974.0471	11363
976.4064	11082
978.765	10976
981.125	10984
983.4824	10890
985.8373	10717
988.1935	10926
990.549	10945
992.9039	10868
995.2602	10789
997.6119	10728
999.965	10876
1002.317	10990
1004.667	11032
1007.02	10937
1009.371	11005
1011.719	10903
1014.068	11007
1016.415	10946
1018.765	10908
1021.111	10891
1023.458	10926
1025.804	10925
1028.147	10894
1030.49	10938
1032.837	10958
1035.179	10977
1037.522	11041
1039.862	10895
1042.204	10955
1044.546	10984
1046.884	11079
1049.224	11191
1051.562	11145
1053.899	11245
1056.237	10974
1058.575	11116
1060.91	10972
1063.244	11290
1065.58	11172
1067.913	11323
1070.248	11314
1072.579	11349
1074.911	11213
1077.242	11197
1079.572	11297
1081.905	11350
1084.234	11111
1086.562	11002
1088.89	11131
1091.217	10929
1093.544	11157
1095.871	11012
1098.197	11175
1100.521	11105
1102.845	11178
1105.169	11064
1107.491	11113
1109.814	11094
1112.135	11270
1114.456	11181
1116.776	11086
1119.096	11151
1121.415	11177
1123.734	11222
1126.052	11207
1128.369	11102
1130.686	11270
1133.002	11226
1135.318	11274
1137.632	11124
1139.945	11319
1142.258	11235
1144.573	11352
1146.884	11202
1149.196	11239
1151.505	11248
1153.816	11267
1156.124	11254
1158.435	11267
1160.742	11253
1163.051	11284
1165.356	11218
1167.663	11240
1169.97	11149
1172.276	11147
1174.579	11210
1176.881	11410
1179.186	11193
1181.487	11199
1183.79	11190
1186.092	11269
1188.392	11183
1190.691	11232
1192.991	11183
1195.291	11136
1197.588	11351
1199.885	11345
1202.181	11247
1204.479	11328
1206.775	11183
1209.07	11158
1211.363	11257
1213.656	11071
1215.949	11327
1218.241	11316
1220.534	11308
1222.825	11305
1225.115	11269
1227.405	11361
1229.693	11268
1231.984	11427
1234.271	11565
1236.558	11430
1238.845	11449
1241.131	11601
1243.416	11609
1245.703	11524
1247.987	11453
1250.269	11400
1252.552	11622
1254.834	11594
1257.118	11589
1259.399	11607
1261.678	11579
1263.958	11579
1266.237	11538
1268.516	11546
1270.794	11622
1273.072	11500
1275.347	11654
1277.624	11555
1279.899	11375
1282.175	11395
1284.449	11524
1286.722	11378
1288.995	11584
1291.266	11427
1293.54	11457
1295.81	11487
1298.081	11513
1300.35	11475
1302.62	11378
1304.889	11689
1307.156	11379
1309.425	11596
1311.69	11364
1313.957	11513
1316.222	11561
1318.488	11502
1320.751	11560
1323.016	11370
1325.278	11413
1327.54	11533
1329.803	11453
1332.065	11434
1334.325	11525
1336.584	11520
1338.843	11491
1341.101	11437
1343.36	11482
1345.617	11483
1347.876	11488
1350.131	11610
1352.387	11442
1354.643	11646
1356.897	11551
1359.151	11378
1361.403	11397
1363.656	11358
1365.909	11530
1368.16	11540
1370.409	11505
1372.659	11597
1374.909	11618
1377.157	11417
1379.407	11479
1381.655	11490
1383.9	11457
1386.147	11657
1388.393	11608
1390.64	11606
1392.885	11666
1395.127	11617
1397.37	11647
1399.614	11693
1401.854	11550
1404.098	11598
1406.339	11684
1408.578	11622
1410.818	11505
1413.056	11723
1415.297	11801
1417.533	11736
1419.771	11805
1422.006	11688
1424.243	11860
1426.479	11794
1428.715	11796
1430.948	11752
1433.182	11882
1435.414	11841
1437.647	11799
1439.88	11954
1442.11	11904
1444.342	12022
1446.571	11908
1448.799	11987
1451.029	11901
1453.258	12146
1455.485	12031
1457.711	12028
1459.937	11870
1462.164	12021
1464.39	12014
1466.614	11941
1468.838	11865
1471.06	11778
1473.283	11850
1475.506	11750
1477.727	11760
1479.949	11614
1482.169	11782
1484.389	11626
1486.609	11716
1488.828	11487
1491.045	11581
1493.261	11557
1495.477	11788
1497.693	11446
1499.91	11534
1502.125	11498
1504.339	11724
1506.553	11581
1508.766	11492
1510.979	11766
1513.191	11668
1515.402	11510
1517.613	11591
1519.823	11496
1522.033	11593
1524.242	11738
1526.451	11561
1528.657	11624
1530.865	11532
1533.072	11675
1535.278	11640
1537.484	11673
1539.687	11592
1541.892	11556
1544.096	11614
1546.299	11759
1548.502	11760
1550.703	11760
1552.905	11819
1555.104	11809
1557.303	11766
1559.505	11791
1561.703	11772
1563.902	11670
1566.099	11811
1568.295	11784
1570.494	11850
1572.689	11832
1574.883	11818
1577.079	11799
1579.272	11789
1581.467	11810
1583.659	11949
1585.853	12068
1588.044	11948
1590.234	11862
1592.424	12039
1594.615	11846
1596.806	11929
1598.994	12023
1601.182	12033
1603.369	12171
1605.557	12013
1607.744	12138
1609.929	12012
1612.114	12121
1614.298	12100
1616.482	12088
1618.667	11933
1620.85	12067
1623.032	12132
1625.214	12085
1627.395	12034
1629.575	12147
1631.755	12089
1633.935	12074
1636.114	12137
1638.292	12047
1640.471	12076
1642.647	12117
1644.823	12112
1647	11881
1649.175	12080
1651.348	12143
1653.525	12113
1655.698	12150
1657.87	12150
1660.043	12123
1662.213	12117
1664.387	12146
1666.558	12298
1668.727	12162
1670.896	12112
1673.064	12087
1675.233	12063
1677.401	12159
1679.569	12041
1681.735	12218
1683.902	12258
1686.066	12081
1688.233	12163
1690.397	12069
1692.559	12183
1694.723	12219
1696.885	12192
1699.048	12129
1701.21	11943
1703.37	12002
1705.53	12123
1707.689	12018
1709.849	11875
1712.009	12052
1714.166	12079
1716.323	12088
1718.479	11967
1720.634	12073
1722.793	11874
1724.948	11981
1727.102	12064
1729.255	11839
1731.408	11908
1733.562	12145
1735.714	12066
1737.865	11997
1740.016	12212
1742.166	11934
1744.316	12108
1746.467	11984
1748.616	11982
1750.764	12054
1752.911	11985
1755.056	12154
1757.205	11825
1759.35	12118
1761.496	12132
1763.641	12103
1765.785	12036
1767.927	12163
1770.072	12190
1772.214	12100
1774.355	12261
1776.496	12209
1778.637	12082
1780.778	12220
1782.918	12240
1785.057	12031
1787.194	12109
1789.333	12366
1791.472	12259
1793.608	12348
1795.745	12075
1797.879	12139
1800.015	12218
1802.148	12105
1804.284	12243
1806.417	12197
1808.548	12252
1810.682	12080
1812.812	12179
1814.946	12176
1817.075	12082
1819.205	12244
1821.335	12089
1823.463	12129
1825.59	12073
1827.721	12070
1829.847	12080
1831.973	12039
1834.098	12250
1836.223	12103
1838.351	11978
1840.475	12122
1842.598	12056
1844.721	12111
1846.843	12157
1848.966	12134
1851.087	11986
1853.21	12023
1855.33	11971
1857.449	12123
1859.568	11969
1861.688	12151
1863.806	11872
1865.924	12063
1868.039	12139
1870.155	12025
1872.273	11986
1874.388	11989
1876.503	12032
1878.617	11954
1880.73	12235
1882.844	12077
1884.956	11963
1887.068	12042
1889.18	11954
1891.291	12081
1893.4	12010
1895.511	12244
1897.621	12085
1899.73	12181
1901.837	12171
1903.944	11989
1906.053	12004
1908.159	12157
1910.265	12163
1912.369	12266
1914.474	12111
1916.577	12233
1918.683	12255
1920.785	12275
1922.888	12298
1924.989	12183
1927.091	12272
1929.193	12147
1931.294	12122
1933.393	12278
1935.493	12354
1937.59	12296
1939.689	12268
1941.788	12357
1943.884	12300
1945.98	12327
1948.077	12323
1950.171	12365
1952.267	12264
1954.361	12314
1956.455	12363
1958.548	12306
1960.64	12449
1962.733	12311
1964.824	12353
1966.915	12293
1969.005	12189
1971.096	12199
1973.185	12099
1975.275	12294
1977.363	12299
1979.45	12132
1981.537	12196
1983.623	12156
1985.711	12129
1987.796	12227
1989.881	12084
1991.965	12189
1994.047	12150
1996.132	12176
1998.215	12001
2000.297	12078
2002.378	12260
2004.46	12157
2006.54	12017
2008.62	12101
2010.7	12070
2012.779	12147
2014.858	12213
2016.934	12294
2019.013	12053
2021.09	12307
2023.165	12002
2025.241	12088
2027.317	12137
2029.39	12100
2031.466	12096
2033.538	12056
2035.612	11913
2037.683	12079
2039.755	12198
2041.827	12145
2043.898	12117
2045.968	12002
2048.038	12208
2050.106	11938
2052.177	12181
2054.244	12100
2056.313	12215
2058.379	12218
2060.444	12241
2062.511	12209
2064.577	12081
2066.641	12150
2068.705	12003
2070.77	11965
2072.832	12031
2074.896	12180
2076.958	12035
2079.02	12116
2081.081	12230
2083.141	12240
2085.2	12230
2087.261	12131
2089.319	12025
2091.377	12037
2093.435	12309
2095.492	12171
2097.552	12138
2099.607	12159
2101.663	12071
2103.718	12105
2105.771	12133
2107.826	12119
2109.879	12196
2111.932	12241
2113.985	12242
2116.037	12207
2118.088	12096
2120.141	12136
2122.191	12038
2124.239	12296
2126.288	12319
2128.337	11998
2130.387	11996
2132.434	12220
2134.481	12074
2136.528	12085
2138.574	11900
2140.618	12186
2142.665	12112
2144.71	11997
2146.753	12207
2148.797	12012
2150.838	12086
2152.883	12077
2154.923	11980
2156.965	12036
2159.007	12054
2161.046	12120
2163.086	12043
2165.126	11987
2167.163	11987
2169.202	11885
2171.239	12016
2173.277	11864
2175.314	11885
2177.349	11856
2179.385	12043
2181.42	11892
2183.453	12178
2185.49	11742
2187.522	11754
2189.555	11922
2191.586	11918
2193.619	11848
2195.651	11936
2197.682	12040
2199.711	11804
2201.74	11936
2203.769	11757
2205.799	11895
2207.828	11966
2209.855	11784
2211.882	11797
2213.908	11839
2215.934	11601
2217.961	11919
2219.986	11680
2222.01	11839
2224.034	11737
2226.057	11707
2228.08	11693
2230.104	11798
2232.124	11872
2234.145	11822
2236.166	11589
2238.186	11683
2240.207	11640
2242.227	11884
2244.244	11721
2246.262	11785
2248.28	11758
2250.299	11695
2252.314	11855
2254.33	11774
2256.346	11866
2258.36	11786
2260.375	11867
2262.391	11693
2264.403	11704
2266.416	11874
2268.427	11752
2270.44	11855
2272.453	11708
2274.463	11818
2276.474	11821
2278.483	11712
2280.493	11881
2282.501	11709
2284.51	11778
2286.518	11801
2288.524	11692
2290.532	11922
2292.537	11891
2294.544	11665
2296.55	11701
2298.554	11662
2300.557	11688
2302.562	11553
2304.566	11649
2306.568	11856
2308.569	11767
2310.572	11822
2312.573	11809
2314.573	11763
2316.574	11911
2318.573	11586
2320.571	11718
2322.571	11652
2324.569	11619
2326.567	11730
2328.564	11757
2330.56	11623
2332.556	11764
2334.551	11576
2336.546	11534
2338.542	11686
2340.535	11576
2342.529	11638
2344.521	11638
2346.512	11502
2348.505	11647
2350.497	11539
2352.487	11559
2354.478	11541
2356.468	11410
2358.457	11527
2360.446	11558
2362.434	11479
2364.422	11554
2366.408	11493
2368.395	11516
2370.383	11516
2372.369	11457
2374.353	11433
2376.338	11355
2378.321	11482
2380.307	11407
2382.29	11459
2384.272	11435
2386.254	11453
2388.235	11290
2390.218	11478
2392.198	11473
2394.179	11431
2396.157	11558
2398.137	11399
2400.115	11248
2402.095	11374
2404.072	11266
2406.048	11475
2408.026	11297
2410.001	11214
2411.977	11366
2413.953	11278
2415.927	11323
2417.9	11507
2419.875	11285
2421.847	11234
2423.821	11327
2425.792	11374
2427.763	11346
2429.736	11427
2431.706	11431
2433.677	11388
2435.646	11230
2437.615	11330
2439.583	11315
2441.551	11298
2443.519	11347
2445.486	11223
2447.452	11398
2449.418	11402
2451.383	11234
2453.348	11318
2455.314	11317
2457.278	11173
2459.241	11404
2461.205	11229
2463.167	11192
2465.131	11243
2467.091	11224
2469.052	11104
2471.012	11122
2472.972	11159
2474.932	11099
2476.891	11254
2478.85	11079
2480.808	11178
2482.766	11276
2484.722	11224
2486.68	11076
2488.636	11091
2490.591	10993
2492.546	11179
2494.5	11174
2496.456	11222
2498.41	11153
2500.362	11185
2502.315	10942
2504.266	11341
2506.218	10849
2508.169	11112
2510.121	11115
2512.07	11195
2514.019	11077
2515.968	11137
2517.918	11195
2519.866	11034
2521.813	11249
2523.76	11231
2525.707	11142
2527.653	11010
2529.599	11022
2531.543	11048
2533.489	11061
2535.433	11157
2537.376	11118
2539.32	11198
2541.264	11038
2543.205	10962
2545.147	11078
2547.087	11107
2549.029	11013
2550.969	11015
2552.908	11089
2554.847	11091
2556.786	11152
2558.724	11016
2560.663	11042
2562.6	11102
2564.537	11021
2566.473	11014
2568.408	10969
2570.345	10926
2572.28	11045
2574.214	11202
2576.148	10991
2578.081	10931
2580.014	11150
2581.947	10931
2583.879	11026
2585.81	11184
2587.741	11051
2589.67	11230
2591.602	11106
2593.532	11046
2595.461	10972
2597.388	11211
2599.316	11073
2601.244	10918
2603.172	11027
2605.098	11115
2607.023	11006
2608.949	11168
2610.873	11136
2612.8	11066
2614.723	11059
2616.647	11047
2618.569	11157
2620.493	11087
2622.416	11140
2624.338	11019
2626.258	11159
2628.179	11242
2630.099	11237
2632.019	11170
2633.939	11054
2635.857	11226
2637.775	11091
2639.694	11041
2641.61	11134
2643.528	11095
2645.444	11120
2647.361	11134
2649.276	11222
2651.19	11058
2653.105	10992
2655.019	11129
2656.934	11041
2658.846	11119
2660.758	11006
2662.67	11066
2664.583	11150
2666.493	11066
2668.404	11193
2670.313	10901
2672.223	10983
2674.134	10950
2676.042	10979
2677.95	11009
2679.858	10970
2681.765	10831
2683.673	10947
2685.579	10862
2687.483	10964
2689.389	10907
2691.294	11027
2693.198	10998
2695.104	10973
2697.006	10953
2698.909	10855
2700.811	11151
2702.713	10899
2704.615	10882
2706.516	10915
2708.417	10823
2710.316	11042
2712.216	10933
2714.115	10837
2716.014	10843
2717.913	10822
2719.81	10903
2721.707	10777
2723.603	10797
2725.501	10786
2727.396	10729
2729.292	10818
2731.186	10864
2733.081	10886
2734.976	10802
2736.87	10669
2738.762	10913
2740.653	10725
2742.546	10750
2744.437	10839
2746.329	10694
2748.22	10823
2750.11	10757
2751.999	10687
2753.889	10747
2755.778	10810
2757.666	10774
2759.553	10768
2761.44	10572
2763.328	10807
2765.215	10750
2767.101	10818
2768.986	10813
2770.87	10636
2772.754	10798
2774.638	10749
2776.523	10841
2778.405	10683
2780.288	10775
2782.17	10668
2784.051	10812
2785.934	10805
2787.814	10802
2789.694	10731
2791.574	10645
2793.453	10764
2795.332	10737
2797.212	10677
2799.088	10578
2800.966	10536
2802.843	10535
2804.719	10559
2806.597	10728
2808.471	10682
2810.346	10535
2812.221	10525
2814.094	10579
2815.969	10642
2817.843	10538
2819.714	10585
2821.587	10605
2823.459	10689
2825.329	10544
2827.202	10602
2829.072	10658
2830.942	10574
2832.811	10787
2834.68	10718
2836.549	10460
2838.418	10621
2840.284	10510
2842.152	10419
2844.018	10550
2845.885	10537
2847.751	10510
2849.616	10671
2851.482	10705
2853.345	10573
2855.208	10617
2857.074	10597
2858.937	10664
2860.799	10691
2862.66	10756
2864.522	10611
2866.385	10611
2868.245	10844
2870.104	11003
2871.964	10745
2873.824	10788
2875.683	10922
2877.542	10879
2879.4	11125
2881.257	10793
2883.114	10964
2884.97	10985
2886.827	10918
2888.683	11094
2890.537	11028
2892.392	10954
2894.246	10993
2896.1	10938
2897.954	10980
2899.807	10870
2901.66	10952
2903.51	10855
2905.362	10962
2907.214	10952
2909.065	10815
2910.915	10946
2912.765	10914
2914.613	10890
2916.463	11162
2918.311	11085
2920.158	11156
2922.006	11153
2923.853	11354
2925.698	11243
2927.546	11252
2929.392	11366
2931.236	11233
2933.081	11355
2934.924	11303
2936.77	11371
2938.613	11457
2940.455	11535
2942.298	11628
2944.139	11554
2945.982	11793
2947.823	11674
2949.662	11447
2951.503	11547
2953.342	11571
2955.182	11389
2957.021	11418
2958.858	11214
2960.697	11267
2962.534	11275
2964.37	11317
2966.207	11117
2968.044	11172
2969.879	10997
2971.714	10932
2973.548	10999
2975.383	10922
2977.218	10843
2979.051	10891
2980.883	10821
2982.715	10786
2984.547	10712
2986.379	10732
2988.21	10636
2990.04	10854
2991.87	10545
2993.7	10482
2995.53	10621
2997.359	10475
2999.187	10468
3001.015	10538
3002.842	10389
3004.669	10492
3006.497	10290
3008.323	10549
3010.148	10264
3011.974	10366
3013.797	10358
3015.623	10098
3017.447	10136
3019.27	10196
3021.094	10225
3022.915	10214
3024.737	10184
3026.56	10126
3028.38	10237
3030.201	10095
3032.022	10030
3033.84	9970
3035.662	9900
3037.481	10023
3039.298	10114
3041.117	9937
3042.933	10141
3044.752	9995
3046.568	10140
3048.385	9950
3050.2	10066
3052.016	10143
3053.83	9805
3055.646	10031
3057.46	10066
3059.272	9878
3061.086	9780
3062.898	9890
3064.711	9922
3066.524	9941
3068.335	9873
3070.145	9867
3071.956	9948
3073.766	9893
3075.576	9869
3077.385	9830
3079.193	9863
3081.002	9849
3082.81	9765
3084.618	9769
3086.425	9899
3088.231	9929
3090.036	9697
3091.842	9771
3093.648	9717
3095.452	9679
3097.257	9664
3099.06	9727
3100.863	9555
3102.666	9590
3104.47	9683
3106.272	9649
3108.073	9716
3109.875	9547
3111.676	9691
3113.477	9450
3115.277	9660
3117.077	9549
3118.874	9763
3120.673	9656
3122.473	9588
3124.271	9514
3126.066	9579
3127.863	9415
3129.66	9621
3131.456	9556
3133.252	9565
3135.047	9494
3136.842	9422
3138.635	9482
3140.429	9381
3142.223	9480
3144.016	9466
3145.808	9539
3147.6	9331
3149.392	9464
3151.183	9588
3152.975	9246
3154.765	9314
3156.553	9296
3158.344	9430
3160.132	9291
3161.922	9482
3163.71	9370
3165.497	9272
3167.285	9319
3169.071	9400
3170.858	9373
3172.645	9324
3174.429	9290
3176.214	9453
3177.998	9293
3179.783	9332
3181.568	9334
3183.351	9318
3185.133	9202
3186.915	9294
3188.698	9283
3190.481	9193
3192.261	9252
3194.042	9265
3195.822	9091
3197.601	9351
3199.381	9294
3201.161	9207
3202.939	9315
3204.717	9147
3206.495	9183
3208.272	9326
3210.05	9161
3211.826	9167
3213.602	9417
3215.376	9159
3217.151	9248
3218.927	9144
3220.702	9162
3222.476	9085
3224.249	9120
3226.021	9220
3227.793	9248
3229.567	9143
3231.339	9155
3233.109	9250
3234.88	9083
3236.651	9267
3238.421	9073
3240.191	9197
3241.96	9110
3243.728	9229
3245.497	9074
3247.263	9177
3249.033	9073
3250.799	9104
3252.566	9085
3254.331	9064
3256.097	9061
3257.863	9073
3259.628	9097
3261.392	9225
3263.156	9032
3264.919	9024
3266.683	9097
3268.447	9155
3270.208	9025
3271.969	9211
3273.731	9026
3275.492	9017
3277.253	8951
3279.013	9045
3280.773	9009
3282.532	8944
3284.291	9048
3286.05	9118
3287.808	9002
3289.566	9017
3291.323	9022
3293.079	9032
3294.835	9047
3296.593	8993
3298.348	8970
3300.102	9225
3301.857	8954
3303.611	9084
3305.366	9174
3307.119	9054
3308.872	9196
3310.624	9098
3312.376	8982
3314.129	8981
3315.881	9060
3317.631	8984
3319.38	9069
3321.13	9124
3322.88	9061
3324.631	8971
3326.379	8979
3328.126	9051
3329.875	9043
3331.622	9021
3333.371	9016
3335.116	8975
3336.863	9029
3338.609	8984
3340.353	8878
3342.1	9137
3343.845	8987
3345.588	8892
3347.332	8904
3349.074	8976
3350.817	8831
3352.56	8854
3354.303	8796
3356.043	8865
3357.785	8730
3359.525	8984
3361.268	8876
3363.007	8873
3364.745	8777
3366.485	8880
3368.223	8814
3369.962	8807
3371.701	8898
3373.438	8737
3375.174	8797
3376.911	8741
3378.647	8791
3380.384	8848
3382.118	8846
3383.854	8700
3385.588	8716
3387.322	8775
3389.057	8924
3390.79	8825
3392.522	8769
3394.255	8699
3395.987	8745
3397.719	8652
3399.451	8792
3401.181	8671
3402.911	8765
3404.641	8707
3406.371	8763
3408.101	8734
3409.83	8694
3411.558	8638
3413.285	8703
3415.011	8735
3416.739	8626
3418.467	8660
3420.193	8567
3421.919	8718
3423.644	8624
3425.368	8659
3427.094	8564
3428.818	8683
3430.542	8650
3432.264	8544
3433.987	8616
3435.712	8681
3437.434	8484
3439.155	8559
3440.876	8592
3442.596	8627
3444.317	8559
3446.039	8423
3447.757	8537
3449.477	8333
3451.195	8396
3452.914	8465
3454.632	8388
3456.35	8368
3458.067	8452
3459.784	8435
3461.5	8590
3463.216	8273
3464.932	8367
3466.647	8352
3468.362	8403
3470.076	8452
3471.789	8291
3473.505	8385
3475.217	8293
3476.929	8335
3478.641	8200
3480.354	8329
3482.066	8265
3483.777	8306
3485.487	8317
3487.197	8205
3488.908	8164
3490.617	8164
3492.327	8252
3494.035	8189
3495.743	8353
3497.451	8289
3499.158	8279
3500.866	8272
3502.572	8152
3504.278	8246
3505.984	8192
3507.689	8274
3509.396	8158
3511.1	8016
3512.804	8125
3514.508	8200
3516.211	8179
3517.913	8254
3519.616	8238
3521.319	8163
3523.021	7993
3524.722	8131
3526.422	8102
3528.124	8197
3529.824	8063
3531.524	8074
3533.222	8123
3534.921	8087
3536.62	7984
3538.318	7938
3540.016	8035
3541.714	8126
3543.41	8033
3545.107	8157
3546.803	7941
3548.5	8099
3550.194	7881
3551.889	8005
3553.583	7956
3555.279	7882
3556.972	7930
3558.666	8055
3560.358	8088
3562.051	7937
3563.742	8017
3565.435	7963
3567.126	7960
3568.817	8014
3570.507	7925
3572.197	7852
3573.888	7882
3575.577	7973
3577.265	7950
3578.954	7783
3580.642	8032
3582.329	7889
3584.017	7858
3585.704	7952
3587.391	7818
3589.077	7837
3590.762	7762
3592.449	7738
3594.133	7813
3595.817	7776
3597.501	7884
3599.185	7738
3600.869	7721
3602.552	7796
3604.234	7720
3605.916	7675
3607.598	7683
3609.279	7683
3610.961	7674
3612.642	7722
3614.321	7559
3616	7619
3617.68	7638
3619.36	7707
3621.039	7628
3622.716	7681
3624.394	7519
3626.071	7528
3627.748	7497
3629.425	7578
3631.102	7448
3632.778	7556
3634.452	7551
3636.127	7491
3637.803	7569
3639.477	7451
3641.151	7522
3642.823	7506
3644.497	7516
3646.171	7491
3647.842	7576
3649.515	7510
3651.185	7439
3652.857	7493
3654.527	7421
3656.198	7446
3657.868	7355
3659.537	7489
3661.207	7367
3662.875	7513
3664.544	7476
3666.212	7398
3667.879	7251
3669.546	7445
3671.212	7389
3672.88	7391
3674.546	7401
3676.211	7411
3677.875	7390
3679.541	7406
3681.205	7350
3682.87	7371
3684.533	7274
3686.196	7430
3687.859	7249
3689.521	7422
3691.184	7295
3692.845	7420
3694.507	7285
3696.167	7338
3697.827	7506
3699.487	7282
3701.148	7200
3702.808	7391
3704.466	7376
3706.125	7316
3707.783	7333
3709.442	7241
3711.099	7256
3712.757	7376
3714.412	7260
3716.068	7249
3717.725	7414
3719.381	7185
3721.036	7290
3722.689	7246
3724.344	7229
3725.998	7260
3727.652	7207
3729.305	7194
3730.958	7206
3732.61	7275
3734.262	7153
3735.915	7155
3737.565	7229
3739.217	7222
3740.866	7117
3742.516	7167
3744.165	7234
3745.816	7221
3747.464	7200
3749.113	7193
3750.761	7139
3752.409	7154
3754.057	7154
3755.703	7108
3757.35	7084
3758.996	7140
3760.641	7158
3762.289	7045
3763.933	7093
3765.577	7110
3767.222	7032
3768.865	7000
3770.508	7046
3772.152	7092
3773.796	7009
3775.438	7031
3777.079	7023
3778.721	7086
3780.363	7072
3782.003	6998
3783.643	7064
3785.283	6882
3786.923	7030
3788.563	7032
3790.203	6963
3791.841	6977
3793.479	6917
3795.115	7003
3796.753	6965
3798.391	7036
3800.027	6884
3801.664	6880
3803.299	6874
3804.935	6984
3806.571	6787
3808.206	6858
3809.839	6945
3811.473	7019
3813.107	6934
3814.74	6864
3816.375	6819
3818.006	7002
3819.638	6910
3821.27	6921
3822.9	6738
3824.532	6892
3826.163	6795
3827.792	6802
3829.423	6819
3831.051	6817
3832.682	6679
3834.311	6748
3835.938	6844
3837.566	6751
3839.193	6740
3840.821	6714
3842.448	6766
3844.075	6785
3845.7	6692
3847.325	6784
3848.951	6874
3850.576	6756
3852.201	6763
3853.825	6685
3855.448	6696
3857.072	6837
3858.694	6669
3860.318	6663
3861.939	6715
3863.562	6712
3865.183	6678
3866.804	6490
3868.426	6639
3870.045	6608
3871.666	6648
3873.285	6736
3874.904	6626
3876.524	6672
3878.142	6624
3879.76	6614
3881.378	6653
3882.995	6532
3884.612	6634
3886.229	6614
3887.845	6499
3889.461	6621
3891.076	6498
3892.691	6502
3894.307	6561
3895.922	6522
3897.536	6634
3899.149	6551
3900.761	6513
3902.374	6539
3903.988	6659
3905.6	6653
3907.212	6501
3908.822	6517
3910.433	6600
3912.045	6558
3913.655	6545
3915.265	6460
3916.875	6601
3918.483	6509
3920.093	6521
3921.702	6479
3923.309	6443
3924.917	6513
3926.523	6551
3928.13	6550
3929.739	6556
3931.344	6530
3932.95	6450
3934.555	6477
3936.159	6497
3937.766	6446
3939.369	6389
3940.974	6611
3942.577	6462
3944.181	6425
3945.783	6447
3947.386	6414
3948.989	6460
3950.59	6374
3952.191	6386
3953.791	6451
3955.394	6518
3956.994	6298
3958.593	6408
3960.192	6302
3961.791	6350
3963.392	6347
3964.99	6459
3966.588	6317
3968.185	6323
3969.782	6371
3971.379	6330
3972.976	6309
3974.572	6290
3976.168	6283
3977.763	6195
3979.358	6283
3980.954	6338
3982.548	6271
3984.142	6346
3985.736	6237
3987.329	6289
3988.922	6275
3990.516	6204
3992.108	6178
3993.698	6231
3995.29	6296
3996.881	6141
3998.473	6257
4000.064	6203
4001.653	6106
4003.242	6155
4004.832	6146
4006.422	6182
4008.01	6076
4009.598	6127
4011.186	6203
4012.773	6162
4014.36	6181
4015.947	6012
4017.534	6098
4019.119	6182
4020.705	6082
4022.291	6011
4023.876	6004
4025.461	6040
4027.044	6107
4028.627	5984
4030.211	5951
4031.795	6013
4033.378	5925
4034.96	5974
4036.542	6001
4038.124	5927
4039.704	5979
4041.286	5965
4042.867	6076
4044.447	6080
4046.026	6151
4047.606	5917
4049.187	5963
4050.765	5870
4052.343	5911
4053.92	5841
4055.498	5991
4057.076	5869
4058.654	5859
4060.23	5876
4061.806	6028
4063.381	5852
4064.957	5909
4066.533	5839
4068.107	5944
4069.682	5942
4071.256	5939
4072.829	5757
4074.404	5873
4075.977	5921
4077.549	5922
4079.121	5672
4080.693	5803
4082.265	5817
4083.836	5809
4085.407	5835
4086.977	5886
4088.547	5840
4090.117	5876
4091.687	5849
4093.256	5692
4094.825	5791
4096.392	5775
4097.96	5854
4099.528	5758
4101.097	5929
4102.663	5729
4104.229	5680
4105.795	5728
4107.361	5750
4108.928	5862
4110.493	5666
4112.058	5788
4113.621	5661
4115.186	5754
4116.75	5670
4118.313	5715
4119.876	5684
4121.438	5703
4123	5666
4124.562	5716
4126.125	5563
4127.686	5613
4129.246	5713
4130.807	5687
4132.367	5572
4133.927	5734
4135.486	5594
4137.046	5605
4138.604	5587
4140.162	5621
4141.72	5559
4143.279	5598
4144.836	5523
4146.393	5539
4147.949	5528
4149.505	5642
4151.062	5468
4152.617	5497
4154.172	5538
4155.727	5365
4157.281	5539
4158.836	5576
4160.39	5471
4161.943	5568
4163.496	5545
4165.048	5448
4166.601	5435
4168.154	5583
4169.706	5365
4171.257	5517
4172.808	5450
4174.358	5359
4175.909	5411
4177.458	5357
4179.008	5517
4180.558	5316
4182.106	5549
4183.655	5431
4185.204	5407
4186.751	5380
4188.298	5493
4189.845	5334
4191.392	5329
4192.939	5391
4194.485	5341
4196.031	5329
4197.576	5407
4199.121	5387
4200.666	5285
4202.211	5317
4203.754	5371
4205.298	5367
4206.84	5333
4208.384	5377
4209.927	5309
4211.47	5300
4213.011	5278
4214.552	5339
4216.094	5303
4217.635	5273
4219.175	5256
4220.716	5228
4222.255	5284
4223.793	5285
4225.335	5186
4226.873	5232
4228.411	5297
4229.948	5185
4231.486	5229
4233.024	5264
4234.562	5334
4236.098	5249
4237.634	5213
4239.169	5251
4240.705	5133
4242.241	5167
4243.776	5238
4245.31	5243
4246.844	5227
4248.378	5119
4249.911	5307
4251.445	5197
4252.978	5288
4254.51	5090
4256.042	5136
4257.574	5246
4259.107	5138
4260.638	5086
4262.169	5219
4263.699	5240
4265.228	5139
4266.759	5255
4268.289	5179
4269.818	5069
4271.345	5133
4272.874	5174
4274.402	5089
4275.931	5091
4277.458	5083
4278.985	5123
4280.512	5070
4282.037	5085
4283.564	5133
4285.089	4997
4286.615	5100
4288.139	5065
4289.664	5090
4291.187	5060
4292.712	5130
4294.235	4956
4295.759	4966
4297.281	5082
4298.804	5016
4300.327	5071
4301.849	5041
4303.37	5005
4304.891	5061
4306.412	4960
4307.933	4967
4309.453	5098
4310.973	4958
4312.492	4939
