398.1873	2946
400.7097	2917
403.2336	2952
405.7547	2988
408.2751	3009
410.7948	2983
413.3138	3021
415.83	3045
418.3497	3031
420.8666	3052
423.3829	3065
425.8985	3055
428.4133	3097
430.9275	3090
433.441	3085
435.9538	3105
438.4639	3097
440.9753	3167
443.4881	3193
445.9982	3126
448.5055	3148
451.0142	3117
453.5201	3113
456.0274	3164
458.5361	3136
461.04	3129
463.5453	3166
466.0478	3197
468.5517	3124
471.0549	3152
473.5574	3149
476.0572	3120
478.5584	3156
481.0568	3262
483.5545	3118
486.0557	3206
488.5521	3202
491.0478	3192
493.5449	3286
496.0392	3265
498.5349	3242
501.0299	3206
503.5222	3211
506.0139	3177
508.5048	3198
510.9991	3209
513.4887	3262
515.9777	3213
518.4659	3280
520.9534	3312
523.4403	3309
525.9306	3354
528.4161	3248
530.9009	3330
533.3851	3313
535.8687	3300
538.3535	3353
540.8356	3299
543.3171	3244
545.7979	3263
548.278	3284
550.7595	3304
553.2383	3261
555.7144	3284
558.1918	3271
560.6685	3334
563.1446	3367
565.6221	3318
568.0968	3356
570.5688	3325
573.0422	3350
575.515	3377
577.989	3314
580.4584	3406
582.9291	3357
585.3991	3354
587.8685	3336
590.3352	3407
592.8052	3316
595.2706	3381
597.7372	3315
600.2033	3289
602.6666	3396
605.1334	3357
607.5953	3374
610.0587	3420
612.5193	3438
614.9814	3438
617.4427	3335
619.9034	3278
622.3615	3326
624.8208	3373
627.2775	3379
629.7335	3365
632.1929	3407
634.6476	3314
637.1016	3365
639.5569	3404
642.0096	3283
644.4637	3324
646.9151	3418
649.3678	3422
651.8179	3392
654.2672	3384
656.7159	3401
659.166	3386
661.6154	3408
664.0622	3415
666.5082	3402
668.9537	3418
671.4005	3421
673.8445	3434
676.288	3443
678.7308	3405
681.1729	3536
683.6163	3466
686.0572	3497
688.4973	3525
690.9368	3433
693.3757	3470
695.8138	3491
698.2534	3484
700.6902	3469
703.1245	3344
705.56	3533
707.9949	3568
710.4311	3576
712.8647	3562
715.2957	3546
717.7279	3536
720.1595	3550
722.5905	3584
725.0208	3656
727.4505	3575
729.8795	3555
732.3058	3593
734.7336	3664
737.1626	3643
739.587	3649
742.0128	3584
744.4359	3604
746.8604	3635
749.2841	3582
751.7073	3616
754.1278	3690
756.5496	3668
758.9688	3674
761.3893	3629
763.8093	3670
766.2285	3677
768.6451	3663
771.0611	3715
773.4784	3708
775.895	3636
778.3091	3702
780.7244	3700
783.1371	3691
785.5493	3758
787.9626	3677
790.3754	3771
792.7856	3719
795.1951	3705
797.6039	3691
800.0121	3759
802.4236	3723
804.8306	3800
807.2369	3701
809.6425	3750
812.0475	3714
814.4538	3654
816.8575	3757
819.2606	3797
821.663	3678
824.0648	3821
826.4659	3772
828.8683	3789
831.2682	3749
833.6674	3755
836.066	3748
838.4639	3869
840.8632	3801
843.2579	3823
845.6539	3807
848.0493	3792
850.444	3884
852.84	3791
855.2315	3885
857.6243	3819
860.0165	3865
862.4081	3719
864.797	3758
867.1892	3793
869.5789	3794
871.9659	3819
874.3542	3789
876.74	3810
879.129	3888
881.5155	3755
883.8994	3824
886.2845	3888
888.6671	3788
891.051	3788
893.4343	3831
895.8169	3801
898.197	3760
900.5783	3789
902.9571	3856
905.3372	3869
907.7167	3824
910.0936	3858
912.4698	3886
914.8474	3893
917.2244	3849
919.5987	3986
921.9744	3941
924.3475	3954
926.72	4051
929.0918	3949
931.4669	3999
933.8375	4077
936.2074	4108
938.5767	3997
940.9454	3992
943.3154	3989
945.6829	4052
948.0497	4098
950.4178	4193
952.7833	4276
955.1483	4461
957.5145	4554
959.8782	4549
962.2412	4597
964.6036	4428
966.9655	4347
969.3266	4287
971.6871	4103
974.0471	4105
976.4064	4013
978.765	4031
981.125	3982
983.4824	3946
985.8373	4013
988.1935	3905
990.549	3974
992.9039	3945
995.2602	3981
997.6119	3873
999.965	4005
1002.317	3991
1004.667	3994
1007.02	3966
1009.371	3946
1011.719	3921
1014.068	3934
1016.415	4039
1018.765	3955
1021.111	3973
1023.458	4023
1025.804	3984
1028.147	3996
1030.49	3996
1032.837	3995
1035.179	3954
1037.522	4012
1039.862	4089
1042.204	4082
1044.546	3996
1046.884	4042
1049.224	4086
1051.562	4031
1053.899	4097
1056.237	3971
1058.575	4020
1060.91	4077
1063.244	4124
1065.58	4028
1067.913	4078
1070.248	4091
1072.579	4158
1074.911	4161
1077.242	4042
1079.572	4083
1081.905	4147
1084.234	3955
1086.562	4127
1088.89	4083
1091.217	3981
1093.544	4064
1095.871	4139
1098.197	4144
1100.521	4054
1102.845	4027
1105.169	4083
1107.491	4076
1109.814	4060
1112.135	4102
1114.456	4085
1116.776	4095
1119.096	4080
1121.415	4175
1123.734	4004
1126.052	4116
1128.369	4129
1130.686	4017
1133.002	4106
1135.318	4131
1137.632	4072
1139.945	4020
1142.258	4126
1144.573	4166
1146.884	4157
1149.196	4117
1151.505	4070
1153.816	4070
1156.124	4132
1158.435	4173
1160.742	4120
1163.051	4004
1165.356	4005
1167.663	4054
1169.97	4065
1172.276	4102
1174.579	4078
1176.881	4129
1179.186	4124
1181.487	4159
1183.79	4024
1186.092	4135
1188.392	4166
1190.691	4059
1192.991	4195
1195.291	4136
1197.588	4090
1199.885	4062
1202.181	4149
1204.479	4095
1206.775	4199
1209.07	4162
1211.363	4106
1213.656	4206
1215.949	4176
1218.241	4185
1220.534	4098
1222.825	4158
1225.115	4128
1227.405	4212
1229.693	4209
1231.984	4186
1234.271	4252
1236.558	4262
1238.845	4233
1241.131	4243
1243.416	4203
1245.703	4285
1247.987	4210
1250.269	4253
1252.552	4241
1254.834	4284
1257.118	4207
1259.399	4280
1261.678	4244
1263.958	4217
1266.237	4267
1268.516	4272
1270.794	4316
1273.072	4263
1275.347	4192
1277.624	4181
1279.899	4190
1282.175	4245
1284.449	4168
1286.722	4245
1288.995	4237
1291.266	4320
1293.54	4306
1295.81	4164
1298.081	4213
1300.35	4165
1302.62	4164
1304.889	4248
1307.156	4243
1309.425	4218
1311.69	4254
1313.957	4266
1316.222	4201
1318.488	4240
1320.751	4217
1323.016	4211
1325.278	4189
1327.54	4265
1329.803	4237
1332.065	4222
1334.325	4319
1336.584	4290
1338.843	4228
1341.101	4266
1343.36	4303
1345.617	4325
1347.876	4236
1350.131	4289
1352.387	4219
1354.643	4139
1356.897	4226
1359.151	4252
1361.403	4227
1363.656	4278
1365.909	4237
1368.16	4251
1370.409	4179
1372.659	4132
1374.909	4328
1377.157	4222
1379.407	4365
1381.655	4368
1383.9	4341
1386.147	4273
1388.393	4271
1390.64	4281
1392.885	4389
1395.127	4366
1397.37	4398
1399.614	4278
1401.854	4297
1404.098	4314
1406.339	4315
1408.578	4279
1410.818	4368
1413.056	4389
1415.297	4327
1417.533	4414
1419.771	4482
1422.006	4335
1424.243	4344
1426.479	4419
1428.715	4401
1430.948	4364
1433.182	4409
1435.414	4486
1437.647	4474
1439.88	4391
1442.11	4450
1444.342	4427
1446.571	4494
1448.799	4380
1451.029	4480
1453.258	4389
1455.485	4454
1457.711	4394
1459.937	4447
1462.164	4523
1464.39	4453
1466.614	4486
1468.838	4409
1471.06	4382
1473.283	4375
1475.506	4381
1477.727	4350
1479.949	4324
1482.169	4427
1484.389	4287
1486.609	4281
1488.828	4289
1491.045	4338
1493.261	4311
1495.477	4343
1497.693	4360
1499.91	4314
1502.125	4267
1504.339	4323
1506.553	4373
1508.766	4338
1510.979	4314
1513.191	4261
1515.402	4297
1517.613	4378
1519.823	4332
1522.033	4305
1524.242	4252
1526.451	4350
1528.657	4343
1530.865	4218
1533.072	4339
1535.278	4392
1537.484	4372
1539.687	4325
1541.892	4311
1544.096	4416
1546.299	4321
1548.502	4368
1550.703	4359
1552.905	4417
1555.104	4372
1557.303	4341
1559.505	4447
1561.703	4440
1563.902	4411
1566.099	4434
1568.295	4457
1570.494	4450
1572.689	4476
1574.883	4502
1577.079	4469
1579.272	4415
1581.467	4410
1583.659	4368
1585.853	4468
1588.044	4379
1590.234	4484
1592.424	4400
1594.615	4449
1596.806	4405
1598.994	4445
1601.182	4391
1603.369	4448
1605.557	4355
1607.744	4485
1609.929	4515
1612.114	4515
1614.298	4561
1616.482	4441
1618.667	4492
1620.85	4477
1623.032	4514
1625.214	4383
1627.395	4440
1629.575	4460
1631.755	4521
1633.935	4401
1636.114	4482
1638.292	4537
1640.471	4560
1642.647	4541
1644.823	4473
1647	4563
1649.175	4525
1651.348	4461
1653.525	4506
1655.698	4478
1657.87	4584
1660.043	4515
1662.213	4551
1664.387	4480
1666.558	4556
1668.727	4558
1670.896	4676
1673.064	4550
1675.233	4437
1677.401	4498
1679.569	4415
1681.735	4561
1683.902	4571
1686.066	4489
1688.233	4507
1690.397	4565
1692.559	4563
1694.723	4619
1696.885	4524
1699.048	4453
1701.21	4584
1703.37	4567
1705.53	4483
1707.689	4545
1709.849	4581
1712.009	4518
1714.166	4475
1716.323	4464
1718.479	4517
1720.634	4563
1722.793	4476
1724.948	4541
1727.102	4531
1729.255	4530
1731.408	4568
1733.562	4520
1735.714	4558
1737.865	4499
1740.016	4534
1742.166	4487
1744.316	4477
1746.467	4485
1748.616	4524
1750.764	4491
1752.911	4536
1755.056	4524
1757.205	4615
1759.35	4645
1761.496	4530
1763.641	4546
1765.785	4561
1767.927	4592
1770.072	4619
1772.214	4567
1774.355	4611
1776.496	4552
1778.637	4604
1780.778	4659
1782.918	4572
1785.057	4556
1787.194	4622
1789.333	4581
1791.472	4640
1793.608	4575
1795.745	4485
1797.879	4536
1800.015	4614
1802.148	4631
1804.284	4626
1806.417	4615
1808.548	4648
1810.682	4563
1812.812	4544
1814.946	4654
1817.075	4631
1819.205	4595
1821.335	4674
1823.463	4599
1825.59	4554
1827.721	4605
1829.847	4527
1831.973	4534
1834.098	4599
1836.223	4556
1838.351	4611
1840.475	4614
1842.598	4508
1844.721	4615
1846.843	4587
1848.966	4531
1851.087	4626
1853.21	4629
1855.33	4568
1857.449	4566
1859.568	4541
1861.688	4560
1863.806	4518
1865.924	4535
1868.039	4464
1870.155	4627
1872.273	4552
1874.388	4606
1876.503	4602
1878.617	4595
1880.73	4563
1882.844	4522
1884.956	4523
1887.068	4662
1889.18	4545
1891.291	4631
1893.4	4616
1895.511	4622
1897.621	4622
1899.73	4579
1901.837	4626
1903.944	4636
1906.053	4522
1908.159	4645
1910.265	4645
1912.369	4726
1914.474	4622
1916.577	4629
1918.683	4602
1920.785	4623
1922.888	4618
1924.989	4650
1927.091	4702
1929.193	4690
1931.294	4668
1933.393	4725
1935.493	4619
1937.59	4658
1939.689	4723
1941.788	4628
1943.884	4714
1945.98	4681
1948.077	4653
1950.171	4694
1952.267	4639
1954.361	4741
1956.455	4652
1958.548	4661
1960.64	4760
1962.733	4739
1964.824	4582
1966.915	4691
1969.005	4701
1971.096	4637
1973.185	4695
1975.275	4719
1977.363	4575
1979.45	4694
1981.537	4709
1983.623	4734
1985.711	4678
1987.796	4652
1989.881	4589
1991.965	4616
1994.047	4686
1996.132	4643
1998.215	4661
2000.297	4634
2002.378	4658
2004.46	4642
2006.54	4591
2008.62	4599
2010.7	4661
2012.779	4714
2014.858	4633
2016.934	4595
2019.013	4653
2021.09	4539
2023.165	4571
2025.241	4708
2027.317	4725
2029.39	4596
2031.466	4647
2033.538	4646
2035.612	4686
2037.683	4697
2039.755	4669
2041.827	4706
2043.898	4611
2045.968	4754
2048.038	4663
2050.106	4609
2052.177	4683
2054.244	4740
2056.313	4720
2058.379	4643
2060.444	4620
2062.511	4751
2064.577	4650
2066.641	4672
2068.705	4646
2070.77	4672
2072.832	4661
2074.896	4695
2076.958	4673
2079.02	4695
2081.081	4628
2083.141	4652
2085.2	4700
2087.261	4722
2089.319	4683
2091.377	4688
2093.435	4717
2095.492	4703
2097.552	4527
2099.607	4655
2101.663	4647
2103.718	4753
2105.771	4723
2107.826	4826
2109.879	4644
2111.932	4639
2113.985	4719
2116.037	4618
2118.088	4686
2120.141	4665
2122.191	4683
2124.239	4649
2126.288	4709
2128.337	4679
2130.387	4669
2132.434	4607
2134.481	4712
2136.528	4807
2138.574	4609
2140.618	4751
2142.665	4638
2144.71	4679
2146.753	4732
2148.797	4681
2150.838	4678
2152.883	4577
2154.923	4663
2156.965	4676
2159.007	4792
2161.046	4691
2163.086	4699
2165.126	4676
2167.163	4700
2169.202	4712
2171.239	4627
2173.277	4598
2175.314	4595
2177.349	4720
2179.385	4687
2181.42	4594
2183.453	4604
2185.49	4535
2187.522	4652
2189.555	4634
2191.586	4629
2193.619	4556
2195.651	4680
2197.682	4632
2199.711	4673
2201.74	4608
2203.769	4580
2205.799	4603
2207.828	4593
2209.855	4639
2211.882	4660
2213.908	4549
2215.934	4652
2217.961	4659
2219.986	4549
2222.01	4527
2224.034	4569
2226.057	4708
2228.08	4649
2230.104	4573
2232.124	4570
2234.145	4639
2236.166	4641
2238.186	4680
2240.207	4598
2242.227	4690
2244.244	4598
2246.262	4661
2248.28	4711
2250.299	4615
2252.314	4625
2254.33	4637
2256.346	4625
2258.36	4795
2260.375	4619
2262.391	4589
2264.403	4615
2266.416	4581
2268.427	4625
2270.44	4615
2272.453	4577
2274.463	4675
2276.474	4618
2278.483	4591
2280.493	4586
2282.501	4665
2284.51	4663
2286.518	4765
2288.524	4515
2290.532	4714
2292.537	4551
2294.544	4672
2296.55	4668
2298.554	4584
2300.557	4642
2302.562	4548
2304.566	4552
2306.568	4468
2308.569	4594
2310.572	4686
2312.573	4587
2314.573	4565
2316.574	4654
2318.573	4518
2320.571	4577
2322.571	4655
2324.569	4605
2326.567	4656
2328.564	4663
2330.56	4549
2332.556	4607
2334.551	4659
2336.546	4641
2338.542	4666
2340.535	4547
2342.529	4586
2344.521	4522
2346.512	4446
2348.505	4640
2350.497	4479
2352.487	4576
2354.478	4566
2356.468	4639
2358.457	4559
2360.446	4580
2362.434	4484
2364.422	4574
2366.408	4564
2368.395	4470
2370.383	4616
2372.369	4524
2374.353	4604
2376.338	4522
2378.321	4524
2380.307	4542
2382.29	4539
2384.272	4527
2386.254	4611
2388.235	4528
2390.218	4516
2392.198	4610
2394.179	4507
2396.157	4520
2398.137	4556
2400.115	4584
2402.095	4558
2404.072	4550
2406.048	4618
2408.026	4560
2410.001	4503
2411.977	4480
2413.953	4534
2415.927	4507
2417.9	4500
2419.875	4599
2421.847	4603
2423.821	4503
2425.792	4627
2427.763	4499
2429.736	4461
2431.706	4538
2433.677	4649
2435.646	4510
2437.615	4550
2439.583	4483
2441.551	4489
2443.519	4528
2445.486	4491
2447.452	4592
2449.418	4559
2451.383	4485
2453.348	4546
2455.314	4415
2457.278	4491
2459.241	4471
2461.205	4603
2463.167	4546
2465.131	4469
2467.091	4593
2469.052	4479
2471.012	4582
2472.972	4601
2474.932	4497
2476.891	4455
2478.85	4567
2480.808	4472
2482.766	4497
2484.722	4522
2486.68	4464
2488.636	4534
2490.591	4460
2492.546	4495
2494.5	4547
2496.456	4534
2498.41	4595
2500.362	4552
2502.315	4488
2504.266	4576
2506.218	4468
2508.169	4546
2510.121	4524
2512.07	4421
2514.019	4525
2515.968	4528
2517.918	4436
2519.866	4454
2521.813	4433
2523.76	4517
2525.707	4460
2527.653	4504
2529.599	4511
2531.543	4481
2533.489	4441
2535.433	4515
2537.376	4470
2539.32	4517
2541.264	4516
2543.205	4499
2545.147	4507
2547.087	4527
2549.029	4468
2550.969	4483
2552.908	4556
2554.847	4554
2556.786	4508
2558.724	4459
2560.663	4401
2562.6	4472
2564.537	4538
2566.473	4481
2568.408	4496
2570.345	4535
2572.28	4503
2574.214	4476
2576.148	4434
2578.081	4447
2580.014	4496
2581.947	4411
2583.879	4564
2585.81	4473
2587.741	4486
2589.67	4535
2591.602	4586
2593.532	4455
2595.461	4466
2597.388	4569
2599.316	4573
2601.244	4418
2603.172	4612
2605.098	4514
2607.023	4468
2608.949	4497
2610.873	4507
2612.8	4581
2614.723	4443
2616.647	4532
2618.569	4520
2620.493	4522
2622.416	4561
2624.338	4581
2626.258	4534
2628.179	4614
2630.099	4479
2632.019	4494
2633.939	4524
2635.857	4541
2637.775	4569
2639.694	4509
2641.61	4497
2643.528	4613
2645.444	4494
2647.361	4508
2649.276	4567
2651.19	4499
2653.105	4574
2655.019	4515
2656.934	4463
2658.846	4501
2660.758	4536
2662.67	4497
2664.583	4482
2666.493	4513
2668.404	4490
2670.313	4479
2672.223	4577
2674.134	4502
2676.042	4492
2677.95	4504
2679.858	4519
2681.765	4583
2683.673	4638
2685.579	4471
2687.483	4605
2689.389	4480
2691.294	4382
2693.198	4497
2695.104	4423
2697.006	4560
2698.909	4508
2700.811	4457
2702.713	4578
2704.615	4520
2706.516	4424
2708.417	4416
2710.316	4463
2712.216	4368
2714.115	4438
2716.014	4439
2717.913	4450
2719.81	4442
2721.707	4401
2723.603	4441
2725.501	4504
2727.396	4475
2729.292	4435
2731.186	4414
2733.081	4418
2734.976	4407
2736.87	4484
2738.762	4590
2740.653	4446
2742.546	4464
2744.437	4469
2746.329	4415
2748.22	4398
2750.11	4416
2751.999	4395
2753.889	4509
2755.778	4515
2757.666	4466
2759.553	4490
2761.44	4401
2763.328	4487
2765.215	4429
2767.101	4515
2768.986	4460
2770.87	4441
2772.754	4384
2774.638	4504
2776.523	4354
2778.405	4491
2780.288	4435
2782.17	4418
2784.051	4455
2785.934	4465
2787.814	4341
2789.694	4423
2791.574	4366
2793.453	4482
2795.332	4378
2797.212	4469
2799.088	4385
2800.966	4516
2802.843	4367
2804.719	4450
2806.597	4471
2808.471	4506
2810.346	4466
2812.221	4477
2814.094	4401
2815.969	4428
2817.843	4433
2819.714	4419
2821.587	4457
2823.459	4442
2825.329	4424
2827.202	4494
2829.072	4408
2830.942	4423
2832.811	4389
2834.68	4360
2836.549	4456
2838.418	4363
2840.284	4474
2842.152	4397
2844.018	4383
2845.885	4447
2847.751	4418
2849.616	4390
2851.482	4548
2853.345	4500
2855.208	4445
2857.074	4519
2858.937	4372
2860.799	4468
2862.66	4521
2864.522	4536
2866.385	4404
2868.245	4603
2870.104	4504
2871.964	4587
2873.824	4540
2875.683	4569
2877.542	4601
2879.4	4641
2881.257	4541
2883.114	4658
2884.97	4692
2886.827	4656
2888.683	4683
2890.537	4641
2892.392	4706
2894.246	4686
2896.1	4667
2897.954	4641
2899.807	4552
2901.66	4683
2903.51	4665
2905.362	4681
2907.214	4550
2909.065	4679
2910.915	4630
2912.765	4742
2914.613	4592
2916.463	4741
2918.311	4689
2920.158	4698
2922.006	4787
2923.853	4826
2925.698	4791
2927.546	4840
2929.392	4756
2931.236	4860
2933.081	4887
2934.924	4762
2936.77	4866
2938.613	4882
2940.455	4916
2942.298	4863
2944.139	4974
2945.982	4976
2947.823	4949
2949.662	4970
2951.503	5015
2953.342	4943
2955.182	4915
2957.021	4770
2958.858	4909
2960.697	4799
2962.534	4799
2964.37	4886
2966.207	4767
2968.044	4832
2969.879	4752
2971.714	4771
2973.548	4621
2975.383	4674
2977.218	4617
2979.051	4679
2980.883	4514
2982.715	4656
2984.547	4531
2986.379	4596
2988.21	4599
2990.04	4622
2991.87	4498
2993.7	4559
2995.53	4511
2997.359	4504
2999.187	4535
3001.015	4406
3002.842	4419
3004.669	4374
3006.497	4447
3008.323	4370
3010.148	4364
3011.974	4328
3013.797	4371
3015.623	4367
3017.447	4391
3019.27	4297
3021.094	4350
3022.915	4336
3024.737	4257
3026.56	4333
3028.38	4241
3030.201	4356
3032.022	4292
3033.84	4346
3035.662	4300
3037.481	4204
3039.298	4223
3041.117	4211
3042.933	4225
3044.752	4261
3046.568	4280
3048.385	4231
3050.2	4189
3052.016	4241
3053.83	4234
3055.646	4264
3057.46	4185
3059.272	4291
3061.086	4225
3062.898	4153
3064.711	4207
3066.524	4265
3068.335	4203
3070.145	4261
3071.956	4229
3073.766	4225
3075.576	4293
3077.385	4225
3079.193	4162
3081.002	4155
3082.81	4173
3084.618	4216
3086.425	4155
3088.231	4189
3090.036	4190
3091.842	4204
3093.648	4116
3095.452	4269
3097.257	4212
3099.06	4178
3100.863	4140
3102.666	4178
3104.47	4062
3106.272	4152
3108.073	4232
3109.875	4083
3111.676	4193
3113.477	4216
3115.277	4090
3117.077	4120
3118.874	4202
3120.673	4098
3122.473	4063
3124.271	4061
3126.066	4101
3127.863	4079
3129.66	4117
3131.456	4004
3133.252	4115
3135.047	4079
3136.842	4115
3138.635	4118
3140.429	4102
3142.223	4072
3144.016	4144
3145.808	4077
3147.6	4170
3149.392	4044
3151.183	3998
3152.975	4056
3154.765	4078
3156.553	4032
3158.344	4110
3160.132	3980
3161.922	4054
3163.71	4072
3165.497	4054
3167.285	4030
3169.071	3970
3170.858	4082
3172.645	4047
3174.429	4062
3176.214	4094
3177.998	4062
3179.783	4004
3181.568	4009
3183.351	3970
3185.133	3947
3186.915	3979
3188.698	4082
3190.481	4119
3192.261	3968
3194.042	3993
3195.822	3945
3197.601	4052
3199.381	3912
3201.161	3958
3202.939	4014
3204.717	3952
3206.495	3899
3208.272	4066
3210.05	3950
3211.826	4054
3213.602	3952
3215.376	4005
3217.151	4036
3218.927	3993
3220.702	4032
3222.476	3989
3224.249	3925
3226.021	3999
3227.793	3976
3229.567	3960
3231.339	3909
3233.109	4038
3234.88	4045
3236.651	3959
3238.421	4077
3240.191	3997
3241.96	4004
3243.728	4001
3245.497	3921
3247.263	3975
3249.033	4104
3250.799	4028
3252.566	4049
3254.331	3950
3256.097	4052
3257.863	4051
3259.628	3999
3261.392	4041
3263.156	3916
3264.919	3990
3266.683	3897
3268.447	4036
3270.208	3974
3271.969	3980
3273.731	3907
3275.492	3968
3277.253	4005
3279.013	3974
3280.773	3897
3282.532	4021
3284.291	3969
3286.05	3984
3287.808	3906
3289.566	3939
3291.323	4024
3293.079	3987
3294.835	3982
3296.593	4005
3298.348	4002
3300.102	3961
3301.857	3894
3303.611	3933
3305.366	3971
3307.119	4014
3308.872	3932
3310.624	3981
3312.376	3955
3314.129	3857
3315.881	3897
3317.631	4021
3319.38	3965
3321.13	3918
3322.88	4137
3324.631	3871
3326.379	3885
3328.126	3890
3329.875	3996
3331.622	3985
3333.371	3950
3335.116	3951
3336.863	3952
3338.609	3935
3340.353	3971
3342.1	3915
3343.845	3961
3345.588	3944
3347.332	3980
3349.074	3896
3350.817	3917
3352.56	3994
3354.303	3867
3356.043	3946
3357.785	3914
3359.525	3996
3361.268	3957
3363.007	3859
3364.745	3934
3366.485	3982
3368.223	3927
3369.962	3872
3371.701	3973
3373.438	3889
3375.174	3927
3376.911	3895
3378.647	3863
3380.384	3910
3382.118	3941
3383.854	3883
3385.588	3932
3387.322	3917
3389.057	3905
3390.79	3990
3392.522	3882
3394.255	3817
3395.987	3934
3397.719	3917
3399.451	3851
3401.181	3895
3402.911	3871
3404.641	3899
3406.371	3840
3408.101	3854
3409.83	3867
3411.558	3830
3413.285	3863
3415.011	3796
3416.739	3859
3418.467	3865
3420.193	3861
3421.919	3767
3423.644	3844
3425.368	3805
3427.094	3806
3428.818	3802
3430.542	3856
3432.264	3918
3433.987	3767
3435.712	3821
3437.434	3748
3439.155	3846
3440.876	3798
3442.596	3767
3444.317	3756
3446.039	3848
3447.757	3840
3449.477	3814
3451.195	3819
3452.914	3879
3454.632	3759
3456.35	3750
3458.067	3774
3459.784	3776
3461.5	3783
3463.216	3752
3464.932	3743
3466.647	3701
3468.362	3745
3470.076	3681
3471.789	3682
3473.505	3771
3475.217	3783
3476.929	3689
3478.641	3782
3480.354	3745
3482.066	3682
3483.777	3742
3485.487	3672
3487.197	3743
3488.908	3733
3490.617	3655
3492.327	3701
3494.035	3652
3495.743	3704
3497.451	3668
3499.158	3609
3500.866	3665
3502.572	3640
3504.278	3735
3505.984	3707
3507.689	3679
3509.396	3675
3511.1	3602
3512.804	3614
3514.508	3680
3516.211	3716
3517.913	3602
3519.616	3671
3521.319	3655
3523.021	3652
3524.722	3676
3526.422	3590
3528.124	3671
3529.824	3640
3531.524	3557
3533.222	3586
3534.921	3579
3536.62	3619
3538.318	3618
3540.016	3565
3541.714	3562
3543.41	3658
3545.107	3546
3546.803	3516
3548.5	3548
3550.194	3646
3551.889	3558
3553.583	3568
3555.279	3635
3556.972	3636
3558.666	3604
3560.358	3566
3562.051	3684
3563.742	3555
3565.435	3513
3567.126	3517
3568.817	3587
3570.507	3519
3572.197	3503
3573.888	3504
3575.577	3545
3577.265	3601
3578.954	3566
3580.642	3565
3582.329	3526
3584.017	3579
3585.704	3575
3587.391	3556
3589.077	3580
3590.762	3609
3592.449	3589
3594.133	3510
3595.817	3553
3597.501	3412
3599.185	3535
3600.869	3522
3602.552	3469
3604.234	3499
3605.916	3538
3607.598	3589
3609.279	3474
3610.961	3447
3612.642	3524
3614.321	3443
3616	3370
3617.68	3407
3619.36	3528
3621.039	3390
3622.716	3474
3624.394	3432
3626.071	3400
3627.748	3504
3629.425	3454
3631.102	3470
3632.778	3429
3634.452	3416
3636.127	3446
3637.803	3440
3639.477	3443
3641.151	3451
3642.823	3391
3644.497	3409
3646.171	3422
3647.842	3360
3649.515	3403
3651.185	3445
3652.857	3405
3654.527	3416
3656.198	3406
3657.868	3401
3659.537	3450
3661.207	3393
3662.875	3399
3664.544	3456
3666.212	3349
3667.879	3411
3669.546	3305
3671.212	3366
3672.88	3403
3674.546	3322
3676.211	3318
3677.875	3339
3679.541	3435
3681.205	3386
3682.87	3366
3684.533	3345
3686.196	3415
3687.859	3346
3689.521	3319
3691.184	3316
3692.845	3290
3694.507	3337
3696.167	3359
3697.827	3341
3699.487	3411
3701.148	3429
3702.808	3358
3704.466	3321
3706.125	3344
3707.783	3306
3709.442	3330
3711.099	3246
3712.757	3279
3714.412	3386
3716.068	3256
3717.725	3403
3719.381	3362
3721.036	3444
3722.689	3264
3724.344	3282
3725.998	3363
3727.652	3316
3729.305	3332
3730.958	3333
3732.61	3405
3734.262	3251
3735.915	3345
3737.565	3293
3739.217	3294
3740.866	3299
3742.516	3275
3744.165	3340
3745.816	3268
3747.464	3343
3749.113	3384
3750.761	3325
3752.409	3235
3754.057	3277
3755.703	3263
3757.35	3263
3758.996	3229
3760.641	3303
3762.289	3288
3763.933	3323
3765.577	3224
3767.222	3311
3768.865	3286
3770.508	3283
3772.152	3295
3773.796	3299
3775.438	3322
3777.079	3225
3778.721	3213
3780.363	3295
3782.003	3251
3783.643	3229
3785.283	3257
3786.923	3211
3788.563	3224
3790.203	3219
3791.841	3211
3793.479	3235
3795.115	3210
3796.753	3286
3798.391	3199
3800.027	3138
3801.664	3180
3803.299	3166
3804.935	3220
3806.571	3203
3808.206	3208
3809.839	3206
3811.473	3164
3813.107	3166
3814.74	3168
3816.375	3219
3818.006	3235
3819.638	3153
3821.27	3207
3822.9	3087
3824.532	3203
3826.163	3179
3827.792	3239
3829.423	3127
3831.051	3156
3832.682	3258
3834.311	3113
3835.938	3132
3837.566	3216
3839.193	3168
3840.821	3123
3842.448	3164
3844.075	3115
3845.7	3113
3847.325	3133
3848.951	3118
3850.576	3116
3852.201	3138
3853.825	3162
3855.448	3122
3857.072	3092
3858.694	3103
3860.318	3092
3861.939	3130
3863.562	3084
3865.183	3122
3866.804	3150
3868.426	3117
3870.045	3081
3871.666	3185
3873.285	3169
3874.904	3107
3876.524	3081
3878.142	3080
3879.76	3085
3881.378	3132
3882.995	3064
3884.612	3002
3886.229	3096
3887.845	3089
3889.461	3137
3891.076	3073
3892.691	3033
3894.307	3082
3895.922	3076
3897.536	3004
3899.149	3077
3900.761	3092
3902.374	3136
3903.988	3102
3905.6	3128
3907.212	3019
3908.822	3159
3910.433	3103
3912.045	2999
3913.655	3074
3915.265	3064
3916.875	3084
3918.483	3021
3920.093	3007
3921.702	3079
3923.309	3055
3924.917	3034
3926.523	3037
3928.13	3036
3929.739	3077
3931.344	3043
3932.95	3068
3934.555	3038
3936.159	3048
3937.766	2993
3939.369	3028
3940.974	3043
3942.577	3029
3944.181	2987
3945.783	3021
3947.386	3039
3948.989	3014
3950.59	2990
3952.191	3016
3953.791	2984
3955.394	2988
3956.994	2987
3958.593	2949
3960.192	3026
3961.791	2967
3963.392	3020
3964.99	3053
3966.588	3006
3968.185	2973
3969.782	2991
3971.379	2952
3972.976	3000
3974.572	3010
3976.168	2943
3977.763	3028
3979.358	3010
3980.954	2981
3982.548	2953
3984.142	2964
3985.736	2869
3987.329	2969
3988.922	2929
3990.516	2930
3992.108	2878
3993.698	2920
3995.29	2921
3996.881	2929
3998.473	2954
4000.064	2911
4001.653	2918
4003.242	2923
4004.832	2928
4006.422	2983
4008.01	2909
4009.598	2942
4011.186	2802
4012.773	2870
4014.36	2856
4015.947	2852
4017.534	2883
4019.119	2953
4020.705	2871
4022.291	2848
4023.876	2852
4025.461	2800
4027.044	2862
4028.627	2825
4030.211	2849
4031.795	2876
4033.378	2871
4034.96	2848
4036.542	2915
4038.124	2888
4039.704	2768
4041.286	2860
4042.867	2875
4044.447	2921
4046.026	2801
4047.606	2878
4049.187	2818
4050.765	2814
4052.343	2805
4053.92	2893
4055.498	2857
4057.076	2862
4058.654	2825
4060.23	2804
4061.806	2781
4063.381	2810
4064.957	2858
4066.533	2732
4068.107	2839
4069.682	2848
4071.256	2881
4072.829	2840
4074.404	2830
4075.977	2800
4077.549	2744
4079.121	2786
4080.693	2767
4082.265	2814
4083.836	2814
4085.407	2852
4086.977	2783
4088.547	2750
4090.117	2738
4091.687	2777
4093.256	2789
4094.825	2711
4096.392	2776
4097.96	2756
4099.528	2742
4101.097	2769
4102.663	2817
4104.229	2827
4105.795	2764
4107.361	2764
4108.928	2816
4110.493	2796
4112.058	2799
4113.621	2720
4115.186	2759
4116.75	2769
4118.313	2687
4119.876	2710
4121.438	2736
4123	2773
4124.562	2713
4126.125	2752
4127.686	2737
4129.246	2684
4130.807	2690
4132.367	2695
4133.927	2727
4135.486	2716
4137.046	2718
4138.604	2749
4140.162	2641
4141.72	2730
4143.279	2697
4144.836	2722
4146.393	2698
4147.949	2676
4149.505	2682
4151.062	2679
4152.617	2668
4154.172	2711
4155.727	2692
4157.281	2619
4158.836	2671
4160.39	2663
4161.943	2669
4163.496	2687
4165.048	2660
4166.601	2635
4168.154	2722
4169.706	2716
4171.257	2672
4172.808	2611
4174.358	2663
4175.909	2631
4177.458	2679
4179.008	2615
4180.558	2664
4182.106	2664
4183.655	2616
4185.204	2654
4186.751	2669
4188.298	2583
4189.845	2606
4191.392	2632
4192.939	2592
4194.485	2605
4196.031	2608
4197.576	2588
4199.121	2588
4200.666	2601
4202.211	2613
4203.754	2608
4205.298	2686
4206.84	2550
4208.384	2620
4209.927	2578
4211.47	2541
4213.011	2629
4214.552	2597
4216.094	2602
4217.635	2586
4219.175	2590
4220.716	2546
4222.255	2555
4223.793	2559
4225.335	2569
4226.873	2575
4228.411	2575
4229.948	2566
4231.486	2525
4233.024	2549
4234.562	2565
4236.098	2516
4237.634	2545
4239.169	2540
4240.705	2549
4242.241	2576
4243.776	2587
4245.31	2578
4246.844	2600
4248.378	2531
4249.911	2541
4251.445	2589
4252.978	2618
4254.51	2566
4256.042	2556
4257.574	2585
4259.107	2542
4260.638	2548
4262.169	2527
4263.699	2539
4265.228	2643
4266.759	2638
4268.289	2554
4269.818	2551
4271.345	2489
4272.874	2488
4274.402	2530
4275.931	2575
4277.458	2483
4278.985	2521
4280.512	2552
4282.037	2539
4283.564	2477
4285.089	2456
4286.615	2533
4288.139	2513
4289.664	2551
4291.187	2465
4292.712	2499
4294.235	2501
4295.759	2502
4297.281	2498
4298.804	2476
4300.327	2514
4301.849	2479
4303.37	2477
4304.891	2464
4306.412	2482
4307.933	2462
4309.453	2446
4310.973	2470
4312.492	2521
