398.1873	2573
400.7097	2672
403.2336	2634
405.7547	2575
408.2751	2695
410.7948	2661
413.3138	2700
415.83	2718
418.3497	2592
420.8666	2743
423.3829	2715
425.8985	2767
428.4133	2815
430.9275	2809
433.441	2770
435.9538	2783
438.4639	2811
440.9753	2809
443.4881	2690
445.9982	2774
448.5055	2771
451.0142	2745
453.5201	2757
456.0274	2770
458.5361	2824
461.04	2813
463.5453	2708
466.0478	2859
468.5517	2707
471.0549	2792
473.5574	2800
476.0572	2801
478.5584	2781
481.0568	2817
483.5545	2843
486.0557	2810
488.5521	2734
491.0478	2822
493.5449	2777
496.0392	2811
498.5349	2853
501.0299	2825
503.5222	2821
506.0139	2905
508.5048	2796
510.9991	2855
513.4887	2858
515.9777	2885
518.4659	2831
520.9534	2810
523.4403	2902
525.9306	2971
528.4161	2871
530.9009	2909
533.3851	2844
535.8687	2895
538.3535	2848
540.8356	2857
543.3171	2885
545.7979	2888
548.278	2907
550.7595	2904
553.2383	2901
555.7144	2840
558.1918	2952
560.6685	2830
563.1446	2873
565.6221	2886
568.0968	2924
570.5688	2900
573.0422	2991
575.515	2954
577.989	2988
580.4584	2970
582.9291	2964
585.3991	3046
587.8685	3010
590.3352	2954
592.8052	2953
595.2706	3013
597.7372	2966
600.2033	2993
602.6666	2928
605.1334	3025
607.5953	2905
610.0587	2992
612.5193	2970
614.9814	2984
617.4427	2949
619.9034	2973
622.3615	2939
624.8208	2953
627.2775	2929
629.7335	2901
632.1929	2940
634.6476	2918
637.1016	2925
639.5569	2958
642.0096	2955
644.4637	2939
646.9151	2961
649.3678	2971
651.8179	2990
654.2672	3001
656.7159	3022
659.166	3044
661.6154	3010
664.0622	3011
666.5082	2982
668.9537	2942
671.4005	3074
673.8445	3000
676.288	3055
678.7308	3091
681.1729	2964
683.6163	3021
686.0572	3062
688.4973	3036
690.9368	3085
693.3757	3059
695.8138	3029
698.2534	3070
700.6902	3122
703.1245	3046
705.56	3039
707.9949	3061
710.4311	3063
712.8647	3096
715.2957	3106
717.7279	3108
720.1595	3097
722.5905	3044
725.0208	3155
727.4505	3070
729.8795	3127
732.3058	3097
734.7336	3118
737.1626	3158
739.587	3071
742.0128	3153
744.4359	3200
746.8604	3184
749.2841	3180
751.7073	3243
754.1278	3154
756.5496	3162
758.9688	3265
761.3893	3270
763.8093	3208
766.2285	3239
768.6451	3222
771.0611	3231
773.4784	3278
775.895	3307
778.3091	3155
780.7244	3277
783.1371	3228
785.5493	3234
787.9626	3254
790.3754	3190
792.7856	3234
795.1951	3270
797.6039	3189
800.0121	3276
802.4236	3258
804.8306	3263
807.2369	3210
809.6425	3250
812.0475	3266
814.4538	3251
816.8575	3263
819.2606	3262
821.663	3291
824.0648	3276
826.4659	3292
828.8683	3288
831.2682	3276
833.6674	3362
836.066	3284
838.4639	3243
840.8632	3321
843.2579	3299
845.6539	3370
848.0493	3307
850.444	3316
852.84	3349
855.2315	3398
857.6243	3269
860.0165	3296
862.4081	3397
864.797	3292
867.1892	3378
869.5789	3285
871.9659	3317
874.3542	3410
876.74	3309
879.129	3328
881.5155	3344
883.8994	3354
886.2845	3337
888.6671	3389
891.051	3311
893.4343	3381
895.8169	3366
898.197	3419
900.5783	3370
902.9571	3413
905.3372	3344
907.7167	3409
910.0936	3383
912.4698	3402
914.8474	3480
917.2244	3421
919.5987	3493
921.9744	3519
924.3475	3467
926.72	3499
929.0918	3493
931.4669	3509
933.8375	3465
936.2074	3576
938.5767	3480
940.9454	3644
943.3154	3603
945.6829	3602
948.0497	3759
950.4178	3868
952.7833	3928
955.1483	4105
957.5145	4175
959.8782	4294
962.2412	4291
964.6036	4253
966.9655	4077
969.3266	3941
971.6871	3779
974.0471	3608
976.4064	3577
978.765	3563
981.125	3477
983.4824	3506
985.8373	3371
988.1935	3424
990.549	3376
992.9039	3435
995.2602	3467
997.6119	3439
999.965	3413
1002.317	3451
1004.667	3456
1007.02	3485
1009.371	3563
1011.719	3529
1014.068	3558
1016.415	3488
1018.765	3496
1021.111	3467
1023.458	3577
1025.804	3450
1028.147	3501
1030.49	3571
1032.837	3586
1035.179	3558
1037.522	3539
1039.862	3518
1042.204	3503
1044.546	3524
1046.884	3517
1049.224	3586
1051.562	3483
1053.899	3527
1056.237	3590
1058.575	3522
1060.91	3643
1063.244	3618
1065.58	3634
1067.913	3537
1070.248	3702
1072.579	3612
1074.911	3654
1077.242	3663
1079.572	3603
1081.905	3677
1084.234	3656
1086.562	3554
1088.89	3546
1091.217	3559
1093.544	3552
1095.871	3546
1098.197	3477
1100.521	3507
1102.845	3560
1105.169	3550
1107.491	3579
1109.814	3617
1112.135	3547
1114.456	3566
1116.776	3544
1119.096	3529
1121.415	3607
1123.734	3506
1126.052	3591
1128.369	3580
1130.686	3511
1133.002	3620
1135.318	3617
1137.632	3453
1139.945	3585
1142.258	3589
1144.573	3604
1146.884	3528
1149.196	3581
1151.505	3606
1153.816	3511
1156.124	3642
1158.435	3564
1160.742	3614
1163.051	3591
1165.356	3582
1167.663	3583
1169.97	3508
1172.276	3575
1174.579	3495
1176.881	3602
1179.186	3517
1181.487	3570
1183.79	3602
1186.092	3532
1188.392	3583
1190.691	3653
1192.991	3525
1195.291	3512
1197.588	3604
1199.885	3547
1202.181	3537
1204.479	3626
1206.775	3556
1209.07	3577
1211.363	3579
1213.656	3591
1215.949	3581
1218.241	3605
1220.534	3571
1222.825	3653
1225.115	3601
1227.405	3661
1229.693	3651
1231.984	3664
1234.271	3684
1236.558	3698
1238.845	3708
1241.131	3741
1243.416	3788
1245.703	3741
1247.987	3758
1250.269	3691
1252.552	3827
1254.834	3645
1257.118	3732
1259.399	3789
1261.678	3747
1263.958	3728
1266.237	3720
1268.516	3745
1270.794	3689
1273.072	3783
1275.347	3767
1277.624	3690
1279.899	3635
1282.175	3677
1284.449	3696
1286.722	3611
1288.995	3764
1291.266	3673
1293.54	3650
1295.81	3702
1298.081	3680
1300.35	3684
1302.62	3633
1304.889	3688
1307.156	3660
1309.425	3647
1311.69	3612
1313.957	3701
1316.222	3724
1318.488	3721
1320.751	3692
1323.016	3721
1325.278	3583
1327.54	3689
1329.803	3760
1332.065	3682
1334.325	3613
1336.584	3775
1338.843	3738
1341.101	3715
1343.36	3690
1345.617	3691
1347.876	3629
1350.131	3671
1352.387	3751
1354.643	3712
1356.897	3636
1359.151	3676
1361.403	3723
1363.656	3745
1365.909	3687
1368.16	3650
1370.409	3773
1372.659	3806
1374.909	3708
1377.157	3748
1379.407	3742
1381.655	3699
1383.9	3775
1386.147	3706
1388.393	3741
1390.64	3766
1392.885	3729
1395.127	3746
1397.37	3722
1399.614	3728
1401.854	3729
1404.098	3754
1406.339	3842
1408.578	3695
1410.818	3727
1413.056	3771
1415.297	3832
1417.533	3842
1419.771	3787
1422.006	3791
1424.243	3839
1426.479	3808
1428.715	3793
1430.948	3820
1433.182	3867
1435.414	3812
1437.647	3837
1439.88	3837
1442.11	3886
1444.342	3816
1446.571	3865
1448.799	3845
1451.029	3857
1453.258	3846
1455.485	3878
1457.711	3894
1459.937	3900
1462.164	3897
1464.39	3855
1466.614	3907
1468.838	3765
1471.06	3848
1473.283	3816
1475.506	3796
1477.727	3836
1479.949	3773
1482.169	3806
1484.389	3739
1486.609	3763
1488.828	3803
1491.045	3768
1493.261	3714
1495.477	3775
1497.693	3672
1499.91	3682
1502.125	3769
1504.339	3788
1506.553	3750
1508.766	3781
1510.979	3599
1513.191	3754
1515.402	3722
1517.613	3654
1519.823	3676
1522.033	3676
1524.242	3752
1526.451	3689
1528.657	3800
1530.865	3686
1533.072	3718
1535.278	3782
1537.484	3741
1539.687	3789
1541.892	3771
1544.096	3785
1546.299	3728
1548.502	3781
1550.703	3859
1552.905	3761
1555.104	3771
1557.303	3767
1559.505	3828
1561.703	3771
1563.902	3810
1566.099	3835
1568.295	3818
1570.494	3879
1572.689	3792
1574.883	3886
1577.079	3882
1579.272	3835
1581.467	3817
1583.659	3832
1585.853	3904
1588.044	3846
1590.234	3939
1592.424	3830
1594.615	3896
1596.806	3923
1598.994	3833
1601.182	3856
1603.369	3969
1605.557	3855
1607.744	3885
1609.929	3972
1612.114	3821
1614.298	3833
1616.482	3918
1618.667	3860
1620.85	3828
1623.032	3880
1625.214	3939
1627.395	3943
1629.575	3984
1631.755	3917
1633.935	3989
1636.114	3957
1638.292	3895
1640.471	4035
1642.647	3932
1644.823	3950
1647	3929
1649.175	3905
1651.348	3922
1653.525	3950
1655.698	3956
1657.87	3927
1660.043	3874
1662.213	3987
1664.387	4044
1666.558	4030
1668.727	3960
1670.896	4042
1673.064	3921
1675.233	4029
1677.401	3948
1679.569	3889
1681.735	3926
1683.902	4038
1686.066	3979
1688.233	3939
1690.397	4005
1692.559	3960
1694.723	3933
1696.885	3964
1699.048	3940
1701.21	3889
1703.37	3950
1705.53	3896
1707.689	3910
1709.849	3969
1712.009	3898
1714.166	3906
1716.323	3932
1718.479	3843
1720.634	3892
1722.793	3925
1724.948	3918
1727.102	3880
1729.255	3798
1731.408	3929
1733.562	3957
1735.714	3919
1737.865	3942
1740.016	3998
1742.166	3916
1744.316	3918
1746.467	3911
1748.616	3902
1750.764	3901
1752.911	3922
1755.056	3957
1757.205	3992
1759.35	3972
1761.496	3919
1763.641	3977
1765.785	3907
1767.927	3890
1770.072	3946
1772.214	3898
1774.355	3987
1776.496	3886
1778.637	3947
1780.778	4017
1782.918	4020
1785.057	3961
1787.194	4002
1789.333	3934
1791.472	4019
1793.608	3949
1795.745	4000
1797.879	3937
1800.015	3971
1802.148	3984
1804.284	3864
1806.417	3941
1808.548	4038
1810.682	3983
1812.812	3954
1814.946	3967
1817.075	4001
1819.205	3929
1821.335	3899
1823.463	4035
1825.59	3960
1827.721	4053
1829.847	3953
1831.973	4015
1834.098	3891
1836.223	3992
1838.351	3952
1840.475	3974
1842.598	3932
1844.721	3954
1846.843	3886
1848.966	3923
1851.087	3972
1853.21	3926
1855.33	3979
1857.449	3946
1859.568	3920
1861.688	3905
1863.806	4001
1865.924	3986
1868.039	4035
1870.155	3943
1872.273	3953
1874.388	3902
1876.503	3996
1878.617	3997
1880.73	3991
1882.844	4013
1884.956	3954
1887.068	3878
1889.18	3936
1891.291	3992
1893.4	3963
1895.511	3963
1897.621	3994
1899.73	3949
1901.837	4008
1903.944	3986
1906.053	4039
1908.159	4036
1910.265	4028
1912.369	3977
1914.474	4015
1916.577	3964
1918.683	4080
1920.785	3972
1922.888	4096
1924.989	4036
1927.091	4074
1929.193	4059
1931.294	3960
1933.393	4044
1935.493	3982
1937.59	4017
1939.689	4074
1941.788	4019
1943.884	4017
1945.98	3993
1948.077	4074
1950.171	4034
1952.267	4039
1954.361	4034
1956.455	3999
1958.548	4049
1960.64	4114
1962.733	4064
1964.824	4028
1966.915	4047
1969.005	4022
1971.096	4051
1973.185	4065
1975.275	4069
1977.363	4023
1979.45	3968
1981.537	3986
1983.623	4040
1985.711	3989
1987.796	4007
1989.881	3986
1991.965	4036
1994.047	4039
1996.132	3987
1998.215	3989
2000.297	3888
2002.378	4129
2004.46	3990
2006.54	4036
2008.62	3965
2010.7	4100
2012.779	3972
2014.858	4044
2016.934	4002
2019.013	3976
2021.09	4066
2023.165	4030
2025.241	4039
2027.317	3991
2029.39	4017
2031.466	4020
2033.538	4053
2035.612	4033
2037.683	4070
2039.755	4008
2041.827	4092
2043.898	4051
2045.968	4003
2048.038	4037
2050.106	4036
2052.177	4053
2054.244	4098
2056.313	4005
2058.379	4027
2060.444	4109
2062.511	4097
2064.577	4037
2066.641	4043
2068.705	4040
2070.77	4044
2072.832	4091
2074.896	4101
2076.958	4053
2079.02	4042
2081.081	4012
2083.141	4012
2085.2	4071
2087.261	3986
2089.319	4001
2091.377	4123
2093.435	4021
2095.492	4039
2097.552	4036
2099.607	4044
2101.663	4110
2103.718	4077
2105.771	4083
2107.826	4010
2109.879	4032
2111.932	4114
2113.985	4133
2116.037	4001
2118.088	3975
2120.141	4040
2122.191	4120
2124.239	4107
2126.288	3972
2128.337	4091
2130.387	3994
2132.434	4066
2134.481	4015
2136.528	4102
2138.574	4080
2140.618	4119
2142.665	3966
2144.71	4000
2146.753	4010
2148.797	4107
2150.838	4037
2152.883	4116
2154.923	4018
2156.965	4048
2159.007	4034
2161.046	4137
2163.086	4030
2165.126	4087
2167.163	4033
2169.202	4035
2171.239	4087
2173.277	4078
2175.314	4003
2177.349	3996
2179.385	3998
2181.42	3999
2183.453	4054
2185.49	3987
2187.522	4033
2189.555	4054
2191.586	3943
2193.619	4097
2195.651	4009
2197.682	4018
2199.711	4079
2201.74	4001
2203.769	3968
2205.799	4049
2207.828	3944
2209.855	3965
2211.882	4025
2213.908	4056
2215.934	4098
2217.961	4012
2219.986	4000
2222.01	3974
2224.034	4058
2226.057	3900
2228.08	3951
2230.104	3957
2232.124	4026
2234.145	3990
2236.166	3896
2238.186	3938
2240.207	3907
2242.227	3913
2244.244	3961
2246.262	3958
2248.28	4104
2250.299	3997
2252.314	3925
2254.33	4002
2256.346	4047
2258.36	4013
2260.375	4020
2262.391	3984
2264.403	3951
2266.416	3973
2268.427	4008
2270.44	4093
2272.453	3989
2274.463	3996
2276.474	4036
2278.483	4016
2280.493	4003
2282.501	4013
2284.51	4017
2286.518	4004
2288.524	4006
2290.532	4045
2292.537	3944
2294.544	4039
2296.55	4029
2298.554	4032
2300.557	4040
2302.562	4060
2304.566	4047
2306.568	3969
2308.569	3893
2310.572	4024
2312.573	4019
2314.573	4031
2316.574	3957
2318.573	3977
2320.571	3938
2322.571	3899
2324.569	3964
2326.567	3980
2328.564	4025
2330.56	3873
2332.556	3975
2334.551	3953
2336.546	3964
2338.542	3995
2340.535	3959
2342.529	3980
2344.521	3945
2346.512	4029
2348.505	3944
2350.497	3950
2352.487	3932
2354.478	3850
2356.468	4020
2358.457	3920
2360.446	3979
2362.434	4046
2364.422	3946
2366.408	3919
2368.395	3863
2370.383	4011
2372.369	3999
2374.353	4001
2376.338	3877
2378.321	3934
2380.307	3917
2382.29	3834
2384.272	3884
2386.254	3890
2388.235	3920
2390.218	3904
2392.198	3913
2394.179	3894
2396.157	3814
2398.137	3938
2400.115	3917
2402.095	3908
2404.072	3988
2406.048	3931
2408.026	3948
2410.001	3952
2411.977	3958
2413.953	3926
2415.927	3920
2417.9	3919
2419.875	3956
2421.847	3924
2423.821	3953
2425.792	3911
2427.763	3927
2429.736	3845
2431.706	3991
2433.677	3902
2435.646	3898
2437.615	3958
2439.583	3936
2441.551	3998
2443.519	3927
2445.486	3857
2447.452	3930
2449.418	3927
2451.383	3926
2453.348	3888
2455.314	3938
2457.278	3960
2459.241	3894
2461.205	3898
2463.167	3934
2465.131	3964
2467.091	3853
2469.052	3979
2471.012	3930
2472.972	3866
2474.932	3885
2476.891	3913
2478.85	3952
2480.808	3902
2482.766	3899
2484.722	3959
2486.68	3920
2488.636	3885
2490.591	3896
2492.546	3803
2494.5	3928
2496.456	3867
2498.41	3822
2500.362	3898
2502.315	3786
2504.266	3918
2506.218	3893
2508.169	3921
2510.121	3896
2512.07	3803
2514.019	3862
2515.968	3963
2517.918	3905
2519.866	3822
2521.813	3868
2523.76	3934
2525.707	3900
2527.653	3912
2529.599	3925
2531.543	3921
2533.489	3839
2535.433	3839
2537.376	3820
2539.32	3839
2541.264	3921
2543.205	3925
2545.147	3894
2547.087	3840
2549.029	3870
2550.969	3811
2552.908	3913
2554.847	3956
2556.786	3846
2558.724	3840
2560.663	3889
2562.6	3907
2564.537	3833
2566.473	3960
2568.408	3812
2570.345	3956
2572.28	3963
2574.214	3916
2576.148	3861
2578.081	3853
2580.014	3869
2581.947	3948
2583.879	3965
2585.81	3824
2587.741	3915
2589.67	3842
2591.602	3820
2593.532	3885
2595.461	3810
2597.388	3900
2599.316	3907
2601.244	3924
2603.172	3965
2605.098	3965
2607.023	3873
2608.949	3981
2610.873	3889
2612.8	3962
2614.723	3890
2616.647	3954
2618.569	3926
2620.493	3947
2622.416	3894
2624.338	3945
2626.258	3986
2628.179	3905
2630.099	3892
2632.019	3860
2633.939	3867
2635.857	3924
2637.775	3911
2639.694	3886
2641.61	3973
2643.528	3888
2645.444	3939
2647.361	3894
2649.276	3939
2651.19	3933
2653.105	3917
2655.019	3941
2656.934	3870
2658.846	3916
2660.758	3964
2662.67	3960
2664.583	3971
2666.493	3875
2668.404	3893
2670.313	3937
2672.223	3952
2674.134	3900
2676.042	3881
2677.95	3936
2679.858	3934
2681.765	3947
2683.673	3989
2685.579	3900
2687.483	3858
2689.389	3870
2691.294	3932
2693.198	3839
2695.104	3864
2697.006	3990
2698.909	3955
2700.811	3862
2702.713	3745
2704.615	3863
2706.516	3898
2708.417	3816
2710.316	3856
2712.216	3823
2714.115	3882
2716.014	3938
2717.913	3865
2719.81	3879
2721.707	3796
2723.603	3871
2725.501	3914
2727.396	3819
2729.292	3887
2731.186	3862
2733.081	3877
2734.976	3801
2736.87	3890
2738.762	3885
2740.653	3868
2742.546	3847
2744.437	3842
2746.329	3841
2748.22	3856
2750.11	3890
2751.999	3904
2753.889	3843
2755.778	3894
2757.666	3854
2759.553	3920
2761.44	3741
2763.328	3951
2765.215	3893
2767.101	3790
2768.986	3805
2770.87	3800
2772.754	3825
2774.638	3890
2776.523	3812
2778.405	3883
2780.288	3922
2782.17	3834
2784.051	3836
2785.934	3918
2787.814	3835
2789.694	3792
2791.574	3874
2793.453	3844
2795.332	3800
2797.212	3861
2799.088	3862
2800.966	3836
2802.843	3765
2804.719	3802
2806.597	3875
2808.471	3897
2810.346	3815
2812.221	3881
2814.094	3856
2815.969	3876
2817.843	3739
2819.714	3838
2821.587	3922
2823.459	3829
2825.329	3764
2827.202	3839
2829.072	3794
2830.942	3876
2832.811	3882
2834.68	3821
2836.549	3825
2838.418	3843
2840.284	3851
2842.152	3840
2844.018	3912
2845.885	3803
2847.751	3862
2849.616	3816
2851.482	3871
2853.345	3851
2855.208	3884
2857.074	3758
2858.937	3853
2860.799	3908
2862.66	4051
2864.522	3952
2866.385	3943
2868.245	3960
2870.104	4015
2871.964	3996
2873.824	4036
2875.683	4127
2877.542	4018
2879.4	4084
2881.257	4091
2883.114	4149
2884.97	4149
2886.827	4113
2888.683	4112
2890.537	4188
2892.392	4069
2894.246	4240
2896.1	4108
2897.954	4092
2899.807	4062
2901.66	4108
2903.51	4213
2905.362	4194
2907.214	4170
2909.065	4171
2910.915	4159
2912.765	4210
2914.613	4286
2916.463	4292
2918.311	4245
2920.158	4279
2922.006	4367
2923.853	4321
2925.698	4368
2927.546	4375
2929.392	4394
2931.236	4422
2933.081	4424
2934.924	4500
2936.77	4436
2938.613	4526
2940.455	4590
2942.298	4589
2944.139	4519
2945.982	4674
2947.823	4567
2949.662	4572
2951.503	4541
2953.342	4437
2955.182	4476
2957.021	4522
2958.858	4456
2960.697	4372
2962.534	4337
2964.37	4403
2966.207	4356
2968.044	4282
2969.879	4309
2971.714	4228
2973.548	4093
2975.383	4178
2977.218	4234
2979.051	4207
2980.883	4052
2982.715	4085
2984.547	4094
2986.379	4122
2988.21	4117
2990.04	4137
2991.87	4132
2993.7	4002
2995.53	4018
2997.359	3985
2999.187	4029
3001.015	3954
3002.842	3907
3004.669	3968
3006.497	3976
3008.323	3881
3010.148	3880
3011.974	3815
3013.797	3809
3015.623	3747
3017.447	3740
3019.27	3774
3021.094	3773
3022.915	3751
3024.737	3839
3026.56	3816
3028.38	3743
3030.201	3695
3032.022	3738
3033.84	3761
3035.662	3736
3037.481	3745
3039.298	3742
3041.117	3727
3042.933	3716
3044.752	3643
3046.568	3764
3048.385	3675
3050.2	3728
3052.016	3672
3053.83	3594
3055.646	3756
3057.46	3763
3059.272	3650
3061.086	3739
3062.898	3665
3064.711	3659
3066.524	3701
3068.335	3685
3070.145	3679
3071.956	3696
3073.766	3710
3075.576	3677
3077.385	3644
3079.193	3638
3081.002	3655
3082.81	3644
3084.618	3601
3086.425	3726
3088.231	3767
3090.036	3608
3091.842	3642
3093.648	3610
3095.452	3631
3097.257	3570
3099.06	3595
3100.863	3578
3102.666	3717
3104.47	3618
3106.272	3614
3108.073	3561
3109.875	3718
3111.676	3694
3113.477	3580
3115.277	3676
3117.077	3572
3118.874	3554
3120.673	3644
3122.473	3570
3124.271	3574
3126.066	3560
3127.863	3598
3129.66	3597
3131.456	3578
3133.252	3554
3135.047	3577
3136.842	3531
3138.635	3573
3140.429	3559
3142.223	3641
3144.016	3544
3145.808	3579
3147.6	3526
3149.392	3610
3151.183	3511
3152.975	3518
3154.765	3658
3156.553	3478
3158.344	3568
3160.132	3522
3161.922	3538
3163.71	3540
3165.497	3572
3167.285	3548
3169.071	3581
3170.858	3510
3172.645	3605
3174.429	3525
3176.214	3562
3177.998	3526
3179.783	3500
3181.568	3504
3183.351	3517
3185.133	3610
3186.915	3524
3188.698	3496
3190.481	3443
3192.261	3386
3194.042	3501
3195.822	3586
3197.601	3517
3199.381	3425
3201.161	3568
3202.939	3619
3204.717	3490
3206.495	3524
3208.272	3519
3210.05	3417
3211.826	3536
3213.602	3523
3215.376	3517
3217.151	3514
3218.927	3463
3220.702	3457
3222.476	3512
3224.249	3431
3226.021	3498
3227.793	3496
3229.567	3499
3231.339	3615
3233.109	3487
3234.88	3446
3236.651	3600
3238.421	3487
3240.191	3532
3241.96	3484
3243.728	3470
3245.497	3496
3247.263	3500
3249.033	3466
3250.799	3467
3252.566	3405
3254.331	3454
3256.097	3499
3257.863	3442
3259.628	3593
3261.392	3583
3263.156	3489
3264.919	3465
3266.683	3472
3268.447	3481
3270.208	3455
3271.969	3563
3273.731	3500
3275.492	3442
3277.253	3475
3279.013	3476
3280.773	3473
3282.532	3490
3284.291	3486
3286.05	3513
3287.808	3470
3289.566	3558
3291.323	3452
3293.079	3475
3294.835	3599
3296.593	3620
3298.348	3477
3300.102	3466
3301.857	3551
3303.611	3483
3305.366	3442
3307.119	3482
3308.872	3476
3310.624	3586
3312.376	3465
3314.129	3483
3315.881	3540
3317.631	3438
3319.38	3581
3321.13	3445
3322.88	3432
3324.631	3483
3326.379	3458
3328.126	3495
3329.875	3478
3331.622	3447
3333.371	3437
3335.116	3405
3336.863	3389
3338.609	3418
3340.353	3469
3342.1	3456
3343.845	3500
3345.588	3464
3347.332	3446
3349.074	3429
3350.817	3418
3352.56	3455
3354.303	3468
3356.043	3420
3357.785	3418
3359.525	3461
3361.268	3509
3363.007	3514
3364.745	3504
3366.485	3525
3368.223	3396
3369.962	3469
3371.701	3374
3373.438	3389
3375.174	3393
3376.911	3435
3378.647	3439
3380.384	3465
3382.118	3352
3383.854	3416
3385.588	3485
3387.322	3504
3389.057	3408
3390.79	3427
3392.522	3370
3394.255	3444
3395.987	3474
3397.719	3376
3399.451	3455
3401.181	3413
3402.911	3347
3404.641	3351
3406.371	3282
3408.101	3443
3409.83	3346
3411.558	3358
3413.285	3354
3415.011	3312
3416.739	3430
3418.467	3407
3420.193	3345
3421.919	3433
3423.644	3411
3425.368	3377
3427.094	3423
3428.818	3376
3430.542	3369
3432.264	3377
3433.987	3401
3435.712	3373
3437.434	3363
3439.155	3362
3440.876	3355
3442.596	3300
3444.317	3344
3446.039	3277
3447.757	3297
3449.477	3320
3451.195	3201
3452.914	3391
3454.632	3291
3456.35	3330
3458.067	3257
3459.784	3277
3461.5	3372
3463.216	3263
3464.932	3332
3466.647	3299
3468.362	3325
3470.076	3214
3471.789	3251
3473.505	3319
3475.217	3376
3476.929	3251
3478.641	3225
3480.354	3241
3482.066	3245
3483.777	3287
3485.487	3193
3487.197	3220
3488.908	3360
3490.617	3219
3492.327	3194
3494.035	3195
3495.743	3169
3497.451	3284
3499.158	3220
3500.866	3252
3502.572	3150
3504.278	3225
3505.984	3199
3507.689	3206
3509.396	3154
3511.1	3206
3512.804	3199
3514.508	3149
3516.211	3215
3517.913	3267
3519.616	3244
3521.319	3113
3523.021	3210
3524.722	3189
3526.422	3202
3528.124	3222
3529.824	3114
3531.524	3195
3533.222	3183
3534.921	3098
3536.62	3206
3538.318	3194
3540.016	3150
3541.714	3178
3543.41	3108
3545.107	3173
3546.803	3163
3548.5	3163
3550.194	3152
3551.889	3093
3553.583	3162
3555.279	3159
3556.972	3083
3558.666	3122
3560.358	3116
3562.051	3132
3563.742	3155
3565.435	3163
3567.126	3165
3568.817	3116
3570.507	3149
3572.197	3123
3573.888	3079
3575.577	3107
3577.265	3121
3578.954	3048
3580.642	3185
3582.329	3090
3584.017	3156
3585.704	3116
3587.391	3080
3589.077	3110
3590.762	3050
3592.449	3101
3594.133	3105
3595.817	3065
3597.501	2988
3599.185	3072
3600.869	3096
3602.552	3043
3604.234	3057
3605.916	3150
3607.598	3126
3609.279	3022
3610.961	3021
3612.642	3048
3614.321	3034
3616	3013
3617.68	3032
3619.36	2983
3621.039	3003
3622.716	3059
3624.394	3014
3626.071	3011
3627.748	3009
3629.425	3023
3631.102	2942
3632.778	2985
3634.452	3039
3636.127	2919
3637.803	2974
3639.477	2975
3641.151	2971
3642.823	2961
3644.497	2924
3646.171	2986
3647.842	3001
3649.515	2919
3651.185	3072
3652.857	2929
3654.527	2943
3656.198	2927
3657.868	2977
3659.537	2934
3661.207	2956
3662.875	2958
3664.544	3015
3666.212	3007
3667.879	2993
3669.546	2964
3671.212	2979
3672.88	2933
3674.546	2960
3676.211	3000
3677.875	2979
3679.541	2919
3681.205	2949
3682.87	2928
3684.533	2968
3686.196	2909
3687.859	2919
3689.521	2909
3691.184	2935
3692.845	2895
3694.507	2897
3696.167	2878
3697.827	2884
3699.487	2882
3701.148	2924
3702.808	2933
3704.466	2951
3706.125	2943
3707.783	2853
3709.442	2876
3711.099	2853
3712.757	2913
3714.412	2920
3716.068	2910
3717.725	2965
3719.381	2891
3721.036	2870
3722.689	2952
3724.344	2823
3725.998	2911
3727.652	2931
3729.305	2886
3730.958	2913
3732.61	2946
3734.262	2849
3735.915	2898
3737.565	2885
3739.217	2978
3740.866	2887
3742.516	2878
3744.165	2879
3745.816	2832
3747.464	2925
3749.113	2857
3750.761	2838
3752.409	2909
3754.057	2869
3755.703	2823
3757.35	2824
3758.996	2762
3760.641	2882
3762.289	2797
3763.933	2811
3765.577	2805
3767.222	2826
3768.865	2879
3770.508	2810
3772.152	2884
3773.796	2817
3775.438	2848
3777.079	2752
3778.721	2810
3780.363	2822
3782.003	2749
3783.643	2893
3785.283	2903
3786.923	2790
3788.563	2764
3790.203	2764
3791.841	2830
3793.479	2784
3795.115	2833
3796.753	2817
3798.391	2803
3800.027	2757
3801.664	2756
3803.299	2768
3804.935	2722
3806.571	2739
3808.206	2785
3809.839	2776
3811.473	2828
3813.107	2737
3814.74	2767
3816.375	2736
3818.006	2778
3819.638	2705
3821.27	2718
3822.9	2783
3824.532	2700
3826.163	2781
3827.792	2746
3829.423	2727
3831.051	2798
3832.682	2733
3834.311	2811
3835.938	2712
3837.566	2747
3839.193	2732
3840.821	2702
3842.448	2747
3844.075	2756
3845.7	2701
3847.325	2702
3848.951	2722
3850.576	2748
3852.201	2655
3853.825	2767
3855.448	2743
3857.072	2691
3858.694	2772
3860.318	2727
3861.939	2736
3863.562	2630
3865.183	2656
3866.804	2665
3868.426	2690
3870.045	2759
3871.666	2709
3873.285	2685
3874.904	2694
3876.524	2651
3878.142	2704
3879.76	2718
3881.378	2746
3882.995	2686
3884.612	2709
3886.229	2698
3887.845	2671
3889.461	2722
3891.076	2768
3892.691	2662
3894.307	2695
3895.922	2701
3897.536	2697
3899.149	2677
3900.761	2664
3902.374	2702
3903.988	2663
3905.6	2705
3907.212	2687
3908.822	2626
3910.433	2684
3912.045	2687
3913.655	2658
3915.265	2576
3916.875	2643
3918.483	2584
3920.093	2646
3921.702	2678
3923.309	2660
3924.917	2664
3926.523	2690
3928.13	2614
3929.739	2684
3931.344	2666
3932.95	2628
3934.555	2627
3936.159	2572
3937.766	2603
3939.369	2613
3940.974	2653
3942.577	2623
3944.181	2641
3945.783	2616
3947.386	2644
3948.989	2683
3950.59	2604
3952.191	2579
3953.791	2617
3955.394	2648
3956.994	2644
3958.593	2644
3960.192	2626
3961.791	2586
3963.392	2564
3964.99	2555
3966.588	2595
3968.185	2626
3969.782	2623
3971.379	2631
3972.976	2641
3974.572	2552
3976.168	2629
3977.763	2598
3979.358	2577
3980.954	2615
3982.548	2578
3984.142	2561
3985.736	2556
3987.329	2568
3988.922	2504
3990.516	2616
3992.108	2533
3993.698	2536
3995.29	2592
3996.881	2522
3998.473	2522
4000.064	2511
4001.653	2553
4003.242	2515
4004.832	2551
4006.422	2560
4008.01	2529
4009.598	2532
4011.186	2501
4012.773	2504
4014.36	2519
4015.947	2576
4017.534	2538
4019.119	2500
4020.705	2519
4022.291	2518
4023.876	2541
4025.461	2468
4027.044	2520
4028.627	2483
4030.211	2496
4031.795	2446
4033.378	2527
4034.96	2581
4036.542	2508
4038.124	2446
4039.704	2526
4041.286	2542
4042.867	2560
4044.447	2533
4046.026	2417
4047.606	2432
4049.187	2473
4050.765	2514
4052.343	2514
4053.92	2463
4055.498	2433
4057.076	2513
4058.654	2476
4060.23	2455
4061.806	2498
4063.381	2518
4064.957	2458
4066.533	2471
4068.107	2496
4069.682	2486
4071.256	2396
4072.829	2433
4074.404	2463
4075.977	2424
4077.549	2514
4079.121	2393
4080.693	2466
4082.265	2483
4083.836	2381
4085.407	2447
4086.977	2382
4088.547	2454
4090.117	2400
4091.687	2420
4093.256	2437
4094.825	2423
4096.392	2389
4097.96	2460
4099.528	2408
4101.097	2457
4102.663	2366
4104.229	2513
4105.795	2449
4107.361	2414
4108.928	2405
4110.493	2438
4112.058	2371
4113.621	2406
4115.186	2351
4116.75	2385
4118.313	2385
4119.876	2362
4121.438	2390
4123	2363
4124.562	2409
4126.125	2381
4127.686	2375
4129.246	2349
4130.807	2363
4132.367	2375
4133.927	2430
4135.486	2407
4137.046	2445
4138.604	2347
4140.162	2349
4141.72	2377
4143.279	2383
4144.836	2384
4146.393	2351
4147.949	2420
4149.505	2318
4151.062	2312
4152.617	2343
4154.172	2269
4155.727	2409
4157.281	2355
4158.836	2396
4160.39	2331
4161.943	2387
4163.496	2328
4165.048	2342
4166.601	2318
4168.154	2303
4169.706	2341
4171.257	2319
4172.808	2326
4174.358	2303
4175.909	2294
4177.458	2308
4179.008	2315
4180.558	2253
4182.106	2298
4183.655	2270
4185.204	2296
4186.751	2325
4188.298	2299
4189.845	2250
4191.392	2266
4192.939	2292
4194.485	2354
4196.031	2309
4197.576	2305
4199.121	2269
4200.666	2305
4202.211	2285
4203.754	2290
4205.298	2184
4206.84	2299
4208.384	2297
4209.927	2302
4211.47	2341
4213.011	2236
4214.552	2271
4216.094	2277
4217.635	2238
4219.175	2216
4220.716	2292
4222.255	2289
4223.793	2282
4225.335	2291
4226.873	2265
4228.411	2272
4229.948	2258
4231.486	2260
4233.024	2274
4234.562	2249
4236.098	2195
4237.634	2325
4239.169	2250
4240.705	2189
4242.241	2204
4243.776	2231
4245.31	2222
4246.844	2241
4248.378	2211
4249.911	2272
4251.445	2296
4252.978	2197
4254.51	2217
4256.042	2221
4257.574	2216
4259.107	2207
4260.638	2211
4262.169	2287
4263.699	2254
4265.228	2207
4266.759	2252
4268.289	2229
4269.818	2149
4271.345	2234
4272.874	2243
4274.402	2223
4275.931	2252
4277.458	2190
4278.985	2201
4280.512	2159
4282.037	2242
4283.564	2196
4285.089	2280
4286.615	2242
4288.139	2174
4289.664	2189
4291.187	2180
4292.712	2178
4294.235	2199
4295.759	2182
4297.281	2191
4298.804	2224
4300.327	2161
4301.849	2133
4303.37	2175
4304.891	2191
4306.412	2201
4307.933	2230
4309.453	2118
4310.973	2184
4312.492	2122
