398.1873	2950
400.7097	2998
403.2336	2928
405.7547	2896
408.2751	2911
410.7948	3015
413.3138	2838
415.83	2948
418.3497	3001
420.8666	2966
423.3829	2922
425.8985	3004
428.4133	3126
430.9275	3149
433.441	3187
435.9538	3105
438.4639	3104
440.9753	3054
443.4881	3076
445.9982	3033
448.5055	3042
451.0142	3067
453.5201	3047
456.0274	3106
458.5361	3013
461.04	3016
463.5453	3051
466.0478	3083
468.5517	3124
471.0549	3086
473.5574	3036
476.0572	3045
478.5584	3122
481.0568	3051
483.5545	3196
486.0557	3058
488.5521	3064
491.0478	3096
493.5449	3113
496.0392	3145
498.5349	3159
501.0299	3186
503.5222	3155
506.0139	3176
508.5048	3156
510.9991	3156
513.4887	3180
515.9777	3247
518.4659	3207
520.9534	3124
523.4403	3156
525.9306	3198
528.4161	3181
530.9009	3231
533.3851	3253
535.8687	3139
538.3535	3218
540.8356	3165
543.3171	3186
545.7979	3240
548.278	3137
550.7595	3129
553.2383	3171
555.7144	3247
558.1918	3203
560.6685	3267
563.1446	3235
565.6221	3279
568.0968	3260
570.5688	3191
573.0422	3219
575.515	3372
577.989	3240
580.4584	3295
582.9291	3309
585.3991	3326
587.8685	3371
590.3352	3336
592.8052	3286
595.2706	3394
597.7372	3297
600.2033	3313
602.6666	3365
605.1334	3250
607.5953	3277
610.0587	3227
612.5193	3262
614.9814	3279
617.4427	3263
619.9034	3296
622.3615	3362
624.8208	3289
627.2775	3215
629.7335	3327
632.1929	3311
634.6476	3339
637.1016	3240
639.5569	3292
642.0096	3345
644.4637	3367
646.9151	3314
649.3678	3255
651.8179	3285
654.2672	3278
656.7159	3286
659.166	3383
661.6154	3381
664.0622	3391
666.5082	3326
668.9537	3366
671.4005	3294
673.8445	3323
676.288	3386
678.7308	3410
681.1729	3331
683.6163	3421
686.0572	3421
688.4973	3348
690.9368	3397
693.3757	3353
695.8138	3423
698.2534	3419
700.6902	3415
703.1245	3383
705.56	3409
707.9949	3424
710.4311	3386
712.8647	3468
715.2957	3509
717.7279	3476
720.1595	3419
722.5905	3528
725.0208	3522
727.4505	3429
729.8795	3482
732.3058	3430
734.7336	3490
737.1626	3474
739.587	3583
742.0128	3546
744.4359	3488
746.8604	3533
749.2841	3652
751.7073	3571
754.1278	3634
756.5496	3592
758.9688	3506
761.3893	3647
763.8093	3540
766.2285	3554
768.6451	3609
771.0611	3661
773.4784	3637
775.895	3607
778.3091	3666
780.7244	3602
783.1371	3597
785.5493	3784
787.9626	3589
790.3754	3667
792.7856	3667
795.1951	3674
797.6039	3629
800.0121	3669
802.4236	3653
804.8306	3656
807.2369	3640
809.6425	3695
812.0475	3603
814.4538	3672
816.8575	3653
819.2606	3682
821.663	3653
824.0648	3676
826.4659	3758
828.8683	3614
831.2682	3696
833.6674	3667
836.066	3710
838.4639	3713
840.8632	3696
843.2579	3684
845.6539	3662
848.0493	3772
850.444	3735
852.84	3680
855.2315	3695
857.6243	3738
860.0165	3750
862.4081	3726
864.797	3694
867.1892	3683
869.5789	3742
871.9659	3708
874.3542	3754
876.74	3768
879.129	3666
881.5155	3766
883.8994	3661
886.2845	3712
888.6671	3630
891.051	3793
893.4343	3756
895.8169	3785
898.197	3726
900.5783	3726
902.9571	3761
905.3372	3707
907.7167	3724
910.0936	3735
912.4698	3833
914.8474	3761
917.2244	3884
919.5987	3855
921.9744	3917
924.3475	3898
926.72	3856
929.0918	3830
931.4669	3847
933.8375	3972
936.2074	3874
938.5767	4024
940.9454	3973
943.3154	3996
945.6829	4029
948.0497	4130
950.4178	4223
952.7833	4411
955.1483	4578
957.5145	4644
959.8782	4753
962.2412	4703
964.6036	4685
966.9655	4427
969.3266	4303
971.6871	4244
974.0471	4060
976.4064	3992
978.765	3996
981.125	3901
983.4824	3859
985.8373	3863
988.1935	3891
990.549	3868
992.9039	3909
995.2602	3866
997.6119	3872
999.965	3925
1002.317	3858
1004.667	3871
1007.02	3922
1009.371	3902
1011.719	3855
1014.068	3829
1016.415	3867
1018.765	3888
1021.111	3930
1023.458	4017
1025.804	3961
1028.147	3901
1030.49	3943
1032.837	3896
1035.179	3978
1037.522	3967
1039.862	4033
1042.204	4038
1044.546	3906
1046.884	3905
1049.224	4016
1051.562	3967
1053.899	3976
1056.237	4056
1058.575	3973
1060.91	4072
1063.244	4062
1065.58	4044
1067.913	3969
1070.248	4029
1072.579	4134
1074.911	4072
1077.242	4061
1079.572	4037
1081.905	4014
1084.234	4041
1086.562	3952
1088.89	4044
1091.217	3959
1093.544	4017
1095.871	3954
1098.197	3961
1100.521	3927
1102.845	3999
1105.169	3967
1107.491	4026
1109.814	3982
1112.135	3994
1114.456	3994
1116.776	3986
1119.096	4000
1121.415	3938
1123.734	3911
1126.052	4032
1128.369	4059
1130.686	3965
1133.002	4025
1135.318	3909
1137.632	4011
1139.945	3991
1142.258	4007
1144.573	4090
1146.884	3965
1149.196	4044
1151.505	4043
1153.816	4006
1156.124	4039
1158.435	4038
1160.742	3999
1163.051	4005
1165.356	4087
1167.663	3980
1169.97	4012
1172.276	4053
1174.579	4019
1176.881	4059
1179.186	4032
1181.487	4038
1183.79	3952
1186.092	4060
1188.392	3995
1190.691	3974
1192.991	4042
1195.291	4061
1197.588	3945
1199.885	3957
1202.181	4060
1204.479	4003
1206.775	4077
1209.07	4135
1211.363	4092
1213.656	3981
1215.949	4082
1218.241	4064
1220.534	4053
1222.825	4032
1225.115	4062
1227.405	4040
1229.693	4045
1231.984	4194
1234.271	4153
1236.558	4091
1238.845	4142
1241.131	4211
1243.416	4127
1245.703	4034
1247.987	4130
1250.269	4165
1252.552	4189
1254.834	4214
1257.118	4215
1259.399	4170
1261.678	4078
1263.958	4166
1266.237	4226
1268.516	4180
1270.794	4150
1273.072	4211
1275.347	4192
1277.624	4111
1279.899	4125
1282.175	4203
1284.449	4208
1286.722	4194
1288.995	4118
1291.266	4135
1293.54	4141
1295.81	4164
1298.081	4109
1300.35	4160
1302.62	4101
1304.889	4134
1307.156	4159
1309.425	4243
1311.69	4148
1313.957	4185
1316.222	4157
1318.488	4128
1320.751	4153
1323.016	4157
1325.278	4145
1327.54	4174
1329.803	4146
1332.065	4116
1334.325	4126
1336.584	4097
1338.843	4169
1341.101	4180
1343.36	4193
1345.617	4183
1347.876	4249
1350.131	4214
1352.387	4168
1354.643	4110
1356.897	4176
1359.151	4245
1361.403	4188
1363.656	4203
1365.909	4105
1368.16	4162
1370.409	4141
1372.659	4237
1374.909	4235
1377.157	4192
1379.407	4197
1381.655	4220
1383.9	4234
1386.147	4219
1388.393	4283
1390.64	4280
1392.885	4247
1395.127	4175
1397.37	4208
1399.614	4237
1401.854	4294
1404.098	4338
1406.339	4329
1408.578	4249
1410.818	4211
1413.056	4279
1415.297	4248
1417.533	4307
1419.771	4221
1422.006	4286
1424.243	4354
1426.479	4369
1428.715	4318
1430.948	4357
1433.182	4421
1435.414	4272
1437.647	4334
1439.88	4294
1442.11	4356
1444.342	4394
1446.571	4291
1448.799	4339
1451.029	4395
1453.258	4384
1455.485	4459
1457.711	4373
1459.937	4434
1462.164	4416
1464.39	4297
1466.614	4402
1468.838	4303
1471.06	4303
1473.283	4398
1475.506	4306
1477.727	4293
1479.949	4202
1482.169	4370
1484.389	4260
1486.609	4192
1488.828	4201
1491.045	4318
1493.261	4265
1495.477	4198
1497.693	4215
1499.91	4252
1502.125	4195
1504.339	4219
1506.553	4184
1508.766	4200
1510.979	4340
1513.191	4308
1515.402	4179
1517.613	4315
1519.823	4236
1522.033	4264
1524.242	4324
1526.451	4296
1528.657	4141
1530.865	4284
1533.072	4227
1535.278	4192
1537.484	4321
1539.687	4247
1541.892	4286
1544.096	4275
1546.299	4283
1548.502	4344
1550.703	4248
1552.905	4259
1555.104	4229
1557.303	4344
1559.505	4342
1561.703	4424
1563.902	4259
1566.099	4278
1568.295	4345
1570.494	4294
1572.689	4334
1574.883	4410
1577.079	4412
1579.272	4371
1581.467	4370
1583.659	4478
1585.853	4375
1588.044	4358
1590.234	4434
1592.424	4251
1594.615	4457
1596.806	4279
1598.994	4453
1601.182	4429
1603.369	4414
1605.557	4447
1607.744	4396
1609.929	4478
1612.114	4365
1614.298	4475
1616.482	4332
1618.667	4468
1620.85	4401
1623.032	4362
1625.214	4402
1627.395	4428
1629.575	4545
1631.755	4470
1633.935	4386
1636.114	4413
1638.292	4434
1640.471	4499
1642.647	4475
1644.823	4470
1647	4445
1649.175	4450
1651.348	4486
1653.525	4430
1655.698	4507
1657.87	4588
1660.043	4493
1662.213	4523
1664.387	4460
1666.558	4382
1668.727	4542
1670.896	4519
1673.064	4520
1675.233	4597
1677.401	4625
1679.569	4528
1681.735	4515
1683.902	4524
1686.066	4540
1688.233	4394
1690.397	4505
1692.559	4453
1694.723	4472
1696.885	4556
1699.048	4437
1701.21	4479
1703.37	4512
1705.53	4429
1707.689	4427
1709.849	4400
1712.009	4468
1714.166	4372
1716.323	4383
1718.479	4398
1720.634	4412
1722.793	4369
1724.948	4474
1727.102	4408
1729.255	4444
1731.408	4445
1733.562	4532
1735.714	4428
1737.865	4521
1740.016	4440
1742.166	4464
1744.316	4354
1746.467	4350
1748.616	4407
1750.764	4441
1752.911	4479
1755.056	4422
1757.205	4419
1759.35	4423
1761.496	4477
1763.641	4484
1765.785	4452
1767.927	4580
1770.072	4400
1772.214	4532
1774.355	4458
1776.496	4518
1778.637	4466
1780.778	4462
1782.918	4479
1785.057	4502
1787.194	4430
1789.333	4504
1791.472	4516
1793.608	4553
1795.745	4488
1797.879	4461
1800.015	4493
1802.148	4438
1804.284	4487
1806.417	4509
1808.548	4620
1810.682	4425
1812.812	4546
1814.946	4526
1817.075	4452
1819.205	4616
1821.335	4529
1823.463	4575
1825.59	4497
1827.721	4400
1829.847	4538
1831.973	4553
1834.098	4512
1836.223	4549
1838.351	4519
1840.475	4539
1842.598	4511
1844.721	4437
1846.843	4445
1848.966	4496
1851.087	4519
1853.21	4466
1855.33	4396
1857.449	4533
1859.568	4462
1861.688	4479
1863.806	4512
1865.924	4487
1868.039	4435
1870.155	4509
1872.273	4511
1874.388	4519
1876.503	4538
1878.617	4523
1880.73	4566
1882.844	4589
1884.956	4506
1887.068	4435
1889.18	4512
1891.291	4501
1893.4	4491
1895.511	4497
1897.621	4527
1899.73	4593
1901.837	4539
1903.944	4516
1906.053	4544
1908.159	4503
1910.265	4544
1912.369	4477
1914.474	4624
1916.577	4576
1918.683	4515
1920.785	4519
1922.888	4509
1924.989	4487
1927.091	4613
1929.193	4628
1931.294	4584
1933.393	4530
1935.493	4550
1937.59	4609
1939.689	4685
1941.788	4517
1943.884	4533
1945.98	4567
1948.077	4627
1950.171	4660
1952.267	4602
1954.361	4555
1956.455	4662
1958.548	4611
1960.64	4596
1962.733	4510
1964.824	4634
1966.915	4572
1969.005	4665
1971.096	4532
1973.185	4652
1975.275	4538
1977.363	4583
1979.45	4623
1981.537	4585
1983.623	4466
1985.711	4555
1987.796	4571
1989.881	4650
1991.965	4626
1994.047	4605
1996.132	4602
1998.215	4672
2000.297	4518
2002.378	4499
2004.46	4555
2006.54	4510
2008.62	4560
2010.7	4577
2012.779	4649
2014.858	4554
2016.934	4531
2019.013	4609
2021.09	4491
2023.165	4593
2025.241	4547
2027.317	4609
2029.39	4518
2031.466	4583
2033.538	4587
2035.612	4635
2037.683	4639
2039.755	4538
2041.827	4544
2043.898	4601
2045.968	4552
2048.038	4629
2050.106	4677
2052.177	4606
2054.244	4617
2056.313	4533
2058.379	4662
2060.444	4595
2062.511	4619
2064.577	4559
2066.641	4584
2068.705	4702
2070.77	4612
2072.832	4531
2074.896	4576
2076.958	4516
2079.02	4520
2081.081	4552
2083.141	4661
2085.2	4618
2087.261	4689
2089.319	4627
2091.377	4623
2093.435	4602
2095.492	4649
2097.552	4583
2099.607	4682
2101.663	4592
2103.718	4630
2105.771	4621
2107.826	4627
2109.879	4593
2111.932	4649
2113.985	4666
2116.037	4560
2118.088	4581
2120.141	4620
2122.191	4622
2124.239	4564
2126.288	4564
2128.337	4603
2130.387	4554
2132.434	4624
2134.481	4539
2136.528	4775
2138.574	4721
2140.618	4536
2142.665	4746
2144.71	4599
2146.753	4615
2148.797	4560
2150.838	4582
2152.883	4621
2154.923	4656
2156.965	4593
2159.007	4659
2161.046	4499
2163.086	4464
2165.126	4625
2167.163	4514
2169.202	4552
2171.239	4637
2173.277	4638
2175.314	4587
2177.349	4585
2179.385	4551
2181.42	4525
2183.453	4549
2185.49	4544
2187.522	4534
2189.555	4624
2191.586	4566
2193.619	4674
2195.651	4566
2197.682	4543
2199.711	4565
2201.74	4579
2203.769	4628
2205.799	4456
2207.828	4526
2209.855	4556
2211.882	4547
2213.908	4530
2215.934	4595
2217.961	4525
2219.986	4476
2222.01	4459
2224.034	4477
2226.057	4508
2228.08	4490
2230.104	4522
2232.124	4518
2234.145	4517
2236.166	4492
2238.186	4547
2240.207	4489
2242.227	4551
2244.244	4586
2246.262	4624
2248.28	4588
2250.299	4627
2252.314	4640
2254.33	4571
2256.346	4562
2258.36	4470
2260.375	4619
2262.391	4552
2264.403	4532
2266.416	4528
2268.427	4569
2270.44	4532
2272.453	4513
2274.463	4579
2276.474	4579
2278.483	4637
2280.493	4578
2282.501	4554
2284.51	4566
2286.518	4571
2288.524	4581
2290.532	4605
2292.537	4532
2294.544	4591
2296.55	4629
2298.554	4557
2300.557	4493
2302.562	4578
2304.566	4539
2306.568	4474
2308.569	4496
2310.572	4575
2312.573	4583
2314.573	4534
2316.574	4514
2318.573	4544
2320.571	4651
2322.571	4442
2324.569	4534
2326.567	4498
2328.564	4567
2330.56	4505
2332.556	4580
2334.551	4547
2336.546	4480
2338.542	4521
2340.535	4591
2342.529	4503
2344.521	4477
2346.512	4412
2348.505	4501
2350.497	4511
2352.487	4457
2354.478	4418
2356.468	4447
2358.457	4506
2360.446	4524
2362.434	4505
2364.422	4558
2366.408	4547
2368.395	4468
2370.383	4424
2372.369	4475
2374.353	4535
2376.338	4443
2378.321	4435
2380.307	4520
2382.29	4376
2384.272	4483
2386.254	4453
2388.235	4442
2390.218	4501
2392.198	4475
2394.179	4479
2396.157	4457
2398.137	4516
2400.115	4489
2402.095	4429
2404.072	4532
2406.048	4420
2408.026	4490
2410.001	4438
2411.977	4403
2413.953	4511
2415.927	4440
2417.9	4439
2419.875	4434
2421.847	4472
2423.821	4430
2425.792	4454
2427.763	4494
2429.736	4505
2431.706	4560
2433.677	4406
2435.646	4455
2437.615	4474
2439.583	4523
2441.551	4517
2443.519	4387
2445.486	4416
2447.452	4508
2449.418	4559
2451.383	4441
2453.348	4447
2455.314	4541
2457.278	4407
2459.241	4547
2461.205	4542
2463.167	4513
2465.131	4420
2467.091	4406
2469.052	4447
2471.012	4498
2472.972	4425
2474.932	4394
2476.891	4360
2478.85	4363
2480.808	4442
2482.766	4461
2484.722	4415
2486.68	4380
2488.636	4400
2490.591	4343
2492.546	4484
2494.5	4475
2496.456	4404
2498.41	4303
2500.362	4420
2502.315	4449
2504.266	4481
2506.218	4456
2508.169	4405
2510.121	4435
2512.07	4577
2514.019	4426
2515.968	4472
2517.918	4380
2519.866	4406
2521.813	4421
2523.76	4403
2525.707	4471
2527.653	4528
2529.599	4481
2531.543	4486
2533.489	4333
2535.433	4373
2537.376	4416
2539.32	4377
2541.264	4391
2543.205	4396
2545.147	4502
2547.087	4345
2549.029	4288
2550.969	4458
2552.908	4419
2554.847	4435
2556.786	4333
2558.724	4383
2560.663	4382
2562.6	4594
2564.537	4456
2566.473	4452
2568.408	4443
2570.345	4477
2572.28	4383
2574.214	4444
2576.148	4455
2578.081	4456
2580.014	4470
2581.947	4396
2583.879	4441
2585.81	4440
2587.741	4443
2589.67	4414
2591.602	4545
2593.532	4353
2595.461	4413
2597.388	4474
2599.316	4449
2601.244	4398
2603.172	4360
2605.098	4387
2607.023	4466
2608.949	4445
2610.873	4389
2612.8	4562
2614.723	4539
2616.647	4407
2618.569	4564
2620.493	4463
2622.416	4571
2624.338	4374
2626.258	4457
2628.179	4423
2630.099	4490
2632.019	4546
2633.939	4460
2635.857	4429
2637.775	4430
2639.694	4517
2641.61	4499
2643.528	4588
2645.444	4507
2647.361	4491
2649.276	4516
2651.19	4499
2653.105	4419
2655.019	4398
2656.934	4493
2658.846	4527
2660.758	4463
2662.67	4454
2664.583	4529
2666.493	4548
2668.404	4468
2670.313	4473
2672.223	4516
2674.134	4457
2676.042	4488
2677.95	4495
2679.858	4419
2681.765	4390
2683.673	4469
2685.579	4505
2687.483	4499
2689.389	4506
2691.294	4465
2693.198	4467
2695.104	4434
2697.006	4550
2698.909	4501
2700.811	4354
2702.713	4454
2704.615	4508
2706.516	4426
2708.417	4389
2710.316	4405
2712.216	4455
2714.115	4447
2716.014	4346
2717.913	4376
2719.81	4400
2721.707	4452
2723.603	4467
2725.501	4374
2727.396	4459
2729.292	4476
2731.186	4443
2733.081	4434
2734.976	4239
2736.87	4467
2738.762	4477
2740.653	4540
2742.546	4371
2744.437	4433
2746.329	4421
2748.22	4389
2750.11	4468
2751.999	4376
2753.889	4395
2755.778	4477
2757.666	4392
2759.553	4397
2761.44	4482
2763.328	4483
2765.215	4466
2767.101	4451
2768.986	4436
2770.87	4333
2772.754	4315
2774.638	4549
2776.523	4341
2778.405	4441
2780.288	4500
2782.17	4485
2784.051	4405
2785.934	4431
2787.814	4419
2789.694	4375
2791.574	4330
2793.453	4365
2795.332	4367
2797.212	4362
2799.088	4394
2800.966	4496
2802.843	4393
2804.719	4445
2806.597	4402
2808.471	4344
2810.346	4352
2812.221	4395
2814.094	4398
2815.969	4356
2817.843	4385
2819.714	4408
2821.587	4336
2823.459	4379
2825.329	4365
2827.202	4387
2829.072	4424
2830.942	4455
2832.811	4383
2834.68	4409
2836.549	4380
2838.418	4400
2840.284	4407
2842.152	4381
2844.018	4414
2845.885	4407
2847.751	4350
2849.616	4413
2851.482	4517
2853.345	4429
2855.208	4398
2857.074	4495
2858.937	4328
2860.799	4453
2862.66	4462
2864.522	4475
2866.385	4422
2868.245	4514
2870.104	4561
2871.964	4537
2873.824	4644
2875.683	4607
2877.542	4582
2879.4	4569
2881.257	4669
2883.114	4678
2884.97	4677
2886.827	4609
2888.683	4629
2890.537	4687
2892.392	4640
2894.246	4569
2896.1	4594
2897.954	4620
2899.807	4706
2901.66	4682
2903.51	4714
2905.362	4608
2907.214	4623
2909.065	4755
2910.915	4736
2912.765	4682
2914.613	4719
2916.463	4733
2918.311	4730
2920.158	4763
2922.006	4777
2923.853	4785
2925.698	4806
2927.546	4911
2929.392	4866
2931.236	4945
2933.081	4938
2934.924	4969
2936.77	4962
2938.613	4954
2940.455	4999
2942.298	5063
2944.139	5093
2945.982	5020
2947.823	5025
2949.662	4976
2951.503	5038
2953.342	4917
2955.182	4945
2957.021	4877
2958.858	4897
2960.697	4883
2962.534	4819
2964.37	4893
2966.207	4858
2968.044	4730
2969.879	4700
2971.714	4745
2973.548	4730
2975.383	4752
2977.218	4712
2979.051	4797
2980.883	4673
2982.715	4706
2984.547	4691
2986.379	4647
2988.21	4550
2990.04	4607
2991.87	4571
2993.7	4515
2995.53	4613
2997.359	4660
2999.187	4433
3001.015	4480
3002.842	4443
3004.669	4466
3006.497	4428
3008.323	4417
3010.148	4422
3011.974	4346
3013.797	4366
3015.623	4354
3017.447	4314
3019.27	4381
3021.094	4320
3022.915	4339
3024.737	4322
3026.56	4237
3028.38	4301
3030.201	4232
3032.022	4254
3033.84	4173
3035.662	4286
3037.481	4329
3039.298	4286
3041.117	4271
3042.933	4261
3044.752	4340
3046.568	4323
3048.385	4194
3050.2	4168
3052.016	4148
3053.83	4193
3055.646	4247
3057.46	4254
3059.272	4137
3061.086	4215
3062.898	4207
3064.711	4258
3066.524	4304
3068.335	4146
3070.145	4201
3071.956	4148
3073.766	4238
3075.576	4186
3077.385	4153
3079.193	4250
3081.002	4189
3082.81	4245
3084.618	4151
3086.425	4204
3088.231	4166
3090.036	4156
3091.842	4188
3093.648	4118
3095.452	4088
3097.257	4157
3099.06	4112
3100.863	4136
3102.666	4048
3104.47	4220
3106.272	4138
3108.073	4193
3109.875	4074
3111.676	4137
3113.477	4145
3115.277	4206
3117.077	4156
3118.874	4114
3120.673	4126
3122.473	4114
3124.271	4109
3126.066	4086
3127.863	4047
3129.66	4209
3131.456	4074
3133.252	4159
3135.047	4066
3136.842	4117
3138.635	4090
3140.429	4098
3142.223	4045
3144.016	4058
3145.808	4167
3147.6	4039
3149.392	4041
3151.183	4067
3152.975	4035
3154.765	4122
3156.553	4075
3158.344	4091
3160.132	4033
3161.922	4032
3163.71	4031
3165.497	4070
3167.285	4042
3169.071	4152
3170.858	4052
3172.645	4036
3174.429	4092
3176.214	4057
3177.998	3988
3179.783	4069
3181.568	4117
3183.351	4088
3185.133	4006
3186.915	4054
3188.698	3950
3190.481	4019
3192.261	3993
3194.042	4060
3195.822	4068
3197.601	4021
3199.381	3996
3201.161	4025
3202.939	4048
3204.717	3998
3206.495	3949
3208.272	4063
3210.05	4043
3211.826	4028
3213.602	4001
3215.376	3962
3217.151	4053
3218.927	3996
3220.702	4015
3222.476	3996
3224.249	4013
3226.021	3948
3227.793	4077
3229.567	3936
3231.339	3901
3233.109	4036
3234.88	4016
3236.651	4010
3238.421	3933
3240.191	3977
3241.96	3949
3243.728	4028
3245.497	3992
3247.263	4023
3249.033	4035
3250.799	4032
3252.566	3954
3254.331	4028
3256.097	3986
3257.863	4002
3259.628	3986
3261.392	4031
3263.156	4024
3264.919	3988
3266.683	4043
3268.447	3948
3270.208	3969
3271.969	3998
3273.731	3953
3275.492	3991
3277.253	4030
3279.013	4001
3280.773	3958
3282.532	4051
3284.291	4029
3286.05	3978
3287.808	3916
3289.566	4002
3291.323	3911
3293.079	3968
3294.835	3956
3296.593	4027
3298.348	4016
3300.102	4010
3301.857	4013
3303.611	3967
3305.366	4038
3307.119	3978
3308.872	4064
3310.624	3994
3312.376	3954
3314.129	3959
3315.881	4056
3317.631	4019
3319.38	3972
3321.13	4014
3322.88	4071
3324.631	3929
3326.379	3986
3328.126	4092
3329.875	3918
3331.622	3945
3333.371	3905
3335.116	4016
3336.863	3939
3338.609	4023
3340.353	4050
3342.1	3994
3343.845	3966
3345.588	3938
3347.332	3972
3349.074	3893
3350.817	3905
3352.56	3903
3354.303	3909
3356.043	3954
3357.785	3931
3359.525	3979
3361.268	3973
3363.007	3944
3364.745	3883
3366.485	3911
3368.223	4036
3369.962	3887
3371.701	3872
3373.438	3880
3375.174	3896
3376.911	3958
3378.647	3877
3380.384	3975
3382.118	3930
3383.854	3948
3385.588	3870
3387.322	3906
3389.057	3910
3390.79	3946
3392.522	3902
3394.255	3893
3395.987	3910
3397.719	3826
3399.451	3818
3401.181	3932
3402.911	3886
3404.641	3944
3406.371	3944
3408.101	3854
3409.83	3933
3411.558	3770
3413.285	3814
3415.011	3938
3416.739	3879
3418.467	3866
3420.193	3881
3421.919	3876
3423.644	3778
3425.368	3795
3427.094	3875
3428.818	3821
3430.542	3812
3432.264	3846
3433.987	3788
3435.712	3864
3437.434	3832
3439.155	3803
3440.876	3849
3442.596	3799
3444.317	3795
3446.039	3841
3447.757	3819
3449.477	3836
3451.195	3840
3452.914	3864
3454.632	3797
3456.35	3780
3458.067	3777
3459.784	3736
3461.5	3848
3463.216	3777
3464.932	3726
3466.647	3826
3468.362	3783
3470.076	3779
3471.789	3797
3473.505	3790
3475.217	3756
3476.929	3731
3478.641	3743
3480.354	3739
3482.066	3796
3483.777	3763
3485.487	3691
3487.197	3765
3488.908	3771
3490.617	3778
3492.327	3663
3494.035	3706
3495.743	3699
3497.451	3748
3499.158	3663
3500.866	3745
3502.572	3667
3504.278	3736
3505.984	3677
3507.689	3618
3509.396	3673
3511.1	3656
3512.804	3686
3514.508	3770
3516.211	3648
3517.913	3681
3519.616	3600
3521.319	3673
3523.021	3628
3524.722	3596
3526.422	3759
3528.124	3639
3529.824	3593
3531.524	3668
3533.222	3594
3534.921	3646
3536.62	3616
3538.318	3646
3540.016	3602
3541.714	3652
3543.41	3646
3545.107	3601
3546.803	3607
3548.5	3650
3550.194	3618
3551.889	3658
3553.583	3593
3555.279	3595
3556.972	3644
3558.666	3546
3560.358	3641
3562.051	3577
3563.742	3561
3565.435	3652
3567.126	3663
3568.817	3584
3570.507	3540
3572.197	3554
3573.888	3599
3575.577	3658
3577.265	3595
3578.954	3584
3580.642	3674
3582.329	3552
3584.017	3596
3585.704	3558
3587.391	3543
3589.077	3591
3590.762	3565
3592.449	3603
3594.133	3510
3595.817	3536
3597.501	3588
3599.185	3603
3600.869	3494
3602.552	3571
3604.234	3534
3605.916	3512
3607.598	3540
3609.279	3540
3610.961	3522
3612.642	3440
3614.321	3518
3616	3436
3617.68	3504
3619.36	3488
3621.039	3491
3622.716	3531
3624.394	3534
3626.071	3481
3627.748	3517
3629.425	3506
3631.102	3423
3632.778	3488
3634.452	3519
3636.127	3474
3637.803	3437
3639.477	3450
3641.151	3419
3642.823	3449
3644.497	3453
3646.171	3408
3647.842	3458
3649.515	3392
3651.185	3439
3652.857	3406
3654.527	3416
3656.198	3387
3657.868	3426
3659.537	3359
3661.207	3390
3662.875	3363
3664.544	3421
3666.212	3416
3667.879	3409
3669.546	3370
3671.212	3391
3672.88	3416
3674.546	3336
3676.211	3460
3677.875	3378
3679.541	3292
3681.205	3451
3682.87	3397
3684.533	3390
3686.196	3371
3687.859	3382
3689.521	3362
3691.184	3329
3692.845	3386
3694.507	3303
3696.167	3367
3697.827	3281
3699.487	3327
3701.148	3388
3702.808	3372
3704.466	3403
3706.125	3444
3707.783	3303
3709.442	3403
3711.099	3390
3712.757	3379
3714.412	3372
3716.068	3408
3717.725	3364
3719.381	3374
3721.036	3324
3722.689	3330
3724.344	3350
3725.998	3302
3727.652	3357
3729.305	3386
3730.958	3331
3732.61	3304
3734.262	3324
3735.915	3318
3737.565	3351
3739.217	3303
3740.866	3392
3742.516	3333
3744.165	3374
3745.816	3310
3747.464	3298
3749.113	3291
3750.761	3296
3752.409	3326
3754.057	3366
3755.703	3292
3757.35	3299
3758.996	3270
3760.641	3217
3762.289	3261
3763.933	3317
3765.577	3266
3767.222	3312
3768.865	3249
3770.508	3302
3772.152	3314
3773.796	3290
3775.438	3258
3777.079	3274
3778.721	3258
3780.363	3262
3782.003	3267
3783.643	3206
3785.283	3273
3786.923	3296
3788.563	3263
3790.203	3326
3791.841	3219
3793.479	3280
3795.115	3278
3796.753	3255
3798.391	3227
3800.027	3235
3801.664	3270
3803.299	3253
3804.935	3229
3806.571	3324
3808.206	3199
3809.839	3213
3811.473	3240
3813.107	3249
3814.74	3215
3816.375	3140
3818.006	3209
3819.638	3196
3821.27	3236
3822.9	3224
3824.532	3212
3826.163	3249
3827.792	3183
3829.423	3199
3831.051	3229
3832.682	3233
3834.311	3215
3835.938	3192
3837.566	3208
3839.193	3303
3840.821	3131
3842.448	3222
3844.075	3076
3845.7	3129
3847.325	3207
3848.951	3121
3850.576	3165
3852.201	3141
3853.825	3199
3855.448	3211
3857.072	3110
3858.694	3291
3860.318	3220
3861.939	3097
3863.562	3159
3865.183	3181
3866.804	3145
3868.426	3110
3870.045	3082
3871.666	3152
3873.285	3191
3874.904	3172
3876.524	3134
3878.142	3149
3879.76	3138
3881.378	3173
3882.995	3117
3884.612	3156
3886.229	3188
3887.845	3096
3889.461	3116
3891.076	3145
3892.691	3106
3894.307	3066
3895.922	3222
3897.536	3157
3899.149	3170
3900.761	3126
3902.374	3233
3903.988	3171
3905.6	3110
3907.212	3187
3908.822	3058
3910.433	3082
3912.045	3048
3913.655	3056
3915.265	3137
3916.875	3109
3918.483	3145
3920.093	3062
3921.702	3061
3923.309	3087
3924.917	3109
3926.523	3061
3928.13	3095
3929.739	3073
3931.344	3002
3932.95	3056
3934.555	3155
3936.159	3080
3937.766	3010
3939.369	3093
3940.974	3119
3942.577	3084
3944.181	3034
3945.783	3090
3947.386	3037
3948.989	3020
3950.59	3034
3952.191	3055
3953.791	3103
3955.394	3034
3956.994	3050
3958.593	3047
3960.192	3046
3961.791	3045
3963.392	3145
3964.99	3040
3966.588	3007
3968.185	3081
3969.782	3073
3971.379	2967
3972.976	3013
3974.572	2997
3976.168	3067
3977.763	3054
3979.358	3062
3980.954	3029
3982.548	3039
3984.142	2994
3985.736	3031
3987.329	3067
3988.922	2978
3990.516	2999
3992.108	2998
3993.698	3001
3995.29	2955
3996.881	2999
3998.473	2899
4000.064	3013
4001.653	2951
4003.242	2908
4004.832	2955
4006.422	2917
4008.01	3000
4009.598	2977
4011.186	2994
4012.773	2941
4014.36	2977
4015.947	2960
4017.534	2990
4019.119	2984
4020.705	2953
4022.291	2967
4023.876	2929
4025.461	2875
4027.044	2937
4028.627	2914
4030.211	2909
4031.795	2904
4033.378	2942
4034.96	2945
4036.542	2909
4038.124	2893
4039.704	2936
4041.286	2852
4042.867	2879
4044.447	2886
4046.026	2958
4047.606	2855
4049.187	2890
4050.765	2916
4052.343	2847
4053.92	2846
4055.498	2843
4057.076	2899
4058.654	2843
4060.23	2913
4061.806	2839
4063.381	2880
4064.957	2873
4066.533	2883
4068.107	2842
4069.682	2887
4071.256	2856
4072.829	2812
4074.404	2917
4075.977	2886
4077.549	2884
4079.121	2914
4080.693	2872
4082.265	2842
4083.836	2875
4085.407	2877
4086.977	2853
4088.547	2858
4090.117	2810
4091.687	2841
4093.256	2878
4094.825	2807
4096.392	2836
4097.96	2776
4099.528	2852
4101.097	2807
4102.663	2860
4104.229	2822
4105.795	2840
4107.361	2827
4108.928	2850
4110.493	2777
4112.058	2835
4113.621	2827
4115.186	2830
4116.75	2823
4118.313	2777
4119.876	2786
4121.438	2813
4123	2774
4124.562	2830
4126.125	2815
4127.686	2797
4129.246	2744
4130.807	2788
4132.367	2744
4133.927	2765
4135.486	2820
4137.046	2843
4138.604	2760
4140.162	2786
4141.72	2757
4143.279	2821
4144.836	2695
4146.393	2756
4147.949	2715
4149.505	2727
4151.062	2773
4152.617	2698
4154.172	2767
4155.727	2858
4157.281	2791
4158.836	2704
4160.39	2745
4161.943	2713
4163.496	2676
4165.048	2702
4166.601	2785
4168.154	2741
4169.706	2785
4171.257	2766
4172.808	2791
4174.358	2641
4175.909	2727
4177.458	2737
4179.008	2753
4180.558	2690
4182.106	2720
4183.655	2683
4185.204	2726
4186.751	2688
4188.298	2666
4189.845	2709
4191.392	2716
4192.939	2675
4194.485	2688
4196.031	2675
4197.576	2708
4199.121	2625
4200.666	2728
4202.211	2647
4203.754	2677
4205.298	2634
4206.84	2597
4208.384	2639
4209.927	2644
4211.47	2653
4213.011	2657
4214.552	2647
4216.094	2666
4217.635	2548
4219.175	2668
4220.716	2693
4222.255	2685
4223.793	2691
4225.335	2685
4226.873	2699
4228.411	2595
4229.948	2642
4231.486	2585
4233.024	2654
4234.562	2635
4236.098	2661
4237.634	2621
4239.169	2725
4240.705	2657
4242.241	2617
4243.776	2567
4245.31	2669
4246.844	2631
4248.378	2642
4249.911	2665
4251.445	2669
4252.978	2529
4254.51	2593
4256.042	2633
4257.574	2619
4259.107	2615
4260.638	2560
4262.169	2601
4263.699	2567
4265.228	2571
4266.759	2619
4268.289	2578
4269.818	2634
4271.345	2574
4272.874	2616
4274.402	2616
4275.931	2594
4277.458	2620
4278.985	2570
4280.512	2614
4282.037	2545
4283.564	2616
4285.089	2516
4286.615	2571
4288.139	2604
4289.664	2623
4291.187	2515
4292.712	2617
4294.235	2601
4295.759	2575
4297.281	2556
4298.804	2554
4300.327	2553
4301.849	2532
4303.37	2542
4304.891	2609
4306.412	2546
4307.933	2563
4309.453	2572
4310.973	2511
4312.492	2498
