398.1873	3178
400.7097	3195
403.2336	3141
405.7547	3091
408.2751	3160
410.7948	3213
413.3138	3165
415.83	3194
418.3497	3194
420.8666	3253
423.3829	3318
425.8985	3320
428.4133	3282
430.9275	3307
433.441	3341
435.9538	3336
438.4639	3292
440.9753	3365
443.4881	3382
445.9982	3420
448.5055	3321
451.0142	3349
453.5201	3379
456.0274	3368
458.5361	3261
461.04	3305
463.5453	3363
466.0478	3373
468.5517	3313
471.0549	3362
473.5574	3367
476.0572	3327
478.5584	3331
481.0568	3403
483.5545	3406
486.0557	3379
488.5521	3386
491.0478	3411
493.5449	3444
496.0392	3486
498.5349	3301
501.0299	3386
503.5222	3511
506.0139	3453
508.5048	3422
510.9991	3439
513.4887	3464
515.9777	3421
518.4659	3476
520.9534	3460
523.4403	3426
525.9306	3467
528.4161	3436
530.9009	3462
533.3851	3421
535.8687	3467
538.3535	3462
540.8356	3410
543.3171	3496
545.7979	3447
548.278	3410
550.7595	3483
553.2383	3443
555.7144	3486
558.1918	3537
560.6685	3560
563.1446	3561
565.6221	3440
568.0968	3555
570.5688	3506
573.0422	3498
575.515	3611
577.989	3533
580.4584	3585
582.9291	3548
585.3991	3499
587.8685	3640
590.3352	3561
592.8052	3570
595.2706	3603
597.7372	3581
600.2033	3529
602.6666	3548
605.1334	3677
607.5953	3654
610.0587	3536
612.5193	3577
614.9814	3618
617.4427	3491
619.9034	3619
622.3615	3550
624.8208	3634
627.2775	3570
629.7335	3600
632.1929	3558
634.6476	3604
637.1016	3550
639.5569	3556
642.0096	3623
644.4637	3531
646.9151	3611
649.3678	3603
651.8179	3712
654.2672	3642
656.7159	3645
659.166	3591
661.6154	3676
664.0622	3642
666.5082	3687
668.9537	3645
671.4005	3603
673.8445	3662
676.288	3664
678.7308	3580
681.1729	3749
683.6163	3687
686.0572	3650
688.4973	3672
690.9368	3738
693.3757	3708
695.8138	3776
698.2534	3740
700.6902	3706
703.1245	3676
705.56	3676
707.9949	3712
710.4311	3729
712.8647	3741
715.2957	3713
717.7279	3802
720.1595	3806
722.5905	3755
725.0208	3766
727.4505	3744
729.8795	3776
732.3058	3827
734.7336	3792
737.1626	3871
739.587	3835
742.0128	3898
744.4359	3786
746.8604	3891
749.2841	3904
751.7073	3907
754.1278	3810
756.5496	3939
758.9688	3887
761.3893	3842
763.8093	3951
766.2285	3879
768.6451	3944
771.0611	3980
773.4784	3856
775.895	3827
778.3091	3954
780.7244	3868
783.1371	3911
785.5493	3968
787.9626	3992
790.3754	3979
792.7856	3923
795.1951	3940
797.6039	3971
800.0121	3926
802.4236	3920
804.8306	3960
807.2369	3931
809.6425	3958
812.0475	3978
814.4538	4022
816.8575	3928
819.2606	4002
821.663	4026
824.0648	3964
826.4659	3965
828.8683	3987
831.2682	3963
833.6674	3947
836.066	3991
838.4639	4036
840.8632	4119
843.2579	3967
845.6539	4048
848.0493	4060
850.444	4076
852.84	4035
855.2315	4040
857.6243	4024
860.0165	4091
862.4081	4067
864.797	4035
867.1892	4134
869.5789	3949
871.9659	4077
874.3542	4035
876.74	4091
879.129	4051
881.5155	4114
883.8994	4010
886.2845	4109
888.6671	4092
891.051	4182
893.4343	4105
895.8169	4009
898.197	3944
900.5783	4085
902.9571	4104
905.3372	4098
907.7167	4114
910.0936	4103
912.4698	4134
914.8474	4166
917.2244	4159
919.5987	4183
921.9744	4290
924.3475	4220
926.72	4234
929.0918	4250
931.4669	4203
933.8375	4293
936.2074	4200
938.5767	4383
940.9454	4349
943.3154	4356
945.6829	4429
948.0497	4512
950.4178	4650
952.7833	4604
955.1483	4814
957.5145	4874
959.8782	4951
962.2412	4963
964.6036	4911
966.9655	4802
969.3266	4584
971.6871	4454
974.0471	4347
976.4064	4280
978.765	4236
981.125	4250
983.4824	4245
985.8373	4270
988.1935	4148
990.549	4168
992.9039	4278
995.2602	4136
997.6119	4133
999.965	4217
1002.317	4208
1004.667	4238
1007.02	4209
1009.371	4210
1011.719	4124
1014.068	4215
1016.415	4235
1018.765	4252
1021.111	4222
1023.458	4254
1025.804	4365
1028.147	4251
1030.49	4277
1032.837	4287
1035.179	4277
1037.522	4235
1039.862	4223
1042.204	4273
1044.546	4269
1046.884	4300
1049.224	4291
1051.562	4276
1053.899	4207
1056.237	4326
1058.575	4345
1060.91	4321
1063.244	4356
1065.58	4415
1067.913	4353
1070.248	4324
1072.579	4382
1074.911	4328
1077.242	4351
1079.572	4294
1081.905	4334
1084.234	4228
1086.562	4297
1088.89	4347
1091.217	4365
1093.544	4304
1095.871	4293
1098.197	4319
1100.521	4279
1102.845	4316
1105.169	4394
1107.491	4334
1109.814	4294
1112.135	4331
1114.456	4269
1116.776	4255
1119.096	4304
1121.415	4248
1123.734	4339
1126.052	4403
1128.369	4357
1130.686	4406
1133.002	4427
1135.318	4344
1137.632	4310
1139.945	4359
1142.258	4245
1144.573	4406
1146.884	4355
1149.196	4333
1151.505	4351
1153.816	4376
1156.124	4376
1158.435	4258
1160.742	4381
1163.051	4362
1165.356	4385
1167.663	4425
1169.97	4384
1172.276	4324
1174.579	4405
1176.881	4339
1179.186	4414
1181.487	4359
1183.79	4361
1186.092	4371
1188.392	4351
1190.691	4330
1192.991	4380
1195.291	4356
1197.588	4335
1199.885	4345
1202.181	4397
1204.479	4363
1206.775	4364
1209.07	4404
1211.363	4423
1213.656	4380
1215.949	4388
1218.241	4390
1220.534	4408
1222.825	4261
1225.115	4379
1227.405	4459
1229.693	4433
1231.984	4450
1234.271	4475
1236.558	4477
1238.845	4489
1241.131	4546
1243.416	4494
1245.703	4536
1247.987	4516
1250.269	4577
1252.552	4475
1254.834	4538
1257.118	4497
1259.399	4532
1261.678	4575
1263.958	4464
1266.237	4513
1268.516	4577
1270.794	4524
1273.072	4476
1275.347	4461
1277.624	4493
1279.899	4442
1282.175	4501
1284.449	4395
1286.722	4542
1288.995	4514
1291.266	4522
1293.54	4578
1295.81	4459
1298.081	4536
1300.35	4492
1302.62	4448
1304.889	4470
1307.156	4418
1309.425	4574
1311.69	4553
1313.957	4392
1316.222	4455
1318.488	4457
1320.751	4467
1323.016	4421
1325.278	4595
1327.54	4441
1329.803	4471
1332.065	4389
1334.325	4530
1336.584	4461
1338.843	4455
1341.101	4463
1343.36	4431
1345.617	4515
1347.876	4430
1350.131	4533
1352.387	4522
1354.643	4590
1356.897	4500
1359.151	4556
1361.403	4439
1363.656	4379
1365.909	4522
1368.16	4507
1370.409	4671
1372.659	4467
1374.909	4575
1377.157	4583
1379.407	4468
1381.655	4490
1383.9	4500
1386.147	4537
1388.393	4501
1390.64	4560
1392.885	4643
1395.127	4563
1397.37	4620
1399.614	4601
1401.854	4641
1404.098	4595
1406.339	4669
1408.578	4625
1410.818	4589
1413.056	4645
1415.297	4588
1417.533	4560
1419.771	4613
1422.006	4589
1424.243	4638
1426.479	4548
1428.715	4678
1430.948	4710
1433.182	4594
1435.414	4596
1437.647	4618
1439.88	4698
1442.11	4684
1444.342	4687
1446.571	4743
1448.799	4707
1451.029	4691
1453.258	4649
1455.485	4645
1457.711	4724
1459.937	4766
1462.164	4701
1464.39	4747
1466.614	4624
1468.838	4657
1471.06	4723
1473.283	4733
1475.506	4675
1477.727	4619
1479.949	4554
1482.169	4526
1484.389	4652
1486.609	4488
1488.828	4633
1491.045	4551
1493.261	4484
1495.477	4613
1497.693	4645
1499.91	4506
1502.125	4474
1504.339	4515
1506.553	4534
1508.766	4498
1510.979	4594
1513.191	4612
1515.402	4613
1517.613	4597
1519.823	4583
1522.033	4643
1524.242	4558
1526.451	4544
1528.657	4468
1530.865	4503
1533.072	4557
1535.278	4668
1537.484	4492
1539.687	4651
1541.892	4559
1544.096	4600
1546.299	4594
1548.502	4672
1550.703	4643
1552.905	4605
1555.104	4545
1557.303	4622
1559.505	4738
1561.703	4619
1563.902	4664
1566.099	4704
1568.295	4707
1570.494	4605
1572.689	4655
1574.883	4800
1577.079	4571
1579.272	4701
1581.467	4737
1583.659	4716
1585.853	4691
1588.044	4733
1590.234	4790
1592.424	4657
1594.615	4689
1596.806	4713
1598.994	4782
1601.182	4599
1603.369	4700
1605.557	4712
1607.744	4739
1609.929	4854
1612.114	4758
1614.298	4780
1616.482	4759
1618.667	4721
1620.85	4836
1623.032	4826
1625.214	4746
1627.395	4772
1629.575	4837
1631.755	4750
1633.935	4803
1636.114	4815
1638.292	4781
1640.471	4782
1642.647	4799
1644.823	4878
1647	4767
1649.175	4890
1651.348	4830
1653.525	4765
1655.698	4779
1657.87	4770
1660.043	4822
1662.213	4780
1664.387	4861
1666.558	4865
1668.727	4833
1670.896	4816
1673.064	4892
1675.233	4851
1677.401	4782
1679.569	4899
1681.735	4797
1683.902	4833
1686.066	4860
1688.233	4809
1690.397	4841
1692.559	4839
1694.723	4773
1696.885	4795
1699.048	4803
1701.21	4782
1703.37	4809
1705.53	4753
1707.689	4835
1709.849	4785
1712.009	4723
1714.166	4784
1716.323	4759
1718.479	4765
1720.634	4777
1722.793	4804
1724.948	4685
1727.102	4860
1729.255	4734
1731.408	4759
1733.562	4827
1735.714	4797
1737.865	4774
1740.016	4719
1742.166	4683
1744.316	4859
1746.467	4746
1748.616	4891
1750.764	4775
1752.911	4789
1755.056	4922
1757.205	4753
1759.35	4738
1761.496	4828
1763.641	4816
1765.785	4849
1767.927	4872
1770.072	4848
1772.214	4887
1774.355	4786
1776.496	4858
1778.637	4753
1780.778	4852
1782.918	4809
1785.057	4867
1787.194	4810
1789.333	4897
1791.472	4923
1793.608	4892
1795.745	4918
1797.879	4896
1800.015	4866
1802.148	4836
1804.284	4899
1806.417	4890
1808.548	4844
1810.682	4908
1812.812	4916
1814.946	4827
1817.075	4824
1819.205	4870
1821.335	4871
1823.463	4840
1825.59	4880
1827.721	4825
1829.847	4827
1831.973	4840
1834.098	4914
1836.223	4784
1838.351	4844
1840.475	4914
1842.598	4885
1844.721	4868
1846.843	4867
1848.966	4872
1851.087	4851
1853.21	4809
1855.33	4867
1857.449	4812
1859.568	4811
1861.688	4853
1863.806	4913
1865.924	4921
1868.039	4795
1870.155	4863
1872.273	4834
1874.388	4824
1876.503	4791
1878.617	4850
1880.73	4841
1882.844	4742
1884.956	4910
1887.068	4817
1889.18	4887
1891.291	4810
1893.4	4814
1895.511	4885
1897.621	4804
1899.73	4881
1901.837	4856
1903.944	4900
1906.053	5010
1908.159	4824
1910.265	4958
1912.369	4919
1914.474	4873
1916.577	4808
1918.683	4865
1920.785	4923
1922.888	4934
1924.989	4900
1927.091	4912
1929.193	4927
1931.294	4924
1933.393	4994
1935.493	4938
1937.59	4896
1939.689	4993
1941.788	5018
1943.884	4829
1945.98	4951
1948.077	4948
1950.171	4908
1952.267	4957
1954.361	4942
1956.455	4906
1958.548	4950
1960.64	4949
1962.733	4989
1964.824	4954
1966.915	5042
1969.005	4888
1971.096	4928
1973.185	4988
1975.275	4943
1977.363	5003
1979.45	5006
1981.537	4919
1983.623	4860
1985.711	4901
1987.796	4999
1989.881	5067
1991.965	4995
1994.047	4981
1996.132	4967
1998.215	4883
2000.297	5026
2002.378	4928
2004.46	4837
2006.54	4877
2008.62	4967
2010.7	4985
2012.779	4956
2014.858	4910
2016.934	4933
2019.013	4913
2021.09	4940
2023.165	4913
2025.241	4834
2027.317	4887
2029.39	4959
2031.466	4929
2033.538	4995
2035.612	4896
2037.683	4919
2039.755	4955
2041.827	4941
2043.898	4933
2045.968	4899
2048.038	4889
2050.106	4891
2052.177	4861
2054.244	5001
2056.313	5035
2058.379	4993
2060.444	4963
2062.511	4846
2064.577	4895
2066.641	4950
2068.705	4945
2070.77	4899
2072.832	5002
2074.896	4955
2076.958	4970
2079.02	4966
2081.081	4958
2083.141	4957
2085.2	4972
2087.261	4923
2089.319	4914
2091.377	4922
2093.435	5039
2095.492	4935
2097.552	4817
2099.607	4869
2101.663	4976
2103.718	4896
2105.771	4981
2107.826	5038
2109.879	4917
2111.932	4909
2113.985	5056
2116.037	5001
2118.088	4940
2120.141	4934
2122.191	5003
2124.239	4883
2126.288	4920
2128.337	5102
2130.387	4992
2132.434	5048
2134.481	4896
2136.528	4933
2138.574	5025
2140.618	4938
2142.665	4991
2144.71	4973
2146.753	4889
2148.797	4939
2150.838	4993
2152.883	4880
2154.923	4927
2156.965	4949
2159.007	4982
2161.046	4906
2163.086	4905
2165.126	4965
2167.163	4915
2169.202	4864
2171.239	4993
2173.277	4888
2175.314	4975
2177.349	4926
2179.385	4981
2181.42	4879
2183.453	4910
2185.49	4896
2187.522	4833
2189.555	4939
2191.586	4967
2193.619	4929
2195.651	4901
2197.682	4854
2199.711	4919
2201.74	4921
2203.769	4870
2205.799	4875
2207.828	4838
2209.855	4888
2211.882	4931
2213.908	5007
2215.934	4892
2217.961	4889
2219.986	4918
2222.01	4814
2224.034	4938
2226.057	4790
2228.08	4906
2230.104	4779
2232.124	4925
2234.145	4865
2236.166	4929
2238.186	4841
2240.207	4791
2242.227	4905
2244.244	4845
2246.262	4835
2248.28	4859
2250.299	4869
2252.314	4902
2254.33	4844
2256.346	4766
2258.36	4917
2260.375	4903
2262.391	4789
2264.403	4901
2266.416	4810
2268.427	4807
2270.44	4812
2272.453	4924
2274.463	4876
2276.474	4920
2278.483	4808
2280.493	4962
2282.501	4853
2284.51	4893
2286.518	4863
2288.524	4793
2290.532	4920
2292.537	4872
2294.544	4934
2296.55	4938
2298.554	4867
2300.557	4963
2302.562	4918
2304.566	4963
2306.568	4836
2308.569	4744
2310.572	4851
2312.573	4864
2314.573	4873
2316.574	4932
2318.573	4826
2320.571	4925
2322.571	4942
2324.569	4856
2326.567	4926
2328.564	4973
2330.56	4889
2332.556	4841
2334.551	4854
2336.546	4805
2338.542	4830
2340.535	4848
2342.529	4789
2344.521	4759
2346.512	4811
2348.505	4793
2350.497	4812
2352.487	4897
2354.478	4786
2356.468	4747
2358.457	4907
2360.446	4838
2362.434	4802
2364.422	4796
2366.408	4805
2368.395	4849
2370.383	4732
2372.369	4834
2374.353	4842
2376.338	4822
2378.321	4802
2380.307	4820
2382.29	4763
2384.272	4777
2386.254	4768
2388.235	4822
2390.218	4833
2392.198	4723
2394.179	4753
2396.157	4753
2398.137	4797
2400.115	4752
2402.095	4784
2404.072	4859
2406.048	4867
2408.026	4733
2410.001	4688
2411.977	4734
2413.953	4796
2415.927	4852
2417.9	4912
2419.875	4854
2421.847	4808
2423.821	4839
2425.792	4757
2427.763	4720
2429.736	4780
2431.706	4824
2433.677	4828
2435.646	4804
2437.615	4719
2439.583	4742
2441.551	4746
2443.519	4781
2445.486	4795
2447.452	4883
2449.418	4676
2451.383	4791
2453.348	4779
2455.314	4840
2457.278	4807
2459.241	4728
2461.205	4750
2463.167	4827
2465.131	4704
2467.091	4745
2469.052	4704
2471.012	4783
2472.972	4789
2474.932	4636
2476.891	4825
2478.85	4786
2480.808	4733
2482.766	4657
2484.722	4755
2486.68	4766
2488.636	4707
2490.591	4707
2492.546	4834
2494.5	4747
2496.456	4690
2498.41	4723
2500.362	4738
2502.315	4724
2504.266	4718
2506.218	4646
2508.169	4672
2510.121	4674
2512.07	4672
2514.019	4759
2515.968	4810
2517.918	4773
2519.866	4741
2521.813	4686
2523.76	4779
2525.707	4821
2527.653	4650
2529.599	4762
2531.543	4736
2533.489	4706
2535.433	4758
2537.376	4773
2539.32	4751
2541.264	4666
2543.205	4706
2545.147	4702
2547.087	4784
2549.029	4746
2550.969	4754
2552.908	4728
2554.847	4690
2556.786	4752
2558.724	4638
2560.663	4773
2562.6	4835
2564.537	4734
2566.473	4724
2568.408	4784
2570.345	4719
2572.28	4712
2574.214	4659
2576.148	4714
2578.081	4785
2580.014	4809
2581.947	4761
2583.879	4773
2585.81	4840
2587.741	4664
2589.67	4809
2591.602	4722
2593.532	4778
2595.461	4708
2597.388	4722
2599.316	4675
2601.244	4810
2603.172	4689
2605.098	4734
2607.023	4774
2608.949	4751
2610.873	4752
2612.8	4755
2614.723	4716
2616.647	4641
2618.569	4704
2620.493	4733
2622.416	4780
2624.338	4788
2626.258	4820
2628.179	4763
2630.099	4837
2632.019	4848
2633.939	4761
2635.857	4780
2637.775	4844
2639.694	4767
2641.61	4825
2643.528	4765
2645.444	4782
2647.361	4705
2649.276	4772
2651.19	4868
2653.105	4861
2655.019	4805
2656.934	4780
2658.846	4772
2660.758	4742
2662.67	4786
2664.583	4750
2666.493	4808
2668.404	4695
2670.313	4665
2672.223	4690
2674.134	4801
2676.042	4772
2677.95	4804
2679.858	4782
2681.765	4732
2683.673	4722
2685.579	4700
2687.483	4795
2689.389	4765
2691.294	4725
2693.198	4769
2695.104	4760
2697.006	4753
2698.909	4766
2700.811	4706
2702.713	4721
2704.615	4801
2706.516	4696
2708.417	4714
2710.316	4754
2712.216	4683
2714.115	4815
2716.014	4765
2717.913	4759
2719.81	4685
2721.707	4755
2723.603	4814
2725.501	4717
2727.396	4698
2729.292	4655
2731.186	4636
2733.081	4629
2734.976	4645
2736.87	4682
2738.762	4760
2740.653	4608
2742.546	4708
2744.437	4777
2746.329	4678
2748.22	4727
2750.11	4713
2751.999	4649
2753.889	4696
2755.778	4691
2757.666	4650
2759.553	4744
2761.44	4721
2763.328	4682
2765.215	4695
2767.101	4630
2768.986	4704
2770.87	4685
2772.754	4764
2774.638	4613
2776.523	4680
2778.405	4742
2780.288	4640
2782.17	4690
2784.051	4612
2785.934	4617
2787.814	4619
2789.694	4654
2791.574	4653
2793.453	4705
2795.332	4682
2797.212	4607
2799.088	4618
2800.966	4783
2802.843	4648
2804.719	4635
2806.597	4636
2808.471	4619
2810.346	4741
2812.221	4607
2814.094	4723
2815.969	4746
2817.843	4683
2819.714	4694
2821.587	4712
2823.459	4731
2825.329	4594
2827.202	4653
2829.072	4694
2830.942	4699
2832.811	4644
2834.68	4699
2836.549	4666
2838.418	4657
2840.284	4581
2842.152	4658
2844.018	4638
2845.885	4660
2847.751	4691
2849.616	4616
2851.482	4616
2853.345	4717
2855.208	4628
2857.074	4709
2858.937	4634
2860.799	4743
2862.66	4763
2864.522	4702
2866.385	4751
2868.245	4727
2870.104	4918
2871.964	4848
2873.824	4880
2875.683	4884
2877.542	4863
2879.4	4956
2881.257	4972
2883.114	4940
2884.97	4942
2886.827	4979
2888.683	5007
2890.537	4997
2892.392	4908
2894.246	4917
2896.1	4996
2897.954	4853
2899.807	4982
2901.66	4859
2903.51	4929
2905.362	4949
2907.214	4892
2909.065	4939
2910.915	4975
2912.765	4945
2914.613	4996
2916.463	4947
2918.311	5015
2920.158	5043
2922.006	5117
2923.853	5171
2925.698	5123
2927.546	5134
2929.392	5165
2931.236	5156
2933.081	5285
2934.924	5196
2936.77	5302
2938.613	5278
2940.455	5422
2942.298	5248
2944.139	5360
2945.982	5303
2947.823	5322
2949.662	5318
2951.503	5432
2953.342	5267
2955.182	5251
2957.021	5255
2958.858	5108
2960.697	5256
2962.534	5184
2964.37	5226
2966.207	5152
2968.044	5150
2969.879	5146
2971.714	4987
2973.548	4958
2975.383	5041
2977.218	5014
2979.051	5010
2980.883	4888
2982.715	4894
2984.547	4886
2986.379	5004
2988.21	4874
2990.04	4826
2991.87	4949
2993.7	4822
2995.53	4731
2997.359	4827
2999.187	4887
3001.015	4841
3002.842	4731
3004.669	4708
3006.497	4668
3008.323	4649
3010.148	4661
3011.974	4702
3013.797	4569
3015.623	4606
3017.447	4643
3019.27	4614
3021.094	4629
3022.915	4567
3024.737	4563
3026.56	4502
3028.38	4499
3030.201	4486
3032.022	4562
3033.84	4537
3035.662	4526
3037.481	4504
3039.298	4556
3041.117	4467
3042.933	4584
3044.752	4539
3046.568	4513
3048.385	4515
3050.2	4397
3052.016	4518
3053.83	4496
3055.646	4503
3057.46	4539
3059.272	4404
3061.086	4456
3062.898	4536
3064.711	4445
3066.524	4447
3068.335	4482
3070.145	4440
3071.956	4500
3073.766	4514
3075.576	4358
3077.385	4356
3079.193	4467
3081.002	4490
3082.81	4372
3084.618	4471
3086.425	4425
3088.231	4389
3090.036	4370
3091.842	4349
3093.648	4403
3095.452	4446
3097.257	4458
3099.06	4388
3100.863	4369
3102.666	4384
3104.47	4414
3106.272	4331
3108.073	4342
3109.875	4367
3111.676	4395
3113.477	4384
3115.277	4269
3117.077	4401
3118.874	4335
3120.673	4474
3122.473	4314
3124.271	4338
3126.066	4359
3127.863	4243
3129.66	4325
3131.456	4260
3133.252	4383
3135.047	4271
3136.842	4425
3138.635	4243
3140.429	4278
3142.223	4278
3144.016	4316
3145.808	4385
3147.6	4246
3149.392	4263
3151.183	4237
3152.975	4158
3154.765	4258
3156.553	4277
3158.344	4231
3160.132	4269
3161.922	4368
3163.71	4306
3165.497	4304
3167.285	4273
3169.071	4294
3170.858	4283
3172.645	4319
3174.429	4341
3176.214	4253
3177.998	4209
3179.783	4253
3181.568	4252
3183.351	4311
3185.133	4194
3186.915	4206
3188.698	4304
3190.481	4224
3192.261	4281
3194.042	4238
3195.822	4234
3197.601	4170
3199.381	4223
3201.161	4117
3202.939	4288
3204.717	4217
3206.495	4216
3208.272	4225
3210.05	4302
3211.826	4276
3213.602	4174
3215.376	4172
3217.151	4277
3218.927	4370
3220.702	4241
3222.476	4217
3224.249	4154
3226.021	4088
3227.793	4266
3229.567	4160
3231.339	4257
3233.109	4191
3234.88	4134
3236.651	4287
3238.421	4121
3240.191	4248
3241.96	4220
3243.728	4319
3245.497	4223
3247.263	4216
3249.033	4276
3250.799	4198
3252.566	4264
3254.331	4071
3256.097	4145
3257.863	4164
3259.628	4266
3261.392	4225
3263.156	4251
3264.919	4198
3266.683	4234
3268.447	4201
3270.208	4262
3271.969	4177
3273.731	4231
3275.492	4211
3277.253	4248
3279.013	4180
3280.773	4270
3282.532	4164
3284.291	4204
3286.05	4164
3287.808	4227
3289.566	4288
3291.323	4212
3293.079	4176
3294.835	4188
3296.593	4213
3298.348	4278
3300.102	4223
3301.857	4161
3303.611	4207
3305.366	4249
3307.119	4207
3308.872	4187
3310.624	4151
3312.376	4201
3314.129	4172
3315.881	4206
3317.631	4212
3319.38	4112
3321.13	4180
3322.88	4201
3324.631	4220
3326.379	4123
3328.126	4167
3329.875	4066
3331.622	4177
3333.371	4184
3335.116	4156
3336.863	4196
3338.609	4155
3340.353	4219
3342.1	4189
3343.845	4163
3345.588	4141
3347.332	4179
3349.074	4165
3350.817	4139
3352.56	4148
3354.303	4182
3356.043	4269
3357.785	4149
3359.525	4195
3361.268	4099
3363.007	4120
3364.745	4104
3366.485	4152
3368.223	4127
3369.962	4094
3371.701	4084
3373.438	4180
3375.174	4143
3376.911	4086
3378.647	4210
3380.384	4112
3382.118	4125
3383.854	4064
3385.588	4090
3387.322	4105
3389.057	4109
3390.79	4087
3392.522	4123
3394.255	4080
3395.987	4028
3397.719	4033
3399.451	4150
3401.181	4112
3402.911	4015
3404.641	4133
3406.371	4046
3408.101	4110
3409.83	4034
3411.558	4030
3413.285	4086
3415.011	4028
3416.739	4097
3418.467	4054
3420.193	3969
3421.919	4083
3423.644	4103
3425.368	4105
3427.094	4062
3428.818	4054
3430.542	4099
3432.264	4025
3433.987	4040
3435.712	4092
3437.434	4043
3439.155	3931
3440.876	3978
3442.596	4048
3444.317	3955
3446.039	3994
3447.757	3960
3449.477	4019
3451.195	4019
3452.914	3958
3454.632	3986
3456.35	4053
3458.067	3997
3459.784	3941
3461.5	3827
3463.216	3926
3464.932	3907
3466.647	3807
3468.362	3872
3470.076	3925
3471.789	3953
3473.505	3925
3475.217	3922
3476.929	3924
3478.641	3915
3480.354	3944
3482.066	3876
3483.777	3909
3485.487	3946
3487.197	3868
3488.908	3929
3490.617	3994
3492.327	3898
3494.035	3875
3495.743	3887
3497.451	3940
3499.158	3921
3500.866	3942
3502.572	3795
3504.278	3922
3505.984	3857
3507.689	3851
3509.396	3869
3511.1	3840
3512.804	3833
3514.508	3842
3516.211	3898
3517.913	3856
3519.616	3865
3521.319	3848
3523.021	3794
3524.722	3799
3526.422	3833
3528.124	3838
3529.824	3884
3531.524	3810
3533.222	3790
3534.921	3779
3536.62	3885
3538.318	3844
3540.016	3857
3541.714	3801
3543.41	3753
3545.107	3804
3546.803	3841
3548.5	3836
3550.194	3701
3551.889	3734
3553.583	3738
3555.279	3724
3556.972	3838
3558.666	3673
3560.358	3862
3562.051	3850
3563.742	3821
3565.435	3732
3567.126	3729
3568.817	3776
3570.507	3743
3572.197	3685
3573.888	3789
3575.577	3751
3577.265	3791
3578.954	3778
3580.642	3746
3582.329	3688
3584.017	3802
3585.704	3769
3587.391	3682
3589.077	3786
3590.762	3652
3592.449	3759
3594.133	3757
3595.817	3732
3597.501	3660
3599.185	3693
3600.869	3702
3602.552	3735
3604.234	3647
3605.916	3688
3607.598	3669
3609.279	3702
3610.961	3711
3612.642	3648
3614.321	3620
3616	3712
3617.68	3656
3619.36	3594
3621.039	3708
3622.716	3685
3624.394	3631
3626.071	3619
3627.748	3677
3629.425	3702
3631.102	3500
3632.778	3601
3634.452	3605
3636.127	3610
3637.803	3589
3639.477	3581
3641.151	3542
3642.823	3556
3644.497	3519
3646.171	3595
3647.842	3498
3649.515	3583
3651.185	3603
3652.857	3540
3654.527	3571
3656.198	3634
3657.868	3542
3659.537	3588
3661.207	3475
3662.875	3549
3664.544	3559
3666.212	3572
3667.879	3587
3669.546	3587
3671.212	3645
3672.88	3505
3674.546	3556
3676.211	3557
3677.875	3539
3679.541	3548
3681.205	3510
3682.87	3602
3684.533	3530
3686.196	3556
3687.859	3456
3689.521	3528
3691.184	3465
3692.845	3507
3694.507	3484
3696.167	3532
3697.827	3477
3699.487	3581
3701.148	3575
3702.808	3495
3704.466	3465
3706.125	3535
3707.783	3510
3709.442	3477
3711.099	3410
3712.757	3438
3714.412	3488
3716.068	3465
3717.725	3456
3719.381	3404
3721.036	3485
3722.689	3482
3724.344	3542
3725.998	3555
3727.652	3512
3729.305	3459
3730.958	3483
3732.61	3421
3734.262	3423
3735.915	3442
3737.565	3408
3739.217	3466
3740.866	3411
3742.516	3421
3744.165	3447
3745.816	3389
3747.464	3454
3749.113	3474
3750.761	3515
3752.409	3456
3754.057	3447
3755.703	3458
3757.35	3455
3758.996	3522
3760.641	3417
3762.289	3437
3763.933	3515
3765.577	3375
3767.222	3341
3768.865	3361
3770.508	3462
3772.152	3342
3773.796	3393
3775.438	3405
3777.079	3452
3778.721	3367
3780.363	3432
3782.003	3400
3783.643	3301
3785.283	3323
3786.923	3450
3788.563	3361
3790.203	3410
3791.841	3378
3793.479	3428
3795.115	3372
3796.753	3353
3798.391	3341
3800.027	3392
3801.664	3361
3803.299	3340
3804.935	3382
3806.571	3279
3808.206	3292
3809.839	3380
3811.473	3377
3813.107	3282
3814.74	3283
3816.375	3371
3818.006	3270
3819.638	3318
3821.27	3315
3822.9	3257
3824.532	3346
3826.163	3291
3827.792	3325
3829.423	3312
3831.051	3277
3832.682	3346
3834.311	3249
3835.938	3259
3837.566	3311
3839.193	3286
3840.821	3342
3842.448	3250
3844.075	3300
3845.7	3295
3847.325	3263
3848.951	3253
3850.576	3255
3852.201	3315
3853.825	3283
3855.448	3298
3857.072	3255
3858.694	3324
3860.318	3229
3861.939	3208
3863.562	3259
3865.183	3287
3866.804	3262
3868.426	3172
3870.045	3291
3871.666	3230
3873.285	3261
3874.904	3228
3876.524	3244
3878.142	3270
3879.76	3269
3881.378	3248
3882.995	3208
3884.612	3251
3886.229	3181
3887.845	3265
3889.461	3214
3891.076	3241
3892.691	3274
3894.307	3214
3895.922	3195
3897.536	3210
3899.149	3194
3900.761	3267
3902.374	3178
3903.988	3231
3905.6	3239
3907.212	3147
3908.822	3220
3910.433	3188
3912.045	3232
3913.655	3259
3915.265	3194
3916.875	3165
3918.483	3153
3920.093	3193
3921.702	3234
3923.309	3197
3924.917	3170
3926.523	3135
3928.13	3135
3929.739	3284
3931.344	3168
3932.95	3225
3934.555	3124
3936.159	3133
3937.766	3247
3939.369	3137
3940.974	3107
3942.577	3095
3944.181	3156
3945.783	3236
3947.386	3214
3948.989	3189
3950.59	3199
3952.191	3204
3953.791	3128
3955.394	3219
3956.994	3169
3958.593	3175
3960.192	3103
3961.791	3133
3963.392	3129
3964.99	3077
3966.588	3195
3968.185	3136
3969.782	3181
3971.379	3103
3972.976	3032
3974.572	3163
3976.168	2995
3977.763	3108
3979.358	3143
3980.954	3141
3982.548	3136
3984.142	3103
3985.736	3145
3987.329	3036
3988.922	3080
3990.516	3086
3992.108	3096
3993.698	3073
3995.29	3065
3996.881	3057
3998.473	3063
4000.064	3123
4001.653	3049
4003.242	3056
4004.832	3033
4006.422	3111
4008.01	2998
4009.598	3051
4011.186	2971
4012.773	3018
4014.36	3037
4015.947	3035
4017.534	3028
4019.119	3011
4020.705	2982
4022.291	2999
4023.876	2984
4025.461	3104
4027.044	2991
4028.627	3048
4030.211	2974
4031.795	2997
4033.378	2915
4034.96	2979
4036.542	2979
4038.124	2981
4039.704	2908
4041.286	2954
4042.867	2983
4044.447	2965
4046.026	3006
4047.606	3038
4049.187	3007
4050.765	2921
4052.343	3010
4053.92	2908
4055.498	2965
4057.076	2929
4058.654	2959
4060.23	3012
4061.806	2857
4063.381	2847
4064.957	2970
4066.533	2900
4068.107	2936
4069.682	2943
4071.256	2915
4072.829	2932
4074.404	2930
4075.977	2878
4077.549	2957
4079.121	2915
4080.693	2923
4082.265	2901
4083.836	2947
4085.407	2934
4086.977	2940
4088.547	2852
4090.117	2947
4091.687	2906
4093.256	2933
4094.825	2896
4096.392	2940
4097.96	2931
4099.528	2912
4101.097	2882
4102.663	2907
4104.229	2907
4105.795	2972
4107.361	2800
4108.928	2857
4110.493	2948
4112.058	2859
4113.621	2890
4115.186	2794
4116.75	2883
4118.313	2845
4119.876	2906
4121.438	2828
4123	2850
4124.562	2849
4126.125	2873
4127.686	2821
4129.246	2853
4130.807	2818
4132.367	2871
4133.927	2813
4135.486	2853
4137.046	2821
4138.604	2810
4140.162	2782
4141.72	2813
4143.279	2784
4144.836	2825
4146.393	2784
4147.949	2804
4149.505	2818
4151.062	2795
4152.617	2833
4154.172	2778
4155.727	2840
4157.281	2823
4158.836	2789
4160.39	2761
4161.943	2764
4163.496	2784
4165.048	2781
4166.601	2779
4168.154	2750
4169.706	2788
4171.257	2859
4172.808	2731
4174.358	2718
4175.909	2816
4177.458	2772
4179.008	2806
4180.558	2737
4182.106	2651
4183.655	2775
4185.204	2725
4186.751	2757
4188.298	2772
4189.845	2774
4191.392	2756
4192.939	2707
4194.485	2757
4196.031	2728
4197.576	2749
4199.121	2698
4200.666	2709
4202.211	2651
4203.754	2809
4205.298	2709
4206.84	2693
4208.384	2714
4209.927	2717
4211.47	2716
4213.011	2707
4214.552	2685
4216.094	2698
4217.635	2735
4219.175	2691
4220.716	2700
4222.255	2719
4223.793	2661
4225.335	2639
4226.873	2663
4228.411	2684
4229.948	2691
4231.486	2733
4233.024	2711
4234.562	2676
4236.098	2634
4237.634	2700
4239.169	2668
4240.705	2650
4242.241	2618
4243.776	2683
4245.31	2658
4246.844	2669
4248.378	2726
4249.911	2581
4251.445	2674
4252.978	2653
4254.51	2664
4256.042	2615
4257.574	2669
4259.107	2690
4260.638	2662
4262.169	2679
4263.699	2650
4265.228	2632
4266.759	2733
4268.289	2620
4269.818	2634
4271.345	2620
4272.874	2619
4274.402	2619
4275.931	2644
4277.458	2620
4278.985	2649
4280.512	2588
4282.037	2670
4283.564	2673
4285.089	2614
4286.615	2625
4288.139	2588
4289.664	2650
4291.187	2632
4292.712	2587
4294.235	2599
4295.759	2608
4297.281	2552
4298.804	2560
4300.327	2618
4301.849	2596
4303.37	2589
4304.891	2570
4306.412	2580
4307.933	2575
4309.453	2594
4310.973	2631
4312.492	2539
