398.1873	3519
400.7097	3534
403.2336	3479
405.7547	3516
408.2751	3517
410.7948	3562
413.3138	3537
415.83	3508
418.3497	3582
420.8666	3628
423.3829	3565
425.8985	3607
428.4133	3644
430.9275	3660
433.441	3668
435.9538	3695
438.4639	3699
440.9753	3669
443.4881	3620
445.9982	3742
448.5055	3739
451.0142	3617
453.5201	3733
456.0274	3690
458.5361	3731
461.04	3705
463.5453	3645
466.0478	3637
468.5517	3695
471.0549	3770
473.5574	3803
476.0572	3686
478.5584	3723
481.0568	3648
483.5545	3697
486.0557	3739
488.5521	3735
491.0478	3756
493.5449	3733
496.0392	3785
498.5349	3732
501.0299	3803
503.5222	3823
506.0139	3789
508.5048	3805
510.9991	3784
513.4887	3829
515.9777	3825
518.4659	3839
520.9534	3856
523.4403	3793
525.9306	3834
528.4161	3773
530.9009	3789
533.3851	3915
535.8687	3756
538.3535	3809
540.8356	3796
543.3171	3829
545.7979	3814
548.278	3807
550.7595	3792
553.2383	3832
555.7144	3849
558.1918	3827
560.6685	3907
563.1446	3905
565.6221	3902
568.0968	3775
570.5688	3928
573.0422	3905
575.515	3929
577.989	3895
580.4584	4099
582.9291	4022
585.3991	3915
587.8685	4003
590.3352	3974
592.8052	3978
595.2706	3994
597.7372	3940
600.2033	3942
602.6666	3920
605.1334	3955
607.5953	3908
610.0587	4018
612.5193	3940
614.9814	3918
617.4427	4001
619.9034	3897
622.3615	3987
624.8208	3925
627.2775	3881
629.7335	3920
632.1929	3960
634.6476	3931
637.1016	3901
639.5569	3957
642.0096	3916
644.4637	3960
646.9151	3986
649.3678	4031
651.8179	3966
654.2672	4074
656.7159	4002
659.166	3996
661.6154	4026
664.0622	3974
666.5082	3989
668.9537	4009
671.4005	4006
673.8445	3973
676.288	4006
678.7308	4062
681.1729	4002
683.6163	4000
686.0572	4044
688.4973	4056
690.9368	4021
693.3757	4076
695.8138	4050
698.2534	4100
700.6902	4018
703.1245	4184
705.56	4136
707.9949	4082
710.4311	4172
712.8647	4114
715.2957	4096
717.7279	4155
720.1595	4187
722.5905	4130
725.0208	4141
727.4505	4134
729.8795	4249
732.3058	4253
734.7336	4296
737.1626	4191
739.587	4244
742.0128	4136
744.4359	4230
746.8604	4326
749.2841	4282
751.7073	4389
754.1278	4287
756.5496	4313
758.9688	4332
761.3893	4350
763.8093	4364
766.2285	4347
768.6451	4365
771.0611	4338
773.4784	4347
775.895	4408
778.3091	4345
780.7244	4311
783.1371	4382
785.5493	4353
787.9626	4333
790.3754	4341
792.7856	4267
795.1951	4339
797.6039	4409
800.0121	4344
802.4236	4391
804.8306	4481
807.2369	4357
809.6425	4406
812.0475	4360
814.4538	4465
816.8575	4353
819.2606	4460
821.663	4469
824.0648	4357
826.4659	4368
828.8683	4337
831.2682	4416
833.6674	4400
836.066	4389
838.4639	4370
840.8632	4481
843.2579	4468
845.6539	4433
848.0493	4387
850.444	4442
852.84	4489
855.2315	4598
857.6243	4525
860.0165	4498
862.4081	4434
864.797	4484
867.1892	4488
869.5789	4528
871.9659	4515
874.3542	4481
876.74	4466
879.129	4491
881.5155	4406
883.8994	4552
886.2845	4501
888.6671	4492
891.051	4498
893.4343	4431
895.8169	4439
898.197	4414
900.5783	4453
902.9571	4474
905.3372	4453
907.7167	4441
910.0936	4524
912.4698	4567
914.8474	4554
917.2244	4512
919.5987	4539
921.9744	4530
924.3475	4663
926.72	4641
929.0918	4657
931.4669	4622
933.8375	4705
936.2074	4599
938.5767	4745
940.9454	4764
943.3154	4768
945.6829	4942
948.0497	5073
950.4178	5227
952.7833	5156
955.1483	5400
957.5145	5584
959.8782	5695
962.2412	5602
964.6036	5432
966.9655	5344
969.3266	5075
971.6871	5063
974.0471	4889
976.4064	4743
978.765	4672
981.125	4702
983.4824	4664
985.8373	4563
988.1935	4618
990.549	4655
992.9039	4613
995.2602	4643
997.6119	4710
999.965	4662
1002.317	4754
1004.667	4624
1007.02	4697
1009.371	4676
1011.719	4649
1014.068	4653
1016.415	4723
1018.765	4772
1021.111	4544
1023.458	4674
1025.804	4674
1028.147	4688
1030.49	4733
1032.837	4753
1035.179	4763
1037.522	4782
1039.862	4666
1042.204	4709
1044.546	4742
1046.884	4697
1049.224	4825
1051.562	4759
1053.899	4804
1056.237	4761
1058.575	4738
1060.91	4856
1063.244	4808
1065.58	4824
1067.913	4821
1070.248	4830
1072.579	4730
1074.911	4928
1077.242	4818
1079.572	4804
1081.905	4748
1084.234	4852
1086.562	4831
1088.89	4831
1091.217	4726
1093.544	4859
1095.871	4807
1098.197	4848
1100.521	4728
1102.845	4832
1105.169	4704
1107.491	4735
1109.814	4724
1112.135	4712
1114.456	4764
1116.776	4760
1119.096	4796
1121.415	4689
1123.734	4675
1126.052	4745
1128.369	4820
1130.686	4771
1133.002	4903
1135.318	4767
1137.632	4737
1139.945	4728
1142.258	4718
1144.573	4769
1146.884	4874
1149.196	4839
1151.505	4799
1153.816	4763
1156.124	4832
1158.435	4778
1160.742	4807
1163.051	4790
1165.356	4835
1167.663	4824
1169.97	4790
1172.276	4844
1174.579	4811
1176.881	4782
1179.186	4863
1181.487	4737
1183.79	4816
1186.092	4819
1188.392	4735
1190.691	4788
1192.991	4894
1195.291	4700
1197.588	4810
1199.885	4897
1202.181	4866
1204.479	4896
1206.775	4819
1209.07	4772
1211.363	4724
1213.656	4865
1215.949	4870
1218.241	4807
1220.534	4796
1222.825	4922
1225.115	4792
1227.405	4944
1229.693	4884
1231.984	4910
1234.271	4904
1236.558	4856
1238.845	4871
1241.131	5002
1243.416	5032
1245.703	4921
1247.987	5065
1250.269	5033
1252.552	4902
1254.834	5009
1257.118	4971
1259.399	4978
1261.678	4974
1263.958	4942
1266.237	4933
1268.516	4983
1270.794	5022
1273.072	5063
1275.347	4939
1277.624	4916
1279.899	4992
1282.175	4988
1284.449	4874
1286.722	4965
1288.995	4982
1291.266	4969
1293.54	4817
1295.81	4961
1298.081	4957
1300.35	4996
1302.62	4866
1304.889	4929
1307.156	5004
1309.425	4886
1311.69	4997
1313.957	4944
1316.222	4921
1318.488	4903
1320.751	4962
1323.016	4940
1325.278	4987
1327.54	4974
1329.803	4938
1332.065	5040
1334.325	4949
1336.584	4966
1338.843	4976
1341.101	4925
1343.36	4923
1345.617	5054
1347.876	4949
1350.131	4920
1352.387	4948
1354.643	4994
1356.897	4966
1359.151	5004
1361.403	4855
1363.656	4891
1365.909	5049
1368.16	4924
1370.409	4970
1372.659	4933
1374.909	5010
1377.157	4906
1379.407	5036
1381.655	4941
1383.9	4956
1386.147	4984
1388.393	5005
1390.64	5061
1392.885	4986
1395.127	5047
1397.37	4940
1399.614	4983
1401.854	4974
1404.098	5075
1406.339	5102
1408.578	5134
1410.818	5059
1413.056	5099
1415.297	5064
1417.533	5225
1419.771	5137
1422.006	5118
1424.243	5068
1426.479	5078
1428.715	5079
1430.948	5036
1433.182	5174
1435.414	5086
1437.647	5109
1439.88	5169
1442.11	5212
1444.342	5198
1446.571	5156
1448.799	5082
1451.029	5240
1453.258	5271
1455.485	5168
1457.711	5210
1459.937	5173
1462.164	5174
1464.39	5166
1466.614	5153
1468.838	5141
1471.06	5221
1473.283	4976
1475.506	5108
1477.727	5071
1479.949	5067
1482.169	5152
1484.389	5018
1486.609	5091
1488.828	5053
1491.045	4969
1493.261	5025
1495.477	5020
1497.693	5028
1499.91	4927
1502.125	5117
1504.339	5094
1506.553	4967
1508.766	4928
1510.979	5031
1513.191	4925
1515.402	4981
1517.613	5025
1519.823	4997
1522.033	4931
1524.242	5013
1526.451	5063
1528.657	5045
1530.865	5042
1533.072	5115
1535.278	4942
1537.484	5060
1539.687	4968
1541.892	5063
1544.096	5110
1546.299	5005
1548.502	5020
1550.703	5044
1552.905	5034
1555.104	5151
1557.303	5086
1559.505	5081
1561.703	5216
1563.902	5123
1566.099	5118
1568.295	5037
1570.494	5186
1572.689	5262
1574.883	5078
1577.079	5168
1579.272	5165
1581.467	5241
1583.659	5158
1585.853	5160
1588.044	5241
1590.234	5107
1592.424	5122
1594.615	5130
1596.806	5126
1598.994	5230
1601.182	5171
1603.369	5229
1605.557	5240
1607.744	5254
1609.929	5302
1612.114	5196
1614.298	5229
1616.482	5298
1618.667	5222
1620.85	5192
1623.032	5069
1625.214	5327
1627.395	5176
1629.575	5300
1631.755	5254
1633.935	5215
1636.114	5331
1638.292	5301
1640.471	5317
1642.647	5324
1644.823	5268
1647	5170
1649.175	5243
1651.348	5226
1653.525	5348
1655.698	5293
1657.87	5262
1660.043	5280
1662.213	5336
1664.387	5274
1666.558	5336
1668.727	5331
1670.896	5251
1673.064	5286
1675.233	5348
1677.401	5279
1679.569	5275
1681.735	5263
1683.902	5233
1686.066	5328
1688.233	5356
1690.397	5197
1692.559	5277
1694.723	5325
1696.885	5282
1699.048	5275
1701.21	5226
1703.37	5342
1705.53	5179
1707.689	5196
1709.849	5134
1712.009	5204
1714.166	5221
1716.323	5158
1718.479	5268
1720.634	5088
1722.793	5280
1724.948	5331
1727.102	5270
1729.255	5332
1731.408	5090
1733.562	5218
1735.714	5229
1737.865	5168
1740.016	5229
1742.166	5251
1744.316	5323
1746.467	5239
1748.616	5310
1750.764	5229
1752.911	5237
1755.056	5302
1757.205	5273
1759.35	5254
1761.496	5392
1763.641	5206
1765.785	5311
1767.927	5305
1770.072	5281
1772.214	5294
1774.355	5294
1776.496	5332
1778.637	5314
1780.778	5288
1782.918	5237
1785.057	5401
1787.194	5333
1789.333	5297
1791.472	5315
1793.608	5265
1795.745	5413
1797.879	5315
1800.015	5274
1802.148	5327
1804.284	5313
1806.417	5339
1808.548	5314
1810.682	5263
1812.812	5381
1814.946	5252
1817.075	5378
1819.205	5348
1821.335	5230
1823.463	5348
1825.59	5281
1827.721	5316
1829.847	5348
1831.973	5256
1834.098	5261
1836.223	5314
1838.351	5275
1840.475	5334
1842.598	5307
1844.721	5230
1846.843	5285
1848.966	5321
1851.087	5218
1853.21	5230
1855.33	5214
1857.449	5369
1859.568	5290
1861.688	5174
1863.806	5391
1865.924	5285
1868.039	5348
1870.155	5313
1872.273	5316
1874.388	5236
1876.503	5445
1878.617	5291
1880.73	5311
1882.844	5297
1884.956	5372
1887.068	5342
1889.18	5347
1891.291	5314
1893.4	5416
1895.511	5359
1897.621	5379
1899.73	5307
1901.837	5291
1903.944	5282
1906.053	5310
1908.159	5398
1910.265	5325
1912.369	5360
1914.474	5434
1916.577	5451
1918.683	5376
1920.785	5303
1922.888	5420
1924.989	5377
1927.091	5389
1929.193	5510
1931.294	5409
1933.393	5429
1935.493	5415
1937.59	5306
1939.689	5449
1941.788	5481
1943.884	5368
1945.98	5445
1948.077	5324
1950.171	5428
1952.267	5363
1954.361	5297
1956.455	5416
1958.548	5437
1960.64	5379
1962.733	5404
1964.824	5451
1966.915	5301
1969.005	5367
1971.096	5411
1973.185	5458
1975.275	5420
1977.363	5357
1979.45	5520
1981.537	5423
1983.623	5425
1985.711	5473
1987.796	5357
1989.881	5362
1991.965	5341
1994.047	5496
1996.132	5310
1998.215	5448
2000.297	5463
2002.378	5424
2004.46	5433
2006.54	5339
2008.62	5407
2010.7	5407
2012.779	5386
2014.858	5272
2016.934	5276
2019.013	5382
2021.09	5400
2023.165	5399
2025.241	5325
2027.317	5354
2029.39	5270
2031.466	5428
2033.538	5426
2035.612	5442
2037.683	5397
2039.755	5413
2041.827	5343
2043.898	5308
2045.968	5336
2048.038	5349
2050.106	5388
2052.177	5404
2054.244	5505
2056.313	5443
2058.379	5359
2060.444	5313
2062.511	5344
2064.577	5393
2066.641	5374
2068.705	5449
2070.77	5473
2072.832	5321
2074.896	5321
2076.958	5476
2079.02	5414
2081.081	5324
2083.141	5480
2085.2	5335
2087.261	5506
2089.319	5426
2091.377	5441
2093.435	5510
2095.492	5514
2097.552	5423
2099.607	5421
2101.663	5494
2103.718	5473
2105.771	5443
2107.826	5473
2109.879	5474
2111.932	5408
2113.985	5492
2116.037	5425
2118.088	5441
2120.141	5378
2122.191	5495
2124.239	5417
2126.288	5382
2128.337	5442
2130.387	5446
2132.434	5443
2134.481	5429
2136.528	5410
2138.574	5447
2140.618	5382
2142.665	5428
2144.71	5452
2146.753	5500
2148.797	5435
2150.838	5439
2152.883	5475
2154.923	5483
2156.965	5405
2159.007	5386
2161.046	5341
2163.086	5495
2165.126	5377
2167.163	5437
2169.202	5482
2171.239	5245
2173.277	5386
2175.314	5337
2177.349	5421
2179.385	5365
2181.42	5325
2183.453	5294
2185.49	5365
2187.522	5342
2189.555	5498
2191.586	5421
2193.619	5368
2195.651	5372
2197.682	5337
2199.711	5313
2201.74	5381
2203.769	5355
2205.799	5266
2207.828	5317
2209.855	5248
2211.882	5342
2213.908	5324
2215.934	5260
2217.961	5417
2219.986	5297
2222.01	5190
2224.034	5280
2226.057	5335
2228.08	5287
2230.104	5200
2232.124	5356
2234.145	5266
2236.166	5305
2238.186	5265
2240.207	5290
2242.227	5355
2244.244	5330
2246.262	5322
2248.28	5259
2250.299	5365
2252.314	5375
2254.33	5313
2256.346	5346
2258.36	5296
2260.375	5505
2262.391	5316
2264.403	5261
2266.416	5358
2268.427	5311
2270.44	5417
2272.453	5303
2274.463	5399
2276.474	5317
2278.483	5339
2280.493	5361
2282.501	5391
2284.51	5389
2286.518	5340
2288.524	5198
2290.532	5446
2292.537	5342
2294.544	5370
2296.55	5243
2298.554	5302
2300.557	5331
2302.562	5378
2304.566	5382
2306.568	5304
2308.569	5327
2310.572	5414
2312.573	5279
2314.573	5191
2316.574	5364
2318.573	5205
2320.571	5320
2322.571	5355
2324.569	5305
2326.567	5256
2328.564	5271
2330.56	5227
2332.556	5291
2334.551	5445
2336.546	5302
2338.542	5297
2340.535	5287
2342.529	5270
2344.521	5232
2346.512	5325
2348.505	5253
2350.497	5242
2352.487	5330
2354.478	5198
2356.468	5168
2358.457	5298
2360.446	5174
2362.434	5255
2364.422	5269
2366.408	5238
2368.395	5135
2370.383	5306
2372.369	5294
2374.353	5287
2376.338	5273
2378.321	5184
2380.307	5250
2382.29	5224
2384.272	5285
2386.254	5221
2388.235	5215
2390.218	5234
2392.198	5159
2394.179	5252
2396.157	5205
2398.137	5250
2400.115	5151
2402.095	5172
2404.072	5280
2406.048	5237
2408.026	5236
2410.001	5135
2411.977	5205
2413.953	5286
2415.927	5160
2417.9	5243
2419.875	5287
2421.847	5266
2423.821	5208
2425.792	5212
2427.763	5323
2429.736	5215
2431.706	5318
2433.677	5202
2435.646	5211
2437.615	5261
2439.583	5157
2441.551	5243
2443.519	5182
2445.486	5185
2447.452	5156
2449.418	5278
2451.383	5231
2453.348	5226
2455.314	5275
2457.278	5226
2459.241	5237
2461.205	5130
2463.167	5156
2465.131	5127
2467.091	5226
2469.052	5113
2471.012	5060
2472.972	5263
2474.932	5214
2476.891	5274
2478.85	5230
2480.808	5177
2482.766	5221
2484.722	5112
2486.68	5147
2488.636	5230
2490.591	5273
2492.546	5162
2494.5	5143
2496.456	5252
2498.41	5175
2500.362	5148
2502.315	5245
2504.266	5153
2506.218	5198
2508.169	5183
2510.121	5213
2512.07	5188
2514.019	5090
2515.968	5156
2517.918	5098
2519.866	5203
2521.813	5094
2523.76	5107
2525.707	5215
2527.653	5083
2529.599	5146
2531.543	5253
2533.489	5171
2535.433	5117
2537.376	5096
2539.32	5125
2541.264	5048
2543.205	5008
2545.147	5103
2547.087	5095
2549.029	5096
2550.969	5105
2552.908	5215
2554.847	5190
2556.786	5120
2558.724	5199
2560.663	5008
2562.6	5234
2564.537	5066
2566.473	5102
2568.408	5111
2570.345	5118
2572.28	5268
2574.214	5196
2576.148	5139
2578.081	5274
2580.014	5162
2581.947	5182
2583.879	5249
2585.81	5205
2587.741	5099
2589.67	5160
2591.602	5201
2593.532	5169
2595.461	5116
2597.388	5157
2599.316	5207
2601.244	5202
2603.172	5205
2605.098	5201
2607.023	5170
2608.949	5150
2610.873	5245
2612.8	5211
2614.723	5081
2616.647	5310
2618.569	5159
2620.493	5157
2622.416	5281
2624.338	5188
2626.258	5179
2628.179	5243
2630.099	5203
2632.019	5183
2633.939	5281
2635.857	5221
2637.775	5231
2639.694	5187
2641.61	5145
2643.528	5175
2645.444	5128
2647.361	5192
2649.276	5211
2651.19	5132
2653.105	5245
2655.019	5143
2656.934	5176
2658.846	5210
2660.758	5202
2662.67	5283
2664.583	5224
2666.493	5054
2668.404	5098
2670.313	5040
2672.223	5171
2674.134	5217
2676.042	5219
2677.95	5073
2679.858	5123
2681.765	5080
2683.673	5153
2685.579	5064
2687.483	5194
2689.389	5111
2691.294	5194
2693.198	5127
2695.104	5100
2697.006	5105
2698.909	5081
2700.811	5196
2702.713	5076
2704.615	5110
2706.516	5071
2708.417	5208
2710.316	5124
2712.216	5111
2714.115	5253
2716.014	5109
2717.913	5054
2719.81	5138
2721.707	5018
2723.603	5079
2725.501	5032
2727.396	5020
2729.292	5192
2731.186	5099
2733.081	5063
2734.976	5088
2736.87	5041
2738.762	5102
2740.653	5059
2742.546	5140
2744.437	5004
2746.329	5148
2748.22	5057
2750.11	5136
2751.999	5110
2753.889	5097
2755.778	5101
2757.666	5039
2759.553	5087
2761.44	5123
2763.328	5122
2765.215	5018
2767.101	5059
2768.986	5057
2770.87	5051
2772.754	5112
2774.638	5129
2776.523	5104
2778.405	5031
2780.288	5098
2782.17	5032
2784.051	5000
2785.934	5043
2787.814	5149
2789.694	5055
2791.574	5054
2793.453	5058
2795.332	5081
2797.212	5131
2799.088	5078
2800.966	5056
2802.843	5003
2804.719	5073
2806.597	5192
2808.471	4975
2810.346	4956
2812.221	5078
2814.094	5038
2815.969	5062
2817.843	5031
2819.714	5046
2821.587	4918
2823.459	5040
2825.329	5016
2827.202	5091
2829.072	4979
2830.942	4990
2832.811	4986
2834.68	5023
2836.549	5059
2838.418	5074
2840.284	5088
2842.152	5006
2844.018	5020
2845.885	5039
2847.751	5113
2849.616	5105
2851.482	4973
2853.345	5012
2855.208	5001
2857.074	5031
2858.937	5051
2860.799	5047
2862.66	5259
2864.522	5107
2866.385	5140
2868.245	5132
2870.104	5231
2871.964	5171
2873.824	5241
2875.683	5316
2877.542	5208
2879.4	5299
2881.257	5269
2883.114	5309
2884.97	5202
2886.827	5301
2888.683	5244
2890.537	5319
2892.392	5253
2894.246	5231
2896.1	5324
2897.954	5344
2899.807	5224
2901.66	5360
2903.51	5320
2905.362	5305
2907.214	5263
2909.065	5405
2910.915	5403
2912.765	5355
2914.613	5450
2916.463	5429
2918.311	5430
2920.158	5494
2922.006	5511
2923.853	5645
2925.698	5674
2927.546	5679
2929.392	5684
2931.236	5718
2933.081	5778
2934.924	5733
2936.77	5754
2938.613	5697
2940.455	5824
2942.298	5816
2944.139	5816
2945.982	5851
2947.823	5718
2949.662	5712
2951.503	5757
2953.342	5646
2955.182	5647
2957.021	5544
2958.858	5573
2960.697	5568
2962.534	5495
2964.37	5564
2966.207	5582
2968.044	5503
2969.879	5435
2971.714	5425
2973.548	5441
2975.383	5298
2977.218	5352
2979.051	5372
2980.883	5364
2982.715	5340
2984.547	5327
2986.379	5315
2988.21	5321
2990.04	5301
2991.87	5243
2993.7	5238
2995.53	5258
2997.359	5197
2999.187	5145
3001.015	5077
3002.842	5000
3004.669	5094
3006.497	5107
3008.323	5080
3010.148	5030
3011.974	5054
3013.797	4937
3015.623	4977
3017.447	4841
3019.27	5018
3021.094	4933
3022.915	4904
3024.737	4846
3026.56	4944
3028.38	4988
3030.201	4818
3032.022	4922
3033.84	4918
3035.662	4877
3037.481	4936
3039.298	4902
3041.117	4758
3042.933	4824
3044.752	4926
3046.568	4753
3048.385	4788
3050.2	4822
3052.016	4878
3053.83	4798
3055.646	4828
3057.46	4722
3059.272	4804
3061.086	4869
3062.898	4958
3064.711	4815
3066.524	4886
3068.335	4800
3070.145	4834
3071.956	4823
3073.766	4802
3075.576	4857
3077.385	4731
3079.193	4738
3081.002	4802
3082.81	4730
3084.618	4773
3086.425	4692
3088.231	4876
3090.036	4759
3091.842	4801
3093.648	4711
3095.452	4717
3097.257	4688
3099.06	4770
3100.863	4828
3102.666	4615
3104.47	4734
3106.272	4679
3108.073	4755
3109.875	4690
3111.676	4745
3113.477	4675
3115.277	4692
3117.077	4668
3118.874	4629
3120.673	4625
3122.473	4745
3124.271	4679
3126.066	4644
3127.863	4783
3129.66	4705
3131.456	4704
3133.252	4661
3135.047	4693
3136.842	4692
3138.635	4598
3140.429	4518
3142.223	4663
3144.016	4694
3145.808	4631
3147.6	4668
3149.392	4591
3151.183	4641
3152.975	4639
3154.765	4594
3156.553	4672
3158.344	4608
3160.132	4693
3161.922	4590
3163.71	4565
3165.497	4681
3167.285	4643
3169.071	4635
3170.858	4528
3172.645	4548
3174.429	4580
3176.214	4481
3177.998	4536
3179.783	4558
3181.568	4580
3183.351	4586
3185.133	4615
3186.915	4619
3188.698	4580
3190.481	4527
3192.261	4576
3194.042	4604
3195.822	4549
3197.601	4560
3199.381	4514
3201.161	4512
3202.939	4499
3204.717	4583
3206.495	4505
3208.272	4532
3210.05	4570
3211.826	4520
3213.602	4628
3215.376	4588
3217.151	4560
3218.927	4511
3220.702	4489
3222.476	4579
3224.249	4543
3226.021	4592
3227.793	4538
3229.567	4590
3231.339	4508
3233.109	4600
3234.88	4531
3236.651	4593
3238.421	4543
3240.191	4511
3241.96	4567
3243.728	4467
3245.497	4509
3247.263	4567
3249.033	4580
3250.799	4449
3252.566	4591
3254.331	4525
3256.097	4529
3257.863	4523
3259.628	4513
3261.392	4463
3263.156	4519
3264.919	4459
3266.683	4541
3268.447	4460
3270.208	4564
3271.969	4533
3273.731	4544
3275.492	4506
3277.253	4535
3279.013	4583
3280.773	4515
3282.532	4565
3284.291	4589
3286.05	4625
3287.808	4471
3289.566	4542
3291.323	4519
3293.079	4586
3294.835	4502
3296.593	4620
3298.348	4584
3300.102	4549
3301.857	4471
3303.611	4469
3305.366	4520
3307.119	4515
3308.872	4582
3310.624	4520
3312.376	4444
3314.129	4619
3315.881	4592
3317.631	4542
3319.38	4563
3321.13	4514
3322.88	4498
3324.631	4382
3326.379	4529
3328.126	4590
3329.875	4452
3331.622	4487
3333.371	4509
3335.116	4552
3336.863	4499
3338.609	4435
3340.353	4513
3342.1	4462
3343.845	4495
3345.588	4448
3347.332	4478
3349.074	4447
3350.817	4427
3352.56	4548
3354.303	4417
3356.043	4454
3357.785	4405
3359.525	4429
3361.268	4508
3363.007	4454
3364.745	4389
3366.485	4442
3368.223	4470
3369.962	4392
3371.701	4542
3373.438	4451
3375.174	4465
3376.911	4405
3378.647	4435
3380.384	4452
3382.118	4494
3383.854	4416
3385.588	4424
3387.322	4445
3389.057	4450
3390.79	4351
3392.522	4388
3394.255	4294
3395.987	4413
3397.719	4381
3399.451	4398
3401.181	4400
3402.911	4346
3404.641	4387
3406.371	4331
3408.101	4299
3409.83	4490
3411.558	4336
3413.285	4479
3415.011	4345
3416.739	4403
3418.467	4389
3420.193	4394
3421.919	4418
3423.644	4388
3425.368	4458
3427.094	4326
3428.818	4278
3430.542	4359
3432.264	4324
3433.987	4305
3435.712	4371
3437.434	4273
3439.155	4411
3440.876	4328
3442.596	4258
3444.317	4328
3446.039	4317
3447.757	4297
3449.477	4263
3451.195	4284
3452.914	4403
3454.632	4206
3456.35	4321
3458.067	4353
3459.784	4318
3461.5	4317
3463.216	4198
3464.932	4242
3466.647	4260
3468.362	4285
3470.076	4294
3471.789	4201
3473.505	4194
3475.217	4195
3476.929	4263
3478.641	4281
3480.354	4204
3482.066	4233
3483.777	4203
3485.487	4207
3487.197	4190
3488.908	4230
3490.617	4236
3492.327	4189
3494.035	4155
3495.743	4197
3497.451	4244
3499.158	4175
3500.866	4181
3502.572	4158
3504.278	4174
3505.984	4180
3507.689	4067
3509.396	4172
3511.1	4186
3512.804	4186
3514.508	4074
3516.211	4129
3517.913	4083
3519.616	4082
3521.319	4093
3523.021	4129
3524.722	4050
3526.422	4036
3528.124	4073
3529.824	4196
3531.524	4113
3533.222	4105
3534.921	4104
3536.62	4131
3538.318	4136
3540.016	4058
3541.714	4131
3543.41	4177
3545.107	4141
3546.803	4118
3548.5	4047
3550.194	4013
3551.889	4116
3553.583	4127
3555.279	4117
3556.972	4083
3558.666	4015
3560.358	4080
3562.051	4040
3563.742	4049
3565.435	4131
3567.126	4142
3568.817	4010
3570.507	4022
3572.197	3970
3573.888	4021
3575.577	3978
3577.265	3962
3578.954	4092
3580.642	3952
3582.329	4045
3584.017	4025
3585.704	3972
3587.391	3945
3589.077	3957
3590.762	3984
3592.449	3971
3594.133	4021
3595.817	3978
3597.501	4022
3599.185	4005
3600.869	3934
3602.552	3929
3604.234	3929
3605.916	3970
3607.598	3933
3609.279	3937
3610.961	3920
3612.642	3883
3614.321	3942
3616	3909
3617.68	3881
3619.36	3909
3621.039	3930
3622.716	3946
3624.394	3863
3626.071	3904
3627.748	3947
3629.425	3978
3631.102	3963
3632.778	3861
3634.452	3883
3636.127	3803
3637.803	3868
3639.477	3824
3641.151	3885
3642.823	3831
3644.497	3871
3646.171	3823
3647.842	3916
3649.515	3828
3651.185	3792
3652.857	3855
3654.527	3754
3656.198	3847
3657.868	3864
3659.537	3839
3661.207	3793
3662.875	3796
3664.544	3840
3666.212	3800
3667.879	3907
3669.546	3758
3671.212	3828
3672.88	3784
3674.546	3767
3676.211	3750
3677.875	3769
3679.541	3856
3681.205	3682
3682.87	3761
3684.533	3891
3686.196	3776
3687.859	3796
3689.521	3771
3691.184	3781
3692.845	3796
3694.507	3768
3696.167	3722
3697.827	3751
3699.487	3696
3701.148	3694
3702.808	3804
3704.466	3699
3706.125	3694
3707.783	3761
3709.442	3748
3711.099	3754
3712.757	3780
3714.412	3728
3716.068	3781
3717.725	3822
3719.381	3743
3721.036	3715
3722.689	3623
3724.344	3779
3725.998	3702
3727.652	3675
3729.305	3798
3730.958	3615
3732.61	3741
3734.262	3749
3735.915	3797
3737.565	3690
3739.217	3696
3740.866	3722
3742.516	3676
3744.165	3672
3745.816	3714
3747.464	3692
3749.113	3710
3750.761	3738
3752.409	3697
3754.057	3634
3755.703	3687
3757.35	3730
3758.996	3646
3760.641	3628
3762.289	3727
3763.933	3671
3765.577	3703
3767.222	3709
3768.865	3718
3770.508	3592
3772.152	3707
3773.796	3674
3775.438	3619
3777.079	3607
3778.721	3623
3780.363	3621
3782.003	3629
3783.643	3626
3785.283	3629
3786.923	3627
3788.563	3683
3790.203	3554
3791.841	3596
3793.479	3607
3795.115	3628
3796.753	3564
3798.391	3542
3800.027	3652
3801.664	3598
3803.299	3595
3804.935	3579
3806.571	3550
3808.206	3543
3809.839	3528
3811.473	3580
3813.107	3531
3814.74	3589
3816.375	3522
3818.006	3503
3819.638	3571
3821.27	3537
3822.9	3596
3824.532	3509
3826.163	3530
3827.792	3510
3829.423	3552
3831.051	3571
3832.682	3459
3834.311	3539
3835.938	3516
3837.566	3501
3839.193	3569
3840.821	3481
3842.448	3491
3844.075	3466
3845.7	3462
3847.325	3528
3848.951	3490
3850.576	3448
3852.201	3458
3853.825	3563
3855.448	3427
3857.072	3467
3858.694	3509
3860.318	3548
3861.939	3452
3863.562	3487
3865.183	3469
3866.804	3523
3868.426	3402
3870.045	3441
3871.666	3437
3873.285	3490
3874.904	3461
3876.524	3493
3878.142	3511
3879.76	3512
3881.378	3505
3882.995	3436
3884.612	3441
3886.229	3461
3887.845	3397
3889.461	3518
3891.076	3447
3892.691	3541
3894.307	3441
3895.922	3406
3897.536	3462
3899.149	3521
3900.761	3420
3902.374	3454
3903.988	3434
3905.6	3446
3907.212	3439
3908.822	3479
3910.433	3452
3912.045	3427
3913.655	3422
3915.265	3407
3916.875	3386
3918.483	3392
3920.093	3460
3921.702	3458
3923.309	3389
3924.917	3373
3926.523	3419
3928.13	3428
3929.739	3381
3931.344	3389
3932.95	3450
3934.555	3383
3936.159	3345
3937.766	3434
3939.369	3405
3940.974	3362
3942.577	3438
3944.181	3385
3945.783	3354
3947.386	3374
3948.989	3423
3950.59	3369
3952.191	3411
3953.791	3317
3955.394	3312
3956.994	3376
3958.593	3349
3960.192	3391
3961.791	3362
3963.392	3272
3964.99	3269
3966.588	3390
3968.185	3316
3969.782	3273
3971.379	3292
3972.976	3390
3974.572	3279
3976.168	3302
3977.763	3349
3979.358	3301
3980.954	3297
3982.548	3367
3984.142	3272
3985.736	3306
3987.329	3338
3988.922	3317
3990.516	3243
3992.108	3221
3993.698	3230
3995.29	3252
3996.881	3255
3998.473	3285
4000.064	3250
4001.653	3244
4003.242	3338
4004.832	3276
4006.422	3248
4008.01	3254
4009.598	3245
4011.186	3228
4012.773	3210
4014.36	3214
4015.947	3167
4017.534	3222
4019.119	3200
4020.705	3211
4022.291	3200
4023.876	3149
4025.461	3223
4027.044	3180
4028.627	3194
4030.211	3163
4031.795	3185
4033.378	3151
4034.96	3148
4036.542	3173
4038.124	3260
4039.704	3184
4041.286	3198
4042.867	3182
4044.447	3161
4046.026	3146
4047.606	3196
4049.187	3185
4050.765	3168
4052.343	3133
4053.92	3158
4055.498	3094
4057.076	3168
4058.654	3186
4060.23	3138
4061.806	3149
4063.381	3122
4064.957	3158
4066.533	3106
4068.107	3168
4069.682	3140
4071.256	3177
4072.829	3086
4074.404	3089
4075.977	3116
4077.549	3135
4079.121	3114
4080.693	3070
4082.265	3156
4083.836	3101
4085.407	3154
4086.977	3098
4088.547	3120
4090.117	3070
4091.687	3095
4093.256	3072
4094.825	3071
4096.392	3094
4097.96	3078
4099.528	3057
4101.097	3020
4102.663	3095
4104.229	3063
4105.795	3124
4107.361	3068
4108.928	3078
4110.493	3119
4112.058	3077
4113.621	3029
4115.186	3027
4116.75	3006
4118.313	3060
4119.876	3027
4121.438	3008
4123	2938
4124.562	3108
4126.125	3029
4127.686	3082
4129.246	3064
4130.807	2979
4132.367	2997
4133.927	2989
4135.486	3014
4137.046	3002
4138.604	3018
4140.162	3037
4141.72	2993
4143.279	2974
4144.836	3002
4146.393	2955
4147.949	3002
4149.505	3012
4151.062	2985
4152.617	2974
4154.172	2983
4155.727	2974
4157.281	2932
4158.836	2941
4160.39	3019
4161.943	2992
4163.496	2987
4165.048	2971
4166.601	2939
4168.154	2953
4169.706	2934
4171.257	3051
4172.808	2856
4174.358	2949
4175.909	2919
4177.458	2894
4179.008	2901
4180.558	2936
4182.106	2925
4183.655	2937
4185.204	2979
4186.751	2929
4188.298	2921
4189.845	2884
4191.392	3002
4192.939	2903
4194.485	2892
4196.031	2930
4197.576	2882
4199.121	2894
4200.666	2963
4202.211	2814
4203.754	2941
4205.298	2866
4206.84	2845
4208.384	2824
4209.927	2858
4211.47	2872
4213.011	2858
4214.552	2921
4216.094	2862
4217.635	2880
4219.175	2832
4220.716	2880
4222.255	2957
4223.793	2842
4225.335	2881
4226.873	2842
4228.411	2943
4229.948	2954
4231.486	2812
4233.024	2814
4234.562	2875
4236.098	2852
4237.634	2862
4239.169	2830
4240.705	2858
4242.241	2835
4243.776	2903
4245.31	2853
4246.844	2783
4248.378	2796
4249.911	2843
4251.445	2877
4252.978	2894
4254.51	2757
4256.042	2842
4257.574	2856
4259.107	2782
4260.638	2821
4262.169	2845
4263.699	2792
4265.228	2721
4266.759	2797
4268.289	2835
4269.818	2789
4271.345	2826
4272.874	2798
4274.402	2757
4275.931	2778
4277.458	2737
4278.985	2717
4280.512	2791
4282.037	2759
4283.564	2766
4285.089	2830
4286.615	2732
4288.139	2842
4289.664	2787
4291.187	2821
4292.712	2824
4294.235	2725
4295.759	2790
4297.281	2784
4298.804	2755
4300.327	2697
4301.849	2813
4303.37	2746
4304.891	2724
4306.412	2746
4307.933	2807
4309.453	2758
4310.973	2692
4312.492	2771
