398.1873	3981
400.7097	4023
403.2336	3994
405.7547	4017
408.2751	4076
410.7948	4035
413.3138	4081
415.83	4115
418.3497	4128
420.8666	4149
423.3829	4143
425.8985	4187
428.4133	4204
430.9275	4237
433.441	4323
435.9538	4249
438.4639	4156
440.9753	4254
443.4881	4318
445.9982	4228
448.5055	4216
451.0142	4223
453.5201	4207
456.0274	4222
458.5361	4187
461.04	4258
463.5453	4198
466.0478	4351
468.5517	4286
471.0549	4264
473.5574	4262
476.0572	4310
478.5584	4325
481.0568	4284
483.5545	4319
486.0557	4367
488.5521	4324
491.0478	4370
493.5449	4392
496.0392	4485
498.5349	4373
501.0299	4338
503.5222	4366
506.0139	4390
508.5048	4479
510.9991	4426
513.4887	4489
515.9777	4459
518.4659	4378
520.9534	4428
523.4403	4433
525.9306	4419
528.4161	4462
530.9009	4462
533.3851	4430
535.8687	4457
538.3535	4432
540.8356	4380
543.3171	4372
545.7979	4490
548.278	4478
550.7595	4497
553.2383	4498
555.7144	4592
558.1918	4549
560.6685	4526
563.1446	4400
565.6221	4508
568.0968	4502
570.5688	4483
573.0422	4598
575.515	4579
577.989	4599
580.4584	4639
582.9291	4513
585.3991	4649
587.8685	4657
590.3352	4629
592.8052	4564
595.2706	4644
597.7372	4594
600.2033	4545
602.6666	4543
605.1334	4524
607.5953	4534
610.0587	4554
612.5193	4556
614.9814	4494
617.4427	4581
619.9034	4572
622.3615	4683
624.8208	4565
627.2775	4587
629.7335	4719
632.1929	4515
634.6476	4571
637.1016	4560
639.5569	4557
642.0096	4723
644.4637	4599
646.9151	4601
649.3678	4621
651.8179	4654
654.2672	4700
656.7159	4671
659.166	4659
661.6154	4770
664.0622	4618
666.5082	4641
668.9537	4666
671.4005	4673
673.8445	4670
676.288	4696
678.7308	4711
681.1729	4692
683.6163	4716
686.0572	4687
688.4973	4809
690.9368	4783
693.3757	4688
695.8138	4726
698.2534	4700
700.6902	4808
703.1245	4818
705.56	4681
707.9949	4830
710.4311	4859
712.8647	4858
715.2957	4747
717.7279	4812
720.1595	4867
722.5905	4844
725.0208	4944
727.4505	4876
729.8795	4860
732.3058	4819
734.7336	4902
737.1626	4933
739.587	5027
742.0128	5018
744.4359	4986
746.8604	4956
749.2841	5005
751.7073	4954
754.1278	5005
756.5496	5066
758.9688	5033
761.3893	5040
763.8093	5022
766.2285	5104
768.6451	5095
771.0611	5058
773.4784	5065
775.895	5086
778.3091	5080
780.7244	4991
783.1371	5043
785.5493	4980
787.9626	5128
790.3754	5071
792.7856	5120
795.1951	5110
797.6039	5079
800.0121	5107
802.4236	5033
804.8306	5069
807.2369	5074
809.6425	5140
812.0475	5162
814.4538	5094
816.8575	5094
819.2606	5128
821.663	5145
824.0648	5200
826.4659	5190
828.8683	5159
831.2682	5126
833.6674	5130
836.066	5140
838.4639	5127
840.8632	5194
843.2579	5055
845.6539	5174
848.0493	5235
850.444	5212
852.84	5267
855.2315	5228
857.6243	5182
860.0165	5236
862.4081	5252
864.797	5199
867.1892	5225
869.5789	5148
871.9659	5195
874.3542	5224
876.74	5201
879.129	5135
881.5155	5173
883.8994	5221
886.2845	5203
888.6671	5141
891.051	5187
893.4343	5121
895.8169	5237
898.197	5262
900.5783	5283
902.9571	5243
905.3372	5114
907.7167	5281
910.0936	5297
912.4698	5273
914.8474	5311
917.2244	5410
919.5987	5446
921.9744	5393
924.3475	5436
926.72	5341
929.0918	5472
931.4669	5394
933.8375	5447
936.2074	5373
938.5767	5478
940.9454	5513
943.3154	5610
945.6829	5555
948.0497	5728
950.4178	5753
952.7833	5854
955.1483	5994
957.5145	6166
959.8782	6259
962.2412	6159
964.6036	6037
966.9655	5995
969.3266	5737
971.6871	5811
974.0471	5578
976.4064	5469
978.765	5572
981.125	5403
983.4824	5429
985.8373	5340
988.1935	5389
990.549	5250
992.9039	5423
995.2602	5414
997.6119	5386
999.965	5475
1002.317	5473
1004.667	5409
1007.02	5405
1009.371	5408
1011.719	5275
1014.068	5393
1016.415	5474
1018.765	5391
1021.111	5405
1023.458	5445
1025.804	5487
1028.147	5380
1030.49	5425
1032.837	5457
1035.179	5643
1037.522	5466
1039.862	5466
1042.204	5490
1044.546	5470
1046.884	5501
1049.224	5566
1051.562	5534
1053.899	5587
1056.237	5431
1058.575	5501
1060.91	5523
1063.244	5560
1065.58	5501
1067.913	5504
1070.248	5715
1072.579	5537
1074.911	5537
1077.242	5636
1079.572	5609
1081.905	5592
1084.234	5536
1086.562	5474
1088.89	5544
1091.217	5436
1093.544	5565
1095.871	5577
1098.197	5578
1100.521	5579
1102.845	5507
1105.169	5556
1107.491	5596
1109.814	5664
1112.135	5606
1114.456	5591
1116.776	5583
1119.096	5592
1121.415	5514
1123.734	5608
1126.052	5635
1128.369	5537
1130.686	5577
1133.002	5581
1135.318	5539
1137.632	5571
1139.945	5673
1142.258	5591
1144.573	5603
1146.884	5547
1149.196	5601
1151.505	5649
1153.816	5521
1156.124	5676
1158.435	5550
1160.742	5621
1163.051	5656
1165.356	5562
1167.663	5485
1169.97	5531
1172.276	5602
1174.579	5666
1176.881	5607
1179.186	5576
1181.487	5573
1183.79	5536
1186.092	5679
1188.392	5533
1190.691	5579
1192.991	5646
1195.291	5645
1197.588	5648
1199.885	5567
1202.181	5734
1204.479	5635
1206.775	5685
1209.07	5636
1211.363	5575
1213.656	5628
1215.949	5719
1218.241	5589
1220.534	5625
1222.825	5666
1225.115	5770
1227.405	5694
1229.693	5874
1231.984	5729
1234.271	5748
1236.558	5764
1238.845	5790
1241.131	5784
1243.416	5823
1245.703	5672
1247.987	5765
1250.269	5665
1252.552	5846
1254.834	5697
1257.118	5723
1259.399	5789
1261.678	5810
1263.958	5799
1266.237	5790
1268.516	5807
1270.794	5770
1273.072	5780
1275.347	5701
1277.624	5767
1279.899	5773
1282.175	5772
1284.449	5873
1286.722	5831
1288.995	5793
1291.266	5690
1293.54	5734
1295.81	5766
1298.081	5723
1300.35	5770
1302.62	5789
1304.889	5796
1307.156	5731
1309.425	5768
1311.69	5751
1313.957	5795
1316.222	5789
1318.488	5817
1320.751	5734
1323.016	5816
1325.278	5698
1327.54	5798
1329.803	5911
1332.065	5786
1334.325	5732
1336.584	5785
1338.843	5783
1341.101	5804
1343.36	5772
1345.617	5830
1347.876	5816
1350.131	5771
1352.387	5694
1354.643	5853
1356.897	5799
1359.151	5816
1361.403	5722
1363.656	5673
1365.909	5728
1368.16	5771
1370.409	5787
1372.659	5781
1374.909	5831
1377.157	5879
1379.407	5872
1381.655	5773
1383.9	5898
1386.147	5903
1388.393	5883
1390.64	5840
1392.885	5830
1395.127	5832
1397.37	5877
1399.614	5935
1401.854	5929
1404.098	5920
1406.339	5916
1408.578	5911
1410.818	5897
1413.056	5900
1415.297	5977
1417.533	5946
1419.771	5861
1422.006	5916
1424.243	5902
1426.479	5949
1428.715	5889
1430.948	6008
1433.182	6013
1435.414	6063
1437.647	5945
1439.88	6037
1442.11	6036
1444.342	6069
1446.571	6014
1448.799	6062
1451.029	6113
1453.258	5899
1455.485	6017
1457.711	6023
1459.937	6091
1462.164	6082
1464.39	5926
1466.614	6020
1468.838	6082
1471.06	6044
1473.283	5902
1475.506	5965
1477.727	6002
1479.949	5910
1482.169	6040
1484.389	5862
1486.609	5931
1488.828	5933
1491.045	5850
1493.261	5866
1495.477	5844
1497.693	5860
1499.91	5812
1502.125	5716
1504.339	5753
1506.553	5846
1508.766	5805
1510.979	5924
1513.191	5783
1515.402	5820
1517.613	5877
1519.823	5910
1522.033	5893
1524.242	5799
1526.451	5906
1528.657	5864
1530.865	5794
1533.072	5849
1535.278	5924
1537.484	6014
1539.687	5879
1541.892	5878
1544.096	5912
1546.299	5914
1548.502	5959
1550.703	5991
1552.905	5853
1555.104	5998
1557.303	5863
1559.505	6057
1561.703	5870
1563.902	5849
1566.099	5996
1568.295	6065
1570.494	5998
1572.689	6031
1574.883	5988
1577.079	6068
1579.272	6049
1581.467	6033
1583.659	6037
1585.853	6053
1588.044	6051
1590.234	6056
1592.424	5942
1594.615	6140
1596.806	6075
1598.994	6158
1601.182	6110
1603.369	6084
1605.557	6082
1607.744	6106
1609.929	6112
1612.114	6114
1614.298	6135
1616.482	6133
1618.667	6089
1620.85	6135
1623.032	6102
1625.214	6134
1627.395	6138
1629.575	6121
1631.755	6125
1633.935	6043
1636.114	6224
1638.292	5949
1640.471	6168
1642.647	6170
1644.823	6059
1647	6198
1649.175	6242
1651.348	6174
1653.525	6137
1655.698	6155
1657.87	6211
1660.043	6055
1662.213	6108
1664.387	6093
1666.558	6130
1668.727	6141
1670.896	6275
1673.064	6049
1675.233	6251
1677.401	6274
1679.569	6316
1681.735	6310
1683.902	6223
1686.066	6111
1688.233	6219
1690.397	6155
1692.559	6199
1694.723	6138
1696.885	6077
1699.048	6084
1701.21	6151
1703.37	6190
1705.53	6128
1707.689	6075
1709.849	6143
1712.009	6093
1714.166	6219
1716.323	6042
1718.479	6165
1720.634	6117
1722.793	6158
1724.948	6098
1727.102	6136
1729.255	6145
1731.408	6090
1733.562	6144
1735.714	6194
1737.865	6229
1740.016	6101
1742.166	6033
1744.316	6188
1746.467	6079
1748.616	6267
1750.764	6085
1752.911	6220
1755.056	6160
1757.205	6088
1759.35	6182
1761.496	6195
1763.641	6165
1765.785	6132
1767.927	6140
1770.072	6354
1772.214	6161
1774.355	6250
1776.496	6202
1778.637	6272
1780.778	6206
1782.918	6325
1785.057	6115
1787.194	6265
1789.333	6333
1791.472	6200
1793.608	6154
1795.745	6172
1797.879	6244
1800.015	6238
1802.148	6219
1804.284	6152
1806.417	6323
1808.548	6170
1810.682	6260
1812.812	6215
1814.946	6312
1817.075	6253
1819.205	6161
1821.335	6059
1823.463	6225
1825.59	6122
1827.721	6288
1829.847	6296
1831.973	6276
1834.098	6214
1836.223	6305
1838.351	6172
1840.475	6063
1842.598	6250
1844.721	6178
1846.843	6094
1848.966	6122
1851.087	6144
1853.21	6269
1855.33	6222
1857.449	6209
1859.568	6133
1861.688	6171
1863.806	6169
1865.924	6173
1868.039	6182
1870.155	6175
1872.273	6341
1874.388	6107
1876.503	6308
1878.617	6286
1880.73	6219
1882.844	6229
1884.956	6222
1887.068	6245
1889.18	6209
1891.291	6196
1893.4	6178
1895.511	6294
1897.621	6334
1899.73	6285
1901.837	6292
1903.944	6350
1906.053	6272
1908.159	6357
1910.265	6324
1912.369	6418
1914.474	6223
1916.577	6337
1918.683	6383
1920.785	6174
1922.888	6367
1924.989	6266
1927.091	6299
1929.193	6339
1931.294	6386
1933.393	6266
1935.493	6369
1937.59	6304
1939.689	6352
1941.788	6254
1943.884	6364
1945.98	6305
1948.077	6369
1950.171	6381
1952.267	6303
1954.361	6278
1956.455	6407
1958.548	6386
1960.64	6313
1962.733	6394
1964.824	6423
1966.915	6412
1969.005	6278
1971.096	6295
1973.185	6322
1975.275	6357
1977.363	6397
1979.45	6328
1981.537	6349
1983.623	6306
1985.711	6272
1987.796	6225
1989.881	6333
1991.965	6381
1994.047	6265
1996.132	6329
1998.215	6245
2000.297	6330
2002.378	6315
2004.46	6304
2006.54	6341
2008.62	6204
2010.7	6316
2012.779	6236
2014.858	6237
2016.934	6298
2019.013	6379
2021.09	6289
2023.165	6298
2025.241	6261
2027.317	6393
2029.39	6366
2031.466	6338
2033.538	6323
2035.612	6325
2037.683	6376
2039.755	6413
2041.827	6326
2043.898	6255
2045.968	6370
2048.038	6334
2050.106	6296
2052.177	6350
2054.244	6397
2056.313	6311
2058.379	6323
2060.444	6385
2062.511	6252
2064.577	6210
2066.641	6385
2068.705	6335
2070.77	6398
2072.832	6335
2074.896	6364
2076.958	6356
2079.02	6390
2081.081	6356
2083.141	6412
2085.2	6386
2087.261	6296
2089.319	6339
2091.377	6357
2093.435	6446
2095.492	6462
2097.552	6235
2099.607	6345
2101.663	6373
2103.718	6378
2105.771	6324
2107.826	6416
2109.879	6404
2111.932	6363
2113.985	6257
2116.037	6413
2118.088	6414
2120.141	6319
2122.191	6393
2124.239	6432
2126.288	6451
2128.337	6380
2130.387	6376
2132.434	6458
2134.481	6388
2136.528	6297
2138.574	6361
2140.618	6421
2142.665	6414
2144.71	6306
2146.753	6350
2148.797	6296
2150.838	6325
2152.883	6315
2154.923	6358
2156.965	6355
2159.007	6348
2161.046	6273
2163.086	6321
2165.126	6308
2167.163	6476
2169.202	6332
2171.239	6315
2173.277	6348
2175.314	6318
2177.349	6197
2179.385	6276
2181.42	6319
2183.453	6304
2185.49	6391
2187.522	6320
2189.555	6216
2191.586	6321
2193.619	6395
2195.651	6216
2197.682	6263
2199.711	6322
2201.74	6274
2203.769	6230
2205.799	6282
2207.828	6165
2209.855	6254
2211.882	6169
2213.908	6263
2215.934	6226
2217.961	6294
2219.986	6318
2222.01	6287
2224.034	6237
2226.057	6205
2228.08	6248
2230.104	6301
2232.124	6326
2234.145	6253
2236.166	6149
2238.186	6224
2240.207	6210
2242.227	6380
2244.244	6210
2246.262	6177
2248.28	6222
2250.299	6274
2252.314	6167
2254.33	6277
2256.346	6278
2258.36	6222
2260.375	6324
2262.391	6176
2264.403	6260
2266.416	6259
2268.427	6250
2270.44	6245
2272.453	6235
2274.463	6285
2276.474	6332
2278.483	6193
2280.493	6398
2282.501	6255
2284.51	6186
2286.518	6312
2288.524	6194
2290.532	6344
2292.537	6220
2294.544	6134
2296.55	6343
2298.554	6313
2300.557	6174
2302.562	6251
2304.566	6344
2306.568	6258
2308.569	6301
2310.572	6177
2312.573	6158
2314.573	6222
2316.574	6271
2318.573	6140
2320.571	6262
2322.571	6298
2324.569	6194
2326.567	6263
2328.564	6198
2330.56	6236
2332.556	6266
2334.551	6200
2336.546	6249
2338.542	6244
2340.535	6190
2342.529	6322
2344.521	6187
2346.512	6137
2348.505	6092
2350.497	6219
2352.487	6201
2354.478	6229
2356.468	6203
2358.457	6075
2360.446	6163
2362.434	6286
2364.422	6143
2366.408	6190
2368.395	6158
2370.383	6249
2372.369	6182
2374.353	6223
2376.338	6186
2378.321	6226
2380.307	6204
2382.29	6152
2384.272	6131
2386.254	6167
2388.235	6079
2390.218	6223
2392.198	6051
2394.179	6150
2396.157	6139
2398.137	6112
2400.115	6105
2402.095	6164
2404.072	6109
2406.048	6044
2408.026	5992
2410.001	6015
2411.977	6154
2413.953	6191
2415.927	6188
2417.9	6112
2419.875	6171
2421.847	6151
2423.821	6113
2425.792	6094
2427.763	6204
2429.736	6121
2431.706	6164
2433.677	6075
2435.646	6045
2437.615	6030
2439.583	6102
2441.551	6201
2443.519	6173
2445.486	6010
2447.452	6033
2449.418	6108
2451.383	6152
2453.348	6157
2455.314	6101
2457.278	6141
2459.241	6127
2461.205	6216
2463.167	6132
2465.131	6037
2467.091	6010
2469.052	6084
2471.012	6078
2472.972	6078
2474.932	6058
2476.891	6112
2478.85	6084
2480.808	5976
2482.766	6026
2484.722	6022
2486.68	5962
2488.636	6038
2490.591	6087
2492.546	6161
2494.5	6074
2496.456	5986
2498.41	6094
2500.362	6014
2502.315	6039
2504.266	6012
2506.218	6017
2508.169	6043
2510.121	6047
2512.07	6014
2514.019	6075
2515.968	6068
2517.918	6063
2519.866	6053
2521.813	6112
2523.76	6018
2525.707	6019
2527.653	6037
2529.599	6032
2531.543	6024
2533.489	6022
2535.433	6047
2537.376	6076
2539.32	6105
2541.264	6052
2543.205	6074
2545.147	6049
2547.087	6034
2549.029	5972
2550.969	6049
2552.908	6130
2554.847	6033
2556.786	6057
2558.724	6081
2560.663	6029
2562.6	6086
2564.537	6039
2566.473	6065
2568.408	6094
2570.345	5973
2572.28	5994
2574.214	5996
2576.148	5951
2578.081	6114
2580.014	6022
2581.947	6100
2583.879	6159
2585.81	5965
2587.741	6093
2589.67	6058
2591.602	6066
2593.532	5938
2595.461	5973
2597.388	6126
2599.316	6143
2601.244	5953
2603.172	6040
2605.098	6059
2607.023	6100
2608.949	5968
2610.873	6090
2612.8	6150
2614.723	6004
2616.647	6001
2618.569	6096
2620.493	6104
2622.416	6033
2624.338	6046
2626.258	6099
2628.179	5974
2630.099	6188
2632.019	5992
2633.939	6072
2635.857	6168
2637.775	6123
2639.694	6180
2641.61	6131
2643.528	6129
2645.444	6206
2647.361	6026
2649.276	6144
2651.19	6090
2653.105	6014
2655.019	6111
2656.934	6012
2658.846	5986
2660.758	6112
2662.67	6049
2664.583	6128
2666.493	6023
2668.404	5986
2670.313	6055
2672.223	6071
2674.134	6108
2676.042	6102
2677.95	6078
2679.858	6088
2681.765	6065
2683.673	6115
2685.579	6083
2687.483	5984
2689.389	6023
2691.294	5970
2693.198	6007
2695.104	6007
2697.006	6032
2698.909	6021
2700.811	6088
2702.713	6013
2704.615	6072
2706.516	6029
2708.417	6003
2710.316	6038
2712.216	5884
2714.115	6027
2716.014	6023
2717.913	6049
2719.81	5922
2721.707	5945
2723.603	6008
2725.501	6006
2727.396	6037
2729.292	5907
2731.186	5989
2733.081	6081
2734.976	5908
2736.87	6116
2738.762	6030
2740.653	6073
2742.546	5852
2744.437	5961
2746.329	5998
2748.22	5798
2750.11	5897
2751.999	5922
2753.889	6037
2755.778	6065
2757.666	6025
2759.553	5868
2761.44	5931
2763.328	5961
2765.215	5880
2767.101	5857
2768.986	6065
2770.87	5958
2772.754	5970
2774.638	5891
2776.523	5980
2778.405	5957
2780.288	5992
2782.17	5982
2784.051	5872
2785.934	5858
2787.814	6005
2789.694	5975
2791.574	5867
2793.453	5838
2795.332	5958
2797.212	5934
2799.088	5949
2800.966	5998
2802.843	5988
2804.719	5923
2806.597	5944
2808.471	5867
2810.346	5915
2812.221	5956
2814.094	6007
2815.969	5826
2817.843	5876
2819.714	5944
2821.587	6033
2823.459	6001
2825.329	5873
2827.202	5840
2829.072	5842
2830.942	5958
2832.811	6027
2834.68	5976
2836.549	5900
2838.418	5855
2840.284	5944
2842.152	6002
2844.018	5978
2845.885	5949
2847.751	5924
2849.616	5993
2851.482	5898
2853.345	5937
2855.208	6017
2857.074	5937
2858.937	6002
2860.799	6049
2862.66	5997
2864.522	6032
2866.385	5998
2868.245	5999
2870.104	6149
2871.964	6164
2873.824	6187
2875.683	6189
2877.542	6232
2879.4	6135
2881.257	6199
2883.114	6251
2884.97	6348
2886.827	6272
2888.683	6325
2890.537	6199
2892.392	6302
2894.246	6284
2896.1	6363
2897.954	6271
2899.807	6303
2901.66	6192
2903.51	6201
2905.362	6290
2907.214	6210
2909.065	6278
2910.915	6355
2912.765	6260
2914.613	6313
2916.463	6362
2918.311	6434
2920.158	6304
2922.006	6374
2923.853	6367
2925.698	6520
2927.546	6462
2929.392	6479
2931.236	6516
2933.081	6489
2934.924	6592
2936.77	6678
2938.613	6591
2940.455	6603
2942.298	6659
2944.139	6688
2945.982	6720
2947.823	6589
2949.662	6587
2951.503	6765
2953.342	6575
2955.182	6511
2957.021	6583
2958.858	6614
2960.697	6525
2962.534	6502
2964.37	6394
2966.207	6492
2968.044	6310
2969.879	6348
2971.714	6256
2973.548	6244
2975.383	6233
2977.218	6199
2979.051	6333
2980.883	6226
2982.715	6308
2984.547	6169
2986.379	6239
2988.21	6172
2990.04	6055
2991.87	6159
2993.7	6130
2995.53	6018
2997.359	6093
2999.187	5944
3001.015	6009
3002.842	5991
3004.669	5968
3006.497	5965
3008.323	5824
3010.148	5912
3011.974	5921
3013.797	5962
3015.623	5693
3017.447	5806
3019.27	5826
3021.094	5790
3022.915	5791
3024.737	5617
3026.56	5740
3028.38	5878
3030.201	5684
3032.022	5713
3033.84	5700
3035.662	5545
3037.481	5607
3039.298	5665
3041.117	5723
3042.933	5812
3044.752	5677
3046.568	5614
3048.385	5627
3050.2	5699
3052.016	5682
3053.83	5633
3055.646	5699
3057.46	5676
3059.272	5654
3061.086	5641
3062.898	5733
3064.711	5687
3066.524	5734
3068.335	5660
3070.145	5591
3071.956	5636
3073.766	5676
3075.576	5663
3077.385	5661
3079.193	5588
3081.002	5509
3082.81	5570
3084.618	5664
3086.425	5552
3088.231	5623
3090.036	5589
3091.842	5606
3093.648	5530
3095.452	5520
3097.257	5588
3099.06	5571
3100.863	5593
3102.666	5577
3104.47	5561
3106.272	5530
3108.073	5596
3109.875	5500
3111.676	5500
3113.477	5571
3115.277	5516
3117.077	5487
3118.874	5522
3120.673	5546
3122.473	5588
3124.271	5528
3126.066	5472
3127.863	5373
3129.66	5490
3131.456	5387
3133.252	5461
3135.047	5432
3136.842	5483
3138.635	5420
3140.429	5447
3142.223	5472
3144.016	5471
3145.808	5373
3147.6	5447
3149.392	5504
3151.183	5415
3152.975	5381
3154.765	5403
3156.553	5425
3158.344	5448
3160.132	5238
3161.922	5358
3163.71	5430
3165.497	5464
3167.285	5449
3169.071	5427
3170.858	5448
3172.645	5391
3174.429	5475
3176.214	5308
3177.998	5397
3179.783	5397
3181.568	5363
3183.351	5365
3185.133	5428
3186.915	5326
3188.698	5452
3190.481	5336
3192.261	5332
3194.042	5358
3195.822	5295
3197.601	5292
3199.381	5257
3201.161	5379
3202.939	5326
3204.717	5200
3206.495	5311
3208.272	5370
3210.05	5269
3211.826	5359
3213.602	5307
3215.376	5304
3217.151	5276
3218.927	5329
3220.702	5296
3222.476	5299
3224.249	5332
3226.021	5263
3227.793	5363
3229.567	5333
3231.339	5335
3233.109	5295
3234.88	5315
3236.651	5306
3238.421	5304
3240.191	5339
3241.96	5341
3243.728	5307
3245.497	5337
3247.263	5371
3249.033	5242
3250.799	5405
3252.566	5318
3254.331	5275
3256.097	5263
3257.863	5239
3259.628	5324
3261.392	5394
3263.156	5248
3264.919	5228
3266.683	5365
3268.447	5294
3270.208	5340
3271.969	5296
3273.731	5286
3275.492	5308
3277.253	5170
3279.013	5257
3280.773	5252
3282.532	5305
3284.291	5330
3286.05	5263
3287.808	5279
3289.566	5378
3291.323	5277
3293.079	5239
3294.835	5378
3296.593	5271
3298.348	5288
3300.102	5272
3301.857	5273
3303.611	5370
3305.366	5207
3307.119	5219
3308.872	5287
3310.624	5262
3312.376	5342
3314.129	5194
3315.881	5330
3317.631	5231
3319.38	5144
3321.13	5382
3322.88	5345
3324.631	5236
3326.379	5078
3328.126	5212
3329.875	5161
3331.622	5269
3333.371	5286
3335.116	5200
3336.863	5153
3338.609	5223
3340.353	5227
3342.1	5325
3343.845	5215
3345.588	5216
3347.332	5228
3349.074	5248
3350.817	5110
3352.56	5293
3354.303	5187
3356.043	5167
3357.785	5183
3359.525	5175
3361.268	5208
3363.007	5184
3364.745	5214
3366.485	5180
3368.223	5177
3369.962	5201
3371.701	5139
3373.438	5152
3375.174	5183
3376.911	5143
3378.647	5121
3380.384	5224
3382.118	5104
3383.854	5161
3385.588	5232
3387.322	5129
3389.057	5223
3390.79	5072
3392.522	5092
3394.255	5169
3395.987	5201
3397.719	5226
3399.451	5050
3401.181	5207
3402.911	5076
3404.641	5185
3406.371	5054
3408.101	5155
3409.83	5078
3411.558	5083
3413.285	5160
3415.011	5140
3416.739	5202
3418.467	5020
3420.193	5066
3421.919	5017
3423.644	5004
3425.368	5039
3427.094	5094
3428.818	5050
3430.542	5098
3432.264	5038
3433.987	5051
3435.712	5123
3437.434	5117
3439.155	5058
3440.876	5097
3442.596	4971
3444.317	5088
3446.039	5148
3447.757	4945
3449.477	4948
3451.195	5056
3452.914	4945
3454.632	4958
3456.35	4961
3458.067	5028
3459.784	4890
3461.5	4975
3463.216	4974
3464.932	4952
3466.647	4888
3468.362	4956
3470.076	4938
3471.789	4913
3473.505	4838
3475.217	4898
3476.929	4894
3478.641	4951
3480.354	4937
3482.066	4898
3483.777	4927
3485.487	4794
3487.197	4833
3488.908	4909
3490.617	4813
3492.327	4945
3494.035	4800
3495.743	4901
3497.451	4938
3499.158	4892
3500.866	4826
3502.572	4800
3504.278	4843
3505.984	4982
3507.689	4750
3509.396	4877
3511.1	4764
3512.804	4768
3514.508	4860
3516.211	4738
3517.913	4826
3519.616	4820
3521.319	4881
3523.021	4802
3524.722	4854
3526.422	4879
3528.124	4780
3529.824	4849
3531.524	4840
3533.222	4751
3534.921	4730
3536.62	4781
3538.318	4817
3540.016	4759
3541.714	4722
3543.41	4753
3545.107	4698
3546.803	4671
3548.5	4784
3550.194	4785
3551.889	4720
3553.583	4733
3555.279	4766
3556.972	4775
3558.666	4766
3560.358	4717
3562.051	4705
3563.742	4719
3565.435	4762
3567.126	4781
3568.817	4713
3570.507	4706
3572.197	4801
3573.888	4725
3575.577	4642
3577.265	4722
3578.954	4718
3580.642	4709
3582.329	4715
3584.017	4748
3585.704	4792
3587.391	4664
3589.077	4787
3590.762	4510
3592.449	4686
3594.133	4720
3595.817	4571
3597.501	4702
3599.185	4620
3600.869	4700
3602.552	4602
3604.234	4634
3605.916	4652
3607.598	4535
3609.279	4588
3610.961	4662
3612.642	4596
3614.321	4642
3616	4592
3617.68	4549
3619.36	4607
3621.039	4520
3622.716	4519
3624.394	4558
3626.071	4598
3627.748	4548
3629.425	4541
3631.102	4555
3632.778	4499
3634.452	4663
3636.127	4498
3637.803	4483
3639.477	4529
3641.151	4465
3642.823	4590
3644.497	4617
3646.171	4515
3647.842	4573
3649.515	4511
3651.185	4482
3652.857	4492
3654.527	4498
3656.198	4532
3657.868	4413
3659.537	4490
3661.207	4510
3662.875	4502
3664.544	4459
3666.212	4510
3667.879	4493
3669.546	4417
3671.212	4466
3672.88	4419
3674.546	4383
3676.211	4395
3677.875	4421
3679.541	4447
3681.205	4478
3682.87	4382
3684.533	4490
3686.196	4327
3687.859	4425
3689.521	4355
3691.184	4375
3692.845	4504
3694.507	4380
3696.167	4435
3697.827	4301
3699.487	4477
3701.148	4459
3702.808	4368
3704.466	4391
3706.125	4464
3707.783	4440
3709.442	4313
3711.099	4457
3712.757	4497
3714.412	4383
3716.068	4405
3717.725	4317
3719.381	4379
3721.036	4399
3722.689	4304
3724.344	4307
3725.998	4337
3727.652	4432
3729.305	4319
3730.958	4387
3732.61	4320
3734.262	4367
3735.915	4409
3737.565	4391
3739.217	4364
3740.866	4380
3742.516	4291
3744.165	4434
3745.816	4438
3747.464	4289
3749.113	4284
3750.761	4263
3752.409	4354
3754.057	4338
3755.703	4345
3757.35	4192
3758.996	4341
3760.641	4296
3762.289	4315
3763.933	4249
3765.577	4277
3767.222	4339
3768.865	4343
3770.508	4249
3772.152	4289
3773.796	4278
3775.438	4301
3777.079	4277
3778.721	4249
3780.363	4310
3782.003	4246
3783.643	4234
3785.283	4201
3786.923	4306
3788.563	4223
3790.203	4183
3791.841	4262
3793.479	4177
3795.115	4143
3796.753	4160
3798.391	4220
3800.027	4135
3801.664	4349
3803.299	4172
3804.935	4277
3806.571	4129
3808.206	4174
3809.839	4241
3811.473	4214
3813.107	4153
3814.74	4147
3816.375	4171
3818.006	4118
3819.638	4278
3821.27	4210
3822.9	4241
3824.532	4181
3826.163	4077
3827.792	4152
3829.423	4188
3831.051	4107
3832.682	4142
3834.311	4153
3835.938	4086
3837.566	4107
3839.193	4215
3840.821	4065
3842.448	4188
3844.075	4135
3845.7	3987
3847.325	4042
3848.951	4162
3850.576	4118
3852.201	4073
3853.825	4105
3855.448	4113
3857.072	4064
3858.694	4108
3860.318	4078
3861.939	4096
3863.562	4118
3865.183	4073
3866.804	3980
3868.426	4120
3870.045	4084
3871.666	3991
3873.285	4058
3874.904	4127
3876.524	3975
3878.142	4036
3879.76	4008
3881.378	4060
3882.995	3974
3884.612	4111
3886.229	4111
3887.845	4059
3889.461	4088
3891.076	4010
3892.691	4136
3894.307	4031
3895.922	4062
3897.536	4037
3899.149	4075
3900.761	4019
3902.374	4036
3903.988	4005
3905.6	4055
3907.212	3983
3908.822	3953
3910.433	4044
3912.045	4004
3913.655	3990
3915.265	3937
3916.875	3948
3918.483	4014
3920.093	3942
3921.702	4041
3923.309	3978
3924.917	4047
3926.523	4066
3928.13	3908
3929.739	3975
3931.344	4026
3932.95	3895
3934.555	4009
3936.159	3929
3937.766	4035
3939.369	3959
3940.974	3903
3942.577	3892
3944.181	3986
3945.783	3931
3947.386	3908
3948.989	3996
3950.59	3975
3952.191	3922
3953.791	4035
3955.394	3960
3956.994	3981
3958.593	3924
3960.192	3869
3961.791	3917
3963.392	3924
3964.99	3864
3966.588	3877
3968.185	3903
3969.782	3868
3971.379	3942
3972.976	3905
3974.572	3955
3976.168	3901
3977.763	3894
3979.358	3920
3980.954	3870
3982.548	3922
3984.142	3805
3985.736	3854
3987.329	3822
3988.922	3857
3990.516	3790
3992.108	3869
3993.698	3892
3995.29	3825
3996.881	3837
3998.473	3765
4000.064	3905
4001.653	3866
4003.242	3894
4004.832	3739
4006.422	3780
4008.01	3801
4009.598	3813
4011.186	3816
4012.773	3779
4014.36	3739
4015.947	3810
4017.534	3766
4019.119	3807
4020.705	3727
4022.291	3658
4023.876	3850
4025.461	3762
4027.044	3673
4028.627	3784
4030.211	3683
4031.795	3754
4033.378	3759
4034.96	3719
4036.542	3705
4038.124	3737
4039.704	3726
4041.286	3679
4042.867	3755
4044.447	3746
4046.026	3714
4047.606	3693
4049.187	3663
4050.765	3627
4052.343	3740
4053.92	3731
4055.498	3719
4057.076	3656
4058.654	3737
4060.23	3711
4061.806	3673
4063.381	3627
4064.957	3682
4066.533	3679
4068.107	3664
4069.682	3647
4071.256	3645
4072.829	3707
4074.404	3693
4075.977	3658
4077.549	3697
4079.121	3661
4080.693	3662
4082.265	3662
4083.836	3687
4085.407	3567
4086.977	3670
4088.547	3604
4090.117	3585
4091.687	3592
4093.256	3637
4094.825	3630
4096.392	3646
4097.96	3620
4099.528	3637
4101.097	3646
4102.663	3620
4104.229	3554
4105.795	3557
4107.361	3576
4108.928	3634
4110.493	3556
4112.058	3654
4113.621	3537
4115.186	3613
4116.75	3712
4118.313	3641
4119.876	3614
4121.438	3599
4123	3630
4124.562	3576
4126.125	3644
4127.686	3511
4129.246	3574
4130.807	3599
4132.367	3476
4133.927	3539
4135.486	3498
4137.046	3445
4138.604	3510
4140.162	3499
4141.72	3467
4143.279	3561
4144.836	3510
4146.393	3499
4147.949	3476
4149.505	3489
4151.062	3550
4152.617	3540
4154.172	3426
4155.727	3536
4157.281	3464
4158.836	3414
4160.39	3495
4161.943	3479
4163.496	3462
4165.048	3448
4166.601	3481
4168.154	3423
4169.706	3422
4171.257	3449
4172.808	3441
4174.358	3509
4175.909	3475
4177.458	3434
4179.008	3457
4180.558	3434
4182.106	3396
4183.655	3508
4185.204	3390
4186.751	3383
4188.298	3414
4189.845	3429
4191.392	3429
4192.939	3420
4194.485	3457
4196.031	3364
4197.576	3375
4199.121	3356
4200.666	3399
4202.211	3431
4203.754	3376
4205.298	3370
4206.84	3347
4208.384	3410
4209.927	3352
4211.47	3319
4213.011	3339
4214.552	3345
4216.094	3316
4217.635	3370
4219.175	3360
4220.716	3326
4222.255	3286
4223.793	3311
4225.335	3311
4226.873	3301
4228.411	3348
4229.948	3303
4231.486	3321
4233.024	3320
4234.562	3313
4236.098	3357
4237.634	3355
4239.169	3239
4240.705	3269
4242.241	3314
4243.776	3288
4245.31	3368
4246.844	3311
4248.378	3313
4249.911	3329
4251.445	3304
4252.978	3277
4254.51	3262
4256.042	3299
4257.574	3306
4259.107	3279
4260.638	3288
4262.169	3296
4263.699	3302
4265.228	3254
4266.759	3276
4268.289	3307
4269.818	3288
4271.345	3272
4272.874	3282
4274.402	3284
4275.931	3296
4277.458	3286
4278.985	3275
4280.512	3311
4282.037	3311
4283.564	3264
4285.089	3280
4286.615	3273
4288.139	3307
4289.664	3295
4291.187	3225
4292.712	3279
4294.235	3245
4295.759	3211
4297.281	3211
4298.804	3190
4300.327	3258
4301.849	3131
4303.37	3219
4304.891	3198
4306.412	3211
4307.933	3188
4309.453	3111
4310.973	3231
4312.492	3147
