398.1873	9401
400.7097	9473
403.2336	9362
405.7547	9548
408.2751	9510
410.7948	9497
413.3138	9559
415.83	9559
418.3497	9648
420.8666	9748
423.3829	9570
425.8985	9878
428.4133	9807
430.9275	9965
433.441	9997
435.9538	9830
438.4639	9868
440.9753	10102
443.4881	9988
445.9982	10055
448.5055	9993
451.0142	10075
453.5201	10271
456.0274	10133
458.5361	10088
461.04	10022
463.5453	10093
466.0478	10128
468.5517	10205
471.0549	10158
473.5574	10362
476.0572	10285
478.5584	10345
481.0568	10338
483.5545	10379
486.0557	10487
488.5521	10440
491.0478	10444
493.5449	10526
496.0392	10447
498.5349	10583
501.0299	10580
503.5222	10675
506.0139	10689
508.5048	10754
510.9991	10716
513.4887	10592
515.9777	10585
518.4659	10581
520.9534	10603
523.4403	10805
525.9306	10660
528.4161	10812
530.9009	10736
533.3851	10774
535.8687	10727
538.3535	10605
540.8356	10700
543.3171	10899
545.7979	10764
548.278	10647
550.7595	10745
553.2383	10616
555.7144	10726
558.1918	10906
560.6685	10870
563.1446	10848
565.6221	10798
568.0968	10877
570.5688	11010
573.0422	10991
575.515	10977
577.989	11055
580.4584	11114
582.9291	11067
585.3991	10943
587.8685	11058
590.3352	11090
592.8052	11067
595.2706	11154
597.7372	10952
600.2033	11043
602.6666	11099
605.1334	10957
607.5953	11087
610.0587	11224
612.5193	11078
614.9814	10976
617.4427	10943
619.9034	11054
622.3615	10996
624.8208	11163
627.2775	11027
629.7335	11200
632.1929	11143
634.6476	11068
637.1016	11187
639.5569	11123
642.0096	10999
644.4637	11147
646.9151	11176
649.3678	11235
651.8179	11287
654.2672	11288
656.7159	11373
659.166	11225
661.6154	11316
664.0622	11301
666.5082	11584
668.9537	11511
671.4005	11447
673.8445	11479
676.288	11350
678.7308	11492
681.1729	11531
683.6163	11474
686.0572	11485
688.4973	11561
690.9368	11494
693.3757	11373
695.8138	11829
698.2534	11561
700.6902	11738
703.1245	11620
705.56	11571
707.9949	11568
710.4311	11739
712.8647	11584
715.2957	11769
717.7279	11998
720.1595	11760
722.5905	11885
725.0208	11873
727.4505	11856
729.8795	11960
732.3058	11952
734.7336	11937
737.1626	11968
739.587	12146
742.0128	12175
744.4359	12267
746.8604	12147
749.2841	12003
751.7073	12109
754.1278	12378
756.5496	12302
758.9688	12332
761.3893	12495
763.8093	12462
766.2285	12233
768.6451	12451
771.0611	12437
773.4784	12347
775.895	12368
778.3091	12483
780.7244	12404
783.1371	12364
785.5493	12482
787.9626	12415
790.3754	12431
792.7856	12336
795.1951	12511
797.6039	12412
800.0121	12427
802.4236	12306
804.8306	12445
807.2369	12411
809.6425	12474
812.0475	12609
814.4538	12461
816.8575	12538
819.2606	12487
821.663	12782
824.0648	12591
826.4659	12607
828.8683	12619
831.2682	12444
833.6674	12562
836.066	12599
838.4639	12697
840.8632	12704
843.2579	12635
845.6539	12595
848.0493	12611
850.444	12830
852.84	12699
855.2315	12684
857.6243	12662
860.0165	12574
862.4081	12622
864.797	12659
867.1892	12755
869.5789	12698
871.9659	12630
874.3542	12636
876.74	12721
879.129	12722
881.5155	12759
883.8994	12691
886.2845	12773
888.6671	12511
891.051	12830
893.4343	12539
895.8169	12724
898.197	12726
900.5783	12663
902.9571	12823
905.3372	12762
907.7167	12832
910.0936	12706
912.4698	12921
914.8474	12835
917.2244	12848
919.5987	12954
921.9744	12824
924.3475	12986
926.72	13009
929.0918	13015
931.4669	13126
933.8375	13092
936.2074	13063
938.5767	13269
940.9454	13072
943.3154	13182
945.6829	13419
948.0497	13470
950.4178	13564
952.7833	14080
955.1483	13878
957.5145	14367
959.8782	14440
962.2412	14207
964.6036	14265
966.9655	14007
969.3266	13767
971.6871	13691
974.0471	13353
976.4064	13285
978.765	13141
981.125	13084
983.4824	13100
985.8373	13112
988.1935	13063
990.549	12984
992.9039	13175
995.2602	13134
997.6119	12847
999.965	13058
1002.317	13033
1004.667	13131
1007.02	13098
1009.371	13059
1011.719	13066
1014.068	13023
1016.415	13200
1018.765	13097
1021.111	13243
1023.458	13283
1025.804	13226
1028.147	13218
1030.49	13264
1032.837	13277
1035.179	13226
1037.522	13360
1039.862	13177
1042.204	13290
1044.546	13277
1046.884	13265
1049.224	13344
1051.562	13142
1053.899	13277
1056.237	13305
1058.575	13288
1060.91	13312
1063.244	13432
1065.58	13454
1067.913	13524
1070.248	13479
1072.579	13476
1074.911	13493
1077.242	13382
1079.572	13474
1081.905	13583
1084.234	13393
1086.562	13346
1088.89	13665
1091.217	13395
1093.544	13442
1095.871	13497
1098.197	13504
1100.521	13431
1102.845	13450
1105.169	13396
1107.491	13505
1109.814	13255
1112.135	13382
1114.456	13591
1116.776	13331
1119.096	13561
1121.415	13429
1123.734	13579
1126.052	13478
1128.369	13604
1130.686	13436
1133.002	13544
1135.318	13502
1137.632	13501
1139.945	13729
1142.258	13595
1144.573	13455
1146.884	13602
1149.196	13627
1151.505	13615
1153.816	13476
1156.124	13543
1158.435	13668
1160.742	13838
1163.051	13603
1165.356	13581
1167.663	13571
1169.97	13600
1172.276	13595
1174.579	13593
1176.881	13630
1179.186	13645
1181.487	13568
1183.79	13603
1186.092	13668
1188.392	13499
1190.691	13435
1192.991	13508
1195.291	13462
1197.588	13580
1199.885	13645
1202.181	13649
1204.479	13678
1206.775	13634
1209.07	13610
1211.363	13731
1213.656	13604
1215.949	13791
1218.241	13613
1220.534	13581
1222.825	13586
1225.115	13633
1227.405	13891
1229.693	13777
1231.984	13779
1234.271	13726
1236.558	13792
1238.845	13912
1241.131	13959
1243.416	13972
1245.703	13971
1247.987	14067
1250.269	13909
1252.552	14049
1254.834	13975
1257.118	13891
1259.399	13850
1261.678	14063
1263.958	13896
1266.237	13904
1268.516	13809
1270.794	13991
1273.072	14064
1275.347	14012
1277.624	13965
1279.899	13916
1282.175	13839
1284.449	13792
1286.722	13992
1288.995	13800
1291.266	14004
1293.54	13963
1295.81	13828
1298.081	13925
1300.35	13852
1302.62	13744
1304.889	13875
1307.156	13851
1309.425	13834
1311.69	14089
1313.957	13844
1316.222	13778
1318.488	13991
1320.751	13708
1323.016	14055
1325.278	13852
1327.54	13929
1329.803	13881
1332.065	14099
1334.325	13773
1336.584	13873
1338.843	13762
1341.101	13780
1343.36	14090
1345.617	13855
1347.876	13957
1350.131	13972
1352.387	13750
1354.643	13885
1356.897	13775
1359.151	13978
1361.403	13880
1363.656	13738
1365.909	13931
1368.16	13885
1370.409	14045
1372.659	13940
1374.909	14178
1377.157	13982
1379.407	13900
1381.655	13983
1383.9	14012
1386.147	14003
1388.393	14002
1390.64	13945
1392.885	14171
1395.127	14059
1397.37	14030
1399.614	14142
1401.854	14185
1404.098	13988
1406.339	14035
1408.578	14198
1410.818	14067
1413.056	13981
1415.297	14094
1417.533	14274
1419.771	14090
1422.006	14252
1424.243	14211
1426.479	14086
1428.715	14090
1430.948	14239
1433.182	14262
1435.414	14363
1437.647	14366
1439.88	14418
1442.11	14323
1444.342	14337
1446.571	14650
1448.799	14421
1451.029	14471
1453.258	14435
1455.485	14372
1457.711	14496
1459.937	14237
1462.164	14426
1464.39	14392
1466.614	14390
1468.838	14347
1471.06	14401
1473.283	14180
1475.506	14606
1477.727	14195
1479.949	14211
1482.169	14289
1484.389	14104
1486.609	14160
1488.828	14275
1491.045	14039
1493.261	14111
1495.477	14029
1497.693	14206
1499.91	14092
1502.125	14139
1504.339	14073
1506.553	14205
1508.766	14007
1510.979	13974
1513.191	14105
1515.402	14133
1517.613	14040
1519.823	14018
1522.033	14174
1524.242	14086
1526.451	14026
1528.657	14043
1530.865	14161
1533.072	14096
1535.278	14231
1537.484	14004
1539.687	14294
1541.892	14181
1544.096	14233
1546.299	14036
1548.502	14349
1550.703	14074
1552.905	14262
1555.104	14229
1557.303	14323
1559.505	14447
1561.703	14278
1563.902	14277
1566.099	14329
1568.295	14454
1570.494	14295
1572.689	14388
1574.883	14323
1577.079	14467
1579.272	14428
1581.467	14372
1583.659	14512
1585.853	14343
1588.044	14443
1590.234	14511
1592.424	14513
1594.615	14342
1596.806	14662
1598.994	14406
1601.182	14569
1603.369	14581
1605.557	14538
1607.744	14555
1609.929	14509
1612.114	14671
1614.298	14672
1616.482	14574
1618.667	14540
1620.85	14686
1623.032	14616
1625.214	14519
1627.395	14476
1629.575	14573
1631.755	14548
1633.935	14509
1636.114	14582
1638.292	14427
1640.471	14620
1642.647	14741
1644.823	14550
1647	14582
1649.175	14575
1651.348	14639
1653.525	14636
1655.698	14366
1657.87	14718
1660.043	14440
1662.213	14472
1664.387	14628
1666.558	14682
1668.727	14723
1670.896	14747
1673.064	14514
1675.233	14801
1677.401	14673
1679.569	14688
1681.735	14772
1683.902	14684
1686.066	14529
1688.233	14676
1690.397	14555
1692.559	14644
1694.723	14752
1696.885	14648
1699.048	14597
1701.21	14598
1703.37	14579
1705.53	14550
1707.689	14579
1709.849	14627
1712.009	14602
1714.166	14515
1716.323	14659
1718.479	14557
1720.634	14551
1722.793	14582
1724.948	14390
1727.102	14496
1729.255	14531
1731.408	14539
1733.562	14618
1735.714	14547
1737.865	14649
1740.016	14572
1742.166	14671
1744.316	14615
1746.467	14602
1748.616	14575
1750.764	14725
1752.911	14491
1755.056	14644
1757.205	14533
1759.35	14689
1761.496	14726
1763.641	14820
1765.785	14642
1767.927	14715
1770.072	14680
1772.214	14713
1774.355	14712
1776.496	14842
1778.637	14868
1780.778	14804
1782.918	14600
1785.057	14556
1787.194	14742
1789.333	14717
1791.472	14731
1793.608	14610
1795.745	14930
1797.879	14642
1800.015	14896
1802.148	14815
1804.284	14795
1806.417	14597
1808.548	14668
1810.682	14917
1812.812	14662
1814.946	14547
1817.075	14611
1819.205	14722
1821.335	14663
1823.463	14877
1825.59	14583
1827.721	14555
1829.847	14623
1831.973	14816
1834.098	14619
1836.223	14693
1838.351	14678
1840.475	14590
1842.598	14467
1844.721	14814
1846.843	14655
1848.966	14545
1851.087	14535
1853.21	14676
1855.33	14629
1857.449	14405
1859.568	14594
1861.688	14589
1863.806	14597
1865.924	14574
1868.039	14636
1870.155	14537
1872.273	14556
1874.388	14443
1876.503	14684
1878.617	14576
1880.73	14618
1882.844	14588
1884.956	14444
1887.068	14620
1889.18	14415
1891.291	14408
1893.4	14769
1895.511	14715
1897.621	14701
1899.73	14738
1901.837	14610
1903.944	14893
1906.053	14783
1908.159	14694
1910.265	14647
1912.369	14798
1914.474	14759
1916.577	14610
1918.683	14846
1920.785	14812
1922.888	14858
1924.989	14955
1927.091	14942
1929.193	14716
1931.294	14538
1933.393	14713
1935.493	14590
1937.59	14674
1939.689	14854
1941.788	14808
1943.884	14843
1945.98	14895
1948.077	14862
1950.171	14698
1952.267	14724
1954.361	14896
1956.455	14847
1958.548	14888
1960.64	14990
1962.733	14822
1964.824	14718
1966.915	14915
1969.005	14754
1971.096	14703
1973.185	14853
1975.275	14809
1977.363	14699
1979.45	14690
1981.537	14726
1983.623	14885
1985.711	14912
1987.796	14945
1989.881	14922
1991.965	14691
1994.047	14509
1996.132	14593
1998.215	14747
2000.297	14784
2002.378	14571
2004.46	14678
2006.54	14674
2008.62	14618
2010.7	14779
2012.779	14598
2014.858	14753
2016.934	14827
2019.013	14680
2021.09	14786
2023.165	14644
2025.241	14732
2027.317	14677
2029.39	14552
2031.466	14608
2033.538	14737
2035.612	14459
2037.683	14541
2039.755	14589
2041.827	14692
2043.898	14591
2045.968	14679
2048.038	14672
2050.106	14605
2052.177	14679
2054.244	14614
2056.313	14632
2058.379	14684
2060.444	14631
2062.511	14542
2064.577	14632
2066.641	14625
2068.705	14712
2070.77	14630
2072.832	14679
2074.896	14697
2076.958	14553
2079.02	14683
2081.081	14734
2083.141	14719
2085.2	14691
2087.261	14789
2089.319	14720
2091.377	14846
2093.435	14699
2095.492	14733
2097.552	14626
2099.607	14568
2101.663	14640
2103.718	14582
2105.771	14635
2107.826	14672
2109.879	14457
2111.932	14652
2113.985	14775
2116.037	14685
2118.088	14651
2120.141	14527
2122.191	14769
2124.239	14617
2126.288	14627
2128.337	14659
2130.387	14609
2132.434	14721
2134.481	14607
2136.528	14516
2138.574	14651
2140.618	14541
2142.665	14753
2144.71	14569
2146.753	14504
2148.797	14602
2150.838	14573
2152.883	14387
2154.923	14588
2156.965	14592
2159.007	14490
2161.046	14356
2163.086	14608
2165.126	14540
2167.163	14537
2169.202	14397
2171.239	14420
2173.277	14491
2175.314	14277
2177.349	14411
2179.385	14440
2181.42	14330
2183.453	14416
2185.49	14430
2187.522	14287
2189.555	14293
2191.586	14665
2193.619	14329
2195.651	14345
2197.682	14301
2199.711	14182
2201.74	14174
2203.769	14365
2205.799	14141
2207.828	14286
2209.855	14135
2211.882	14199
2213.908	14033
2215.934	14309
2217.961	14231
2219.986	14130
2222.01	14128
2224.034	14282
2226.057	14047
2228.08	14260
2230.104	14151
2232.124	14260
2234.145	14196
2236.166	14145
2238.186	14332
2240.207	13943
2242.227	14264
2244.244	14047
2246.262	14264
2248.28	14249
2250.299	13975
2252.314	14108
2254.33	14202
2256.346	14209
2258.36	14161
2260.375	14237
2262.391	14203
2264.403	14210
2266.416	14304
2268.427	14119
2270.44	14243
2272.453	14250
2274.463	14217
2276.474	14166
2278.483	13975
2280.493	14255
2282.501	14106
2284.51	14275
2286.518	14271
2288.524	14087
2290.532	14166
2292.537	14161
2294.544	14062
2296.55	14117
2298.554	14165
2300.557	14117
2302.562	13995
2304.566	14294
2306.568	14251
2308.569	14254
2310.572	14125
2312.573	14030
2314.573	14090
2316.574	14121
2318.573	13993
2320.571	14102
2322.571	14015
2324.569	13972
2326.567	14051
2328.564	13941
2330.56	13963
2332.556	14044
2334.551	13963
2336.546	13961
2338.542	13771
2340.535	14016
2342.529	14135
2344.521	13770
2346.512	14019
2348.505	13826
2350.497	14028
2352.487	13912
2354.478	13933
2356.468	13956
2358.457	13878
2360.446	13713
2362.434	13821
2364.422	13822
2366.408	13795
2368.395	14053
2370.383	13934
2372.369	13716
2374.353	13823
2376.338	13805
2378.321	13768
2380.307	13807
2382.29	13823
2384.272	13811
2386.254	13736
2388.235	13855
2390.218	13712
2392.198	13873
2394.179	13652
2396.157	13734
2398.137	13906
2400.115	13752
2402.095	13704
2404.072	13652
2406.048	13844
2408.026	13612
2410.001	13842
2411.977	13892
2413.953	13679
2415.927	13582
2417.9	13506
2419.875	13592
2421.847	13682
2423.821	13744
2425.792	13617
2427.763	13724
2429.736	13760
2431.706	13713
2433.677	13678
2435.646	13745
2437.615	13720
2439.583	13788
2441.551	13743
2443.519	13629
2445.486	13757
2447.452	13682
2449.418	13827
2451.383	13436
2453.348	13528
2455.314	13612
2457.278	13561
2459.241	13721
2461.205	13519
2463.167	13538
2465.131	13539
2467.091	13439
2469.052	13381
2471.012	13532
2472.972	13513
2474.932	13630
2476.891	13635
2478.85	13419
2480.808	13403
2482.766	13328
2484.722	13272
2486.68	13402
2488.636	13597
2490.591	13410
2492.546	13390
2494.5	13556
2496.456	13258
2498.41	13504
2500.362	13466
2502.315	13289
2504.266	13418
2506.218	13445
2508.169	13479
2510.121	13340
2512.07	13374
2514.019	13279
2515.968	13464
2517.918	13521
2519.866	13355
2521.813	13256
2523.76	13325
2525.707	13400
2527.653	13351
2529.599	13407
2531.543	13383
2533.489	13426
2535.433	13293
2537.376	13333
2539.32	13314
2541.264	13259
2543.205	13374
2545.147	13262
2547.087	13202
2549.029	13435
2550.969	13534
2552.908	13315
2554.847	13339
2556.786	13324
2558.724	13248
2560.663	13365
2562.6	13294
2564.537	13329
2566.473	13344
2568.408	13235
2570.345	13214
2572.28	13504
2574.214	13189
2576.148	13303
2578.081	13226
2580.014	13445
2581.947	13309
2583.879	13366
2585.81	13258
2587.741	13249
2589.67	13261
2591.602	13220
2593.532	13400
2595.461	13424
2597.388	13413
2599.316	13199
2601.244	13219
2603.172	13420
2605.098	13504
2607.023	13317
2608.949	13196
2610.873	13298
2612.8	13369
2614.723	13178
2616.647	13211
2618.569	13347
2620.493	13503
2622.416	13427
2624.338	13408
2626.258	13371
2628.179	13380
2630.099	13413
2632.019	13390
2633.939	13243
2635.857	13181
2637.775	13367
2639.694	13501
2641.61	13094
2643.528	13404
2645.444	13392
2647.361	13323
2649.276	13423
2651.19	13362
2653.105	13259
2655.019	13161
2656.934	13213
2658.846	13301
2660.758	13345
2662.67	13226
2664.583	13250
2666.493	13286
2668.404	13229
2670.313	13231
2672.223	13325
2674.134	13189
2676.042	13264
2677.95	12993
2679.858	13382
2681.765	13343
2683.673	13277
2685.579	13031
2687.483	13219
2689.389	13030
2691.294	13224
2693.198	13173
2695.104	13085
2697.006	13197
2698.909	12813
2700.811	13227
2702.713	13086
2704.615	13128
2706.516	13051
2708.417	13147
2710.316	13064
2712.216	13141
2714.115	13263
2716.014	13078
2717.913	12972
2719.81	12876
2721.707	13068
2723.603	13192
2725.501	13097
2727.396	13000
2729.292	12958
2731.186	13112
2733.081	13116
2734.976	12899
2736.87	13088
2738.762	12986
2740.653	13047
2742.546	12946
2744.437	12872
2746.329	13042
2748.22	12891
2750.11	12760
2751.999	12854
2753.889	12945
2755.778	12904
2757.666	12845
2759.553	12881
2761.44	12846
2763.328	12888
2765.215	12932
2767.101	12880
2768.986	12824
2770.87	12856
2772.754	12889
2774.638	12842
2776.523	12818
2778.405	12912
2780.288	12789
2782.17	12832
2784.051	12666
2785.934	12714
2787.814	12897
2789.694	12850
2791.574	12834
2793.453	12701
2795.332	12761
2797.212	12670
2799.088	12807
2800.966	12784
2802.843	12780
2804.719	12665
2806.597	12795
2808.471	12576
2810.346	12775
2812.221	12828
2814.094	12705
2815.969	12691
2817.843	12906
2819.714	12839
2821.587	12855
2823.459	12659
2825.329	12587
2827.202	12617
2829.072	12539
2830.942	12670
2832.811	12568
2834.68	12700
2836.549	12603
2838.418	12596
2840.284	12843
2842.152	12652
2844.018	12769
2845.885	12591
2847.751	12645
2849.616	12781
2851.482	12524
2853.345	12588
2855.208	12779
2857.074	12633
2858.937	12646
2860.799	12583
2862.66	12778
2864.522	12646
2866.385	12866
2868.245	12757
2870.104	12805
2871.964	12679
2873.824	12779
2875.683	12832
2877.542	12954
2879.4	12899
2881.257	13000
2883.114	12942
2884.97	12999
2886.827	12971
2888.683	13097
2890.537	12995
2892.392	12826
2894.246	12813
2896.1	12793
2897.954	12979
2899.807	12850
2901.66	12820
2903.51	12978
2905.362	12906
2907.214	13015
2909.065	12946
2910.915	12828
2912.765	12909
2914.613	12720
2916.463	13056
2918.311	12934
2920.158	12992
2922.006	12954
2923.853	13041
2925.698	13132
2927.546	13100
2929.392	13260
2931.236	13226
2933.081	13310
2934.924	13291
2936.77	13384
2938.613	13207
2940.455	13381
2942.298	13395
2944.139	13391
2945.982	13336
2947.823	13262
2949.662	13261
2951.503	13419
2953.342	13269
2955.182	13024
2957.021	13194
2958.858	13032
2960.697	12893
2962.534	13198
2964.37	13102
2966.207	12955
2968.044	12878
2969.879	12909
2971.714	12827
2973.548	12811
2975.383	12893
2977.218	12784
2979.051	12571
2980.883	12756
2982.715	12778
2984.547	12657
2986.379	12467
2988.21	12691
2990.04	12687
2991.87	12596
2993.7	12546
2995.53	12479
2997.359	12354
2999.187	12439
3001.015	12411
3002.842	12499
3004.669	12181
3006.497	12308
3008.323	12246
3010.148	12166
3011.974	12144
3013.797	12301
3015.623	12087
3017.447	12123
3019.27	11994
3021.094	12041
3022.915	11994
3024.737	12177
3026.56	11945
3028.38	12153
3030.201	12022
3032.022	12045
3033.84	11966
3035.662	11924
3037.481	11911
3039.298	11988
3041.117	11885
3042.933	11960
3044.752	11950
3046.568	11855
3048.385	11989
3050.2	11931
3052.016	11966
3053.83	11965
3055.646	11958
3057.46	11905
3059.272	11748
3061.086	11846
3062.898	11919
3064.711	11692
3066.524	11801
3068.335	11788
3070.145	11926
3071.956	11834
3073.766	11655
3075.576	11692
3077.385	11687
3079.193	11727
3081.002	11676
3082.81	11676
3084.618	11726
3086.425	11770
3088.231	11642
3090.036	11716
3091.842	11570
3093.648	11630
3095.452	11544
3097.257	11605
3099.06	11673
3100.863	11427
3102.666	11651
3104.47	11548
3106.272	11515
3108.073	11533
3109.875	11515
3111.676	11534
3113.477	11455
3115.277	11477
3117.077	11330
3118.874	11403
3120.673	11424
3122.473	11447
3124.271	11316
3126.066	11314
3127.863	11358
3129.66	11512
3131.456	11372
3133.252	11369
3135.047	11361
3136.842	11392
3138.635	11270
3140.429	11198
3142.223	11282
3144.016	11224
3145.808	11141
3147.6	11174
3149.392	11304
3151.183	11292
3152.975	11206
3154.765	11157
3156.553	11252
3158.344	11231
3160.132	11171
3161.922	11151
3163.71	11165
3165.497	11284
3167.285	11236
3169.071	11003
3170.858	10982
3172.645	11233
3174.429	11191
3176.214	11176
3177.998	11043
3179.783	11046
3181.568	11075
3183.351	10889
3185.133	10960
3186.915	10998
3188.698	11079
3190.481	11093
3192.261	10817
3194.042	11062
3195.822	10836
3197.601	10996
3199.381	10966
3201.161	11066
3202.939	10847
3204.717	10948
3206.495	11083
3208.272	10991
3210.05	10914
3211.826	10947
3213.602	10826
3215.376	10919
3217.151	10937
3218.927	10948
3220.702	10924
3222.476	10864
3224.249	10935
3226.021	10729
3227.793	10835
3229.567	10845
3231.339	10969
3233.109	10839
3234.88	10906
3236.651	10888
3238.421	10891
3240.191	10916
3241.96	10758
3243.728	11029
3245.497	10764
3247.263	10913
3249.033	10830
3250.799	10792
3252.566	10921
3254.331	10754
3256.097	10634
3257.863	10896
3259.628	10651
3261.392	10858
3263.156	10899
3264.919	10885
3266.683	10723
3268.447	10744
3270.208	10714
3271.969	10764
3273.731	10787
3275.492	10923
3277.253	10791
3279.013	10722
3280.773	10717
3282.532	10863
3284.291	10687
3286.05	10870
3287.808	10693
3289.566	10749
3291.323	10700
3293.079	10794
3294.835	10704
3296.593	10682
3298.348	10782
3300.102	10800
3301.857	10644
3303.611	10634
3305.366	10734
3307.119	10745
3308.872	10626
3310.624	10650
3312.376	10737
3314.129	10681
3315.881	10792
3317.631	10539
3319.38	10621
3321.13	10681
3322.88	10712
3324.631	10723
3326.379	10562
3328.126	10680
3329.875	10582
3331.622	10640
3333.371	10635
3335.116	10455
3336.863	10664
3338.609	10578
3340.353	10472
3342.1	10610
3343.845	10508
3345.588	10596
3347.332	10728
3349.074	10524
3350.817	10451
3352.56	10440
3354.303	10494
3356.043	10610
3357.785	10380
3359.525	10395
3361.268	10477
3363.007	10500
3364.745	10405
3366.485	10433
3368.223	10489
3369.962	10472
3371.701	10471
3373.438	10393
3375.174	10351
3376.911	10505
3378.647	10432
3380.384	10386
3382.118	10342
3383.854	10285
3385.588	10322
3387.322	10501
3389.057	10401
3390.79	10468
3392.522	10463
3394.255	10293
3395.987	10293
3397.719	10220
3399.451	10437
3401.181	10218
3402.911	10385
3404.641	10326
3406.371	10273
3408.101	10280
3409.83	10440
3411.558	10263
3413.285	10334
3415.011	10247
3416.739	10295
3418.467	10206
3420.193	10219
3421.919	10208
3423.644	10233
3425.368	10132
3427.094	10143
3428.818	10182
3430.542	10064
3432.264	10203
3433.987	10118
3435.712	10205
3437.434	10135
3439.155	10182
3440.876	10114
3442.596	10042
3444.317	10026
3446.039	9964
3447.757	9916
3449.477	10032
3451.195	10048
3452.914	10150
3454.632	9896
3456.35	10025
3458.067	9955
3459.784	9895
3461.5	10052
3463.216	9995
3464.932	9829
3466.647	9868
3468.362	10006
3470.076	9925
3471.789	9904
3473.505	9914
3475.217	9838
3476.929	9748
3478.641	9878
3480.354	9816
3482.066	9820
3483.777	9761
3485.487	9751
3487.197	9849
3488.908	9910
3490.617	9755
3492.327	9709
3494.035	9743
3495.743	9875
3497.451	9749
3499.158	9664
3500.866	9731
3502.572	9662
3504.278	9692
3505.984	9732
3507.689	9689
3509.396	9668
3511.1	9571
3512.804	9506
3514.508	9590
3516.211	9682
3517.913	9609
3519.616	9604
3521.319	9751
3523.021	9665
3524.722	9676
3526.422	9652
3528.124	9593
3529.824	9506
3531.524	9667
3533.222	9528
3534.921	9476
3536.62	9721
3538.318	9423
3540.016	9539
3541.714	9526
3543.41	9666
3545.107	9488
3546.803	9584
3548.5	9460
3550.194	9607
3551.889	9567
3553.583	9367
3555.279	9501
3556.972	9478
3558.666	9530
3560.358	9488
3562.051	9425
3563.742	9455
3565.435	9411
3567.126	9344
3568.817	9523
3570.507	9387
3572.197	9501
3573.888	9444
3575.577	9473
3577.265	9393
3578.954	9436
3580.642	9348
3582.329	9396
3584.017	9348
3585.704	9406
3587.391	9427
3589.077	9268
3590.762	9323
3592.449	9342
3594.133	9218
3595.817	9240
3597.501	9294
3599.185	9179
3600.869	9334
3602.552	9321
3604.234	9179
3605.916	9199
3607.598	9062
3609.279	9132
3610.961	9277
3612.642	9306
3614.321	9076
3616	9029
3617.68	9266
3619.36	9227
3621.039	9042
3622.716	9071
3624.394	8996
3626.071	9115
3627.748	9085
3629.425	8941
3631.102	8996
3632.778	8993
3634.452	8935
3636.127	8982
3637.803	9035
3639.477	9142
3641.151	8899
3642.823	8810
3644.497	9069
3646.171	9117
3647.842	9039
3649.515	8830
3651.185	8933
3652.857	8913
3654.527	8981
3656.198	8865
3657.868	8954
3659.537	8869
3661.207	8848
3662.875	8853
3664.544	9028
3666.212	8842
3667.879	8837
3669.546	8791
3671.212	9055
3672.88	8765
3674.546	8952
3676.211	8716
3677.875	8798
3679.541	8813
3681.205	8751
3682.87	8787
3684.533	8788
3686.196	8876
3687.859	8930
3689.521	8703
3691.184	8759
3692.845	8779
3694.507	8700
3696.167	8715
3697.827	8767
3699.487	8695
3701.148	8770
3702.808	8699
3704.466	8866
3706.125	8774
3707.783	8654
3709.442	8711
3711.099	8718
3712.757	8633
3714.412	8681
3716.068	8580
3717.725	8729
3719.381	8752
3721.036	8637
3722.689	8618
3724.344	8740
3725.998	8615
3727.652	8615
3729.305	8622
3730.958	8667
3732.61	8662
3734.262	8642
3735.915	8540
3737.565	8528
3739.217	8585
3740.866	8623
3742.516	8633
3744.165	8560
3745.816	8510
3747.464	8465
3749.113	8524
3750.761	8582
3752.409	8593
3754.057	8682
3755.703	8437
3757.35	8569
3758.996	8439
3760.641	8555
3762.289	8558
3763.933	8503
3765.577	8563
3767.222	8395
3768.865	8396
3770.508	8393
3772.152	8450
3773.796	8478
3775.438	8398
3777.079	8304
3778.721	8348
3780.363	8334
3782.003	8325
3783.643	8317
3785.283	8359
3786.923	8220
3788.563	8275
3790.203	8436
3791.841	8338
3793.479	8215
3795.115	8194
3796.753	8332
3798.391	8333
3800.027	8172
3801.664	8245
3803.299	8255
3804.935	8360
3806.571	8223
3808.206	8184
3809.839	8364
3811.473	8272
3813.107	8240
3814.74	8221
3816.375	8284
3818.006	8228
3819.638	8112
3821.27	8185
3822.9	8109
3824.532	8046
3826.163	8112
3827.792	8176
3829.423	8091
3831.051	8158
3832.682	8189
3834.311	8152
3835.938	8078
3837.566	8032
3839.193	7997
3840.821	8089
3842.448	7971
3844.075	7986
3845.7	7959
3847.325	7972
3848.951	7957
3850.576	8027
3852.201	8044
3853.825	7939
3855.448	7910
3857.072	8000
3858.694	7983
3860.318	8007
3861.939	8093
3863.562	7895
3865.183	7900
3866.804	7874
3868.426	8055
3870.045	7910
3871.666	8000
3873.285	7821
3874.904	7934
3876.524	7946
3878.142	7957
3879.76	7894
3881.378	7825
3882.995	7794
3884.612	7834
3886.229	7910
3887.845	7792
3889.461	7809
3891.076	7834
3892.691	7740
3894.307	7941
3895.922	7810
3897.536	7920
3899.149	7987
3900.761	7729
3902.374	7774
3903.988	7734
3905.6	7825
3907.212	7875
3908.822	7734
3910.433	7758
3912.045	7656
3913.655	7835
3915.265	7815
3916.875	7787
3918.483	7793
3920.093	7642
3921.702	7787
3923.309	7727
3924.917	7879
3926.523	7724
3928.13	7770
3929.739	7627
3931.344	7686
3932.95	7686
3934.555	7693
3936.159	7705
3937.766	7658
3939.369	7676
3940.974	7726
3942.577	7601
3944.181	7783
3945.783	7596
3947.386	7694
3948.989	7723
3950.59	7618
3952.191	7794
3953.791	7715
3955.394	7541
3956.994	7534
3958.593	7565
3960.192	7624
3961.791	7597
3963.392	7537
3964.99	7585
3966.588	7589
3968.185	7623
3969.782	7575
3971.379	7609
3972.976	7478
3974.572	7555
3976.168	7501
3977.763	7528
3979.358	7522
3980.954	7479
3982.548	7475
3984.142	7420
3985.736	7494
3987.329	7377
3988.922	7419
3990.516	7338
3992.108	7384
3993.698	7389
3995.29	7328
3996.881	7412
3998.473	7259
4000.064	7308
4001.653	7421
4003.242	7299
4004.832	7303
4006.422	7281
4008.01	7331
4009.598	7485
4011.186	7326
4012.773	7341
4014.36	7246
4015.947	7221
4017.534	7243
4019.119	7187
4020.705	7099
4022.291	7230
4023.876	7155
4025.461	7141
4027.044	7250
4028.627	7267
4030.211	7170
4031.795	7202
4033.378	7120
4034.96	7166
4036.542	7214
4038.124	7117
4039.704	7121
4041.286	7099
4042.867	7189
4044.447	6995
4046.026	7105
4047.606	7129
4049.187	7011
4050.765	7103
4052.343	7097
4053.92	7171
4055.498	6967
4057.076	7037
4058.654	6999
4060.23	7009
4061.806	7015
4063.381	7120
4064.957	7049
4066.533	6995
4068.107	6927
4069.682	7167
4071.256	7035
4072.829	6879
4074.404	7069
4075.977	6915
4077.549	7037
4079.121	6968
4080.693	6849
4082.265	6971
4083.836	6889
4085.407	6897
4086.977	6885
4088.547	6880
4090.117	6861
4091.687	6995
4093.256	6941
4094.825	7030
4096.392	6926
4097.96	6867
4099.528	6887
4101.097	6844
4102.663	6833
4104.229	6901
4105.795	6845
4107.361	6912
4108.928	6829
4110.493	6894
4112.058	6848
4113.621	6727
4115.186	6853
4116.75	6821
4118.313	6778
4119.876	6849
4121.438	6767
4123	6831
4124.562	6798
4126.125	6663
4127.686	6776
4129.246	6700
4130.807	6725
4132.367	6696
4133.927	6710
4135.486	6736
4137.046	6642
4138.604	6672
4140.162	6695
4141.72	6651
4143.279	6608
4144.836	6551
4146.393	6560
4147.949	6654
4149.505	6579
4151.062	6649
4152.617	6635
4154.172	6570
4155.727	6670
4157.281	6503
4158.836	6467
4160.39	6517
4161.943	6502
4163.496	6575
4165.048	6563
4166.601	6561
4168.154	6432
4169.706	6501
4171.257	6443
4172.808	6488
4174.358	6433
4175.909	6425
4177.458	6507
4179.008	6435
4180.558	6431
4182.106	6555
4183.655	6454
4185.204	6363
4186.751	6514
4188.298	6366
4189.845	6320
4191.392	6421
4192.939	6456
4194.485	6358
4196.031	6393
4197.576	6395
4199.121	6418
4200.666	6373
4202.211	6248
4203.754	6311
4205.298	6248
4206.84	6317
4208.384	6234
4209.927	6321
4211.47	6384
4213.011	6369
4214.552	6322
4216.094	6247
4217.635	6216
4219.175	6223
4220.716	6299
4222.255	6196
4223.793	6202
4225.335	6239
4226.873	6270
4228.411	6292
4229.948	6227
4231.486	6333
4233.024	6249
4234.562	6198
4236.098	6303
4237.634	6243
4239.169	6269
4240.705	6173
4242.241	6351
4243.776	6295
4245.31	6306
4246.844	6197
4248.378	6103
4249.911	6196
4251.445	6195
4252.978	6287
4254.51	6233
4256.042	6154
4257.574	6050
4259.107	6141
4260.638	6144
4262.169	6190
4263.699	6109
4265.228	6145
4266.759	6133
4268.289	6051
4269.818	6096
4271.345	6076
4272.874	6057
4274.402	6091
4275.931	6157
4277.458	6022
4278.985	6104
4280.512	6113
4282.037	6100
4283.564	6027
4285.089	6022
4286.615	6145
4288.139	6016
4289.664	6057
4291.187	6005
4292.712	6008
4294.235	5994
4295.759	6027
4297.281	6013
4298.804	5947
4300.327	6021
4301.849	5956
4303.37	5987
4304.891	5968
4306.412	5880
4307.933	5886
4309.453	5876
4310.973	5931
4312.492	5845
