398.1873	9579
400.7097	9507
403.2336	9505
405.7547	9518
408.2751	9686
410.7948	9611
413.3138	9682
415.83	9638
418.3497	9783
420.8666	9897
423.3829	9916
425.8985	9913
428.4133	9942
430.9275	9964
433.441	10088
435.9538	10164
438.4639	10011
440.9753	10013
443.4881	10168
445.9982	10087
448.5055	10150
451.0142	10152
453.5201	10195
456.0274	10211
458.5361	10375
461.04	10130
463.5453	10225
466.0478	10214
468.5517	10264
471.0549	10367
473.5574	10380
476.0572	10344
478.5584	10338
481.0568	10395
483.5545	10494
486.0557	10465
488.5521	10468
491.0478	10506
493.5449	10588
496.0392	10441
498.5349	10554
501.0299	10769
503.5222	10753
506.0139	10694
508.5048	10647
510.9991	10706
513.4887	10741
515.9777	10763
518.4659	10843
520.9534	10748
523.4403	10738
525.9306	10705
528.4161	10823
530.9009	10734
533.3851	10787
535.8687	10593
538.3535	10783
540.8356	10744
543.3171	10731
545.7979	10680
548.278	10577
550.7595	10877
553.2383	10696
555.7144	10821
558.1918	10736
560.6685	10971
563.1446	10880
565.6221	10881
568.0968	10967
570.5688	11028
573.0422	10863
575.515	10952
577.989	11069
580.4584	11150
582.9291	11121
585.3991	11031
587.8685	11116
590.3352	11343
592.8052	11239
595.2706	10971
597.7372	11010
600.2033	11225
602.6666	11075
605.1334	11101
607.5953	11221
610.0587	11314
612.5193	11050
614.9814	11190
617.4427	11185
619.9034	11086
622.3615	11085
624.8208	11151
627.2775	11118
629.7335	11184
632.1929	11143
634.6476	11086
637.1016	11288
639.5569	11317
642.0096	11183
644.4637	11248
646.9151	11264
649.3678	11456
651.8179	11430
654.2672	11438
656.7159	11400
659.166	11385
661.6154	11406
664.0622	11313
666.5082	11442
668.9537	11439
671.4005	11471
673.8445	11479
676.288	11501
678.7308	11542
681.1729	11389
683.6163	11597
686.0572	11520
688.4973	11625
690.9368	11621
693.3757	11498
695.8138	11598
698.2534	11620
700.6902	11588
703.1245	11722
705.56	11750
707.9949	11697
710.4311	11827
712.8647	11704
715.2957	11751
717.7279	11826
720.1595	11795
722.5905	11735
725.0208	11931
727.4505	11817
729.8795	11902
732.3058	11974
734.7336	11999
737.1626	12051
739.587	12166
742.0128	12092
744.4359	12126
746.8604	12309
749.2841	12050
751.7073	12162
754.1278	12341
756.5496	12457
758.9688	12361
761.3893	12497
763.8093	12348
766.2285	12493
768.6451	12294
771.0611	12468
773.4784	12363
775.895	12353
778.3091	12281
780.7244	12555
783.1371	12484
785.5493	12332
787.9626	12557
790.3754	12464
792.7856	12471
795.1951	12417
797.6039	12453
800.0121	12478
802.4236	12533
804.8306	12500
807.2369	12403
809.6425	12497
812.0475	12490
814.4538	12714
816.8575	12602
819.2606	12665
821.663	12780
824.0648	12635
826.4659	12523
828.8683	12633
831.2682	12644
833.6674	12506
836.066	12586
838.4639	12761
840.8632	12695
843.2579	12711
845.6539	12813
848.0493	12643
850.444	12759
852.84	12765
855.2315	12894
857.6243	12822
860.0165	12726
862.4081	12654
864.797	12801
867.1892	12693
869.5789	12758
871.9659	12841
874.3542	12733
876.74	12782
879.129	12687
881.5155	12767
883.8994	12651
886.2845	12621
888.6671	12728
891.051	12802
893.4343	12888
895.8169	12736
898.197	12583
900.5783	12804
902.9571	12683
905.3372	12683
907.7167	12912
910.0936	13050
912.4698	12996
914.8474	12862
917.2244	12862
919.5987	13012
921.9744	13089
924.3475	13104
926.72	12978
929.0918	13306
931.4669	13241
933.8375	13110
936.2074	13330
938.5767	13236
940.9454	13232
943.3154	13391
945.6829	13626
948.0497	13908
950.4178	13711
952.7833	14097
955.1483	14469
957.5145	14792
959.8782	14874
962.2412	14817
964.6036	14703
966.9655	14140
969.3266	13888
971.6871	13757
974.0471	13507
976.4064	13364
978.765	13205
981.125	13248
983.4824	13135
985.8373	13109
988.1935	13129
990.549	13056
992.9039	13191
995.2602	13221
997.6119	13135
999.965	13202
1002.317	13088
1004.667	13206
1007.02	13223
1009.371	13332
1011.719	13290
1014.068	13234
1016.415	13132
1018.765	13182
1021.111	13224
1023.458	13249
1025.804	13327
1028.147	13299
1030.49	13328
1032.837	13308
1035.179	13271
1037.522	13286
1039.862	13308
1042.204	13430
1044.546	13525
1046.884	13290
1049.224	13294
1051.562	13323
1053.899	13329
1056.237	13438
1058.575	13641
1060.91	13485
1063.244	13490
1065.58	13403
1067.913	13532
1070.248	13410
1072.579	13575
1074.911	13610
1077.242	13617
1079.572	13595
1081.905	13474
1084.234	13552
1086.562	13482
1088.89	13370
1091.217	13369
1093.544	13444
1095.871	13554
1098.197	13412
1100.521	13626
1102.845	13526
1105.169	13384
1107.491	13453
1109.814	13375
1112.135	13535
1114.456	13586
1116.776	13463
1119.096	13446
1121.415	13608
1123.734	13572
1126.052	13817
1128.369	13647
1130.686	13444
1133.002	13743
1135.318	13487
1137.632	13702
1139.945	13696
1142.258	13481
1144.573	13351
1146.884	13444
1149.196	13606
1151.505	13649
1153.816	13528
1156.124	13632
1158.435	13731
1160.742	13700
1163.051	13382
1165.356	13679
1167.663	13462
1169.97	13501
1172.276	13576
1174.579	13743
1176.881	13539
1179.186	13635
1181.487	13641
1183.79	13648
1186.092	13600
1188.392	13476
1190.691	13536
1192.991	13551
1195.291	13693
1197.588	13617
1199.885	13568
1202.181	13789
1204.479	13680
1206.775	13514
1209.07	13426
1211.363	13684
1213.656	13601
1215.949	13650
1218.241	13734
1220.534	13720
1222.825	13557
1225.115	13824
1227.405	13766
1229.693	13794
1231.984	13885
1234.271	13827
1236.558	13906
1238.845	13803
1241.131	13868
1243.416	13963
1245.703	13845
1247.987	13837
1250.269	13890
1252.552	13916
1254.834	13848
1257.118	13987
1259.399	14002
1261.678	13910
1263.958	13914
1266.237	14092
1268.516	13982
1270.794	13875
1273.072	13916
1275.347	13868
1277.624	14035
1279.899	13948
1282.175	13926
1284.449	13810
1286.722	13849
1288.995	13721
1291.266	13695
1293.54	13834
1295.81	13783
1298.081	13889
1300.35	13795
1302.62	13764
1304.889	13954
1307.156	13808
1309.425	13881
1311.69	13907
1313.957	13779
1316.222	13845
1318.488	13874
1320.751	13842
1323.016	13977
1325.278	13822
1327.54	13974
1329.803	13872
1332.065	13966
1334.325	13982
1336.584	13784
1338.843	13818
1341.101	13788
1343.36	13897
1345.617	13847
1347.876	13921
1350.131	13912
1352.387	13938
1354.643	14082
1356.897	13858
1359.151	13924
1361.403	14063
1363.656	13935
1365.909	13983
1368.16	14174
1370.409	13950
1372.659	13853
1374.909	13965
1377.157	13867
1379.407	14015
1381.655	13927
1383.9	13983
1386.147	14042
1388.393	14053
1390.64	13893
1392.885	14133
1395.127	13961
1397.37	13968
1399.614	14185
1401.854	14188
1404.098	14210
1406.339	13920
1408.578	14077
1410.818	14074
1413.056	13858
1415.297	14251
1417.533	14204
1419.771	13969
1422.006	14042
1424.243	14184
1426.479	14120
1428.715	14236
1430.948	14230
1433.182	14297
1435.414	14291
1437.647	14314
1439.88	14381
1442.11	14222
1444.342	14326
1446.571	14492
1448.799	14231
1451.029	14309
1453.258	14581
1455.485	14405
1457.711	14387
1459.937	14354
1462.164	14284
1464.39	14428
1466.614	14327
1468.838	14192
1471.06	14355
1473.283	14170
1475.506	14320
1477.727	14306
1479.949	14159
1482.169	14127
1484.389	14156
1486.609	14115
1488.828	14106
1491.045	14140
1493.261	13999
1495.477	14021
1497.693	14102
1499.91	14023
1502.125	14192
1504.339	14012
1506.553	13974
1508.766	13989
1510.979	13925
1513.191	13855
1515.402	13946
1517.613	13888
1519.823	14043
1522.033	14068
1524.242	14008
1526.451	13913
1528.657	14074
1530.865	13953
1533.072	14151
1535.278	13947
1537.484	14100
1539.687	14000
1541.892	14045
1544.096	13953
1546.299	13913
1548.502	14126
1550.703	14126
1552.905	14337
1555.104	14202
1557.303	14322
1559.505	14282
1561.703	14405
1563.902	14183
1566.099	14350
1568.295	14410
1570.494	14245
1572.689	14386
1574.883	14300
1577.079	14220
1579.272	14381
1581.467	14522
1583.659	14417
1585.853	14502
1588.044	14391
1590.234	14473
1592.424	14317
1594.615	14424
1596.806	14431
1598.994	14543
1601.182	14443
1603.369	14517
1605.557	14412
1607.744	14358
1609.929	14518
1612.114	14467
1614.298	14510
1616.482	14518
1618.667	14370
1620.85	14407
1623.032	14564
1625.214	14350
1627.395	14543
1629.575	14532
1631.755	14586
1633.935	14747
1636.114	14376
1638.292	14413
1640.471	14499
1642.647	14474
1644.823	14527
1647	14324
1649.175	14490
1651.348	14537
1653.525	14600
1655.698	14648
1657.87	14545
1660.043	14492
1662.213	14559
1664.387	14554
1666.558	14514
1668.727	14697
1670.896	14482
1673.064	14691
1675.233	14599
1677.401	14511
1679.569	14435
1681.735	14569
1683.902	14533
1686.066	14527
1688.233	14610
1690.397	14570
1692.559	14570
1694.723	14606
1696.885	14648
1699.048	14465
1701.21	14463
1703.37	14486
1705.53	14621
1707.689	14378
1709.849	14344
1712.009	14452
1714.166	14418
1716.323	14385
1718.479	14299
1720.634	14664
1722.793	14404
1724.948	14367
1727.102	14458
1729.255	14228
1731.408	14495
1733.562	14556
1735.714	14389
1737.865	14510
1740.016	14650
1742.166	14310
1744.316	14417
1746.467	14525
1748.616	14471
1750.764	14311
1752.911	14616
1755.056	14701
1757.205	14680
1759.35	14676
1761.496	14606
1763.641	14561
1765.785	14380
1767.927	14644
1770.072	14559
1772.214	14517
1774.355	14496
1776.496	14767
1778.637	14435
1780.778	14542
1782.918	14612
1785.057	14547
1787.194	14630
1789.333	14662
1791.472	14648
1793.608	14630
1795.745	14616
1797.879	14438
1800.015	14653
1802.148	14766
1804.284	14647
1806.417	14713
1808.548	14610
1810.682	14538
1812.812	14705
1814.946	14442
1817.075	14725
1819.205	14653
1821.335	14564
1823.463	14492
1825.59	14568
1827.721	14554
1829.847	14488
1831.973	14582
1834.098	14583
1836.223	14341
1838.351	14377
1840.475	14454
1842.598	14538
1844.721	14543
1846.843	14415
1848.966	14328
1851.087	14430
1853.21	14253
1855.33	14412
1857.449	14369
1859.568	14382
1861.688	14420
1863.806	14297
1865.924	14403
1868.039	14418
1870.155	14544
1872.273	14450
1874.388	14502
1876.503	14293
1878.617	14412
1880.73	14358
1882.844	14308
1884.956	14355
1887.068	14268
1889.18	14667
1891.291	14580
1893.4	14316
1895.511	14568
1897.621	14479
1899.73	14480
1901.837	14491
1903.944	14623
1906.053	14593
1908.159	14652
1910.265	14660
1912.369	14595
1914.474	14650
1916.577	14639
1918.683	14624
1920.785	14502
1922.888	14728
1924.989	14778
1927.091	14902
1929.193	14616
1931.294	14603
1933.393	14599
1935.493	14688
1937.59	14527
1939.689	14677
1941.788	14828
1943.884	14523
1945.98	14706
1948.077	14737
1950.171	14592
1952.267	14617
1954.361	14755
1956.455	14824
1958.548	14495
1960.64	14518
1962.733	14573
1964.824	14748
1966.915	14649
1969.005	14771
1971.096	14577
1973.185	14686
1975.275	14538
1977.363	14749
1979.45	14631
1981.537	14559
1983.623	14512
1985.711	14539
1987.796	14565
1989.881	14438
1991.965	14440
1994.047	14490
1996.132	14636
1998.215	14350
2000.297	14358
2002.378	14547
2004.46	14510
2006.54	14412
2008.62	14398
2010.7	14388
2012.779	14548
2014.858	14293
2016.934	14492
2019.013	14300
2021.09	14556
2023.165	14364
2025.241	14327
2027.317	14495
2029.39	14590
2031.466	14522
2033.538	14480
2035.612	14458
2037.683	14298
2039.755	14324
2041.827	14393
2043.898	14454
2045.968	14438
2048.038	14337
2050.106	14425
2052.177	14568
2054.244	14541
2056.313	14422
2058.379	14386
2060.444	14588
2062.511	14410
2064.577	14319
2066.641	14516
2068.705	14513
2070.77	14504
2072.832	14460
2074.896	14401
2076.958	14192
2079.02	14433
2081.081	14468
2083.141	14498
2085.2	14522
2087.261	14455
2089.319	14659
2091.377	14316
2093.435	14634
2095.492	14489
2097.552	14373
2099.607	14624
2101.663	14363
2103.718	14484
2105.771	14423
2107.826	14471
2109.879	14384
2111.932	14577
2113.985	14442
2116.037	14356
2118.088	14623
2120.141	14385
2122.191	14425
2124.239	14501
2126.288	14473
2128.337	14479
2130.387	14286
2132.434	14437
2134.481	14498
2136.528	14490
2138.574	14314
2140.618	14481
2142.665	14343
2144.71	14202
2146.753	14362
2148.797	14257
2150.838	14336
2152.883	14319
2154.923	14338
2156.965	14288
2159.007	14132
2161.046	14185
2163.086	14288
2165.126	14183
2167.163	14065
2169.202	14154
2171.239	14351
2173.277	14044
2175.314	14339
2177.349	14090
2179.385	14144
2181.42	14144
2183.453	14300
2185.49	14294
2187.522	14244
2189.555	14018
2191.586	14066
2193.619	14034
2195.651	14097
2197.682	14020
2199.711	14086
2201.74	14192
2203.769	13982
2205.799	14037
2207.828	14001
2209.855	13889
2211.882	13940
2213.908	13951
2215.934	14085
2217.961	14078
2219.986	13981
2222.01	13964
2224.034	13859
2226.057	14193
2228.08	13920
2230.104	13868
2232.124	14062
2234.145	14004
2236.166	13902
2238.186	14000
2240.207	13977
2242.227	14059
2244.244	14021
2246.262	13879
2248.28	13976
2250.299	13862
2252.314	13789
2254.33	13796
2256.346	13857
2258.36	14050
2260.375	13899
2262.391	13981
2264.403	13822
2266.416	13963
2268.427	13977
2270.44	14011
2272.453	14046
2274.463	13886
2276.474	13863
2278.483	13847
2280.493	13868
2282.501	13940
2284.51	13928
2286.518	14057
2288.524	13956
2290.532	14119
2292.537	13924
2294.544	13875
2296.55	14067
2298.554	13844
2300.557	13884
2302.562	13991
2304.566	13725
2306.568	13793
2308.569	13925
2310.572	13883
2312.573	13903
2314.573	13758
2316.574	13852
2318.573	13872
2320.571	13978
2322.571	14043
2324.569	13905
2326.567	13824
2328.564	13759
2330.56	13694
2332.556	13767
2334.551	13722
2336.546	13881
2338.542	13686
2340.535	13682
2342.529	13728
2344.521	13808
2346.512	13645
2348.505	13785
2350.497	13654
2352.487	13843
2354.478	13608
2356.468	13615
2358.457	13460
2360.446	13584
2362.434	13503
2364.422	13625
2366.408	13689
2368.395	13518
2370.383	13567
2372.369	13305
2374.353	13544
2376.338	13673
2378.321	13610
2380.307	13512
2382.29	13618
2384.272	13497
2386.254	13516
2388.235	13512
2390.218	13478
2392.198	13333
2394.179	13372
2396.157	13418
2398.137	13494
2400.115	13509
2402.095	13529
2404.072	13345
2406.048	13562
2408.026	13458
2410.001	13421
2411.977	13399
2413.953	13397
2415.927	13436
2417.9	13493
2419.875	13306
2421.847	13300
2423.821	13367
2425.792	13295
2427.763	13589
2429.736	13353
2431.706	13376
2433.677	13354
2435.646	13410
2437.615	13418
2439.583	13343
2441.551	13603
2443.519	13235
2445.486	13381
2447.452	13264
2449.418	13381
2451.383	13317
2453.348	13455
2455.314	13503
2457.278	13338
2459.241	13336
2461.205	13330
2463.167	13348
2465.131	13066
2467.091	13441
2469.052	13128
2471.012	13259
2472.972	13284
2474.932	13356
2476.891	13311
2478.85	13323
2480.808	13163
2482.766	13343
2484.722	12981
2486.68	13359
2488.636	13225
2490.591	13111
2492.546	13188
2494.5	13079
2496.456	13232
2498.41	13131
2500.362	13161
2502.315	13144
2504.266	13359
2506.218	13095
2508.169	13074
2510.121	13104
2512.07	13422
2514.019	13022
2515.968	13201
2517.918	13287
2519.866	12904
2521.813	12944
2523.76	13063
2525.707	12951
2527.653	13266
2529.599	13001
2531.543	13076
2533.489	12969
2535.433	12949
2537.376	13121
2539.32	13076
2541.264	13257
2543.205	13234
2545.147	12941
2547.087	13030
2549.029	13041
2550.969	13120
2552.908	12964
2554.847	12921
2556.786	12931
2558.724	12990
2560.663	13040
2562.6	13094
2564.537	13019
2566.473	12844
2568.408	13014
2570.345	12963
2572.28	13232
2574.214	12964
2576.148	13153
2578.081	13059
2580.014	12994
2581.947	12940
2583.879	13150
2585.81	12933
2587.741	12989
2589.67	12879
2591.602	13118
2593.532	12931
2595.461	12966
2597.388	13034
2599.316	12939
2601.244	12875
2603.172	12979
2605.098	13002
2607.023	12934
2608.949	12970
2610.873	13050
2612.8	13263
2614.723	12916
2616.647	12895
2618.569	13145
2620.493	12989
2622.416	13046
2624.338	13155
2626.258	12940
2628.179	13203
2630.099	12981
2632.019	13082
2633.939	13083
2635.857	13020
2637.775	13204
2639.694	13083
2641.61	13142
2643.528	12965
2645.444	12940
2647.361	12921
2649.276	12873
2651.19	13154
2653.105	12877
2655.019	12951
2656.934	13058
2658.846	12985
2660.758	12995
2662.67	12995
2664.583	12980
2666.493	12970
2668.404	12849
2670.313	12898
2672.223	12849
2674.134	12851
2676.042	12979
2677.95	12872
2679.858	12882
2681.765	12816
2683.673	12688
2685.579	12917
2687.483	12920
2689.389	12901
2691.294	12898
2693.198	12905
2695.104	12728
2697.006	12956
2698.909	12785
2700.811	12854
2702.713	12986
2704.615	12868
2706.516	12786
2708.417	12807
2710.316	12720
2712.216	12721
2714.115	12519
2716.014	12821
2717.913	12586
2719.81	12674
2721.707	12718
2723.603	12701
2725.501	12652
2727.396	12573
2729.292	12645
2731.186	12894
2733.081	12585
2734.976	12540
2736.87	12522
2738.762	12574
2740.653	12700
2742.546	12644
2744.437	12614
2746.329	12627
2748.22	12688
2750.11	12628
2751.999	12473
2753.889	12654
2755.778	12478
2757.666	12651
2759.553	12566
2761.44	12612
2763.328	12503
2765.215	12408
2767.101	12559
2768.986	12477
2770.87	12599
2772.754	12654
2774.638	12603
2776.523	12273
2778.405	12375
2780.288	12580
2782.17	12540
2784.051	12435
2785.934	12458
2787.814	12457
2789.694	12531
2791.574	12361
2793.453	12442
2795.332	12376
2797.212	12436
2799.088	12401
2800.966	12475
2802.843	12353
2804.719	12494
2806.597	12400
2808.471	12417
2810.346	12466
2812.221	12440
2814.094	12401
2815.969	12324
2817.843	12274
2819.714	12343
2821.587	12286
2823.459	12194
2825.329	12064
2827.202	12373
2829.072	12438
2830.942	12343
2832.811	12381
2834.68	12274
2836.549	12412
2838.418	12235
2840.284	12342
2842.152	12387
2844.018	12359
2845.885	12175
2847.751	12413
2849.616	12337
2851.482	12275
2853.345	12362
2855.208	12394
2857.074	12243
2858.937	12209
2860.799	12378
2862.66	12502
2864.522	12322
2866.385	12309
2868.245	12315
2870.104	12525
2871.964	12416
2873.824	12481
2875.683	12621
2877.542	12503
2879.4	12574
2881.257	12595
2883.114	12551
2884.97	12659
2886.827	12479
2888.683	12673
2890.537	12621
2892.392	12557
2894.246	12650
2896.1	12631
2897.954	12678
2899.807	12423
2901.66	12493
2903.51	12472
2905.362	12527
2907.214	12382
2909.065	12452
2910.915	12718
2912.765	12530
2914.613	12341
2916.463	12757
2918.311	12559
2920.158	12616
2922.006	12752
2923.853	12698
2925.698	12766
2927.546	12531
2929.392	12831
2931.236	12793
2933.081	12850
2934.924	12829
2936.77	12951
2938.613	12905
2940.455	13047
2942.298	13168
2944.139	13101
2945.982	12998
2947.823	12835
2949.662	12914
2951.503	12905
2953.342	12749
2955.182	12851
2957.021	12725
2958.858	12747
2960.697	12837
2962.534	12766
2964.37	12627
2966.207	12579
2968.044	12363
2969.879	12434
2971.714	12697
2973.548	12390
2975.383	12443
2977.218	12372
2979.051	12439
2980.883	12289
2982.715	12296
2984.547	12366
2986.379	12346
2988.21	12040
2990.04	12109
2991.87	12187
2993.7	12213
2995.53	12029
2997.359	12148
2999.187	12142
3001.015	11993
3002.842	12006
3004.669	11988
3006.497	11858
3008.323	11880
3010.148	11836
3011.974	11734
3013.797	11719
3015.623	11754
3017.447	11578
3019.27	11603
3021.094	11710
3022.915	11491
3024.737	11597
3026.56	11617
3028.38	11545
3030.201	11489
3032.022	11688
3033.84	11770
3035.662	11649
3037.481	11608
3039.298	11628
3041.117	11545
3042.933	11567
3044.752	11648
3046.568	11630
3048.385	11372
3050.2	11480
3052.016	11429
3053.83	11490
3055.646	11437
3057.46	11190
3059.272	11421
3061.086	11456
3062.898	11500
3064.711	11282
3066.524	11362
3068.335	11443
3070.145	11389
3071.956	11434
3073.766	11361
3075.576	11426
3077.385	11322
3079.193	11365
3081.002	11311
3082.81	11273
3084.618	11225
3086.425	11407
3088.231	11303
3090.036	11112
3091.842	11191
3093.648	11035
3095.452	11132
3097.257	11064
3099.06	11082
3100.863	11021
3102.666	11199
3104.47	11178
3106.272	11124
3108.073	11124
3109.875	11031
3111.676	11032
3113.477	11046
3115.277	11130
3117.077	11108
3118.874	11072
3120.673	11038
3122.473	10975
3124.271	11070
3126.066	10970
3127.863	11011
3129.66	10960
3131.456	10869
3133.252	10914
3135.047	11006
3136.842	10908
3138.635	10733
3140.429	10756
3142.223	11116
3144.016	10951
3145.808	10946
3147.6	10786
3149.392	10905
3151.183	10767
3152.975	10917
3154.765	10748
3156.553	10803
3158.344	10761
3160.132	10832
3161.922	10755
3163.71	10739
3165.497	10841
3167.285	10822
3169.071	10771
3170.858	10629
3172.645	10611
3174.429	10590
3176.214	10752
3177.998	10501
3179.783	10673
3181.568	10713
3183.351	10644
3185.133	10627
3186.915	10617
3188.698	10515
3190.481	10718
3192.261	10642
3194.042	10593
3195.822	10360
3197.601	10535
3199.381	10454
3201.161	10747
3202.939	10596
3204.717	10435
3206.495	10560
3208.272	10623
3210.05	10458
3211.826	10547
3213.602	10576
3215.376	10479
3217.151	10518
3218.927	10532
3220.702	10497
3222.476	10551
3224.249	10479
3226.021	10470
3227.793	10508
3229.567	10557
3231.339	10441
3233.109	10514
3234.88	10365
3236.651	10446
3238.421	10276
3240.191	10555
3241.96	10457
3243.728	10365
3245.497	10419
3247.263	10280
3249.033	10433
3250.799	10361
3252.566	10398
3254.331	10381
3256.097	10476
3257.863	10464
3259.628	10445
3261.392	10567
3263.156	10445
3264.919	10425
3266.683	10289
3268.447	10400
3270.208	10424
3271.969	10304
3273.731	10423
3275.492	10289
3277.253	10385
3279.013	10458
3280.773	10116
3282.532	10577
3284.291	10295
3286.05	10556
3287.808	10326
3289.566	10222
3291.323	10414
3293.079	10320
3294.835	10207
3296.593	10333
3298.348	10300
3300.102	10322
3301.857	10439
3303.611	10133
3305.366	10271
3307.119	10292
3308.872	10297
3310.624	10230
3312.376	10266
3314.129	10335
3315.881	10387
3317.631	10129
3319.38	10347
3321.13	10172
3322.88	10235
3324.631	10194
3326.379	10085
3328.126	10220
3329.875	10124
3331.622	10207
3333.371	10168
3335.116	10118
3336.863	10080
3338.609	10250
3340.353	10075
3342.1	10207
3343.845	10148
3345.588	10114
3347.332	10079
3349.074	10051
3350.817	10115
3352.56	9922
3354.303	10204
3356.043	10103
3357.785	10095
3359.525	10074
3361.268	10088
3363.007	10182
3364.745	10021
3366.485	10024
3368.223	9973
3369.962	10180
3371.701	10076
3373.438	10049
3375.174	10073
3376.911	10045
3378.647	9898
3380.384	9963
3382.118	9914
3383.854	9911
3385.588	9944
3387.322	10015
3389.057	9960
3390.79	9959
3392.522	9894
3394.255	9916
3395.987	9903
3397.719	9961
3399.451	9963
3401.181	9971
3402.911	9848
3404.641	9799
3406.371	9879
3408.101	9934
3409.83	9803
3411.558	9861
3413.285	9838
3415.011	9799
3416.739	9762
3418.467	9834
3420.193	9867
3421.919	9792
3423.644	9831
3425.368	9750
3427.094	9623
3428.818	9718
3430.542	9676
3432.264	9746
3433.987	9660
3435.712	9824
3437.434	9774
3439.155	9795
3440.876	9714
3442.596	9693
3444.317	9705
3446.039	9717
3447.757	9566
3449.477	9580
3451.195	9567
3452.914	9626
3454.632	9599
3456.35	9548
3458.067	9464
3459.784	9358
3461.5	9703
3463.216	9621
3464.932	9464
3466.647	9473
3468.362	9484
3470.076	9592
3471.789	9413
3473.505	9450
3475.217	9319
3476.929	9406
3478.641	9513
3480.354	9436
3482.066	9421
3483.777	9396
3485.487	9293
3487.197	9437
3488.908	9479
3490.617	9477
3492.327	9236
3494.035	9264
3495.743	9252
3497.451	9268
3499.158	9262
3500.866	9331
3502.572	9100
3504.278	9217
3505.984	9404
3507.689	9201
3509.396	9345
3511.1	9113
3512.804	9232
3514.508	9343
3516.211	9292
3517.913	9179
3519.616	9337
3521.319	9145
3523.021	9356
3524.722	9340
3526.422	9241
3528.124	9113
3529.824	9045
3531.524	9215
3533.222	9118
3534.921	9213
3536.62	9057
3538.318	9095
3540.016	9034
3541.714	9133
3543.41	9116
3545.107	9091
3546.803	9008
3548.5	9031
3550.194	9102
3551.889	9176
3553.583	9064
3555.279	8994
3556.972	9009
3558.666	9039
3560.358	9008
3562.051	9063
3563.742	8989
3565.435	8936
3567.126	9022
3568.817	9007
3570.507	8883
3572.197	8979
3573.888	8935
3575.577	9164
3577.265	9012
3578.954	8927
3580.642	8894
3582.329	8832
3584.017	8847
3585.704	8883
3587.391	8816
3589.077	8770
3590.762	8792
3592.449	8720
3594.133	8861
3595.817	8775
3597.501	8782
3599.185	8770
3600.869	8802
3602.552	8750
3604.234	8936
3605.916	8738
3607.598	8746
3609.279	8777
3610.961	8743
3612.642	8797
3614.321	8636
3616	8600
3617.68	8644
3619.36	8717
3621.039	8565
3622.716	8732
3624.394	8702
3626.071	8591
3627.748	8583
3629.425	8747
3631.102	8579
3632.778	8484
3634.452	8559
3636.127	8523
3637.803	8672
3639.477	8555
3641.151	8496
3642.823	8495
3644.497	8572
3646.171	8422
3647.842	8535
3649.515	8429
3651.185	8468
3652.857	8514
3654.527	8555
3656.198	8470
3657.868	8551
3659.537	8530
3661.207	8409
3662.875	8448
3664.544	8439
3666.212	8577
3667.879	8401
3669.546	8417
3671.212	8414
3672.88	8311
3674.546	8431
3676.211	8370
3677.875	8333
3679.541	8273
3681.205	8367
3682.87	8389
3684.533	8482
3686.196	8394
3687.859	8371
3689.521	8342
3691.184	8409
3692.845	8323
3694.507	8403
3696.167	8206
3697.827	8197
3699.487	8275
3701.148	8245
3702.808	8256
3704.466	8326
3706.125	8371
3707.783	8272
3709.442	8213
3711.099	8283
3712.757	8177
3714.412	8091
3716.068	8234
3717.725	8396
3719.381	8304
3721.036	8262
3722.689	8290
3724.344	8242
3725.998	8270
3727.652	8004
3729.305	8092
3730.958	8229
3732.61	8247
3734.262	8202
3735.915	8107
3737.565	8189
3739.217	8084
3740.866	8119
3742.516	8105
3744.165	8162
3745.816	7988
3747.464	8098
3749.113	8137
3750.761	8026
3752.409	8120
3754.057	8014
3755.703	7948
3757.35	8063
3758.996	8000
3760.641	7956
3762.289	7956
3763.933	8076
3765.577	7944
3767.222	8080
3768.865	7970
3770.508	7897
3772.152	8046
3773.796	7954
3775.438	8020
3777.079	7898
3778.721	8049
3780.363	7875
3782.003	7886
3783.643	7985
3785.283	7896
3786.923	7719
3788.563	7804
3790.203	7905
3791.841	7862
3793.479	7958
3795.115	7853
3796.753	7915
3798.391	7897
3800.027	7874
3801.664	7895
3803.299	7790
3804.935	7880
3806.571	7877
3808.206	7739
3809.839	7852
3811.473	7803
3813.107	7785
3814.74	7741
3816.375	7722
3818.006	7725
3819.638	7672
3821.27	7750
3822.9	7745
3824.532	7658
3826.163	7653
3827.792	7703
3829.423	7612
3831.051	7798
3832.682	7578
3834.311	7770
3835.938	7799
3837.566	7549
3839.193	7822
3840.821	7654
3842.448	7570
3844.075	7597
3845.7	7722
3847.325	7507
3848.951	7544
3850.576	7576
3852.201	7643
3853.825	7507
3855.448	7581
3857.072	7587
3858.694	7627
3860.318	7602
3861.939	7601
3863.562	7494
3865.183	7450
3866.804	7547
3868.426	7571
3870.045	7507
3871.666	7418
3873.285	7365
3874.904	7561
3876.524	7595
3878.142	7529
3879.76	7497
3881.378	7324
3882.995	7508
3884.612	7514
3886.229	7536
3887.845	7435
3889.461	7379
3891.076	7377
3892.691	7487
3894.307	7376
3895.922	7407
3897.536	7387
3899.149	7318
3900.761	7468
3902.374	7360
3903.988	7224
3905.6	7381
3907.212	7288
3908.822	7399
3910.433	7374
3912.045	7316
3913.655	7279
3915.265	7363
3916.875	7410
3918.483	7357
3920.093	7251
3921.702	7283
3923.309	7293
3924.917	7278
3926.523	7310
3928.13	7421
3929.739	7326
3931.344	7305
3932.95	7218
3934.555	7291
3936.159	7264
3937.766	7208
3939.369	7235
3940.974	7292
3942.577	7372
3944.181	7213
3945.783	7229
3947.386	7200
3948.989	7099
3950.59	7275
3952.191	7321
3953.791	7249
3955.394	7282
3956.994	7156
3958.593	7279
3960.192	7195
3961.791	7168
3963.392	7139
3964.99	7115
3966.588	7152
3968.185	7099
3969.782	7081
3971.379	7055
3972.976	7028
3974.572	7145
3976.168	7003
3977.763	7103
3979.358	7032
3980.954	6933
3982.548	7075
3984.142	7075
3985.736	7037
3987.329	7042
3988.922	7059
3990.516	6954
3992.108	6920
3993.698	7058
3995.29	6998
3996.881	6837
3998.473	6859
4000.064	6864
4001.653	6993
4003.242	6760
4004.832	6934
4006.422	6868
4008.01	6757
4009.598	6791
4011.186	6900
4012.773	6842
4014.36	6696
4015.947	6861
4017.534	6699
4019.119	6775
4020.705	6766
4022.291	6763
4023.876	6812
4025.461	6735
4027.044	6783
4028.627	6826
4030.211	6733
4031.795	6747
4033.378	6730
4034.96	6729
4036.542	6742
4038.124	6651
4039.704	6661
4041.286	6654
4042.867	6673
4044.447	6708
4046.026	6586
4047.606	6709
4049.187	6524
4050.765	6567
4052.343	6681
4053.92	6674
4055.498	6575
4057.076	6585
4058.654	6709
4060.23	6588
4061.806	6527
4063.381	6552
4064.957	6622
4066.533	6496
4068.107	6611
4069.682	6601
4071.256	6610
4072.829	6424
4074.404	6613
4075.977	6434
4077.549	6578
4079.121	6560
4080.693	6549
4082.265	6577
4083.836	6497
4085.407	6471
4086.977	6530
4088.547	6502
4090.117	6461
4091.687	6523
4093.256	6480
4094.825	6437
4096.392	6507
4097.96	6438
4099.528	6500
4101.097	6499
4102.663	6425
4104.229	6436
4105.795	6459
4107.361	6517
4108.928	6422
4110.493	6434
4112.058	6386
4113.621	6234
4115.186	6358
4116.75	6445
4118.313	6292
4119.876	6410
4121.438	6335
4123	6411
4124.562	6425
4126.125	6337
4127.686	6429
4129.246	6256
4130.807	6326
4132.367	6243
4133.927	6343
4135.486	6331
4137.046	6272
4138.604	6262
4140.162	6303
4141.72	6272
4143.279	6158
4144.836	6267
4146.393	6237
4147.949	6193
4149.505	6169
4151.062	6123
4152.617	6235
4154.172	6197
4155.727	6168
4157.281	6197
4158.836	6081
4160.39	6171
4161.943	6130
4163.496	6093
4165.048	6111
4166.601	6112
4168.154	6097
4169.706	6038
4171.257	6099
4172.808	6058
4174.358	6127
4175.909	5995
4177.458	5996
4179.008	6043
4180.558	6107
4182.106	6044
4183.655	6072
4185.204	5966
4186.751	6048
4188.298	6045
4189.845	6015
4191.392	6025
4192.939	6004
4194.485	6069
4196.031	5940
4197.576	5919
4199.121	5956
4200.666	5938
4202.211	5947
4203.754	5962
4205.298	5943
4206.84	5982
4208.384	5799
4209.927	6014
4211.47	5958
4213.011	5864
4214.552	5816
4216.094	5981
4217.635	5846
4219.175	5879
4220.716	5909
4222.255	5946
4223.793	5825
4225.335	5893
4226.873	5930
4228.411	5874
4229.948	5842
4231.486	5867
4233.024	5845
4234.562	5885
4236.098	5814
4237.634	5808
4239.169	5817
4240.705	5683
4242.241	5816
4243.776	5845
4245.31	5768
4246.844	5746
4248.378	5798
4249.911	5760
4251.445	5778
4252.978	5830
4254.51	5757
4256.042	5818
4257.574	5773
4259.107	5703
4260.638	5642
4262.169	5749
4263.699	5756
4265.228	5743
4266.759	5758
4268.289	5769
4269.818	5628
4271.345	5634
4272.874	5739
4274.402	5612
4275.931	5647
4277.458	5543
4278.985	5701
4280.512	5636
4282.037	5635
4283.564	5609
4285.089	5649
4286.615	5629
4288.139	5703
4289.664	5518
4291.187	5603
4292.712	5701
4294.235	5553
4295.759	5534
4297.281	5575
4298.804	5620
4300.327	5676
4301.849	5579
4303.37	5537
4304.891	5527
4306.412	5569
4307.933	5515
4309.453	5537
4310.973	5433
4312.492	5515
