398.1873	3356
400.7097	3403
403.2336	3323
405.7547	3346
408.2751	3479
410.7948	3353
413.3138	3421
415.83	3402
418.3497	3505
420.8666	3484
423.3829	3528
425.8985	3564
428.4133	3524
430.9275	3509
433.441	3488
435.9538	3585
438.4639	3604
440.9753	3617
443.4881	3605
445.9982	3579
448.5055	3695
451.0142	3546
453.5201	3633
456.0274	3553
458.5361	3579
461.04	3564
463.5453	3585
466.0478	3587
468.5517	3564
471.0549	3655
473.5574	3601
476.0572	3666
478.5584	3604
481.0568	3693
483.5545	3625
486.0557	3656
488.5521	3629
491.0478	3621
493.5449	3661
496.0392	3620
498.5349	3697
501.0299	3697
503.5222	3696
506.0139	3737
508.5048	3662
510.9991	3675
513.4887	3756
515.9777	3627
518.4659	3667
520.9534	3753
523.4403	3746
525.9306	3817
528.4161	3854
530.9009	3714
533.3851	3646
535.8687	3756
538.3535	3747
540.8356	3748
543.3171	3728
545.7979	3750
548.278	3818
550.7595	3734
553.2383	3735
555.7144	3718
558.1918	3787
560.6685	3816
563.1446	3827
565.6221	3804
568.0968	3816
570.5688	3788
573.0422	3843
575.515	3830
577.989	3825
580.4584	3796
582.9291	3852
585.3991	3827
587.8685	3880
590.3352	3875
592.8052	3901
595.2706	3829
597.7372	3874
600.2033	3909
602.6666	3829
605.1334	3866
607.5953	3843
610.0587	3862
612.5193	3847
614.9814	3873
617.4427	3948
619.9034	3933
622.3615	3798
624.8208	3891
627.2775	3829
629.7335	3787
632.1929	3810
634.6476	3898
637.1016	3848
639.5569	3859
642.0096	3878
644.4637	3849
646.9151	3883
649.3678	3862
651.8179	3875
654.2672	4018
656.7159	3896
659.166	3965
661.6154	3890
664.0622	4000
666.5082	3923
668.9537	3958
671.4005	3961
673.8445	3895
676.288	3976
678.7308	3975
681.1729	3955
683.6163	3985
686.0572	3952
688.4973	4018
690.9368	3927
693.3757	4011
695.8138	3987
698.2534	3971
700.6902	3986
703.1245	4051
705.56	4024
707.9949	3960
710.4311	4044
712.8647	4098
715.2957	4029
717.7279	4064
720.1595	4082
722.5905	4023
725.0208	4094
727.4505	4088
729.8795	4155
732.3058	4165
734.7336	4100
737.1626	4122
739.587	4141
742.0128	4135
744.4359	4199
746.8604	4203
749.2841	4158
751.7073	4122
754.1278	4217
756.5496	4200
758.9688	4156
761.3893	4234
763.8093	4203
766.2285	4255
768.6451	4301
771.0611	4222
773.4784	4252
775.895	4293
778.3091	4200
780.7244	4311
783.1371	4223
785.5493	4288
787.9626	4337
790.3754	4262
792.7856	4232
795.1951	4249
797.6039	4271
800.0121	4265
802.4236	4317
804.8306	4269
807.2369	4273
809.6425	4361
812.0475	4353
814.4538	4333
816.8575	4338
819.2606	4293
821.663	4252
824.0648	4256
826.4659	4361
828.8683	4268
831.2682	4334
833.6674	4269
836.066	4352
838.4639	4300
840.8632	4298
843.2579	4447
845.6539	4340
848.0493	4464
850.444	4439
852.84	4299
855.2315	4418
857.6243	4415
860.0165	4361
862.4081	4345
864.797	4315
867.1892	4404
869.5789	4408
871.9659	4345
874.3542	4516
876.74	4415
879.129	4376
881.5155	4477
883.8994	4424
886.2845	4387
888.6671	4315
891.051	4385
893.4343	4461
895.8169	4407
898.197	4360
900.5783	4392
902.9571	4432
905.3372	4476
907.7167	4468
910.0936	4408
912.4698	4528
914.8474	4472
917.2244	4446
919.5987	4521
921.9744	4501
924.3475	4565
926.72	4471
929.0918	4566
931.4669	4540
933.8375	4497
936.2074	4618
938.5767	4605
940.9454	4769
943.3154	4614
945.6829	4744
948.0497	4837
950.4178	4885
952.7833	5141
955.1483	5204
957.5145	5362
959.8782	5380
962.2412	5294
964.6036	5308
966.9655	5191
969.3266	5097
971.6871	4877
974.0471	4837
976.4064	4634
978.765	4599
981.125	4630
983.4824	4615
985.8373	4430
988.1935	4551
990.549	4556
992.9039	4526
995.2602	4522
997.6119	4576
999.965	4575
1002.317	4541
1004.667	4665
1007.02	4548
1009.371	4483
1011.719	4453
1014.068	4525
1016.415	4595
1018.765	4616
1021.111	4580
1023.458	4635
1025.804	4659
1028.147	4549
1030.49	4558
1032.837	4560
1035.179	4675
1037.522	4635
1039.862	4583
1042.204	4645
1044.546	4573
1046.884	4565
1049.224	4583
1051.562	4596
1053.899	4603
1056.237	4717
1058.575	4629
1060.91	4605
1063.244	4724
1065.58	4632
1067.913	4738
1070.248	4727
1072.579	4824
1074.911	4787
1077.242	4749
1079.572	4611
1081.905	4735
1084.234	4704
1086.562	4666
1088.89	4569
1091.217	4622
1093.544	4633
1095.871	4781
1098.197	4673
1100.521	4649
1102.845	4600
1105.169	4618
1107.491	4773
1109.814	4663
1112.135	4708
1114.456	4627
1116.776	4652
1119.096	4710
1121.415	4789
1123.734	4651
1126.052	4672
1128.369	4678
1130.686	4623
1133.002	4731
1135.318	4693
1137.632	4692
1139.945	4618
1142.258	4585
1144.573	4729
1146.884	4693
1149.196	4710
1151.505	4714
1153.816	4729
1156.124	4664
1158.435	4683
1160.742	4730
1163.051	4667
1165.356	4714
1167.663	4737
1169.97	4647
1172.276	4728
1174.579	4590
1176.881	4764
1179.186	4658
1181.487	4654
1183.79	4717
1186.092	4744
1188.392	4640
1190.691	4722
1192.991	4726
1195.291	4729
1197.588	4710
1199.885	4687
1202.181	4655
1204.479	4726
1206.775	4719
1209.07	4747
1211.363	4711
1213.656	4740
1215.949	4704
1218.241	4727
1220.534	4726
1222.825	4762
1225.115	4754
1227.405	4826
1229.693	4769
1231.984	4809
1234.271	4826
1236.558	4763
1238.845	4885
1241.131	4778
1243.416	4778
1245.703	4878
1247.987	4820
1250.269	4850
1252.552	4942
1254.834	4854
1257.118	4867
1259.399	4900
1261.678	4934
1263.958	4975
1266.237	4821
1268.516	4894
1270.794	4883
1273.072	4787
1275.347	5002
1277.624	4872
1279.899	4915
1282.175	4782
1284.449	4793
1286.722	4821
1288.995	4806
1291.266	4823
1293.54	4822
1295.81	4728
1298.081	4791
1300.35	4760
1302.62	4832
1304.889	4815
1307.156	4725
1309.425	4771
1311.69	4812
1313.957	4778
1316.222	4788
1318.488	4789
1320.751	4774
1323.016	4910
1325.278	4764
1327.54	4797
1329.803	4928
1332.065	4816
1334.325	4804
1336.584	4808
1338.843	4862
1341.101	4811
1343.36	4879
1345.617	4849
1347.876	4853
1350.131	4894
1352.387	4835
1354.643	4792
1356.897	4809
1359.151	4873
1361.403	4823
1363.656	4719
1365.909	4874
1368.16	4824
1370.409	4837
1372.659	4907
1374.909	4937
1377.157	4925
1379.407	4901
1381.655	4860
1383.9	4759
1386.147	4917
1388.393	4929
1390.64	4890
1392.885	4949
1395.127	4983
1397.37	4983
1399.614	4917
1401.854	4886
1404.098	4913
1406.339	4950
1408.578	4868
1410.818	4954
1413.056	4993
1415.297	4893
1417.533	4953
1419.771	4808
1422.006	4918
1424.243	4928
1426.479	5002
1428.715	5015
1430.948	5027
1433.182	4949
1435.414	5050
1437.647	5010
1439.88	5163
1442.11	5105
1444.342	5035
1446.571	5095
1448.799	5016
1451.029	5134
1453.258	5079
1455.485	5074
1457.711	5068
1459.937	5027
1462.164	5057
1464.39	4988
1466.614	5078
1468.838	4939
1471.06	5001
1473.283	4887
1475.506	4938
1477.727	4842
1479.949	5004
1482.169	4926
1484.389	4944
1486.609	4853
1488.828	4871
1491.045	4842
1493.261	4901
1495.477	4857
1497.693	4995
1499.91	4903
1502.125	4937
1504.339	4871
1506.553	4823
1508.766	4922
1510.979	4920
1513.191	4854
1515.402	4879
1517.613	4928
1519.823	4860
1522.033	4921
1524.242	4912
1526.451	4856
1528.657	4940
1530.865	4957
1533.072	4881
1535.278	4871
1537.484	4909
1539.687	4927
1541.892	4915
1544.096	4819
1546.299	4909
1548.502	5013
1550.703	4892
1552.905	5042
1555.104	4873
1557.303	4970
1559.505	4959
1561.703	4945
1563.902	5027
1566.099	4917
1568.295	5063
1570.494	5042
1572.689	4989
1574.883	5014
1577.079	5107
1579.272	5074
1581.467	5095
1583.659	5091
1585.853	5135
1588.044	5044
1590.234	5092
1592.424	5070
1594.615	5099
1596.806	5053
1598.994	5002
1601.182	5080
1603.369	5107
1605.557	5087
1607.744	5099
1609.929	5029
1612.114	5090
1614.298	5037
1616.482	5257
1618.667	5040
1620.85	5169
1623.032	5207
1625.214	5195
1627.395	5101
1629.575	5138
1631.755	5086
1633.935	5178
1636.114	5183
1638.292	5177
1640.471	5112
1642.647	5120
1644.823	5155
1647	5099
1649.175	5087
1651.348	5116
1653.525	5109
1655.698	5106
1657.87	5095
1660.043	5153
1662.213	5170
1664.387	5190
1666.558	5223
1668.727	5151
1670.896	5094
1673.064	5147
1675.233	5160
1677.401	5199
1679.569	5112
1681.735	5035
1683.902	5182
1686.066	5201
1688.233	5104
1690.397	5205
1692.559	5132
1694.723	5204
1696.885	5211
1699.048	5075
1701.21	5151
1703.37	5167
1705.53	5136
1707.689	5052
1709.849	5101
1712.009	5072
1714.166	5118
1716.323	5121
1718.479	5103
1720.634	5222
1722.793	5116
1724.948	5162
1727.102	5117
1729.255	5105
1731.408	5134
1733.562	5140
1735.714	5037
1737.865	5092
1740.016	5119
1742.166	5098
1744.316	5091
1746.467	5133
1748.616	5147
1750.764	5179
1752.911	5087
1755.056	5175
1757.205	5129
1759.35	5161
1761.496	5237
1763.641	5266
1765.785	5078
1767.927	5211
1770.072	5126
1772.214	5197
1774.355	5092
1776.496	5234
1778.637	5217
1780.778	5070
1782.918	5153
1785.057	5214
1787.194	5165
1789.333	5272
1791.472	5213
1793.608	5240
1795.745	5219
1797.879	5109
1800.015	5168
1802.148	5220
1804.284	5170
1806.417	5231
1808.548	5236
1810.682	5118
1812.812	5216
1814.946	5153
1817.075	5194
1819.205	5076
1821.335	5163
1823.463	5203
1825.59	5220
1827.721	5117
1829.847	5066
1831.973	5164
1834.098	5313
1836.223	5229
1838.351	5085
1840.475	5129
1842.598	5149
1844.721	5138
1846.843	5129
1848.966	5151
1851.087	5102
1853.21	5140
1855.33	5125
1857.449	5091
1859.568	5090
1861.688	5252
1863.806	5189
1865.924	5133
1868.039	5124
1870.155	5171
1872.273	5072
1874.388	5109
1876.503	5116
1878.617	5195
1880.73	5155
1882.844	5064
1884.956	5112
1887.068	5127
1889.18	5243
1891.291	5211
1893.4	5193
1895.511	5173
1897.621	5147
1899.73	5133
1901.837	5216
1903.944	5186
1906.053	5248
1908.159	5166
1910.265	5304
1912.369	5257
1914.474	5198
1916.577	5309
1918.683	5321
1920.785	5360
1922.888	5254
1924.989	5190
1927.091	5228
1929.193	5284
1931.294	5258
1933.393	5269
1935.493	5291
1937.59	5289
1939.689	5308
1941.788	5198
1943.884	5201
1945.98	5222
1948.077	5251
1950.171	5270
1952.267	5195
1954.361	5334
1956.455	5329
1958.548	5270
1960.64	5262
1962.733	5218
1964.824	5211
1966.915	5247
1969.005	5243
1971.096	5231
1973.185	5199
1975.275	5223
1977.363	5291
1979.45	5200
1981.537	5335
1983.623	5242
1985.711	5284
1987.796	5278
1989.881	5190
1991.965	5203
1994.047	5192
1996.132	5192
1998.215	5168
2000.297	5303
2002.378	5226
2004.46	5190
2006.54	5302
2008.62	5229
2010.7	5229
2012.779	5327
2014.858	5252
2016.934	5219
2019.013	5252
2021.09	5295
2023.165	5262
2025.241	5228
2027.317	5235
2029.39	5152
2031.466	5198
2033.538	5205
2035.612	5254
2037.683	5171
2039.755	5255
2041.827	5239
2043.898	5310
2045.968	5141
2048.038	5246
2050.106	5309
2052.177	5295
2054.244	5209
2056.313	5280
2058.379	5256
2060.444	5209
2062.511	5161
2064.577	5248
2066.641	5300
2068.705	5217
2070.77	5197
2072.832	5187
2074.896	5211
2076.958	5289
2079.02	5235
2081.081	5253
2083.141	5287
2085.2	5148
2087.261	5244
2089.319	5350
2091.377	5362
2093.435	5346
2095.492	5198
2097.552	5245
2099.607	5334
2101.663	5232
2103.718	5267
2105.771	5377
2107.826	5205
2109.879	5285
2111.932	5351
2113.985	5356
2116.037	5284
2118.088	5345
2120.141	5229
2122.191	5189
2124.239	5339
2126.288	5305
2128.337	5320
2130.387	5198
2132.434	5203
2134.481	5334
2136.528	5269
2138.574	5298
2140.618	5340
2142.665	5233
2144.71	5286
2146.753	5263
2148.797	5318
2150.838	5299
2152.883	5212
2154.923	5219
2156.965	5296
2159.007	5326
2161.046	5268
2163.086	5213
2165.126	5245
2167.163	5251
2169.202	5249
2171.239	5181
2173.277	5223
2175.314	5201
2177.349	5241
2179.385	5163
2181.42	5149
2183.453	5269
2185.49	5162
2187.522	5194
2189.555	5090
2191.586	5164
2193.619	5069
2195.651	5211
2197.682	5169
2199.711	5236
2201.74	5175
2203.769	5229
2205.799	5196
2207.828	5215
2209.855	5202
2211.882	5103
2213.908	5225
2215.934	5138
2217.961	5197
2219.986	5118
2222.01	5188
2224.034	5150
2226.057	5173
2228.08	5159
2230.104	5169
2232.124	5238
2234.145	5186
2236.166	5088
2238.186	5129
2240.207	5049
2242.227	5030
2244.244	5122
2246.262	5096
2248.28	5126
2250.299	5217
2252.314	5178
2254.33	5120
2256.346	5236
2258.36	5247
2260.375	5207
2262.391	5132
2264.403	5121
2266.416	5175
2268.427	5117
2270.44	5186
2272.453	5170
2274.463	5261
2276.474	5123
2278.483	5146
2280.493	5163
2282.501	5151
2284.51	5177
2286.518	5182
2288.524	5089
2290.532	5189
2292.537	5096
2294.544	5094
2296.55	5150
2298.554	5129
2300.557	5103
2302.562	5227
2304.566	5223
2306.568	5161
2308.569	5142
2310.572	5123
2312.573	5221
2314.573	5108
2316.574	5093
2318.573	5125
2320.571	5096
2322.571	5201
2324.569	5172
2326.567	5064
2328.564	5145
2330.56	5087
2332.556	5156
2334.551	5061
2336.546	5062
2338.542	5056
2340.535	5010
2342.529	5125
2344.521	5139
2346.512	5055
2348.505	5147
2350.497	5113
2352.487	4998
2354.478	5151
2356.468	5153
2358.457	5104
2360.446	5070
2362.434	5028
2364.422	5140
2366.408	5116
2368.395	5067
2370.383	4996
2372.369	5077
2374.353	5085
2376.338	5058
2378.321	5114
2380.307	5092
2382.29	5036
2384.272	5117
2386.254	5025
2388.235	5206
2390.218	5113
2392.198	4939
2394.179	5082
2396.157	5075
2398.137	5011
2400.115	5055
2402.095	5037
2404.072	5146
2406.048	5081
2408.026	5030
2410.001	5072
2411.977	5039
2413.953	5016
2415.927	5053
2417.9	5040
2419.875	5015
2421.847	5109
2423.821	4980
2425.792	4974
2427.763	4991
2429.736	5045
2431.706	5010
2433.677	5036
2435.646	4884
2437.615	5061
2439.583	5003
2441.551	5072
2443.519	4988
2445.486	5031
2447.452	5043
2449.418	5008
2451.383	5064
2453.348	4915
2455.314	5027
2457.278	5073
2459.241	5003
2461.205	5004
2463.167	4977
2465.131	5083
2467.091	5057
2469.052	4947
2471.012	5011
2472.972	5077
2474.932	4931
2476.891	4959
2478.85	4973
2480.808	5000
2482.766	4926
2484.722	5117
2486.68	4906
2488.636	5012
2490.591	5002
2492.546	5023
2494.5	5118
2496.456	4998
2498.41	5018
2500.362	4921
2502.315	4901
2504.266	4979
2506.218	4994
2508.169	4908
2510.121	4895
2512.07	5021
2514.019	4940
2515.968	5024
2517.918	4963
2519.866	4964
2521.813	4999
2523.76	4913
2525.707	4968
2527.653	4930
2529.599	4865
2531.543	4896
2533.489	4990
2535.433	4987
2537.376	4998
2539.32	4961
2541.264	5081
2543.205	4950
2545.147	4982
2547.087	4999
2549.029	4995
2550.969	5006
2552.908	4972
2554.847	5023
2556.786	4956
2558.724	4946
2560.663	4979
2562.6	5049
2564.537	5027
2566.473	4974
2568.408	4916
2570.345	5026
2572.28	4985
2574.214	4920
2576.148	4899
2578.081	5022
2580.014	4992
2581.947	5015
2583.879	5046
2585.81	5011
2587.741	4961
2589.67	4905
2591.602	4955
2593.532	4959
2595.461	5021
2597.388	5063
2599.316	5048
2601.244	4919
2603.172	5009
2605.098	5028
2607.023	4997
2608.949	5014
2610.873	4938
2612.8	4930
2614.723	4908
2616.647	5011
2618.569	4995
2620.493	4989
2622.416	5023
2624.338	4960
2626.258	4932
2628.179	4960
2630.099	4913
2632.019	4969
2633.939	5076
2635.857	4998
2637.775	4983
2639.694	4957
2641.61	4999
2643.528	5005
2645.444	4992
2647.361	4963
2649.276	5017
2651.19	5000
2653.105	5006
2655.019	4985
2656.934	4985
2658.846	4935
2660.758	5011
2662.67	4958
2664.583	5004
2666.493	4974
2668.404	4956
2670.313	4984
2672.223	5014
2674.134	5039
2676.042	4997
2677.95	4990
2679.858	4996
2681.765	5033
2683.673	4944
2685.579	4857
2687.483	5033
2689.389	4986
2691.294	4989
2693.198	5021
2695.104	4970
2697.006	4981
2698.909	4865
2700.811	4992
2702.713	4990
2704.615	4919
2706.516	4837
2708.417	4926
2710.316	4950
2712.216	4770
2714.115	4919
2716.014	4962
2717.913	4967
2719.81	4882
2721.707	4962
2723.603	4966
2725.501	5022
2727.396	4847
2729.292	4888
2731.186	4861
2733.081	5042
2734.976	4828
2736.87	4971
2738.762	4943
2740.653	4934
2742.546	4901
2744.437	4881
2746.329	4962
2748.22	4839
2750.11	4921
2751.999	4810
2753.889	4907
2755.778	4906
2757.666	4920
2759.553	4902
2761.44	4908
2763.328	4923
2765.215	4809
2767.101	4867
2768.986	4858
2770.87	4898
2772.754	4864
2774.638	4883
2776.523	4835
2778.405	4966
2780.288	4893
2782.17	4892
2784.051	4840
2785.934	4907
2787.814	4785
2789.694	4874
2791.574	4819
2793.453	4908
2795.332	4825
2797.212	4888
2799.088	4833
2800.966	4864
2802.843	4892
2804.719	4770
2806.597	4803
2808.471	4763
2810.346	4848
2812.221	4792
2814.094	4858
2815.969	4720
2817.843	4877
2819.714	4838
2821.587	4873
2823.459	4820
2825.329	4787
2827.202	4889
2829.072	4840
2830.942	4924
2832.811	4892
2834.68	4801
2836.549	4878
2838.418	4819
2840.284	4923
2842.152	4814
2844.018	4789
2845.885	4779
2847.751	4887
2849.616	4960
2851.482	4762
2853.345	4975
2855.208	4754
2857.074	4933
2858.937	4936
2860.799	5000
2862.66	4899
2864.522	4909
2866.385	4903
2868.245	4919
2870.104	5023
2871.964	5066
2873.824	5050
2875.683	5124
2877.542	5050
2879.4	5055
2881.257	5071
2883.114	4976
2884.97	5139
2886.827	5121
2888.683	5110
2890.537	5027
2892.392	5154
2894.246	5110
2896.1	5124
2897.954	5127
2899.807	5097
2901.66	5046
2903.51	5093
2905.362	5103
2907.214	5147
2909.065	5140
2910.915	5153
2912.765	5187
2914.613	5154
2916.463	5139
2918.311	5216
2920.158	5243
2922.006	5173
2923.853	5357
2925.698	5295
2927.546	5310
2929.392	5285
2931.236	5360
2933.081	5373
2934.924	5422
2936.77	5447
2938.613	5521
2940.455	5464
2942.298	5574
2944.139	5442
2945.982	5601
2947.823	5476
2949.662	5426
2951.503	5428
2953.342	5526
2955.182	5494
2957.021	5447
2958.858	5348
2960.697	5329
2962.534	5277
2964.37	5373
2966.207	5349
2968.044	5213
2969.879	5242
2971.714	5209
2973.548	5163
2975.383	5113
2977.218	5172
2979.051	5182
2980.883	5127
2982.715	5102
2984.547	5105
2986.379	5059
2988.21	5073
2990.04	5020
2991.87	5040
2993.7	4971
2995.53	5013
2997.359	4947
2999.187	4905
3001.015	4933
3002.842	4912
3004.669	4833
3006.497	4758
3008.323	4810
3010.148	4879
3011.974	4774
3013.797	4742
3015.623	4703
3017.447	4817
3019.27	4687
3021.094	4809
3022.915	4659
3024.737	4706
3026.56	4705
3028.38	4695
3030.201	4578
3032.022	4717
3033.84	4651
3035.662	4729
3037.481	4637
3039.298	4617
3041.117	4644
3042.933	4682
3044.752	4676
3046.568	4679
3048.385	4634
3050.2	4646
3052.016	4717
3053.83	4566
3055.646	4534
3057.46	4609
3059.272	4526
3061.086	4628
3062.898	4691
3064.711	4630
3066.524	4693
3068.335	4678
3070.145	4504
3071.956	4555
3073.766	4637
3075.576	4612
3077.385	4608
3079.193	4503
3081.002	4607
3082.81	4516
3084.618	4467
3086.425	4571
3088.231	4573
3090.036	4637
3091.842	4492
3093.648	4522
3095.452	4530
3097.257	4480
3099.06	4468
3100.863	4447
3102.666	4415
3104.47	4554
3106.272	4486
3108.073	4489
3109.875	4418
3111.676	4473
3113.477	4529
3115.277	4434
3117.077	4494
3118.874	4418
3120.673	4467
3122.473	4468
3124.271	4531
3126.066	4460
3127.863	4393
3129.66	4471
3131.456	4423
3133.252	4393
3135.047	4410
3136.842	4451
3138.635	4375
3140.429	4517
3142.223	4378
3144.016	4439
3145.808	4440
3147.6	4407
3149.392	4420
3151.183	4369
3152.975	4519
3154.765	4411
3156.553	4342
3158.344	4373
3160.132	4370
3161.922	4354
3163.71	4465
3165.497	4348
3167.285	4452
3169.071	4376
3170.858	4304
3172.645	4341
3174.429	4320
3176.214	4329
3177.998	4407
3179.783	4418
3181.568	4342
3183.351	4358
3185.133	4319
3186.915	4291
3188.698	4377
3190.481	4298
3192.261	4407
3194.042	4326
3195.822	4350
3197.601	4297
3199.381	4354
3201.161	4314
3202.939	4318
3204.717	4347
3206.495	4383
3208.272	4345
3210.05	4363
3211.826	4367
3213.602	4388
3215.376	4331
3217.151	4274
3218.927	4413
3220.702	4399
3222.476	4327
3224.249	4230
3226.021	4300
3227.793	4335
3229.567	4224
3231.339	4280
3233.109	4291
3234.88	4361
3236.651	4327
3238.421	4311
3240.191	4245
3241.96	4280
3243.728	4283
3245.497	4373
3247.263	4322
3249.033	4317
3250.799	4262
3252.566	4353
3254.331	4385
3256.097	4229
3257.863	4337
3259.628	4319
3261.392	4380
3263.156	4406
3264.919	4262
3266.683	4326
3268.447	4377
3270.208	4263
3271.969	4190
3273.731	4360
3275.492	4230
3277.253	4262
3279.013	4281
3280.773	4222
3282.532	4285
3284.291	4360
3286.05	4236
3287.808	4290
3289.566	4298
3291.323	4271
3293.079	4215
3294.835	4296
3296.593	4273
3298.348	4243
3300.102	4349
3301.857	4205
3303.611	4293
3305.366	4258
3307.119	4296
3308.872	4319
3310.624	4293
3312.376	4342
3314.129	4315
3315.881	4276
3317.631	4337
3319.38	4213
3321.13	4263
3322.88	4321
3324.631	4289
3326.379	4217
3328.126	4247
3329.875	4233
3331.622	4294
3333.371	4296
3335.116	4241
3336.863	4172
3338.609	4214
3340.353	4240
3342.1	4338
3343.845	4275
3345.588	4229
3347.332	4174
3349.074	4196
3350.817	4247
3352.56	4193
3354.303	4237
3356.043	4268
3357.785	4289
3359.525	4268
3361.268	4273
3363.007	4209
3364.745	4217
3366.485	4130
3368.223	4122
3369.962	4187
3371.701	4116
3373.438	4176
3375.174	4222
3376.911	4259
3378.647	4188
3380.384	4101
3382.118	4231
3383.854	4220
3385.588	4206
3387.322	4172
3389.057	4094
3390.79	4121
3392.522	4195
3394.255	4209
3395.987	4259
3397.719	4137
3399.451	4106
3401.181	4080
3402.911	4077
3404.641	4174
3406.371	4055
3408.101	4149
3409.83	4090
3411.558	4079
3413.285	4127
3415.011	4166
3416.739	4102
3418.467	4085
3420.193	4096
3421.919	4124
3423.644	4150
3425.368	4227
3427.094	4138
3428.818	4067
3430.542	4111
3432.264	4066
3433.987	4143
3435.712	4089
3437.434	4071
3439.155	4068
3440.876	4085
3442.596	4049
3444.317	4079
3446.039	3970
3447.757	4064
3449.477	4156
3451.195	3994
3452.914	4061
3454.632	4014
3456.35	3997
3458.067	4067
3459.784	4028
3461.5	3978
3463.216	3998
3464.932	4103
3466.647	3993
3468.362	3988
3470.076	3964
3471.789	4032
3473.505	3970
3475.217	3953
3476.929	3981
3478.641	3960
3480.354	3935
3482.066	4033
3483.777	4022
3485.487	4002
3487.197	4045
3488.908	4015
3490.617	4025
3492.327	3909
3494.035	3890
3495.743	3897
3497.451	3916
3499.158	3960
3500.866	3981
3502.572	3825
3504.278	3876
3505.984	3925
3507.689	3858
3509.396	3926
3511.1	3883
3512.804	3927
3514.508	3922
3516.211	3999
3517.913	3811
3519.616	3841
3521.319	3885
3523.021	3992
3524.722	3809
3526.422	3861
3528.124	3857
3529.824	3986
3531.524	3837
3533.222	3855
3534.921	3788
3536.62	3823
3538.318	3912
3540.016	3840
3541.714	3811
3543.41	3879
3545.107	3873
3546.803	3873
3548.5	3829
3550.194	3838
3551.889	3835
3553.583	3848
3555.279	3807
3556.972	3848
3558.666	3814
3560.358	3791
3562.051	3785
3563.742	3802
3565.435	3822
3567.126	3789
3568.817	3789
3570.507	3765
3572.197	3792
3573.888	3840
3575.577	3763
3577.265	3862
3578.954	3801
3580.642	3853
3582.329	3896
3584.017	3734
3585.704	3817
3587.391	3805
3589.077	3805
3590.762	3737
3592.449	3776
3594.133	3694
3595.817	3717
3597.501	3822
3599.185	3711
3600.869	3669
3602.552	3695
3604.234	3781
3605.916	3679
3607.598	3724
3609.279	3712
3610.961	3715
3612.642	3811
3614.321	3585
3616	3657
3617.68	3696
3619.36	3678
3621.039	3708
3622.716	3690
3624.394	3702
3626.071	3663
3627.748	3636
3629.425	3677
3631.102	3659
3632.778	3650
3634.452	3746
3636.127	3681
3637.803	3664
3639.477	3642
3641.151	3554
3642.823	3653
3644.497	3561
3646.171	3621
3647.842	3764
3649.515	3599
3651.185	3655
3652.857	3569
3654.527	3628
3656.198	3555
3657.868	3637
3659.537	3647
3661.207	3606
3662.875	3619
3664.544	3564
3666.212	3617
3667.879	3582
3669.546	3617
3671.212	3536
3672.88	3576
3674.546	3624
3676.211	3622
3677.875	3568
3679.541	3489
3681.205	3619
3682.87	3672
3684.533	3590
3686.196	3494
3687.859	3541
3689.521	3590
3691.184	3559
3692.845	3523
3694.507	3596
3696.167	3533
3697.827	3553
3699.487	3547
3701.148	3538
3702.808	3489
3704.466	3502
3706.125	3636
3707.783	3512
3709.442	3553
3711.099	3517
3712.757	3475
3714.412	3477
3716.068	3528
3717.725	3573
3719.381	3537
3721.036	3453
3722.689	3466
3724.344	3539
3725.998	3521
3727.652	3486
3729.305	3392
3730.958	3483
3732.61	3504
3734.262	3442
3735.915	3487
3737.565	3546
3739.217	3460
3740.866	3440
3742.516	3619
3744.165	3465
3745.816	3480
3747.464	3396
3749.113	3425
3750.761	3404
3752.409	3467
3754.057	3470
3755.703	3507
3757.35	3451
3758.996	3401
3760.641	3476
3762.289	3430
3763.933	3414
3765.577	3467
3767.222	3382
3768.865	3394
3770.508	3407
3772.152	3377
3773.796	3437
3775.438	3517
3777.079	3395
3778.721	3440
3780.363	3418
3782.003	3379
3783.643	3455
3785.283	3415
3786.923	3343
3788.563	3361
3790.203	3369
3791.841	3379
3793.479	3447
3795.115	3464
3796.753	3421
3798.391	3402
3800.027	3364
3801.664	3328
3803.299	3351
3804.935	3353
3806.571	3310
3808.206	3357
3809.839	3301
3811.473	3325
3813.107	3418
3814.74	3334
3816.375	3366
3818.006	3353
3819.638	3335
3821.27	3280
3822.9	3334
3824.532	3286
3826.163	3207
3827.792	3383
3829.423	3373
3831.051	3382
3832.682	3331
3834.311	3350
3835.938	3306
3837.566	3280
3839.193	3313
3840.821	3296
3842.448	3344
3844.075	3329
3845.7	3278
3847.325	3373
3848.951	3273
3850.576	3288
3852.201	3278
3853.825	3348
3855.448	3310
3857.072	3320
3858.694	3260
3860.318	3313
3861.939	3307
3863.562	3343
3865.183	3236
3866.804	3287
3868.426	3267
3870.045	3271
3871.666	3154
3873.285	3207
3874.904	3299
3876.524	3210
3878.142	3219
3879.76	3219
3881.378	3187
3882.995	3182
3884.612	3193
3886.229	3209
3887.845	3208
3889.461	3227
3891.076	3231
3892.691	3233
3894.307	3310
3895.922	3159
3897.536	3261
3899.149	3170
3900.761	3219
3902.374	3235
3903.988	3220
3905.6	3255
3907.212	3251
3908.822	3149
3910.433	3263
3912.045	3239
3913.655	3234
3915.265	3159
3916.875	3215
3918.483	3210
3920.093	3218
3921.702	3187
3923.309	3165
3924.917	3186
3926.523	3273
3928.13	3122
3929.739	3256
3931.344	3153
3932.95	3179
3934.555	3218
3936.159	3198
3937.766	3218
3939.369	3233
3940.974	3233
3942.577	3181
3944.181	3233
3945.783	3183
3947.386	3130
3948.989	3170
3950.59	3152
3952.191	3178
3953.791	3179
3955.394	3090
3956.994	3167
3958.593	3155
3960.192	3151
3961.791	3114
3963.392	3196
3964.99	3118
3966.588	3047
3968.185	3148
3969.782	3158
3971.379	3123
3972.976	3095
3974.572	3107
3976.168	3057
3977.763	3157
3979.358	3094
3980.954	3097
3982.548	3095
3984.142	3043
3985.736	3042
3987.329	3150
3988.922	3174
3990.516	3079
3992.108	3094
3993.698	3083
3995.29	3037
3996.881	3018
3998.473	3072
4000.064	3097
4001.653	2984
4003.242	3032
4004.832	2999
4006.422	3052
4008.01	2900
4009.598	3051
4011.186	3003
4012.773	2993
4014.36	3043
4015.947	2993
4017.534	3135
4019.119	3004
4020.705	2963
4022.291	3035
4023.876	3058
4025.461	3038
4027.044	2990
4028.627	2958
4030.211	2957
4031.795	3015
4033.378	2945
4034.96	3002
4036.542	3021
4038.124	2937
4039.704	2996
4041.286	2962
4042.867	2950
4044.447	2999
4046.026	2978
4047.606	2940
4049.187	2910
4050.765	3002
4052.343	3003
4053.92	2946
4055.498	2919
4057.076	2986
4058.654	2930
4060.23	2886
4061.806	2951
4063.381	2883
4064.957	2887
4066.533	2898
4068.107	2862
4069.682	2928
4071.256	2933
4072.829	2846
4074.404	2897
4075.977	2947
4077.549	2970
4079.121	2866
4080.693	2880
4082.265	2926
4083.836	2840
4085.407	2796
4086.977	2886
4088.547	2919
4090.117	2868
4091.687	2874
4093.256	2917
4094.825	2866
4096.392	2977
4097.96	2893
4099.528	2900
4101.097	2908
4102.663	2840
4104.229	2955
4105.795	2912
4107.361	2837
4108.928	2853
4110.493	2863
4112.058	2942
4113.621	2822
4115.186	2857
4116.75	2942
4118.313	2821
4119.876	2938
4121.438	2884
4123	2835
4124.562	2840
4126.125	2819
4127.686	2811
4129.246	2781
4130.807	2799
4132.367	2801
4133.927	2797
4135.486	2853
4137.046	2778
4138.604	2809
4140.162	2804
4141.72	2796
4143.279	2758
4144.836	2728
4146.393	2780
4147.949	2746
4149.505	2815
4151.062	2832
4152.617	2753
4154.172	2767
4155.727	2815
4157.281	2734
4158.836	2754
4160.39	2803
4161.943	2796
4163.496	2804
4165.048	2815
4166.601	2755
4168.154	2797
4169.706	2770
4171.257	2749
4172.808	2770
4174.358	2767
4175.909	2741
4177.458	2690
4179.008	2737
4180.558	2794
4182.106	2717
4183.655	2741
4185.204	2692
4186.751	2674
4188.298	2649
4189.845	2702
4191.392	2719
4192.939	2731
4194.485	2732
4196.031	2697
4197.576	2697
4199.121	2690
4200.666	2720
4202.211	2695
4203.754	2625
4205.298	2611
4206.84	2656
4208.384	2716
4209.927	2725
4211.47	2656
4213.011	2731
4214.552	2669
4216.094	2713
4217.635	2747
4219.175	2664
4220.716	2679
4222.255	2628
4223.793	2674
4225.335	2671
4226.873	2647
4228.411	2692
4229.948	2656
4231.486	2686
4233.024	2614
4234.562	2710
4236.098	2663
4237.634	2585
4239.169	2654
4240.705	2629
4242.241	2669
4243.776	2665
4245.31	2635
4246.844	2607
4248.378	2686
4249.911	2655
4251.445	2633
4252.978	2595
4254.51	2636
4256.042	2671
4257.574	2620
4259.107	2626
4260.638	2653
4262.169	2614
4263.699	2654
4265.228	2647
4266.759	2643
4268.289	2617
4269.818	2615
4271.345	2562
4272.874	2616
4274.402	2632
4275.931	2579
4277.458	2628
4278.985	2658
4280.512	2618
4282.037	2637
4283.564	2565
4285.089	2644
4286.615	2538
4288.139	2586
4289.664	2572
4291.187	2567
4292.712	2580
4294.235	2573
4295.759	2580
4297.281	2541
4298.804	2564
4300.327	2611
4301.849	2568
4303.37	2577
4304.891	2524
4306.412	2507
4307.933	2562
4309.453	2551
4310.973	2599
4312.492	2510
