398.1873	4472
400.7097	4485
403.2336	4563
405.7547	4491
408.2751	4588
410.7948	4557
413.3138	4526
415.83	4618
418.3497	4645
420.8666	4740
423.3829	4743
425.8985	4775
428.4133	4771
430.9275	4755
433.441	4802
435.9538	4776
438.4639	4843
440.9753	4829
443.4881	4824
445.9982	4835
448.5055	4833
451.0142	4807
453.5201	4796
456.0274	4864
458.5361	4876
461.04	4867
463.5453	4782
466.0478	4747
468.5517	4828
471.0549	4897
473.5574	4803
476.0572	4875
478.5584	4801
481.0568	4920
483.5545	4845
486.0557	4824
488.5521	4818
491.0478	4856
493.5449	4879
496.0392	4883
498.5349	4904
501.0299	4916
503.5222	4942
506.0139	4915
508.5048	4949
510.9991	4948
513.4887	5022
515.9777	4943
518.4659	4939
520.9534	5017
523.4403	4995
525.9306	4965
528.4161	5004
530.9009	4931
533.3851	5007
535.8687	4943
538.3535	4995
540.8356	4944
543.3171	5008
545.7979	4894
548.278	4947
550.7595	5046
553.2383	5080
555.7144	5038
558.1918	4955
560.6685	5044
563.1446	5100
565.6221	5043
568.0968	5008
570.5688	5081
573.0422	5103
575.515	5212
577.989	5149
580.4584	5189
582.9291	5195
585.3991	5111
587.8685	5187
590.3352	5155
592.8052	5127
595.2706	5175
597.7372	5170
600.2033	5169
602.6666	5084
605.1334	5294
607.5953	5176
610.0587	5190
612.5193	5245
614.9814	5228
617.4427	5124
619.9034	5256
622.3615	5125
624.8208	5153
627.2775	5106
629.7335	5080
632.1929	5148
634.6476	5183
637.1016	5145
639.5569	5073
642.0096	5205
644.4637	5261
646.9151	5217
649.3678	5272
651.8179	5114
654.2672	5256
656.7159	5100
659.166	5250
661.6154	5258
664.0622	5244
666.5082	5291
668.9537	5201
671.4005	5236
673.8445	5166
676.288	5205
678.7308	5349
681.1729	5336
683.6163	5254
686.0572	5304
688.4973	5368
690.9368	5281
693.3757	5348
695.8138	5390
698.2534	5310
700.6902	5363
703.1245	5305
705.56	5344
707.9949	5406
710.4311	5420
712.8647	5452
715.2957	5427
717.7279	5466
720.1595	5436
722.5905	5577
725.0208	5514
727.4505	5404
729.8795	5375
732.3058	5589
734.7336	5503
737.1626	5535
739.587	5547
742.0128	5561
744.4359	5627
746.8604	5559
749.2841	5534
751.7073	5698
754.1278	5708
756.5496	5624
758.9688	5556
761.3893	5666
763.8093	5620
766.2285	5663
768.6451	5647
771.0611	5711
773.4784	5661
775.895	5690
778.3091	5851
780.7244	5651
783.1371	5701
785.5493	5820
787.9626	5748
790.3754	5759
792.7856	5702
795.1951	5788
797.6039	5722
800.0121	5662
802.4236	5739
804.8306	5841
807.2369	5756
809.6425	5724
812.0475	5730
814.4538	5788
816.8575	5792
819.2606	5781
821.663	5775
824.0648	5802
826.4659	5734
828.8683	5761
831.2682	5837
833.6674	5941
836.066	5816
838.4639	5776
840.8632	5845
843.2579	5883
845.6539	5746
848.0493	5915
850.444	5912
852.84	5915
855.2315	5891
857.6243	5893
860.0165	5938
862.4081	5934
864.797	5850
867.1892	5909
869.5789	5854
871.9659	5879
874.3542	5991
876.74	5884
879.129	5866
881.5155	5910
883.8994	5771
886.2845	5894
888.6671	5894
891.051	5776
893.4343	5936
895.8169	5892
898.197	5879
900.5783	5923
902.9571	6034
905.3372	5882
907.7167	5847
910.0936	5857
912.4698	6006
914.8474	5947
917.2244	5953
919.5987	6007
921.9744	5983
924.3475	5959
926.72	6072
929.0918	6172
931.4669	6118
933.8375	6211
936.2074	6150
938.5767	6171
940.9454	6278
943.3154	6392
945.6829	6440
948.0497	6574
950.4178	6750
952.7833	6962
955.1483	7176
957.5145	7366
959.8782	7459
962.2412	7277
964.6036	7248
966.9655	7101
969.3266	6771
971.6871	6550
974.0471	6484
976.4064	6240
978.765	6164
981.125	6144
983.4824	6139
985.8373	6064
988.1935	6006
990.549	6056
992.9039	6071
995.2602	6036
997.6119	6129
999.965	5974
1002.317	6059
1004.667	6020
1007.02	6116
1009.371	6076
1011.719	6067
1014.068	6094
1016.415	6150
1018.765	6039
1021.111	6124
1023.458	6043
1025.804	6157
1028.147	6141
1030.49	6288
1032.837	6129
1035.179	6143
1037.522	6235
1039.862	6205
1042.204	6153
1044.546	6413
1046.884	6166
1049.224	6351
1051.562	6256
1053.899	6311
1056.237	6298
1058.575	6211
1060.91	6327
1063.244	6230
1065.58	6302
1067.913	6325
1070.248	6378
1072.579	6338
1074.911	6437
1077.242	6210
1079.572	6297
1081.905	6335
1084.234	6274
1086.562	6250
1088.89	6314
1091.217	6246
1093.544	6256
1095.871	6268
1098.197	6243
1100.521	6069
1102.845	6215
1105.169	6221
1107.491	6218
1109.814	6346
1112.135	6222
1114.456	6112
1116.776	6236
1119.096	6187
1121.415	6282
1123.734	6262
1126.052	6190
1128.369	6259
1130.686	6311
1133.002	6280
1135.318	6281
1137.632	6229
1139.945	6291
1142.258	6177
1144.573	6269
1146.884	6234
1149.196	6170
1151.505	6282
1153.816	6266
1156.124	6368
1158.435	6194
1160.742	6238
1163.051	6231
1165.356	6286
1167.663	6362
1169.97	6323
1172.276	6351
1174.579	6166
1176.881	6280
1179.186	6278
1181.487	6179
1183.79	6244
1186.092	6294
1188.392	6261
1190.691	6266
1192.991	6266
1195.291	6355
1197.588	6249
1199.885	6276
1202.181	6252
1204.479	6312
1206.775	6405
1209.07	6340
1211.363	6425
1213.656	6275
1215.949	6313
1218.241	6419
1220.534	6250
1222.825	6377
1225.115	6432
1227.405	6295
1229.693	6433
1231.984	6363
1234.271	6481
1236.558	6385
1238.845	6533
1241.131	6434
1243.416	6520
1245.703	6492
1247.987	6466
1250.269	6559
1252.552	6495
1254.834	6532
1257.118	6545
1259.399	6481
1261.678	6543
1263.958	6506
1266.237	6449
1268.516	6624
1270.794	6545
1273.072	6527
1275.347	6551
1277.624	6517
1279.899	6443
1282.175	6506
1284.449	6486
1286.722	6426
1288.995	6472
1291.266	6526
1293.54	6502
1295.81	6531
1298.081	6405
1300.35	6500
1302.62	6421
1304.889	6485
1307.156	6413
1309.425	6428
1311.69	6422
1313.957	6454
1316.222	6341
1318.488	6403
1320.751	6426
1323.016	6548
1325.278	6479
1327.54	6435
1329.803	6498
1332.065	6599
1334.325	6391
1336.584	6391
1338.843	6490
1341.101	6519
1343.36	6399
1345.617	6435
1347.876	6582
1350.131	6527
1352.387	6414
1354.643	6473
1356.897	6611
1359.151	6488
1361.403	6450
1363.656	6367
1365.909	6444
1368.16	6540
1370.409	6485
1372.659	6481
1374.909	6435
1377.157	6547
1379.407	6572
1381.655	6499
1383.9	6616
1386.147	6416
1388.393	6536
1390.64	6548
1392.885	6608
1395.127	6550
1397.37	6577
1399.614	6593
1401.854	6618
1404.098	6719
1406.339	6554
1408.578	6522
1410.818	6575
1413.056	6772
1415.297	6688
1417.533	6717
1419.771	6593
1422.006	6629
1424.243	6484
1426.479	6624
1428.715	6588
1430.948	6725
1433.182	6596
1435.414	6667
1437.647	6711
1439.88	6721
1442.11	6810
1444.342	6655
1446.571	6689
1448.799	6795
1451.029	6866
1453.258	6832
1455.485	6792
1457.711	6760
1459.937	6796
1462.164	6668
1464.39	6827
1466.614	6773
1468.838	6834
1471.06	6691
1473.283	6752
1475.506	6594
1477.727	6673
1479.949	6552
1482.169	6726
1484.389	6535
1486.609	6643
1488.828	6540
1491.045	6509
1493.261	6536
1495.477	6646
1497.693	6584
1499.91	6508
1502.125	6549
1504.339	6431
1506.553	6563
1508.766	6558
1510.979	6534
1513.191	6463
1515.402	6518
1517.613	6528
1519.823	6506
1522.033	6598
1524.242	6477
1526.451	6434
1528.657	6602
1530.865	6486
1533.072	6461
1535.278	6570
1537.484	6518
1539.687	6530
1541.892	6600
1544.096	6523
1546.299	6614
1548.502	6624
1550.703	6666
1552.905	6643
1555.104	6633
1557.303	6579
1559.505	6658
1561.703	6524
1563.902	6569
1566.099	6599
1568.295	6638
1570.494	6722
1572.689	6745
1574.883	6618
1577.079	6734
1579.272	6737
1581.467	6712
1583.659	6731
1585.853	6742
1588.044	6749
1590.234	6745
1592.424	6813
1594.615	6736
1596.806	6901
1598.994	6704
1601.182	6772
1603.369	6733
1605.557	6742
1607.744	6698
1609.929	6767
1612.114	6746
1614.298	6740
1616.482	6807
1618.667	6786
1620.85	6853
1623.032	6782
1625.214	6777
1627.395	6762
1629.575	6713
1631.755	6895
1633.935	6784
1636.114	6878
1638.292	6902
1640.471	6793
1642.647	6909
1644.823	6892
1647	6900
1649.175	6938
1651.348	6806
1653.525	6901
1655.698	6832
1657.87	6926
1660.043	6855
1662.213	7036
1664.387	6821
1666.558	6875
1668.727	6775
1670.896	6989
1673.064	6860
1675.233	6881
1677.401	6959
1679.569	6887
1681.735	6962
1683.902	6879
1686.066	6867
1688.233	6905
1690.397	6877
1692.559	6768
1694.723	6914
1696.885	6825
1699.048	6811
1701.21	6859
1703.37	6837
1705.53	6885
1707.689	6929
1709.849	6765
1712.009	6820
1714.166	6791
1716.323	6780
1718.479	6698
1720.634	6771
1722.793	6825
1724.948	6758
1727.102	6819
1729.255	6715
1731.408	6708
1733.562	6763
1735.714	6679
1737.865	6750
1740.016	6779
1742.166	6799
1744.316	6808
1746.467	6863
1748.616	6879
1750.764	6727
1752.911	6886
1755.056	6822
1757.205	6900
1759.35	6840
1761.496	6853
1763.641	6845
1765.785	6851
1767.927	6892
1770.072	6813
1772.214	6974
1774.355	6950
1776.496	6849
1778.637	6949
1780.778	6850
1782.918	6820
1785.057	6986
1787.194	6900
1789.333	6802
1791.472	6898
1793.608	6910
1795.745	6935
1797.879	6885
1800.015	6966
1802.148	6971
1804.284	6769
1806.417	6919
1808.548	6892
1810.682	6877
1812.812	6880
1814.946	6881
1817.075	6874
1819.205	6859
1821.335	6943
1823.463	6941
1825.59	6816
1827.721	6855
1829.847	6825
1831.973	6896
1834.098	6844
1836.223	6888
1838.351	6848
1840.475	6732
1842.598	6802
1844.721	6901
1846.843	6778
1848.966	6956
1851.087	6773
1853.21	6764
1855.33	6855
1857.449	6948
1859.568	6881
1861.688	6846
1863.806	6789
1865.924	6762
1868.039	6855
1870.155	6746
1872.273	6891
1874.388	6889
1876.503	6855
1878.617	6840
1880.73	6823
1882.844	6900
1884.956	6736
1887.068	6857
1889.18	6817
1891.291	6928
1893.4	6856
1895.511	6954
1897.621	6939
1899.73	6928
1901.837	6740
1903.944	6900
1906.053	6804
1908.159	6924
1910.265	6842
1912.369	6991
1914.474	7029
1916.577	6842
1918.683	7012
1920.785	6915
1922.888	6963
1924.989	7034
1927.091	7044
1929.193	6912
1931.294	6904
1933.393	6936
1935.493	6885
1937.59	7098
1939.689	6986
1941.788	6974
1943.884	6927
1945.98	6996
1948.077	7104
1950.171	6881
1952.267	7024
1954.361	6950
1956.455	7106
1958.548	7002
1960.64	7006
1962.733	6989
1964.824	6905
1966.915	6949
1969.005	6951
1971.096	6979
1973.185	7073
1975.275	7004
1977.363	7068
1979.45	6999
1981.537	6989
1983.623	6977
1985.711	6939
1987.796	6876
1989.881	7012
1991.965	6864
1994.047	7036
1996.132	6990
1998.215	6915
2000.297	6901
2002.378	6962
2004.46	6883
2006.54	6928
2008.62	6960
2010.7	6937
2012.779	6902
2014.858	6906
2016.934	6825
2019.013	6864
2021.09	6931
2023.165	6841
2025.241	6934
2027.317	6869
2029.39	6914
2031.466	6902
2033.538	6819
2035.612	6851
2037.683	7026
2039.755	6960
2041.827	6947
2043.898	7006
2045.968	6930
2048.038	6950
2050.106	7008
2052.177	6850
2054.244	6863
2056.313	7004
2058.379	6935
2060.444	6916
2062.511	6940
2064.577	6899
2066.641	7040
2068.705	6986
2070.77	6947
2072.832	6897
2074.896	7022
2076.958	6948
2079.02	6894
2081.081	6972
2083.141	6922
2085.2	6911
2087.261	6938
2089.319	6923
2091.377	7103
2093.435	7031
2095.492	6929
2097.552	6966
2099.607	7009
2101.663	7036
2103.718	7016
2105.771	7063
2107.826	7048
2109.879	6897
2111.932	7095
2113.985	6940
2116.037	7010
2118.088	6959
2120.141	6841
2122.191	7058
2124.239	6915
2126.288	6963
2128.337	7020
2130.387	6946
2132.434	7032
2134.481	7091
2136.528	6926
2138.574	6964
2140.618	6937
2142.665	6858
2144.71	6982
2146.753	6972
2148.797	6933
2150.838	6946
2152.883	6955
2154.923	6900
2156.965	6899
2159.007	6939
2161.046	6953
2163.086	6894
2165.126	6929
2167.163	6905
2169.202	6866
2171.239	6867
2173.277	6922
2175.314	6906
2177.349	6994
2179.385	6935
2181.42	6788
2183.453	6875
2185.49	6813
2187.522	6807
2189.555	6918
2191.586	6800
2193.619	6865
2195.651	6809
2197.682	6843
2199.711	6859
2201.74	6809
2203.769	6806
2205.799	6757
2207.828	6814
2209.855	6866
2211.882	6818
2213.908	6863
2215.934	6825
2217.961	6914
2219.986	6899
2222.01	6775
2224.034	6797
2226.057	6674
2228.08	6864
2230.104	6701
2232.124	6869
2234.145	6862
2236.166	6718
2238.186	6826
2240.207	6878
2242.227	6842
2244.244	6780
2246.262	6713
2248.28	6879
2250.299	6791
2252.314	6905
2254.33	6842
2256.346	6790
2258.36	6886
2260.375	6737
2262.391	6921
2264.403	6777
2266.416	6776
2268.427	6754
2270.44	6812
2272.453	6850
2274.463	6965
2276.474	6763
2278.483	6754
2280.493	6695
2282.501	6869
2284.51	6849
2286.518	6788
2288.524	6799
2290.532	6872
2292.537	6852
2294.544	6889
2296.55	6863
2298.554	6863
2300.557	6762
2302.562	6778
2304.566	6852
2306.568	6893
2308.569	6643
2310.572	6820
2312.573	6761
2314.573	6697
2316.574	6772
2318.573	6776
2320.571	6807
2322.571	6744
2324.569	6835
2326.567	6770
2328.564	6729
2330.56	6771
2332.556	6741
2334.551	6822
2336.546	6769
2338.542	6748
2340.535	6751
2342.529	6747
2344.521	6808
2346.512	6664
2348.505	6786
2350.497	6759
2352.487	6727
2354.478	6690
2356.468	6799
2358.457	6770
2360.446	6829
2362.434	6705
2364.422	6610
2366.408	6716
2368.395	6660
2370.383	6711
2372.369	6678
2374.353	6607
2376.338	6651
2378.321	6718
2380.307	6750
2382.29	6608
2384.272	6704
2386.254	6627
2388.235	6671
2390.218	6600
2392.198	6570
2394.179	6578
2396.157	6674
2398.137	6730
2400.115	6568
2402.095	6635
2404.072	6770
2406.048	6719
2408.026	6621
2410.001	6617
2411.977	6656
2413.953	6749
2415.927	6618
2417.9	6615
2419.875	6708
2421.847	6721
2423.821	6652
2425.792	6636
2427.763	6532
2429.736	6627
2431.706	6684
2433.677	6469
2435.646	6626
2437.615	6535
2439.583	6607
2441.551	6669
2443.519	6708
2445.486	6550
2447.452	6630
2449.418	6636
2451.383	6644
2453.348	6530
2455.314	6558
2457.278	6655
2459.241	6585
2461.205	6544
2463.167	6538
2465.131	6550
2467.091	6623
2469.052	6540
2471.012	6554
2472.972	6595
2474.932	6660
2476.891	6561
2478.85	6583
2480.808	6648
2482.766	6614
2484.722	6522
2486.68	6625
2488.636	6559
2490.591	6533
2492.546	6652
2494.5	6600
2496.456	6648
2498.41	6498
2500.362	6600
2502.315	6447
2504.266	6567
2506.218	6550
2508.169	6536
2510.121	6577
2512.07	6546
2514.019	6509
2515.968	6592
2517.918	6574
2519.866	6578
2521.813	6467
2523.76	6509
2525.707	6437
2527.653	6468
2529.599	6500
2531.543	6538
2533.489	6510
2535.433	6547
2537.376	6568
2539.32	6496
2541.264	6534
2543.205	6512
2545.147	6592
2547.087	6655
2549.029	6430
2550.969	6491
2552.908	6477
2554.847	6428
2556.786	6493
2558.724	6533
2560.663	6426
2562.6	6529
2564.537	6558
2566.473	6409
2568.408	6544
2570.345	6589
2572.28	6619
2574.214	6486
2576.148	6569
2578.081	6431
2580.014	6470
2581.947	6561
2583.879	6564
2585.81	6581
2587.741	6467
2589.67	6580
2591.602	6563
2593.532	6507
2595.461	6533
2597.388	6595
2599.316	6610
2601.244	6571
2603.172	6449
2605.098	6517
2607.023	6506
2608.949	6564
2610.873	6547
2612.8	6596
2614.723	6611
2616.647	6419
2618.569	6614
2620.493	6663
2622.416	6633
2624.338	6524
2626.258	6607
2628.179	6511
2630.099	6575
2632.019	6450
2633.939	6608
2635.857	6567
2637.775	6516
2639.694	6637
2641.61	6593
2643.528	6511
2645.444	6553
2647.361	6466
2649.276	6620
2651.19	6512
2653.105	6506
2655.019	6375
2656.934	6541
2658.846	6504
2660.758	6504
2662.67	6584
2664.583	6566
2666.493	6623
2668.404	6508
2670.313	6568
2672.223	6586
2674.134	6592
2676.042	6583
2677.95	6368
2679.858	6611
2681.765	6571
2683.673	6559
2685.579	6547
2687.483	6466
2689.389	6556
2691.294	6365
2693.198	6608
2695.104	6495
2697.006	6548
2698.909	6465
2700.811	6450
2702.713	6460
2704.615	6463
2706.516	6597
2708.417	6456
2710.316	6543
2712.216	6431
2714.115	6625
2716.014	6476
2717.913	6568
2719.81	6525
2721.707	6514
2723.603	6545
2725.501	6513
2727.396	6498
2729.292	6446
2731.186	6589
2733.081	6469
2734.976	6535
2736.87	6334
2738.762	6490
2740.653	6403
2742.546	6507
2744.437	6353
2746.329	6449
2748.22	6395
2750.11	6333
2751.999	6471
2753.889	6420
2755.778	6493
2757.666	6389
2759.553	6444
2761.44	6324
2763.328	6394
2765.215	6293
2767.101	6319
2768.986	6371
2770.87	6361
2772.754	6363
2774.638	6419
2776.523	6335
2778.405	6422
2780.288	6430
2782.17	6398
2784.051	6311
2785.934	6461
2787.814	6404
2789.694	6475
2791.574	6350
2793.453	6327
2795.332	6399
2797.212	6443
2799.088	6343
2800.966	6455
2802.843	6413
2804.719	6364
2806.597	6300
2808.471	6342
2810.346	6353
2812.221	6301
2814.094	6381
2815.969	6388
2817.843	6206
2819.714	6327
2821.587	6285
2823.459	6263
2825.329	6372
2827.202	6184
2829.072	6370
2830.942	6295
2832.811	6262
2834.68	6326
2836.549	6407
2838.418	6373
2840.284	6474
2842.152	6423
2844.018	6422
2845.885	6352
2847.751	6394
2849.616	6417
2851.482	6360
2853.345	6322
2855.208	6294
2857.074	6392
2858.937	6418
2860.799	6332
2862.66	6498
2864.522	6352
2866.385	6527
2868.245	6578
2870.104	6682
2871.964	6500
2873.824	6499
2875.683	6624
2877.542	6587
2879.4	6688
2881.257	6561
2883.114	6710
2884.97	6723
2886.827	6699
2888.683	6621
2890.537	6679
2892.392	6721
2894.246	6538
2896.1	6636
2897.954	6708
2899.807	6706
2901.66	6682
2903.51	6668
2905.362	6792
2907.214	6734
2909.065	6644
2910.915	6746
2912.765	6726
2914.613	6702
2916.463	6741
2918.311	6858
2920.158	6783
2922.006	6903
2923.853	7004
2925.698	7083
2927.546	7033
2929.392	6953
2931.236	7084
2933.081	7151
2934.924	7191
2936.77	7223
2938.613	7126
2940.455	7271
2942.298	7208
2944.139	7384
2945.982	7170
2947.823	7214
2949.662	7197
2951.503	7127
2953.342	7117
2955.182	7058
2957.021	7075
2958.858	7146
2960.697	6889
2962.534	6776
2964.37	6926
2966.207	6646
2968.044	6770
2969.879	6812
2971.714	6728
2973.548	6782
2975.383	6656
2977.218	6746
2979.051	6669
2980.883	6652
2982.715	6648
2984.547	6770
2986.379	6625
2988.21	6611
2990.04	6622
2991.87	6531
2993.7	6722
2995.53	6507
2997.359	6435
2999.187	6431
3001.015	6564
3002.842	6453
3004.669	6378
3006.497	6394
3008.323	6427
3010.148	6244
3011.974	6174
3013.797	6253
3015.623	6299
3017.447	6292
3019.27	6167
3021.094	6127
3022.915	6059
3024.737	6122
3026.56	6056
3028.38	6047
3030.201	6091
3032.022	6214
3033.84	6108
3035.662	6078
3037.481	6051
3039.298	6015
3041.117	5973
3042.933	5993
3044.752	6052
3046.568	6023
3048.385	6027
3050.2	6053
3052.016	5993
3053.83	5986
3055.646	5935
3057.46	6031
3059.272	6067
3061.086	6134
3062.898	6017
3064.711	5932
3066.524	6109
3068.335	5998
3070.145	5926
3071.956	5914
3073.766	5998
3075.576	5966
3077.385	5928
3079.193	5999
3081.002	5981
3082.81	5887
3084.618	5911
3086.425	6108
3088.231	5928
3090.036	5821
3091.842	5844
3093.648	5964
3095.452	5874
3097.257	5853
3099.06	5798
3100.863	5812
3102.666	5778
3104.47	5774
3106.272	5738
3108.073	5813
3109.875	5857
3111.676	5877
3113.477	5829
3115.277	5836
3117.077	5851
3118.874	5770
3120.673	5817
3122.473	5802
3124.271	5811
3126.066	5832
3127.863	5808
3129.66	5986
3131.456	5842
3133.252	5787
3135.047	5835
3136.842	5774
3138.635	5771
3140.429	5738
3142.223	5777
3144.016	5721
3145.808	5720
3147.6	5684
3149.392	5693
3151.183	5600
3152.975	5671
3154.765	5732
3156.553	5819
3158.344	5792
3160.132	5712
3161.922	5799
3163.71	5688
3165.497	5718
3167.285	5706
3169.071	5787
3170.858	5695
3172.645	5685
3174.429	5690
3176.214	5711
3177.998	5757
3179.783	5738
3181.568	5743
3183.351	5694
3185.133	5677
3186.915	5549
3188.698	5617
3190.481	5654
3192.261	5601
3194.042	5617
3195.822	5718
3197.601	5683
3199.381	5567
3201.161	5652
3202.939	5661
3204.717	5616
3206.495	5610
3208.272	5661
3210.05	5531
3211.826	5551
3213.602	5664
3215.376	5568
3217.151	5593
3218.927	5659
3220.702	5670
3222.476	5566
3224.249	5512
3226.021	5659
3227.793	5676
3229.567	5537
3231.339	5530
3233.109	5608
3234.88	5591
3236.651	5577
3238.421	5627
3240.191	5695
3241.96	5584
3243.728	5621
3245.497	5505
3247.263	5654
3249.033	5647
3250.799	5579
3252.566	5571
3254.331	5574
3256.097	5507
3257.863	5651
3259.628	5646
3261.392	5595
3263.156	5636
3264.919	5588
3266.683	5579
3268.447	5562
3270.208	5625
3271.969	5599
3273.731	5613
3275.492	5543
3277.253	5623
3279.013	5524
3280.773	5606
3282.532	5594
3284.291	5718
3286.05	5560
3287.808	5642
3289.566	5639
3291.323	5672
3293.079	5623
3294.835	5672
3296.593	5667
3298.348	5482
3300.102	5565
3301.857	5497
3303.611	5601
3305.366	5591
3307.119	5540
3308.872	5658
3310.624	5617
3312.376	5564
3314.129	5641
3315.881	5556
3317.631	5523
3319.38	5614
3321.13	5608
3322.88	5586
3324.631	5541
3326.379	5594
3328.126	5624
3329.875	5561
3331.622	5596
3333.371	5608
3335.116	5497
3336.863	5528
3338.609	5657
3340.353	5559
3342.1	5653
3343.845	5545
3345.588	5521
3347.332	5448
3349.074	5591
3350.817	5514
3352.56	5534
3354.303	5534
3356.043	5422
3357.785	5450
3359.525	5502
3361.268	5530
3363.007	5479
3364.745	5489
3366.485	5481
3368.223	5506
3369.962	5487
3371.701	5506
3373.438	5470
3375.174	5546
3376.911	5436
3378.647	5429
3380.384	5479
3382.118	5548
3383.854	5443
3385.588	5494
3387.322	5438
3389.057	5409
3390.79	5443
3392.522	5419
3394.255	5422
3395.987	5500
3397.719	5422
3399.451	5427
3401.181	5449
3402.911	5491
3404.641	5394
3406.371	5399
3408.101	5468
3409.83	5483
3411.558	5349
3413.285	5517
3415.011	5364
3416.739	5508
3418.467	5339
3420.193	5352
3421.919	5377
3423.644	5397
3425.368	5348
3427.094	5373
3428.818	5243
3430.542	5290
3432.264	5397
3433.987	5327
3435.712	5416
3437.434	5265
3439.155	5357
3440.876	5355
3442.596	5319
3444.317	5252
3446.039	5402
3447.757	5289
3449.477	5363
3451.195	5280
3452.914	5254
3454.632	5254
3456.35	5254
3458.067	5339
3459.784	5304
3461.5	5291
3463.216	5261
3464.932	5206
3466.647	5206
3468.362	5228
3470.076	5354
3471.789	5199
3473.505	5280
3475.217	5146
3476.929	5171
3478.641	5236
3480.354	5088
3482.066	5230
3483.777	5185
3485.487	5218
3487.197	5178
3488.908	5157
3490.617	5188
3492.327	5177
3494.035	5263
3495.743	5170
3497.451	5148
3499.158	5092
3500.866	5198
3502.572	5159
3504.278	5083
3505.984	5031
3507.689	5142
3509.396	5097
3511.1	5068
3512.804	5079
3514.508	5175
3516.211	5152
3517.913	5081
3519.616	5028
3521.319	5068
3523.021	5030
3524.722	5032
3526.422	5052
3528.124	5029
3529.824	5112
3531.524	5068
3533.222	5015
3534.921	5059
3536.62	5021
3538.318	5027
3540.016	4985
3541.714	5040
3543.41	5027
3545.107	5012
3546.803	5030
3548.5	5000
3550.194	5059
3551.889	4987
3553.583	5098
3555.279	4906
3556.972	5146
3558.666	4953
3560.358	5001
3562.051	5047
3563.742	4959
3565.435	5001
3567.126	4976
3568.817	4940
3570.507	4916
3572.197	4951
3573.888	4903
3575.577	4906
3577.265	4988
3578.954	4877
3580.642	4980
3582.329	4860
3584.017	4835
3585.704	4947
3587.391	4893
3589.077	4954
3590.762	4872
3592.449	4899
3594.133	4914
3595.817	4826
3597.501	4931
3599.185	4860
3600.869	4836
3602.552	4906
3604.234	4775
3605.916	4831
3607.598	4848
3609.279	4760
3610.961	4773
3612.642	4870
3614.321	4767
3616	4755
3617.68	4863
3619.36	4825
3621.039	4730
3622.716	4761
3624.394	4761
3626.071	4740
3627.748	4754
3629.425	4817
3631.102	4723
3632.778	4814
3634.452	4632
3636.127	4709
3637.803	4723
3639.477	4655
3641.151	4750
3642.823	4694
3644.497	4751
3646.171	4746
3647.842	4684
3649.515	4731
3651.185	4656
3652.857	4746
3654.527	4761
3656.198	4600
3657.868	4697
3659.537	4623
3661.207	4618
3662.875	4626
3664.544	4693
3666.212	4641
3667.879	4696
3669.546	4677
3671.212	4646
3672.88	4553
3674.546	4626
3676.211	4637
3677.875	4614
3679.541	4645
3681.205	4625
3682.87	4662
3684.533	4708
3686.196	4622
3687.859	4595
3689.521	4630
3691.184	4630
3692.845	4568
3694.507	4791
3696.167	4615
3697.827	4626
3699.487	4499
3701.148	4589
3702.808	4649
3704.466	4626
3706.125	4560
3707.783	4516
3709.442	4689
3711.099	4627
3712.757	4595
3714.412	4603
3716.068	4515
3717.725	4559
3719.381	4631
3721.036	4481
3722.689	4494
3724.344	4511
3725.998	4461
3727.652	4581
3729.305	4548
3730.958	4485
3732.61	4506
3734.262	4492
3735.915	4523
3737.565	4510
3739.217	4551
3740.866	4517
3742.516	4546
3744.165	4512
3745.816	4519
3747.464	4428
3749.113	4476
3750.761	4571
3752.409	4524
3754.057	4492
3755.703	4431
3757.35	4463
3758.996	4462
3760.641	4380
3762.289	4435
3763.933	4477
3765.577	4506
3767.222	4449
3768.865	4468
3770.508	4410
3772.152	4428
3773.796	4445
3775.438	4467
3777.079	4459
3778.721	4437
3780.363	4347
3782.003	4407
3783.643	4428
3785.283	4351
3786.923	4430
3788.563	4323
3790.203	4468
3791.841	4491
3793.479	4331
3795.115	4408
3796.753	4422
3798.391	4436
3800.027	4391
3801.664	4354
3803.299	4365
3804.935	4401
3806.571	4234
3808.206	4398
3809.839	4339
3811.473	4344
3813.107	4343
3814.74	4311
3816.375	4296
3818.006	4384
3819.638	4343
3821.27	4341
3822.9	4358
3824.532	4346
3826.163	4271
3827.792	4320
3829.423	4297
3831.051	4291
3832.682	4251
3834.311	4395
3835.938	4306
3837.566	4285
3839.193	4267
3840.821	4368
3842.448	4291
3844.075	4207
3845.7	4259
3847.325	4291
3848.951	4354
3850.576	4257
3852.201	4222
3853.825	4229
3855.448	4186
3857.072	4278
3858.694	4226
3860.318	4271
3861.939	4219
3863.562	4309
3865.183	4267
3866.804	4186
3868.426	4276
3870.045	4237
3871.666	4188
3873.285	4271
3874.904	4154
3876.524	4166
3878.142	4147
3879.76	4122
3881.378	4172
3882.995	4245
3884.612	4104
3886.229	4266
3887.845	4217
3889.461	4119
3891.076	4192
3892.691	4140
3894.307	4121
3895.922	4113
3897.536	4114
3899.149	4122
3900.761	4229
3902.374	4202
3903.988	4162
3905.6	4229
3907.212	4191
3908.822	4141
3910.433	4219
3912.045	4230
3913.655	4190
3915.265	4173
3916.875	4184
3918.483	4142
3920.093	4132
3921.702	4220
3923.309	4180
3924.917	4108
3926.523	4132
3928.13	4122
3929.739	4148
3931.344	4207
3932.95	4158
3934.555	4088
3936.159	4074
3937.766	4083
3939.369	4086
3940.974	4197
3942.577	4088
3944.181	4150
3945.783	4015
3947.386	4165
3948.989	4112
3950.59	4095
3952.191	3949
3953.791	4078
3955.394	4072
3956.994	4045
3958.593	4095
3960.192	4047
3961.791	4026
3963.392	3997
3964.99	4057
3966.588	4046
3968.185	4007
3969.782	3967
3971.379	4089
3972.976	4136
3974.572	4052
3976.168	4069
3977.763	4068
3979.358	3963
3980.954	3955
3982.548	3963
3984.142	4049
3985.736	3985
3987.329	3987
3988.922	3991
3990.516	3874
3992.108	3997
3993.698	3904
3995.29	4094
3996.881	3876
3998.473	3934
4000.064	3868
4001.653	3949
4003.242	3910
4004.832	3914
4006.422	3918
4008.01	3895
4009.598	3966
4011.186	3917
4012.773	3921
4014.36	3873
4015.947	3852
4017.534	3915
4019.119	3929
4020.705	3900
4022.291	3946
4023.876	3921
4025.461	3836
4027.044	3841
4028.627	3817
4030.211	3853
4031.795	3791
4033.378	3782
4034.96	3766
4036.542	3839
4038.124	3830
4039.704	3796
4041.286	3845
4042.867	3783
4044.447	3853
4046.026	3819
4047.606	3756
4049.187	3831
4050.765	3786
4052.343	3841
4053.92	3759
4055.498	3783
4057.076	3781
4058.654	3812
4060.23	3774
4061.806	3795
4063.381	3852
4064.957	3848
4066.533	3678
4068.107	3745
4069.682	3731
4071.256	3736
4072.829	3762
4074.404	3707
4075.977	3752
4077.549	3759
4079.121	3756
4080.693	3728
4082.265	3762
4083.836	3732
4085.407	3791
4086.977	3757
4088.547	3754
4090.117	3733
4091.687	3758
4093.256	3833
4094.825	3811
4096.392	3706
4097.96	3754
4099.528	3728
4101.097	3716
4102.663	3718
4104.229	3696
4105.795	3723
4107.361	3617
4108.928	3621
4110.493	3714
4112.058	3706
4113.621	3663
4115.186	3556
4116.75	3587
4118.313	3624
4119.876	3652
4121.438	3638
4123	3624
4124.562	3671
4126.125	3635
4127.686	3634
4129.246	3658
4130.807	3589
4132.367	3634
4133.927	3655
4135.486	3607
4137.046	3526
4138.604	3644
4140.162	3585
4141.72	3657
4143.279	3619
4144.836	3574
4146.393	3557
4147.949	3589
4149.505	3599
4151.062	3613
4152.617	3620
4154.172	3555
4155.727	3607
4157.281	3609
4158.836	3504
4160.39	3497
4161.943	3542
4163.496	3509
4165.048	3552
4166.601	3482
4168.154	3559
4169.706	3565
4171.257	3525
4172.808	3491
4174.358	3571
4175.909	3563
4177.458	3495
4179.008	3556
4180.558	3457
4182.106	3418
4183.655	3542
4185.204	3563
4186.751	3398
4188.298	3499
4189.845	3483
4191.392	3512
4192.939	3574
4194.485	3491
4196.031	3550
4197.576	3492
4199.121	3451
4200.666	3462
4202.211	3505
4203.754	3429
4205.298	3436
4206.84	3524
4208.384	3456
4209.927	3533
4211.47	3460
4213.011	3483
4214.552	3472
4216.094	3455
4217.635	3445
4219.175	3401
4220.716	3479
4222.255	3427
4223.793	3516
4225.335	3363
4226.873	3388
4228.411	3474
4229.948	3423
4231.486	3429
4233.024	3302
4234.562	3373
4236.098	3350
4237.634	3418
4239.169	3423
4240.705	3421
4242.241	3373
4243.776	3369
4245.31	3380
4246.844	3474
4248.378	3368
4249.911	3412
4251.445	3435
4252.978	3418
4254.51	3402
4256.042	3317
4257.574	3294
4259.107	3351
4260.638	3378
4262.169	3418
4263.699	3389
4265.228	3326
4266.759	3310
4268.289	3408
4269.818	3292
4271.345	3352
4272.874	3332
4274.402	3341
4275.931	3366
4277.458	3323
4278.985	3348
4280.512	3331
4282.037	3237
4283.564	3329
4285.089	3385
4286.615	3343
4288.139	3310
4289.664	3264
4291.187	3334
4292.712	3331
4294.235	3336
4295.759	3378
4297.281	3310
4298.804	3275
4300.327	3249
4301.849	3321
4303.37	3304
4304.891	3209
4306.412	3196
4307.933	3276
4309.453	3314
4310.973	3253
4312.492	3269
