398.1873	3358
400.7097	3341
403.2336	3336
405.7547	3269
408.2751	3399
410.7948	3364
413.3138	3447
415.83	3424
418.3497	3358
420.8666	3420
423.3829	3481
425.8985	3487
428.4133	3533
430.9275	3583
433.441	3546
435.9538	3636
438.4639	3496
440.9753	3595
443.4881	3618
445.9982	3583
448.5055	3550
451.0142	3501
453.5201	3446
456.0274	3580
458.5361	3556
461.04	3522
463.5453	3626
466.0478	3582
468.5517	3556
471.0549	3557
473.5574	3604
476.0572	3524
478.5584	3543
481.0568	3564
483.5545	3574
486.0557	3579
488.5521	3581
491.0478	3589
493.5449	3592
496.0392	3588
498.5349	3701
501.0299	3605
503.5222	3651
506.0139	3578
508.5048	3680
510.9991	3625
513.4887	3643
515.9777	3704
518.4659	3641
520.9534	3671
523.4403	3660
525.9306	3709
528.4161	3709
530.9009	3636
533.3851	3604
535.8687	3716
538.3535	3670
540.8356	3762
543.3171	3605
545.7979	3629
548.278	3629
550.7595	3788
553.2383	3675
555.7144	3703
558.1918	3668
560.6685	3757
563.1446	3709
565.6221	3735
568.0968	3844
570.5688	3867
573.0422	3773
575.515	3780
577.989	3752
580.4584	3799
582.9291	3789
585.3991	3770
587.8685	3824
590.3352	3797
592.8052	3856
595.2706	3891
597.7372	3769
600.2033	3683
602.6666	3784
605.1334	3741
607.5953	3723
610.0587	3753
612.5193	3729
614.9814	3757
617.4427	3823
619.9034	3796
622.3615	3793
624.8208	3711
627.2775	3773
629.7335	3682
632.1929	3676
634.6476	3776
637.1016	3813
639.5569	3751
642.0096	3779
644.4637	3716
646.9151	3765
649.3678	3724
651.8179	3814
654.2672	3752
656.7159	3749
659.166	3802
661.6154	3892
664.0622	3830
666.5082	3835
668.9537	3871
671.4005	3893
673.8445	3865
676.288	3848
678.7308	3903
681.1729	3863
683.6163	3914
686.0572	3867
688.4973	3941
690.9368	3857
693.3757	3896
695.8138	3965
698.2534	3899
700.6902	3939
703.1245	4018
705.56	3833
707.9949	3968
710.4311	4000
712.8647	4002
715.2957	3973
717.7279	3980
720.1595	3952
722.5905	4053
725.0208	3931
727.4505	4052
729.8795	3994
732.3058	4092
734.7336	4013
737.1626	4056
739.587	4050
742.0128	4134
744.4359	4085
746.8604	4068
749.2841	4120
751.7073	4106
754.1278	4096
756.5496	4144
758.9688	4146
761.3893	4111
763.8093	4165
766.2285	4257
768.6451	4144
771.0611	4133
773.4784	4158
775.895	4199
778.3091	4129
780.7244	4161
783.1371	4101
785.5493	4163
787.9626	4169
790.3754	4146
792.7856	4147
795.1951	4185
797.6039	4137
800.0121	4115
802.4236	4126
804.8306	4108
807.2369	4227
809.6425	4259
812.0475	4223
814.4538	4164
816.8575	4223
819.2606	4172
821.663	4248
824.0648	4214
826.4659	4201
828.8683	4123
831.2682	4137
833.6674	4167
836.066	4226
838.4639	4269
840.8632	4168
843.2579	4237
845.6539	4241
848.0493	4328
850.444	4281
852.84	4378
855.2315	4304
857.6243	4313
860.0165	4251
862.4081	4247
864.797	4268
867.1892	4263
869.5789	4258
871.9659	4368
874.3542	4312
876.74	4271
879.129	4324
881.5155	4344
883.8994	4313
886.2845	4342
888.6671	4301
891.051	4222
893.4343	4393
895.8169	4286
898.197	4263
900.5783	4323
902.9571	4277
905.3372	4345
907.7167	4306
910.0936	4318
912.4698	4436
914.8474	4442
917.2244	4458
919.5987	4437
921.9744	4497
924.3475	4551
926.72	4507
929.0918	4471
931.4669	4457
933.8375	4594
936.2074	4487
938.5767	4661
940.9454	4520
943.3154	4625
945.6829	4737
948.0497	4774
950.4178	4790
952.7833	5042
955.1483	5050
957.5145	5396
959.8782	5379
962.2412	5336
964.6036	5303
966.9655	5179
969.3266	4982
971.6871	4834
974.0471	4780
976.4064	4653
978.765	4572
981.125	4521
983.4824	4493
985.8373	4469
988.1935	4459
990.549	4430
992.9039	4420
995.2602	4405
997.6119	4448
999.965	4534
1002.317	4353
1004.667	4419
1007.02	4474
1009.371	4470
1011.719	4584
1014.068	4467
1016.415	4487
1018.765	4492
1021.111	4494
1023.458	4467
1025.804	4534
1028.147	4606
1030.49	4517
1032.837	4597
1035.179	4533
1037.522	4569
1039.862	4563
1042.204	4566
1044.546	4587
1046.884	4525
1049.224	4522
1051.562	4593
1053.899	4598
1056.237	4478
1058.575	4537
1060.91	4635
1063.244	4585
1065.58	4638
1067.913	4520
1070.248	4572
1072.579	4609
1074.911	4723
1077.242	4613
1079.572	4641
1081.905	4588
1084.234	4630
1086.562	4457
1088.89	4511
1091.217	4573
1093.544	4545
1095.871	4514
1098.197	4545
1100.521	4539
1102.845	4523
1105.169	4467
1107.491	4517
1109.814	4726
1112.135	4556
1114.456	4486
1116.776	4594
1119.096	4610
1121.415	4564
1123.734	4597
1126.052	4508
1128.369	4614
1130.686	4593
1133.002	4575
1135.318	4589
1137.632	4512
1139.945	4675
1142.258	4493
1144.573	4634
1146.884	4561
1149.196	4543
1151.505	4567
1153.816	4626
1156.124	4553
1158.435	4464
1160.742	4630
1163.051	4575
1165.356	4546
1167.663	4632
1169.97	4589
1172.276	4672
1174.579	4592
1176.881	4516
1179.186	4626
1181.487	4619
1183.79	4529
1186.092	4654
1188.392	4622
1190.691	4640
1192.991	4595
1195.291	4565
1197.588	4557
1199.885	4672
1202.181	4646
1204.479	4561
1206.775	4612
1209.07	4627
1211.363	4605
1213.656	4609
1215.949	4693
1218.241	4677
1220.534	4571
1222.825	4653
1225.115	4666
1227.405	4711
1229.693	4730
1231.984	4741
1234.271	4739
1236.558	4738
1238.845	4750
1241.131	4785
1243.416	4721
1245.703	4783
1247.987	4780
1250.269	4764
1252.552	4750
1254.834	4777
1257.118	4828
1259.399	4815
1261.678	4858
1263.958	4776
1266.237	4725
1268.516	4812
1270.794	4816
1273.072	4821
1275.347	4737
1277.624	4768
1279.899	4830
1282.175	4632
1284.449	4756
1286.722	4750
1288.995	4711
1291.266	4681
1293.54	4676
1295.81	4742
1298.081	4768
1300.35	4695
1302.62	4706
1304.889	4663
1307.156	4688
1309.425	4606
1311.69	4695
1313.957	4777
1316.222	4739
1318.488	4689
1320.751	4681
1323.016	4676
1325.278	4653
1327.54	4717
1329.803	4719
1332.065	4677
1334.325	4762
1336.584	4801
1338.843	4691
1341.101	4767
1343.36	4770
1345.617	4845
1347.876	4746
1350.131	4737
1352.387	4653
1354.643	4712
1356.897	4695
1359.151	4750
1361.403	4760
1363.656	4814
1365.909	4725
1368.16	4772
1370.409	4735
1372.659	4693
1374.909	4795
1377.157	4806
1379.407	4794
1381.655	4752
1383.9	4791
1386.147	4813
1388.393	4893
1390.64	4807
1392.885	4749
1395.127	4905
1397.37	4876
1399.614	4880
1401.854	4883
1404.098	4956
1406.339	4814
1408.578	4902
1410.818	4871
1413.056	4871
1415.297	4873
1417.533	4810
1419.771	4839
1422.006	4838
1424.243	4908
1426.479	4916
1428.715	4845
1430.948	4926
1433.182	4986
1435.414	4927
1437.647	4925
1439.88	5063
1442.11	4919
1444.342	5040
1446.571	4965
1448.799	4990
1451.029	5025
1453.258	4951
1455.485	5070
1457.711	4977
1459.937	4954
1462.164	4975
1464.39	4974
1466.614	4919
1468.838	4855
1471.06	4931
1473.283	4882
1475.506	4827
1477.727	4804
1479.949	4782
1482.169	4819
1484.389	4767
1486.609	4846
1488.828	4834
1491.045	4846
1493.261	4786
1495.477	4800
1497.693	4788
1499.91	4713
1502.125	4787
1504.339	4853
1506.553	4696
1508.766	4815
1510.979	4767
1513.191	4761
1515.402	4797
1517.613	4819
1519.823	4799
1522.033	4852
1524.242	4768
1526.451	4796
1528.657	4760
1530.865	4796
1533.072	4834
1535.278	4848
1537.484	4766
1539.687	4799
1541.892	4746
1544.096	4804
1546.299	4845
1548.502	4856
1550.703	4840
1552.905	4837
1555.104	4825
1557.303	4942
1559.505	4907
1561.703	4937
1563.902	4820
1566.099	4893
1568.295	4890
1570.494	4779
1572.689	4942
1574.883	4870
1577.079	5001
1579.272	4978
1581.467	5033
1583.659	4832
1585.853	4964
1588.044	4922
1590.234	4963
1592.424	4951
1594.615	4933
1596.806	4957
1598.994	5040
1601.182	4983
1603.369	5005
1605.557	4994
1607.744	5107
1609.929	5152
1612.114	5027
1614.298	4975
1616.482	5033
1618.667	4942
1620.85	5027
1623.032	4969
1625.214	4981
1627.395	5037
1629.575	4949
1631.755	5004
1633.935	4947
1636.114	4955
1638.292	4977
1640.471	5068
1642.647	5066
1644.823	5077
1647	5071
1649.175	5078
1651.348	5026
1653.525	5001
1655.698	5103
1657.87	5066
1660.043	5082
1662.213	4999
1664.387	5122
1666.558	5079
1668.727	5077
1670.896	5112
1673.064	5066
1675.233	5157
1677.401	5088
1679.569	5052
1681.735	4975
1683.902	5117
1686.066	5064
1688.233	5054
1690.397	5122
1692.559	5021
1694.723	4983
1696.885	5164
1699.048	4985
1701.21	5029
1703.37	5016
1705.53	5045
1707.689	5109
1709.849	4969
1712.009	5072
1714.166	4973
1716.323	4982
1718.479	4936
1720.634	4987
1722.793	4950
1724.948	4901
1727.102	4994
1729.255	5099
1731.408	4980
1733.562	4881
1735.714	5004
1737.865	4992
1740.016	5035
1742.166	4981
1744.316	5014
1746.467	5007
1748.616	5141
1750.764	5076
1752.911	4950
1755.056	5089
1757.205	4901
1759.35	5064
1761.496	5077
1763.641	5055
1765.785	5046
1767.927	5139
1770.072	5084
1772.214	5134
1774.355	5048
1776.496	5089
1778.637	5045
1780.778	5144
1782.918	5135
1785.057	5056
1787.194	4989
1789.333	4932
1791.472	5061
1793.608	5183
1795.745	5121
1797.879	5047
1800.015	5135
1802.148	5126
1804.284	5069
1806.417	5144
1808.548	5096
1810.682	5098
1812.812	5164
1814.946	5083
1817.075	5125
1819.205	5022
1821.335	5153
1823.463	5062
1825.59	5052
1827.721	5079
1829.847	4977
1831.973	5066
1834.098	4971
1836.223	5086
1838.351	5138
1840.475	5067
1842.598	5056
1844.721	5088
1846.843	5091
1848.966	5045
1851.087	5076
1853.21	5100
1855.33	5122
1857.449	4987
1859.568	5024
1861.688	5072
1863.806	5081
1865.924	4999
1868.039	5112
1870.155	5041
1872.273	5035
1874.388	4933
1876.503	5011
1878.617	5035
1880.73	5089
1882.844	5061
1884.956	5113
1887.068	5035
1889.18	5035
1891.291	5064
1893.4	5095
1895.511	5057
1897.621	5180
1899.73	5117
1901.837	5088
1903.944	5118
1906.053	5162
1908.159	5077
1910.265	5153
1912.369	5157
1914.474	5135
1916.577	5096
1918.683	5112
1920.785	5108
1922.888	5077
1924.989	5113
1927.091	5087
1929.193	5113
1931.294	5088
1933.393	5175
1935.493	5129
1937.59	5144
1939.689	5114
1941.788	5176
1943.884	5131
1945.98	5068
1948.077	5176
1950.171	5171
1952.267	5196
1954.361	5216
1956.455	5274
1958.548	5158
1960.64	5149
1962.733	5208
1964.824	5229
1966.915	5238
1969.005	5142
1971.096	5184
1973.185	5171
1975.275	5201
1977.363	5174
1979.45	5080
1981.537	5104
1983.623	5147
1985.711	5205
1987.796	5157
1989.881	5171
1991.965	5145
1994.047	5207
1996.132	5165
1998.215	5183
2000.297	5045
2002.378	5256
2004.46	5158
2006.54	5176
2008.62	5094
2010.7	5062
2012.779	5081
2014.858	5046
2016.934	5150
2019.013	5294
2021.09	5199
2023.165	5164
2025.241	5096
2027.317	5149
2029.39	5139
2031.466	5170
2033.538	5238
2035.612	5153
2037.683	5262
2039.755	5143
2041.827	5141
2043.898	5133
2045.968	5098
2048.038	5145
2050.106	5122
2052.177	5097
2054.244	5173
2056.313	5099
2058.379	5128
2060.444	5175
2062.511	5138
2064.577	5140
2066.641	5177
2068.705	5103
2070.77	5130
2072.832	5112
2074.896	5233
2076.958	5168
2079.02	5082
2081.081	5138
2083.141	5183
2085.2	5178
2087.261	5199
2089.319	5188
2091.377	5202
2093.435	5130
2095.492	5152
2097.552	5103
2099.607	5080
2101.663	5128
2103.718	5188
2105.771	5256
2107.826	5122
2109.879	5157
2111.932	5170
2113.985	5222
2116.037	5237
2118.088	5145
2120.141	5138
2122.191	5204
2124.239	5271
2126.288	5154
2128.337	5178
2130.387	5175
2132.434	5244
2134.481	5186
2136.528	5164
2138.574	5257
2140.618	5153
2142.665	5246
2144.71	5102
2146.753	5206
2148.797	5222
2150.838	5179
2152.883	5159
2154.923	5101
2156.965	5131
2159.007	5215
2161.046	5282
2163.086	5079
2165.126	5135
2167.163	5105
2169.202	5219
2171.239	5195
2173.277	5101
2175.314	5194
2177.349	5143
2179.385	5240
2181.42	5099
2183.453	5159
2185.49	5041
2187.522	5141
2189.555	5025
2191.586	5073
2193.619	5224
2195.651	5138
2197.682	5157
2199.711	5148
2201.74	5068
2203.769	5071
2205.799	5125
2207.828	5102
2209.855	5101
2211.882	5108
2213.908	5085
2215.934	5024
2217.961	5161
2219.986	5113
2222.01	5037
2224.034	5154
2226.057	5054
2228.08	5106
2230.104	5094
2232.124	5028
2234.145	5017
2236.166	5049
2238.186	5087
2240.207	5054
2242.227	5096
2244.244	5060
2246.262	5153
2248.28	5027
2250.299	5107
2252.314	5140
2254.33	5166
2256.346	5022
2258.36	5066
2260.375	5122
2262.391	5121
2264.403	5070
2266.416	5120
2268.427	5109
2270.44	5160
2272.453	5111
2274.463	5105
2276.474	5162
2278.483	5149
2280.493	5070
2282.501	5062
2284.51	5136
2286.518	5025
2288.524	5085
2290.532	5150
2292.537	5052
2294.544	5040
2296.55	5099
2298.554	5120
2300.557	5032
2302.562	5018
2304.566	5086
2306.568	5114
2308.569	5105
2310.572	5040
2312.573	5066
2314.573	5135
2316.574	5065
2318.573	5031
2320.571	5042
2322.571	5013
2324.569	5090
2326.567	5119
2328.564	5090
2330.56	5074
2332.556	5138
2334.551	5110
2336.546	5078
2338.542	5086
2340.535	5091
2342.529	5019
2344.521	4987
2346.512	4977
2348.505	5173
2350.497	5091
2352.487	5071
2354.478	5120
2356.468	4942
2358.457	5090
2360.446	5044
2362.434	4993
2364.422	5083
2366.408	5136
2368.395	5011
2370.383	5025
2372.369	5030
2374.353	5032
2376.338	4989
2378.321	5051
2380.307	4978
2382.29	5024
2384.272	5006
2386.254	5061
2388.235	5071
2390.218	5072
2392.198	4854
2394.179	4936
2396.157	4932
2398.137	5065
2400.115	4906
2402.095	4982
2404.072	5040
2406.048	4957
2408.026	4980
2410.001	4948
2411.977	4994
2413.953	5003
2415.927	4965
2417.9	5060
2419.875	4996
2421.847	4984
2423.821	4990
2425.792	4929
2427.763	4974
2429.736	4974
2431.706	5020
2433.677	4984
2435.646	5013
2437.615	5033
2439.583	5004
2441.551	5008
2443.519	5004
2445.486	4943
2447.452	5040
2449.418	5030
2451.383	4835
2453.348	4948
2455.314	5076
2457.278	4911
2459.241	5057
2461.205	4978
2463.167	4907
2465.131	5026
2467.091	4976
2469.052	4957
2471.012	4958
2472.972	5055
2474.932	4970
2476.891	4957
2478.85	4982
2480.808	4857
2482.766	4829
2484.722	4890
2486.68	4959
2488.636	4915
2490.591	4908
2492.546	4965
2494.5	4931
2496.456	4884
2498.41	4874
2500.362	4960
2502.315	5007
2504.266	4944
2506.218	4974
2508.169	4840
2510.121	4956
2512.07	4951
2514.019	4940
2515.968	4869
2517.918	4865
2519.866	4922
2521.813	4871
2523.76	4954
2525.707	4884
2527.653	4921
2529.599	4849
2531.543	4964
2533.489	4904
2535.433	4901
2537.376	4907
2539.32	4947
2541.264	4912
2543.205	4809
2545.147	4980
2547.087	4767
2549.029	4942
2550.969	4966
2552.908	4859
2554.847	4880
2556.786	4938
2558.724	4911
2560.663	4891
2562.6	4885
2564.537	4953
2566.473	4964
2568.408	4965
2570.345	4983
2572.28	5096
2574.214	4952
2576.148	4888
2578.081	4950
2580.014	4849
2581.947	4882
2583.879	4930
2585.81	4935
2587.741	5022
2589.67	5005
2591.602	4979
2593.532	4978
2595.461	5034
2597.388	5002
2599.316	4847
2601.244	4910
2603.172	5003
2605.098	5043
2607.023	4922
2608.949	5060
2610.873	4956
2612.8	4999
2614.723	4946
2616.647	4932
2618.569	5004
2620.493	4972
2622.416	4959
2624.338	4913
2626.258	5047
2628.179	4938
2630.099	4991
2632.019	4922
2633.939	4925
2635.857	4956
2637.775	4949
2639.694	5070
2641.61	5032
2643.528	5048
2645.444	5031
2647.361	4949
2649.276	5027
2651.19	5000
2653.105	5034
2655.019	4894
2656.934	5105
2658.846	4908
2660.758	5022
2662.67	5054
2664.583	5075
2666.493	4901
2668.404	4816
2670.313	4889
2672.223	4978
2674.134	4978
2676.042	4897
2677.95	4962
2679.858	4901
2681.765	4992
2683.673	4900
2685.579	4909
2687.483	4958
2689.389	4922
2691.294	4941
2693.198	4890
2695.104	4999
2697.006	4987
2698.909	4833
2700.811	4917
2702.713	4949
2704.615	4938
2706.516	4895
2708.417	4948
2710.316	4999
2712.216	4785
2714.115	4888
2716.014	4878
2717.913	4928
2719.81	4868
2721.707	4904
2723.603	4912
2725.501	4923
2727.396	4973
2729.292	4914
2731.186	4905
2733.081	4934
2734.976	4952
2736.87	4938
2738.762	4974
2740.653	4872
2742.546	4973
2744.437	4948
2746.329	4860
2748.22	4985
2750.11	4928
2751.999	4862
2753.889	4945
2755.778	4901
2757.666	4898
2759.553	4929
2761.44	4879
2763.328	4903
2765.215	5012
2767.101	4957
2768.986	4931
2770.87	5030
2772.754	4957
2774.638	4853
2776.523	4943
2778.405	4901
2780.288	4911
2782.17	4867
2784.051	4843
2785.934	4820
2787.814	4926
2789.694	4851
2791.574	4913
2793.453	4784
2795.332	4911
2797.212	4933
2799.088	4794
2800.966	4797
2802.843	4888
2804.719	4848
2806.597	4909
2808.471	4816
2810.346	4857
2812.221	4832
2814.094	4924
2815.969	4863
2817.843	4945
2819.714	4890
2821.587	4832
2823.459	4875
2825.329	4780
2827.202	4835
2829.072	4820
2830.942	4814
2832.811	4908
2834.68	4932
2836.549	4844
2838.418	4874
2840.284	4898
2842.152	4956
2844.018	4947
2845.885	4815
2847.751	4922
2849.616	4853
2851.482	4930
2853.345	4886
2855.208	4881
2857.074	4924
2858.937	4940
2860.799	4975
2862.66	4991
2864.522	4969
2866.385	4999
2868.245	5095
2870.104	5103
2871.964	5033
2873.824	4984
2875.683	5173
2877.542	5158
2879.4	5173
2881.257	5260
2883.114	5230
2884.97	5227
2886.827	5191
2888.683	5275
2890.537	5232
2892.392	5261
2894.246	5271
2896.1	5306
2897.954	5185
2899.807	5363
2901.66	5282
2903.51	5280
2905.362	5220
2907.214	5336
2909.065	5296
2910.915	5315
2912.765	5343
2914.613	5267
2916.463	5477
2918.311	5435
2920.158	5413
2922.006	5445
2923.853	5464
2925.698	5450
2927.546	5525
2929.392	5491
2931.236	5570
2933.081	5639
2934.924	5692
2936.77	5710
2938.613	5699
2940.455	5722
2942.298	5712
2944.139	5750
2945.982	5849
2947.823	5723
2949.662	5809
2951.503	5769
2953.342	5712
2955.182	5636
2957.021	5626
2958.858	5622
2960.697	5591
2962.534	5576
2964.37	5540
2966.207	5471
2968.044	5574
2969.879	5480
2971.714	5406
2973.548	5460
2975.383	5401
2977.218	5240
2979.051	5319
2980.883	5199
2982.715	5346
2984.547	5260
2986.379	5373
2988.21	5236
2990.04	5169
2991.87	5224
2993.7	5204
2995.53	5069
2997.359	5047
2999.187	4952
3001.015	5085
3002.842	5022
3004.669	5104
3006.497	4875
3008.323	4951
3010.148	4956
3011.974	4822
3013.797	4912
3015.623	4864
3017.447	4845
3019.27	4886
3021.094	4806
3022.915	4783
3024.737	4793
3026.56	4725
3028.38	4794
3030.201	4688
3032.022	4827
3033.84	4733
3035.662	4817
3037.481	4771
3039.298	4688
3041.117	4716
3042.933	4707
3044.752	4718
3046.568	4796
3048.385	4809
3050.2	4639
3052.016	4634
3053.83	4619
3055.646	4676
3057.46	4896
3059.272	4603
3061.086	4798
3062.898	4758
3064.711	4606
3066.524	4789
3068.335	4707
3070.145	4740
3071.956	4671
3073.766	4640
3075.576	4702
3077.385	4703
3079.193	4785
3081.002	4659
3082.81	4623
3084.618	4650
3086.425	4663
3088.231	4574
3090.036	4589
3091.842	4602
3093.648	4539
3095.452	4635
3097.257	4632
3099.06	4626
3100.863	4672
3102.666	4620
3104.47	4602
3106.272	4576
3108.073	4550
3109.875	4539
3111.676	4685
3113.477	4624
3115.277	4584
3117.077	4541
3118.874	4567
3120.673	4613
3122.473	4570
3124.271	4620
3126.066	4547
3127.863	4568
3129.66	4611
3131.456	4579
3133.252	4415
3135.047	4578
3136.842	4649
3138.635	4488
3140.429	4538
3142.223	4479
3144.016	4441
3145.808	4549
3147.6	4624
3149.392	4471
3151.183	4467
3152.975	4540
3154.765	4570
3156.553	4504
3158.344	4584
3160.132	4527
3161.922	4496
3163.71	4498
3165.497	4446
3167.285	4569
3169.071	4601
3170.858	4436
3172.645	4549
3174.429	4475
3176.214	4408
3177.998	4508
3179.783	4473
3181.568	4513
3183.351	4481
3185.133	4450
3186.915	4473
3188.698	4423
3190.481	4452
3192.261	4523
3194.042	4520
3195.822	4434
3197.601	4449
3199.381	4502
3201.161	4468
3202.939	4508
3204.717	4473
3206.495	4383
3208.272	4462
3210.05	4375
3211.826	4491
3213.602	4449
3215.376	4418
3217.151	4561
3218.927	4466
3220.702	4538
3222.476	4363
3224.249	4439
3226.021	4404
3227.793	4429
3229.567	4477
3231.339	4415
3233.109	4500
3234.88	4474
3236.651	4519
3238.421	4535
3240.191	4436
3241.96	4509
3243.728	4357
3245.497	4393
3247.263	4423
3249.033	4523
3250.799	4557
3252.566	4496
3254.331	4432
3256.097	4421
3257.863	4437
3259.628	4447
3261.392	4527
3263.156	4389
3264.919	4399
3266.683	4466
3268.447	4547
3270.208	4469
3271.969	4455
3273.731	4495
3275.492	4452
3277.253	4446
3279.013	4487
3280.773	4469
3282.532	4431
3284.291	4388
3286.05	4532
3287.808	4471
3289.566	4568
3291.323	4480
3293.079	4471
3294.835	4448
3296.593	4507
3298.348	4436
3300.102	4414
3301.857	4422
3303.611	4510
3305.366	4494
3307.119	4464
3308.872	4380
3310.624	4530
3312.376	4462
3314.129	4504
3315.881	4490
3317.631	4420
3319.38	4462
3321.13	4465
3322.88	4412
3324.631	4530
3326.379	4430
3328.126	4563
3329.875	4417
3331.622	4519
3333.371	4416
3335.116	4399
3336.863	4456
3338.609	4356
3340.353	4418
3342.1	4430
3343.845	4512
3345.588	4354
3347.332	4453
3349.074	4445
3350.817	4438
3352.56	4349
3354.303	4420
3356.043	4463
3357.785	4415
3359.525	4302
3361.268	4437
3363.007	4429
3364.745	4348
3366.485	4427
3368.223	4418
3369.962	4385
3371.701	4446
3373.438	4413
3375.174	4379
3376.911	4355
3378.647	4367
3380.384	4317
3382.118	4309
3383.854	4262
3385.588	4359
3387.322	4375
3389.057	4348
3390.79	4385
3392.522	4365
3394.255	4361
3395.987	4290
3397.719	4312
3399.451	4442
3401.181	4343
3402.911	4441
3404.641	4276
3406.371	4321
3408.101	4315
3409.83	4287
3411.558	4331
3413.285	4343
3415.011	4293
3416.739	4309
3418.467	4376
3420.193	4362
3421.919	4383
3423.644	4347
3425.368	4367
3427.094	4303
3428.818	4340
3430.542	4274
3432.264	4289
3433.987	4309
3435.712	4336
3437.434	4300
3439.155	4262
3440.876	4294
3442.596	4345
3444.317	4337
3446.039	4250
3447.757	4296
3449.477	4249
3451.195	4217
3452.914	4247
3454.632	4188
3456.35	4333
3458.067	4240
3459.784	4121
3461.5	4223
3463.216	4289
3464.932	4234
3466.647	4202
3468.362	4210
3470.076	4167
3471.789	4194
3473.505	4204
3475.217	4202
3476.929	4086
3478.641	4220
3480.354	4173
3482.066	4156
3483.777	4186
3485.487	4209
3487.197	4186
3488.908	4159
3490.617	4161
3492.327	4114
3494.035	4129
3495.743	4131
3497.451	4116
3499.158	4190
3500.866	4168
3502.572	4064
3504.278	4061
3505.984	4150
3507.689	4123
3509.396	4061
3511.1	4083
3512.804	4112
3514.508	4055
3516.211	4173
3517.913	3981
3519.616	4158
3521.319	4097
3523.021	4055
3524.722	4105
3526.422	3978
3528.124	4102
3529.824	4044
3531.524	4147
3533.222	4046
3534.921	4090
3536.62	4078
3538.318	4086
3540.016	4058
3541.714	4048
3543.41	4206
3545.107	4082
3546.803	4023
3548.5	4023
3550.194	4070
3551.889	4126
3553.583	4087
3555.279	4095
3556.972	4052
3558.666	4070
3560.358	4043
3562.051	4069
3563.742	4004
3565.435	4058
3567.126	4010
3568.817	4039
3570.507	4019
3572.197	4035
3573.888	4071
3575.577	3966
3577.265	4046
3578.954	3917
3580.642	3984
3582.329	4058
3584.017	4048
3585.704	3988
3587.391	3905
3589.077	3952
3590.762	4025
3592.449	4028
3594.133	3958
3595.817	3984
3597.501	4026
3599.185	3963
3600.869	4042
3602.552	3919
3604.234	3959
3605.916	3856
3607.598	3975
3609.279	3891
3610.961	3965
3612.642	4035
3614.321	3934
3616	3932
3617.68	3911
3619.36	3880
3621.039	3862
3622.716	3889
3624.394	3870
3626.071	3939
3627.748	3915
3629.425	3935
3631.102	3919
3632.778	3894
3634.452	3891
3636.127	3975
3637.803	3932
3639.477	3838
3641.151	3868
3642.823	3788
3644.497	3883
3646.171	3908
3647.842	3891
3649.515	3819
3651.185	3843
3652.857	3776
3654.527	3773
3656.198	3851
3657.868	3786
3659.537	3766
3661.207	3853
3662.875	3803
3664.544	3844
3666.212	3847
3667.879	3841
3669.546	3874
3671.212	3831
3672.88	3728
3674.546	3810
3676.211	3818
3677.875	3769
3679.541	3738
3681.205	3874
3682.87	3871
3684.533	3741
3686.196	3856
3687.859	3828
3689.521	3862
3691.184	3744
3692.845	3815
3694.507	3745
3696.167	3728
3697.827	3810
3699.487	3745
3701.148	3713
3702.808	3784
3704.466	3795
3706.125	3779
3707.783	3705
3709.442	3697
3711.099	3782
3712.757	3826
3714.412	3847
3716.068	3817
3717.725	3798
3719.381	3769
3721.036	3764
3722.689	3770
3724.344	3755
3725.998	3677
3727.652	3806
3729.305	3764
3730.958	3746
3732.61	3763
3734.262	3772
3735.915	3743
3737.565	3720
3739.217	3668
3740.866	3747
3742.516	3742
3744.165	3862
3745.816	3789
3747.464	3642
3749.113	3704
3750.761	3742
3752.409	3750
3754.057	3708
3755.703	3718
3757.35	3712
3758.996	3640
3760.641	3711
3762.289	3748
3763.933	3773
3765.577	3748
3767.222	3668
3768.865	3683
3770.508	3683
3772.152	3672
3773.796	3747
3775.438	3675
3777.079	3711
3778.721	3672
3780.363	3680
3782.003	3693
3783.643	3757
3785.283	3658
3786.923	3626
3788.563	3626
3790.203	3724
3791.841	3562
3793.479	3574
3795.115	3695
3796.753	3629
3798.391	3723
3800.027	3620
3801.664	3656
3803.299	3664
3804.935	3707
3806.571	3721
3808.206	3646
3809.839	3679
3811.473	3671
3813.107	3619
3814.74	3630
3816.375	3625
3818.006	3655
3819.638	3671
3821.27	3632
3822.9	3608
3824.532	3622
3826.163	3643
3827.792	3642
3829.423	3548
3831.051	3671
3832.682	3546
3834.311	3607
3835.938	3620
3837.566	3615
3839.193	3579
3840.821	3593
3842.448	3563
3844.075	3521
3845.7	3597
3847.325	3542
3848.951	3611
3850.576	3569
3852.201	3599
3853.825	3578
3855.448	3549
3857.072	3487
3858.694	3585
3860.318	3608
3861.939	3563
3863.562	3600
3865.183	3545
3866.804	3579
3868.426	3535
3870.045	3633
3871.666	3573
3873.285	3571
3874.904	3562
3876.524	3573
3878.142	3521
3879.76	3620
3881.378	3563
3882.995	3536
3884.612	3538
3886.229	3488
3887.845	3573
3889.461	3514
3891.076	3487
3892.691	3533
3894.307	3471
3895.922	3474
3897.536	3592
3899.149	3560
3900.761	3535
3902.374	3566
3903.988	3529
3905.6	3508
3907.212	3533
3908.822	3517
3910.433	3520
3912.045	3513
3913.655	3565
3915.265	3470
3916.875	3580
3918.483	3543
3920.093	3519
3921.702	3486
3923.309	3542
3924.917	3566
3926.523	3540
3928.13	3561
3929.739	3502
3931.344	3503
3932.95	3439
3934.555	3548
3936.159	3517
3937.766	3505
3939.369	3559
3940.974	3469
3942.577	3506
3944.181	3482
3945.783	3486
3947.386	3524
3948.989	3523
3950.59	3528
3952.191	3577
3953.791	3523
3955.394	3401
3956.994	3483
3958.593	3507
3960.192	3447
3961.791	3477
3963.392	3539
3964.99	3446
3966.588	3530
3968.185	3430
3969.782	3466
3971.379	3454
3972.976	3502
3974.572	3423
3976.168	3496
3977.763	3408
3979.358	3485
3980.954	3429
3982.548	3415
3984.142	3358
3985.736	3386
3987.329	3386
3988.922	3406
3990.516	3421
3992.108	3414
3993.698	3397
3995.29	3412
3996.881	3510
3998.473	3388
4000.064	3343
4001.653	3408
4003.242	3428
4004.832	3428
4006.422	3444
4008.01	3426
4009.598	3338
4011.186	3375
4012.773	3394
4014.36	3348
4015.947	3396
4017.534	3358
4019.119	3381
4020.705	3347
4022.291	3448
4023.876	3355
4025.461	3399
4027.044	3400
4028.627	3419
4030.211	3361
4031.795	3337
4033.378	3404
4034.96	3411
4036.542	3324
4038.124	3418
4039.704	3358
4041.286	3380
4042.867	3342
4044.447	3313
4046.026	3346
4047.606	3253
4049.187	3326
4050.765	3344
4052.343	3368
4053.92	3355
4055.498	3359
4057.076	3290
4058.654	3322
4060.23	3278
4061.806	3311
4063.381	3295
4064.957	3338
4066.533	3262
4068.107	3316
4069.682	3271
4071.256	3361
4072.829	3312
4074.404	3290
4075.977	3344
4077.549	3282
4079.121	3304
4080.693	3378
4082.265	3245
4083.836	3285
4085.407	3377
4086.977	3286
4088.547	3311
4090.117	3258
4091.687	3283
4093.256	3333
4094.825	3243
4096.392	3268
4097.96	3196
4099.528	3298
4101.097	3362
4102.663	3223
4104.229	3218
4105.795	3288
4107.361	3194
4108.928	3199
4110.493	3290
4112.058	3199
4113.621	3204
4115.186	3364
4116.75	3195
4118.313	3218
4119.876	3296
4121.438	3228
4123	3242
4124.562	3342
4126.125	3231
4127.686	3246
4129.246	3291
4130.807	3222
4132.367	3201
4133.927	3236
4135.486	3261
4137.046	3212
4138.604	3169
4140.162	3218
4141.72	3096
4143.279	3214
4144.836	3233
4146.393	3186
4147.949	3165
4149.505	3190
4151.062	3197
4152.617	3156
4154.172	3167
4155.727	3217
4157.281	3193
4158.836	3128
4160.39	3227
4161.943	3135
4163.496	3199
4165.048	3195
4166.601	3139
4168.154	3182
4169.706	3160
4171.257	3239
4172.808	3125
4174.358	3201
4175.909	3196
4177.458	3165
4179.008	3192
4180.558	3177
4182.106	3146
4183.655	3130
4185.204	3121
4186.751	3075
4188.298	3184
4189.845	3143
4191.392	3050
4192.939	3164
4194.485	3163
4196.031	3285
4197.576	3132
4199.121	3124
4200.666	3080
4202.211	3113
4203.754	3132
4205.298	3059
4206.84	3100
4208.384	3161
4209.927	3045
4211.47	3149
4213.011	3129
4214.552	3120
4216.094	3099
4217.635	3075
4219.175	3084
4220.716	3097
4222.255	3084
4223.793	2997
4225.335	3117
4226.873	3036
4228.411	3069
4229.948	3128
4231.486	3060
4233.024	3131
4234.562	3148
4236.098	3115
4237.634	3066
4239.169	3116
4240.705	3107
4242.241	3100
4243.776	3023
4245.31	3113
4246.844	3180
4248.378	3053
4249.911	3053
4251.445	3114
4252.978	3149
4254.51	3083
4256.042	3041
4257.574	3064
4259.107	3080
4260.638	3075
4262.169	3089
4263.699	3035
4265.228	3097
4266.759	3097
4268.289	3083
4269.818	3138
4271.345	3021
4272.874	3023
4274.402	3062
4275.931	3086
4277.458	3045
4278.985	3129
4280.512	3052
4282.037	3087
4283.564	3055
4285.089	3047
4286.615	3078
4288.139	3055
4289.664	3064
4291.187	3007
4292.712	3089
4294.235	3091
4295.759	2971
4297.281	3043
4298.804	3071
4300.327	3064
4301.849	3084
4303.37	3034
4304.891	2974
4306.412	3062
4307.933	3011
4309.453	2987
4310.973	3017
4312.492	3015
