398.1873	6225
400.7097	6277
403.2336	6216
405.7547	6390
408.2751	6255
410.7948	6402
413.3138	6442
415.83	6431
418.3497	6521
420.8666	6480
423.3829	6535
425.8985	6493
428.4133	6560
430.9275	6662
433.441	6579
435.9538	6642
438.4639	6688
440.9753	6690
443.4881	6700
445.9982	6570
448.5055	6671
451.0142	6657
453.5201	6745
456.0274	6727
458.5361	6646
461.04	6648
463.5453	6729
466.0478	6602
468.5517	6758
471.0549	6600
473.5574	6863
476.0572	6745
478.5584	6816
481.0568	6864
483.5545	6739
486.0557	6855
488.5521	6802
491.0478	6984
493.5449	6969
496.0392	6852
498.5349	6948
501.0299	6945
503.5222	6980
506.0139	7051
508.5048	7085
510.9991	6934
513.4887	6990
515.9777	7066
518.4659	7042
520.9534	6946
523.4403	7076
525.9306	7088
528.4161	7010
530.9009	6893
533.3851	6978
535.8687	6904
538.3535	7085
540.8356	7093
543.3171	7050
545.7979	7027
548.278	7069
550.7595	6936
553.2383	6985
555.7144	7136
558.1918	7049
560.6685	7130
563.1446	7038
565.6221	7137
568.0968	7173
570.5688	7219
573.0422	7219
575.515	7162
577.989	7294
580.4584	7343
582.9291	7222
585.3991	7390
587.8685	7328
590.3352	7243
592.8052	7370
595.2706	7261
597.7372	7230
600.2033	7239
602.6666	7306
605.1334	7272
607.5953	7199
610.0587	7296
612.5193	7295
614.9814	7309
617.4427	7253
619.9034	7172
622.3615	7316
624.8208	7324
627.2775	7199
629.7335	7252
632.1929	7224
634.6476	7274
637.1016	7399
639.5569	7282
642.0096	7373
644.4637	7334
646.9151	7418
649.3678	7387
651.8179	7431
654.2672	7361
656.7159	7309
659.166	7425
661.6154	7461
664.0622	7423
666.5082	7445
668.9537	7423
671.4005	7523
673.8445	7445
676.288	7491
678.7308	7527
681.1729	7593
683.6163	7516
686.0572	7527
688.4973	7545
690.9368	7469
693.3757	7548
695.8138	7585
698.2534	7583
700.6902	7628
703.1245	7616
705.56	7578
707.9949	7497
710.4311	7828
712.8647	7774
715.2957	7542
717.7279	7691
720.1595	7698
722.5905	7692
725.0208	7851
727.4505	7855
729.8795	7799
732.3058	7884
734.7336	7832
737.1626	7706
739.587	7897
742.0128	8027
744.4359	7890
746.8604	7804
749.2841	7970
751.7073	8074
754.1278	7967
756.5496	8034
758.9688	8124
761.3893	8103
763.8093	8088
766.2285	8123
768.6451	8041
771.0611	8034
773.4784	8078
775.895	8097
778.3091	8035
780.7244	8090
783.1371	7991
785.5493	8031
787.9626	8030
790.3754	8085
792.7856	8024
795.1951	8147
797.6039	8055
800.0121	8092
802.4236	8190
804.8306	8154
807.2369	8133
809.6425	8149
812.0475	8047
814.4538	8127
816.8575	8113
819.2606	8306
821.663	8132
824.0648	8228
826.4659	8216
828.8683	8200
831.2682	8304
833.6674	8197
836.066	8258
838.4639	8369
840.8632	8308
843.2579	8225
845.6539	8273
848.0493	8453
850.444	8255
852.84	8383
855.2315	8422
857.6243	8449
860.0165	8352
862.4081	8220
864.797	8309
867.1892	8319
869.5789	8225
871.9659	8274
874.3542	8237
876.74	8323
879.129	8280
881.5155	8331
883.8994	8356
886.2845	8302
888.6671	8363
891.051	8241
893.4343	8227
895.8169	8267
898.197	8377
900.5783	8265
902.9571	8403
905.3372	8327
907.7167	8511
910.0936	8309
912.4698	8405
914.8474	8557
917.2244	8506
919.5987	8634
921.9744	8487
924.3475	8563
926.72	8659
929.0918	8555
931.4669	8713
933.8375	8623
936.2074	8700
938.5767	8641
940.9454	8894
943.3154	8859
945.6829	9019
948.0497	9026
950.4178	9230
952.7833	9486
955.1483	9734
957.5145	9852
959.8782	10030
962.2412	10138
964.6036	9914
966.9655	9729
969.3266	9296
971.6871	9125
974.0471	8973
976.4064	8789
978.765	8749
981.125	8652
983.4824	8603
985.8373	8673
988.1935	8582
990.549	8615
992.9039	8596
995.2602	8616
997.6119	8480
999.965	8812
1002.317	8579
1004.667	8597
1007.02	8699
1009.371	8550
1011.719	8685
1014.068	8793
1016.415	8605
1018.765	8703
1021.111	8693
1023.458	8620
1025.804	8672
1028.147	8659
1030.49	8742
1032.837	8840
1035.179	8712
1037.522	8863
1039.862	8751
1042.204	8719
1044.546	8862
1046.884	8773
1049.224	8845
1051.562	8824
1053.899	8808
1056.237	8769
1058.575	8692
1060.91	8828
1063.244	8894
1065.58	8912
1067.913	8887
1070.248	8886
1072.579	8986
1074.911	8968
1077.242	8860
1079.572	8744
1081.905	8689
1084.234	8846
1086.562	8828
1088.89	8790
1091.217	8708
1093.544	8819
1095.871	8806
1098.197	8734
1100.521	8988
1102.845	8977
1105.169	8729
1107.491	8829
1109.814	8883
1112.135	8811
1114.456	8809
1116.776	8761
1119.096	8869
1121.415	8798
1123.734	8782
1126.052	9099
1128.369	8871
1130.686	8806
1133.002	8928
1135.318	8897
1137.632	8824
1139.945	8951
1142.258	8772
1144.573	8848
1146.884	8828
1149.196	8844
1151.505	8939
1153.816	8903
1156.124	9011
1158.435	8997
1160.742	8984
1163.051	8844
1165.356	8972
1167.663	8879
1169.97	8934
1172.276	8796
1174.579	8977
1176.881	8917
1179.186	8958
1181.487	8850
1183.79	8886
1186.092	8913
1188.392	8709
1190.691	8932
1192.991	8867
1195.291	8904
1197.588	8936
1199.885	8870
1202.181	8851
1204.479	8944
1206.775	8941
1209.07	8878
1211.363	8797
1213.656	8977
1215.949	8977
1218.241	9149
1220.534	8957
1222.825	8947
1225.115	9001
1227.405	8885
1229.693	9144
1231.984	9027
1234.271	9119
1236.558	9114
1238.845	9142
1241.131	9155
1243.416	9069
1245.703	9071
1247.987	9149
1250.269	9231
1252.552	9255
1254.834	9241
1257.118	9235
1259.399	9343
1261.678	9215
1263.958	9157
1266.237	9304
1268.516	9242
1270.794	9234
1273.072	9166
1275.347	9187
1277.624	9133
1279.899	9181
1282.175	9199
1284.449	9212
1286.722	9167
1288.995	9122
1291.266	9148
1293.54	9072
1295.81	9043
1298.081	9088
1300.35	9110
1302.62	9080
1304.889	9218
1307.156	9114
1309.425	9024
1311.69	9105
1313.957	9053
1316.222	9059
1318.488	9155
1320.751	9034
1323.016	9152
1325.278	9165
1327.54	9096
1329.803	9076
1332.065	9169
1334.325	9000
1336.584	9212
1338.843	9102
1341.101	9046
1343.36	9226
1345.617	9175
1347.876	9127
1350.131	9255
1352.387	9075
1354.643	9211
1356.897	9211
1359.151	9184
1361.403	9092
1363.656	9220
1365.909	9300
1368.16	9217
1370.409	9202
1372.659	9176
1374.909	9108
1377.157	9178
1379.407	9151
1381.655	9176
1383.9	9232
1386.147	9099
1388.393	9203
1390.64	9327
1392.885	9265
1395.127	9381
1397.37	9253
1399.614	9206
1401.854	9301
1404.098	9239
1406.339	9237
1408.578	9150
1410.818	9246
1413.056	9376
1415.297	9338
1417.533	9399
1419.771	9286
1422.006	9399
1424.243	9429
1426.479	9430
1428.715	9280
1430.948	9532
1433.182	9509
1435.414	9520
1437.647	9424
1439.88	9418
1442.11	9522
1444.342	9499
1446.571	9480
1448.799	9487
1451.029	9495
1453.258	9543
1455.485	9509
1457.711	9498
1459.937	9261
1462.164	9333
1464.39	9588
1466.614	9480
1468.838	9507
1471.06	9353
1473.283	9269
1475.506	9320
1477.727	9322
1479.949	9425
1482.169	9357
1484.389	9337
1486.609	9272
1488.828	9332
1491.045	9221
1493.261	9193
1495.477	9187
1497.693	9233
1499.91	9204
1502.125	9149
1504.339	9213
1506.553	9310
1508.766	9110
1510.979	9084
1513.191	9241
1515.402	9208
1517.613	9246
1519.823	9311
1522.033	9287
1524.242	9295
1526.451	9086
1528.657	9350
1530.865	9179
1533.072	9281
1535.278	9270
1537.484	9209
1539.687	9194
1541.892	9224
1544.096	9307
1546.299	9361
1548.502	9390
1550.703	9395
1552.905	9280
1555.104	9301
1557.303	9299
1559.505	9377
1561.703	9321
1563.902	9272
1566.099	9377
1568.295	9377
1570.494	9350
1572.689	9452
1574.883	9384
1577.079	9480
1579.272	9350
1581.467	9456
1583.659	9477
1585.853	9551
1588.044	9548
1590.234	9488
1592.424	9549
1594.615	9581
1596.806	9455
1598.994	9506
1601.182	9522
1603.369	9608
1605.557	9653
1607.744	9601
1609.929	9592
1612.114	9663
1614.298	9568
1616.482	9606
1618.667	9388
1620.85	9648
1623.032	9559
1625.214	9621
1627.395	9701
1629.575	9667
1631.755	9517
1633.935	9748
1636.114	9556
1638.292	9640
1640.471	9728
1642.647	9779
1644.823	9644
1647	9657
1649.175	9678
1651.348	9719
1653.525	9605
1655.698	9606
1657.87	9699
1660.043	9606
1662.213	9647
1664.387	9560
1666.558	9729
1668.727	9639
1670.896	9716
1673.064	9751
1675.233	9702
1677.401	9761
1679.569	9533
1681.735	9701
1683.902	9752
1686.066	9731
1688.233	9744
1690.397	9677
1692.559	9633
1694.723	9697
1696.885	9694
1699.048	9673
1701.21	9629
1703.37	9425
1705.53	9703
1707.689	9612
1709.849	9725
1712.009	9469
1714.166	9588
1716.323	9634
1718.479	9514
1720.634	9467
1722.793	9620
1724.948	9433
1727.102	9534
1729.255	9667
1731.408	9541
1733.562	9610
1735.714	9652
1737.865	9507
1740.016	9561
1742.166	9492
1744.316	9473
1746.467	9575
1748.616	9638
1750.764	9491
1752.911	9698
1755.056	9626
1757.205	9580
1759.35	9685
1761.496	9603
1763.641	9713
1765.785	9619
1767.927	9663
1770.072	9597
1772.214	9777
1774.355	9758
1776.496	9682
1778.637	9887
1780.778	9594
1782.918	9660
1785.057	9715
1787.194	9823
1789.333	9751
1791.472	9750
1793.608	9780
1795.745	9763
1797.879	9695
1800.015	9768
1802.148	9671
1804.284	9671
1806.417	9768
1808.548	9552
1810.682	9775
1812.812	9855
1814.946	9660
1817.075	9662
1819.205	9751
1821.335	9636
1823.463	9677
1825.59	9641
1827.721	9535
1829.847	9668
1831.973	9595
1834.098	9692
1836.223	9612
1838.351	9527
1840.475	9575
1842.598	9657
1844.721	9638
1846.843	9578
1848.966	9544
1851.087	9481
1853.21	9534
1855.33	9720
1857.449	9579
1859.568	9632
1861.688	9764
1863.806	9500
1865.924	9635
1868.039	9635
1870.155	9654
1872.273	9652
1874.388	9619
1876.503	9654
1878.617	9451
1880.73	9709
1882.844	9508
1884.956	9692
1887.068	9535
1889.18	9740
1891.291	9657
1893.4	9637
1895.511	9631
1897.621	9662
1899.73	9570
1901.837	9728
1903.944	9739
1906.053	9711
1908.159	9715
1910.265	9687
1912.369	9780
1914.474	9856
1916.577	9809
1918.683	9711
1920.785	9714
1922.888	9781
1924.989	9786
1927.091	9650
1929.193	9786
1931.294	9826
1933.393	9771
1935.493	9738
1937.59	9721
1939.689	9785
1941.788	9683
1943.884	9725
1945.98	9736
1948.077	9864
1950.171	9780
1952.267	9729
1954.361	9788
1956.455	9780
1958.548	9804
1960.64	9816
1962.733	9690
1964.824	9755
1966.915	9811
1969.005	9826
1971.096	9604
1973.185	10071
1975.275	9717
1977.363	9737
1979.45	9777
1981.537	9772
1983.623	9655
1985.711	9673
1987.796	9746
1989.881	9614
1991.965	9714
1994.047	9867
1996.132	9805
1998.215	9535
2000.297	9630
2002.378	9706
2004.46	9584
2006.54	9639
2008.62	9852
2010.7	9626
2012.779	9671
2014.858	9640
2016.934	9757
2019.013	9698
2021.09	9646
2023.165	9623
2025.241	9637
2027.317	9739
2029.39	9774
2031.466	9594
2033.538	9603
2035.612	9602
2037.683	9767
2039.755	9633
2041.827	9857
2043.898	9659
2045.968	9685
2048.038	9677
2050.106	9820
2052.177	9773
2054.244	9732
2056.313	9858
2058.379	9686
2060.444	9480
2062.511	9653
2064.577	9749
2066.641	9799
2068.705	9714
2070.77	9730
2072.832	9636
2074.896	9791
2076.958	9836
2079.02	9789
2081.081	9785
2083.141	9814
2085.2	9712
2087.261	9730
2089.319	9691
2091.377	9617
2093.435	9725
2095.492	9806
2097.552	9671
2099.607	9720
2101.663	9783
2103.718	9770
2105.771	9578
2107.826	9826
2109.879	9664
2111.932	9621
2113.985	9745
2116.037	9726
2118.088	9720
2120.141	9754
2122.191	9881
2124.239	9795
2126.288	9654
2128.337	9803
2130.387	9823
2132.434	9873
2134.481	9621
2136.528	9839
2138.574	9715
2140.618	9838
2142.665	9698
2144.71	9796
2146.753	9771
2148.797	9594
2150.838	9666
2152.883	9704
2154.923	9650
2156.965	9789
2159.007	9608
2161.046	9657
2163.086	9642
2165.126	9647
2167.163	9527
2169.202	9549
2171.239	9679
2173.277	9725
2175.314	9733
2177.349	9614
2179.385	9612
2181.42	9553
2183.453	9703
2185.49	9575
2187.522	9640
2189.555	9578
2191.586	9638
2193.619	9631
2195.651	9486
2197.682	9700
2199.711	9395
2201.74	9553
2203.769	9642
2205.799	9591
2207.828	9529
2209.855	9533
2211.882	9441
2213.908	9467
2215.934	9569
2217.961	9512
2219.986	9596
2222.01	9493
2224.034	9582
2226.057	9458
2228.08	9437
2230.104	9502
2232.124	9574
2234.145	9418
2236.166	9376
2238.186	9384
2240.207	9487
2242.227	9526
2244.244	9572
2246.262	9394
2248.28	9489
2250.299	9489
2252.314	9391
2254.33	9570
2256.346	9539
2258.36	9487
2260.375	9347
2262.391	9495
2264.403	9313
2266.416	9468
2268.427	9451
2270.44	9585
2272.453	9695
2274.463	9472
2276.474	9441
2278.483	9590
2280.493	9377
2282.501	9457
2284.51	9379
2286.518	9601
2288.524	9600
2290.532	9474
2292.537	9532
2294.544	9454
2296.55	9477
2298.554	9419
2300.557	9485
2302.562	9560
2304.566	9549
2306.568	9334
2308.569	9347
2310.572	9523
2312.573	9522
2314.573	9495
2316.574	9456
2318.573	9388
2320.571	9532
2322.571	9447
2324.569	9413
2326.567	9489
2328.564	9354
2330.56	9238
2332.556	9464
2334.551	9359
2336.546	9310
2338.542	9423
2340.535	9364
2342.529	9333
2344.521	9366
2346.512	9379
2348.505	9351
2350.497	9230
2352.487	9345
2354.478	9301
2356.468	9165
2358.457	9266
2360.446	9120
2362.434	9284
2364.422	9197
2366.408	9289
2368.395	9261
2370.383	9351
2372.369	9334
2374.353	9304
2376.338	9275
2378.321	9339
2380.307	9438
2382.29	9133
2384.272	9275
2386.254	9185
2388.235	9207
2390.218	9330
2392.198	9321
2394.179	9268
2396.157	9181
2398.137	9268
2400.115	9205
2402.095	9131
2404.072	9239
2406.048	9298
2408.026	9184
2410.001	9161
2411.977	9276
2413.953	9158
2415.927	9088
2417.9	9184
2419.875	9181
2421.847	9113
2423.821	9131
2425.792	8987
2427.763	9302
2429.736	9242
2431.706	9178
2433.677	9008
2435.646	9163
2437.615	9258
2439.583	9175
2441.551	9265
2443.519	9337
2445.486	9071
2447.452	9187
2449.418	9173
2451.383	9108
2453.348	9122
2455.314	9189
2457.278	9131
2459.241	9010
2461.205	9082
2463.167	9113
2465.131	9206
2467.091	9154
2469.052	8983
2471.012	9098
2472.972	9187
2474.932	9142
2476.891	9113
2478.85	9077
2480.808	9038
2482.766	9058
2484.722	8995
2486.68	8997
2488.636	9176
2490.591	9019
2492.546	9078
2494.5	9007
2496.456	9064
2498.41	9084
2500.362	9080
2502.315	9002
2504.266	8983
2506.218	8999
2508.169	8986
2510.121	9001
2512.07	9129
2514.019	8968
2515.968	8985
2517.918	9038
2519.866	9019
2521.813	8976
2523.76	8923
2525.707	9007
2527.653	9109
2529.599	8876
2531.543	8875
2533.489	9012
2535.433	8940
2537.376	8940
2539.32	9045
2541.264	8919
2543.205	9034
2545.147	9138
2547.087	8988
2549.029	8822
2550.969	9024
2552.908	9012
2554.847	8950
2556.786	8957
2558.724	8961
2560.663	9010
2562.6	9075
2564.537	9001
2566.473	9038
2568.408	9029
2570.345	8989
2572.28	9064
2574.214	9074
2576.148	8893
2578.081	9020
2580.014	9014
2581.947	8955
2583.879	9014
2585.81	8929
2587.741	8947
2589.67	8886
2591.602	8946
2593.532	9031
2595.461	9066
2597.388	9166
2599.316	8972
2601.244	9103
2603.172	8993
2605.098	9011
2607.023	8968
2608.949	8967
2610.873	8882
2612.8	9012
2614.723	9052
2616.647	8879
2618.569	9007
2620.493	9003
2622.416	9025
2624.338	8914
2626.258	8992
2628.179	8990
2630.099	9063
2632.019	8954
2633.939	9034
2635.857	8950
2637.775	9005
2639.694	9037
2641.61	9130
2643.528	9172
2645.444	9020
2647.361	8991
2649.276	9095
2651.19	9049
2653.105	8998
2655.019	9088
2656.934	9174
2658.846	9014
2660.758	9014
2662.67	9002
2664.583	8897
2666.493	9042
2668.404	8869
2670.313	8997
2672.223	9029
2674.134	8939
2676.042	9020
2677.95	8987
2679.858	8899
2681.765	8830
2683.673	8964
2685.579	8966
2687.483	8927
2689.389	8907
2691.294	8899
2693.198	8969
2695.104	8914
2697.006	8982
2698.909	8920
2700.811	8933
2702.713	8949
2704.615	8888
2706.516	8869
2708.417	8904
2710.316	8797
2712.216	8865
2714.115	8860
2716.014	8802
2717.913	8910
2719.81	8874
2721.707	8888
2723.603	8868
2725.501	8654
2727.396	8780
2729.292	8792
2731.186	8840
2733.081	8694
2734.976	8913
2736.87	8858
2738.762	8814
2740.653	8828
2742.546	8874
2744.437	8743
2746.329	8816
2748.22	8723
2750.11	8872
2751.999	8742
2753.889	8797
2755.778	8848
2757.666	8800
2759.553	8758
2761.44	8743
2763.328	8817
2765.215	8805
2767.101	8683
2768.986	8707
2770.87	8851
2772.754	8745
2774.638	8645
2776.523	8762
2778.405	8783
2780.288	8746
2782.17	8757
2784.051	8729
2785.934	8821
2787.814	8817
2789.694	8690
2791.574	8691
2793.453	8782
2795.332	8733
2797.212	8724
2799.088	8669
2800.966	8805
2802.843	8665
2804.719	8607
2806.597	8768
2808.471	8663
2810.346	8765
2812.221	8660
2814.094	8604
2815.969	8676
2817.843	8594
2819.714	8662
2821.587	8624
2823.459	8629
2825.329	8611
2827.202	8704
2829.072	8644
2830.942	8654
2832.811	8640
2834.68	8656
2836.549	8775
2838.418	8667
2840.284	8761
2842.152	8627
2844.018	8660
2845.885	8644
2847.751	8650
2849.616	8707
2851.482	8682
2853.345	8642
2855.208	8619
2857.074	8725
2858.937	8757
2860.799	8681
2862.66	8726
2864.522	8688
2866.385	8762
2868.245	8838
2870.104	9015
2871.964	8801
2873.824	8899
2875.683	9085
2877.542	9030
2879.4	8981
2881.257	9022
2883.114	9176
2884.97	9071
2886.827	9098
2888.683	9061
2890.537	9038
2892.392	8967
2894.246	9027
2896.1	9044
2897.954	9062
2899.807	8936
2901.66	8962
2903.51	9018
2905.362	8973
2907.214	9126
2909.065	9128
2910.915	8964
2912.765	9109
2914.613	9075
2916.463	9066
2918.311	9285
2920.158	9253
2922.006	9099
2923.853	9386
2925.698	9359
2927.546	9406
2929.392	9528
2931.236	9541
2933.081	9442
2934.924	9658
2936.77	9681
2938.613	9605
2940.455	9756
2942.298	9789
2944.139	9757
2945.982	9755
2947.823	9687
2949.662	9793
2951.503	9550
2953.342	9452
2955.182	9454
2957.021	9473
2958.858	9441
2960.697	9455
2962.534	9282
2964.37	9250
2966.207	9108
2968.044	9123
2969.879	9254
2971.714	9144
2973.548	8987
2975.383	9129
2977.218	8984
2979.051	9044
2980.883	9058
2982.715	9021
2984.547	8949
2986.379	9022
2988.21	9031
2990.04	8764
2991.87	8812
2993.7	8727
2995.53	8601
2997.359	8779
2999.187	8660
3001.015	8678
3002.842	8697
3004.669	8603
3006.497	8550
3008.323	8586
3010.148	8531
3011.974	8418
3013.797	8424
3015.623	8472
3017.447	8518
3019.27	8323
3021.094	8381
3022.915	8457
3024.737	8393
3026.56	8369
3028.38	8242
3030.201	8301
3032.022	8290
3033.84	8269
3035.662	8222
3037.481	8251
3039.298	8252
3041.117	8267
3042.933	8391
3044.752	8226
3046.568	8190
3048.385	8227
3050.2	8255
3052.016	8126
3053.83	8250
3055.646	8244
3057.46	8172
3059.272	8194
3061.086	8143
3062.898	8193
3064.711	8242
3066.524	8143
3068.335	8226
3070.145	8182
3071.956	8188
3073.766	8132
3075.576	8134
3077.385	8076
3079.193	8086
3081.002	8036
3082.81	8007
3084.618	7923
3086.425	8035
3088.231	8108
3090.036	7947
3091.842	8043
3093.648	7959
3095.452	8115
3097.257	8051
3099.06	7971
3100.863	7869
3102.666	8046
3104.47	7892
3106.272	8001
3108.073	7877
3109.875	7900
3111.676	8012
3113.477	7994
3115.277	8068
3117.077	7883
3118.874	7778
3120.673	7880
3122.473	7824
3124.271	7835
3126.066	7892
3127.863	7889
3129.66	7930
3131.456	7906
3133.252	7762
3135.047	7995
3136.842	7816
3138.635	7676
3140.429	7779
3142.223	7809
3144.016	7975
3145.808	7728
3147.6	7893
3149.392	7718
3151.183	7816
3152.975	7752
3154.765	7850
3156.553	7658
3158.344	7855
3160.132	7672
3161.922	7673
3163.71	7766
3165.497	7836
3167.285	7753
3169.071	7768
3170.858	7816
3172.645	7640
3174.429	7806
3176.214	7617
3177.998	7593
3179.783	7704
3181.568	7692
3183.351	7672
3185.133	7574
3186.915	7773
3188.698	7640
3190.481	7680
3192.261	7536
3194.042	7611
3195.822	7647
3197.601	7750
3199.381	7657
3201.161	7633
3202.939	7688
3204.717	7586
3206.495	7643
3208.272	7581
3210.05	7535
3211.826	7622
3213.602	7598
3215.376	7654
3217.151	7661
3218.927	7557
3220.702	7555
3222.476	7621
3224.249	7641
3226.021	7605
3227.793	7536
3229.567	7688
3231.339	7594
3233.109	7600
3234.88	7532
3236.651	7545
3238.421	7565
3240.191	7635
3241.96	7569
3243.728	7578
3245.497	7500
3247.263	7572
3249.033	7528
3250.799	7577
3252.566	7559
3254.331	7590
3256.097	7542
3257.863	7601
3259.628	7472
3261.392	7614
3263.156	7630
3264.919	7529
3266.683	7437
3268.447	7580
3270.208	7507
3271.969	7655
3273.731	7525
3275.492	7582
3277.253	7613
3279.013	7435
3280.773	7591
3282.532	7545
3284.291	7553
3286.05	7574
3287.808	7499
3289.566	7613
3291.323	7398
3293.079	7561
3294.835	7596
3296.593	7513
3298.348	7535
3300.102	7606
3301.857	7598
3303.611	7489
3305.366	7631
3307.119	7468
3308.872	7496
3310.624	7461
3312.376	7453
3314.129	7387
3315.881	7527
3317.631	7500
3319.38	7528
3321.13	7559
3322.88	7471
3324.631	7456
3326.379	7443
3328.126	7610
3329.875	7485
3331.622	7571
3333.371	7511
3335.116	7469
3336.863	7495
3338.609	7442
3340.353	7416
3342.1	7490
3343.845	7469
3345.588	7513
3347.332	7448
3349.074	7430
3350.817	7378
3352.56	7441
3354.303	7294
3356.043	7454
3357.785	7364
3359.525	7323
3361.268	7363
3363.007	7381
3364.745	7393
3366.485	7273
3368.223	7434
3369.962	7290
3371.701	7329
3373.438	7240
3375.174	7284
3376.911	7365
3378.647	7352
3380.384	7283
3382.118	7323
3383.854	7406
3385.588	7229
3387.322	7377
3389.057	7396
3390.79	7324
3392.522	7181
3394.255	7187
3395.987	7287
3397.719	7271
3399.451	7243
3401.181	7329
3402.911	7202
3404.641	7078
3406.371	7211
3408.101	7292
3409.83	7286
3411.558	7188
3413.285	7316
3415.011	7359
3416.739	7234
3418.467	7169
3420.193	7137
3421.919	7214
3423.644	7163
3425.368	7225
3427.094	7149
3428.818	7094
3430.542	7223
3432.264	7157
3433.987	7119
3435.712	7179
3437.434	7198
3439.155	7321
3440.876	7121
3442.596	7109
3444.317	7156
3446.039	7053
3447.757	7178
3449.477	7092
3451.195	6900
3452.914	7013
3454.632	7102
3456.35	7056
3458.067	6945
3459.784	7010
3461.5	6962
3463.216	6913
3464.932	6975
3466.647	6895
3468.362	7020
3470.076	6984
3471.789	6806
3473.505	7052
3475.217	7012
3476.929	6941
3478.641	6970
3480.354	6948
3482.066	6901
3483.777	7010
3485.487	6845
3487.197	6932
3488.908	6925
3490.617	6901
3492.327	6979
3494.035	6923
3495.743	6890
3497.451	6893
3499.158	6792
3500.866	6809
3502.572	6886
3504.278	6940
3505.984	6859
3507.689	6765
3509.396	6884
3511.1	6693
3512.804	6712
3514.508	6777
3516.211	6822
3517.913	6823
3519.616	6702
3521.319	6787
3523.021	6860
3524.722	6811
3526.422	6693
3528.124	6732
3529.824	6817
3531.524	6737
3533.222	6739
3534.921	6702
3536.62	6629
3538.318	6693
3540.016	6664
3541.714	6653
3543.41	6754
3545.107	6628
3546.803	6691
3548.5	6714
3550.194	6611
3551.889	6733
3553.583	6604
3555.279	6608
3556.972	6799
3558.666	6661
3560.358	6718
3562.051	6660
3563.742	6631
3565.435	6574
3567.126	6750
3568.817	6658
3570.507	6615
3572.197	6560
3573.888	6640
3575.577	6598
3577.265	6593
3578.954	6646
3580.642	6601
3582.329	6531
3584.017	6558
3585.704	6620
3587.391	6562
3589.077	6559
3590.762	6461
3592.449	6558
3594.133	6564
3595.817	6409
3597.501	6459
3599.185	6510
3600.869	6436
3602.552	6421
3604.234	6379
3605.916	6528
3607.598	6457
3609.279	6397
3610.961	6419
3612.642	6485
3614.321	6483
3616	6356
3617.68	6468
3619.36	6384
3621.039	6371
3622.716	6474
3624.394	6420
3626.071	6413
3627.748	6387
3629.425	6337
3631.102	6284
3632.778	6443
3634.452	6264
3636.127	6284
3637.803	6346
3639.477	6309
3641.151	6242
3642.823	6193
3644.497	6295
3646.171	6318
3647.842	6313
3649.515	6290
3651.185	6282
3652.857	6147
3654.527	6280
3656.198	6231
3657.868	6254
3659.537	6184
3661.207	6372
3662.875	6341
3664.544	6339
3666.212	6169
3667.879	6216
3669.546	6202
3671.212	6186
3672.88	6261
3674.546	6231
3676.211	6168
3677.875	6156
3679.541	6281
3681.205	6193
3682.87	6126
3684.533	6164
3686.196	6190
3687.859	6117
3689.521	6241
3691.184	6234
3692.845	6184
3694.507	6064
3696.167	6100
3697.827	6185
3699.487	6086
3701.148	6210
3702.808	6110
3704.466	6218
3706.125	6095
3707.783	6176
3709.442	6132
3711.099	6095
3712.757	6113
3714.412	6090
3716.068	6092
3717.725	6108
3719.381	6064
3721.036	6043
3722.689	6093
3724.344	6076
3725.998	6031
3727.652	6145
3729.305	6055
3730.958	6076
3732.61	5975
3734.262	6050
3735.915	6082
3737.565	6193
3739.217	5961
3740.866	6005
3742.516	6101
3744.165	6034
3745.816	5997
3747.464	5954
3749.113	6016
3750.761	6001
3752.409	6062
3754.057	5975
3755.703	5969
3757.35	5882
3758.996	5879
3760.641	6026
3762.289	5962
3763.933	5990
3765.577	5887
3767.222	5931
3768.865	5970
3770.508	5897
3772.152	5913
3773.796	5884
3775.438	5920
3777.079	5868
3778.721	5840
3780.363	5867
3782.003	5781
3783.643	5919
3785.283	5957
3786.923	5894
3788.563	5878
3790.203	5882
3791.841	5802
3793.479	5830
3795.115	5825
3796.753	5834
3798.391	5830
3800.027	5772
3801.664	5825
3803.299	5826
3804.935	5802
3806.571	5797
3808.206	5776
3809.839	5754
3811.473	5804
3813.107	5919
3814.74	5844
3816.375	5674
3818.006	5788
3819.638	5732
3821.27	5791
3822.9	5754
3824.532	5727
3826.163	5765
3827.792	5814
3829.423	5649
3831.051	5685
3832.682	5734
3834.311	5722
3835.938	5590
3837.566	5620
3839.193	5667
3840.821	5609
3842.448	5670
3844.075	5610
3845.7	5798
3847.325	5612
3848.951	5543
3850.576	5661
3852.201	5539
3853.825	5649
3855.448	5651
3857.072	5651
3858.694	5647
3860.318	5474
3861.939	5654
3863.562	5647
3865.183	5630
3866.804	5675
3868.426	5568
3870.045	5648
3871.666	5628
3873.285	5614
3874.904	5603
3876.524	5556
3878.142	5617
3879.76	5523
3881.378	5554
3882.995	5592
3884.612	5568
3886.229	5573
3887.845	5567
3889.461	5588
3891.076	5572
3892.691	5550
3894.307	5559
3895.922	5495
3897.536	5417
3899.149	5551
3900.761	5623
3902.374	5619
3903.988	5594
3905.6	5564
3907.212	5611
3908.822	5478
3910.433	5505
3912.045	5462
3913.655	5513
3915.265	5468
3916.875	5472
3918.483	5532
3920.093	5419
3921.702	5538
3923.309	5483
3924.917	5529
3926.523	5539
3928.13	5359
3929.739	5467
3931.344	5433
3932.95	5346
3934.555	5471
3936.159	5460
3937.766	5544
3939.369	5396
3940.974	5454
3942.577	5458
3944.181	5475
3945.783	5356
3947.386	5477
3948.989	5415
3950.59	5436
3952.191	5462
3953.791	5438
3955.394	5407
3956.994	5289
3958.593	5340
3960.192	5412
3961.791	5358
3963.392	5484
3964.99	5316
3966.588	5371
3968.185	5395
3969.782	5349
3971.379	5406
3972.976	5386
3974.572	5342
3976.168	5284
3977.763	5282
3979.358	5359
3980.954	5266
3982.548	5254
3984.142	5270
3985.736	5221
3987.329	5233
3988.922	5274
3990.516	5275
3992.108	5242
3993.698	5333
3995.29	5204
3996.881	5228
3998.473	5190
4000.064	5181
4001.653	5267
4003.242	5155
4004.832	5180
4006.422	5234
4008.01	5245
4009.598	5171
4011.186	5181
4012.773	5166
4014.36	5198
4015.947	5097
4017.534	5113
4019.119	5208
4020.705	5156
4022.291	5078
4023.876	5084
4025.461	5146
4027.044	5056
4028.627	5054
4030.211	5116
4031.795	5053
4033.378	5049
4034.96	5052
4036.542	5046
4038.124	5087
4039.704	5022
4041.286	5058
4042.867	5041
4044.447	5018
4046.026	5041
4047.606	5092
4049.187	5029
4050.765	4972
4052.343	5028
4053.92	5092
4055.498	5062
4057.076	4927
4058.654	4949
4060.23	5011
4061.806	5047
4063.381	4984
4064.957	4918
4066.533	5016
4068.107	4932
4069.682	4938
4071.256	5070
4072.829	5003
4074.404	4883
4075.977	4911
4077.549	4847
4079.121	4931
4080.693	4954
4082.265	5017
4083.836	4890
4085.407	4929
4086.977	5021
4088.547	5032
4090.117	4948
4091.687	4847
4093.256	4856
4094.825	4928
4096.392	4937
4097.96	4856
4099.528	4931
4101.097	4956
4102.663	4870
4104.229	4940
4105.795	4956
4107.361	4895
4108.928	4781
4110.493	4818
4112.058	4854
4113.621	4752
4115.186	4841
4116.75	4810
4118.313	4778
4119.876	4736
4121.438	4924
4123	4832
4124.562	4774
4126.125	4792
4127.686	4927
4129.246	4818
4130.807	4847
4132.367	4726
4133.927	4717
4135.486	4844
4137.046	4695
4138.604	4868
4140.162	4726
4141.72	4813
4143.279	4710
4144.836	4780
4146.393	4674
4147.949	4771
4149.505	4688
4151.062	4748
4152.617	4775
4154.172	4725
4155.727	4752
4157.281	4697
4158.836	4773
4160.39	4674
4161.943	4688
4163.496	4652
4165.048	4733
4166.601	4720
4168.154	4668
4169.706	4674
4171.257	4560
4172.808	4623
4174.358	4629
4175.909	4676
4177.458	4551
4179.008	4545
4180.558	4634
4182.106	4642
4183.655	4654
4185.204	4592
4186.751	4655
4188.298	4659
4189.845	4622
4191.392	4589
4192.939	4624
4194.485	4679
4196.031	4460
4197.576	4562
4199.121	4526
4200.666	4497
4202.211	4582
4203.754	4556
4205.298	4471
4206.84	4526
4208.384	4508
4209.927	4497
4211.47	4532
4213.011	4481
4214.552	4574
4216.094	4546
4217.635	4399
4219.175	4513
4220.716	4557
4222.255	4536
4223.793	4505
4225.335	4468
4226.873	4472
4228.411	4537
4229.948	4443
4231.486	4474
4233.024	4469
4234.562	4475
4236.098	4579
4237.634	4484
4239.169	4437
4240.705	4508
4242.241	4468
4243.776	4497
4245.31	4483
4246.844	4303
4248.378	4409
4249.911	4397
4251.445	4446
4252.978	4512
4254.51	4449
4256.042	4409
4257.574	4453
4259.107	4447
4260.638	4431
4262.169	4433
4263.699	4324
4265.228	4408
4266.759	4430
4268.289	4466
4269.818	4443
4271.345	4370
4272.874	4333
4274.402	4486
4275.931	4371
4277.458	4396
4278.985	4404
4280.512	4374
4282.037	4288
4283.564	4419
4285.089	4338
4286.615	4338
4288.139	4346
4289.664	4305
4291.187	4280
4292.712	4335
4294.235	4361
4295.759	4241
4297.281	4295
4298.804	4270
4300.327	4251
4301.849	4374
4303.37	4325
4304.891	4273
4306.412	4270
4307.933	4294
4309.453	4213
4310.973	4332
4312.492	4280
