398.1873	2706
400.7097	2775
403.2336	2811
405.7547	2755
408.2751	2704
410.7948	2847
413.3138	2820
415.83	2817
418.3497	2749
420.8666	2879
423.3829	2865
425.8985	2857
428.4133	2935
430.9275	2910
433.441	2923
435.9538	2891
438.4639	2918
440.9753	2923
443.4881	2940
445.9982	2923
448.5055	2901
451.0142	2874
453.5201	2948
456.0274	2962
458.5361	2906
461.04	2863
463.5453	2860
466.0478	2969
468.5517	2948
471.0549	3008
473.5574	2930
476.0572	2965
478.5584	2906
481.0568	2882
483.5545	2891
486.0557	3030
488.5521	2972
491.0478	2965
493.5449	3046
496.0392	2937
498.5349	2978
501.0299	2993
503.5222	3006
506.0139	3050
508.5048	2941
510.9991	3007
513.4887	2955
515.9777	3016
518.4659	3014
520.9534	3053
523.4403	3031
525.9306	3032
528.4161	2999
530.9009	3071
533.3851	3012
535.8687	2990
538.3535	3032
540.8356	2957
543.3171	2993
545.7979	2990
548.278	2987
550.7595	3073
553.2383	3086
555.7144	3035
558.1918	3114
560.6685	3118
563.1446	3098
565.6221	3123
568.0968	3059
570.5688	3055
573.0422	3120
575.515	3198
577.989	3057
580.4584	3076
582.9291	3202
585.3991	3158
587.8685	3139
590.3352	3144
592.8052	3092
595.2706	3173
597.7372	3206
600.2033	3164
602.6666	3109
605.1334	3129
607.5953	3170
610.0587	3100
612.5193	3086
614.9814	3171
617.4427	3156
619.9034	3220
622.3615	3095
624.8208	3120
627.2775	3155
629.7335	3110
632.1929	3087
634.6476	3179
637.1016	3096
639.5569	3138
642.0096	3134
644.4637	3153
646.9151	3167
649.3678	3136
651.8179	3203
654.2672	3221
656.7159	3150
659.166	3140
661.6154	3133
664.0622	3141
666.5082	3251
668.9537	3201
671.4005	3183
673.8445	3225
676.288	3132
678.7308	3291
681.1729	3212
683.6163	3182
686.0572	3263
688.4973	3222
690.9368	3244
693.3757	3213
695.8138	3158
698.2534	3224
700.6902	3314
703.1245	3314
705.56	3234
707.9949	3255
710.4311	3275
712.8647	3231
715.2957	3324
717.7279	3434
720.1595	3267
722.5905	3314
725.0208	3344
727.4505	3295
729.8795	3344
732.3058	3373
734.7336	3336
737.1626	3380
739.587	3265
742.0128	3393
744.4359	3249
746.8604	3407
749.2841	3352
751.7073	3432
754.1278	3487
756.5496	3458
758.9688	3332
761.3893	3375
763.8093	3409
766.2285	3421
768.6451	3365
771.0611	3461
773.4784	3495
775.895	3399
778.3091	3430
780.7244	3510
783.1371	3437
785.5493	3443
787.9626	3437
790.3754	3459
792.7856	3455
795.1951	3441
797.6039	3426
800.0121	3471
802.4236	3434
804.8306	3448
807.2369	3419
809.6425	3465
812.0475	3445
814.4538	3525
816.8575	3483
819.2606	3471
821.663	3464
824.0648	3435
826.4659	3567
828.8683	3455
831.2682	3493
833.6674	3559
836.066	3444
838.4639	3538
840.8632	3529
843.2579	3454
845.6539	3565
848.0493	3524
850.444	3563
852.84	3526
855.2315	3480
857.6243	3577
860.0165	3537
862.4081	3552
864.797	3544
867.1892	3510
869.5789	3577
871.9659	3568
874.3542	3549
876.74	3574
879.129	3468
881.5155	3578
883.8994	3525
886.2845	3580
888.6671	3538
891.051	3528
893.4343	3513
895.8169	3594
898.197	3525
900.5783	3612
902.9571	3583
905.3372	3568
907.7167	3544
910.0936	3559
912.4698	3580
914.8474	3605
917.2244	3609
919.5987	3568
921.9744	3632
924.3475	3652
926.72	3672
929.0918	3783
931.4669	3715
933.8375	3718
936.2074	3788
938.5767	3701
940.9454	3731
943.3154	3782
945.6829	3833
948.0497	3873
950.4178	4034
952.7833	4057
955.1483	4263
957.5145	4312
959.8782	4336
962.2412	4389
964.6036	4253
966.9655	4218
969.3266	4067
971.6871	3954
974.0471	3851
976.4064	3706
978.765	3761
981.125	3811
983.4824	3636
985.8373	3641
988.1935	3634
990.549	3648
992.9039	3645
995.2602	3768
997.6119	3642
999.965	3662
1002.317	3659
1004.667	3653
1007.02	3745
1009.371	3734
1011.719	3626
1014.068	3723
1016.415	3637
1018.765	3669
1021.111	3658
1023.458	3731
1025.804	3713
1028.147	3706
1030.49	3624
1032.837	3764
1035.179	3758
1037.522	3754
1039.862	3773
1042.204	3701
1044.546	3771
1046.884	3728
1049.224	3718
1051.562	3681
1053.899	3766
1056.237	3769
1058.575	3740
1060.91	3808
1063.244	3830
1065.58	3797
1067.913	3825
1070.248	3804
1072.579	3848
1074.911	3844
1077.242	3790
1079.572	3891
1081.905	3806
1084.234	3757
1086.562	3778
1088.89	3721
1091.217	3791
1093.544	3745
1095.871	3733
1098.197	3800
1100.521	3760
1102.845	3733
1105.169	3702
1107.491	3863
1109.814	3676
1112.135	3716
1114.456	3732
1116.776	3791
1119.096	3830
1121.415	3707
1123.734	3742
1126.052	3834
1128.369	3793
1130.686	3797
1133.002	3750
1135.318	3811
1137.632	3749
1139.945	3826
1142.258	3746
1144.573	3860
1146.884	3854
1149.196	3832
1151.505	3897
1153.816	3810
1156.124	3817
1158.435	3857
1160.742	3791
1163.051	3812
1165.356	3814
1167.663	3777
1169.97	3770
1172.276	3791
1174.579	3801
1176.881	3803
1179.186	3759
1181.487	3860
1183.79	3860
1186.092	3847
1188.392	3793
1190.691	3823
1192.991	3827
1195.291	3806
1197.588	3712
1199.885	3795
1202.181	3808
1204.479	3813
1206.775	3838
1209.07	3819
1211.363	3815
1213.656	3832
1215.949	3895
1218.241	3854
1220.534	3834
1222.825	3899
1225.115	3911
1227.405	3902
1229.693	3835
1231.984	3855
1234.271	3879
1236.558	3906
1238.845	3932
1241.131	3882
1243.416	3919
1245.703	3919
1247.987	3920
1250.269	4024
1252.552	4008
1254.834	4062
1257.118	4001
1259.399	3942
1261.678	3851
1263.958	3902
1266.237	3961
1268.516	3940
1270.794	3964
1273.072	3972
1275.347	4007
1277.624	3874
1279.899	3984
1282.175	3920
1284.449	3879
1286.722	3877
1288.995	3888
1291.266	3968
1293.54	3885
1295.81	3898
1298.081	3917
1300.35	3903
1302.62	3969
1304.889	3922
1307.156	3865
1309.425	3917
1311.69	3908
1313.957	3995
1316.222	3851
1318.488	3923
1320.751	3860
1323.016	3921
1325.278	3840
1327.54	3880
1329.803	3917
1332.065	3941
1334.325	3985
1336.584	3880
1338.843	4022
1341.101	3859
1343.36	3948
1345.617	3993
1347.876	3948
1350.131	3947
1352.387	4003
1354.643	3951
1356.897	3944
1359.151	3955
1361.403	4042
1363.656	4035
1365.909	3973
1368.16	3913
1370.409	3842
1372.659	3954
1374.909	3944
1377.157	3975
1379.407	3975
1381.655	3922
1383.9	4019
1386.147	3997
1388.393	4052
1390.64	4039
1392.885	3924
1395.127	3963
1397.37	3961
1399.614	4026
1401.854	4033
1404.098	4043
1406.339	3934
1408.578	4083
1410.818	4045
1413.056	4039
1415.297	3935
1417.533	3999
1419.771	4058
1422.006	3994
1424.243	4054
1426.479	4036
1428.715	4117
1430.948	4052
1433.182	4063
1435.414	3993
1437.647	4045
1439.88	4063
1442.11	4082
1444.342	4134
1446.571	4104
1448.799	4081
1451.029	4273
1453.258	4047
1455.485	4137
1457.711	4091
1459.937	4099
1462.164	4137
1464.39	4053
1466.614	4028
1468.838	4045
1471.06	4084
1473.283	4090
1475.506	4065
1477.727	4140
1479.949	4021
1482.169	4061
1484.389	4046
1486.609	4037
1488.828	4045
1491.045	3988
1493.261	3915
1495.477	3996
1497.693	4028
1499.91	3999
1502.125	3935
1504.339	4029
1506.553	4027
1508.766	4065
1510.979	3974
1513.191	4012
1515.402	3876
1517.613	3979
1519.823	3956
1522.033	4034
1524.242	3969
1526.451	4015
1528.657	3964
1530.865	3940
1533.072	3995
1535.278	4064
1537.484	4018
1539.687	3996
1541.892	3979
1544.096	3968
1546.299	4037
1548.502	4059
1550.703	4049
1552.905	4071
1555.104	4016
1557.303	4111
1559.505	4050
1561.703	4082
1563.902	4053
1566.099	4058
1568.295	4124
1570.494	4109
1572.689	4032
1574.883	4054
1577.079	4177
1579.272	4064
1581.467	4080
1583.659	4074
1585.853	4049
1588.044	4146
1590.234	4168
1592.424	4145
1594.615	4219
1596.806	4146
1598.994	4127
1601.182	4164
1603.369	4217
1605.557	4111
1607.744	4135
1609.929	4141
1612.114	4123
1614.298	4241
1616.482	4094
1618.667	4149
1620.85	4134
1623.032	4110
1625.214	4207
1627.395	4250
1629.575	4182
1631.755	4250
1633.935	4108
1636.114	4180
1638.292	4245
1640.471	4191
1642.647	4218
1644.823	4188
1647	4182
1649.175	4182
1651.348	4128
1653.525	4155
1655.698	4194
1657.87	4271
1660.043	4182
1662.213	4205
1664.387	4198
1666.558	4281
1668.727	4223
1670.896	4137
1673.064	4233
1675.233	4191
1677.401	4131
1679.569	4168
1681.735	4188
1683.902	4180
1686.066	4235
1688.233	4364
1690.397	4232
1692.559	4148
1694.723	4192
1696.885	4270
1699.048	4240
1701.21	4202
1703.37	4122
1705.53	4227
1707.689	4153
1709.849	4186
1712.009	4097
1714.166	4206
1716.323	4169
1718.479	4163
1720.634	4134
1722.793	4143
1724.948	4091
1727.102	4204
1729.255	4176
1731.408	4274
1733.562	4144
1735.714	4218
1737.865	4215
1740.016	4165
1742.166	4126
1744.316	4223
1746.467	4182
1748.616	4234
1750.764	4170
1752.911	4111
1755.056	4302
1757.205	4185
1759.35	4236
1761.496	4203
1763.641	4273
1765.785	4259
1767.927	4219
1770.072	4215
1772.214	4210
1774.355	4266
1776.496	4204
1778.637	4215
1780.778	4189
1782.918	4245
1785.057	4285
1787.194	4177
1789.333	4324
1791.472	4150
1793.608	4258
1795.745	4246
1797.879	4191
1800.015	4255
1802.148	4265
1804.284	4265
1806.417	4309
1808.548	4284
1810.682	4364
1812.812	4233
1814.946	4200
1817.075	4273
1819.205	4231
1821.335	4213
1823.463	4232
1825.59	4264
1827.721	4328
1829.847	4313
1831.973	4235
1834.098	4270
1836.223	4268
1838.351	4295
1840.475	4318
1842.598	4254
1844.721	4210
1846.843	4198
1848.966	4200
1851.087	4291
1853.21	4178
1855.33	4236
1857.449	4200
1859.568	4144
1861.688	4288
1863.806	4158
1865.924	4254
1868.039	4211
1870.155	4168
1872.273	4234
1874.388	4244
1876.503	4106
1878.617	4198
1880.73	4290
1882.844	4248
1884.956	4135
1887.068	4242
1889.18	4214
1891.291	4226
1893.4	4125
1895.511	4309
1897.621	4298
1899.73	4285
1901.837	4316
1903.944	4191
1906.053	4221
1908.159	4399
1910.265	4247
1912.369	4269
1914.474	4252
1916.577	4296
1918.683	4262
1920.785	4318
1922.888	4290
1924.989	4326
1927.091	4378
1929.193	4235
1931.294	4377
1933.393	4130
1935.493	4198
1937.59	4398
1939.689	4311
1941.788	4329
1943.884	4356
1945.98	4293
1948.077	4317
1950.171	4299
1952.267	4287
1954.361	4322
1956.455	4307
1958.548	4273
1960.64	4331
1962.733	4381
1964.824	4349
1966.915	4383
1969.005	4293
1971.096	4233
1973.185	4275
1975.275	4341
1977.363	4314
1979.45	4345
1981.537	4320
1983.623	4242
1985.711	4383
1987.796	4305
1989.881	4247
1991.965	4353
1994.047	4311
1996.132	4322
1998.215	4279
2000.297	4309
2002.378	4219
2004.46	4264
2006.54	4294
2008.62	4325
2010.7	4355
2012.779	4182
2014.858	4308
2016.934	4295
2019.013	4256
2021.09	4348
2023.165	4334
2025.241	4339
2027.317	4330
2029.39	4269
2031.466	4243
2033.538	4313
2035.612	4322
2037.683	4276
2039.755	4348
2041.827	4346
2043.898	4323
2045.968	4364
2048.038	4348
2050.106	4298
2052.177	4284
2054.244	4311
2056.313	4350
2058.379	4341
2060.444	4320
2062.511	4282
2064.577	4291
2066.641	4353
2068.705	4355
2070.77	4369
2072.832	4395
2074.896	4322
2076.958	4382
2079.02	4391
2081.081	4383
2083.141	4284
2085.2	4420
2087.261	4355
2089.319	4308
2091.377	4402
2093.435	4362
2095.492	4310
2097.552	4434
2099.607	4268
2101.663	4328
2103.718	4457
2105.771	4415
2107.826	4349
2109.879	4358
2111.932	4409
2113.985	4381
2116.037	4393
2118.088	4229
2120.141	4343
2122.191	4323
2124.239	4356
2126.288	4319
2128.337	4331
2130.387	4338
2132.434	4373
2134.481	4379
2136.528	4357
2138.574	4321
2140.618	4353
2142.665	4305
2144.71	4319
2146.753	4325
2148.797	4303
2150.838	4298
2152.883	4343
2154.923	4343
2156.965	4293
2159.007	4299
2161.046	4339
2163.086	4305
2165.126	4328
2167.163	4310
2169.202	4301
2171.239	4257
2173.277	4371
2175.314	4276
2177.349	4292
2179.385	4289
2181.42	4328
2183.453	4359
2185.49	4270
2187.522	4223
2189.555	4325
2191.586	4267
2193.619	4398
2195.651	4316
2197.682	4217
2199.711	4178
2201.74	4275
2203.769	4208
2205.799	4367
2207.828	4247
2209.855	4214
2211.882	4290
2213.908	4287
2215.934	4217
2217.961	4317
2219.986	4235
2222.01	4272
2224.034	4307
2226.057	4240
2228.08	4274
2230.104	4189
2232.124	4284
2234.145	4273
2236.166	4262
2238.186	4321
2240.207	4276
2242.227	4273
2244.244	4231
2246.262	4197
2248.28	4311
2250.299	4146
2252.314	4263
2254.33	4282
2256.346	4195
2258.36	4258
2260.375	4267
2262.391	4268
2264.403	4244
2266.416	4197
2268.427	4270
2270.44	4300
2272.453	4327
2274.463	4301
2276.474	4286
2278.483	4264
2280.493	4317
2282.501	4199
2284.51	4249
2286.518	4249
2288.524	4258
2290.532	4225
2292.537	4294
2294.544	4232
2296.55	4231
2298.554	4267
2300.557	4269
2302.562	4231
2304.566	4290
2306.568	4242
2308.569	4187
2310.572	4328
2312.573	4298
2314.573	4345
2316.574	4229
2318.573	4226
2320.571	4248
2322.571	4207
2324.569	4220
2326.567	4200
2328.564	4282
2330.56	4304
2332.556	4238
2334.551	4186
2336.546	4136
2338.542	4173
2340.535	4254
2342.529	4243
2344.521	4253
2346.512	4210
2348.505	4169
2350.497	4142
2352.487	4214
2354.478	4144
2356.468	4224
2358.457	4207
2360.446	4280
2362.434	4176
2364.422	4188
2366.408	4279
2368.395	4281
2370.383	4218
2372.369	4150
2374.353	4232
2376.338	4154
2378.321	4301
2380.307	4281
2382.29	4239
2384.272	4177
2386.254	4250
2388.235	4210
2390.218	4120
2392.198	4139
2394.179	4162
2396.157	4155
2398.137	4255
2400.115	4187
2402.095	4192
2404.072	4202
2406.048	4236
2408.026	4250
2410.001	4068
2411.977	4128
2413.953	4143
2415.927	4270
2417.9	4254
2419.875	4121
2421.847	4113
2423.821	4164
2425.792	4240
2427.763	4323
2429.736	4311
2431.706	4182
2433.677	4173
2435.646	4086
2437.615	4167
2439.583	4150
2441.551	4181
2443.519	4188
2445.486	4171
2447.452	4217
2449.418	4161
2451.383	4241
2453.348	4207
2455.314	4224
2457.278	4238
2459.241	4214
2461.205	4205
2463.167	4173
2465.131	4215
2467.091	4139
2469.052	4243
2471.012	4166
2472.972	4195
2474.932	4177
2476.891	4222
2478.85	4119
2480.808	4122
2482.766	4100
2484.722	4169
2486.68	4134
2488.636	4240
2490.591	4109
2492.546	4119
2494.5	4173
2496.456	4122
2498.41	4119
2500.362	4064
2502.315	4093
2504.266	4221
2506.218	4084
2508.169	4136
2510.121	4110
2512.07	4151
2514.019	4116
2515.968	4117
2517.918	4104
2519.866	4097
2521.813	4132
2523.76	4133
2525.707	4159
2527.653	4128
2529.599	4105
2531.543	4171
2533.489	4183
2535.433	4096
2537.376	4071
2539.32	4133
2541.264	4149
2543.205	4102
2545.147	4093
2547.087	4112
2549.029	4128
2550.969	4207
2552.908	4125
2554.847	4190
2556.786	4041
2558.724	4164
2560.663	4061
2562.6	4167
2564.537	4182
2566.473	4082
2568.408	4142
2570.345	4137
2572.28	4115
2574.214	4127
2576.148	4166
2578.081	4132
2580.014	4109
2581.947	4104
2583.879	4221
2585.81	4036
2587.741	4107
2589.67	4155
2591.602	4175
2593.532	4203
2595.461	4107
2597.388	4153
2599.316	4119
2601.244	4189
2603.172	4177
2605.098	4114
2607.023	4147
2608.949	4109
2610.873	4127
2612.8	4116
2614.723	4104
2616.647	4142
2618.569	4151
2620.493	4218
2622.416	4179
2624.338	4136
2626.258	4128
2628.179	4213
2630.099	4187
2632.019	4057
2633.939	4260
2635.857	4191
2637.775	4155
2639.694	4176
2641.61	4169
2643.528	4210
2645.444	4177
2647.361	4125
2649.276	4129
2651.19	4112
2653.105	4152
2655.019	4153
2656.934	4192
2658.846	4140
2660.758	4110
2662.67	4159
2664.583	4151
2666.493	4135
2668.404	4154
2670.313	4144
2672.223	4157
2674.134	4133
2676.042	4118
2677.95	4069
2679.858	4153
2681.765	4157
2683.673	4086
2685.579	4148
2687.483	4069
2689.389	4144
2691.294	4148
2693.198	4119
2695.104	4152
2697.006	4173
2698.909	4133
2700.811	4109
2702.713	4113
2704.615	4179
2706.516	4171
2708.417	4128
2710.316	4200
2712.216	4008
2714.115	4110
2716.014	4099
2717.913	4140
2719.81	4078
2721.707	4055
2723.603	4225
2725.501	4219
2727.396	4125
2729.292	4132
2731.186	4133
2733.081	4083
2734.976	4058
2736.87	4025
2738.762	4122
2740.653	4044
2742.546	4044
2744.437	4114
2746.329	3996
2748.22	4026
2750.11	4173
2751.999	3945
2753.889	4104
2755.778	4154
2757.666	4103
2759.553	4118
2761.44	4156
2763.328	4078
2765.215	4085
2767.101	4155
2768.986	4074
2770.87	4156
2772.754	4031
2774.638	4053
2776.523	4074
2778.405	4089
2780.288	4116
2782.17	4050
2784.051	3988
2785.934	4116
2787.814	4046
2789.694	4023
2791.574	4051
2793.453	4049
2795.332	4064
2797.212	4067
2799.088	4096
2800.966	4127
2802.843	3933
2804.719	4043
2806.597	3974
2808.471	4003
2810.346	4088
2812.221	4052
2814.094	3996
2815.969	4012
2817.843	4106
2819.714	4043
2821.587	4099
2823.459	4049
2825.329	4046
2827.202	4023
2829.072	4033
2830.942	4021
2832.811	4001
2834.68	4054
2836.549	4079
2838.418	3934
2840.284	3971
2842.152	4012
2844.018	4072
2845.885	4054
2847.751	4085
2849.616	4052
2851.482	4028
2853.345	4071
2855.208	4068
2857.074	3982
2858.937	4129
2860.799	4028
2862.66	4118
2864.522	4039
2866.385	4120
2868.245	4079
2870.104	4198
2871.964	4089
2873.824	4218
2875.683	4105
2877.542	4172
2879.4	4211
2881.257	4218
2883.114	4254
2884.97	4288
2886.827	4227
2888.683	4276
2890.537	4209
2892.392	4191
2894.246	4162
2896.1	4145
2897.954	4264
2899.807	4168
2901.66	4221
2903.51	4279
2905.362	4248
2907.214	4252
2909.065	4208
2910.915	4272
2912.765	4292
2914.613	4282
2916.463	4315
2918.311	4304
2920.158	4290
2922.006	4314
2923.853	4415
2925.698	4291
2927.546	4351
2929.392	4400
2931.236	4443
2933.081	4560
2934.924	4429
2936.77	4466
2938.613	4507
2940.455	4569
2942.298	4535
2944.139	4546
2945.982	4497
2947.823	4534
2949.662	4470
2951.503	4553
2953.342	4480
2955.182	4371
2957.021	4349
2958.858	4362
2960.697	4393
2962.534	4351
2964.37	4269
2966.207	4280
2968.044	4259
2969.879	4292
2971.714	4283
2973.548	4323
2975.383	4136
2977.218	4337
2979.051	4363
2980.883	4321
2982.715	4253
2984.547	4276
2986.379	4280
2988.21	4178
2990.04	4146
2991.87	4098
2993.7	4097
2995.53	4129
2997.359	4108
2999.187	4150
3001.015	4120
3002.842	4107
3004.669	4044
3006.497	4026
3008.323	4012
3010.148	4053
3011.974	4000
3013.797	4006
3015.623	3991
3017.447	4024
3019.27	3930
3021.094	4086
3022.915	3950
3024.737	3879
3026.56	3915
3028.38	3901
3030.201	3950
3032.022	3906
3033.84	3885
3035.662	3881
3037.481	3914
3039.298	3951
3041.117	3929
3042.933	3877
3044.752	3840
3046.568	3903
3048.385	3879
3050.2	3904
3052.016	3858
3053.83	3898
3055.646	3897
3057.46	3930
3059.272	3880
3061.086	3904
3062.898	3897
3064.711	3887
3066.524	3806
3068.335	3885
3070.145	3835
3071.956	3883
3073.766	3858
3075.576	3884
3077.385	3808
3079.193	3823
3081.002	3837
3082.81	3817
3084.618	3786
3086.425	3769
3088.231	3796
3090.036	3833
3091.842	3832
3093.648	3862
3095.452	3859
3097.257	3783
3099.06	3743
3100.863	3831
3102.666	3804
3104.47	3804
3106.272	3836
3108.073	3793
3109.875	3808
3111.676	3869
3113.477	3822
3115.277	3767
3117.077	3734
3118.874	3832
3120.673	3796
3122.473	3765
3124.271	3770
3126.066	3808
3127.863	3729
3129.66	3766
3131.456	3694
3133.252	3700
3135.047	3761
3136.842	3689
3138.635	3710
3140.429	3748
3142.223	3824
3144.016	3745
3145.808	3699
3147.6	3711
3149.392	3752
3151.183	3690
3152.975	3773
3154.765	3733
3156.553	3646
3158.344	3736
3160.132	3692
3161.922	3587
3163.71	3695
3165.497	3655
3167.285	3735
3169.071	3608
3170.858	3716
3172.645	3749
3174.429	3655
3176.214	3632
3177.998	3648
3179.783	3709
3181.568	3636
3183.351	3737
3185.133	3690
3186.915	3720
3188.698	3672
3190.481	3672
3192.261	3724
3194.042	3652
3195.822	3594
3197.601	3652
3199.381	3672
3201.161	3581
3202.939	3664
3204.717	3653
3206.495	3690
3208.272	3620
3210.05	3723
3211.826	3725
3213.602	3724
3215.376	3592
3217.151	3628
3218.927	3680
3220.702	3724
3222.476	3714
3224.249	3649
3226.021	3635
3227.793	3656
3229.567	3637
3231.339	3669
3233.109	3669
3234.88	3669
3236.651	3736
3238.421	3591
3240.191	3621
3241.96	3692
3243.728	3627
3245.497	3712
3247.263	3625
3249.033	3619
3250.799	3588
3252.566	3598
3254.331	3572
3256.097	3589
3257.863	3724
3259.628	3594
3261.392	3581
3263.156	3636
3264.919	3610
3266.683	3714
3268.447	3657
3270.208	3629
3271.969	3663
3273.731	3550
3275.492	3696
3277.253	3705
3279.013	3573
3280.773	3659
3282.532	3651
3284.291	3632
3286.05	3599
3287.808	3601
3289.566	3597
3291.323	3677
3293.079	3662
3294.835	3590
3296.593	3640
3298.348	3608
3300.102	3687
3301.857	3621
3303.611	3602
3305.366	3634
3307.119	3642
3308.872	3637
3310.624	3716
3312.376	3615
3314.129	3645
3315.881	3613
3317.631	3600
3319.38	3584
3321.13	3626
3322.88	3562
3324.631	3690
3326.379	3681
3328.126	3570
3329.875	3572
3331.622	3616
3333.371	3569
3335.116	3567
3336.863	3594
3338.609	3571
3340.353	3631
3342.1	3646
3343.845	3605
3345.588	3601
3347.332	3605
3349.074	3625
3350.817	3599
3352.56	3578
3354.303	3565
3356.043	3625
3357.785	3636
3359.525	3581
3361.268	3547
3363.007	3596
3364.745	3602
3366.485	3634
3368.223	3591
3369.962	3607
3371.701	3539
3373.438	3507
3375.174	3490
3376.911	3631
3378.647	3530
3380.384	3571
3382.118	3550
3383.854	3603
3385.588	3510
3387.322	3626
3389.057	3524
3390.79	3523
3392.522	3515
3394.255	3602
3395.987	3560
3397.719	3611
3399.451	3547
3401.181	3494
3402.911	3504
3404.641	3477
3406.371	3442
3408.101	3554
3409.83	3544
3411.558	3505
3413.285	3538
3415.011	3499
3416.739	3545
3418.467	3507
3420.193	3491
3421.919	3520
3423.644	3551
3425.368	3531
3427.094	3437
3428.818	3553
3430.542	3463
3432.264	3403
3433.987	3497
3435.712	3444
3437.434	3505
3439.155	3452
3440.876	3501
3442.596	3464
3444.317	3509
3446.039	3460
3447.757	3408
3449.477	3456
3451.195	3446
3452.914	3537
3454.632	3462
3456.35	3439
3458.067	3489
3459.784	3471
3461.5	3461
3463.216	3391
3464.932	3433
3466.647	3356
3468.362	3411
3470.076	3506
3471.789	3349
3473.505	3411
3475.217	3378
3476.929	3345
3478.641	3390
3480.354	3386
3482.066	3352
3483.777	3350
3485.487	3359
3487.197	3376
3488.908	3403
3490.617	3335
3492.327	3353
3494.035	3400
3495.743	3421
3497.451	3379
3499.158	3368
3500.866	3443
3502.572	3397
3504.278	3374
3505.984	3341
3507.689	3288
3509.396	3378
3511.1	3377
3512.804	3405
3514.508	3310
3516.211	3266
3517.913	3346
3519.616	3314
3521.319	3306
3523.021	3319
3524.722	3377
3526.422	3338
3528.124	3370
3529.824	3301
3531.524	3347
3533.222	3326
3534.921	3219
3536.62	3316
3538.318	3343
3540.016	3235
3541.714	3357
3543.41	3322
3545.107	3305
3546.803	3267
3548.5	3272
3550.194	3297
3551.889	3174
3553.583	3240
3555.279	3234
3556.972	3303
3558.666	3334
3560.358	3253
3562.051	3285
3563.742	3266
3565.435	3320
3567.126	3299
3568.817	3283
3570.507	3224
3572.197	3247
3573.888	3204
3575.577	3256
3577.265	3277
3578.954	3233
3580.642	3178
3582.329	3233
3584.017	3235
3585.704	3332
3587.391	3156
3589.077	3297
3590.762	3206
3592.449	3203
3594.133	3252
3595.817	3181
3597.501	3246
3599.185	3253
3600.869	3241
3602.552	3246
3604.234	3236
3605.916	3182
3607.598	3167
3609.279	3168
3610.961	3182
3612.642	3250
3614.321	3129
3616	3121
3617.68	3156
3619.36	3215
3621.039	3154
3622.716	3161
3624.394	3154
3626.071	3135
3627.748	3167
3629.425	3177
3631.102	3168
3632.778	3118
3634.452	3168
3636.127	3156
3637.803	3110
3639.477	3096
3641.151	3119
3642.823	3106
3644.497	3134
3646.171	3065
3647.842	3085
3649.515	3106
3651.185	3143
3652.857	3087
3654.527	3104
3656.198	3065
3657.868	3163
3659.537	3038
3661.207	3096
3662.875	3073
3664.544	3130
3666.212	3115
3667.879	3082
3669.546	3020
3671.212	3088
3672.88	3034
3674.546	3070
3676.211	3036
3677.875	3146
3679.541	3015
3681.205	3074
3682.87	3027
3684.533	3021
3686.196	3106
3687.859	3008
3689.521	3109
3691.184	3107
3692.845	3134
3694.507	3015
3696.167	3063
3697.827	2986
3699.487	3063
3701.148	3094
3702.808	3013
3704.466	3067
3706.125	3030
3707.783	3004
3709.442	3032
3711.099	3095
3712.757	3074
3714.412	3065
3716.068	2976
3717.725	3071
3719.381	3117
3721.036	2971
3722.689	3043
3724.344	3044
3725.998	3014
3727.652	3066
3729.305	3006
3730.958	3021
3732.61	3003
3734.262	3009
3735.915	2934
3737.565	3104
3739.217	3049
3740.866	3048
3742.516	3039
3744.165	2885
3745.816	3009
3747.464	3013
3749.113	3010
3750.761	2896
3752.409	2975
3754.057	2925
3755.703	2936
3757.35	2992
3758.996	2961
3760.641	3030
3762.289	2924
3763.933	2941
3765.577	2976
3767.222	3065
3768.865	2975
3770.508	2898
3772.152	2943
3773.796	3014
3775.438	3006
3777.079	2938
3778.721	2943
3780.363	2939
3782.003	2944
3783.643	2939
3785.283	2959
3786.923	2961
3788.563	2908
3790.203	2981
3791.841	2865
3793.479	2987
3795.115	2940
3796.753	2929
3798.391	2921
3800.027	2919
3801.664	2936
3803.299	2858
3804.935	2858
3806.571	2924
3808.206	2936
3809.839	2947
3811.473	2905
3813.107	2875
3814.74	2910
3816.375	2914
3818.006	2889
3819.638	2922
3821.27	2940
3822.9	2859
3824.532	2858
3826.163	2884
3827.792	2881
3829.423	2857
3831.051	2839
3832.682	2885
3834.311	2860
3835.938	2867
3837.566	2800
3839.193	2815
3840.821	2805
3842.448	2861
3844.075	2845
3845.7	2935
3847.325	2829
3848.951	2876
3850.576	2805
3852.201	2828
3853.825	2797
3855.448	2874
3857.072	2820
3858.694	2829
3860.318	2829
3861.939	2861
3863.562	2863
3865.183	2763
3866.804	2821
3868.426	2887
3870.045	2790
3871.666	2827
3873.285	2740
3874.904	2825
3876.524	2879
3878.142	2786
3879.76	2813
3881.378	2820
3882.995	2797
3884.612	2770
3886.229	2730
3887.845	2728
3889.461	2941
3891.076	2745
3892.691	2803
3894.307	2771
3895.922	2819
3897.536	2745
3899.149	2839
3900.761	2831
3902.374	2820
3903.988	2757
3905.6	2786
3907.212	2796
3908.822	2757
3910.433	2735
3912.045	2786
3913.655	2744
3915.265	2790
3916.875	2765
3918.483	2872
3920.093	2778
3921.702	2810
3923.309	2755
3924.917	2803
3926.523	2749
3928.13	2827
3929.739	2757
3931.344	2804
3932.95	2792
3934.555	2776
3936.159	2732
3937.766	2745
3939.369	2704
3940.974	2692
3942.577	2730
3944.181	2725
3945.783	2756
3947.386	2814
3948.989	2746
3950.59	2787
3952.191	2689
3953.791	2771
3955.394	2777
3956.994	2722
3958.593	2692
3960.192	2689
3961.791	2687
3963.392	2699
3964.99	2683
3966.588	2703
3968.185	2755
3969.782	2711
3971.379	2696
3972.976	2748
3974.572	2655
3976.168	2728
3977.763	2712
3979.358	2691
3980.954	2719
3982.548	2666
3984.142	2711
3985.736	2674
3987.329	2682
3988.922	2689
3990.516	2655
3992.108	2709
3993.698	2649
3995.29	2653
3996.881	2663
3998.473	2715
4000.064	2709
4001.653	2714
4003.242	2631
4004.832	2633
4006.422	2628
4008.01	2676
4009.598	2618
4011.186	2661
4012.773	2618
4014.36	2615
4015.947	2635
4017.534	2659
4019.119	2625
4020.705	2577
4022.291	2589
4023.876	2582
4025.461	2625
4027.044	2627
4028.627	2627
4030.211	2591
4031.795	2624
4033.378	2617
4034.96	2584
4036.542	2657
4038.124	2617
4039.704	2581
4041.286	2561
4042.867	2576
4044.447	2626
4046.026	2641
4047.606	2628
4049.187	2611
4050.765	2580
4052.343	2554
4053.92	2517
4055.498	2621
4057.076	2610
4058.654	2609
4060.23	2536
4061.806	2517
4063.381	2603
4064.957	2559
4066.533	2557
4068.107	2607
4069.682	2499
4071.256	2559
4072.829	2502
4074.404	2521
4075.977	2548
4077.549	2586
4079.121	2557
4080.693	2534
4082.265	2570
4083.836	2548
4085.407	2475
4086.977	2570
4088.547	2515
4090.117	2517
4091.687	2522
4093.256	2522
4094.825	2460
4096.392	2518
4097.96	2556
4099.528	2564
4101.097	2497
4102.663	2506
4104.229	2563
4105.795	2506
4107.361	2505
4108.928	2556
4110.493	2477
4112.058	2496
4113.621	2485
4115.186	2455
4116.75	2490
4118.313	2481
4119.876	2460
4121.438	2453
4123	2532
4124.562	2449
4126.125	2474
4127.686	2437
4129.246	2525
4130.807	2472
4132.367	2408
4133.927	2384
4135.486	2510
4137.046	2542
4138.604	2489
4140.162	2426
4141.72	2463
4143.279	2456
4144.836	2439
4146.393	2456
4147.949	2478
4149.505	2437
4151.062	2437
4152.617	2419
4154.172	2456
4155.727	2402
4157.281	2487
4158.836	2413
4160.39	2402
4161.943	2411
4163.496	2442
4165.048	2390
4166.601	2408
4168.154	2392
4169.706	2424
4171.257	2435
4172.808	2372
4174.358	2378
4175.909	2409
4177.458	2345
4179.008	2360
4180.558	2380
4182.106	2287
4183.655	2392
4185.204	2346
4186.751	2371
4188.298	2381
4189.845	2390
4191.392	2400
4192.939	2381
4194.485	2292
4196.031	2433
4197.576	2403
4199.121	2404
4200.666	2399
4202.211	2398
4203.754	2404
4205.298	2350
4206.84	2388
4208.384	2353
4209.927	2448
4211.47	2376
4213.011	2358
4214.552	2304
4216.094	2306
4217.635	2352
4219.175	2387
4220.716	2370
4222.255	2328
4223.793	2351
4225.335	2374
4226.873	2273
4228.411	2372
4229.948	2343
4231.486	2327
4233.024	2322
4234.562	2351
4236.098	2282
4237.634	2321
4239.169	2375
4240.705	2377
4242.241	2320
4243.776	2365
4245.31	2260
4246.844	2316
4248.378	2324
4249.911	2319
4251.445	2296
4252.978	2333
4254.51	2327
4256.042	2316
4257.574	2355
4259.107	2362
4260.638	2318
4262.169	2313
4263.699	2294
4265.228	2316
4266.759	2264
4268.289	2275
4269.818	2232
4271.345	2329
4272.874	2287
4274.402	2311
4275.931	2334
4277.458	2298
4278.985	2325
4280.512	2338
4282.037	2269
4283.564	2252
4285.089	2232
4286.615	2182
4288.139	2354
4289.664	2233
4291.187	2319
4292.712	2217
4294.235	2276
4295.759	2256
4297.281	2167
4298.804	2316
4300.327	2254
4301.849	2258
4303.37	2254
4304.891	2244
4306.412	2254
4307.933	2233
4309.453	2297
4310.973	2232
4312.492	2267
