398.1873	3547
400.7097	3530
403.2336	3571
405.7547	3535
408.2751	3549
410.7948	3628
413.3138	3599
415.83	3625
418.3497	3643
420.8666	3644
423.3829	3751
425.8985	3703
428.4133	3825
430.9275	3768
433.441	3737
435.9538	3815
438.4639	3781
440.9753	3867
443.4881	3814
445.9982	3833
448.5055	3773
451.0142	3780
453.5201	3776
456.0274	3832
458.5361	3824
461.04	3764
463.5453	3769
466.0478	3734
468.5517	3815
471.0549	3816
473.5574	3820
476.0572	3810
478.5584	3852
481.0568	3875
483.5545	3907
486.0557	3779
488.5521	3827
491.0478	3835
493.5449	3854
496.0392	3919
498.5349	3873
501.0299	3908
503.5222	3847
506.0139	3870
508.5048	3844
510.9991	3920
513.4887	3935
515.9777	3957
518.4659	3952
520.9534	3908
523.4403	3901
525.9306	3909
528.4161	3887
530.9009	3890
533.3851	3940
535.8687	3884
538.3535	3923
540.8356	3878
543.3171	3914
545.7979	3904
548.278	3918
550.7595	4012
553.2383	3967
555.7144	3983
558.1918	3999
560.6685	4003
563.1446	4040
565.6221	4042
568.0968	4055
570.5688	4044
573.0422	4057
575.515	4059
577.989	4080
580.4584	4125
582.9291	4044
585.3991	4081
587.8685	4135
590.3352	4056
592.8052	4047
595.2706	4108
597.7372	4113
600.2033	4081
602.6666	4093
605.1334	4011
607.5953	4051
610.0587	4179
612.5193	4132
614.9814	4063
617.4427	4008
619.9034	4086
622.3615	4010
624.8208	4049
627.2775	3961
629.7335	4128
632.1929	4029
634.6476	4114
637.1016	4046
639.5569	3996
642.0096	4126
644.4637	4114
646.9151	4095
649.3678	4066
651.8179	4081
654.2672	4076
656.7159	4133
659.166	4169
661.6154	4153
664.0622	4214
666.5082	4060
668.9537	4166
671.4005	4176
673.8445	4153
676.288	4083
678.7308	4174
681.1729	4260
683.6163	4196
686.0572	4183
688.4973	4244
690.9368	4205
693.3757	4248
695.8138	4256
698.2534	4237
700.6902	4185
703.1245	4189
705.56	4261
707.9949	4250
710.4311	4247
712.8647	4260
715.2957	4244
717.7279	4309
720.1595	4247
722.5905	4318
725.0208	4347
727.4505	4267
729.8795	4310
732.3058	4487
734.7336	4251
737.1626	4390
739.587	4315
742.0128	4405
744.4359	4422
746.8604	4372
749.2841	4411
751.7073	4365
754.1278	4513
756.5496	4483
758.9688	4499
761.3893	4465
763.8093	4493
766.2285	4513
768.6451	4508
771.0611	4468
773.4784	4553
775.895	4537
778.3091	4496
780.7244	4478
783.1371	4464
785.5493	4567
787.9626	4536
790.3754	4596
792.7856	4539
795.1951	4508
797.6039	4474
800.0121	4529
802.4236	4496
804.8306	4472
807.2369	4555
809.6425	4523
812.0475	4526
814.4538	4529
816.8575	4494
819.2606	4564
821.663	4546
824.0648	4604
826.4659	4544
828.8683	4508
831.2682	4542
833.6674	4615
836.066	4568
838.4639	4609
840.8632	4575
843.2579	4611
845.6539	4598
848.0493	4618
850.444	4635
852.84	4724
855.2315	4715
857.6243	4751
860.0165	4717
862.4081	4739
864.797	4556
867.1892	4756
869.5789	4707
871.9659	4599
874.3542	4753
876.74	4761
879.129	4654
881.5155	4671
883.8994	4700
886.2845	4727
888.6671	4649
891.051	4686
893.4343	4666
895.8169	4643
898.197	4616
900.5783	4627
902.9571	4688
905.3372	4625
907.7167	4584
910.0936	4699
912.4698	4682
914.8474	4825
917.2244	4742
919.5987	4875
921.9744	4808
924.3475	4852
926.72	4896
929.0918	4818
931.4669	4912
933.8375	4829
936.2074	4822
938.5767	4990
940.9454	5072
943.3154	5098
945.6829	5111
948.0497	5304
950.4178	5388
952.7833	5492
955.1483	5646
957.5145	5861
959.8782	5959
962.2412	5942
964.6036	5954
966.9655	5684
969.3266	5455
971.6871	5265
974.0471	5146
976.4064	5016
978.765	4939
981.125	4916
983.4824	4823
985.8373	4796
988.1935	4770
990.549	4773
992.9039	4739
995.2602	4853
997.6119	4803
999.965	4870
1002.317	4884
1004.667	4930
1007.02	4778
1009.371	4832
1011.719	4821
1014.068	4842
1016.415	4752
1018.765	4823
1021.111	4990
1023.458	4903
1025.804	4940
1028.147	4982
1030.49	4947
1032.837	4918
1035.179	4904
1037.522	5014
1039.862	4798
1042.204	4978
1044.546	4996
1046.884	4914
1049.224	4990
1051.562	4979
1053.899	4884
1056.237	4983
1058.575	4891
1060.91	5014
1063.244	4932
1065.58	4929
1067.913	4912
1070.248	5035
1072.579	5001
1074.911	5067
1077.242	5069
1079.572	4948
1081.905	4965
1084.234	4949
1086.562	4967
1088.89	4873
1091.217	4937
1093.544	5009
1095.871	4958
1098.197	4890
1100.521	4935
1102.845	4971
1105.169	4963
1107.491	4926
1109.814	4927
1112.135	4957
1114.456	5051
1116.776	4861
1119.096	5026
1121.415	4984
1123.734	4995
1126.052	4918
1128.369	4918
1130.686	5022
1133.002	5013
1135.318	4943
1137.632	4932
1139.945	5076
1142.258	4989
1144.573	4937
1146.884	4890
1149.196	4908
1151.505	4969
1153.816	5022
1156.124	4813
1158.435	4999
1160.742	4977
1163.051	4865
1165.356	4938
1167.663	5049
1169.97	4884
1172.276	4947
1174.579	5017
1176.881	4930
1179.186	4936
1181.487	5065
1183.79	4864
1186.092	4923
1188.392	4953
1190.691	5029
1192.991	5063
1195.291	4929
1197.588	4963
1199.885	4886
1202.181	4903
1204.479	4998
1206.775	4907
1209.07	4942
1211.363	5003
1213.656	4960
1215.949	5013
1218.241	4976
1220.534	5033
1222.825	5041
1225.115	5099
1227.405	5135
1229.693	5104
1231.984	5131
1234.271	5074
1236.558	5211
1238.845	5132
1241.131	5144
1243.416	5126
1245.703	5201
1247.987	5209
1250.269	5171
1252.552	5077
1254.834	5232
1257.118	5135
1259.399	5150
1261.678	5242
1263.958	5224
1266.237	5204
1268.516	5125
1270.794	5263
1273.072	5229
1275.347	5107
1277.624	5132
1279.899	5227
1282.175	5105
1284.449	5173
1286.722	5147
1288.995	5082
1291.266	5163
1293.54	5023
1295.81	5144
1298.081	5098
1300.35	5031
1302.62	5039
1304.889	5167
1307.156	5136
1309.425	5081
1311.69	5106
1313.957	5148
1316.222	5066
1318.488	5049
1320.751	5063
1323.016	5073
1325.278	5049
1327.54	5187
1329.803	5098
1332.065	5181
1334.325	5040
1336.584	5175
1338.843	5141
1341.101	5100
1343.36	5150
1345.617	5122
1347.876	5031
1350.131	5070
1352.387	5166
1354.643	5143
1356.897	5127
1359.151	5178
1361.403	5180
1363.656	5104
1365.909	5278
1368.16	5175
1370.409	5159
1372.659	5106
1374.909	5208
1377.157	5179
1379.407	5225
1381.655	5098
1383.9	5196
1386.147	5188
1388.393	5191
1390.64	5243
1392.885	5248
1395.127	5348
1397.37	5227
1399.614	5187
1401.854	5246
1404.098	5240
1406.339	5263
1408.578	5190
1410.818	5282
1413.056	5270
1415.297	5327
1417.533	5275
1419.771	5267
1422.006	5322
1424.243	5365
1426.479	5297
1428.715	5244
1430.948	5331
1433.182	5322
1435.414	5220
1437.647	5225
1439.88	5390
1442.11	5345
1444.342	5307
1446.571	5333
1448.799	5414
1451.029	5473
1453.258	5462
1455.485	5470
1457.711	5390
1459.937	5366
1462.164	5432
1464.39	5384
1466.614	5438
1468.838	5350
1471.06	5370
1473.283	5280
1475.506	5314
1477.727	5241
1479.949	5201
1482.169	5189
1484.389	5316
1486.609	5221
1488.828	5301
1491.045	5200
1493.261	5153
1495.477	5225
1497.693	5222
1499.91	5165
1502.125	5201
1504.339	5154
1506.553	5144
1508.766	5157
1510.979	5195
1513.191	5105
1515.402	5162
1517.613	5170
1519.823	5209
1522.033	5104
1524.242	5150
1526.451	5188
1528.657	5194
1530.865	5133
1533.072	5169
1535.278	5138
1537.484	5266
1539.687	5151
1541.892	5150
1544.096	5171
1546.299	5130
1548.502	5263
1550.703	5249
1552.905	5392
1555.104	5233
1557.303	5205
1559.505	5225
1561.703	5319
1563.902	5356
1566.099	5323
1568.295	5346
1570.494	5228
1572.689	5333
1574.883	5366
1577.079	5267
1579.272	5391
1581.467	5434
1583.659	5386
1585.853	5289
1588.044	5394
1590.234	5393
1592.424	5363
1594.615	5349
1596.806	5435
1598.994	5368
1601.182	5372
1603.369	5475
1605.557	5420
1607.744	5328
1609.929	5364
1612.114	5317
1614.298	5393
1616.482	5370
1618.667	5320
1620.85	5473
1623.032	5456
1625.214	5346
1627.395	5438
1629.575	5462
1631.755	5473
1633.935	5445
1636.114	5437
1638.292	5428
1640.471	5377
1642.647	5561
1644.823	5439
1647	5560
1649.175	5537
1651.348	5406
1653.525	5414
1655.698	5536
1657.87	5546
1660.043	5568
1662.213	5544
1664.387	5470
1666.558	5564
1668.727	5449
1670.896	5463
1673.064	5450
1675.233	5633
1677.401	5493
1679.569	5554
1681.735	5516
1683.902	5513
1686.066	5488
1688.233	5529
1690.397	5371
1692.559	5535
1694.723	5453
1696.885	5452
1699.048	5390
1701.21	5414
1703.37	5391
1705.53	5475
1707.689	5405
1709.849	5365
1712.009	5371
1714.166	5386
1716.323	5452
1718.479	5366
1720.634	5319
1722.793	5346
1724.948	5334
1727.102	5412
1729.255	5444
1731.408	5341
1733.562	5403
1735.714	5354
1737.865	5345
1740.016	5368
1742.166	5396
1744.316	5395
1746.467	5345
1748.616	5417
1750.764	5373
1752.911	5408
1755.056	5400
1757.205	5314
1759.35	5451
1761.496	5506
1763.641	5388
1765.785	5423
1767.927	5515
1770.072	5382
1772.214	5417
1774.355	5447
1776.496	5469
1778.637	5353
1780.778	5447
1782.918	5421
1785.057	5513
1787.194	5407
1789.333	5492
1791.472	5519
1793.608	5474
1795.745	5436
1797.879	5507
1800.015	5386
1802.148	5371
1804.284	5523
1806.417	5581
1808.548	5451
1810.682	5476
1812.812	5453
1814.946	5429
1817.075	5460
1819.205	5452
1821.335	5438
1823.463	5481
1825.59	5406
1827.721	5458
1829.847	5386
1831.973	5428
1834.098	5490
1836.223	5354
1838.351	5400
1840.475	5494
1842.598	5518
1844.721	5541
1846.843	5529
1848.966	5463
1851.087	5452
1853.21	5438
1855.33	5356
1857.449	5441
1859.568	5413
1861.688	5461
1863.806	5349
1865.924	5352
1868.039	5317
1870.155	5361
1872.273	5409
1874.388	5456
1876.503	5377
1878.617	5459
1880.73	5452
1882.844	5469
1884.956	5449
1887.068	5421
1889.18	5476
1891.291	5467
1893.4	5410
1895.511	5548
1897.621	5530
1899.73	5415
1901.837	5393
1903.944	5505
1906.053	5425
1908.159	5500
1910.265	5437
1912.369	5462
1914.474	5444
1916.577	5390
1918.683	5588
1920.785	5568
1922.888	5560
1924.989	5557
1927.091	5606
1929.193	5550
1931.294	5528
1933.393	5423
1935.493	5612
1937.59	5532
1939.689	5475
1941.788	5675
1943.884	5541
1945.98	5537
1948.077	5525
1950.171	5461
1952.267	5528
1954.361	5481
1956.455	5507
1958.548	5599
1960.64	5526
1962.733	5515
1964.824	5487
1966.915	5525
1969.005	5537
1971.096	5532
1973.185	5482
1975.275	5530
1977.363	5493
1979.45	5425
1981.537	5521
1983.623	5464
1985.711	5558
1987.796	5560
1989.881	5502
1991.965	5537
1994.047	5487
1996.132	5505
1998.215	5508
2000.297	5512
2002.378	5426
2004.46	5455
2006.54	5485
2008.62	5521
2010.7	5385
2012.779	5506
2014.858	5473
2016.934	5535
2019.013	5450
2021.09	5417
2023.165	5514
2025.241	5488
2027.317	5484
2029.39	5489
2031.466	5460
2033.538	5440
2035.612	5513
2037.683	5537
2039.755	5425
2041.827	5487
2043.898	5549
2045.968	5513
2048.038	5532
2050.106	5472
2052.177	5569
2054.244	5542
2056.313	5494
2058.379	5593
2060.444	5475
2062.511	5517
2064.577	5532
2066.641	5540
2068.705	5526
2070.77	5635
2072.832	5506
2074.896	5398
2076.958	5574
2079.02	5507
2081.081	5620
2083.141	5535
2085.2	5573
2087.261	5513
2089.319	5500
2091.377	5540
2093.435	5544
2095.492	5533
2097.552	5456
2099.607	5514
2101.663	5616
2103.718	5565
2105.771	5495
2107.826	5609
2109.879	5538
2111.932	5489
2113.985	5663
2116.037	5501
2118.088	5536
2120.141	5551
2122.191	5455
2124.239	5556
2126.288	5488
2128.337	5412
2130.387	5517
2132.434	5648
2134.481	5515
2136.528	5518
2138.574	5511
2140.618	5644
2142.665	5470
2144.71	5399
2146.753	5502
2148.797	5460
2150.838	5442
2152.883	5508
2154.923	5571
2156.965	5477
2159.007	5474
2161.046	5438
2163.086	5548
2165.126	5481
2167.163	5446
2169.202	5554
2171.239	5406
2173.277	5482
2175.314	5466
2177.349	5434
2179.385	5523
2181.42	5462
2183.453	5437
2185.49	5420
2187.522	5451
2189.555	5421
2191.586	5491
2193.619	5420
2195.651	5491
2197.682	5444
2199.711	5564
2201.74	5407
2203.769	5417
2205.799	5404
2207.828	5374
2209.855	5470
2211.882	5472
2213.908	5420
2215.934	5343
2217.961	5417
2219.986	5369
2222.01	5293
2224.034	5416
2226.057	5451
2228.08	5407
2230.104	5357
2232.124	5425
2234.145	5520
2236.166	5458
2238.186	5367
2240.207	5364
2242.227	5481
2244.244	5404
2246.262	5352
2248.28	5438
2250.299	5357
2252.314	5435
2254.33	5374
2256.346	5400
2258.36	5431
2260.375	5450
2262.391	5417
2264.403	5412
2266.416	5432
2268.427	5440
2270.44	5442
2272.453	5498
2274.463	5507
2276.474	5439
2278.483	5499
2280.493	5499
2282.501	5417
2284.51	5434
2286.518	5363
2288.524	5361
2290.532	5592
2292.537	5376
2294.544	5426
2296.55	5438
2298.554	5293
2300.557	5313
2302.562	5403
2304.566	5451
2306.568	5365
2308.569	5465
2310.572	5428
2312.573	5428
2314.573	5449
2316.574	5390
2318.573	5452
2320.571	5437
2322.571	5320
2324.569	5333
2326.567	5387
2328.564	5307
2330.56	5310
2332.556	5427
2334.551	5300
2336.546	5343
2338.542	5308
2340.535	5396
2342.529	5284
2344.521	5366
2346.512	5342
2348.505	5338
2350.497	5451
2352.487	5341
2354.478	5263
2356.468	5319
2358.457	5321
2360.446	5255
2362.434	5366
2364.422	5411
2366.408	5403
2368.395	5359
2370.383	5268
2372.369	5354
2374.353	5284
2376.338	5308
2378.321	5321
2380.307	5312
2382.29	5306
2384.272	5348
2386.254	5289
2388.235	5331
2390.218	5309
2392.198	5268
2394.179	5343
2396.157	5370
2398.137	5321
2400.115	5264
2402.095	5254
2404.072	5235
2406.048	5266
2408.026	5342
2410.001	5282
2411.977	5332
2413.953	5346
2415.927	5257
2417.9	5340
2419.875	5311
2421.847	5329
2423.821	5351
2425.792	5275
2427.763	5393
2429.736	5321
2431.706	5289
2433.677	5158
2435.646	5288
2437.615	5362
2439.583	5214
2441.551	5324
2443.519	5197
2445.486	5296
2447.452	5120
2449.418	5346
2451.383	5355
2453.348	5291
2455.314	5277
2457.278	5239
2459.241	5273
2461.205	5289
2463.167	5254
2465.131	5311
2467.091	5166
2469.052	5284
2471.012	5254
2472.972	5254
2474.932	5243
2476.891	5272
2478.85	5315
2480.808	5223
2482.766	5303
2484.722	5167
2486.68	5275
2488.636	5278
2490.591	5214
2492.546	5266
2494.5	5265
2496.456	5279
2498.41	5259
2500.362	5256
2502.315	5155
2504.266	5358
2506.218	5236
2508.169	5230
2510.121	5254
2512.07	5068
2514.019	5151
2515.968	5245
2517.918	5184
2519.866	5254
2521.813	5231
2523.76	5206
2525.707	5234
2527.653	5211
2529.599	5156
2531.543	5248
2533.489	5188
2535.433	5212
2537.376	5097
2539.32	5293
2541.264	5197
2543.205	5278
2545.147	5289
2547.087	5137
2549.029	5182
2550.969	5135
2552.908	5219
2554.847	5150
2556.786	5226
2558.724	5213
2560.663	5206
2562.6	5237
2564.537	5306
2566.473	5239
2568.408	5177
2570.345	5167
2572.28	5273
2574.214	5248
2576.148	5211
2578.081	5172
2580.014	5250
2581.947	5134
2583.879	5282
2585.81	5187
2587.741	5200
2589.67	5188
2591.602	5332
2593.532	5316
2595.461	5274
2597.388	5210
2599.316	5247
2601.244	5203
2603.172	5236
2605.098	5204
2607.023	5248
2608.949	5303
2610.873	5287
2612.8	5250
2614.723	5211
2616.647	5206
2618.569	5270
2620.493	5296
2622.416	5223
2624.338	5215
2626.258	5335
2628.179	5288
2630.099	5152
2632.019	5278
2633.939	5294
2635.857	5242
2637.775	5350
2639.694	5245
2641.61	5297
2643.528	5273
2645.444	5204
2647.361	5247
2649.276	5228
2651.19	5282
2653.105	5218
2655.019	5306
2656.934	5209
2658.846	5281
2660.758	5345
2662.67	5245
2664.583	5311
2666.493	5214
2668.404	5262
2670.313	5112
2672.223	5222
2674.134	5137
2676.042	5345
2677.95	5327
2679.858	5191
2681.765	5258
2683.673	5296
2685.579	5212
2687.483	5235
2689.389	5243
2691.294	5196
2693.198	5227
2695.104	5303
2697.006	5137
2698.909	5205
2700.811	5171
2702.713	5204
2704.615	5228
2706.516	5134
2708.417	5142
2710.316	5181
2712.216	5144
2714.115	5270
2716.014	5198
2717.913	5258
2719.81	5234
2721.707	5093
2723.603	5094
2725.501	5176
2727.396	5212
2729.292	5180
2731.186	5266
2733.081	5192
2734.976	5157
2736.87	5264
2738.762	5082
2740.653	5087
2742.546	5293
2744.437	5226
2746.329	5157
2748.22	5160
2750.11	5146
2751.999	5124
2753.889	5164
2755.778	5171
2757.666	5106
2759.553	5269
2761.44	5103
2763.328	5177
2765.215	5297
2767.101	5102
2768.986	5187
2770.87	5131
2772.754	5150
2774.638	5170
2776.523	5147
2778.405	5130
2780.288	5100
2782.17	5236
2784.051	5148
2785.934	5207
2787.814	5157
2789.694	5130
2791.574	5162
2793.453	5162
2795.332	5231
2797.212	5097
2799.088	5137
2800.966	5224
2802.843	5267
2804.719	5057
2806.597	5201
2808.471	5064
2810.346	5077
2812.221	5087
2814.094	5203
2815.969	5102
2817.843	5094
2819.714	5174
2821.587	5075
2823.459	5124
2825.329	5128
2827.202	5090
2829.072	5086
2830.942	5079
2832.811	5152
2834.68	5055
2836.549	5116
2838.418	5184
2840.284	5139
2842.152	5165
2844.018	5163
2845.885	5183
2847.751	5200
2849.616	5157
2851.482	5181
2853.345	5215
2855.208	5211
2857.074	5213
2858.937	5272
2860.799	5182
2862.66	5200
2864.522	5331
2866.385	5292
2868.245	5284
2870.104	5375
2871.964	5325
2873.824	5473
2875.683	5431
2877.542	5403
2879.4	5549
2881.257	5617
2883.114	5593
2884.97	5444
2886.827	5506
2888.683	5646
2890.537	5520
2892.392	5506
2894.246	5607
2896.1	5398
2897.954	5541
2899.807	5568
2901.66	5424
2903.51	5453
2905.362	5663
2907.214	5463
2909.065	5623
2910.915	5666
2912.765	5595
2914.613	5557
2916.463	5690
2918.311	5614
2920.158	5698
2922.006	5769
2923.853	5758
2925.698	5899
2927.546	5914
2929.392	5880
2931.236	5994
2933.081	5911
2934.924	6113
2936.77	6044
2938.613	6018
2940.455	6256
2942.298	6210
2944.139	6042
2945.982	6160
2947.823	6121
2949.662	6107
2951.503	6145
2953.342	6014
2955.182	6011
2957.021	5803
2958.858	5950
2960.697	5829
2962.534	5811
2964.37	5834
2966.207	5687
2968.044	5767
2969.879	5690
2971.714	5782
2973.548	5797
2975.383	5676
2977.218	5587
2979.051	5607
2980.883	5660
2982.715	5628
2984.547	5499
2986.379	5514
2988.21	5557
2990.04	5590
2991.87	5507
2993.7	5438
2995.53	5355
2997.359	5396
2999.187	5333
3001.015	5442
3002.842	5274
3004.669	5313
3006.497	5271
3008.323	5193
3010.148	5180
3011.974	5148
3013.797	5226
3015.623	5172
3017.447	5037
3019.27	5162
3021.094	5096
3022.915	5063
3024.737	5065
3026.56	4982
3028.38	4997
3030.201	4996
3032.022	5098
3033.84	4967
3035.662	4992
3037.481	4959
3039.298	4963
3041.117	4969
3042.933	4992
3044.752	4920
3046.568	5037
3048.385	4954
3050.2	5001
3052.016	4920
3053.83	4969
3055.646	4928
3057.46	4878
3059.272	5082
3061.086	4879
3062.898	4911
3064.711	4876
3066.524	4906
3068.335	4962
3070.145	4864
3071.956	4923
3073.766	4877
3075.576	4858
3077.385	4853
3079.193	4900
3081.002	4914
3082.81	4841
3084.618	4916
3086.425	4901
3088.231	4919
3090.036	4800
3091.842	4900
3093.648	4822
3095.452	4887
3097.257	4858
3099.06	4816
3100.863	4722
3102.666	4782
3104.47	4844
3106.272	4752
3108.073	4796
3109.875	4721
3111.676	4847
3113.477	4819
3115.277	4856
3117.077	4838
3118.874	4857
3120.673	4815
3122.473	4773
3124.271	4715
3126.066	4780
3127.863	4799
3129.66	4761
3131.456	4667
3133.252	4793
3135.047	4769
3136.842	4775
3138.635	4705
3140.429	4712
3142.223	4743
3144.016	4796
3145.808	4647
3147.6	4716
3149.392	4675
3151.183	4841
3152.975	4786
3154.765	4717
3156.553	4742
3158.344	4750
3160.132	4703
3161.922	4726
3163.71	4589
3165.497	4682
3167.285	4653
3169.071	4742
3170.858	4616
3172.645	4670
3174.429	4778
3176.214	4696
3177.998	4613
3179.783	4657
3181.568	4742
3183.351	4666
3185.133	4664
3186.915	4570
3188.698	4593
3190.481	4727
3192.261	4748
3194.042	4695
3195.822	4694
3197.601	4726
3199.381	4642
3201.161	4649
3202.939	4773
3204.717	4645
3206.495	4672
3208.272	4536
3210.05	4642
3211.826	4681
3213.602	4632
3215.376	4679
3217.151	4659
3218.927	4650
3220.702	4600
3222.476	4660
3224.249	4678
3226.021	4637
3227.793	4667
3229.567	4693
3231.339	4669
3233.109	4586
3234.88	4688
3236.651	4655
3238.421	4566
3240.191	4700
3241.96	4671
3243.728	4666
3245.497	4677
3247.263	4576
3249.033	4714
3250.799	4606
3252.566	4573
3254.331	4741
3256.097	4585
3257.863	4670
3259.628	4673
3261.392	4736
3263.156	4581
3264.919	4709
3266.683	4672
3268.447	4704
3270.208	4733
3271.969	4598
3273.731	4684
3275.492	4623
3277.253	4702
3279.013	4729
3280.773	4666
3282.532	4731
3284.291	4660
3286.05	4691
3287.808	4660
3289.566	4650
3291.323	4694
3293.079	4759
3294.835	4587
3296.593	4713
3298.348	4657
3300.102	4670
3301.857	4644
3303.611	4644
3305.366	4529
3307.119	4653
3308.872	4601
3310.624	4730
3312.376	4627
3314.129	4620
3315.881	4643
3317.631	4624
3319.38	4722
3321.13	4805
3322.88	4737
3324.631	4691
3326.379	4694
3328.126	4663
3329.875	4646
3331.622	4583
3333.371	4705
3335.116	4723
3336.863	4717
3338.609	4681
3340.353	4670
3342.1	4646
3343.845	4694
3345.588	4693
3347.332	4637
3349.074	4710
3350.817	4618
3352.56	4581
3354.303	4532
3356.043	4659
3357.785	4612
3359.525	4699
3361.268	4652
3363.007	4667
3364.745	4549
3366.485	4599
3368.223	4562
3369.962	4623
3371.701	4519
3373.438	4585
3375.174	4721
3376.911	4597
3378.647	4610
3380.384	4543
3382.118	4666
3383.854	4554
3385.588	4595
3387.322	4567
3389.057	4639
3390.79	4573
3392.522	4595
3394.255	4514
3395.987	4588
3397.719	4496
3399.451	4521
3401.181	4631
3402.911	4595
3404.641	4514
3406.371	4539
3408.101	4548
3409.83	4525
3411.558	4535
3413.285	4553
3415.011	4516
3416.739	4486
3418.467	4440
3420.193	4517
3421.919	4533
3423.644	4550
3425.368	4484
3427.094	4523
3428.818	4435
3430.542	4482
3432.264	4548
3433.987	4525
3435.712	4513
3437.434	4510
3439.155	4500
3440.876	4554
3442.596	4536
3444.317	4436
3446.039	4470
3447.757	4341
3449.477	4316
3451.195	4443
3452.914	4438
3454.632	4541
3456.35	4466
3458.067	4433
3459.784	4419
3461.5	4397
3463.216	4478
3464.932	4434
3466.647	4357
3468.362	4373
3470.076	4414
3471.789	4426
3473.505	4423
3475.217	4368
3476.929	4370
3478.641	4419
3480.354	4347
3482.066	4268
3483.777	4324
3485.487	4320
3487.197	4363
3488.908	4341
3490.617	4377
3492.327	4320
3494.035	4367
3495.743	4335
3497.451	4243
3499.158	4277
3500.866	4366
3502.572	4258
3504.278	4252
3505.984	4280
3507.689	4269
3509.396	4288
3511.1	4259
3512.804	4335
3514.508	4258
3516.211	4328
3517.913	4232
3519.616	4283
3521.319	4234
3523.021	4224
3524.722	4187
3526.422	4217
3528.124	4369
3529.824	4223
3531.524	4212
3533.222	4213
3534.921	4227
3536.62	4264
3538.318	4354
3540.016	4233
3541.714	4241
3543.41	4276
3545.107	4202
3546.803	4201
3548.5	4196
3550.194	4312
3551.889	4207
3553.583	4193
3555.279	4155
3556.972	4215
3558.666	4190
3560.358	4170
3562.051	4185
3563.742	4229
3565.435	4187
3567.126	4195
3568.817	4158
3570.507	4138
3572.197	4204
3573.888	4180
3575.577	4227
3577.265	4082
3578.954	4136
3580.642	4182
3582.329	4135
3584.017	4215
3585.704	4202
3587.391	4062
3589.077	4095
3590.762	4128
3592.449	4138
3594.133	4074
3595.817	4108
3597.501	4159
3599.185	4133
3600.869	4144
3602.552	4185
3604.234	4065
3605.916	4115
3607.598	4025
3609.279	4190
3610.961	4025
3612.642	4101
3614.321	4110
3616	4133
3617.68	4126
3619.36	4049
3621.039	4068
3622.716	4079
3624.394	4105
3626.071	4009
3627.748	4057
3629.425	4083
3631.102	4017
3632.778	3967
3634.452	4044
3636.127	4001
3637.803	4092
3639.477	4031
3641.151	4017
3642.823	3929
3644.497	3991
3646.171	4060
3647.842	4027
3649.515	3971
3651.185	3985
3652.857	3945
3654.527	3924
3656.198	3977
3657.868	3975
3659.537	4007
3661.207	4009
3662.875	4006
3664.544	3987
3666.212	3937
3667.879	3935
3669.546	3962
3671.212	3820
3672.88	3901
3674.546	3936
3676.211	3928
3677.875	3989
3679.541	3967
3681.205	3968
3682.87	3918
3684.533	3970
3686.196	3890
3687.859	3957
3689.521	3848
3691.184	3893
3692.845	3903
3694.507	3904
3696.167	3855
3697.827	3902
3699.487	3964
3701.148	3882
3702.808	3911
3704.466	3896
3706.125	3943
3707.783	3871
3709.442	3938
3711.099	3831
3712.757	3806
3714.412	3941
3716.068	3864
3717.725	3954
3719.381	3936
3721.036	3877
3722.689	3885
3724.344	3943
3725.998	3854
3727.652	3962
3729.305	3897
3730.958	3897
3732.61	3853
3734.262	3847
3735.915	3907
3737.565	3801
3739.217	3881
3740.866	3809
3742.516	3892
3744.165	3867
3745.816	3838
3747.464	3845
3749.113	3869
3750.761	3888
3752.409	3798
3754.057	3942
3755.703	3885
3757.35	3858
3758.996	3813
3760.641	3845
3762.289	3894
3763.933	3836
3765.577	3830
3767.222	3879
3768.865	3762
3770.508	3798
3772.152	3851
3773.796	3900
3775.438	3875
3777.079	3790
3778.721	3844
3780.363	3812
3782.003	3710
3783.643	3847
3785.283	3764
3786.923	3764
3788.563	3699
3790.203	3820
3791.841	3766
3793.479	3710
3795.115	3814
3796.753	3766
3798.391	3735
3800.027	3787
3801.664	3829
3803.299	3771
3804.935	3779
3806.571	3711
3808.206	3719
3809.839	3720
3811.473	3796
3813.107	3748
3814.74	3701
3816.375	3719
3818.006	3710
3819.638	3685
3821.27	3739
3822.9	3730
3824.532	3836
3826.163	3733
3827.792	3778
3829.423	3751
3831.051	3756
3832.682	3616
3834.311	3652
3835.938	3703
3837.566	3757
3839.193	3750
3840.821	3640
3842.448	3747
3844.075	3748
3845.7	3692
3847.325	3695
3848.951	3732
3850.576	3639
3852.201	3695
3853.825	3709
3855.448	3732
3857.072	3778
3858.694	3751
3860.318	3640
3861.939	3715
3863.562	3686
3865.183	3610
3866.804	3614
3868.426	3645
3870.045	3695
3871.666	3674
3873.285	3630
3874.904	3649
3876.524	3665
3878.142	3593
3879.76	3604
3881.378	3718
3882.995	3759
3884.612	3656
3886.229	3623
3887.845	3607
3889.461	3715
3891.076	3664
3892.691	3608
3894.307	3612
3895.922	3643
3897.536	3674
3899.149	3604
3900.761	3609
3902.374	3668
3903.988	3701
3905.6	3621
3907.212	3653
3908.822	3620
3910.433	3556
3912.045	3633
3913.655	3677
3915.265	3629
3916.875	3647
3918.483	3625
3920.093	3621
3921.702	3621
3923.309	3563
3924.917	3657
3926.523	3647
3928.13	3611
3929.739	3549
3931.344	3728
3932.95	3653
3934.555	3613
3936.159	3589
3937.766	3619
3939.369	3599
3940.974	3616
3942.577	3619
3944.181	3617
3945.783	3661
3947.386	3586
3948.989	3513
3950.59	3654
3952.191	3548
3953.791	3605
3955.394	3577
3956.994	3593
3958.593	3690
3960.192	3583
3961.791	3524
3963.392	3564
3964.99	3571
3966.588	3529
3968.185	3561
3969.782	3594
3971.379	3596
3972.976	3512
3974.572	3552
3976.168	3563
3977.763	3591
3979.358	3520
3980.954	3606
3982.548	3613
3984.142	3415
3985.736	3507
3987.329	3482
3988.922	3505
3990.516	3475
3992.108	3550
3993.698	3561
3995.29	3488
3996.881	3507
3998.473	3540
4000.064	3554
4001.653	3498
4003.242	3544
4004.832	3488
4006.422	3412
4008.01	3474
4009.598	3504
4011.186	3522
4012.773	3406
4014.36	3499
4015.947	3452
4017.534	3458
4019.119	3426
4020.705	3469
4022.291	3454
4023.876	3403
4025.461	3423
4027.044	3444
4028.627	3452
4030.211	3443
4031.795	3440
4033.378	3381
4034.96	3370
4036.542	3482
4038.124	3490
4039.704	3378
4041.286	3433
4042.867	3416
4044.447	3381
4046.026	3478
4047.606	3401
4049.187	3475
4050.765	3411
4052.343	3398
4053.92	3458
4055.498	3401
4057.076	3391
4058.654	3469
4060.23	3399
4061.806	3381
4063.381	3390
4064.957	3356
4066.533	3375
4068.107	3396
4069.682	3392
4071.256	3451
4072.829	3452
4074.404	3349
4075.977	3407
4077.549	3338
4079.121	3398
4080.693	3337
4082.265	3367
4083.836	3363
4085.407	3388
4086.977	3362
4088.547	3303
4090.117	3370
4091.687	3445
4093.256	3342
4094.825	3427
4096.392	3298
4097.96	3370
4099.528	3366
4101.097	3348
4102.663	3443
4104.229	3350
4105.795	3342
4107.361	3292
4108.928	3343
4110.493	3311
4112.058	3362
4113.621	3316
4115.186	3311
4116.75	3327
4118.313	3302
4119.876	3356
4121.438	3383
4123	3285
4124.562	3356
4126.125	3256
4127.686	3262
4129.246	3287
4130.807	3259
4132.367	3279
4133.927	3292
4135.486	3310
4137.046	3277
4138.604	3285
4140.162	3374
4141.72	3330
4143.279	3300
4144.836	3222
4146.393	3276
4147.949	3203
4149.505	3271
4151.062	3303
4152.617	3238
4154.172	3297
4155.727	3268
4157.281	3216
4158.836	3331
4160.39	3275
4161.943	3277
4163.496	3237
4165.048	3254
4166.601	3255
4168.154	3244
4169.706	3204
4171.257	3222
4172.808	3159
4174.358	3278
4175.909	3185
4177.458	3183
4179.008	3148
4180.558	3204
4182.106	3178
4183.655	3212
4185.204	3274
4186.751	3126
4188.298	3173
4189.845	3169
4191.392	3137
4192.939	3220
4194.485	3165
4196.031	3110
4197.576	3237
4199.121	3237
4200.666	3188
4202.211	3130
4203.754	3152
4205.298	3120
4206.84	3105
4208.384	3187
4209.927	3168
4211.47	3169
4213.011	3200
4214.552	3137
4216.094	3176
4217.635	3174
4219.175	3143
4220.716	3148
4222.255	3162
4223.793	3159
4225.335	3108
4226.873	3125
4228.411	3215
4229.948	3106
4231.486	3184
4233.024	3147
4234.562	3138
4236.098	3170
4237.634	3107
4239.169	3114
4240.705	3141
4242.241	3099
4243.776	3216
4245.31	3132
4246.844	3093
4248.378	3126
4249.911	3068
4251.445	3213
4252.978	3103
4254.51	3093
4256.042	3192
4257.574	3117
4259.107	3165
4260.638	3174
4262.169	3166
4263.699	3115
4265.228	3088
4266.759	3104
4268.289	3089
4269.818	3012
4271.345	3157
4272.874	3076
4274.402	3075
4275.931	3100
4277.458	3165
4278.985	3097
4280.512	3101
4282.037	3102
4283.564	3079
4285.089	3113
4286.615	3083
4288.139	3078
4289.664	3062
4291.187	3088
4292.712	3098
4294.235	3084
4295.759	3053
4297.281	3060
4298.804	3081
4300.327	3095
4301.849	2967
4303.37	3081
4304.891	3065
4306.412	3119
4307.933	3020
4309.453	3026
4310.973	2990
4312.492	3088
