398.1873	3217
400.7097	3268
403.2336	3196
405.7547	3306
408.2751	3305
410.7948	3261
413.3138	3198
415.83	3319
418.3497	3334
420.8666	3357
423.3829	3289
425.8985	3373
428.4133	3466
430.9275	3465
433.441	3422
435.9538	3388
438.4639	3447
440.9753	3498
443.4881	3492
445.9982	3448
448.5055	3513
451.0142	3549
453.5201	3538
456.0274	3475
458.5361	3508
461.04	3416
463.5453	3478
466.0478	3459
468.5517	3502
471.0549	3499
473.5574	3456
476.0572	3537
478.5584	3566
481.0568	3541
483.5545	3531
486.0557	3578
488.5521	3536
491.0478	3595
493.5449	3582
496.0392	3573
498.5349	3650
501.0299	3556
503.5222	3585
506.0139	3588
508.5048	3650
510.9991	3678
513.4887	3659
515.9777	3659
518.4659	3588
520.9534	3624
523.4403	3718
525.9306	3622
528.4161	3699
530.9009	3556
533.3851	3628
535.8687	3673
538.3535	3644
540.8356	3613
543.3171	3638
545.7979	3754
548.278	3661
550.7595	3643
553.2383	3642
555.7144	3634
558.1918	3592
560.6685	3623
563.1446	3666
565.6221	3686
568.0968	3723
570.5688	3779
573.0422	3761
575.515	3720
577.989	3737
580.4584	3736
582.9291	3707
585.3991	3690
587.8685	3794
590.3352	3748
592.8052	3761
595.2706	3816
597.7372	3779
600.2033	3758
602.6666	3721
605.1334	3724
607.5953	3746
610.0587	3754
612.5193	3686
614.9814	3764
617.4427	3728
619.9034	3795
622.3615	3742
624.8208	3823
627.2775	3799
629.7335	3788
632.1929	3745
634.6476	3672
637.1016	3733
639.5569	3787
642.0096	3807
644.4637	3727
646.9151	3855
649.3678	3791
651.8179	3783
654.2672	3752
656.7159	3785
659.166	3848
661.6154	3837
664.0622	3816
666.5082	3876
668.9537	3819
671.4005	3868
673.8445	3930
676.288	3855
678.7308	3882
681.1729	3803
683.6163	3900
686.0572	3777
688.4973	3917
690.9368	3919
693.3757	3934
695.8138	3937
698.2534	3930
700.6902	3901
703.1245	3857
705.56	3915
707.9949	3990
710.4311	3891
712.8647	3926
715.2957	4008
717.7279	3982
720.1595	3989
722.5905	3939
725.0208	4021
727.4505	3931
729.8795	3942
732.3058	4031
734.7336	4035
737.1626	4053
739.587	3963
742.0128	4012
744.4359	4103
746.8604	4068
749.2841	4081
751.7073	4067
754.1278	4079
756.5496	4081
758.9688	4036
761.3893	4129
763.8093	4148
766.2285	4102
768.6451	4179
771.0611	4171
773.4784	4170
775.895	4207
778.3091	4244
780.7244	4181
783.1371	4125
785.5493	4179
787.9626	4191
790.3754	4137
792.7856	4227
795.1951	4215
797.6039	4252
800.0121	4189
802.4236	4269
804.8306	4132
807.2369	4223
809.6425	4138
812.0475	4167
814.4538	4229
816.8575	4244
819.2606	4205
821.663	4245
824.0648	4221
826.4659	4234
828.8683	4198
831.2682	4147
833.6674	4215
836.066	4223
838.4639	4178
840.8632	4228
843.2579	4317
845.6539	4310
848.0493	4290
850.444	4343
852.84	4242
855.2315	4242
857.6243	4246
860.0165	4263
862.4081	4266
864.797	4300
867.1892	4251
869.5789	4220
871.9659	4273
874.3542	4286
876.74	4337
879.129	4315
881.5155	4176
883.8994	4229
886.2845	4267
888.6671	4262
891.051	4291
893.4343	4174
895.8169	4300
898.197	4298
900.5783	4224
902.9571	4284
905.3372	4281
907.7167	4260
910.0936	4298
912.4698	4415
914.8474	4369
917.2244	4356
919.5987	4316
921.9744	4326
924.3475	4366
926.72	4397
929.0918	4353
931.4669	4423
933.8375	4409
936.2074	4434
938.5767	4494
940.9454	4557
943.3154	4469
945.6829	4611
948.0497	4562
950.4178	4635
952.7833	4717
955.1483	4751
957.5145	4840
959.8782	4864
962.2412	4883
964.6036	4805
966.9655	4746
969.3266	4662
971.6871	4556
974.0471	4474
976.4064	4488
978.765	4491
981.125	4370
983.4824	4370
985.8373	4421
988.1935	4418
990.549	4431
992.9039	4429
995.2602	4363
997.6119	4314
999.965	4425
1002.317	4452
1004.667	4411
1007.02	4402
1009.371	4444
1011.719	4374
1014.068	4369
1016.415	4427
1018.765	4446
1021.111	4504
1023.458	4436
1025.804	4465
1028.147	4479
1030.49	4476
1032.837	4407
1035.179	4469
1037.522	4518
1039.862	4433
1042.204	4467
1044.546	4476
1046.884	4528
1049.224	4486
1051.562	4546
1053.899	4539
1056.237	4506
1058.575	4511
1060.91	4441
1063.244	4490
1065.58	4407
1067.913	4456
1070.248	4578
1072.579	4575
1074.911	4601
1077.242	4613
1079.572	4595
1081.905	4547
1084.234	4535
1086.562	4563
1088.89	4515
1091.217	4476
1093.544	4586
1095.871	4550
1098.197	4541
1100.521	4459
1102.845	4549
1105.169	4674
1107.491	4567
1109.814	4555
1112.135	4474
1114.456	4518
1116.776	4585
1119.096	4613
1121.415	4619
1123.734	4626
1126.052	4568
1128.369	4487
1130.686	4607
1133.002	4583
1135.318	4599
1137.632	4547
1139.945	4543
1142.258	4542
1144.573	4556
1146.884	4560
1149.196	4605
1151.505	4576
1153.816	4531
1156.124	4656
1158.435	4599
1160.742	4635
1163.051	4520
1165.356	4624
1167.663	4499
1169.97	4530
1172.276	4629
1174.579	4541
1176.881	4629
1179.186	4636
1181.487	4634
1183.79	4638
1186.092	4598
1188.392	4565
1190.691	4595
1192.991	4583
1195.291	4618
1197.588	4709
1199.885	4621
1202.181	4602
1204.479	4643
1206.775	4581
1209.07	4586
1211.363	4647
1213.656	4617
1215.949	4632
1218.241	4724
1220.534	4665
1222.825	4608
1225.115	4738
1227.405	4705
1229.693	4717
1231.984	4693
1234.271	4736
1236.558	4697
1238.845	4720
1241.131	4847
1243.416	4738
1245.703	4754
1247.987	4768
1250.269	4733
1252.552	4699
1254.834	4637
1257.118	4695
1259.399	4715
1261.678	4684
1263.958	4734
1266.237	4835
1268.516	4701
1270.794	4647
1273.072	4651
1275.347	4723
1277.624	4630
1279.899	4808
1282.175	4701
1284.449	4680
1286.722	4766
1288.995	4670
1291.266	4700
1293.54	4744
1295.81	4729
1298.081	4715
1300.35	4735
1302.62	4694
1304.889	4596
1307.156	4790
1309.425	4711
1311.69	4809
1313.957	4698
1316.222	4754
1318.488	4749
1320.751	4746
1323.016	4777
1325.278	4708
1327.54	4666
1329.803	4754
1332.065	4717
1334.325	4716
1336.584	4864
1338.843	4682
1341.101	4645
1343.36	4723
1345.617	4751
1347.876	4701
1350.131	4741
1352.387	4791
1354.643	4765
1356.897	4726
1359.151	4729
1361.403	4790
1363.656	4730
1365.909	4747
1368.16	4702
1370.409	4773
1372.659	4715
1374.909	4767
1377.157	4719
1379.407	4732
1381.655	4747
1383.9	4782
1386.147	4765
1388.393	4767
1390.64	4760
1392.885	4898
1395.127	4864
1397.37	4713
1399.614	4906
1401.854	4792
1404.098	4882
1406.339	4735
1408.578	4823
1410.818	4911
1413.056	4814
1415.297	4931
1417.533	4876
1419.771	4845
1422.006	4876
1424.243	4916
1426.479	4825
1428.715	4872
1430.948	4912
1433.182	4963
1435.414	4955
1437.647	4909
1439.88	4930
1442.11	4922
1444.342	4839
1446.571	4890
1448.799	4912
1451.029	4890
1453.258	5036
1455.485	4948
1457.711	4974
1459.937	5003
1462.164	4887
1464.39	4897
1466.614	5006
1468.838	4902
1471.06	4912
1473.283	4835
1475.506	4921
1477.727	4864
1479.949	4835
1482.169	4879
1484.389	4777
1486.609	4871
1488.828	4842
1491.045	4827
1493.261	4831
1495.477	4753
1497.693	4847
1499.91	4792
1502.125	4759
1504.339	4876
1506.553	4776
1508.766	4773
1510.979	4781
1513.191	4755
1515.402	4803
1517.613	4791
1519.823	4800
1522.033	4805
1524.242	4907
1526.451	4780
1528.657	4763
1530.865	4858
1533.072	4771
1535.278	4795
1537.484	4767
1539.687	4785
1541.892	4841
1544.096	4871
1546.299	4906
1548.502	4901
1550.703	4856
1552.905	4868
1555.104	4873
1557.303	4923
1559.505	4917
1561.703	4897
1563.902	4812
1566.099	4962
1568.295	4914
1570.494	4900
1572.689	4955
1574.883	4933
1577.079	4916
1579.272	4962
1581.467	4889
1583.659	4993
1585.853	4934
1588.044	5010
1590.234	5003
1592.424	4976
1594.615	5035
1596.806	5000
1598.994	4997
1601.182	4991
1603.369	4924
1605.557	4901
1607.744	5035
1609.929	5028
1612.114	4957
1614.298	5041
1616.482	5035
1618.667	5025
1620.85	5015
1623.032	4964
1625.214	5019
1627.395	5023
1629.575	4966
1631.755	5059
1633.935	5117
1636.114	5111
1638.292	4971
1640.471	5057
1642.647	5060
1644.823	5060
1647	4961
1649.175	4978
1651.348	5131
1653.525	5051
1655.698	5066
1657.87	5132
1660.043	5135
1662.213	5070
1664.387	5032
1666.558	5070
1668.727	5018
1670.896	5090
1673.064	5057
1675.233	5049
1677.401	5045
1679.569	5062
1681.735	5021
1683.902	5053
1686.066	5063
1688.233	5013
1690.397	5109
1692.559	5004
1694.723	5036
1696.885	5115
1699.048	5015
1701.21	5013
1703.37	5051
1705.53	5098
1707.689	5013
1709.849	5088
1712.009	5046
1714.166	5063
1716.323	5018
1718.479	4958
1720.634	4970
1722.793	5055
1724.948	4965
1727.102	5001
1729.255	5021
1731.408	5084
1733.562	4994
1735.714	5036
1737.865	5099
1740.016	5039
1742.166	5097
1744.316	5088
1746.467	4903
1748.616	5010
1750.764	5075
1752.911	5155
1755.056	5116
1757.205	5057
1759.35	5107
1761.496	4997
1763.641	5078
1765.785	5023
1767.927	5187
1770.072	5022
1772.214	5141
1774.355	4971
1776.496	5125
1778.637	5078
1780.778	5099
1782.918	5012
1785.057	5103
1787.194	5193
1789.333	5048
1791.472	5063
1793.608	5041
1795.745	5024
1797.879	5122
1800.015	5128
1802.148	5042
1804.284	5080
1806.417	5136
1808.548	5035
1810.682	5146
1812.812	5191
1814.946	4933
1817.075	5171
1819.205	5110
1821.335	5073
1823.463	5091
1825.59	5098
1827.721	5199
1829.847	5125
1831.973	5082
1834.098	5023
1836.223	5119
1838.351	5087
1840.475	5088
1842.598	5147
1844.721	5068
1846.843	5083
1848.966	5060
1851.087	5103
1853.21	5057
1855.33	5073
1857.449	5074
1859.568	4967
1861.688	5133
1863.806	4990
1865.924	5027
1868.039	5132
1870.155	5156
1872.273	5070
1874.388	5076
1876.503	5102
1878.617	5019
1880.73	5092
1882.844	5034
1884.956	5082
1887.068	5166
1889.18	5171
1891.291	5168
1893.4	5095
1895.511	5194
1897.621	5150
1899.73	5181
1901.837	5169
1903.944	5237
1906.053	5113
1908.159	5192
1910.265	5147
1912.369	5127
1914.474	5188
1916.577	5150
1918.683	5167
1920.785	5137
1922.888	5120
1924.989	5189
1927.091	5223
1929.193	5174
1931.294	5105
1933.393	5223
1935.493	5162
1937.59	5182
1939.689	5143
1941.788	5277
1943.884	5136
1945.98	5214
1948.077	5218
1950.171	5151
1952.267	5251
1954.361	5293
1956.455	5176
1958.548	5184
1960.64	5173
1962.733	5115
1964.824	5171
1966.915	5216
1969.005	5078
1971.096	5074
1973.185	5231
1975.275	5192
1977.363	5231
1979.45	5181
1981.537	5150
1983.623	5196
1985.711	5137
1987.796	5240
1989.881	5223
1991.965	5204
1994.047	5082
1996.132	5156
1998.215	5156
2000.297	5211
2002.378	5149
2004.46	5168
2006.54	5156
2008.62	5167
2010.7	5205
2012.779	5153
2014.858	5150
2016.934	5175
2019.013	5118
2021.09	5196
2023.165	5076
2025.241	5131
2027.317	5178
2029.39	5142
2031.466	5097
2033.538	5135
2035.612	5137
2037.683	5193
2039.755	5163
2041.827	5227
2043.898	5213
2045.968	5181
2048.038	5159
2050.106	5185
2052.177	5176
2054.244	5244
2056.313	5237
2058.379	5183
2060.444	5215
2062.511	5180
2064.577	5194
2066.641	5157
2068.705	5125
2070.77	5223
2072.832	5214
2074.896	5154
2076.958	5189
2079.02	5113
2081.081	5204
2083.141	5235
2085.2	5258
2087.261	5205
2089.319	5261
2091.377	5191
2093.435	5147
2095.492	5223
2097.552	5233
2099.607	5072
2101.663	5215
2103.718	5143
2105.771	5197
2107.826	5212
2109.879	5220
2111.932	5088
2113.985	5177
2116.037	5289
2118.088	5180
2120.141	5224
2122.191	5171
2124.239	5082
2126.288	5305
2128.337	5237
2130.387	5278
2132.434	5234
2134.481	5148
2136.528	5189
2138.574	5235
2140.618	5249
2142.665	5277
2144.71	5194
2146.753	5136
2148.797	5186
2150.838	5186
2152.883	5221
2154.923	5179
2156.965	5122
2159.007	5090
2161.046	5146
2163.086	5252
2165.126	5181
2167.163	5175
2169.202	5098
2171.239	5172
2173.277	5251
2175.314	5093
2177.349	5125
2179.385	5212
2181.42	5098
2183.453	5125
2185.49	5145
2187.522	5182
2189.555	5172
2191.586	5127
2193.619	5157
2195.651	5026
2197.682	5062
2199.711	5169
2201.74	5098
2203.769	5063
2205.799	5075
2207.828	5079
2209.855	5141
2211.882	5012
2213.908	5017
2215.934	5050
2217.961	5010
2219.986	5067
2222.01	5097
2224.034	5079
2226.057	5073
2228.08	5122
2230.104	5095
2232.124	5181
2234.145	5075
2236.166	5103
2238.186	5007
2240.207	5068
2242.227	5133
2244.244	5155
2246.262	5152
2248.28	5064
2250.299	5171
2252.314	5095
2254.33	5115
2256.346	5050
2258.36	5071
2260.375	5044
2262.391	5132
2264.403	5109
2266.416	5035
2268.427	5129
2270.44	5171
2272.453	5130
2274.463	5140
2276.474	5111
2278.483	5136
2280.493	5088
2282.501	5187
2284.51	5173
2286.518	5072
2288.524	5045
2290.532	5091
2292.537	5153
2294.544	5085
2296.55	5052
2298.554	5054
2300.557	5123
2302.562	5036
2304.566	5078
2306.568	5051
2308.569	5040
2310.572	5229
2312.573	5157
2314.573	5055
2316.574	5122
2318.573	5164
2320.571	5127
2322.571	5041
2324.569	5094
2326.567	4982
2328.564	5123
2330.56	5037
2332.556	5138
2334.551	5057
2336.546	5137
2338.542	5000
2340.535	5113
2342.529	4952
2344.521	5025
2346.512	5011
2348.505	5092
2350.497	5064
2352.487	5014
2354.478	5030
2356.468	5031
2358.457	5087
2360.446	5065
2362.434	4953
2364.422	4933
2366.408	4898
2368.395	4999
2370.383	5097
2372.369	4977
2374.353	5010
2376.338	4995
2378.321	5034
2380.307	5081
2382.29	5019
2384.272	4952
2386.254	5059
2388.235	5008
2390.218	4885
2392.198	4961
2394.179	4987
2396.157	4902
2398.137	5127
2400.115	4979
2402.095	4902
2404.072	5060
2406.048	5004
2408.026	4928
2410.001	4926
2411.977	4972
2413.953	4995
2415.927	5062
2417.9	5005
2419.875	5006
2421.847	5022
2423.821	5069
2425.792	4938
2427.763	4964
2429.736	5000
2431.706	4957
2433.677	4864
2435.646	5005
2437.615	4981
2439.583	4983
2441.551	5109
2443.519	4950
2445.486	4899
2447.452	5009
2449.418	4991
2451.383	5011
2453.348	4925
2455.314	5007
2457.278	5004
2459.241	4934
2461.205	4936
2463.167	4979
2465.131	4936
2467.091	4930
2469.052	4943
2471.012	4919
2472.972	4939
2474.932	4896
2476.891	5020
2478.85	4888
2480.808	4897
2482.766	5050
2484.722	5042
2486.68	4914
2488.636	4923
2490.591	4954
2492.546	4993
2494.5	4955
2496.456	5001
2498.41	4953
2500.362	4894
2502.315	4902
2504.266	4976
2506.218	4869
2508.169	4863
2510.121	4920
2512.07	4937
2514.019	4921
2515.968	4983
2517.918	4842
2519.866	4973
2521.813	4830
2523.76	4980
2525.707	4890
2527.653	4902
2529.599	4848
2531.543	4956
2533.489	4782
2535.433	4885
2537.376	4855
2539.32	4933
2541.264	4891
2543.205	4881
2545.147	4900
2547.087	4890
2549.029	4870
2550.969	4862
2552.908	4901
2554.847	4972
2556.786	4918
2558.724	4839
2560.663	4908
2562.6	4933
2564.537	4870
2566.473	4812
2568.408	4870
2570.345	4855
2572.28	4968
2574.214	4911
2576.148	4885
2578.081	4971
2580.014	5043
2581.947	4895
2583.879	5011
2585.81	4803
2587.741	4909
2589.67	4903
2591.602	4869
2593.532	4851
2595.461	4924
2597.388	5086
2599.316	4861
2601.244	4812
2603.172	5020
2605.098	4978
2607.023	4933
2608.949	4954
2610.873	4877
2612.8	4862
2614.723	4905
2616.647	4977
2618.569	4906
2620.493	4983
2622.416	4891
2624.338	4941
2626.258	4874
2628.179	4942
2630.099	4854
2632.019	4977
2633.939	4842
2635.857	4968
2637.775	5050
2639.694	4913
2641.61	4893
2643.528	4998
2645.444	4932
2647.361	4933
2649.276	4954
2651.19	4972
2653.105	4904
2655.019	4894
2656.934	4896
2658.846	4960
2660.758	4967
2662.67	5000
2664.583	4864
2666.493	4921
2668.404	4959
2670.313	4895
2672.223	4821
2674.134	4898
2676.042	4929
2677.95	4831
2679.858	4833
2681.765	4926
2683.673	4905
2685.579	4885
2687.483	4917
2689.389	4945
2691.294	4851
2693.198	4849
2695.104	4927
2697.006	4921
2698.909	4791
2700.811	4846
2702.713	4922
2704.615	4866
2706.516	4816
2708.417	4882
2710.316	4831
2712.216	4805
2714.115	4873
2716.014	4836
2717.913	4856
2719.81	4879
2721.707	4837
2723.603	4844
2725.501	4898
2727.396	4845
2729.292	4814
2731.186	4806
2733.081	4899
2734.976	4929
2736.87	4896
2738.762	4878
2740.653	4806
2742.546	4951
2744.437	4749
2746.329	4793
2748.22	4801
2750.11	4838
2751.999	4842
2753.889	4784
2755.778	4726
2757.666	4796
2759.553	4739
2761.44	4774
2763.328	4774
2765.215	4859
2767.101	4759
2768.986	4804
2770.87	4752
2772.754	4821
2774.638	4868
2776.523	4919
2778.405	4704
2780.288	4766
2782.17	4801
2784.051	4798
2785.934	4815
2787.814	4809
2789.694	4812
2791.574	4799
2793.453	4794
2795.332	4775
2797.212	4798
2799.088	4635
2800.966	4726
2802.843	4696
2804.719	4703
2806.597	4695
2808.471	4832
2810.346	4856
2812.221	4736
2814.094	4794
2815.969	4761
2817.843	4693
2819.714	4826
2821.587	4729
2823.459	4761
2825.329	4796
2827.202	4767
2829.072	4805
2830.942	4702
2832.811	4692
2834.68	4776
2836.549	4781
2838.418	4803
2840.284	4794
2842.152	4768
2844.018	4651
2845.885	4657
2847.751	4804
2849.616	4733
2851.482	4705
2853.345	4779
2855.208	4758
2857.074	4742
2858.937	4760
2860.799	4753
2862.66	4840
2864.522	4779
2866.385	4734
2868.245	4855
2870.104	4901
2871.964	4858
2873.824	4847
2875.683	4887
2877.542	4827
2879.4	4946
2881.257	4844
2883.114	4940
2884.97	4878
2886.827	4921
2888.683	4968
2890.537	4893
2892.392	4921
2894.246	4915
2896.1	4852
2897.954	4892
2899.807	4834
2901.66	4842
2903.51	4937
2905.362	4852
2907.214	4876
2909.065	4840
2910.915	4845
2912.765	4838
2914.613	4918
2916.463	4915
2918.311	4879
2920.158	4958
2922.006	4980
2923.853	4927
2925.698	4909
2927.546	5016
2929.392	5058
2931.236	5136
2933.081	5080
2934.924	5031
2936.77	5076
2938.613	5024
2940.455	5215
2942.298	5153
2944.139	5046
2945.982	5198
2947.823	5142
2949.662	5085
2951.503	5219
2953.342	5063
2955.182	5064
2957.021	5036
2958.858	5085
2960.697	4885
2962.534	5039
2964.37	5048
2966.207	4895
2968.044	4918
2969.879	4879
2971.714	4938
2973.548	4857
2975.383	4916
2977.218	4833
2979.051	4963
2980.883	4791
2982.715	4909
2984.547	4826
2986.379	4844
2988.21	4772
2990.04	4783
2991.87	4752
2993.7	4654
2995.53	4731
2997.359	4711
2999.187	4727
3001.015	4691
3002.842	4703
3004.669	4652
3006.497	4740
3008.323	4661
3010.148	4650
3011.974	4652
3013.797	4640
3015.623	4573
3017.447	4582
3019.27	4489
3021.094	4509
3022.915	4579
3024.737	4573
3026.56	4567
3028.38	4642
3030.201	4525
3032.022	4598
3033.84	4554
3035.662	4538
3037.481	4619
3039.298	4518
3041.117	4527
3042.933	4525
3044.752	4528
3046.568	4533
3048.385	4557
3050.2	4550
3052.016	4574
3053.83	4492
3055.646	4507
3057.46	4521
3059.272	4587
3061.086	4474
3062.898	4512
3064.711	4529
3066.524	4513
3068.335	4436
3070.145	4503
3071.956	4502
3073.766	4460
3075.576	4468
3077.385	4505
3079.193	4543
3081.002	4488
3082.81	4377
3084.618	4552
3086.425	4447
3088.231	4532
3090.036	4525
3091.842	4460
3093.648	4379
3095.452	4417
3097.257	4430
3099.06	4353
3100.863	4411
3102.666	4341
3104.47	4459
3106.272	4406
3108.073	4433
3109.875	4373
3111.676	4423
3113.477	4295
3115.277	4386
3117.077	4393
3118.874	4363
3120.673	4355
3122.473	4378
3124.271	4394
3126.066	4370
3127.863	4437
3129.66	4406
3131.456	4367
3133.252	4390
3135.047	4352
3136.842	4428
3138.635	4256
3140.429	4311
3142.223	4330
3144.016	4387
3145.808	4237
3147.6	4366
3149.392	4288
3151.183	4305
3152.975	4354
3154.765	4307
3156.553	4254
3158.344	4281
3160.132	4369
3161.922	4305
3163.71	4263
3165.497	4298
3167.285	4323
3169.071	4227
3170.858	4252
3172.645	4401
3174.429	4261
3176.214	4280
3177.998	4247
3179.783	4334
3181.568	4287
3183.351	4166
3185.133	4238
3186.915	4249
3188.698	4270
3190.481	4242
3192.261	4213
3194.042	4307
3195.822	4253
3197.601	4273
3199.381	4259
3201.161	4251
3202.939	4249
3204.717	4183
3206.495	4253
3208.272	4181
3210.05	4286
3211.826	4259
3213.602	4237
3215.376	4187
3217.151	4283
3218.927	4125
3220.702	4257
3222.476	4211
3224.249	4175
3226.021	4262
3227.793	4231
3229.567	4240
3231.339	4185
3233.109	4176
3234.88	4110
3236.651	4216
3238.421	4204
3240.191	4214
3241.96	4191
3243.728	4260
3245.497	4094
3247.263	4264
3249.033	4115
3250.799	4182
3252.566	4178
3254.331	4181
3256.097	4142
3257.863	4070
3259.628	4202
3261.392	4244
3263.156	4197
3264.919	4104
3266.683	4165
3268.447	4142
3270.208	4177
3271.969	4169
3273.731	4183
3275.492	4254
3277.253	4221
3279.013	4256
3280.773	4180
3282.532	4211
3284.291	4274
3286.05	4182
3287.808	4127
3289.566	4182
3291.323	4149
3293.079	4251
3294.835	4137
3296.593	4148
3298.348	4140
3300.102	4275
3301.857	4090
3303.611	4116
3305.366	4150
3307.119	4092
3308.872	4148
3310.624	4206
3312.376	4205
3314.129	4091
3315.881	4108
3317.631	4161
3319.38	4096
3321.13	4113
3322.88	4190
3324.631	4214
3326.379	4095
3328.126	4118
3329.875	4175
3331.622	4094
3333.371	4136
3335.116	4076
3336.863	4138
3338.609	4123
3340.353	4076
3342.1	4087
3343.845	4096
3345.588	4053
3347.332	4177
3349.074	4048
3350.817	4105
3352.56	4123
3354.303	4197
3356.043	4043
3357.785	3997
3359.525	4128
3361.268	4006
3363.007	4128
3364.745	4073
3366.485	4061
3368.223	4015
3369.962	4075
3371.701	4072
3373.438	3961
3375.174	4024
3376.911	4121
3378.647	3999
3380.384	4038
3382.118	4025
3383.854	4050
3385.588	4062
3387.322	4071
3389.057	4022
3390.79	4102
3392.522	4030
3394.255	4135
3395.987	4092
3397.719	3956
3399.451	4053
3401.181	4076
3402.911	4020
3404.641	4169
3406.371	3989
3408.101	4020
3409.83	4017
3411.558	3960
3413.285	3924
3415.011	3939
3416.739	4007
3418.467	4020
3420.193	3989
3421.919	4097
3423.644	3927
3425.368	3971
3427.094	4083
3428.818	4022
3430.542	4025
3432.264	3983
3433.987	4028
3435.712	4025
3437.434	3878
3439.155	3957
3440.876	3882
3442.596	3918
3444.317	3886
3446.039	3937
3447.757	3928
3449.477	4040
3451.195	3941
3452.914	4006
3454.632	3914
3456.35	4007
3458.067	3860
3459.784	3948
3461.5	3941
3463.216	3907
3464.932	3910
3466.647	3863
3468.362	3877
3470.076	4008
3471.789	3896
3473.505	3921
3475.217	3904
3476.929	3890
3478.641	3845
3480.354	3887
3482.066	3965
3483.777	3867
3485.487	3908
3487.197	3926
3488.908	3848
3490.617	3870
3492.327	3773
3494.035	3775
3495.743	3889
3497.451	3883
3499.158	3781
3500.866	3829
3502.572	3791
3504.278	3802
3505.984	3935
3507.689	3744
3509.396	3870
3511.1	3898
3512.804	3834
3514.508	3842
3516.211	3759
3517.913	3849
3519.616	3859
3521.319	3864
3523.021	3869
3524.722	3809
3526.422	3762
3528.124	3764
3529.824	3758
3531.524	3792
3533.222	3836
3534.921	3734
3536.62	3968
3538.318	3681
3540.016	3779
3541.714	3709
3543.41	3767
3545.107	3765
3546.803	3807
3548.5	3779
3550.194	3767
3551.889	3722
3553.583	3836
3555.279	3735
3556.972	3717
3558.666	3733
3560.358	3791
3562.051	3741
3563.742	3697
3565.435	3712
3567.126	3727
3568.817	3789
3570.507	3743
3572.197	3697
3573.888	3789
3575.577	3746
3577.265	3748
3578.954	3826
3580.642	3645
3582.329	3718
3584.017	3673
3585.704	3668
3587.391	3719
3589.077	3679
3590.762	3699
3592.449	3712
3594.133	3678
3595.817	3688
3597.501	3674
3599.185	3668
3600.869	3610
3602.552	3573
3604.234	3639
3605.916	3670
3607.598	3618
3609.279	3668
3610.961	3662
3612.642	3654
3614.321	3582
3616	3653
3617.68	3646
3619.36	3572
3621.039	3629
3622.716	3580
3624.394	3663
3626.071	3565
3627.748	3651
3629.425	3646
3631.102	3610
3632.778	3560
3634.452	3671
3636.127	3668
3637.803	3633
3639.477	3556
3641.151	3613
3642.823	3501
3644.497	3677
3646.171	3568
3647.842	3522
3649.515	3546
3651.185	3531
3652.857	3512
3654.527	3650
3656.198	3505
3657.868	3527
3659.537	3542
3661.207	3584
3662.875	3522
3664.544	3604
3666.212	3524
3667.879	3595
3669.546	3604
3671.212	3464
3672.88	3511
3674.546	3541
3676.211	3483
3677.875	3566
3679.541	3470
3681.205	3653
3682.87	3496
3684.533	3446
3686.196	3542
3687.859	3527
3689.521	3568
3691.184	3481
3692.845	3496
3694.507	3513
3696.167	3478
3697.827	3499
3699.487	3425
3701.148	3420
3702.808	3464
3704.466	3465
3706.125	3522
3707.783	3451
3709.442	3461
3711.099	3560
3712.757	3573
3714.412	3501
3716.068	3452
3717.725	3501
3719.381	3421
3721.036	3434
3722.689	3542
3724.344	3493
3725.998	3338
3727.652	3489
3729.305	3510
3730.958	3487
3732.61	3443
3734.262	3392
3735.915	3407
3737.565	3522
3739.217	3343
3740.866	3475
3742.516	3435
3744.165	3425
3745.816	3413
3747.464	3396
3749.113	3465
3750.761	3439
3752.409	3388
3754.057	3440
3755.703	3341
3757.35	3405
3758.996	3341
3760.641	3420
3762.289	3349
3763.933	3407
3765.577	3401
3767.222	3398
3768.865	3420
3770.508	3462
3772.152	3364
3773.796	3375
3775.438	3386
3777.079	3384
3778.721	3365
3780.363	3434
3782.003	3346
3783.643	3375
3785.283	3417
3786.923	3300
3788.563	3329
3790.203	3321
3791.841	3344
3793.479	3373
3795.115	3386
3796.753	3391
3798.391	3286
3800.027	3317
3801.664	3216
3803.299	3270
3804.935	3340
3806.571	3338
3808.206	3321
3809.839	3328
3811.473	3372
3813.107	3282
3814.74	3340
3816.375	3282
3818.006	3269
3819.638	3239
3821.27	3237
3822.9	3274
3824.532	3209
3826.163	3380
3827.792	3301
3829.423	3291
3831.051	3287
3832.682	3297
3834.311	3264
3835.938	3263
3837.566	3293
3839.193	3276
3840.821	3244
3842.448	3241
3844.075	3283
3845.7	3298
3847.325	3269
3848.951	3296
3850.576	3255
3852.201	3268
3853.825	3276
3855.448	3188
3857.072	3237
3858.694	3259
3860.318	3231
3861.939	3259
3863.562	3216
3865.183	3293
3866.804	3231
3868.426	3221
3870.045	3270
3871.666	3217
3873.285	3257
3874.904	3215
3876.524	3254
3878.142	3217
3879.76	3228
3881.378	3287
3882.995	3189
3884.612	3104
3886.229	3203
3887.845	3199
3889.461	3198
3891.076	3169
3892.691	3152
3894.307	3211
3895.922	3194
3897.536	3241
3899.149	3185
3900.761	3157
3902.374	3151
3903.988	3176
3905.6	3154
3907.212	3159
3908.822	3195
3910.433	3247
3912.045	3175
3913.655	3247
3915.265	3143
3916.875	3196
3918.483	3168
3920.093	3117
3921.702	3093
3923.309	3123
3924.917	3152
3926.523	3129
3928.13	3139
3929.739	3205
3931.344	3145
3932.95	3186
3934.555	3138
3936.159	3120
3937.766	3210
3939.369	3163
3940.974	3169
3942.577	3138
3944.181	3090
3945.783	3086
3947.386	3109
3948.989	3065
3950.59	3095
3952.191	3061
3953.791	3107
3955.394	3092
3956.994	3104
3958.593	3084
3960.192	3130
3961.791	3126
3963.392	3027
3964.99	3044
3966.588	3086
3968.185	3087
3969.782	3129
3971.379	3137
3972.976	3069
3974.572	3021
3976.168	3026
3977.763	3028
3979.358	3056
3980.954	3008
3982.548	3103
3984.142	3047
3985.736	3078
3987.329	3067
3988.922	3052
3990.516	2977
3992.108	3029
3993.698	3008
3995.29	3066
3996.881	3021
3998.473	3044
4000.064	3042
4001.653	3090
4003.242	3020
4004.832	2982
4006.422	2974
4008.01	2985
4009.598	3032
4011.186	3003
4012.773	3102
4014.36	2985
4015.947	2897
4017.534	2991
4019.119	2938
4020.705	3054
4022.291	2995
4023.876	2942
4025.461	2961
4027.044	3017
4028.627	2935
4030.211	2937
4031.795	2936
4033.378	2942
4034.96	2939
4036.542	2860
4038.124	2887
4039.704	2949
4041.286	2885
4042.867	2949
4044.447	2894
4046.026	2902
4047.606	2948
4049.187	2912
4050.765	2905
4052.343	2867
4053.92	2946
4055.498	2918
4057.076	2939
4058.654	2967
4060.23	2904
4061.806	2825
4063.381	2824
4064.957	2964
4066.533	2839
4068.107	2957
4069.682	2897
4071.256	2868
4072.829	2887
4074.404	2830
4075.977	2850
4077.549	2875
4079.121	2911
4080.693	2869
4082.265	2830
4083.836	2890
4085.407	2814
4086.977	2937
4088.547	2797
4090.117	2918
4091.687	2802
4093.256	2866
4094.825	2840
4096.392	2884
4097.96	2870
4099.528	2833
4101.097	2823
4102.663	2807
4104.229	2824
4105.795	2803
4107.361	2861
4108.928	2754
4110.493	2811
4112.058	2812
4113.621	2828
4115.186	2830
4116.75	2869
4118.313	2797
4119.876	2795
4121.438	2803
4123	2816
4124.562	2817
4126.125	2759
4127.686	2736
4129.246	2776
4130.807	2764
4132.367	2771
4133.927	2679
4135.486	2765
4137.046	2780
4138.604	2777
4140.162	2747
4141.72	2776
4143.279	2769
4144.836	2796
4146.393	2813
4147.949	2738
4149.505	2743
4151.062	2793
4152.617	2790
4154.172	2742
4155.727	2736
4157.281	2732
4158.836	2742
4160.39	2716
4161.943	2726
4163.496	2707
4165.048	2714
4166.601	2729
4168.154	2738
4169.706	2733
4171.257	2654
4172.808	2711
4174.358	2725
4175.909	2733
4177.458	2696
4179.008	2730
4180.558	2701
4182.106	2661
4183.655	2675
4185.204	2646
4186.751	2684
4188.298	2710
4189.845	2676
4191.392	2583
4192.939	2681
4194.485	2714
4196.031	2683
4197.576	2696
4199.121	2577
4200.666	2658
4202.211	2679
4203.754	2698
4205.298	2589
4206.84	2668
4208.384	2728
4209.927	2635
4211.47	2686
4213.011	2601
4214.552	2731
4216.094	2646
4217.635	2680
4219.175	2655
4220.716	2593
4222.255	2658
4223.793	2633
4225.335	2674
4226.873	2601
4228.411	2679
4229.948	2676
4231.486	2600
4233.024	2562
4234.562	2539
4236.098	2646
4237.634	2633
4239.169	2529
4240.705	2607
4242.241	2557
4243.776	2600
4245.31	2600
4246.844	2574
4248.378	2602
4249.911	2657
4251.445	2601
4252.978	2618
4254.51	2545
4256.042	2547
4257.574	2566
4259.107	2598
4260.638	2567
4262.169	2544
4263.699	2576
4265.228	2561
4266.759	2552
4268.289	2550
4269.818	2562
4271.345	2574
4272.874	2557
4274.402	2554
4275.931	2637
4277.458	2534
4278.985	2576
4280.512	2529
4282.037	2536
4283.564	2595
4285.089	2601
4286.615	2511
4288.139	2599
4289.664	2555
4291.187	2519
4292.712	2568
4294.235	2518
4295.759	2519
4297.281	2531
4298.804	2486
4300.327	2481
4301.849	2554
4303.37	2538
4304.891	2499
4306.412	2495
4307.933	2531
4309.453	2555
4310.973	2468
4312.492	2446
