398.1873	2998
400.7097	3023
403.2336	3047
405.7547	2992
408.2751	2993
410.7948	3051
413.3138	2968
415.83	3037
418.3497	3058
420.8666	3084
423.3829	3125
425.8985	3118
428.4133	3159
430.9275	3144
433.441	3144
435.9538	3099
438.4639	3174
440.9753	3154
443.4881	3264
445.9982	3210
448.5055	3179
451.0142	3107
453.5201	3241
456.0274	3210
458.5361	3223
461.04	3245
463.5453	3163
466.0478	3246
468.5517	3260
471.0549	3210
473.5574	3160
476.0572	3152
478.5584	3278
481.0568	3255
483.5545	3257
486.0557	3237
488.5521	3291
491.0478	3306
493.5449	3318
496.0392	3314
498.5349	3307
501.0299	3362
503.5222	3291
506.0139	3259
508.5048	3325
510.9991	3378
513.4887	3309
515.9777	3336
518.4659	3363
520.9534	3350
523.4403	3335
525.9306	3312
528.4161	3311
530.9009	3371
533.3851	3288
535.8687	3343
538.3535	3355
540.8356	3337
543.3171	3269
545.7979	3410
548.278	3385
550.7595	3368
553.2383	3331
555.7144	3435
558.1918	3385
560.6685	3305
563.1446	3436
565.6221	3391
568.0968	3390
570.5688	3330
573.0422	3534
575.515	3384
577.989	3378
580.4584	3382
582.9291	3397
585.3991	3349
587.8685	3461
590.3352	3458
592.8052	3442
595.2706	3386
597.7372	3462
600.2033	3488
602.6666	3467
605.1334	3490
607.5953	3358
610.0587	3497
612.5193	3462
614.9814	3501
617.4427	3400
619.9034	3442
622.3615	3361
624.8208	3476
627.2775	3484
629.7335	3449
632.1929	3453
634.6476	3414
637.1016	3377
639.5569	3415
642.0096	3476
644.4637	3477
646.9151	3471
649.3678	3533
651.8179	3484
654.2672	3488
656.7159	3474
659.166	3482
661.6154	3590
664.0622	3589
666.5082	3489
668.9537	3584
671.4005	3496
673.8445	3565
676.288	3457
678.7308	3572
681.1729	3532
683.6163	3500
686.0572	3657
688.4973	3572
690.9368	3542
693.3757	3638
695.8138	3594
698.2534	3695
700.6902	3604
703.1245	3594
705.56	3569
707.9949	3603
710.4311	3609
712.8647	3660
715.2957	3666
717.7279	3671
720.1595	3601
722.5905	3661
725.0208	3634
727.4505	3707
729.8795	3657
732.3058	3655
734.7336	3614
737.1626	3690
739.587	3647
742.0128	3756
744.4359	3701
746.8604	3780
749.2841	3737
751.7073	3795
754.1278	3769
756.5496	3731
758.9688	3709
761.3893	3801
763.8093	3792
766.2285	3805
768.6451	3808
771.0611	3753
773.4784	3782
775.895	3767
778.3091	3703
780.7244	3808
783.1371	3874
785.5493	3849
787.9626	3828
790.3754	3844
792.7856	3880
795.1951	3744
797.6039	3732
800.0121	3783
802.4236	3779
804.8306	3816
807.2369	3772
809.6425	3803
812.0475	3784
814.4538	3900
816.8575	3819
819.2606	3911
821.663	3914
824.0648	3832
826.4659	3870
828.8683	3821
831.2682	3884
833.6674	3836
836.066	3893
838.4639	3869
840.8632	3925
843.2579	3958
845.6539	3895
848.0493	3894
850.444	3936
852.84	3910
855.2315	3961
857.6243	3937
860.0165	3980
862.4081	3937
864.797	3942
867.1892	3872
869.5789	3894
871.9659	3824
874.3542	3961
876.74	3932
879.129	3956
881.5155	3921
883.8994	3864
886.2845	3965
888.6671	3937
891.051	3855
893.4343	3963
895.8169	3921
898.197	3801
900.5783	3936
902.9571	3903
905.3372	3959
907.7167	3948
910.0936	3958
912.4698	3986
914.8474	3982
917.2244	3994
919.5987	4046
921.9744	4025
924.3475	4070
926.72	4087
929.0918	4060
931.4669	3980
933.8375	4159
936.2074	4010
938.5767	4134
940.9454	4090
943.3154	4091
945.6829	4091
948.0497	4189
950.4178	4204
952.7833	4260
955.1483	4425
957.5145	4355
959.8782	4324
962.2412	4330
964.6036	4353
966.9655	4335
969.3266	4245
971.6871	4117
974.0471	4053
976.4064	4087
978.765	4046
981.125	4127
983.4824	4054
985.8373	4091
988.1935	3973
990.549	4081
992.9039	4154
995.2602	4034
997.6119	4066
999.965	4088
1002.317	4009
1004.667	4041
1007.02	4072
1009.371	4015
1011.719	4081
1014.068	4037
1016.415	4081
1018.765	4080
1021.111	4113
1023.458	4078
1025.804	4056
1028.147	4049
1030.49	4080
1032.837	4107
1035.179	4071
1037.522	4110
1039.862	4165
1042.204	4074
1044.546	4126
1046.884	4083
1049.224	4187
1051.562	4165
1053.899	4097
1056.237	4196
1058.575	4186
1060.91	4122
1063.244	4101
1065.58	4216
1067.913	4285
1070.248	4100
1072.579	4218
1074.911	4160
1077.242	4132
1079.572	4103
1081.905	4209
1084.234	4104
1086.562	4114
1088.89	4123
1091.217	4057
1093.544	4118
1095.871	4315
1098.197	4133
1100.521	4150
1102.845	4206
1105.169	4130
1107.491	4220
1109.814	4146
1112.135	4174
1114.456	4210
1116.776	4142
1119.096	4275
1121.415	4201
1123.734	4161
1126.052	4193
1128.369	4252
1130.686	4249
1133.002	4122
1135.318	4186
1137.632	4124
1139.945	4212
1142.258	4163
1144.573	4135
1146.884	4232
1149.196	4190
1151.505	4171
1153.816	4202
1156.124	4131
1158.435	4252
1160.742	4166
1163.051	4184
1165.356	4124
1167.663	4106
1169.97	4160
1172.276	4227
1174.579	4263
1176.881	4193
1179.186	4163
1181.487	4238
1183.79	4125
1186.092	4218
1188.392	4163
1190.691	4216
1192.991	4127
1195.291	4218
1197.588	4201
1199.885	4223
1202.181	4137
1204.479	4254
1206.775	4210
1209.07	4147
1211.363	4205
1213.656	4273
1215.949	4269
1218.241	4203
1220.534	4170
1222.825	4185
1225.115	4266
1227.405	4243
1229.693	4280
1231.984	4222
1234.271	4307
1236.558	4338
1238.845	4353
1241.131	4281
1243.416	4372
1245.703	4359
1247.987	4391
1250.269	4369
1252.552	4341
1254.834	4400
1257.118	4383
1259.399	4352
1261.678	4254
1263.958	4379
1266.237	4395
1268.516	4417
1270.794	4272
1273.072	4351
1275.347	4367
1277.624	4370
1279.899	4329
1282.175	4372
1284.449	4287
1286.722	4358
1288.995	4303
1291.266	4324
1293.54	4202
1295.81	4352
1298.081	4318
1300.35	4348
1302.62	4304
1304.889	4337
1307.156	4366
1309.425	4257
1311.69	4278
1313.957	4261
1316.222	4257
1318.488	4289
1320.751	4333
1323.016	4276
1325.278	4358
1327.54	4380
1329.803	4368
1332.065	4469
1334.325	4297
1336.584	4388
1338.843	4430
1341.101	4309
1343.36	4410
1345.617	4378
1347.876	4274
1350.131	4252
1352.387	4298
1354.643	4379
1356.897	4329
1359.151	4338
1361.403	4333
1363.656	4252
1365.909	4457
1368.16	4379
1370.409	4391
1372.659	4295
1374.909	4420
1377.157	4287
1379.407	4380
1381.655	4326
1383.9	4370
1386.147	4388
1388.393	4404
1390.64	4432
1392.885	4430
1395.127	4467
1397.37	4397
1399.614	4444
1401.854	4442
1404.098	4512
1406.339	4469
1408.578	4528
1410.818	4404
1413.056	4423
1415.297	4565
1417.533	4414
1419.771	4446
1422.006	4452
1424.243	4488
1426.479	4464
1428.715	4444
1430.948	4484
1433.182	4503
1435.414	4588
1437.647	4522
1439.88	4507
1442.11	4462
1444.342	4571
1446.571	4550
1448.799	4451
1451.029	4583
1453.258	4448
1455.485	4530
1457.711	4536
1459.937	4491
1462.164	4464
1464.39	4517
1466.614	4480
1468.838	4436
1471.06	4465
1473.283	4468
1475.506	4397
1477.727	4483
1479.949	4514
1482.169	4437
1484.389	4473
1486.609	4448
1488.828	4480
1491.045	4332
1493.261	4490
1495.477	4422
1497.693	4400
1499.91	4424
1502.125	4387
1504.339	4379
1506.553	4384
1508.766	4403
1510.979	4330
1513.191	4479
1515.402	4355
1517.613	4386
1519.823	4371
1522.033	4449
1524.242	4426
1526.451	4486
1528.657	4372
1530.865	4396
1533.072	4424
1535.278	4461
1537.484	4397
1539.687	4393
1541.892	4343
1544.096	4405
1546.299	4477
1548.502	4543
1550.703	4511
1552.905	4501
1555.104	4440
1557.303	4474
1559.505	4508
1561.703	4515
1563.902	4492
1566.099	4463
1568.295	4463
1570.494	4470
1572.689	4515
1574.883	4526
1577.079	4572
1579.272	4428
1581.467	4453
1583.659	4542
1585.853	4636
1588.044	4510
1590.234	4561
1592.424	4519
1594.615	4458
1596.806	4573
1598.994	4598
1601.182	4492
1603.369	4615
1605.557	4597
1607.744	4560
1609.929	4594
1612.114	4501
1614.298	4525
1616.482	4512
1618.667	4597
1620.85	4636
1623.032	4641
1625.214	4502
1627.395	4547
1629.575	4585
1631.755	4649
1633.935	4633
1636.114	4581
1638.292	4551
1640.471	4657
1642.647	4647
1644.823	4567
1647	4545
1649.175	4601
1651.348	4541
1653.525	4579
1655.698	4644
1657.87	4494
1660.043	4663
1662.213	4695
1664.387	4623
1666.558	4605
1668.727	4686
1670.896	4699
1673.064	4626
1675.233	4660
1677.401	4537
1679.569	4673
1681.735	4656
1683.902	4712
1686.066	4586
1688.233	4595
1690.397	4686
1692.559	4597
1694.723	4547
1696.885	4571
1699.048	4639
1701.21	4646
1703.37	4585
1705.53	4558
1707.689	4666
1709.849	4579
1712.009	4597
1714.166	4699
1716.323	4562
1718.479	4604
1720.634	4573
1722.793	4634
1724.948	4470
1727.102	4611
1729.255	4687
1731.408	4578
1733.562	4571
1735.714	4540
1737.865	4604
1740.016	4594
1742.166	4650
1744.316	4575
1746.467	4651
1748.616	4566
1750.764	4668
1752.911	4638
1755.056	4666
1757.205	4581
1759.35	4633
1761.496	4692
1763.641	4583
1765.785	4651
1767.927	4600
1770.072	4696
1772.214	4769
1774.355	4725
1776.496	4672
1778.637	4641
1780.778	4654
1782.918	4597
1785.057	4663
1787.194	4670
1789.333	4688
1791.472	4746
1793.608	4665
1795.745	4682
1797.879	4688
1800.015	4679
1802.148	4685
1804.284	4588
1806.417	4682
1808.548	4679
1810.682	4679
1812.812	4644
1814.946	4655
1817.075	4639
1819.205	4611
1821.335	4717
1823.463	4685
1825.59	4572
1827.721	4555
1829.847	4573
1831.973	4674
1834.098	4625
1836.223	4665
1838.351	4632
1840.475	4632
1842.598	4608
1844.721	4703
1846.843	4654
1848.966	4696
1851.087	4593
1853.21	4679
1855.33	4547
1857.449	4573
1859.568	4676
1861.688	4721
1863.806	4586
1865.924	4664
1868.039	4648
1870.155	4654
1872.273	4571
1874.388	4677
1876.503	4623
1878.617	4570
1880.73	4629
1882.844	4714
1884.956	4645
1887.068	4610
1889.18	4544
1891.291	4731
1893.4	4578
1895.511	4662
1897.621	4607
1899.73	4653
1901.837	4595
1903.944	4763
1906.053	4725
1908.159	4659
1910.265	4725
1912.369	4830
1914.474	4743
1916.577	4706
1918.683	4704
1920.785	4694
1922.888	4700
1924.989	4707
1927.091	4683
1929.193	4662
1931.294	4726
1933.393	4740
1935.493	4704
1937.59	4758
1939.689	4716
1941.788	4751
1943.884	4687
1945.98	4758
1948.077	4762
1950.171	4656
1952.267	4733
1954.361	4684
1956.455	4724
1958.548	4720
1960.64	4722
1962.733	4681
1964.824	4788
1966.915	4695
1969.005	4743
1971.096	4734
1973.185	4667
1975.275	4673
1977.363	4722
1979.45	4645
1981.537	4708
1983.623	4668
1985.711	4705
1987.796	4708
1989.881	4681
1991.965	4750
1994.047	4675
1996.132	4663
1998.215	4657
2000.297	4730
2002.378	4638
2004.46	4739
2006.54	4641
2008.62	4628
2010.7	4721
2012.779	4777
2014.858	4682
2016.934	4667
2019.013	4703
2021.09	4646
2023.165	4805
2025.241	4825
2027.317	4756
2029.39	4610
2031.466	4781
2033.538	4800
2035.612	4682
2037.683	4695
2039.755	4698
2041.827	4755
2043.898	4727
2045.968	4654
2048.038	4600
2050.106	4735
2052.177	4666
2054.244	4638
2056.313	4801
2058.379	4687
2060.444	4765
2062.511	4687
2064.577	4663
2066.641	4781
2068.705	4708
2070.77	4727
2072.832	4750
2074.896	4772
2076.958	4744
2079.02	4774
2081.081	4703
2083.141	4784
2085.2	4758
2087.261	4731
2089.319	4669
2091.377	4785
2093.435	4736
2095.492	4707
2097.552	4693
2099.607	4770
2101.663	4725
2103.718	4677
2105.771	4751
2107.826	4745
2109.879	4662
2111.932	4805
2113.985	4771
2116.037	4801
2118.088	4654
2120.141	4657
2122.191	4688
2124.239	4766
2126.288	4690
2128.337	4787
2130.387	4649
2132.434	4720
2134.481	4837
2136.528	4771
2138.574	4757
2140.618	4697
2142.665	4740
2144.71	4615
2146.753	4740
2148.797	4749
2150.838	4836
2152.883	4698
2154.923	4664
2156.965	4646
2159.007	4676
2161.046	4744
2163.086	4668
2165.126	4838
2167.163	4599
2169.202	4757
2171.239	4687
2173.277	4691
2175.314	4608
2177.349	4667
2179.385	4778
2181.42	4664
2183.453	4733
2185.49	4652
2187.522	4660
2189.555	4855
2191.586	4692
2193.619	4640
2195.651	4719
2197.682	4656
2199.711	4602
2201.74	4659
2203.769	4663
2205.799	4772
2207.828	4632
2209.855	4661
2211.882	4649
2213.908	4536
2215.934	4668
2217.961	4682
2219.986	4582
2222.01	4640
2224.034	4597
2226.057	4622
2228.08	4581
2230.104	4618
2232.124	4557
2234.145	4687
2236.166	4597
2238.186	4693
2240.207	4546
2242.227	4676
2244.244	4489
2246.262	4679
2248.28	4727
2250.299	4576
2252.314	4729
2254.33	4589
2256.346	4690
2258.36	4627
2260.375	4713
2262.391	4688
2264.403	4613
2266.416	4584
2268.427	4597
2270.44	4608
2272.453	4656
2274.463	4703
2276.474	4600
2278.483	4601
2280.493	4679
2282.501	4597
2284.51	4645
2286.518	4607
2288.524	4647
2290.532	4651
2292.537	4672
2294.544	4624
2296.55	4683
2298.554	4626
2300.557	4611
2302.562	4565
2304.566	4688
2306.568	4686
2308.569	4665
2310.572	4602
2312.573	4674
2314.573	4573
2316.574	4630
2318.573	4686
2320.571	4609
2322.571	4587
2324.569	4581
2326.567	4577
2328.564	4534
2330.56	4604
2332.556	4593
2334.551	4621
2336.546	4569
2338.542	4584
2340.535	4558
2342.529	4588
2344.521	4590
2346.512	4575
2348.505	4463
2350.497	4570
2352.487	4583
2354.478	4534
2356.468	4495
2358.457	4634
2360.446	4512
2362.434	4496
2364.422	4555
2366.408	4488
2368.395	4526
2370.383	4469
2372.369	4562
2374.353	4610
2376.338	4539
2378.321	4532
2380.307	4482
2382.29	4520
2384.272	4564
2386.254	4509
2388.235	4501
2390.218	4494
2392.198	4569
2394.179	4496
2396.157	4566
2398.137	4517
2400.115	4454
2402.095	4500
2404.072	4490
2406.048	4459
2408.026	4466
2410.001	4474
2411.977	4552
2413.953	4548
2415.927	4489
2417.9	4391
2419.875	4437
2421.847	4495
2423.821	4572
2425.792	4493
2427.763	4554
2429.736	4583
2431.706	4566
2433.677	4524
2435.646	4444
2437.615	4600
2439.583	4478
2441.551	4482
2443.519	4481
2445.486	4432
2447.452	4552
2449.418	4505
2451.383	4643
2453.348	4468
2455.314	4492
2457.278	4421
2459.241	4514
2461.205	4420
2463.167	4513
2465.131	4528
2467.091	4450
2469.052	4508
2471.012	4552
2472.972	4453
2474.932	4464
2476.891	4435
2478.85	4494
2480.808	4376
2482.766	4486
2484.722	4482
2486.68	4437
2488.636	4501
2490.591	4422
2492.546	4471
2494.5	4479
2496.456	4434
2498.41	4502
2500.362	4418
2502.315	4425
2504.266	4473
2506.218	4418
2508.169	4372
2510.121	4502
2512.07	4461
2514.019	4397
2515.968	4585
2517.918	4354
2519.866	4484
2521.813	4501
2523.76	4457
2525.707	4445
2527.653	4543
2529.599	4360
2531.543	4425
2533.489	4399
2535.433	4359
2537.376	4368
2539.32	4438
2541.264	4470
2543.205	4379
2545.147	4445
2547.087	4409
2549.029	4426
2550.969	4469
2552.908	4459
2554.847	4406
2556.786	4330
2558.724	4421
2560.663	4438
2562.6	4520
2564.537	4415
2566.473	4406
2568.408	4519
2570.345	4423
2572.28	4514
2574.214	4424
2576.148	4415
2578.081	4439
2580.014	4445
2581.947	4436
2583.879	4467
2585.81	4394
2587.741	4464
2589.67	4431
2591.602	4518
2593.532	4543
2595.461	4310
2597.388	4456
2599.316	4478
2601.244	4464
2603.172	4415
2605.098	4500
2607.023	4472
2608.949	4396
2610.873	4458
2612.8	4442
2614.723	4412
2616.647	4412
2618.569	4419
2620.493	4477
2622.416	4549
2624.338	4375
2626.258	4438
2628.179	4467
2630.099	4476
2632.019	4463
2633.939	4478
2635.857	4410
2637.775	4433
2639.694	4505
2641.61	4443
2643.528	4449
2645.444	4443
2647.361	4379
2649.276	4527
2651.19	4525
2653.105	4435
2655.019	4459
2656.934	4428
2658.846	4431
2660.758	4462
2662.67	4385
2664.583	4504
2666.493	4400
2668.404	4534
2670.313	4326
2672.223	4454
2674.134	4438
2676.042	4377
2677.95	4491
2679.858	4440
2681.765	4366
2683.673	4443
2685.579	4433
2687.483	4545
2689.389	4494
2691.294	4431
2693.198	4440
2695.104	4485
2697.006	4378
2698.909	4421
2700.811	4336
2702.713	4362
2704.615	4471
2706.516	4347
2708.417	4460
2710.316	4412
2712.216	4406
2714.115	4346
2716.014	4388
2717.913	4448
2719.81	4412
2721.707	4468
2723.603	4436
2725.501	4358
2727.396	4252
2729.292	4357
2731.186	4432
2733.081	4369
2734.976	4367
2736.87	4414
2738.762	4412
2740.653	4394
2742.546	4362
2744.437	4358
2746.329	4419
2748.22	4308
2750.11	4389
2751.999	4417
2753.889	4315
2755.778	4300
2757.666	4340
2759.553	4340
2761.44	4380
2763.328	4362
2765.215	4326
2767.101	4446
2768.986	4385
2770.87	4359
2772.754	4225
2774.638	4425
2776.523	4475
2778.405	4285
2780.288	4434
2782.17	4343
2784.051	4347
2785.934	4370
2787.814	4381
2789.694	4366
2791.574	4353
2793.453	4274
2795.332	4374
2797.212	4383
2799.088	4342
2800.966	4312
2802.843	4260
2804.719	4314
2806.597	4323
2808.471	4284
2810.346	4280
2812.221	4262
2814.094	4448
2815.969	4353
2817.843	4399
2819.714	4401
2821.587	4273
2823.459	4273
2825.329	4304
2827.202	4317
2829.072	4338
2830.942	4421
2832.811	4310
2834.68	4377
2836.549	4343
2838.418	4307
2840.284	4283
2842.152	4293
2844.018	4304
2845.885	4303
2847.751	4376
2849.616	4344
2851.482	4310
2853.345	4352
2855.208	4320
2857.074	4425
2858.937	4487
2860.799	4311
2862.66	4377
2864.522	4505
2866.385	4393
2868.245	4397
2870.104	4382
2871.964	4405
2873.824	4455
2875.683	4386
2877.542	4447
2879.4	4530
2881.257	4510
2883.114	4482
2884.97	4443
2886.827	4489
2888.683	4493
2890.537	4585
2892.392	4497
2894.246	4568
2896.1	4467
2897.954	4490
2899.807	4465
2901.66	4477
2903.51	4469
2905.362	4426
2907.214	4543
2909.065	4538
2910.915	4507
2912.765	4501
2914.613	4544
2916.463	4480
2918.311	4519
2920.158	4608
2922.006	4607
2923.853	4572
2925.698	4644
2927.546	4587
2929.392	4673
2931.236	4546
2933.081	4603
2934.924	4662
2936.77	4723
2938.613	4648
2940.455	4698
2942.298	4669
2944.139	4708
2945.982	4767
2947.823	4668
2949.662	4719
2951.503	4727
2953.342	4698
2955.182	4717
2957.021	4698
2958.858	4716
2960.697	4736
2962.534	4702
2964.37	4638
2966.207	4604
2968.044	4568
2969.879	4525
2971.714	4589
2973.548	4490
2975.383	4497
2977.218	4424
2979.051	4494
2980.883	4486
2982.715	4409
2984.547	4360
2986.379	4437
2988.21	4434
2990.04	4281
2991.87	4335
2993.7	4283
2995.53	4319
2997.359	4266
2999.187	4351
3001.015	4338
3002.842	4295
3004.669	4242
3006.497	4235
3008.323	4206
3010.148	4256
3011.974	4159
3013.797	4203
3015.623	4132
3017.447	4193
3019.27	4194
3021.094	4264
3022.915	4139
3024.737	4197
3026.56	4195
3028.38	4162
3030.201	4153
3032.022	4218
3033.84	4146
3035.662	4111
3037.481	4118
3039.298	4196
3041.117	4127
3042.933	4204
3044.752	4123
3046.568	4124
3048.385	4049
3050.2	4069
3052.016	4125
3053.83	4070
3055.646	4143
3057.46	4184
3059.272	4021
3061.086	4107
3062.898	4233
3064.711	4072
3066.524	4049
3068.335	4084
3070.145	4020
3071.956	4034
3073.766	4022
3075.576	3996
3077.385	3991
3079.193	4129
3081.002	4038
3082.81	4005
3084.618	4018
3086.425	4048
3088.231	3944
3090.036	4027
3091.842	4044
3093.648	4037
3095.452	3978
3097.257	4048
3099.06	4014
3100.863	3957
3102.666	3980
3104.47	4001
3106.272	4066
3108.073	4057
3109.875	4005
3111.676	3971
3113.477	4048
3115.277	3878
3117.077	4004
3118.874	3934
3120.673	3982
3122.473	3920
3124.271	4018
3126.066	4004
3127.863	3863
3129.66	4019
3131.456	3923
3133.252	3848
3135.047	3872
3136.842	3951
3138.635	3957
3140.429	3943
3142.223	3944
3144.016	3919
3145.808	3869
3147.6	3920
3149.392	3903
3151.183	3878
3152.975	3996
3154.765	3886
3156.553	3849
3158.344	3822
3160.132	3838
3161.922	3849
3163.71	3951
3165.497	3964
3167.285	3796
3169.071	3833
3170.858	3829
3172.645	3947
3174.429	3982
3176.214	3911
3177.998	3847
3179.783	3847
3181.568	3872
3183.351	3916
3185.133	3860
3186.915	3835
3188.698	3876
3190.481	3900
3192.261	3938
3194.042	3758
3195.822	3779
3197.601	3904
3199.381	3815
3201.161	3911
3202.939	3837
3204.717	3843
3206.495	3877
3208.272	3797
3210.05	3866
3211.826	3848
3213.602	3755
3215.376	3865
3217.151	3880
3218.927	3911
3220.702	3750
3222.476	3826
3224.249	3851
3226.021	3844
3227.793	3845
3229.567	3758
3231.339	3776
3233.109	3806
3234.88	3860
3236.651	3741
3238.421	3802
3240.191	3777
3241.96	3771
3243.728	3807
3245.497	3775
3247.263	3890
3249.033	3734
3250.799	3904
3252.566	3898
3254.331	3879
3256.097	3806
3257.863	3801
3259.628	3908
3261.392	3723
3263.156	3853
3264.919	3759
3266.683	3873
3268.447	3863
3270.208	3819
3271.969	3822
3273.731	3857
3275.492	3878
3277.253	3790
3279.013	3837
3280.773	3760
3282.532	3786
3284.291	3794
3286.05	3748
3287.808	3743
3289.566	3772
3291.323	3843
3293.079	3757
3294.835	3767
3296.593	3810
3298.348	3854
3300.102	3731
3301.857	3774
3303.611	3752
3305.366	3690
3307.119	3740
3308.872	3741
3310.624	3783
3312.376	3773
3314.129	3741
3315.881	3736
3317.631	3746
3319.38	3712
3321.13	3811
3322.88	3765
3324.631	3824
3326.379	3753
3328.126	3783
3329.875	3709
3331.622	3685
3333.371	3759
3335.116	3674
3336.863	3689
3338.609	3825
3340.353	3710
3342.1	3752
3343.845	3739
3345.588	3742
3347.332	3718
3349.074	3737
3350.817	3715
3352.56	3753
3354.303	3752
3356.043	3712
3357.785	3673
3359.525	3701
3361.268	3674
3363.007	3704
3364.745	3717
3366.485	3696
3368.223	3781
3369.962	3762
3371.701	3708
3373.438	3659
3375.174	3623
3376.911	3650
3378.647	3631
3380.384	3690
3382.118	3711
3383.854	3604
3385.588	3639
3387.322	3773
3389.057	3802
3390.79	3670
3392.522	3638
3394.255	3633
3395.987	3549
3397.719	3679
3399.451	3638
3401.181	3678
3402.911	3620
3404.641	3686
3406.371	3654
3408.101	3650
3409.83	3708
3411.558	3592
3413.285	3624
3415.011	3672
3416.739	3668
3418.467	3533
3420.193	3568
3421.919	3581
3423.644	3618
3425.368	3632
3427.094	3598
3428.818	3664
3430.542	3621
3432.264	3651
3433.987	3628
3435.712	3601
3437.434	3672
3439.155	3638
3440.876	3633
3442.596	3541
3444.317	3539
3446.039	3512
3447.757	3517
3449.477	3521
3451.195	3606
3452.914	3581
3454.632	3511
3456.35	3485
3458.067	3532
3459.784	3564
3461.5	3558
3463.216	3584
3464.932	3455
3466.647	3474
3468.362	3544
3470.076	3499
3471.789	3471
3473.505	3559
3475.217	3577
3476.929	3557
3478.641	3521
3480.354	3525
3482.066	3501
3483.777	3491
3485.487	3510
3487.197	3424
3488.908	3520
3490.617	3530
3492.327	3447
3494.035	3469
3495.743	3494
3497.451	3497
3499.158	3540
3500.866	3460
3502.572	3401
3504.278	3510
3505.984	3560
3507.689	3410
3509.396	3532
3511.1	3448
3512.804	3435
3514.508	3402
3516.211	3485
3517.913	3458
3519.616	3436
3521.319	3414
3523.021	3423
3524.722	3449
3526.422	3425
3528.124	3455
3529.824	3407
3531.524	3478
3533.222	3468
3534.921	3411
3536.62	3403
3538.318	3422
3540.016	3388
3541.714	3382
3543.41	3455
3545.107	3417
3546.803	3427
3548.5	3391
3550.194	3444
3551.889	3471
3553.583	3429
3555.279	3340
3556.972	3426
3558.666	3370
3560.358	3347
3562.051	3304
3563.742	3369
3565.435	3362
3567.126	3378
3568.817	3441
3570.507	3376
3572.197	3389
3573.888	3382
3575.577	3417
3577.265	3315
3578.954	3305
3580.642	3441
3582.329	3342
3584.017	3277
3585.704	3337
3587.391	3308
3589.077	3420
3590.762	3332
3592.449	3305
3594.133	3318
3595.817	3339
3597.501	3346
3599.185	3292
3600.869	3299
3602.552	3247
3604.234	3326
3605.916	3311
3607.598	3407
3609.279	3287
3610.961	3265
3612.642	3250
3614.321	3330
3616	3221
3617.68	3264
3619.36	3203
3621.039	3325
3622.716	3274
3624.394	3251
3626.071	3230
3627.748	3252
3629.425	3273
3631.102	3159
3632.778	3318
3634.452	3251
3636.127	3277
3637.803	3264
3639.477	3265
3641.151	3251
3642.823	3221
3644.497	3241
3646.171	3266
3647.842	3214
3649.515	3201
3651.185	3216
3652.857	3177
3654.527	3224
3656.198	3217
3657.868	3192
3659.537	3186
3661.207	3182
3662.875	3257
3664.544	3219
3666.212	3229
3667.879	3233
3669.546	3114
3671.212	3236
3672.88	3170
3674.546	3227
3676.211	3221
3677.875	3133
3679.541	3233
3681.205	3193
3682.87	3169
3684.533	3172
3686.196	3091
3687.859	3156
3689.521	3115
3691.184	3229
3692.845	3200
3694.507	3093
3696.167	3180
3697.827	3145
3699.487	3134
3701.148	3208
3702.808	3111
3704.466	3164
3706.125	3174
3707.783	3177
3709.442	3094
3711.099	3170
3712.757	3134
3714.412	3111
3716.068	3149
3717.725	3093
3719.381	3179
3721.036	3153
3722.689	3157
3724.344	3132
3725.998	3158
3727.652	3175
3729.305	3098
3730.958	3124
3732.61	3055
3734.262	3151
3735.915	3004
3737.565	3129
3739.217	3066
3740.866	3079
3742.516	3122
3744.165	3124
3745.816	3095
3747.464	3130
3749.113	3092
3750.761	3057
3752.409	3052
3754.057	3027
3755.703	3047
3757.35	3164
3758.996	3015
3760.641	3075
3762.289	3070
3763.933	2991
3765.577	3004
3767.222	3056
3768.865	3043
3770.508	3085
3772.152	3078
3773.796	3136
3775.438	3107
3777.079	3063
3778.721	3038
3780.363	2991
3782.003	2977
3783.643	3053
3785.283	3114
3786.923	3001
3788.563	3013
3790.203	3071
3791.841	3052
3793.479	3048
3795.115	3101
3796.753	3048
3798.391	3027
3800.027	2953
3801.664	3054
3803.299	3007
3804.935	2968
3806.571	3045
3808.206	3037
3809.839	3005
3811.473	2964
3813.107	2950
3814.74	2993
3816.375	3056
3818.006	2946
3819.638	2954
3821.27	2977
3822.9	2979
3824.532	2953
3826.163	2950
3827.792	3011
3829.423	2962
3831.051	3019
3832.682	2939
3834.311	2922
3835.938	2965
3837.566	2963
3839.193	2951
3840.821	2992
3842.448	2969
3844.075	2938
3845.7	2930
3847.325	2957
3848.951	2943
3850.576	2861
3852.201	2888
3853.825	2881
3855.448	2808
3857.072	2903
3858.694	2967
3860.318	2971
3861.939	3012
3863.562	2858
3865.183	2939
3866.804	2894
3868.426	2913
3870.045	2935
3871.666	2881
3873.285	2887
3874.904	2941
3876.524	2916
3878.142	2968
3879.76	2875
3881.378	2906
3882.995	2900
3884.612	2795
3886.229	2856
3887.845	2855
3889.461	2883
3891.076	2868
3892.691	2883
3894.307	2861
3895.922	2888
3897.536	2889
3899.149	2899
3900.761	2861
3902.374	2833
3903.988	2863
3905.6	2851
3907.212	2872
3908.822	2912
3910.433	2898
3912.045	2905
3913.655	2902
3915.265	2822
3916.875	2877
3918.483	2870
3920.093	2860
3921.702	2827
3923.309	2850
3924.917	2843
3926.523	2865
3928.13	2859
3929.739	2813
3931.344	2864
3932.95	2783
3934.555	2802
3936.159	2873
3937.766	2867
3939.369	2853
3940.974	2827
3942.577	2898
3944.181	2842
3945.783	2849
3947.386	2799
3948.989	2787
3950.59	2822
3952.191	2830
3953.791	2833
3955.394	2812
3956.994	2814
3958.593	2883
3960.192	2826
3961.791	2796
3963.392	2740
3964.99	2822
3966.588	2756
3968.185	2735
3969.782	2773
3971.379	2809
3972.976	2775
3974.572	2725
3976.168	2771
3977.763	2793
3979.358	2825
3980.954	2780
3982.548	2754
3984.142	2786
3985.736	2693
3987.329	2740
3988.922	2820
3990.516	2771
3992.108	2677
3993.698	2702
3995.29	2787
3996.881	2778
3998.473	2741
4000.064	2694
4001.653	2724
4003.242	2728
4004.832	2722
4006.422	2709
4008.01	2767
4009.598	2667
4011.186	2666
4012.773	2714
4014.36	2750
4015.947	2700
4017.534	2637
4019.119	2652
4020.705	2698
4022.291	2717
4023.876	2587
4025.461	2670
4027.044	2716
4028.627	2653
4030.211	2671
4031.795	2684
4033.378	2660
4034.96	2648
4036.542	2704
4038.124	2699
4039.704	2707
4041.286	2664
4042.867	2662
4044.447	2657
4046.026	2664
4047.606	2689
4049.187	2662
4050.765	2655
4052.343	2657
4053.92	2622
4055.498	2611
4057.076	2615
4058.654	2643
4060.23	2615
4061.806	2619
4063.381	2587
4064.957	2580
4066.533	2593
4068.107	2598
4069.682	2566
4071.256	2667
4072.829	2583
4074.404	2657
4075.977	2585
4077.549	2594
4079.121	2559
4080.693	2663
4082.265	2555
4083.836	2613
4085.407	2617
4086.977	2565
4088.547	2609
4090.117	2592
4091.687	2557
4093.256	2596
4094.825	2606
4096.392	2539
4097.96	2529
4099.528	2597
4101.097	2543
4102.663	2577
4104.229	2568
4105.795	2603
4107.361	2630
4108.928	2538
4110.493	2520
4112.058	2498
4113.621	2593
4115.186	2515
4116.75	2517
4118.313	2552
4119.876	2540
4121.438	2527
4123	2516
4124.562	2535
4126.125	2515
4127.686	2582
4129.246	2523
4130.807	2584
4132.367	2550
4133.927	2541
4135.486	2555
4137.046	2533
4138.604	2515
4140.162	2510
4141.72	2453
4143.279	2518
4144.836	2544
4146.393	2499
4147.949	2487
4149.505	2471
4151.062	2529
4152.617	2503
4154.172	2494
4155.727	2431
4157.281	2524
4158.836	2507
4160.39	2448
4161.943	2491
4163.496	2498
4165.048	2451
4166.601	2521
4168.154	2493
4169.706	2425
4171.257	2439
4172.808	2509
4174.358	2479
4175.909	2426
4177.458	2396
4179.008	2455
4180.558	2453
4182.106	2402
4183.655	2477
4185.204	2467
4186.751	2431
4188.298	2403
4189.845	2390
4191.392	2345
4192.939	2419
4194.485	2374
4196.031	2452
4197.576	2383
4199.121	2408
4200.666	2411
4202.211	2403
4203.754	2388
4205.298	2399
4206.84	2415
4208.384	2446
4209.927	2413
4211.47	2430
4213.011	2414
4214.552	2433
4216.094	2385
4217.635	2375
4219.175	2398
4220.716	2360
4222.255	2380
4223.793	2348
4225.335	2341
4226.873	2407
4228.411	2354
4229.948	2340
4231.486	2381
4233.024	2407
4234.562	2328
4236.098	2384
4237.634	2399
4239.169	2372
4240.705	2371
4242.241	2397
4243.776	2440
4245.31	2375
4246.844	2304
4248.378	2367
4249.911	2363
4251.445	2333
4252.978	2339
4254.51	2350
4256.042	2380
4257.574	2390
4259.107	2353
4260.638	2364
4262.169	2430
4263.699	2353
4265.228	2320
4266.759	2341
4268.289	2313
4269.818	2329
4271.345	2393
4272.874	2317
4274.402	2351
4275.931	2271
4277.458	2325
4278.985	2342
4280.512	2282
4282.037	2294
4283.564	2309
4285.089	2334
4286.615	2284
4288.139	2398
4289.664	2234
4291.187	2316
4292.712	2294
4294.235	2250
4295.759	2281
4297.281	2332
4298.804	2392
4300.327	2303
4301.849	2307
4303.37	2276
4304.891	2293
4306.412	2287
4307.933	2246
4309.453	2256
4310.973	2269
4312.492	2283
