398.1873	10187
400.7097	10138
403.2336	10122
405.7547	10240
408.2751	10252
410.7948	10349
413.3138	10300
415.83	10241
418.3497	10529
420.8666	10653
423.3829	10629
425.8985	10632
428.4133	10722
430.9275	10673
433.441	10713
435.9538	10752
438.4639	10760
440.9753	10740
443.4881	10811
445.9982	10816
448.5055	10676
451.0142	10923
453.5201	10882
456.0274	10966
458.5361	10969
461.04	10902
463.5453	11035
466.0478	10991
468.5517	11114
471.0549	11147
473.5574	11242
476.0572	11102
478.5584	11126
481.0568	11163
483.5545	11369
486.0557	11293
488.5521	11169
491.0478	11359
493.5449	11423
496.0392	11360
498.5349	11501
501.0299	11294
503.5222	11452
506.0139	11581
508.5048	11569
510.9991	11528
513.4887	11525
515.9777	11488
518.4659	11562
520.9534	11489
523.4403	11636
525.9306	11526
528.4161	11532
530.9009	11644
533.3851	11636
535.8687	11574
538.3535	11617
540.8356	11636
543.3171	11631
545.7979	11514
548.278	11679
550.7595	11663
553.2383	11686
555.7144	11544
558.1918	11657
560.6685	11716
563.1446	11525
565.6221	11772
568.0968	11782
570.5688	11813
573.0422	11938
575.515	11799
577.989	11933
580.4584	11941
582.9291	11993
585.3991	11985
587.8685	12033
590.3352	12030
592.8052	11810
595.2706	12014
597.7372	12021
600.2033	11988
602.6666	12065
605.1334	11929
607.5953	12023
610.0587	11971
612.5193	11977
614.9814	11994
617.4427	11906
619.9034	11950
622.3615	11918
624.8208	12000
627.2775	11834
629.7335	12074
632.1929	12063
634.6476	12034
637.1016	11980
639.5569	12034
642.0096	11995
644.4637	11967
646.9151	12182
649.3678	12008
651.8179	12201
654.2672	12256
656.7159	12058
659.166	12118
661.6154	12125
664.0622	12292
666.5082	12570
668.9537	12338
671.4005	12189
673.8445	12349
676.288	12263
678.7308	12286
681.1729	12407
683.6163	12461
686.0572	12339
688.4973	12500
690.9368	12549
693.3757	12651
695.8138	12444
698.2534	12547
700.6902	12313
703.1245	12521
705.56	12644
707.9949	12537
710.4311	12733
712.8647	12517
715.2957	12726
717.7279	12837
720.1595	12667
722.5905	12787
725.0208	12824
727.4505	12825
729.8795	12956
732.3058	13034
734.7336	12943
737.1626	13085
739.587	12985
742.0128	13053
744.4359	13151
746.8604	13189
749.2841	13249
751.7073	13175
754.1278	13366
756.5496	13222
758.9688	13309
761.3893	13448
763.8093	13282
766.2285	13343
768.6451	13271
771.0611	13255
773.4784	13601
775.895	13456
778.3091	13311
780.7244	13416
783.1371	13316
785.5493	13379
787.9626	13427
790.3754	13418
792.7856	13293
795.1951	13402
797.6039	13418
800.0121	13566
802.4236	13526
804.8306	13588
807.2369	13388
809.6425	13665
812.0475	13635
814.4538	13596
816.8575	13633
819.2606	13737
821.663	13459
824.0648	13593
826.4659	13643
828.8683	13585
831.2682	13747
833.6674	13627
836.066	13689
838.4639	13610
840.8632	13562
843.2579	13689
845.6539	13659
848.0493	13693
850.444	13804
852.84	13857
855.2315	13612
857.6243	13745
860.0165	13703
862.4081	13697
864.797	13819
867.1892	13874
869.5789	13693
871.9659	13705
874.3542	13750
876.74	13718
879.129	13541
881.5155	13654
883.8994	13739
886.2845	13651
888.6671	13559
891.051	13652
893.4343	13834
895.8169	13822
898.197	13817
900.5783	13763
902.9571	13864
905.3372	13933
907.7167	13770
910.0936	13781
912.4698	13870
914.8474	13891
917.2244	13911
919.5987	14076
921.9744	14033
924.3475	14136
926.72	14045
929.0918	14052
931.4669	14084
933.8375	14094
936.2074	14139
938.5767	14403
940.9454	14255
943.3154	14512
945.6829	14536
948.0497	14829
950.4178	14955
952.7833	15080
955.1483	15379
957.5145	15770
959.8782	15609
962.2412	15701
964.6036	15608
966.9655	15275
969.3266	14768
971.6871	14603
974.0471	14445
976.4064	14340
978.765	14180
981.125	14305
983.4824	14006
985.8373	14297
988.1935	14167
990.549	14206
992.9039	14244
995.2602	14358
997.6119	14100
999.965	14280
1002.317	14293
1004.667	14095
1007.02	14495
1009.371	14350
1011.719	14203
1014.068	14233
1016.415	14149
1018.765	14344
1021.111	14462
1023.458	14267
1025.804	14211
1028.147	14380
1030.49	14354
1032.837	14380
1035.179	14447
1037.522	14251
1039.862	14451
1042.204	14441
1044.546	14414
1046.884	14506
1049.224	14321
1051.562	14424
1053.899	14437
1056.237	14403
1058.575	14406
1060.91	14564
1063.244	14498
1065.58	14617
1067.913	14728
1070.248	14631
1072.579	14599
1074.911	14666
1077.242	14596
1079.572	14614
1081.905	14783
1084.234	14711
1086.562	14619
1088.89	14392
1091.217	14504
1093.544	14784
1095.871	14584
1098.197	14519
1100.521	14613
1102.845	14573
1105.169	14791
1107.491	14553
1109.814	14550
1112.135	14608
1114.456	14593
1116.776	14716
1119.096	14751
1121.415	14757
1123.734	14585
1126.052	14874
1128.369	15021
1130.686	14723
1133.002	14817
1135.318	14694
1137.632	14847
1139.945	14645
1142.258	14479
1144.573	14771
1146.884	14772
1149.196	14735
1151.505	14843
1153.816	14751
1156.124	14639
1158.435	14811
1160.742	14764
1163.051	14644
1165.356	14693
1167.663	14931
1169.97	14881
1172.276	14843
1174.579	14806
1176.881	14700
1179.186	14651
1181.487	14607
1183.79	14929
1186.092	14889
1188.392	14620
1190.691	14763
1192.991	14602
1195.291	14755
1197.588	14894
1199.885	14656
1202.181	14737
1204.479	14817
1206.775	14817
1209.07	14921
1211.363	14705
1213.656	14894
1215.949	14723
1218.241	14838
1220.534	14864
1222.825	14666
1225.115	14751
1227.405	14955
1229.693	14902
1231.984	14926
1234.271	14925
1236.558	14955
1238.845	15112
1241.131	15137
1243.416	15145
1245.703	15166
1247.987	15284
1250.269	15167
1252.552	15174
1254.834	15187
1257.118	15255
1259.399	15207
1261.678	15202
1263.958	15047
1266.237	15086
1268.516	15326
1270.794	15021
1273.072	15283
1275.347	15090
1277.624	15237
1279.899	15015
1282.175	15088
1284.449	15167
1286.722	15019
1288.995	14914
1291.266	15009
1293.54	15039
1295.81	15029
1298.081	15049
1300.35	15054
1302.62	14882
1304.889	15064
1307.156	15003
1309.425	15154
1311.69	15123
1313.957	14953
1316.222	15136
1318.488	15198
1320.751	14939
1323.016	15173
1325.278	14977
1327.54	15066
1329.803	15070
1332.065	15136
1334.325	15213
1336.584	15008
1338.843	15131
1341.101	14981
1343.36	14866
1345.617	15249
1347.876	14968
1350.131	15046
1352.387	15170
1354.643	15127
1356.897	15139
1359.151	15056
1361.403	15058
1363.656	15057
1365.909	15188
1368.16	15234
1370.409	15123
1372.659	14998
1374.909	15185
1377.157	15187
1379.407	15066
1381.655	15095
1383.9	15171
1386.147	15206
1388.393	15221
1390.64	15014
1392.885	15172
1395.127	15199
1397.37	15178
1399.614	15027
1401.854	15411
1404.098	15416
1406.339	15313
1408.578	15164
1410.818	15289
1413.056	15441
1415.297	15516
1417.533	15390
1419.771	15440
1422.006	15427
1424.243	15581
1426.479	15550
1428.715	15529
1430.948	15420
1433.182	15491
1435.414	15546
1437.647	15444
1439.88	15812
1442.11	15302
1444.342	15418
1446.571	15568
1448.799	15629
1451.029	15699
1453.258	15616
1455.485	15611
1457.711	15714
1459.937	15575
1462.164	15609
1464.39	15868
1466.614	15435
1468.838	15553
1471.06	15496
1473.283	15520
1475.506	15492
1477.727	15579
1479.949	15458
1482.169	15486
1484.389	15457
1486.609	15419
1488.828	15255
1491.045	15173
1493.261	15283
1495.477	15291
1497.693	15374
1499.91	15223
1502.125	15215
1504.339	15164
1506.553	15195
1508.766	15175
1510.979	15212
1513.191	15276
1515.402	15334
1517.613	15247
1519.823	15312
1522.033	15319
1524.242	15361
1526.451	15232
1528.657	15191
1530.865	15291
1533.072	15326
1535.278	15246
1537.484	15481
1539.687	15444
1541.892	15244
1544.096	15278
1546.299	15297
1548.502	15504
1550.703	15378
1552.905	15472
1555.104	15404
1557.303	15365
1559.505	15633
1561.703	15489
1563.902	15740
1566.099	15529
1568.295	15539
1570.494	15566
1572.689	15719
1574.883	15553
1577.079	15583
1579.272	15634
1581.467	15730
1583.659	15637
1585.853	15684
1588.044	15724
1590.234	15731
1592.424	15791
1594.615	15776
1596.806	15884
1598.994	15694
1601.182	15736
1603.369	15799
1605.557	15679
1607.744	15717
1609.929	15977
1612.114	15916
1614.298	15811
1616.482	15771
1618.667	15783
1620.85	15760
1623.032	15670
1625.214	15619
1627.395	15819
1629.575	15833
1631.755	15871
1633.935	15964
1636.114	15920
1638.292	15990
1640.471	15863
1642.647	15801
1644.823	15845
1647	15865
1649.175	16036
1651.348	15713
1653.525	15812
1655.698	15906
1657.87	16086
1660.043	15891
1662.213	16065
1664.387	15844
1666.558	15850
1668.727	15934
1670.896	15995
1673.064	15806
1675.233	15932
1677.401	16018
1679.569	15932
1681.735	15944
1683.902	15925
1686.066	16005
1688.233	15961
1690.397	15913
1692.559	15887
1694.723	15888
1696.885	15915
1699.048	15724
1701.21	15741
1703.37	15849
1705.53	15775
1707.689	15981
1709.849	15898
1712.009	15656
1714.166	15787
1716.323	15780
1718.479	15757
1720.634	15631
1722.793	15933
1724.948	15839
1727.102	15861
1729.255	15652
1731.408	16024
1733.562	15735
1735.714	15677
1737.865	15925
1740.016	15801
1742.166	15846
1744.316	15773
1746.467	15915
1748.616	16101
1750.764	15922
1752.911	15693
1755.056	15967
1757.205	15776
1759.35	16059
1761.496	15878
1763.641	15950
1765.785	15830
1767.927	16073
1770.072	16059
1772.214	15859
1774.355	15955
1776.496	16140
1778.637	16253
1780.778	16005
1782.918	16086
1785.057	16130
1787.194	15955
1789.333	15976
1791.472	15955
1793.608	16302
1795.745	16005
1797.879	15944
1800.015	16007
1802.148	16086
1804.284	16133
1806.417	16088
1808.548	16305
1810.682	15827
1812.812	16273
1814.946	15882
1817.075	15996
1819.205	15821
1821.335	15870
1823.463	16105
1825.59	15956
1827.721	15876
1829.847	15903
1831.973	16038
1834.098	15982
1836.223	15775
1838.351	16051
1840.475	15863
1842.598	16100
1844.721	15905
1846.843	15958
1848.966	15876
1851.087	15882
1853.21	15628
1855.33	15724
1857.449	15924
1859.568	15888
1861.688	15840
1863.806	15822
1865.924	15922
1868.039	16034
1870.155	15895
1872.273	15898
1874.388	15894
1876.503	15983
1878.617	15989
1880.73	16016
1882.844	15694
1884.956	15803
1887.068	15964
1889.18	15938
1891.291	15600
1893.4	15977
1895.511	15890
1897.621	15872
1899.73	16003
1901.837	16061
1903.944	16094
1906.053	15974
1908.159	16037
1910.265	16024
1912.369	16122
1914.474	15976
1916.577	15920
1918.683	16136
1920.785	16041
1922.888	16036
1924.989	16215
1927.091	16214
1929.193	16011
1931.294	16076
1933.393	16138
1935.493	16177
1937.59	16138
1939.689	16306
1941.788	16095
1943.884	16032
1945.98	16385
1948.077	16039
1950.171	16181
1952.267	16154
1954.361	16040
1956.455	16079
1958.548	16390
1960.64	16172
1962.733	16014
1964.824	16050
1966.915	16182
1969.005	15990
1971.096	16081
1973.185	16401
1975.275	16008
1977.363	16109
1979.45	16080
1981.537	16051
1983.623	16094
1985.711	15897
1987.796	16075
1989.881	16051
1991.965	15984
1994.047	15934
1996.132	15861
1998.215	15981
2000.297	16030
2002.378	15995
2004.46	16041
2006.54	15912
2008.62	16003
2010.7	16076
2012.779	15888
2014.858	15884
2016.934	15965
2019.013	15977
2021.09	15913
2023.165	15930
2025.241	15856
2027.317	15984
2029.39	15812
2031.466	15784
2033.538	16075
2035.612	15896
2037.683	16002
2039.755	16020
2041.827	16055
2043.898	15931
2045.968	15902
2048.038	15983
2050.106	15986
2052.177	16063
2054.244	15932
2056.313	16017
2058.379	15848
2060.444	15944
2062.511	15967
2064.577	15944
2066.641	16133
2068.705	15877
2070.77	16150
2072.832	16046
2074.896	16000
2076.958	16060
2079.02	16052
2081.081	15973
2083.141	15951
2085.2	15895
2087.261	15888
2089.319	15978
2091.377	16019
2093.435	16150
2095.492	15947
2097.552	16005
2099.607	15939
2101.663	15974
2103.718	16051
2105.771	16151
2107.826	16126
2109.879	15779
2111.932	15926
2113.985	15916
2116.037	15858
2118.088	15864
2120.141	16090
2122.191	16000
2124.239	15774
2126.288	16065
2128.337	15825
2130.387	15796
2132.434	16026
2134.481	15991
2136.528	15899
2138.574	16057
2140.618	15859
2142.665	15687
2144.71	15718
2146.753	16032
2148.797	15851
2150.838	15863
2152.883	15891
2154.923	15840
2156.965	15926
2159.007	15804
2161.046	16010
2163.086	15859
2165.126	15913
2167.163	16016
2169.202	15831
2171.239	15767
2173.277	15733
2175.314	15678
2177.349	15579
2179.385	15951
2181.42	15690
2183.453	15648
2185.49	15674
2187.522	15604
2189.555	15569
2191.586	15595
2193.619	15664
2195.651	15760
2197.682	15681
2199.711	15673
2201.74	15418
2203.769	15738
2205.799	15506
2207.828	15534
2209.855	15563
2211.882	15509
2213.908	15599
2215.934	15699
2217.961	15512
2219.986	15509
2222.01	15367
2224.034	15437
2226.057	15534
2228.08	15488
2230.104	15480
2232.124	15480
2234.145	15573
2236.166	15474
2238.186	15533
2240.207	15502
2242.227	15498
2244.244	15445
2246.262	15588
2248.28	15630
2250.299	15331
2252.314	15566
2254.33	15553
2256.346	15539
2258.36	15252
2260.375	15696
2262.391	15660
2264.403	15562
2266.416	15668
2268.427	15630
2270.44	15443
2272.453	15398
2274.463	15538
2276.474	15412
2278.483	15536
2280.493	15578
2282.501	15599
2284.51	15600
2286.518	15322
2288.524	15574
2290.532	15388
2292.537	15498
2294.544	15254
2296.55	15358
2298.554	15462
2300.557	15355
2302.562	15353
2304.566	15470
2306.568	15253
2308.569	15353
2310.572	15625
2312.573	15537
2314.573	15340
2316.574	15370
2318.573	15249
2320.571	15136
2322.571	15357
2324.569	15553
2326.567	15311
2328.564	15257
2330.56	15225
2332.556	15333
2334.551	15358
2336.546	15311
2338.542	15304
2340.535	15403
2342.529	15372
2344.521	15184
2346.512	15104
2348.505	15190
2350.497	15075
2352.487	15296
2354.478	15230
2356.468	15139
2358.457	15141
2360.446	15227
2362.434	15151
2364.422	15308
2366.408	15073
2368.395	15172
2370.383	15047
2372.369	14932
2374.353	15075
2376.338	15137
2378.321	14989
2380.307	15026
2382.29	15055
2384.272	15055
2386.254	14960
2388.235	14955
2390.218	15051
2392.198	14906
2394.179	14988
2396.157	15050
2398.137	14981
2400.115	14796
2402.095	14795
2404.072	14869
2406.048	14964
2408.026	15043
2410.001	15023
2411.977	15029
2413.953	15033
2415.927	14861
2417.9	14861
2419.875	14876
2421.847	14899
2423.821	14956
2425.792	14853
2427.763	14802
2429.736	14881
2431.706	14862
2433.677	14959
2435.646	14939
2437.615	15057
2439.583	14815
2441.551	14982
2443.519	14817
2445.486	14802
2447.452	14926
2449.418	15107
2451.383	14800
2453.348	14762
2455.314	14876
2457.278	14523
2459.241	14945
2461.205	14665
2463.167	14765
2465.131	14715
2467.091	15030
2469.052	14700
2471.012	14668
2472.972	14821
2474.932	14614
2476.891	14787
2478.85	14593
2480.808	14710
2482.766	14788
2484.722	14707
2486.68	14742
2488.636	14702
2490.591	14656
2492.546	14946
2494.5	14775
2496.456	14633
2498.41	14695
2500.362	14581
2502.315	14723
2504.266	14651
2506.218	14587
2508.169	14585
2510.121	14397
2512.07	14678
2514.019	14518
2515.968	14601
2517.918	14494
2519.866	14636
2521.813	14730
2523.76	14660
2525.707	14532
2527.653	14632
2529.599	14638
2531.543	14624
2533.489	14652
2535.433	14533
2537.376	14486
2539.32	14743
2541.264	14587
2543.205	14484
2545.147	14752
2547.087	14480
2549.029	14602
2550.969	14455
2552.908	14473
2554.847	14504
2556.786	14672
2558.724	14452
2560.663	14593
2562.6	14549
2564.537	14595
2566.473	14368
2568.408	14632
2570.345	14496
2572.28	14499
2574.214	14425
2576.148	14451
2578.081	14416
2580.014	14519
2581.947	14521
2583.879	14588
2585.81	14492
2587.741	14584
2589.67	14411
2591.602	14345
2593.532	14671
2595.461	14331
2597.388	14765
2599.316	14610
2601.244	14463
2603.172	14591
2605.098	14528
2607.023	14575
2608.949	14708
2610.873	14601
2612.8	14552
2614.723	14498
2616.647	14729
2618.569	14468
2620.493	14628
2622.416	14729
2624.338	14569
2626.258	14542
2628.179	14664
2630.099	14715
2632.019	14746
2633.939	14622
2635.857	14451
2637.775	14535
2639.694	14417
2641.61	14359
2643.528	14740
2645.444	14564
2647.361	14562
2649.276	14649
2651.19	14523
2653.105	14648
2655.019	14593
2656.934	14670
2658.846	14545
2660.758	14535
2662.67	14646
2664.583	14715
2666.493	14370
2668.404	14492
2670.313	14557
2672.223	14562
2674.134	14541
2676.042	14561
2677.95	14555
2679.858	14431
2681.765	14420
2683.673	14399
2685.579	14502
2687.483	14579
2689.389	14534
2691.294	14362
2693.198	14362
2695.104	14313
2697.006	14415
2698.909	14290
2700.811	14318
2702.713	14438
2704.615	14322
2706.516	14358
2708.417	14359
2710.316	14239
2712.216	14273
2714.115	14206
2716.014	14244
2717.913	14101
2719.81	14299
2721.707	14251
2723.603	14309
2725.501	14260
2727.396	14228
2729.292	14163
2731.186	14224
2733.081	14293
2734.976	14184
2736.87	14293
2738.762	14030
2740.653	14170
2742.546	14235
2744.437	14238
2746.329	14118
2748.22	14166
2750.11	14189
2751.999	14181
2753.889	14241
2755.778	14098
2757.666	14077
2759.553	14024
2761.44	13976
2763.328	14082
2765.215	14125
2767.101	14091
2768.986	14020
2770.87	14105
2772.754	14177
2774.638	14125
2776.523	14110
2778.405	14117
2780.288	14147
2782.17	14242
2784.051	14084
2785.934	14073
2787.814	14202
2789.694	13866
2791.574	13974
2793.453	13988
2795.332	14157
2797.212	14031
2799.088	13903
2800.966	14092
2802.843	13785
2804.719	14021
2806.597	14008
2808.471	13874
2810.346	14074
2812.221	13965
2814.094	13885
2815.969	13864
2817.843	13847
2819.714	14028
2821.587	13843
2823.459	14217
2825.329	13755
2827.202	14007
2829.072	13956
2830.942	13681
2832.811	13750
2834.68	13740
2836.549	14174
2838.418	13690
2840.284	13863
2842.152	13859
2844.018	13942
2845.885	13592
2847.751	13930
2849.616	13865
2851.482	13915
2853.345	14007
2855.208	13775
2857.074	13939
2858.937	13729
2860.799	13718
2862.66	13759
2864.522	13886
2866.385	13826
2868.245	14016
2870.104	14135
2871.964	13993
2873.824	14003
2875.683	14073
2877.542	14065
2879.4	14168
2881.257	14115
2883.114	14060
2884.97	14249
2886.827	14046
2888.683	14090
2890.537	14180
2892.392	13966
2894.246	14163
2896.1	13973
2897.954	13963
2899.807	14095
2901.66	14084
2903.51	13990
2905.362	14004
2907.214	14001
2909.065	14193
2910.915	14106
2912.765	14212
2914.613	14328
2916.463	14244
2918.311	14266
2920.158	14313
2922.006	14405
2923.853	14306
2925.698	14393
2927.546	14575
2929.392	14635
2931.236	14456
2933.081	14499
2934.924	14636
2936.77	14614
2938.613	14539
2940.455	14749
2942.298	14651
2944.139	14582
2945.982	14777
2947.823	14712
2949.662	14544
2951.503	14464
2953.342	14434
2955.182	14416
2957.021	14579
2958.858	14414
2960.697	14357
2962.534	14248
2964.37	14497
2966.207	14162
2968.044	14020
2969.879	14134
2971.714	14040
2973.548	14008
2975.383	14093
2977.218	13974
2979.051	13975
2980.883	13966
2982.715	14103
2984.547	14015
2986.379	13837
2988.21	13752
2990.04	13826
2991.87	13748
2993.7	13782
2995.53	13708
2997.359	13804
2999.187	13668
3001.015	13702
3002.842	13259
3004.669	13344
3006.497	13604
3008.323	13409
3010.148	13390
3011.974	13670
3013.797	13311
3015.623	13381
3017.447	13319
3019.27	13281
3021.094	13254
3022.915	13229
3024.737	12945
3026.56	13100
3028.38	13180
3030.201	13206
3032.022	13191
3033.84	13170
3035.662	13056
3037.481	13075
3039.298	13075
3041.117	13026
3042.933	13091
3044.752	13154
3046.568	13047
3048.385	13078
3050.2	13061
3052.016	13008
3053.83	12934
3055.646	12963
3057.46	13034
3059.272	12934
3061.086	13025
3062.898	12944
3064.711	12833
3066.524	13081
3068.335	12964
3070.145	12921
3071.956	12758
3073.766	12884
3075.576	12932
3077.385	12807
3079.193	12769
3081.002	12760
3082.81	12720
3084.618	12815
3086.425	12815
3088.231	12831
3090.036	12689
3091.842	12684
3093.648	12691
3095.452	12525
3097.257	12679
3099.06	12641
3100.863	12719
3102.666	12675
3104.47	12630
3106.272	12730
3108.073	12592
3109.875	12375
3111.676	12673
3113.477	12590
3115.277	12486
3117.077	12432
3118.874	12548
3120.673	12544
3122.473	12446
3124.271	12340
3126.066	12489
3127.863	12344
3129.66	12482
3131.456	12361
3133.252	12408
3135.047	12355
3136.842	12409
3138.635	12466
3140.429	12475
3142.223	12239
3144.016	12381
3145.808	12366
3147.6	12309
3149.392	12441
3151.183	12402
3152.975	12264
3154.765	12290
3156.553	12248
3158.344	12286
3160.132	12166
3161.922	12325
3163.71	12090
3165.497	12152
3167.285	12193
3169.071	12215
3170.858	12218
3172.645	12083
3174.429	12214
3176.214	12147
3177.998	12137
3179.783	12091
3181.568	12133
3183.351	11887
3185.133	12003
3186.915	12086
3188.698	12028
3190.481	12077
3192.261	11938
3194.042	11944
3195.822	11993
3197.601	12132
3199.381	12119
3201.161	12192
3202.939	11930
3204.717	11810
3206.495	11969
3208.272	11802
3210.05	12002
3211.826	11878
3213.602	11988
3215.376	11940
3217.151	11972
3218.927	11913
3220.702	11995
3222.476	12049
3224.249	11799
3226.021	11764
3227.793	11940
3229.567	11766
3231.339	11845
3233.109	11887
3234.88	11892
3236.651	11805
3238.421	11905
3240.191	11831
3241.96	11746
3243.728	11973
3245.497	11833
3247.263	11829
3249.033	11704
3250.799	11834
3252.566	11826
3254.331	11790
3256.097	11915
3257.863	11760
3259.628	11854
3261.392	11796
3263.156	11737
3264.919	11787
3266.683	11639
3268.447	11830
3270.208	11677
3271.969	11849
3273.731	11953
3275.492	11744
3277.253	11713
3279.013	11675
3280.773	11791
3282.532	11850
3284.291	11821
3286.05	11845
3287.808	11712
3289.566	11657
3291.323	11615
3293.079	11713
3294.835	11778
3296.593	11863
3298.348	11716
3300.102	11742
3301.857	11723
3303.611	11820
3305.366	11482
3307.119	11645
3308.872	11606
3310.624	11571
3312.376	11750
3314.129	11732
3315.881	11716
3317.631	11617
3319.38	11778
3321.13	11648
3322.88	11637
3324.631	11574
3326.379	11588
3328.126	11636
3329.875	11472
3331.622	11677
3333.371	11544
3335.116	11525
3336.863	11597
3338.609	11684
3340.353	11592
3342.1	11675
3343.845	11650
3345.588	11494
3347.332	11632
3349.074	11586
3350.817	11442
3352.56	11388
3354.303	11510
3356.043	11559
3357.785	11479
3359.525	11320
3361.268	11548
3363.007	11559
3364.745	11460
3366.485	11483
3368.223	11483
3369.962	11486
3371.701	11522
3373.438	11324
3375.174	11487
3376.911	11395
3378.647	11403
3380.384	11433
3382.118	11316
3383.854	11282
3385.588	11345
3387.322	11401
3389.057	11186
3390.79	11332
3392.522	11282
3394.255	11205
3395.987	11370
3397.719	11360
3399.451	11240
3401.181	11443
3402.911	11155
3404.641	11372
3406.371	11226
3408.101	11202
3409.83	11402
3411.558	11237
3413.285	11237
3415.011	11262
3416.739	11288
3418.467	11057
3420.193	11095
3421.919	11129
3423.644	11166
3425.368	11125
3427.094	11194
3428.818	11153
3430.542	11232
3432.264	11325
3433.987	11161
3435.712	11104
3437.434	11120
3439.155	11062
3440.876	11129
3442.596	10965
3444.317	11021
3446.039	10981
3447.757	10883
3449.477	11085
3451.195	10946
3452.914	10986
3454.632	10896
3456.35	11100
3458.067	10783
3459.784	10876
3461.5	11121
3463.216	11051
3464.932	10787
3466.647	10763
3468.362	10908
3470.076	10811
3471.789	10926
3473.505	10778
3475.217	10694
3476.929	10872
3478.641	10813
3480.354	10761
3482.066	10822
3483.777	10685
3485.487	10659
3487.197	10780
3488.908	10620
3490.617	10924
3492.327	10626
3494.035	10602
3495.743	10651
3497.451	10673
3499.158	10788
3500.866	10728
3502.572	10598
3504.278	10691
3505.984	10796
3507.689	10533
3509.396	10582
3511.1	10485
3512.804	10613
3514.508	10564
3516.211	10768
3517.913	10455
3519.616	10532
3521.319	10523
3523.021	10528
3524.722	10507
3526.422	10495
3528.124	10587
3529.824	10600
3531.524	10547
3533.222	10422
3534.921	10363
3536.62	10502
3538.318	10541
3540.016	10510
3541.714	10353
3543.41	10488
3545.107	10388
3546.803	10258
3548.5	10438
3550.194	10409
3551.889	10429
3553.583	10201
3555.279	10364
3556.972	10411
3558.666	10294
3560.358	10507
3562.051	10337
3563.742	10181
3565.435	10406
3567.126	10183
3568.817	10221
3570.507	10378
3572.197	10193
3573.888	10290
3575.577	10353
3577.265	10178
3578.954	10150
3580.642	10391
3582.329	10285
3584.017	10265
3585.704	10309
3587.391	10098
3589.077	10215
3590.762	10191
3592.449	10259
3594.133	10096
3595.817	10208
3597.501	10005
3599.185	9950
3600.869	10050
3602.552	10042
3604.234	10179
3605.916	10145
3607.598	10021
3609.279	9971
3610.961	10011
3612.642	9965
3614.321	9968
3616	9857
3617.68	9970
3619.36	9902
3621.039	9924
3622.716	9933
3624.394	9894
3626.071	9878
3627.748	10046
3629.425	10013
3631.102	9943
3632.778	9956
3634.452	9721
3636.127	9839
3637.803	9929
3639.477	9890
3641.151	9698
3642.823	9776
3644.497	9874
3646.171	9659
3647.842	9867
3649.515	9782
3651.185	9760
3652.857	9687
3654.527	9749
3656.198	9764
3657.868	9611
3659.537	9865
3661.207	9729
3662.875	9801
3664.544	9684
3666.212	9657
3667.879	9584
3669.546	9779
3671.212	9760
3672.88	9661
3674.546	9594
3676.211	9695
3677.875	9715
3679.541	9623
3681.205	9616
3682.87	9673
3684.533	9602
3686.196	9631
3687.859	9541
3689.521	9578
3691.184	9587
3692.845	9603
3694.507	9502
3696.167	9557
3697.827	9591
3699.487	9620
3701.148	9446
3702.808	9618
3704.466	9587
3706.125	9534
3707.783	9562
3709.442	9557
3711.099	9533
3712.757	9615
3714.412	9438
3716.068	9417
3717.725	9529
3719.381	9375
3721.036	9496
3722.689	9530
3724.344	9443
3725.998	9481
3727.652	9386
3729.305	9398
3730.958	9547
3732.61	9386
3734.262	9407
3735.915	9493
3737.565	9477
3739.217	9409
3740.866	9439
3742.516	9358
3744.165	9437
3745.816	9395
3747.464	9288
3749.113	9431
3750.761	9319
3752.409	9298
3754.057	9359
3755.703	9264
3757.35	9283
3758.996	9385
3760.641	9150
3762.289	9214
3763.933	9199
3765.577	9274
3767.222	9195
3768.865	9265
3770.508	9191
3772.152	9198
3773.796	9120
3775.438	9193
3777.079	9091
3778.721	9353
3780.363	9150
3782.003	9098
3783.643	9155
3785.283	8953
3786.923	9259
3788.563	9165
3790.203	9025
3791.841	8995
3793.479	9034
3795.115	9195
3796.753	9010
3798.391	9133
3800.027	9036
3801.664	9035
3803.299	9068
3804.935	9102
3806.571	8986
3808.206	8873
3809.839	8891
3811.473	9153
3813.107	8810
3814.74	8887
3816.375	8967
3818.006	8887
3819.638	8872
3821.27	8968
3822.9	8960
3824.532	8841
3826.163	8967
3827.792	8836
3829.423	8989
3831.051	8707
3832.682	8983
3834.311	8826
3835.938	8903
3837.566	8945
3839.193	8819
3840.821	8877
3842.448	8989
3844.075	8828
3845.7	8727
3847.325	8762
3848.951	8919
3850.576	8803
3852.201	8766
3853.825	8822
3855.448	8798
3857.072	8675
3858.694	8819
3860.318	8744
3861.939	8756
3863.562	8715
3865.183	8748
3866.804	8640
3868.426	8667
3870.045	8705
3871.666	8649
3873.285	8800
3874.904	8596
3876.524	8681
3878.142	8698
3879.76	8742
3881.378	8697
3882.995	8559
3884.612	8699
3886.229	8533
3887.845	8543
3889.461	8701
3891.076	8548
3892.691	8641
3894.307	8526
3895.922	8605
3897.536	8564
3899.149	8528
3900.761	8487
3902.374	8573
3903.988	8524
3905.6	8556
3907.212	8529
3908.822	8498
3910.433	8489
3912.045	8503
3913.655	8430
3915.265	8441
3916.875	8589
3918.483	8376
3920.093	8480
3921.702	8506
3923.309	8498
3924.917	8398
3926.523	8394
3928.13	8387
3929.739	8379
3931.344	8565
3932.95	8469
3934.555	8487
3936.159	8482
3937.766	8545
3939.369	8362
3940.974	8463
3942.577	8388
3944.181	8424
3945.783	8396
3947.386	8363
3948.989	8501
3950.59	8420
3952.191	8414
3953.791	8412
3955.394	8366
3956.994	8257
3958.593	8426
3960.192	8268
3961.791	8335
3963.392	8383
3964.99	8295
3966.588	8293
3968.185	8306
3969.782	8213
3971.379	8276
3972.976	8329
3974.572	8170
3976.168	8290
3977.763	8222
3979.358	8140
3980.954	8070
3982.548	8091
3984.142	8092
3985.736	8289
3987.329	8047
3988.922	8052
3990.516	8055
3992.108	8203
3993.698	7988
3995.29	8208
3996.881	8051
3998.473	8013
4000.064	8159
4001.653	8158
4003.242	8105
4004.832	7934
4006.422	8052
4008.01	8031
4009.598	8069
4011.186	7957
4012.773	7991
4014.36	8035
4015.947	7924
4017.534	7982
4019.119	7973
4020.705	7892
4022.291	7890
4023.876	7815
4025.461	7865
4027.044	7925
4028.627	7950
4030.211	7829
4031.795	7856
4033.378	7861
4034.96	7757
4036.542	7771
4038.124	7716
4039.704	7859
4041.286	7654
4042.867	7765
4044.447	7735
4046.026	7639
4047.606	7818
4049.187	7706
4050.765	7852
4052.343	7757
4053.92	7778
4055.498	7672
4057.076	7600
4058.654	7854
4060.23	7729
4061.806	7788
4063.381	7590
4064.957	7796
4066.533	7648
4068.107	7668
4069.682	7619
4071.256	7668
4072.829	7639
4074.404	7541
4075.977	7680
4077.549	7812
4079.121	7658
4080.693	7641
4082.265	7625
4083.836	7649
4085.407	7634
4086.977	7663
4088.547	7558
4090.117	7604
4091.687	7471
4093.256	7602
4094.825	7591
4096.392	7448
4097.96	7539
4099.528	7557
4101.097	7570
4102.663	7429
4104.229	7457
4105.795	7400
4107.361	7494
4108.928	7495
4110.493	7379
4112.058	7511
4113.621	7604
4115.186	7434
4116.75	7512
4118.313	7309
4119.876	7346
4121.438	7477
4123	7300
4124.562	7250
4126.125	7396
4127.686	7299
4129.246	7326
4130.807	7304
4132.367	7343
4133.927	7318
4135.486	7287
4137.046	7291
4138.604	7316
4140.162	7269
4141.72	7428
4143.279	7313
4144.836	7183
4146.393	7432
4147.949	7206
4149.505	7288
4151.062	7181
4152.617	7304
4154.172	7172
4155.727	7159
4157.281	7199
4158.836	7325
4160.39	7148
4161.943	7073
4163.496	6997
4165.048	7143
4166.601	7053
4168.154	7009
4169.706	7099
4171.257	7155
4172.808	7136
4174.358	7083
4175.909	7005
4177.458	7054
4179.008	7027
4180.558	6931
4182.106	6985
4183.655	7010
4185.204	6935
4186.751	6994
4188.298	7003
4189.845	6986
4191.392	6941
4192.939	7032
4194.485	7137
4196.031	6947
4197.576	6976
4199.121	6855
4200.666	6846
4202.211	6934
4203.754	6992
4205.298	6940
4206.84	6927
4208.384	6859
4209.927	6831
4211.47	7037
4213.011	6952
4214.552	6926
4216.094	6886
4217.635	6912
4219.175	6892
4220.716	7006
4222.255	6881
4223.793	6759
4225.335	6841
4226.873	6828
4228.411	6790
4229.948	6832
4231.486	6854
4233.024	6714
4234.562	6805
4236.098	6868
4237.634	6909
4239.169	6720
4240.705	6692
4242.241	6791
4243.776	6757
4245.31	6970
4246.844	6804
4248.378	6686
4249.911	6727
4251.445	6737
4252.978	6758
4254.51	6752
4256.042	6633
4257.574	6616
4259.107	6601
4260.638	6712
4262.169	6646
4263.699	6638
4265.228	6676
4266.759	6647
4268.289	6725
4269.818	6748
4271.345	6592
4272.874	6659
4274.402	6542
4275.931	6596
4277.458	6644
4278.985	6650
4280.512	6649
4282.037	6765
4283.564	6679
4285.089	6605
4286.615	6436
4288.139	6608
4289.664	6548
4291.187	6562
4292.712	6620
4294.235	6660
4295.759	6543
4297.281	6552
4298.804	6545
4300.327	6571
4301.849	6452
4303.37	6445
4304.891	6482
4306.412	6473
4307.933	6502
4309.453	6461
4310.973	6533
4312.492	6459
