398.1873	2733
400.7097	2831
403.2336	2847
405.7547	2898
408.2751	2819
410.7948	2815
413.3138	2858
415.83	2891
418.3497	2940
420.8666	2883
423.3829	2922
425.8985	2947
428.4133	2995
430.9275	3029
433.441	2971
435.9538	2935
438.4639	2937
440.9753	2939
443.4881	2965
445.9982	2971
448.5055	2936
451.0142	3025
453.5201	2989
456.0274	3012
458.5361	2941
461.04	3007
463.5453	2998
466.0478	2998
468.5517	2944
471.0549	2986
473.5574	2987
476.0572	3020
478.5584	2949
481.0568	3032
483.5545	3017
486.0557	2999
488.5521	3023
491.0478	2962
493.5449	3039
496.0392	3029
498.5349	3081
501.0299	3017
503.5222	2999
506.0139	3033
508.5048	3102
510.9991	3106
513.4887	3092
515.9777	3041
518.4659	3074
520.9534	3166
523.4403	3106
525.9306	3087
528.4161	3137
530.9009	3175
533.3851	3154
535.8687	3148
538.3535	3114
540.8356	3130
543.3171	3072
545.7979	3119
548.278	3091
550.7595	3106
553.2383	3168
555.7144	3099
558.1918	3113
560.6685	3123
563.1446	3071
565.6221	3125
568.0968	3202
570.5688	3215
573.0422	3173
575.515	3200
577.989	3207
580.4584	3239
582.9291	3256
585.3991	3251
587.8685	3213
590.3352	3240
592.8052	3243
595.2706	3205
597.7372	3205
600.2033	3189
602.6666	3177
605.1334	3257
607.5953	3178
610.0587	3179
612.5193	3196
614.9814	3224
617.4427	3228
619.9034	3166
622.3615	3110
624.8208	3188
627.2775	3073
629.7335	3228
632.1929	3188
634.6476	3141
637.1016	3246
639.5569	3167
642.0096	3268
644.4637	3181
646.9151	3231
649.3678	3233
651.8179	3201
654.2672	3280
656.7159	3182
659.166	3284
661.6154	3252
664.0622	3202
666.5082	3217
668.9537	3192
671.4005	3265
673.8445	3281
676.288	3313
678.7308	3270
681.1729	3223
683.6163	3275
686.0572	3297
688.4973	3285
690.9368	3330
693.3757	3185
695.8138	3286
698.2534	3360
700.6902	3261
703.1245	3343
705.56	3320
707.9949	3366
710.4311	3332
712.8647	3370
715.2957	3293
717.7279	3323
720.1595	3412
722.5905	3359
725.0208	3334
727.4505	3514
729.8795	3391
732.3058	3416
734.7336	3443
737.1626	3400
739.587	3442
742.0128	3450
744.4359	3393
746.8604	3432
749.2841	3432
751.7073	3448
754.1278	3456
756.5496	3497
758.9688	3494
761.3893	3503
763.8093	3491
766.2285	3544
768.6451	3486
771.0611	3509
773.4784	3606
775.895	3540
778.3091	3532
780.7244	3506
783.1371	3443
785.5493	3568
787.9626	3539
790.3754	3565
792.7856	3497
795.1951	3551
797.6039	3494
800.0121	3492
802.4236	3495
804.8306	3544
807.2369	3537
809.6425	3559
812.0475	3639
814.4538	3587
816.8575	3522
819.2606	3464
821.663	3587
824.0648	3504
826.4659	3671
828.8683	3489
831.2682	3595
833.6674	3604
836.066	3579
838.4639	3625
840.8632	3581
843.2579	3524
845.6539	3594
848.0493	3644
850.444	3617
852.84	3648
855.2315	3606
857.6243	3568
860.0165	3512
862.4081	3588
864.797	3645
867.1892	3583
869.5789	3645
871.9659	3680
874.3542	3659
876.74	3590
879.129	3628
881.5155	3590
883.8994	3595
886.2845	3674
888.6671	3614
891.051	3603
893.4343	3692
895.8169	3626
898.197	3619
900.5783	3617
902.9571	3720
905.3372	3561
907.7167	3614
910.0936	3696
912.4698	3705
914.8474	3738
917.2244	3646
919.5987	3653
921.9744	3717
924.3475	3689
926.72	3741
929.0918	3711
931.4669	3732
933.8375	3786
936.2074	3792
938.5767	3840
940.9454	3823
943.3154	3905
945.6829	3940
948.0497	3921
950.4178	4138
952.7833	4161
955.1483	4261
957.5145	4462
959.8782	4448
962.2412	4336
964.6036	4365
966.9655	4291
969.3266	4128
971.6871	3965
974.0471	4016
976.4064	3840
978.765	3857
981.125	3747
983.4824	3684
985.8373	3796
988.1935	3723
990.549	3760
992.9039	3789
995.2602	3778
997.6119	3732
999.965	3704
1002.317	3706
1004.667	3738
1007.02	3794
1009.371	3867
1011.719	3777
1014.068	3750
1016.415	3779
1018.765	3809
1021.111	3783
1023.458	3795
1025.804	3780
1028.147	3767
1030.49	3755
1032.837	3791
1035.179	3771
1037.522	3774
1039.862	3763
1042.204	3857
1044.546	3829
1046.884	3838
1049.224	3794
1051.562	3865
1053.899	3822
1056.237	3841
1058.575	3805
1060.91	3798
1063.244	3976
1065.58	3806
1067.913	3875
1070.248	3905
1072.579	3924
1074.911	3945
1077.242	3806
1079.572	3909
1081.905	3837
1084.234	3737
1086.562	3812
1088.89	3946
1091.217	3935
1093.544	3857
1095.871	3882
1098.197	3867
1100.521	3893
1102.845	3808
1105.169	3834
1107.491	3811
1109.814	3925
1112.135	3870
1114.456	3844
1116.776	3789
1119.096	3892
1121.415	3879
1123.734	3832
1126.052	3869
1128.369	3891
1130.686	3830
1133.002	3925
1135.318	3872
1137.632	3849
1139.945	3823
1142.258	3815
1144.573	3799
1146.884	3854
1149.196	3928
1151.505	3889
1153.816	3894
1156.124	3908
1158.435	3857
1160.742	3881
1163.051	3832
1165.356	3931
1167.663	3914
1169.97	3842
1172.276	3879
1174.579	3782
1176.881	3967
1179.186	3882
1181.487	3969
1183.79	3837
1186.092	3877
1188.392	3881
1190.691	3875
1192.991	3926
1195.291	3812
1197.588	3920
1199.885	3904
1202.181	3918
1204.479	3802
1206.775	3917
1209.07	3884
1211.363	3939
1213.656	3943
1215.949	3838
1218.241	3991
1220.534	3910
1222.825	3933
1225.115	3898
1227.405	3880
1229.693	3977
1231.984	3910
1234.271	3987
1236.558	3994
1238.845	4063
1241.131	4025
1243.416	4032
1245.703	4032
1247.987	3975
1250.269	3968
1252.552	4074
1254.834	4021
1257.118	3985
1259.399	3926
1261.678	3960
1263.958	4065
1266.237	4018
1268.516	3972
1270.794	3984
1273.072	4024
1275.347	4020
1277.624	3999
1279.899	4064
1282.175	4011
1284.449	4080
1286.722	4033
1288.995	3923
1291.266	3979
1293.54	3969
1295.81	4018
1298.081	3980
1300.35	4092
1302.62	4017
1304.889	4039
1307.156	3988
1309.425	3960
1311.69	4055
1313.957	4093
1316.222	3948
1318.488	3974
1320.751	4012
1323.016	4009
1325.278	4018
1327.54	3950
1329.803	4051
1332.065	3900
1334.325	4046
1336.584	4056
1338.843	4019
1341.101	3965
1343.36	4068
1345.617	4058
1347.876	4045
1350.131	4048
1352.387	3981
1354.643	4036
1356.897	4009
1359.151	3997
1361.403	3972
1363.656	4080
1365.909	4019
1368.16	4094
1370.409	4059
1372.659	4000
1374.909	3988
1377.157	4080
1379.407	4042
1381.655	4048
1383.9	4040
1386.147	4048
1388.393	4117
1390.64	4069
1392.885	4046
1395.127	4124
1397.37	4072
1399.614	4112
1401.854	4107
1404.098	4109
1406.339	3966
1408.578	4024
1410.818	4062
1413.056	4077
1415.297	4057
1417.533	4079
1419.771	4053
1422.006	4112
1424.243	4161
1426.479	4095
1428.715	4070
1430.948	4218
1433.182	4212
1435.414	4173
1437.647	4200
1439.88	4190
1442.11	4131
1444.342	4185
1446.571	4236
1448.799	4079
1451.029	4172
1453.258	4216
1455.485	4245
1457.711	4178
1459.937	4156
1462.164	4206
1464.39	4063
1466.614	4110
1468.838	4150
1471.06	4182
1473.283	4081
1475.506	4176
1477.727	4080
1479.949	4077
1482.169	4082
1484.389	4139
1486.609	4081
1488.828	4131
1491.045	4111
1493.261	4124
1495.477	4028
1497.693	4083
1499.91	4072
1502.125	4012
1504.339	4059
1506.553	4155
1508.766	3977
1510.979	4043
1513.191	4059
1515.402	4076
1517.613	4134
1519.823	4063
1522.033	4094
1524.242	4128
1526.451	4021
1528.657	4045
1530.865	4066
1533.072	4109
1535.278	3981
1537.484	4183
1539.687	4072
1541.892	4090
1544.096	4122
1546.299	4039
1548.502	4176
1550.703	4064
1552.905	4159
1555.104	4145
1557.303	4203
1559.505	4190
1561.703	4108
1563.902	4176
1566.099	4120
1568.295	4214
1570.494	4174
1572.689	4131
1574.883	4100
1577.079	4077
1579.272	4176
1581.467	4217
1583.659	4215
1585.853	4177
1588.044	4272
1590.234	4225
1592.424	4206
1594.615	4214
1596.806	4136
1598.994	4209
1601.182	4247
1603.369	4206
1605.557	4211
1607.744	4212
1609.929	4249
1612.114	4219
1614.298	4152
1616.482	4210
1618.667	4233
1620.85	4242
1623.032	4232
1625.214	4269
1627.395	4314
1629.575	4220
1631.755	4258
1633.935	4266
1636.114	4308
1638.292	4352
1640.471	4215
1642.647	4223
1644.823	4281
1647	4239
1649.175	4330
1651.348	4322
1653.525	4297
1655.698	4245
1657.87	4357
1660.043	4200
1662.213	4258
1664.387	4229
1666.558	4311
1668.727	4314
1670.896	4239
1673.064	4339
1675.233	4421
1677.401	4380
1679.569	4313
1681.735	4332
1683.902	4365
1686.066	4235
1688.233	4228
1690.397	4217
1692.559	4375
1694.723	4333
1696.885	4267
1699.048	4234
1701.21	4216
1703.37	4271
1705.53	4157
1707.689	4305
1709.849	4248
1712.009	4310
1714.166	4206
1716.323	4161
1718.479	4199
1720.634	4345
1722.793	4249
1724.948	4246
1727.102	4225
1729.255	4167
1731.408	4185
1733.562	4219
1735.714	4278
1737.865	4201
1740.016	4246
1742.166	4244
1744.316	4209
1746.467	4121
1748.616	4266
1750.764	4246
1752.911	4353
1755.056	4315
1757.205	4213
1759.35	4252
1761.496	4286
1763.641	4374
1765.785	4346
1767.927	4310
1770.072	4249
1772.214	4456
1774.355	4320
1776.496	4341
1778.637	4338
1780.778	4386
1782.918	4371
1785.057	4364
1787.194	4263
1789.333	4333
1791.472	4366
1793.608	4304
1795.745	4344
1797.879	4408
1800.015	4293
1802.148	4323
1804.284	4318
1806.417	4338
1808.548	4411
1810.682	4376
1812.812	4341
1814.946	4356
1817.075	4386
1819.205	4275
1821.335	4332
1823.463	4339
1825.59	4354
1827.721	4343
1829.847	4297
1831.973	4204
1834.098	4320
1836.223	4303
1838.351	4368
1840.475	4339
1842.598	4323
1844.721	4305
1846.843	4272
1848.966	4245
1851.087	4255
1853.21	4302
1855.33	4292
1857.449	4383
1859.568	4319
1861.688	4291
1863.806	4311
1865.924	4295
1868.039	4305
1870.155	4274
1872.273	4259
1874.388	4281
1876.503	4312
1878.617	4285
1880.73	4373
1882.844	4237
1884.956	4461
1887.068	4374
1889.18	4277
1891.291	4324
1893.4	4311
1895.511	4413
1897.621	4303
1899.73	4361
1901.837	4291
1903.944	4310
1906.053	4385
1908.159	4397
1910.265	4371
1912.369	4447
1914.474	4366
1916.577	4412
1918.683	4411
1920.785	4399
1922.888	4391
1924.989	4414
1927.091	4456
1929.193	4415
1931.294	4411
1933.393	4414
1935.493	4381
1937.59	4362
1939.689	4483
1941.788	4478
1943.884	4371
1945.98	4445
1948.077	4356
1950.171	4374
1952.267	4417
1954.361	4412
1956.455	4437
1958.548	4435
1960.64	4341
1962.733	4443
1964.824	4395
1966.915	4429
1969.005	4385
1971.096	4356
1973.185	4398
1975.275	4439
1977.363	4427
1979.45	4564
1981.537	4433
1983.623	4443
1985.711	4423
1987.796	4413
1989.881	4378
1991.965	4367
1994.047	4345
1996.132	4407
1998.215	4401
2000.297	4356
2002.378	4501
2004.46	4242
2006.54	4376
2008.62	4382
2010.7	4402
2012.779	4384
2014.858	4417
2016.934	4362
2019.013	4440
2021.09	4375
2023.165	4438
2025.241	4359
2027.317	4433
2029.39	4415
2031.466	4349
2033.538	4431
2035.612	4447
2037.683	4379
2039.755	4407
2041.827	4421
2043.898	4336
2045.968	4387
2048.038	4375
2050.106	4417
2052.177	4366
2054.244	4410
2056.313	4420
2058.379	4421
2060.444	4487
2062.511	4335
2064.577	4430
2066.641	4368
2068.705	4449
2070.77	4489
2072.832	4430
2074.896	4315
2076.958	4450
2079.02	4381
2081.081	4379
2083.141	4345
2085.2	4336
2087.261	4445
2089.319	4381
2091.377	4420
2093.435	4499
2095.492	4452
2097.552	4516
2099.607	4425
2101.663	4436
2103.718	4404
2105.771	4469
2107.826	4346
2109.879	4427
2111.932	4444
2113.985	4411
2116.037	4397
2118.088	4476
2120.141	4556
2122.191	4345
2124.239	4402
2126.288	4339
2128.337	4462
2130.387	4395
2132.434	4508
2134.481	4376
2136.528	4336
2138.574	4400
2140.618	4445
2142.665	4394
2144.71	4404
2146.753	4398
2148.797	4354
2150.838	4309
2152.883	4448
2154.923	4385
2156.965	4363
2159.007	4397
2161.046	4471
2163.086	4416
2165.126	4443
2167.163	4399
2169.202	4384
2171.239	4456
2173.277	4419
2175.314	4353
2177.349	4397
2179.385	4325
2181.42	4372
2183.453	4350
2185.49	4308
2187.522	4389
2189.555	4353
2191.586	4360
2193.619	4371
2195.651	4297
2197.682	4302
2199.711	4280
2201.74	4424
2203.769	4404
2205.799	4363
2207.828	4375
2209.855	4369
2211.882	4376
2213.908	4371
2215.934	4328
2217.961	4368
2219.986	4419
2222.01	4299
2224.034	4281
2226.057	4346
2228.08	4339
2230.104	4277
2232.124	4304
2234.145	4293
2236.166	4438
2238.186	4313
2240.207	4432
2242.227	4340
2244.244	4368
2246.262	4342
2248.28	4355
2250.299	4317
2252.314	4390
2254.33	4303
2256.346	4299
2258.36	4364
2260.375	4330
2262.391	4344
2264.403	4322
2266.416	4302
2268.427	4374
2270.44	4417
2272.453	4341
2274.463	4433
2276.474	4342
2278.483	4375
2280.493	4304
2282.501	4417
2284.51	4392
2286.518	4326
2288.524	4419
2290.532	4274
2292.537	4406
2294.544	4346
2296.55	4299
2298.554	4424
2300.557	4339
2302.562	4394
2304.566	4369
2306.568	4442
2308.569	4351
2310.572	4331
2312.573	4420
2314.573	4332
2316.574	4302
2318.573	4366
2320.571	4322
2322.571	4319
2324.569	4422
2326.567	4323
2328.564	4457
2330.56	4391
2332.556	4272
2334.551	4242
2336.546	4333
2338.542	4308
2340.535	4352
2342.529	4285
2344.521	4309
2346.512	4310
2348.505	4258
2350.497	4321
2352.487	4354
2354.478	4267
2356.468	4257
2358.457	4281
2360.446	4288
2362.434	4307
2364.422	4237
2366.408	4418
2368.395	4364
2370.383	4321
2372.369	4240
2374.353	4312
2376.338	4391
2378.321	4286
2380.307	4380
2382.29	4283
2384.272	4308
2386.254	4277
2388.235	4320
2390.218	4226
2392.198	4310
2394.179	4237
2396.157	4244
2398.137	4318
2400.115	4273
2402.095	4303
2404.072	4183
2406.048	4226
2408.026	4262
2410.001	4259
2411.977	4289
2413.953	4297
2415.927	4243
2417.9	4310
2419.875	4194
2421.847	4168
2423.821	4209
2425.792	4251
2427.763	4270
2429.736	4281
2431.706	4378
2433.677	4300
2435.646	4294
2437.615	4196
2439.583	4283
2441.551	4268
2443.519	4283
2445.486	4232
2447.452	4299
2449.418	4199
2451.383	4257
2453.348	4256
2455.314	4326
2457.278	4205
2459.241	4182
2461.205	4372
2463.167	4321
2465.131	4252
2467.091	4317
2469.052	4249
2471.012	4210
2472.972	4196
2474.932	4320
2476.891	4301
2478.85	4308
2480.808	4227
2482.766	4198
2484.722	4271
2486.68	4182
2488.636	4302
2490.591	4168
2492.546	4200
2494.5	4232
2496.456	4227
2498.41	4128
2500.362	4298
2502.315	4252
2504.266	4196
2506.218	4196
2508.169	4154
2510.121	4171
2512.07	4342
2514.019	4219
2515.968	4194
2517.918	4248
2519.866	4223
2521.813	4260
2523.76	4152
2525.707	4276
2527.653	4170
2529.599	4171
2531.543	4297
2533.489	4207
2535.433	4196
2537.376	4200
2539.32	4291
2541.264	4275
2543.205	4141
2545.147	4086
2547.087	4154
2549.029	4223
2550.969	4198
2552.908	4203
2554.847	4291
2556.786	4295
2558.724	4259
2560.663	4202
2562.6	4268
2564.537	4235
2566.473	4216
2568.408	4182
2570.345	4207
2572.28	4227
2574.214	4148
2576.148	4223
2578.081	4144
2580.014	4189
2581.947	4266
2583.879	4260
2585.81	4130
2587.741	4229
2589.67	4195
2591.602	4245
2593.532	4189
2595.461	4241
2597.388	4286
2599.316	4279
2601.244	4230
2603.172	4180
2605.098	4236
2607.023	4274
2608.949	4285
2610.873	4176
2612.8	4261
2614.723	4256
2616.647	4279
2618.569	4208
2620.493	4224
2622.416	4327
2624.338	4193
2626.258	4217
2628.179	4271
2630.099	4293
2632.019	4283
2633.939	4194
2635.857	4224
2637.775	4221
2639.694	4285
2641.61	4243
2643.528	4258
2645.444	4326
2647.361	4229
2649.276	4364
2651.19	4150
2653.105	4164
2655.019	4309
2656.934	4319
2658.846	4258
2660.758	4274
2662.67	4236
2664.583	4265
2666.493	4337
2668.404	4248
2670.313	4265
2672.223	4267
2674.134	4302
2676.042	4133
2677.95	4146
2679.858	4204
2681.765	4230
2683.673	4289
2685.579	4161
2687.483	4226
2689.389	4268
2691.294	4248
2693.198	4213
2695.104	4198
2697.006	4279
2698.909	4182
2700.811	4277
2702.713	4214
2704.615	4312
2706.516	4161
2708.417	4168
2710.316	4174
2712.216	4144
2714.115	4302
2716.014	4104
2717.913	4189
2719.81	4123
2721.707	4239
2723.603	4254
2725.501	4209
2727.396	4136
2729.292	4167
2731.186	4196
2733.081	4099
2734.976	4153
2736.87	4145
2738.762	4150
2740.653	4160
2742.546	4214
2744.437	4221
2746.329	4169
2748.22	4162
2750.11	4111
2751.999	4183
2753.889	4162
2755.778	4252
2757.666	4184
2759.553	4200
2761.44	4204
2763.328	4202
2765.215	4134
2767.101	4162
2768.986	4211
2770.87	4167
2772.754	4121
2774.638	4125
2776.523	4202
2778.405	4084
2780.288	4123
2782.17	4154
2784.051	4156
2785.934	4225
2787.814	4190
2789.694	4131
2791.574	4090
2793.453	4194
2795.332	4219
2797.212	4129
2799.088	4174
2800.966	4146
2802.843	4111
2804.719	4306
2806.597	4097
2808.471	4201
2810.346	4223
2812.221	4185
2814.094	4165
2815.969	4108
2817.843	4151
2819.714	4100
2821.587	4107
2823.459	4165
2825.329	4134
2827.202	4096
2829.072	4184
2830.942	4038
2832.811	4112
2834.68	4100
2836.549	4119
2838.418	4204
2840.284	4161
2842.152	4151
2844.018	4159
2845.885	4082
2847.751	4140
2849.616	4227
2851.482	4157
2853.345	4140
2855.208	4179
2857.074	4184
2858.937	4061
2860.799	4217
2862.66	4211
2864.522	4266
2866.385	4172
2868.245	4200
2870.104	4168
2871.964	4251
2873.824	4310
2875.683	4250
2877.542	4300
2879.4	4349
2881.257	4300
2883.114	4362
2884.97	4283
2886.827	4281
2888.683	4347
2890.537	4222
2892.392	4340
2894.246	4365
2896.1	4321
2897.954	4275
2899.807	4274
2901.66	4355
2903.51	4341
2905.362	4301
2907.214	4353
2909.065	4352
2910.915	4328
2912.765	4291
2914.613	4333
2916.463	4466
2918.311	4431
2920.158	4369
2922.006	4489
2923.853	4447
2925.698	4476
2927.546	4476
2929.392	4536
2931.236	4537
2933.081	4588
2934.924	4640
2936.77	4657
2938.613	4552
2940.455	4688
2942.298	4595
2944.139	4606
2945.982	4713
2947.823	4583
2949.662	4566
2951.503	4558
2953.342	4570
2955.182	4471
2957.021	4517
2958.858	4395
2960.697	4390
2962.534	4396
2964.37	4486
2966.207	4368
2968.044	4450
2969.879	4332
2971.714	4276
2973.548	4337
2975.383	4326
2977.218	4456
2979.051	4408
2980.883	4418
2982.715	4244
2984.547	4251
2986.379	4356
2988.21	4209
2990.04	4185
2991.87	4350
2993.7	4220
2995.53	4230
2997.359	4151
2999.187	4127
3001.015	4228
3002.842	4234
3004.669	4123
3006.497	4195
3008.323	4176
3010.148	4116
3011.974	3964
3013.797	4084
3015.623	4156
3017.447	4097
3019.27	4024
3021.094	4092
3022.915	4038
3024.737	4008
3026.56	4018
3028.38	3968
3030.201	3962
3032.022	4077
3033.84	4061
3035.662	4025
3037.481	4005
3039.298	3949
3041.117	4077
3042.933	4014
3044.752	3987
3046.568	3962
3048.385	3927
3050.2	4018
3052.016	3990
3053.83	3975
3055.646	3981
3057.46	3940
3059.272	3993
3061.086	3990
3062.898	3933
3064.711	3849
3066.524	3951
3068.335	3924
3070.145	3892
3071.956	3963
3073.766	3869
3075.576	3979
3077.385	3877
3079.193	3929
3081.002	3931
3082.81	3900
3084.618	3985
3086.425	3854
3088.231	3961
3090.036	3862
3091.842	3937
3093.648	3884
3095.452	3871
3097.257	3837
3099.06	3826
3100.863	3896
3102.666	3829
3104.47	3840
3106.272	3847
3108.073	3944
3109.875	3826
3111.676	3871
3113.477	3894
3115.277	3837
3117.077	3856
3118.874	3785
3120.673	3812
3122.473	3850
3124.271	3831
3126.066	3789
3127.863	3857
3129.66	3848
3131.456	3846
3133.252	3820
3135.047	3836
3136.842	3813
3138.635	3807
3140.429	3808
3142.223	3864
3144.016	3774
3145.808	3783
3147.6	3845
3149.392	3801
3151.183	3813
3152.975	3786
3154.765	3766
3156.553	3823
3158.344	3810
3160.132	3772
3161.922	3791
3163.71	3770
3165.497	3796
3167.285	3774
3169.071	3779
3170.858	3723
3172.645	3748
3174.429	3745
3176.214	3862
3177.998	3713
3179.783	3732
3181.568	3676
3183.351	3792
3185.133	3761
3186.915	3750
3188.698	3827
3190.481	3775
3192.261	3815
3194.042	3714
3195.822	3820
3197.601	3759
3199.381	3685
3201.161	3815
3202.939	3757
3204.717	3787
3206.495	3750
3208.272	3715
3210.05	3693
3211.826	3766
3213.602	3754
3215.376	3698
3217.151	3715
3218.927	3762
3220.702	3804
3222.476	3752
3224.249	3818
3226.021	3737
3227.793	3771
3229.567	3730
3231.339	3736
3233.109	3688
3234.88	3690
3236.651	3758
3238.421	3668
3240.191	3695
3241.96	3755
3243.728	3655
3245.497	3687
3247.263	3691
3249.033	3794
3250.799	3700
3252.566	3700
3254.331	3695
3256.097	3737
3257.863	3766
3259.628	3735
3261.392	3838
3263.156	3671
3264.919	3735
3266.683	3602
3268.447	3702
3270.208	3690
3271.969	3721
3273.731	3681
3275.492	3707
3277.253	3702
3279.013	3588
3280.773	3740
3282.532	3785
3284.291	3745
3286.05	3698
3287.808	3704
3289.566	3762
3291.323	3736
3293.079	3645
3294.835	3727
3296.593	3747
3298.348	3777
3300.102	3704
3301.857	3650
3303.611	3769
3305.366	3633
3307.119	3725
3308.872	3690
3310.624	3722
3312.376	3668
3314.129	3666
3315.881	3757
3317.631	3724
3319.38	3722
3321.13	3650
3322.88	3671
3324.631	3611
3326.379	3675
3328.126	3739
3329.875	3601
3331.622	3695
3333.371	3611
3335.116	3749
3336.863	3698
3338.609	3754
3340.353	3677
3342.1	3731
3343.845	3693
3345.588	3652
3347.332	3655
3349.074	3656
3350.817	3786
3352.56	3689
3354.303	3689
3356.043	3665
3357.785	3633
3359.525	3681
3361.268	3620
3363.007	3688
3364.745	3655
3366.485	3688
3368.223	3708
3369.962	3612
3371.701	3698
3373.438	3703
3375.174	3634
3376.911	3664
3378.647	3653
3380.384	3628
3382.118	3653
3383.854	3672
3385.588	3577
3387.322	3699
3389.057	3700
3390.79	3653
3392.522	3533
3394.255	3612
3395.987	3583
3397.719	3634
3399.451	3641
3401.181	3625
3402.911	3672
3404.641	3604
3406.371	3689
3408.101	3564
3409.83	3598
3411.558	3583
3413.285	3578
3415.011	3689
3416.739	3654
3418.467	3623
3420.193	3634
3421.919	3594
3423.644	3649
3425.368	3582
3427.094	3611
3428.818	3581
3430.542	3533
3432.264	3644
3433.987	3660
3435.712	3604
3437.434	3584
3439.155	3553
3440.876	3481
3442.596	3571
3444.317	3596
3446.039	3500
3447.757	3501
3449.477	3571
3451.195	3637
3452.914	3569
3454.632	3450
3456.35	3502
3458.067	3530
3459.784	3447
3461.5	3484
3463.216	3538
3464.932	3464
3466.647	3514
3468.362	3533
3470.076	3535
3471.789	3447
3473.505	3478
3475.217	3489
3476.929	3463
3478.641	3483
3480.354	3347
3482.066	3424
3483.777	3526
3485.487	3434
3487.197	3472
3488.908	3438
3490.617	3365
3492.327	3477
3494.035	3479
3495.743	3436
3497.451	3408
3499.158	3485
3500.866	3456
3502.572	3404
3504.278	3469
3505.984	3484
3507.689	3326
3509.396	3402
3511.1	3392
3512.804	3439
3514.508	3441
3516.211	3439
3517.913	3427
3519.616	3399
3521.319	3411
3523.021	3401
3524.722	3327
3526.422	3365
3528.124	3430
3529.824	3443
3531.524	3416
3533.222	3447
3534.921	3340
3536.62	3412
3538.318	3418
3540.016	3331
3541.714	3398
3543.41	3370
3545.107	3444
3546.803	3379
3548.5	3418
3550.194	3326
3551.889	3364
3553.583	3446
3555.279	3305
3556.972	3433
3558.666	3330
3560.358	3379
3562.051	3396
3563.742	3379
3565.435	3335
3567.126	3395
3568.817	3395
3570.507	3216
3572.197	3342
3573.888	3369
3575.577	3352
3577.265	3290
3578.954	3246
3580.642	3384
3582.329	3458
3584.017	3357
3585.704	3328
3587.391	3322
3589.077	3317
3590.762	3259
3592.449	3304
3594.133	3278
3595.817	3294
3597.501	3273
3599.185	3244
3600.869	3300
3602.552	3250
3604.234	3252
3605.916	3330
3607.598	3159
3609.279	3265
3610.961	3257
3612.642	3261
3614.321	3267
3616	3242
3617.68	3196
3619.36	3199
3621.039	3217
3622.716	3269
3624.394	3279
3626.071	3220
3627.748	3266
3629.425	3240
3631.102	3245
3632.778	3197
3634.452	3191
3636.127	3231
3637.803	3209
3639.477	3161
3641.151	3231
3642.823	3187
3644.497	3176
3646.171	3259
3647.842	3226
3649.515	3215
3651.185	3194
3652.857	3160
3654.527	3173
3656.198	3098
3657.868	3158
3659.537	3185
3661.207	3157
3662.875	3189
3664.544	3205
3666.212	3170
3667.879	3190
3669.546	3181
3671.212	3204
3672.88	3142
3674.546	3139
3676.211	3206
3677.875	3120
3679.541	3089
3681.205	3189
3682.87	3199
3684.533	3120
3686.196	3100
3687.859	3097
3689.521	3170
3691.184	3071
3692.845	3153
3694.507	3169
3696.167	3116
3697.827	3093
3699.487	3100
3701.148	3130
3702.808	3159
3704.466	3092
3706.125	3148
3707.783	3078
3709.442	3121
3711.099	3186
3712.757	3082
3714.412	3198
3716.068	3143
3717.725	3114
3719.381	3157
3721.036	3112
3722.689	3140
3724.344	3117
3725.998	3095
3727.652	3054
3729.305	3054
3730.958	3049
3732.61	3118
3734.262	3097
3735.915	3093
3737.565	3045
3739.217	3111
3740.866	3107
3742.516	3105
3744.165	3073
3745.816	3046
3747.464	3063
3749.113	3049
3750.761	3078
3752.409	3028
3754.057	3152
3755.703	2993
3757.35	3156
3758.996	3026
3760.641	3122
3762.289	3021
3763.933	3038
3765.577	3000
3767.222	2979
3768.865	3043
3770.508	3051
3772.152	3020
3773.796	3089
3775.438	3064
3777.079	3038
3778.721	3066
3780.363	3031
3782.003	3079
3783.643	3016
3785.283	2982
3786.923	3025
3788.563	3002
3790.203	3055
3791.841	3054
3793.479	3034
3795.115	2960
3796.753	3039
3798.391	3003
3800.027	3021
3801.664	3068
3803.299	2964
3804.935	3080
3806.571	2979
3808.206	3019
3809.839	2938
3811.473	2947
3813.107	2897
3814.74	2980
3816.375	3043
3818.006	3001
3819.638	3013
3821.27	2975
3822.9	3039
3824.532	2960
3826.163	2917
3827.792	2938
3829.423	2940
3831.051	2960
3832.682	3000
3834.311	3048
3835.938	2947
3837.566	2892
3839.193	2983
3840.821	2966
3842.448	2944
3844.075	2866
3845.7	2894
3847.325	2893
3848.951	2923
3850.576	2926
3852.201	2961
3853.825	2954
3855.448	2871
3857.072	2931
3858.694	2981
3860.318	2889
3861.939	3017
3863.562	2932
3865.183	2938
3866.804	2894
3868.426	2928
3870.045	2895
3871.666	2911
3873.285	2939
3874.904	2897
3876.524	2847
3878.142	2885
3879.76	2840
3881.378	2881
3882.995	2877
3884.612	2821
3886.229	2814
3887.845	2892
3889.461	2892
3891.076	2838
3892.691	2884
3894.307	2883
3895.922	2893
3897.536	2891
3899.149	2863
3900.761	2845
3902.374	2872
3903.988	2904
3905.6	2891
3907.212	2890
3908.822	2898
3910.433	2906
3912.045	2833
3913.655	2839
3915.265	2854
3916.875	2853
3918.483	2910
3920.093	2861
3921.702	2856
3923.309	2862
3924.917	2860
3926.523	2844
3928.13	2797
3929.739	2826
3931.344	2853
3932.95	2884
3934.555	2869
3936.159	2740
3937.766	2899
3939.369	2805
3940.974	2866
3942.577	2808
3944.181	2808
3945.783	2778
3947.386	2796
3948.989	2837
3950.59	2808
3952.191	2811
3953.791	2782
3955.394	2741
3956.994	2830
3958.593	2844
3960.192	2900
3961.791	2797
3963.392	2817
3964.99	2770
3966.588	2768
3968.185	2831
3969.782	2812
3971.379	2848
3972.976	2781
3974.572	2824
3976.168	2860
3977.763	2749
3979.358	2792
3980.954	2732
3982.548	2769
3984.142	2703
3985.736	2767
3987.329	2756
3988.922	2728
3990.516	2823
3992.108	2741
3993.698	2763
3995.29	2684
3996.881	2767
3998.473	2686
4000.064	2800
4001.653	2730
4003.242	2799
4004.832	2676
4006.422	2742
4008.01	2687
4009.598	2728
4011.186	2725
4012.773	2695
4014.36	2649
4015.947	2721
4017.534	2691
4019.119	2742
4020.705	2714
4022.291	2670
4023.876	2776
4025.461	2694
4027.044	2635
4028.627	2673
4030.211	2677
4031.795	2698
4033.378	2615
4034.96	2625
4036.542	2643
4038.124	2649
4039.704	2744
4041.286	2648
4042.867	2691
4044.447	2659
4046.026	2673
4047.606	2676
4049.187	2736
4050.765	2657
4052.343	2643
4053.92	2637
4055.498	2637
4057.076	2633
4058.654	2614
4060.23	2661
4061.806	2646
4063.381	2628
4064.957	2656
4066.533	2565
4068.107	2638
4069.682	2629
4071.256	2621
4072.829	2600
4074.404	2599
4075.977	2524
4077.549	2614
4079.121	2611
4080.693	2613
4082.265	2631
4083.836	2590
4085.407	2661
4086.977	2566
4088.547	2559
4090.117	2606
4091.687	2603
4093.256	2688
4094.825	2582
4096.392	2561
4097.96	2531
4099.528	2628
4101.097	2554
4102.663	2561
4104.229	2565
4105.795	2551
4107.361	2560
4108.928	2571
4110.493	2571
4112.058	2571
4113.621	2559
4115.186	2563
4116.75	2539
4118.313	2538
4119.876	2625
4121.438	2615
4123	2572
4124.562	2532
4126.125	2565
4127.686	2620
4129.246	2523
4130.807	2542
4132.367	2551
4133.927	2587
4135.486	2543
4137.046	2439
4138.604	2569
4140.162	2533
4141.72	2498
4143.279	2584
4144.836	2534
4146.393	2495
4147.949	2546
4149.505	2558
4151.062	2492
4152.617	2474
4154.172	2490
4155.727	2525
4157.281	2489
4158.836	2465
4160.39	2469
4161.943	2478
4163.496	2527
4165.048	2502
4166.601	2511
4168.154	2482
4169.706	2476
4171.257	2456
4172.808	2475
4174.358	2473
4175.909	2410
4177.458	2397
4179.008	2424
4180.558	2482
4182.106	2444
4183.655	2463
4185.204	2436
4186.751	2445
4188.298	2365
4189.845	2508
4191.392	2465
4192.939	2452
4194.485	2417
4196.031	2451
4197.576	2524
4199.121	2449
4200.666	2505
4202.211	2475
4203.754	2436
4205.298	2434
4206.84	2400
4208.384	2456
4209.927	2391
4211.47	2430
4213.011	2377
4214.552	2497
4216.094	2450
4217.635	2413
4219.175	2431
4220.716	2397
4222.255	2388
4223.793	2428
4225.335	2446
4226.873	2447
4228.411	2433
4229.948	2362
4231.486	2404
4233.024	2402
4234.562	2345
4236.098	2400
4237.634	2386
4239.169	2308
4240.705	2399
4242.241	2389
4243.776	2382
4245.31	2325
4246.844	2408
4248.378	2408
4249.911	2347
4251.445	2385
4252.978	2402
4254.51	2400
4256.042	2393
4257.574	2401
4259.107	2425
4260.638	2417
4262.169	2420
4263.699	2319
4265.228	2402
4266.759	2309
4268.289	2426
4269.818	2351
4271.345	2378
4272.874	2310
4274.402	2341
4275.931	2344
4277.458	2380
4278.985	2317
4280.512	2327
4282.037	2305
4283.564	2340
4285.089	2386
4286.615	2302
4288.139	2385
4289.664	2284
4291.187	2333
4292.712	2360
4294.235	2339
4295.759	2331
4297.281	2348
4298.804	2377
4300.327	2282
4301.849	2298
4303.37	2299
4304.891	2338
4306.412	2304
4307.933	2302
4309.453	2230
4310.973	2371
4312.492	2363
