398.1873	5162
400.7097	5074
403.2336	5108
405.7547	5077
408.2751	5218
410.7948	5241
413.3138	5214
415.83	5230
418.3497	5199
420.8666	5277
423.3829	5374
425.8985	5405
428.4133	5410
430.9275	5510
433.441	5501
435.9538	5526
438.4639	5596
440.9753	5421
443.4881	5475
445.9982	5573
448.5055	5400
451.0142	5487
453.5201	5440
456.0274	5479
458.5361	5373
461.04	5493
463.5453	5490
466.0478	5539
468.5517	5488
471.0549	5502
473.5574	5487
476.0572	5450
478.5584	5508
481.0568	5519
483.5545	5543
486.0557	5538
488.5521	5526
491.0478	5675
493.5449	5656
496.0392	5598
498.5349	5641
501.0299	5663
503.5222	5747
506.0139	5747
508.5048	5753
510.9991	5683
513.4887	5655
515.9777	5686
518.4659	5746
520.9534	5651
523.4403	5692
525.9306	5807
528.4161	5794
530.9009	5745
533.3851	5771
535.8687	5726
538.3535	5780
540.8356	5694
543.3171	5685
545.7979	5712
548.278	5719
550.7595	5665
553.2383	5851
555.7144	5733
558.1918	5772
560.6685	5807
563.1446	5804
565.6221	5928
568.0968	5852
570.5688	5934
573.0422	5820
575.515	5819
577.989	5901
580.4584	5937
582.9291	5995
585.3991	5846
587.8685	5984
590.3352	5890
592.8052	5922
595.2706	6031
597.7372	5964
600.2033	5941
602.6666	5959
605.1334	5933
607.5953	5925
610.0587	5940
612.5193	5856
614.9814	5933
617.4427	5954
619.9034	5895
622.3615	5937
624.8208	5913
627.2775	5893
629.7335	5941
632.1929	5925
634.6476	5906
637.1016	5889
639.5569	5913
642.0096	5952
644.4637	5975
646.9151	6034
649.3678	5970
651.8179	5859
654.2672	6063
656.7159	6027
659.166	5951
661.6154	6082
664.0622	5997
666.5082	6059
668.9537	6004
671.4005	6155
673.8445	6071
676.288	6248
678.7308	6139
681.1729	6137
683.6163	6043
686.0572	6198
688.4973	6079
690.9368	6092
693.3757	6146
695.8138	6235
698.2534	6165
700.6902	6115
703.1245	6244
705.56	6120
707.9949	6301
710.4311	6210
712.8647	6383
715.2957	6298
717.7279	6331
720.1595	6322
722.5905	6277
725.0208	6218
727.4505	6403
729.8795	6433
732.3058	6408
734.7336	6381
737.1626	6458
739.587	6482
742.0128	6538
744.4359	6394
746.8604	6480
749.2841	6470
751.7073	6491
754.1278	6557
756.5496	6487
758.9688	6618
761.3893	6619
763.8093	6470
766.2285	6440
768.6451	6624
771.0611	6465
773.4784	6604
775.895	6571
778.3091	6592
780.7244	6551
783.1371	6598
785.5493	6607
787.9626	6589
790.3754	6625
792.7856	6567
795.1951	6590
797.6039	6554
800.0121	6523
802.4236	6580
804.8306	6672
807.2369	6513
809.6425	6601
812.0475	6631
814.4538	6649
816.8575	6666
819.2606	6732
821.663	6661
824.0648	6761
826.4659	6717
828.8683	6549
831.2682	6726
833.6674	6725
836.066	6698
838.4639	6801
840.8632	6705
843.2579	6718
845.6539	6768
848.0493	6775
850.444	6786
852.84	6722
855.2315	6799
857.6243	6809
860.0165	6835
862.4081	6732
864.797	6811
867.1892	6811
869.5789	6723
871.9659	6830
874.3542	6873
876.74	6860
879.129	6771
881.5155	6715
883.8994	6834
886.2845	6810
888.6671	6778
891.051	6775
893.4343	6802
895.8169	6817
898.197	6752
900.5783	6830
902.9571	6677
905.3372	6744
907.7167	6837
910.0936	6801
912.4698	6892
914.8474	6908
917.2244	7043
919.5987	6923
921.9744	7052
924.3475	7011
926.72	7177
929.0918	6993
931.4669	6982
933.8375	7094
936.2074	7057
938.5767	7182
940.9454	7203
943.3154	7259
945.6829	7327
948.0497	7438
950.4178	7607
952.7833	7689
955.1483	8082
957.5145	8150
959.8782	8392
962.2412	8320
964.6036	8032
966.9655	7821
969.3266	7558
971.6871	7510
974.0471	7350
976.4064	7181
978.765	7173
981.125	7081
983.4824	7078
985.8373	7003
988.1935	6980
990.549	6980
992.9039	6974
995.2602	7027
997.6119	7024
999.965	7021
1002.317	7114
1004.667	7017
1007.02	7121
1009.371	6950
1011.719	7059
1014.068	6976
1016.415	6932
1018.765	6953
1021.111	7065
1023.458	7145
1025.804	7091
1028.147	7112
1030.49	7039
1032.837	7112
1035.179	7031
1037.522	7167
1039.862	6945
1042.204	7144
1044.546	7122
1046.884	7243
1049.224	7155
1051.562	7056
1053.899	7170
1056.237	7110
1058.575	7060
1060.91	7223
1063.244	7227
1065.58	7119
1067.913	7157
1070.248	7224
1072.579	7269
1074.911	7276
1077.242	7211
1079.572	7217
1081.905	7155
1084.234	7145
1086.562	7223
1088.89	7107
1091.217	7111
1093.544	7101
1095.871	7196
1098.197	7218
1100.521	7243
1102.845	7199
1105.169	7259
1107.491	7126
1109.814	7123
1112.135	7153
1114.456	7218
1116.776	7110
1119.096	7135
1121.415	7257
1123.734	7093
1126.052	7251
1128.369	7304
1130.686	7172
1133.002	7182
1135.318	7293
1137.632	7227
1139.945	7250
1142.258	7185
1144.573	7252
1146.884	7145
1149.196	7021
1151.505	7162
1153.816	7278
1156.124	7278
1158.435	7237
1160.742	7287
1163.051	7169
1165.356	7121
1167.663	7262
1169.97	7301
1172.276	7227
1174.579	7182
1176.881	7197
1179.186	7169
1181.487	7212
1183.79	7183
1186.092	7198
1188.392	7179
1190.691	7249
1192.991	7203
1195.291	7249
1197.588	7294
1199.885	7234
1202.181	7247
1204.479	7244
1206.775	7336
1209.07	7300
1211.363	7263
1213.656	7283
1215.949	7065
1218.241	7362
1220.534	7269
1222.825	7198
1225.115	7290
1227.405	7362
1229.693	7311
1231.984	7449
1234.271	7349
1236.558	7408
1238.845	7291
1241.131	7466
1243.416	7454
1245.703	7320
1247.987	7453
1250.269	7456
1252.552	7503
1254.834	7418
1257.118	7538
1259.399	7472
1261.678	7404
1263.958	7525
1266.237	7343
1268.516	7349
1270.794	7459
1273.072	7445
1275.347	7548
1277.624	7492
1279.899	7401
1282.175	7494
1284.449	7436
1286.722	7524
1288.995	7362
1291.266	7477
1293.54	7340
1295.81	7489
1298.081	7443
1300.35	7265
1302.62	7435
1304.889	7520
1307.156	7326
1309.425	7330
1311.69	7422
1313.957	7467
1316.222	7333
1318.488	7360
1320.751	7390
1323.016	7407
1325.278	7263
1327.54	7417
1329.803	7464
1332.065	7360
1334.325	7387
1336.584	7432
1338.843	7475
1341.101	7379
1343.36	7461
1345.617	7427
1347.876	7311
1350.131	7365
1352.387	7359
1354.643	7455
1356.897	7280
1359.151	7357
1361.403	7421
1363.656	7323
1365.909	7550
1368.16	7389
1370.409	7547
1372.659	7393
1374.909	7572
1377.157	7279
1379.407	7388
1381.655	7447
1383.9	7520
1386.147	7385
1388.393	7367
1390.64	7564
1392.885	7538
1395.127	7527
1397.37	7617
1399.614	7614
1401.854	7447
1404.098	7575
1406.339	7563
1408.578	7507
1410.818	7535
1413.056	7448
1415.297	7690
1417.533	7702
1419.771	7647
1422.006	7708
1424.243	7612
1426.479	7507
1428.715	7608
1430.948	7650
1433.182	7619
1435.414	7683
1437.647	7631
1439.88	7535
1442.11	7730
1444.342	7657
1446.571	7694
1448.799	7720
1451.029	7831
1453.258	7810
1455.485	7789
1457.711	7884
1459.937	7640
1462.164	7746
1464.39	7774
1466.614	7555
1468.838	7600
1471.06	7563
1473.283	7628
1475.506	7656
1477.727	7572
1479.949	7474
1482.169	7585
1484.389	7429
1486.609	7532
1488.828	7585
1491.045	7431
1493.261	7467
1495.477	7470
1497.693	7514
1499.91	7581
1502.125	7376
1504.339	7410
1506.553	7362
1508.766	7478
1510.979	7405
1513.191	7407
1515.402	7496
1517.613	7450
1519.823	7453
1522.033	7545
1524.242	7561
1526.451	7353
1528.657	7500
1530.865	7437
1533.072	7529
1535.278	7415
1537.484	7589
1539.687	7497
1541.892	7402
1544.096	7544
1546.299	7547
1548.502	7555
1550.703	7539
1552.905	7610
1555.104	7458
1557.303	7678
1559.505	7704
1561.703	7589
1563.902	7645
1566.099	7664
1568.295	7543
1570.494	7620
1572.689	7476
1574.883	7756
1577.079	7660
1579.272	7761
1581.467	7767
1583.659	7843
1585.853	7676
1588.044	7677
1590.234	7746
1592.424	7669
1594.615	7724
1596.806	7630
1598.994	7830
1601.182	7654
1603.369	7731
1605.557	7659
1607.744	7776
1609.929	7798
1612.114	7712
1614.298	7807
1616.482	7792
1618.667	7734
1620.85	7746
1623.032	7759
1625.214	7757
1627.395	7781
1629.575	7777
1631.755	7773
1633.935	7805
1636.114	7789
1638.292	7795
1640.471	7809
1642.647	7616
1644.823	7719
1647	7787
1649.175	7989
1651.348	7887
1653.525	7795
1655.698	7643
1657.87	7737
1660.043	7748
1662.213	7914
1664.387	7859
1666.558	7851
1668.727	7870
1670.896	7748
1673.064	7814
1675.233	7828
1677.401	7873
1679.569	7843
1681.735	7850
1683.902	7852
1686.066	7871
1688.233	7837
1690.397	7912
1692.559	7747
1694.723	7866
1696.885	7824
1699.048	7651
1701.21	7734
1703.37	7749
1705.53	7751
1707.689	7734
1709.849	7623
1712.009	7655
1714.166	7689
1716.323	7631
1718.479	7729
1720.634	7751
1722.793	7562
1724.948	7731
1727.102	7729
1729.255	7733
1731.408	7747
1733.562	7663
1735.714	7756
1737.865	7715
1740.016	7734
1742.166	7631
1744.316	7761
1746.467	7706
1748.616	7819
1750.764	7795
1752.911	7686
1755.056	7724
1757.205	7678
1759.35	7841
1761.496	7615
1763.641	7848
1765.785	7799
1767.927	7766
1770.072	7819
1772.214	7823
1774.355	7731
1776.496	7831
1778.637	7886
1780.778	7797
1782.918	7733
1785.057	7833
1787.194	7800
1789.333	7901
1791.472	7813
1793.608	7827
1795.745	7802
1797.879	7781
1800.015	7848
1802.148	7806
1804.284	7819
1806.417	7852
1808.548	7901
1810.682	7707
1812.812	7817
1814.946	7802
1817.075	7841
1819.205	7971
1821.335	7698
1823.463	7846
1825.59	7825
1827.721	7785
1829.847	7839
1831.973	7695
1834.098	7870
1836.223	7752
1838.351	7820
1840.475	7793
1842.598	7819
1844.721	7827
1846.843	7635
1848.966	7767
1851.087	7603
1853.21	7759
1855.33	7673
1857.449	7753
1859.568	7643
1861.688	7617
1863.806	7750
1865.924	7862
1868.039	7818
1870.155	7632
1872.273	7730
1874.388	7789
1876.503	7627
1878.617	7745
1880.73	7663
1882.844	7789
1884.956	7856
1887.068	7736
1889.18	7713
1891.291	7775
1893.4	7692
1895.511	7783
1897.621	7707
1899.73	7797
1901.837	7939
1903.944	7830
1906.053	7739
1908.159	7888
1910.265	7848
1912.369	7800
1914.474	7862
1916.577	7780
1918.683	7736
1920.785	7712
1922.888	7860
1924.989	7825
1927.091	7986
1929.193	7795
1931.294	7863
1933.393	7880
1935.493	7705
1937.59	7893
1939.689	7782
1941.788	7842
1943.884	7880
1945.98	7779
1948.077	7796
1950.171	7911
1952.267	7750
1954.361	7775
1956.455	7923
1958.548	7850
1960.64	7822
1962.733	7778
1964.824	7946
1966.915	7818
1969.005	7901
1971.096	7881
1973.185	7865
1975.275	7875
1977.363	7883
1979.45	7839
1981.537	7839
1983.623	7869
1985.711	7875
1987.796	7760
1989.881	7848
1991.965	7826
1994.047	7720
1996.132	7809
1998.215	7786
2000.297	7701
2002.378	7623
2004.46	7655
2006.54	7788
2008.62	7739
2010.7	7802
2012.779	7731
2014.858	7749
2016.934	7650
2019.013	7693
2021.09	7756
2023.165	7878
2025.241	7877
2027.317	7739
2029.39	7776
2031.466	7868
2033.538	7813
2035.612	7762
2037.683	7750
2039.755	7824
2041.827	7689
2043.898	7853
2045.968	7710
2048.038	7723
2050.106	7871
2052.177	7802
2054.244	7690
2056.313	7775
2058.379	7800
2060.444	7677
2062.511	7724
2064.577	7814
2066.641	7863
2068.705	7697
2070.77	7836
2072.832	7815
2074.896	7825
2076.958	7704
2079.02	7653
2081.081	7691
2083.141	7835
2085.2	7702
2087.261	7768
2089.319	7831
2091.377	7733
2093.435	7740
2095.492	7875
2097.552	7802
2099.607	7925
2101.663	7875
2103.718	7798
2105.771	7670
2107.826	7799
2109.879	7846
2111.932	7835
2113.985	7777
2116.037	7838
2118.088	7776
2120.141	7757
2122.191	7839
2124.239	7776
2126.288	7804
2128.337	7699
2130.387	7872
2132.434	7733
2134.481	7808
2136.528	7790
2138.574	7609
2140.618	7801
2142.665	7767
2144.71	7822
2146.753	7823
2148.797	7703
2150.838	7640
2152.883	7750
2154.923	7705
2156.965	7694
2159.007	7769
2161.046	7730
2163.086	7681
2165.126	7660
2167.163	7673
2169.202	7610
2171.239	7787
2173.277	7745
2175.314	7683
2177.349	7717
2179.385	7669
2181.42	7684
2183.453	7651
2185.49	7680
2187.522	7695
2189.555	7616
2191.586	7760
2193.619	7654
2195.651	7695
2197.682	7513
2199.711	7559
2201.74	7619
2203.769	7761
2205.799	7610
2207.828	7643
2209.855	7577
2211.882	7604
2213.908	7559
2215.934	7574
2217.961	7584
2219.986	7531
2222.01	7565
2224.034	7505
2226.057	7547
2228.08	7504
2230.104	7571
2232.124	7610
2234.145	7528
2236.166	7536
2238.186	7582
2240.207	7637
2242.227	7685
2244.244	7666
2246.262	7514
2248.28	7540
2250.299	7561
2252.314	7664
2254.33	7665
2256.346	7527
2258.36	7531
2260.375	7604
2262.391	7582
2264.403	7570
2266.416	7574
2268.427	7658
2270.44	7652
2272.453	7489
2274.463	7649
2276.474	7493
2278.483	7662
2280.493	7594
2282.501	7584
2284.51	7447
2286.518	7640
2288.524	7644
2290.532	7532
2292.537	7608
2294.544	7556
2296.55	7694
2298.554	7632
2300.557	7651
2302.562	7520
2304.566	7559
2306.568	7490
2308.569	7663
2310.572	7505
2312.573	7503
2314.573	7641
2316.574	7422
2318.573	7486
2320.571	7680
2322.571	7475
2324.569	7482
2326.567	7552
2328.564	7593
2330.56	7457
2332.556	7531
2334.551	7565
2336.546	7484
2338.542	7471
2340.535	7428
2342.529	7472
2344.521	7459
2346.512	7390
2348.505	7417
2350.497	7426
2352.487	7499
2354.478	7501
2356.468	7394
2358.457	7324
2360.446	7409
2362.434	7480
2364.422	7376
2366.408	7334
2368.395	7381
2370.383	7457
2372.369	7420
2374.353	7382
2376.338	7253
2378.321	7351
2380.307	7407
2382.29	7425
2384.272	7386
2386.254	7417
2388.235	7320
2390.218	7240
2392.198	7351
2394.179	7269
2396.157	7358
2398.137	7485
2400.115	7371
2402.095	7371
2404.072	7380
2406.048	7389
2408.026	7287
2410.001	7275
2411.977	7328
2413.953	7278
2415.927	7301
2417.9	7456
2419.875	7264
2421.847	7270
2423.821	7369
2425.792	7339
2427.763	7251
2429.736	7353
2431.706	7347
2433.677	7286
2435.646	7206
2437.615	7278
2439.583	7363
2441.551	7385
2443.519	7355
2445.486	7228
2447.452	7288
2449.418	7333
2451.383	7268
2453.348	7303
2455.314	7439
2457.278	7309
2459.241	7168
2461.205	7356
2463.167	7247
2465.131	7251
2467.091	7280
2469.052	7133
2471.012	7196
2472.972	7316
2474.932	7274
2476.891	7315
2478.85	7332
2480.808	7280
2482.766	7263
2484.722	7176
2486.68	7258
2488.636	7196
2490.591	7241
2492.546	7194
2494.5	7232
2496.456	7176
2498.41	7221
2500.362	7150
2502.315	7298
2504.266	7322
2506.218	7177
2508.169	7192
2510.121	7249
2512.07	7159
2514.019	7172
2515.968	7208
2517.918	7167
2519.866	7232
2521.813	7247
2523.76	7083
2525.707	7064
2527.653	7132
2529.599	7165
2531.543	7189
2533.489	7192
2535.433	7290
2537.376	7154
2539.32	7075
2541.264	7128
2543.205	7096
2545.147	7181
2547.087	7224
2549.029	7081
2550.969	7215
2552.908	7048
2554.847	7094
2556.786	7169
2558.724	7141
2560.663	7204
2562.6	7201
2564.537	7109
2566.473	7126
2568.408	7216
2570.345	7166
2572.28	7238
2574.214	7076
2576.148	7181
2578.081	7197
2580.014	7073
2581.947	7041
2583.879	7255
2585.81	7162
2587.741	7148
2589.67	7180
2591.602	7106
2593.532	7248
2595.461	7141
2597.388	7189
2599.316	7117
2601.244	7171
2603.172	7099
2605.098	7120
2607.023	7191
2608.949	7095
2610.873	7130
2612.8	7162
2614.723	7133
2616.647	7179
2618.569	7283
2620.493	7129
2622.416	7123
2624.338	7117
2626.258	7207
2628.179	7167
2630.099	7112
2632.019	7203
2633.939	7218
2635.857	7248
2637.775	7136
2639.694	7171
2641.61	7120
2643.528	7171
2645.444	7135
2647.361	7183
2649.276	7159
2651.19	7111
2653.105	7184
2655.019	7304
2656.934	7180
2658.846	7098
2660.758	7151
2662.67	7184
2664.583	7263
2666.493	7112
2668.404	6987
2670.313	7083
2672.223	7043
2674.134	7204
2676.042	7096
2677.95	7126
2679.858	7014
2681.765	7098
2683.673	7051
2685.579	7057
2687.483	7041
2689.389	7159
2691.294	7084
2693.198	7071
2695.104	7140
2697.006	7073
2698.909	7047
2700.811	6997
2702.713	6979
2704.615	7085
2706.516	7018
2708.417	7016
2710.316	7055
2712.216	7080
2714.115	7031
2716.014	7096
2717.913	6976
2719.81	7036
2721.707	7050
2723.603	6944
2725.501	7104
2727.396	7075
2729.292	7018
2731.186	6896
2733.081	7062
2734.976	6981
2736.87	7036
2738.762	7029
2740.653	6996
2742.546	6991
2744.437	7003
2746.329	6908
2748.22	6943
2750.11	6938
2751.999	6938
2753.889	6911
2755.778	6964
2757.666	6929
2759.553	7023
2761.44	7083
2763.328	6910
2765.215	7061
2767.101	6917
2768.986	6911
2770.87	6958
2772.754	6904
2774.638	6913
2776.523	6989
2778.405	6870
2780.288	6826
2782.17	6940
2784.051	6731
2785.934	6978
2787.814	7010
2789.694	6895
2791.574	6865
2793.453	6881
2795.332	6941
2797.212	6888
2799.088	6958
2800.966	6928
2802.843	6816
2804.719	6795
2806.597	6878
2808.471	6806
2810.346	6829
2812.221	6902
2814.094	6869
2815.969	6830
2817.843	6937
2819.714	6825
2821.587	6822
2823.459	6932
2825.329	6755
2827.202	6879
2829.072	6871
2830.942	6736
2832.811	6833
2834.68	6907
2836.549	6804
2838.418	6780
2840.284	6890
2842.152	6861
2844.018	6898
2845.885	6785
2847.751	6888
2849.616	6908
2851.482	6923
2853.345	6973
2855.208	6897
2857.074	6947
2858.937	6965
2860.799	6965
2862.66	6945
2864.522	6925
2866.385	6941
2868.245	7071
2870.104	7230
2871.964	7177
2873.824	7131
2875.683	7259
2877.542	7211
2879.4	7159
2881.257	7276
2883.114	7339
2884.97	7339
2886.827	7234
2888.683	7138
2890.537	7310
2892.392	7254
2894.246	7263
2896.1	7328
2897.954	7157
2899.807	7280
2901.66	7263
2903.51	7185
2905.362	7200
2907.214	7131
2909.065	7245
2910.915	7325
2912.765	7277
2914.613	7246
2916.463	7426
2918.311	7450
2920.158	7410
2922.006	7444
2923.853	7593
2925.698	7548
2927.546	7562
2929.392	7672
2931.236	7694
2933.081	7709
2934.924	7739
2936.77	7865
2938.613	7701
2940.455	7806
2942.298	7882
2944.139	7922
2945.982	7883
2947.823	7816
2949.662	7900
2951.503	7738
2953.342	7780
2955.182	7793
2957.021	7879
2958.858	7692
2960.697	7563
2962.534	7538
2964.37	7576
2966.207	7542
2968.044	7426
2969.879	7412
2971.714	7352
2973.548	7272
2975.383	7338
2977.218	7203
2979.051	7244
2980.883	7281
2982.715	7266
2984.547	7177
2986.379	7227
2988.21	7199
2990.04	7119
2991.87	7074
2993.7	7006
2995.53	7057
2997.359	7070
2999.187	7028
3001.015	7003
3002.842	6810
3004.669	6917
3006.497	6800
3008.323	6793
3010.148	6718
3011.974	6603
3013.797	6774
3015.623	6765
3017.447	6770
3019.27	6573
3021.094	6644
3022.915	6722
3024.737	6594
3026.56	6527
3028.38	6601
3030.201	6542
3032.022	6590
3033.84	6451
3035.662	6481
3037.481	6604
3039.298	6519
3041.117	6409
3042.933	6617
3044.752	6558
3046.568	6547
3048.385	6672
3050.2	6571
3052.016	6417
3053.83	6495
3055.646	6532
3057.46	6475
3059.272	6431
3061.086	6520
3062.898	6568
3064.711	6481
3066.524	6442
3068.335	6402
3070.145	6480
3071.956	6472
3073.766	6302
3075.576	6364
3077.385	6433
3079.193	6442
3081.002	6464
3082.81	6357
3084.618	6371
3086.425	6361
3088.231	6398
3090.036	6226
3091.842	6341
3093.648	6298
3095.452	6330
3097.257	6277
3099.06	6335
3100.863	6300
3102.666	6306
3104.47	6328
3106.272	6311
3108.073	6315
3109.875	6274
3111.676	6320
3113.477	6243
3115.277	6301
3117.077	6319
3118.874	6206
3120.673	6282
3122.473	6261
3124.271	6245
3126.066	6206
3127.863	6301
3129.66	6226
3131.456	6242
3133.252	6141
3135.047	6206
3136.842	6162
3138.635	6168
3140.429	6157
3142.223	6227
3144.016	6234
3145.808	6148
3147.6	6168
3149.392	6155
3151.183	6120
3152.975	6120
3154.765	6247
3156.553	6168
3158.344	6133
3160.132	6143
3161.922	6018
3163.71	6121
3165.497	6064
3167.285	6104
3169.071	6152
3170.858	6143
3172.645	6181
3174.429	6030
3176.214	5984
3177.998	5997
3179.783	6054
3181.568	6014
3183.351	6103
3185.133	6048
3186.915	5935
3188.698	6067
3190.481	6065
3192.261	6076
3194.042	6023
3195.822	6030
3197.601	6048
3199.381	6132
3201.161	6069
3202.939	6076
3204.717	6041
3206.495	5938
3208.272	6080
3210.05	5990
3211.826	5983
3213.602	5868
3215.376	5970
3217.151	6037
3218.927	5947
3220.702	6065
3222.476	5967
3224.249	6045
3226.021	5935
3227.793	5975
3229.567	5978
3231.339	6084
3233.109	5990
3234.88	6028
3236.651	6011
3238.421	5960
3240.191	5891
3241.96	5997
3243.728	5929
3245.497	5941
3247.263	5923
3249.033	6017
3250.799	5968
3252.566	6007
3254.331	5941
3256.097	6009
3257.863	5968
3259.628	5948
3261.392	5979
3263.156	5999
3264.919	5938
3266.683	5952
3268.447	6041
3270.208	5955
3271.969	5889
3273.731	5996
3275.492	6001
3277.253	5901
3279.013	6026
3280.773	5919
3282.532	5991
3284.291	5899
3286.05	5908
3287.808	6028
3289.566	6025
3291.323	5895
3293.079	6034
3294.835	5914
3296.593	5970
3298.348	5856
3300.102	5970
3301.857	5933
3303.611	5916
3305.366	5911
3307.119	5917
3308.872	5973
3310.624	5911
3312.376	5992
3314.129	5895
3315.881	5972
3317.631	6014
3319.38	6024
3321.13	5926
3322.88	5925
3324.631	5927
3326.379	5894
3328.126	5975
3329.875	5955
3331.622	5957
3333.371	5959
3335.116	5946
3336.863	5992
3338.609	5917
3340.353	5791
3342.1	5977
3343.845	5860
3345.588	5813
3347.332	5909
3349.074	5975
3350.817	5662
3352.56	5747
3354.303	5857
3356.043	5866
3357.785	5847
3359.525	5805
3361.268	5733
3363.007	5874
3364.745	5780
3366.485	5834
3368.223	5768
3369.962	5768
3371.701	5687
3373.438	5770
3375.174	5849
3376.911	5783
3378.647	5709
3380.384	5758
3382.118	5844
3383.854	5790
3385.588	5757
3387.322	5772
3389.057	5666
3390.79	5733
3392.522	5791
3394.255	5818
3395.987	5758
3397.719	5676
3399.451	5651
3401.181	5739
3402.911	5684
3404.641	5676
3406.371	5643
3408.101	5799
3409.83	5692
3411.558	5728
3413.285	5759
3415.011	5761
3416.739	5599
3418.467	5752
3420.193	5680
3421.919	5689
3423.644	5637
3425.368	5686
3427.094	5621
3428.818	5629
3430.542	5618
3432.264	5633
3433.987	5667
3435.712	5685
3437.434	5641
3439.155	5584
3440.876	5620
3442.596	5418
3444.317	5645
3446.039	5646
3447.757	5522
3449.477	5555
3451.195	5590
3452.914	5598
3454.632	5579
3456.35	5613
3458.067	5520
3459.784	5614
3461.5	5507
3463.216	5519
3464.932	5368
3466.647	5609
3468.362	5483
3470.076	5532
3471.789	5345
3473.505	5401
3475.217	5482
3476.929	5468
3478.641	5480
3480.354	5402
3482.066	5366
3483.777	5433
3485.487	5386
3487.197	5373
3488.908	5342
3490.617	5450
3492.327	5408
3494.035	5408
3495.743	5353
3497.451	5484
3499.158	5445
3500.866	5361
3502.572	5400
3504.278	5295
3505.984	5460
3507.689	5324
3509.396	5374
3511.1	5355
3512.804	5410
3514.508	5299
3516.211	5362
3517.913	5292
3519.616	5240
3521.319	5286
3523.021	5402
3524.722	5290
3526.422	5338
3528.124	5267
3529.824	5301
3531.524	5264
3533.222	5362
3534.921	5367
3536.62	5288
3538.318	5240
3540.016	5366
3541.714	5107
3543.41	5179
3545.107	5279
3546.803	5278
3548.5	5284
3550.194	5240
3551.889	5316
3553.583	5250
3555.279	5244
3556.972	5255
3558.666	5158
3560.358	5130
3562.051	5219
3563.742	5078
3565.435	5314
3567.126	5231
3568.817	5161
3570.507	5104
3572.197	5198
3573.888	5070
3575.577	5201
3577.265	5117
3578.954	5161
3580.642	5227
3582.329	5076
3584.017	5184
3585.704	5166
3587.391	5213
3589.077	5054
3590.762	5156
3592.449	5192
3594.133	5196
3595.817	5047
3597.501	5037
3599.185	5031
3600.869	5039
3602.552	5051
3604.234	5068
3605.916	5143
3607.598	5058
3609.279	4961
3610.961	5092
3612.642	5041
3614.321	5141
3616	5044
3617.68	4941
3619.36	5046
3621.039	4939
3622.716	4945
3624.394	4969
3626.071	4978
3627.748	4963
3629.425	4921
3631.102	4987
3632.778	5026
3634.452	4901
3636.127	4942
3637.803	4894
3639.477	4961
3641.151	4932
3642.823	4931
3644.497	4975
3646.171	4883
3647.842	4886
3649.515	4908
3651.185	4877
3652.857	4905
3654.527	4936
3656.198	4821
3657.868	4865
3659.537	4954
3661.207	4868
3662.875	4849
3664.544	4745
3666.212	4943
3667.879	4782
3669.546	4818
3671.212	4799
3672.88	4837
3674.546	4776
3676.211	4768
3677.875	4797
3679.541	4824
3681.205	4779
3682.87	4827
3684.533	4830
3686.196	4814
3687.859	4923
3689.521	4870
3691.184	4696
3692.845	4831
3694.507	4857
3696.167	4804
3697.827	4768
3699.487	4699
3701.148	4779
3702.808	4743
3704.466	4797
3706.125	4758
3707.783	4794
3709.442	4764
3711.099	4690
3712.757	4781
3714.412	4784
3716.068	4826
3717.725	4759
3719.381	4759
3721.036	4714
3722.689	4707
3724.344	4699
3725.998	4674
3727.652	4654
3729.305	4696
3730.958	4722
3732.61	4683
3734.262	4725
3735.915	4700
3737.565	4753
3739.217	4695
3740.866	4648
3742.516	4694
3744.165	4686
3745.816	4730
3747.464	4596
3749.113	4762
3750.761	4619
3752.409	4753
3754.057	4610
3755.703	4665
3757.35	4713
3758.996	4651
3760.641	4622
3762.289	4718
3763.933	4685
3765.577	4573
3767.222	4572
3768.865	4636
3770.508	4647
3772.152	4688
3773.796	4632
3775.438	4561
3777.079	4633
3778.721	4557
3780.363	4615
3782.003	4574
3783.643	4609
3785.283	4575
3786.923	4567
3788.563	4579
3790.203	4554
3791.841	4548
3793.479	4519
3795.115	4543
3796.753	4514
3798.391	4550
3800.027	4524
3801.664	4588
3803.299	4594
3804.935	4455
3806.571	4470
3808.206	4542
3809.839	4438
3811.473	4540
3813.107	4499
3814.74	4510
3816.375	4552
3818.006	4429
3819.638	4455
3821.27	4463
3822.9	4502
3824.532	4393
3826.163	4476
3827.792	4382
3829.423	4400
3831.051	4417
3832.682	4420
3834.311	4492
3835.938	4502
3837.566	4398
3839.193	4474
3840.821	4383
3842.448	4365
3844.075	4420
3845.7	4392
3847.325	4311
3848.951	4437
3850.576	4293
3852.201	4413
3853.825	4358
3855.448	4423
3857.072	4397
3858.694	4427
3860.318	4298
3861.939	4269
3863.562	4349
3865.183	4489
3866.804	4316
3868.426	4251
3870.045	4478
3871.666	4330
3873.285	4354
3874.904	4325
3876.524	4361
3878.142	4293
3879.76	4410
3881.378	4264
3882.995	4384
3884.612	4291
3886.229	4377
3887.845	4259
3889.461	4326
3891.076	4198
3892.691	4302
3894.307	4345
3895.922	4266
3897.536	4258
3899.149	4332
3900.761	4356
3902.374	4318
3903.988	4430
3905.6	4289
3907.212	4334
3908.822	4282
3910.433	4372
3912.045	4222
3913.655	4330
3915.265	4331
3916.875	4262
3918.483	4411
3920.093	4180
3921.702	4350
3923.309	4266
3924.917	4229
3926.523	4232
3928.13	4228
3929.739	4246
3931.344	4251
3932.95	4281
3934.555	4190
3936.159	4265
3937.766	4211
3939.369	4215
3940.974	4285
3942.577	4133
3944.181	4331
3945.783	4178
3947.386	4235
3948.989	4299
3950.59	4173
3952.191	4218
3953.791	4146
3955.394	4177
3956.994	4121
3958.593	4180
3960.192	4138
3961.791	4168
3963.392	4176
3964.99	4198
3966.588	4147
3968.185	4151
3969.782	4082
3971.379	4115
3972.976	4202
3974.572	4180
3976.168	4119
3977.763	4151
3979.358	4108
3980.954	4139
3982.548	4072
3984.142	4110
3985.736	4169
3987.329	4089
3988.922	4119
3990.516	4094
3992.108	4050
3993.698	4172
3995.29	4110
3996.881	4046
3998.473	4145
4000.064	4108
4001.653	4052
4003.242	4052
4004.832	4007
4006.422	4126
4008.01	4015
4009.598	4039
4011.186	4000
4012.773	4042
4014.36	4071
4015.947	4052
4017.534	3925
4019.119	4007
4020.705	4011
4022.291	4036
4023.876	3877
4025.461	3979
4027.044	3896
4028.627	3969
4030.211	3992
4031.795	3941
4033.378	3914
4034.96	4007
4036.542	3917
4038.124	3920
4039.704	3992
4041.286	3961
4042.867	3918
4044.447	3889
4046.026	3866
4047.606	3968
4049.187	3951
4050.765	3887
4052.343	3845
4053.92	3922
4055.498	3906
4057.076	3984
4058.654	3875
4060.23	3971
4061.806	3811
4063.381	3926
4064.957	3862
4066.533	3939
4068.107	3841
4069.682	3831
4071.256	3892
4072.829	3775
4074.404	3851
4075.977	3777
4077.549	3920
4079.121	3881
4080.693	3902
4082.265	3881
4083.836	3797
4085.407	3751
4086.977	3839
4088.547	3840
4090.117	3799
4091.687	3743
4093.256	3864
4094.825	3792
4096.392	3794
4097.96	3799
4099.528	3843
4101.097	3742
4102.663	3757
4104.229	3752
4105.795	3808
4107.361	3766
4108.928	3804
4110.493	3818
4112.058	3788
4113.621	3771
4115.186	3771
4116.75	3809
4118.313	3689
4119.876	3829
4121.438	3739
4123	3668
4124.562	3794
4126.125	3859
4127.686	3690
4129.246	3722
4130.807	3743
4132.367	3752
4133.927	3730
4135.486	3797
4137.046	3639
4138.604	3734
4140.162	3761
4141.72	3676
4143.279	3708
4144.836	3653
4146.393	3652
4147.949	3660
4149.505	3667
4151.062	3701
4152.617	3607
4154.172	3688
4155.727	3606
4157.281	3648
4158.836	3618
4160.39	3663
4161.943	3579
4163.496	3601
4165.048	3642
4166.601	3615
4168.154	3611
4169.706	3610
4171.257	3608
4172.808	3509
4174.358	3629
4175.909	3510
4177.458	3595
4179.008	3556
4180.558	3527
4182.106	3596
4183.655	3485
4185.204	3590
4186.751	3506
4188.298	3553
4189.845	3585
4191.392	3581
4192.939	3610
4194.485	3553
4196.031	3546
4197.576	3579
4199.121	3601
4200.666	3516
4202.211	3509
4203.754	3603
4205.298	3465
4206.84	3577
4208.384	3496
4209.927	3501
4211.47	3550
4213.011	3558
4214.552	3444
4216.094	3450
4217.635	3524
4219.175	3466
4220.716	3378
4222.255	3511
4223.793	3560
4225.335	3488
4226.873	3523
4228.411	3459
4229.948	3461
4231.486	3417
4233.024	3481
4234.562	3498
4236.098	3503
4237.634	3440
4239.169	3412
4240.705	3474
4242.241	3386
4243.776	3431
4245.31	3402
4246.844	3456
4248.378	3420
4249.911	3461
4251.445	3454
4252.978	3435
4254.51	3466
4256.042	3442
4257.574	3405
4259.107	3468
4260.638	3442
4262.169	3410
4263.699	3465
4265.228	3359
4266.759	3360
4268.289	3516
4269.818	3406
4271.345	3392
4272.874	3337
4274.402	3404
4275.931	3392
4277.458	3387
4278.985	3374
4280.512	3365
4282.037	3371
4283.564	3308
4285.089	3337
4286.615	3303
4288.139	3408
4289.664	3283
4291.187	3346
4292.712	3424
4294.235	3265
4295.759	3312
4297.281	3327
4298.804	3327
4300.327	3335
4301.849	3316
4303.37	3324
4304.891	3324
4306.412	3291
4307.933	3322
4309.453	3279
4310.973	3321
4312.492	3310
