398.1873	2740
400.7097	2740
403.2336	2722
405.7547	2794
408.2751	2746
410.7948	2743
413.3138	2816
415.83	2746
418.3497	2768
420.8666	2822
423.3829	2922
425.8985	2843
428.4133	2915
430.9275	2876
433.441	2952
435.9538	2946
438.4639	2914
440.9753	2837
443.4881	2954
445.9982	2911
448.5055	2925
451.0142	2921
453.5201	2915
456.0274	2920
458.5361	2897
461.04	2926
463.5453	2906
466.0478	2935
468.5517	2893
471.0549	2889
473.5574	2893
476.0572	2907
478.5584	2878
481.0568	2901
483.5545	2911
486.0557	2954
488.5521	2994
491.0478	2953
493.5449	2936
496.0392	2959
498.5349	2891
501.0299	2916
503.5222	3099
506.0139	2970
508.5048	2903
510.9991	3048
513.4887	2972
515.9777	3062
518.4659	2964
520.9534	3045
523.4403	3011
525.9306	2940
528.4161	3070
530.9009	3090
533.3851	3033
535.8687	3013
538.3535	3055
540.8356	3009
543.3171	3047
545.7979	3052
548.278	2947
550.7595	3073
553.2383	2913
555.7144	3015
558.1918	2967
560.6685	3118
563.1446	3033
565.6221	3034
568.0968	3058
570.5688	3084
573.0422	3045
575.515	3103
577.989	3103
580.4584	3119
582.9291	3191
585.3991	3015
587.8685	3104
590.3352	3176
592.8052	3104
595.2706	3237
597.7372	3109
600.2033	3048
602.6666	3079
605.1334	3101
607.5953	3119
610.0587	3178
612.5193	3007
614.9814	3093
617.4427	3130
619.9034	3074
622.3615	3115
624.8208	3054
627.2775	3071
629.7335	3134
632.1929	2971
634.6476	3057
637.1016	3034
639.5569	3063
642.0096	3138
644.4637	3108
646.9151	3069
649.3678	3131
651.8179	3094
654.2672	3140
656.7159	3155
659.166	3118
661.6154	3162
664.0622	3136
666.5082	3158
668.9537	3194
671.4005	3152
673.8445	3147
676.288	3155
678.7308	3198
681.1729	3096
683.6163	3178
686.0572	3266
688.4973	3182
690.9368	3224
693.3757	3159
695.8138	3216
698.2534	3230
700.6902	3114
703.1245	3184
705.56	3262
707.9949	3240
710.4311	3190
712.8647	3216
715.2957	3287
717.7279	3250
720.1595	3213
722.5905	3246
725.0208	3290
727.4505	3171
729.8795	3287
732.3058	3257
734.7336	3263
737.1626	3238
739.587	3326
742.0128	3352
744.4359	3262
746.8604	3249
749.2841	3341
751.7073	3373
754.1278	3373
756.5496	3451
758.9688	3389
761.3893	3417
763.8093	3365
766.2285	3404
768.6451	3317
771.0611	3449
773.4784	3394
775.895	3341
778.3091	3359
780.7244	3406
783.1371	3382
785.5493	3399
787.9626	3427
790.3754	3418
792.7856	3402
795.1951	3300
797.6039	3475
800.0121	3432
802.4236	3436
804.8306	3433
807.2369	3422
809.6425	3444
812.0475	3458
814.4538	3388
816.8575	3511
819.2606	3442
821.663	3488
824.0648	3444
826.4659	3416
828.8683	3442
831.2682	3504
833.6674	3431
836.066	3395
838.4639	3499
840.8632	3498
843.2579	3488
845.6539	3424
848.0493	3494
850.444	3430
852.84	3413
855.2315	3492
857.6243	3594
860.0165	3447
862.4081	3462
864.797	3511
867.1892	3466
869.5789	3553
871.9659	3469
874.3542	3519
876.74	3526
879.129	3495
881.5155	3477
883.8994	3482
886.2845	3472
888.6671	3412
891.051	3444
893.4343	3486
895.8169	3534
898.197	3497
900.5783	3527
902.9571	3505
905.3372	3503
907.7167	3506
910.0936	3524
912.4698	3511
914.8474	3607
917.2244	3584
919.5987	3531
921.9744	3601
924.3475	3635
926.72	3629
929.0918	3608
931.4669	3664
933.8375	3660
936.2074	3699
938.5767	3765
940.9454	3747
943.3154	3768
945.6829	3897
948.0497	3918
950.4178	4063
952.7833	4127
955.1483	4155
957.5145	4345
959.8782	4413
962.2412	4392
964.6036	4367
966.9655	4170
969.3266	4095
971.6871	3824
974.0471	3811
976.4064	3747
978.765	3740
981.125	3671
983.4824	3637
985.8373	3670
988.1935	3575
990.549	3652
992.9039	3642
995.2602	3618
997.6119	3691
999.965	3625
1002.317	3695
1004.667	3726
1007.02	3691
1009.371	3585
1011.719	3639
1014.068	3586
1016.415	3650
1018.765	3681
1021.111	3674
1023.458	3586
1025.804	3684
1028.147	3646
1030.49	3697
1032.837	3681
1035.179	3722
1037.522	3740
1039.862	3694
1042.204	3686
1044.546	3832
1046.884	3648
1049.224	3772
1051.562	3737
1053.899	3786
1056.237	3781
1058.575	3725
1060.91	3691
1063.244	3809
1065.58	3778
1067.913	3820
1070.248	3903
1072.579	3753
1074.911	3740
1077.242	3795
1079.572	3692
1081.905	3850
1084.234	3745
1086.562	3791
1088.89	3769
1091.217	3769
1093.544	3785
1095.871	3721
1098.197	3732
1100.521	3708
1102.845	3700
1105.169	3759
1107.491	3751
1109.814	3767
1112.135	3749
1114.456	3750
1116.776	3747
1119.096	3651
1121.415	3802
1123.734	3694
1126.052	3769
1128.369	3758
1130.686	3787
1133.002	3739
1135.318	3729
1137.632	3667
1139.945	3729
1142.258	3811
1144.573	3837
1146.884	3795
1149.196	3810
1151.505	3808
1153.816	3668
1156.124	3790
1158.435	3710
1160.742	3711
1163.051	3765
1165.356	3721
1167.663	3777
1169.97	3764
1172.276	3791
1174.579	3704
1176.881	3755
1179.186	3771
1181.487	3720
1183.79	3772
1186.092	3738
1188.392	3781
1190.691	3670
1192.991	3766
1195.291	3771
1197.588	3682
1199.885	3777
1202.181	3766
1204.479	3735
1206.775	3774
1209.07	3789
1211.363	3817
1213.656	3787
1215.949	3749
1218.241	3848
1220.534	3736
1222.825	3812
1225.115	3755
1227.405	3897
1229.693	3909
1231.984	3811
1234.271	3854
1236.558	3781
1238.845	3944
1241.131	3807
1243.416	3943
1245.703	3793
1247.987	3870
1250.269	3905
1252.552	3934
1254.834	3923
1257.118	4002
1259.399	3904
1261.678	3889
1263.958	3905
1266.237	3849
1268.516	3929
1270.794	3905
1273.072	3933
1275.347	3855
1277.624	3907
1279.899	3894
1282.175	3946
1284.449	3890
1286.722	3886
1288.995	3873
1291.266	3833
1293.54	3850
1295.81	3861
1298.081	3894
1300.35	3890
1302.62	3812
1304.889	3776
1307.156	3879
1309.425	3903
1311.69	3823
1313.957	3857
1316.222	3803
1318.488	3928
1320.751	3890
1323.016	3875
1325.278	3866
1327.54	3843
1329.803	3934
1332.065	3863
1334.325	3820
1336.584	3905
1338.843	3824
1341.101	3848
1343.36	3892
1345.617	3932
1347.876	3860
1350.131	3886
1352.387	3934
1354.643	3866
1356.897	3856
1359.151	3882
1361.403	3818
1363.656	3858
1365.909	3939
1368.16	3983
1370.409	3896
1372.659	3816
1374.909	3941
1377.157	3922
1379.407	3874
1381.655	3876
1383.9	3887
1386.147	3930
1388.393	3844
1390.64	3948
1392.885	3969
1395.127	3888
1397.37	3896
1399.614	3997
1401.854	4021
1404.098	4045
1406.339	3954
1408.578	3944
1410.818	3970
1413.056	4009
1415.297	4016
1417.533	3969
1419.771	3925
1422.006	4042
1424.243	3945
1426.479	4012
1428.715	3992
1430.948	3964
1433.182	4055
1435.414	4020
1437.647	3985
1439.88	4097
1442.11	3967
1444.342	4084
1446.571	3992
1448.799	4035
1451.029	4121
1453.258	4059
1455.485	4062
1457.711	3993
1459.937	4073
1462.164	4041
1464.39	4065
1466.614	4112
1468.838	3991
1471.06	4040
1473.283	4074
1475.506	4048
1477.727	3938
1479.949	3942
1482.169	3925
1484.389	4013
1486.609	3982
1488.828	3964
1491.045	4046
1493.261	3870
1495.477	4016
1497.693	4021
1499.91	3851
1502.125	3965
1504.339	3841
1506.553	3995
1508.766	3911
1510.979	3952
1513.191	3965
1515.402	3967
1517.613	3977
1519.823	3965
1522.033	3942
1524.242	3962
1526.451	3936
1528.657	3916
1530.865	3928
1533.072	3893
1535.278	4018
1537.484	3999
1539.687	3978
1541.892	4040
1544.096	3954
1546.299	3900
1548.502	3935
1550.703	4007
1552.905	4016
1555.104	3927
1557.303	4021
1559.505	3953
1561.703	4065
1563.902	4059
1566.099	3959
1568.295	4001
1570.494	4018
1572.689	4051
1574.883	4021
1577.079	4060
1579.272	4000
1581.467	4055
1583.659	4151
1585.853	4079
1588.044	4095
1590.234	4101
1592.424	4012
1594.615	4164
1596.806	4096
1598.994	4096
1601.182	4057
1603.369	4115
1605.557	4157
1607.744	4053
1609.929	4150
1612.114	4206
1614.298	4064
1616.482	4062
1618.667	4071
1620.85	4070
1623.032	4081
1625.214	4073
1627.395	4123
1629.575	4135
1631.755	4175
1633.935	4162
1636.114	4111
1638.292	4120
1640.471	4038
1642.647	4105
1644.823	4151
1647	4124
1649.175	4208
1651.348	4165
1653.525	4177
1655.698	4196
1657.87	4193
1660.043	4202
1662.213	4209
1664.387	4190
1666.558	4211
1668.727	4205
1670.896	4067
1673.064	4218
1675.233	4321
1677.401	4155
1679.569	4211
1681.735	4132
1683.902	4095
1686.066	4134
1688.233	4204
1690.397	4192
1692.559	4140
1694.723	4162
1696.885	4147
1699.048	4100
1701.21	4164
1703.37	4071
1705.53	4166
1707.689	4120
1709.849	4071
1712.009	4076
1714.166	4179
1716.323	4104
1718.479	4117
1720.634	4118
1722.793	4198
1724.948	4101
1727.102	4159
1729.255	4065
1731.408	4142
1733.562	4167
1735.714	4069
1737.865	4092
1740.016	4094
1742.166	4174
1744.316	4124
1746.467	4127
1748.616	4137
1750.764	4133
1752.911	4126
1755.056	4163
1757.205	4134
1759.35	4171
1761.496	4134
1763.641	4132
1765.785	4116
1767.927	4097
1770.072	4247
1772.214	4105
1774.355	4175
1776.496	4066
1778.637	4149
1780.778	4211
1782.918	4105
1785.057	4189
1787.194	4125
1789.333	4202
1791.472	4203
1793.608	4127
1795.745	4197
1797.879	4158
1800.015	4175
1802.148	4204
1804.284	4211
1806.417	4190
1808.548	4166
1810.682	4257
1812.812	4243
1814.946	4175
1817.075	4202
1819.205	4098
1821.335	4158
1823.463	4165
1825.59	4232
1827.721	4247
1829.847	4146
1831.973	4215
1834.098	4303
1836.223	4205
1838.351	4115
1840.475	4184
1842.598	4176
1844.721	4249
1846.843	4208
1848.966	4145
1851.087	4176
1853.21	4229
1855.33	4182
1857.449	4172
1859.568	4128
1861.688	4161
1863.806	4108
1865.924	4163
1868.039	4254
1870.155	4175
1872.273	4182
1874.388	4229
1876.503	4137
1878.617	4162
1880.73	4225
1882.844	4159
1884.956	4133
1887.068	4175
1889.18	4164
1891.291	4154
1893.4	4143
1895.511	4240
1897.621	4163
1899.73	4200
1901.837	4197
1903.944	4202
1906.053	4257
1908.159	4304
1910.265	4230
1912.369	4230
1914.474	4183
1916.577	4204
1918.683	4241
1920.785	4228
1922.888	4292
1924.989	4283
1927.091	4318
1929.193	4257
1931.294	4290
1933.393	4282
1935.493	4206
1937.59	4308
1939.689	4280
1941.788	4338
1943.884	4265
1945.98	4247
1948.077	4323
1950.171	4338
1952.267	4295
1954.361	4308
1956.455	4311
1958.548	4328
1960.64	4265
1962.733	4231
1964.824	4266
1966.915	4212
1969.005	4300
1971.096	4324
1973.185	4299
1975.275	4328
1977.363	4283
1979.45	4209
1981.537	4344
1983.623	4230
1985.711	4249
1987.796	4292
1989.881	4210
1991.965	4212
1994.047	4183
1996.132	4219
1998.215	4183
2000.297	4198
2002.378	4219
2004.46	4192
2006.54	4220
2008.62	4223
2010.7	4240
2012.779	4311
2014.858	4142
2016.934	4258
2019.013	4287
2021.09	4196
2023.165	4248
2025.241	4289
2027.317	4234
2029.39	4310
2031.466	4252
2033.538	4264
2035.612	4264
2037.683	4286
2039.755	4273
2041.827	4287
2043.898	4300
2045.968	4222
2048.038	4260
2050.106	4332
2052.177	4261
2054.244	4242
2056.313	4366
2058.379	4283
2060.444	4217
2062.511	4251
2064.577	4257
2066.641	4360
2068.705	4244
2070.77	4272
2072.832	4299
2074.896	4258
2076.958	4262
2079.02	4257
2081.081	4296
2083.141	4275
2085.2	4304
2087.261	4161
2089.319	4223
2091.377	4320
2093.435	4277
2095.492	4257
2097.552	4300
2099.607	4221
2101.663	4257
2103.718	4330
2105.771	4179
2107.826	4349
2109.879	4246
2111.932	4271
2113.985	4380
2116.037	4315
2118.088	4301
2120.141	4262
2122.191	4326
2124.239	4242
2126.288	4387
2128.337	4247
2130.387	4357
2132.434	4192
2134.481	4243
2136.528	4267
2138.574	4292
2140.618	4375
2142.665	4325
2144.71	4339
2146.753	4277
2148.797	4209
2150.838	4388
2152.883	4239
2154.923	4260
2156.965	4211
2159.007	4271
2161.046	4247
2163.086	4252
2165.126	4283
2167.163	4258
2169.202	4339
2171.239	4200
2173.277	4293
2175.314	4321
2177.349	4278
2179.385	4234
2181.42	4230
2183.453	4203
2185.49	4146
2187.522	4320
2189.555	4279
2191.586	4237
2193.619	4205
2195.651	4281
2197.682	4227
2199.711	4236
2201.74	4244
2203.769	4312
2205.799	4273
2207.828	4285
2209.855	4217
2211.882	4304
2213.908	4306
2215.934	4143
2217.961	4185
2219.986	4229
2222.01	4222
2224.034	4309
2226.057	4180
2228.08	4202
2230.104	4172
2232.124	4172
2234.145	4205
2236.166	4210
2238.186	4204
2240.207	4224
2242.227	4214
2244.244	4178
2246.262	4179
2248.28	4258
2250.299	4233
2252.314	4315
2254.33	4122
2256.346	4219
2258.36	4175
2260.375	4303
2262.391	4199
2264.403	4292
2266.416	4187
2268.427	4227
2270.44	4214
2272.453	4208
2274.463	4235
2276.474	4234
2278.483	4277
2280.493	4236
2282.501	4119
2284.51	4195
2286.518	4230
2288.524	4256
2290.532	4231
2292.537	4285
2294.544	4179
2296.55	4277
2298.554	4176
2300.557	4236
2302.562	4246
2304.566	4149
2306.568	4193
2308.569	4156
2310.572	4210
2312.573	4231
2314.573	4280
2316.574	4229
2318.573	4182
2320.571	4205
2322.571	4245
2324.569	4185
2326.567	4173
2328.564	4221
2330.56	4205
2332.556	4202
2334.551	4171
2336.546	4185
2338.542	4126
2340.535	4272
2342.529	4210
2344.521	4263
2346.512	4195
2348.505	4188
2350.497	4134
2352.487	4126
2354.478	4165
2356.468	4205
2358.457	4179
2360.446	4177
2362.434	4236
2364.422	4151
2366.408	4235
2368.395	4167
2370.383	4144
2372.369	4166
2374.353	4163
2376.338	4187
2378.321	4190
2380.307	4193
2382.29	4210
2384.272	4124
2386.254	4224
2388.235	4130
2390.218	4152
2392.198	4191
2394.179	4192
2396.157	4105
2398.137	4187
2400.115	4156
2402.095	4121
2404.072	4289
2406.048	4135
2408.026	4083
2410.001	4106
2411.977	4095
2413.953	4157
2415.927	4126
2417.9	4187
2419.875	4142
2421.847	4174
2423.821	4121
2425.792	4167
2427.763	4134
2429.736	4165
2431.706	4166
2433.677	4164
2435.646	4167
2437.615	4136
2439.583	4125
2441.551	4197
2443.519	4161
2445.486	4162
2447.452	4119
2449.418	4136
2451.383	4094
2453.348	4128
2455.314	4078
2457.278	4103
2459.241	4080
2461.205	4120
2463.167	4141
2465.131	4169
2467.091	4114
2469.052	4151
2471.012	4183
2472.972	4095
2474.932	4051
2476.891	4139
2478.85	4061
2480.808	4100
2482.766	4154
2484.722	4094
2486.68	4126
2488.636	4138
2490.591	4120
2492.546	4058
2494.5	4139
2496.456	4047
2498.41	4102
2500.362	4093
2502.315	4199
2504.266	4102
2506.218	4113
2508.169	4075
2510.121	4065
2512.07	4106
2514.019	4140
2515.968	4082
2517.918	4132
2519.866	4123
2521.813	4040
2523.76	4037
2525.707	4112
2527.653	4106
2529.599	4029
2531.543	4056
2533.489	4040
2535.433	4135
2537.376	4047
2539.32	4065
2541.264	4053
2543.205	4066
2545.147	4117
2547.087	4092
2549.029	4051
2550.969	4022
2552.908	4101
2554.847	4088
2556.786	4081
2558.724	4133
2560.663	4063
2562.6	4120
2564.537	4097
2566.473	4118
2568.408	4146
2570.345	4074
2572.28	4137
2574.214	4075
2576.148	4138
2578.081	4079
2580.014	4146
2581.947	4135
2583.879	4055
2585.81	4141
2587.741	4087
2589.67	4061
2591.602	4147
2593.532	4092
2595.461	4096
2597.388	4212
2599.316	4152
2601.244	4081
2603.172	4127
2605.098	4200
2607.023	4154
2608.949	4108
2610.873	4154
2612.8	4158
2614.723	4062
2616.647	4122
2618.569	4131
2620.493	4133
2622.416	4141
2624.338	4082
2626.258	4150
2628.179	4173
2630.099	4136
2632.019	4162
2633.939	4099
2635.857	4086
2637.775	4150
2639.694	4157
2641.61	4055
2643.528	4129
2645.444	4198
2647.361	4095
2649.276	4151
2651.19	4106
2653.105	4072
2655.019	4094
2656.934	4153
2658.846	4061
2660.758	4114
2662.67	4242
2664.583	4145
2666.493	4094
2668.404	4180
2670.313	4127
2672.223	4150
2674.134	4106
2676.042	4183
2677.95	4120
2679.858	4119
2681.765	4083
2683.673	4152
2685.579	4199
2687.483	4136
2689.389	4121
2691.294	4159
2693.198	4157
2695.104	4101
2697.006	4145
2698.909	4044
2700.811	4110
2702.713	4107
2704.615	4127
2706.516	4155
2708.417	4053
2710.316	4158
2712.216	4135
2714.115	4053
2716.014	4120
2717.913	4135
2719.81	4014
2721.707	4026
2723.603	4076
2725.501	4129
2727.396	4056
2729.292	4092
2731.186	4111
2733.081	4081
2734.976	4030
2736.87	4126
2738.762	4123
2740.653	4142
2742.546	3995
2744.437	4084
2746.329	4062
2748.22	4095
2750.11	3986
2751.999	3975
2753.889	3979
2755.778	4067
2757.666	4076
2759.553	4069
2761.44	4006
2763.328	4012
2765.215	4086
2767.101	4018
2768.986	4014
2770.87	4010
2772.754	3944
2774.638	4037
2776.523	4026
2778.405	4078
2780.288	4062
2782.17	4053
2784.051	4076
2785.934	4179
2787.814	4050
2789.694	4076
2791.574	4048
2793.453	4008
2795.332	4054
2797.212	4091
2799.088	4036
2800.966	4057
2802.843	3992
2804.719	3968
2806.597	3999
2808.471	4050
2810.346	4089
2812.221	4052
2814.094	4015
2815.969	4055
2817.843	4000
2819.714	4038
2821.587	3998
2823.459	4016
2825.329	4000
2827.202	4008
2829.072	3888
2830.942	3970
2832.811	3951
2834.68	3994
2836.549	4010
2838.418	4019
2840.284	4027
2842.152	4088
2844.018	3959
2845.885	4051
2847.751	4144
2849.616	4028
2851.482	4018
2853.345	4056
2855.208	3979
2857.074	4044
2858.937	4057
2860.799	4036
2862.66	4040
2864.522	4053
2866.385	4083
2868.245	4109
2870.104	4191
2871.964	4109
2873.824	4116
2875.683	4203
2877.542	4237
2879.4	4244
2881.257	4238
2883.114	4221
2884.97	4190
2886.827	4263
2888.683	4301
2890.537	4206
2892.392	4297
2894.246	4262
2896.1	4258
2897.954	4237
2899.807	4181
2901.66	4197
2903.51	4273
2905.362	4220
2907.214	4248
2909.065	4193
2910.915	4281
2912.765	4336
2914.613	4264
2916.463	4258
2918.311	4397
2920.158	4340
2922.006	4454
2923.853	4324
2925.698	4460
2927.546	4404
2929.392	4548
2931.236	4585
2933.081	4477
2934.924	4538
2936.77	4540
2938.613	4524
2940.455	4704
2942.298	4607
2944.139	4619
2945.982	4655
2947.823	4524
2949.662	4492
2951.503	4565
2953.342	4524
2955.182	4492
2957.021	4449
2958.858	4491
2960.697	4404
2962.534	4404
2964.37	4325
2966.207	4374
2968.044	4338
2969.879	4375
2971.714	4197
2973.548	4375
2975.383	4225
2977.218	4308
2979.051	4286
2980.883	4225
2982.715	4312
2984.547	4253
2986.379	4282
2988.21	4093
2990.04	4239
2991.87	4280
2993.7	4174
2995.53	4119
2997.359	4135
2999.187	4140
3001.015	4101
3002.842	4082
3004.669	4100
3006.497	4119
3008.323	4018
3010.148	4017
3011.974	3962
3013.797	3955
3015.623	4043
3017.447	3940
3019.27	3933
3021.094	3977
3022.915	3907
3024.737	3991
3026.56	3909
3028.38	3986
3030.201	3918
3032.022	3913
3033.84	3886
3035.662	3874
3037.481	3849
3039.298	4049
3041.117	3906
3042.933	3964
3044.752	3806
3046.568	3935
3048.385	3941
3050.2	3877
3052.016	3922
3053.83	3843
3055.646	3894
3057.46	3867
3059.272	3925
3061.086	3882
3062.898	3847
3064.711	3841
3066.524	3905
3068.335	3812
3070.145	3944
3071.956	3889
3073.766	3872
3075.576	3892
3077.385	3890
3079.193	3873
3081.002	3856
3082.81	3771
3084.618	3835
3086.425	3886
3088.231	3812
3090.036	3829
3091.842	3812
3093.648	3745
3095.452	3785
3097.257	3805
3099.06	3738
3100.863	3749
3102.666	3818
3104.47	3825
3106.272	3775
3108.073	3814
3109.875	3841
3111.676	3810
3113.477	3772
3115.277	3737
3117.077	3673
3118.874	3710
3120.673	3830
3122.473	3865
3124.271	3773
3126.066	3823
3127.863	3722
3129.66	3773
3131.456	3653
3133.252	3776
3135.047	3769
3136.842	3727
3138.635	3711
3140.429	3772
3142.223	3642
3144.016	3752
3145.808	3718
3147.6	3738
3149.392	3681
3151.183	3756
3152.975	3663
3154.765	3759
3156.553	3695
3158.344	3670
3160.132	3740
3161.922	3677
3163.71	3716
3165.497	3746
3167.285	3765
3169.071	3740
3170.858	3708
3172.645	3694
3174.429	3713
3176.214	3659
3177.998	3651
3179.783	3782
3181.568	3683
3183.351	3663
3185.133	3659
3186.915	3700
3188.698	3675
3190.481	3688
3192.261	3663
3194.042	3666
3195.822	3631
3197.601	3695
3199.381	3646
3201.161	3653
3202.939	3705
3204.717	3720
3206.495	3717
3208.272	3619
3210.05	3749
3211.826	3615
3213.602	3657
3215.376	3696
3217.151	3580
3218.927	3588
3220.702	3529
3222.476	3655
3224.249	3718
3226.021	3622
3227.793	3707
3229.567	3617
3231.339	3677
3233.109	3564
3234.88	3587
3236.651	3682
3238.421	3644
3240.191	3676
3241.96	3605
3243.728	3618
3245.497	3613
3247.263	3655
3249.033	3622
3250.799	3587
3252.566	3647
3254.331	3632
3256.097	3635
3257.863	3654
3259.628	3606
3261.392	3678
3263.156	3587
3264.919	3717
3266.683	3623
3268.447	3640
3270.208	3729
3271.969	3694
3273.731	3614
3275.492	3658
3277.253	3626
3279.013	3670
3280.773	3633
3282.532	3673
3284.291	3688
3286.05	3592
3287.808	3619
3289.566	3596
3291.323	3626
3293.079	3579
3294.835	3599
3296.593	3666
3298.348	3676
3300.102	3566
3301.857	3585
3303.611	3569
3305.366	3583
3307.119	3654
3308.872	3646
3310.624	3684
3312.376	3639
3314.129	3657
3315.881	3668
3317.631	3611
3319.38	3631
3321.13	3627
3322.88	3664
3324.631	3629
3326.379	3620
3328.126	3675
3329.875	3617
3331.622	3566
3333.371	3632
3335.116	3626
3336.863	3668
3338.609	3614
3340.353	3538
3342.1	3560
3343.845	3630
3345.588	3597
3347.332	3619
3349.074	3625
3350.817	3588
3352.56	3641
3354.303	3612
3356.043	3496
3357.785	3562
3359.525	3534
3361.268	3536
3363.007	3599
3364.745	3625
3366.485	3570
3368.223	3567
3369.962	3518
3371.701	3582
3373.438	3516
3375.174	3561
3376.911	3542
3378.647	3535
3380.384	3531
3382.118	3642
3383.854	3600
3385.588	3561
3387.322	3590
3389.057	3611
3390.79	3532
3392.522	3545
3394.255	3495
3395.987	3544
3397.719	3531
3399.451	3622
3401.181	3481
3402.911	3534
3404.641	3504
3406.371	3568
3408.101	3508
3409.83	3548
3411.558	3559
3413.285	3534
3415.011	3484
3416.739	3575
3418.467	3548
3420.193	3502
3421.919	3510
3423.644	3540
3425.368	3481
3427.094	3554
3428.818	3495
3430.542	3556
3432.264	3565
3433.987	3475
3435.712	3532
3437.434	3392
3439.155	3469
3440.876	3462
3442.596	3453
3444.317	3472
3446.039	3488
3447.757	3456
3449.477	3424
3451.195	3483
3452.914	3392
3454.632	3444
3456.35	3468
3458.067	3444
3459.784	3449
3461.5	3451
3463.216	3489
3464.932	3387
3466.647	3406
3468.362	3415
3470.076	3453
3471.789	3336
3473.505	3377
3475.217	3375
3476.929	3469
3478.641	3343
3480.354	3392
3482.066	3418
3483.777	3410
3485.487	3419
3487.197	3426
3488.908	3406
3490.617	3368
3492.327	3364
3494.035	3378
3495.743	3409
3497.451	3330
3499.158	3338
3500.866	3328
3502.572	3313
3504.278	3386
3505.984	3333
3507.689	3401
3509.396	3441
3511.1	3354
3512.804	3385
3514.508	3296
3516.211	3321
3517.913	3335
3519.616	3330
3521.319	3383
3523.021	3390
3524.722	3352
3526.422	3312
3528.124	3341
3529.824	3253
3531.524	3365
3533.222	3288
3534.921	3331
3536.62	3323
3538.318	3316
3540.016	3340
3541.714	3317
3543.41	3297
3545.107	3296
3546.803	3355
3548.5	3323
3550.194	3315
3551.889	3355
3553.583	3253
3555.279	3314
3556.972	3314
3558.666	3290
3560.358	3309
3562.051	3312
3563.742	3254
3565.435	3196
3567.126	3228
3568.817	3221
3570.507	3252
3572.197	3320
3573.888	3297
3575.577	3268
3577.265	3226
3578.954	3278
3580.642	3314
3582.329	3211
3584.017	3207
3585.704	3290
3587.391	3299
3589.077	3260
3590.762	3268
3592.449	3228
3594.133	3151
3595.817	3208
3597.501	3175
3599.185	3230
3600.869	3204
3602.552	3206
3604.234	3218
3605.916	3226
3607.598	3278
3609.279	3187
3610.961	3120
3612.642	3171
3614.321	3204
3616	3156
3617.68	3157
3619.36	3177
3621.039	3102
3622.716	3110
3624.394	3118
3626.071	3126
3627.748	3161
3629.425	3094
3631.102	3134
3632.778	3096
3634.452	3182
3636.127	3140
3637.803	3133
3639.477	3208
3641.151	3117
3642.823	3166
3644.497	3080
3646.171	3079
3647.842	3176
3649.515	3114
3651.185	3054
3652.857	3053
3654.527	3076
3656.198	3065
3657.868	3095
3659.537	3050
3661.207	3153
3662.875	3108
3664.544	3170
3666.212	3012
3667.879	3005
3669.546	3072
3671.212	3042
3672.88	3046
3674.546	2984
3676.211	3122
3677.875	3110
3679.541	3071
3681.205	3086
3682.87	3064
3684.533	3058
3686.196	3016
3687.859	3094
3689.521	3072
3691.184	3015
3692.845	3021
3694.507	3047
3696.167	2980
3697.827	3043
3699.487	3065
3701.148	3044
3702.808	2994
3704.466	3146
3706.125	2967
3707.783	3072
3709.442	3096
3711.099	3073
3712.757	3083
3714.412	3092
3716.068	3014
3717.725	2997
3719.381	3085
3721.036	2951
3722.689	3031
3724.344	2996
3725.998	3062
3727.652	3037
3729.305	2912
3730.958	2961
3732.61	3036
3734.262	2963
3735.915	2987
3737.565	3016
3739.217	2948
3740.866	2969
3742.516	3050
3744.165	2963
3745.816	3010
3747.464	3025
3749.113	2935
3750.761	2980
3752.409	2994
3754.057	3038
3755.703	3025
3757.35	2937
3758.996	2966
3760.641	3011
3762.289	3034
3763.933	3002
3765.577	2958
3767.222	2945
3768.865	2853
3770.508	2950
3772.152	2902
3773.796	2891
3775.438	2941
3777.079	2908
3778.721	2968
3780.363	2897
3782.003	2922
3783.643	2921
3785.283	2926
3786.923	2934
3788.563	2890
3790.203	2931
3791.841	2927
3793.479	2907
3795.115	2950
3796.753	2926
3798.391	2911
3800.027	2863
3801.664	2949
3803.299	2877
3804.935	2841
3806.571	2861
3808.206	2910
3809.839	2879
3811.473	2938
3813.107	2839
3814.74	2957
3816.375	2882
3818.006	2982
3819.638	2933
3821.27	2816
3822.9	2909
3824.532	2896
3826.163	2907
3827.792	2888
3829.423	2877
3831.051	2888
3832.682	2831
3834.311	2868
3835.938	2870
3837.566	2905
3839.193	2825
3840.821	2860
3842.448	2890
3844.075	2806
3845.7	2894
3847.325	2814
3848.951	2820
3850.576	2834
3852.201	2841
3853.825	2863
3855.448	2853
3857.072	2836
3858.694	2858
3860.318	2814
3861.939	2939
3863.562	2841
3865.183	2848
3866.804	2832
3868.426	2749
3870.045	2853
3871.666	2788
3873.285	2817
3874.904	2848
3876.524	2806
3878.142	2818
3879.76	2799
3881.378	2807
3882.995	2765
3884.612	2819
3886.229	2827
3887.845	2793
3889.461	2789
3891.076	2810
3892.691	2820
3894.307	2803
3895.922	2718
3897.536	2798
3899.149	2791
3900.761	2835
3902.374	2794
3903.988	2808
3905.6	2807
3907.212	2807
3908.822	2796
3910.433	2832
3912.045	2767
3913.655	2756
3915.265	2768
3916.875	2816
3918.483	2743
3920.093	2771
3921.702	2778
3923.309	2729
3924.917	2752
3926.523	2771
3928.13	2727
3929.739	2835
3931.344	2773
3932.95	2697
3934.555	2801
3936.159	2780
3937.766	2740
3939.369	2732
3940.974	2778
3942.577	2740
3944.181	2698
3945.783	2807
3947.386	2698
3948.989	2716
3950.59	2775
3952.191	2748
3953.791	2720
3955.394	2762
3956.994	2716
3958.593	2757
3960.192	2751
3961.791	2783
3963.392	2675
3964.99	2759
3966.588	2687
3968.185	2780
3969.782	2748
3971.379	2729
3972.976	2685
3974.572	2736
3976.168	2681
3977.763	2662
3979.358	2680
3980.954	2798
3982.548	2728
3984.142	2648
3985.736	2741
3987.329	2661
3988.922	2728
3990.516	2684
3992.108	2704
3993.698	2637
3995.29	2628
3996.881	2680
3998.473	2654
4000.064	2715
4001.653	2673
4003.242	2682
4004.832	2659
4006.422	2670
4008.01	2670
4009.598	2679
4011.186	2673
4012.773	2666
4014.36	2562
4015.947	2629
4017.534	2635
4019.119	2633
4020.705	2668
4022.291	2685
4023.876	2657
4025.461	2616
4027.044	2596
4028.627	2643
4030.211	2649
4031.795	2692
4033.378	2556
4034.96	2563
4036.542	2613
4038.124	2661
4039.704	2611
4041.286	2523
4042.867	2605
4044.447	2600
4046.026	2554
4047.606	2549
4049.187	2556
4050.765	2492
4052.343	2640
4053.92	2542
4055.498	2578
4057.076	2495
4058.654	2531
4060.23	2543
4061.806	2621
4063.381	2616
4064.957	2585
4066.533	2590
4068.107	2565
4069.682	2556
4071.256	2544
4072.829	2587
4074.404	2518
4075.977	2587
4077.549	2626
4079.121	2555
4080.693	2569
4082.265	2493
4083.836	2474
4085.407	2557
4086.977	2566
4088.547	2521
4090.117	2529
4091.687	2491
4093.256	2511
4094.825	2576
4096.392	2598
4097.96	2518
4099.528	2610
4101.097	2533
4102.663	2502
4104.229	2521
4105.795	2486
4107.361	2446
4108.928	2508
4110.493	2512
4112.058	2603
4113.621	2522
4115.186	2452
4116.75	2520
4118.313	2481
4119.876	2474
4121.438	2531
4123	2459
4124.562	2508
4126.125	2465
4127.686	2466
4129.246	2491
4130.807	2438
4132.367	2454
4133.927	2491
4135.486	2497
4137.046	2471
4138.604	2470
4140.162	2465
4141.72	2470
4143.279	2465
4144.836	2438
4146.393	2439
4147.949	2400
4149.505	2500
4151.062	2404
4152.617	2430
4154.172	2460
4155.727	2398
4157.281	2450
4158.836	2444
4160.39	2425
4161.943	2467
4163.496	2406
4165.048	2423
4166.601	2421
4168.154	2403
4169.706	2314
4171.257	2458
4172.808	2434
4174.358	2405
4175.909	2429
4177.458	2403
4179.008	2395
4180.558	2384
4182.106	2442
4183.655	2402
4185.204	2452
4186.751	2357
4188.298	2407
4189.845	2344
4191.392	2399
4192.939	2412
4194.485	2348
4196.031	2405
4197.576	2373
4199.121	2388
4200.666	2418
4202.211	2378
4203.754	2394
4205.298	2351
4206.84	2437
4208.384	2298
4209.927	2377
4211.47	2376
4213.011	2344
4214.552	2344
4216.094	2351
4217.635	2336
4219.175	2314
4220.716	2350
4222.255	2383
4223.793	2320
4225.335	2363
4226.873	2319
4228.411	2360
4229.948	2361
4231.486	2338
4233.024	2387
4234.562	2367
4236.098	2354
4237.634	2285
4239.169	2398
4240.705	2262
4242.241	2289
4243.776	2313
4245.31	2286
4246.844	2360
4248.378	2312
4249.911	2326
4251.445	2279
4252.978	2295
4254.51	2364
4256.042	2296
4257.574	2328
4259.107	2336
4260.638	2238
4262.169	2364
4263.699	2266
4265.228	2294
4266.759	2308
4268.289	2337
4269.818	2283
4271.345	2340
4272.874	2265
4274.402	2243
4275.931	2289
4277.458	2292
4278.985	2264
4280.512	2283
4282.037	2249
4283.564	2344
4285.089	2281
4286.615	2268
4288.139	2279
4289.664	2282
4291.187	2228
4292.712	2241
4294.235	2277
4295.759	2265
4297.281	2316
4298.804	2218
4300.327	2225
4301.849	2261
4303.37	2267
4304.891	2230
4306.412	2252
4307.933	2261
4309.453	2240
4310.973	2258
4312.492	2250
