398.1873	2949
400.7097	2961
403.2336	2980
405.7547	2969
408.2751	2973
410.7948	2984
413.3138	3010
415.83	3087
418.3497	3024
420.8666	3126
423.3829	3183
425.8985	3081
428.4133	3187
430.9275	3262
433.441	3152
435.9538	3188
438.4639	3093
440.9753	3098
443.4881	3232
445.9982	3177
448.5055	3191
451.0142	3252
453.5201	3202
456.0274	3244
458.5361	3278
461.04	3179
463.5453	3180
466.0478	3194
468.5517	3177
471.0549	3137
473.5574	3222
476.0572	3230
478.5584	3153
481.0568	3246
483.5545	3281
486.0557	3177
488.5521	3230
491.0478	3224
493.5449	3173
496.0392	3227
498.5349	3209
501.0299	3263
503.5222	3302
506.0139	3289
508.5048	3356
510.9991	3298
513.4887	3234
515.9777	3311
518.4659	3355
520.9534	3301
523.4403	3240
525.9306	3338
528.4161	3225
530.9009	3373
533.3851	3259
535.8687	3369
538.3535	3309
540.8356	3353
543.3171	3351
545.7979	3287
548.278	3381
550.7595	3252
553.2383	3291
555.7144	3234
558.1918	3293
560.6685	3296
563.1446	3293
565.6221	3341
568.0968	3252
570.5688	3426
573.0422	3489
575.515	3411
577.989	3387
580.4584	3425
582.9291	3520
585.3991	3466
587.8685	3363
590.3352	3497
592.8052	3357
595.2706	3412
597.7372	3423
600.2033	3468
602.6666	3349
605.1334	3359
607.5953	3423
610.0587	3419
612.5193	3384
614.9814	3411
617.4427	3387
619.9034	3378
622.3615	3433
624.8208	3415
627.2775	3400
629.7335	3390
632.1929	3403
634.6476	3411
637.1016	3427
639.5569	3387
642.0096	3471
644.4637	3412
646.9151	3398
649.3678	3435
651.8179	3381
654.2672	3496
656.7159	3426
659.166	3429
661.6154	3450
664.0622	3412
666.5082	3463
668.9537	3443
671.4005	3419
673.8445	3464
676.288	3441
678.7308	3487
681.1729	3436
683.6163	3533
686.0572	3483
688.4973	3529
690.9368	3496
693.3757	3524
695.8138	3531
698.2534	3504
700.6902	3563
703.1245	3510
705.56	3595
707.9949	3564
710.4311	3632
712.8647	3546
715.2957	3508
717.7279	3644
720.1595	3573
722.5905	3624
725.0208	3616
727.4505	3679
729.8795	3552
732.3058	3696
734.7336	3662
737.1626	3621
739.587	3602
742.0128	3657
744.4359	3622
746.8604	3668
749.2841	3771
751.7073	3682
754.1278	3663
756.5496	3713
758.9688	3725
761.3893	3702
763.8093	3776
766.2285	3769
768.6451	3695
771.0611	3767
773.4784	3737
775.895	3757
778.3091	3736
780.7244	3753
783.1371	3713
785.5493	3756
787.9626	3709
790.3754	3781
792.7856	3765
795.1951	3703
797.6039	3766
800.0121	3722
802.4236	3882
804.8306	3727
807.2369	3782
809.6425	3732
812.0475	3805
814.4538	3828
816.8575	3857
819.2606	3753
821.663	3810
824.0648	3792
826.4659	3855
828.8683	3852
831.2682	3866
833.6674	3786
836.066	3803
838.4639	3919
840.8632	3912
843.2579	3859
845.6539	3876
848.0493	3851
850.444	3893
852.84	3908
855.2315	3876
857.6243	3854
860.0165	3779
862.4081	3833
864.797	3827
867.1892	3912
869.5789	3831
871.9659	3867
874.3542	3906
876.74	3940
879.129	3778
881.5155	3875
883.8994	3865
886.2845	3914
888.6671	3851
891.051	3847
893.4343	3850
895.8169	3913
898.197	3844
900.5783	3904
902.9571	3851
905.3372	3876
907.7167	3897
910.0936	3892
912.4698	3877
914.8474	3900
917.2244	3892
919.5987	3950
921.9744	3991
924.3475	4061
926.72	4061
929.0918	4050
931.4669	4060
933.8375	4021
936.2074	4022
938.5767	4109
940.9454	4092
943.3154	4239
945.6829	4201
948.0497	4343
950.4178	4397
952.7833	4522
955.1483	4695
957.5145	4752
959.8782	4846
962.2412	4858
964.6036	4723
966.9655	4638
969.3266	4490
971.6871	4352
974.0471	4303
976.4064	4197
978.765	4199
981.125	4046
983.4824	4069
985.8373	4008
988.1935	3949
990.549	4001
992.9039	4010
995.2602	4029
997.6119	3964
999.965	4044
1002.317	4016
1004.667	4015
1007.02	4032
1009.371	4011
1011.719	3980
1014.068	4041
1016.415	4093
1018.765	4086
1021.111	4061
1023.458	4106
1025.804	4049
1028.147	4001
1030.49	4032
1032.837	4108
1035.179	4120
1037.522	4109
1039.862	4094
1042.204	4080
1044.546	4115
1046.884	4034
1049.224	4070
1051.562	4117
1053.899	4107
1056.237	4116
1058.575	4081
1060.91	4096
1063.244	4115
1065.58	4193
1067.913	4291
1070.248	4223
1072.579	4189
1074.911	4170
1077.242	4089
1079.572	4192
1081.905	4082
1084.234	4130
1086.562	4120
1088.89	4129
1091.217	4114
1093.544	4052
1095.871	4060
1098.197	4113
1100.521	4124
1102.845	4039
1105.169	4178
1107.491	4063
1109.814	4067
1112.135	4172
1114.456	4119
1116.776	4084
1119.096	4079
1121.415	4160
1123.734	4087
1126.052	4030
1128.369	4138
1130.686	4124
1133.002	4130
1135.318	4148
1137.632	4115
1139.945	4171
1142.258	4165
1144.573	4161
1146.884	4208
1149.196	4246
1151.505	4141
1153.816	4156
1156.124	4138
1158.435	4085
1160.742	4167
1163.051	4295
1165.356	4107
1167.663	4187
1169.97	4026
1172.276	4118
1174.579	4176
1176.881	4161
1179.186	4123
1181.487	4183
1183.79	4212
1186.092	4134
1188.392	4143
1190.691	4141
1192.991	4035
1195.291	4148
1197.588	4122
1199.885	4184
1202.181	4191
1204.479	4068
1206.775	4099
1209.07	4108
1211.363	4210
1213.656	4214
1215.949	4171
1218.241	4139
1220.534	4188
1222.825	4223
1225.115	4194
1227.405	4187
1229.693	4300
1231.984	4212
1234.271	4296
1236.558	4253
1238.845	4271
1241.131	4300
1243.416	4245
1245.703	4265
1247.987	4219
1250.269	4337
1252.552	4286
1254.834	4286
1257.118	4288
1259.399	4278
1261.678	4204
1263.958	4275
1266.237	4369
1268.516	4379
1270.794	4282
1273.072	4304
1275.347	4268
1277.624	4311
1279.899	4321
1282.175	4332
1284.449	4234
1286.722	4281
1288.995	4269
1291.266	4222
1293.54	4243
1295.81	4217
1298.081	4222
1300.35	4314
1302.62	4208
1304.889	4242
1307.156	4347
1309.425	4176
1311.69	4173
1313.957	4272
1316.222	4196
1318.488	4288
1320.751	4161
1323.016	4312
1325.278	4187
1327.54	4215
1329.803	4289
1332.065	4267
1334.325	4259
1336.584	4268
1338.843	4363
1341.101	4242
1343.36	4275
1345.617	4338
1347.876	4227
1350.131	4200
1352.387	4354
1354.643	4302
1356.897	4286
1359.151	4228
1361.403	4314
1363.656	4166
1365.909	4188
1368.16	4287
1370.409	4303
1372.659	4372
1374.909	4308
1377.157	4277
1379.407	4294
1381.655	4311
1383.9	4346
1386.147	4327
1388.393	4372
1390.64	4271
1392.885	4314
1395.127	4309
1397.37	4379
1399.614	4310
1401.854	4392
1404.098	4311
1406.339	4448
1408.578	4376
1410.818	4388
1413.056	4458
1415.297	4377
1417.533	4356
1419.771	4476
1422.006	4360
1424.243	4384
1426.479	4480
1428.715	4379
1430.948	4443
1433.182	4450
1435.414	4349
1437.647	4477
1439.88	4446
1442.11	4447
1444.342	4504
1446.571	4452
1448.799	4417
1451.029	4489
1453.258	4492
1455.485	4449
1457.711	4476
1459.937	4437
1462.164	4472
1464.39	4451
1466.614	4463
1468.838	4403
1471.06	4505
1473.283	4532
1475.506	4345
1477.727	4362
1479.949	4372
1482.169	4448
1484.389	4329
1486.609	4318
1488.828	4336
1491.045	4235
1493.261	4332
1495.477	4422
1497.693	4292
1499.91	4385
1502.125	4323
1504.339	4311
1506.553	4363
1508.766	4333
1510.979	4284
1513.191	4331
1515.402	4334
1517.613	4271
1519.823	4316
1522.033	4305
1524.242	4438
1526.451	4339
1528.657	4432
1530.865	4295
1533.072	4424
1535.278	4344
1537.484	4390
1539.687	4403
1541.892	4315
1544.096	4318
1546.299	4413
1548.502	4377
1550.703	4347
1552.905	4437
1555.104	4344
1557.303	4477
1559.505	4424
1561.703	4385
1563.902	4375
1566.099	4463
1568.295	4418
1570.494	4423
1572.689	4435
1574.883	4489
1577.079	4419
1579.272	4472
1581.467	4606
1583.659	4457
1585.853	4391
1588.044	4422
1590.234	4467
1592.424	4492
1594.615	4487
1596.806	4486
1598.994	4486
1601.182	4546
1603.369	4461
1605.557	4432
1607.744	4575
1609.929	4582
1612.114	4487
1614.298	4489
1616.482	4539
1618.667	4542
1620.85	4493
1623.032	4594
1625.214	4538
1627.395	4484
1629.575	4484
1631.755	4606
1633.935	4480
1636.114	4486
1638.292	4528
1640.471	4557
1642.647	4582
1644.823	4553
1647	4562
1649.175	4581
1651.348	4538
1653.525	4573
1655.698	4638
1657.87	4661
1660.043	4547
1662.213	4642
1664.387	4572
1666.558	4538
1668.727	4586
1670.896	4647
1673.064	4612
1675.233	4742
1677.401	4613
1679.569	4696
1681.735	4675
1683.902	4688
1686.066	4701
1688.233	4635
1690.397	4600
1692.559	4573
1694.723	4560
1696.885	4593
1699.048	4605
1701.21	4591
1703.37	4556
1705.53	4632
1707.689	4580
1709.849	4488
1712.009	4512
1714.166	4507
1716.323	4515
1718.479	4512
1720.634	4428
1722.793	4540
1724.948	4507
1727.102	4525
1729.255	4525
1731.408	4500
1733.562	4503
1735.714	4474
1737.865	4628
1740.016	4534
1742.166	4556
1744.316	4571
1746.467	4512
1748.616	4562
1750.764	4573
1752.911	4492
1755.056	4565
1757.205	4477
1759.35	4581
1761.496	4579
1763.641	4579
1765.785	4610
1767.927	4582
1770.072	4605
1772.214	4673
1774.355	4644
1776.496	4570
1778.637	4591
1780.778	4605
1782.918	4560
1785.057	4515
1787.194	4561
1789.333	4582
1791.472	4576
1793.608	4523
1795.745	4523
1797.879	4567
1800.015	4642
1802.148	4682
1804.284	4635
1806.417	4690
1808.548	4583
1810.682	4599
1812.812	4697
1814.946	4634
1817.075	4589
1819.205	4621
1821.335	4481
1823.463	4664
1825.59	4670
1827.721	4527
1829.847	4545
1831.973	4632
1834.098	4579
1836.223	4585
1838.351	4550
1840.475	4509
1842.598	4584
1844.721	4658
1846.843	4655
1848.966	4524
1851.087	4597
1853.21	4504
1855.33	4590
1857.449	4598
1859.568	4494
1861.688	4562
1863.806	4649
1865.924	4534
1868.039	4527
1870.155	4634
1872.273	4609
1874.388	4548
1876.503	4579
1878.617	4576
1880.73	4624
1882.844	4646
1884.956	4618
1887.068	4605
1889.18	4553
1891.291	4632
1893.4	4742
1895.511	4602
1897.621	4628
1899.73	4633
1901.837	4678
1903.944	4712
1906.053	4593
1908.159	4652
1910.265	4608
1912.369	4661
1914.474	4728
1916.577	4607
1918.683	4692
1920.785	4707
1922.888	4701
1924.989	4655
1927.091	4699
1929.193	4629
1931.294	4671
1933.393	4729
1935.493	4728
1937.59	4747
1939.689	4655
1941.788	4744
1943.884	4717
1945.98	4633
1948.077	4605
1950.171	4656
1952.267	4715
1954.361	4781
1956.455	4757
1958.548	4725
1960.64	4704
1962.733	4726
1964.824	4743
1966.915	4667
1969.005	4707
1971.096	4640
1973.185	4721
1975.275	4643
1977.363	4655
1979.45	4752
1981.537	4652
1983.623	4636
1985.711	4699
1987.796	4670
1989.881	4630
1991.965	4624
1994.047	4631
1996.132	4686
1998.215	4623
2000.297	4723
2002.378	4731
2004.46	4536
2006.54	4647
2008.62	4555
2010.7	4729
2012.779	4704
2014.858	4654
2016.934	4660
2019.013	4648
2021.09	4611
2023.165	4658
2025.241	4709
2027.317	4632
2029.39	4650
2031.466	4649
2033.538	4802
2035.612	4634
2037.683	4802
2039.755	4679
2041.827	4667
2043.898	4585
2045.968	4609
2048.038	4660
2050.106	4754
2052.177	4610
2054.244	4594
2056.313	4680
2058.379	4648
2060.444	4761
2062.511	4581
2064.577	4697
2066.641	4738
2068.705	4753
2070.77	4664
2072.832	4711
2074.896	4673
2076.958	4732
2079.02	4688
2081.081	4663
2083.141	4743
2085.2	4675
2087.261	4710
2089.319	4691
2091.377	4672
2093.435	4704
2095.492	4708
2097.552	4684
2099.607	4732
2101.663	4746
2103.718	4699
2105.771	4723
2107.826	4681
2109.879	4728
2111.932	4674
2113.985	4735
2116.037	4755
2118.088	4789
2120.141	4624
2122.191	4669
2124.239	4736
2126.288	4655
2128.337	4676
2130.387	4683
2132.434	4667
2134.481	4764
2136.528	4711
2138.574	4701
2140.618	4728
2142.665	4684
2144.71	4723
2146.753	4609
2148.797	4740
2150.838	4699
2152.883	4650
2154.923	4686
2156.965	4632
2159.007	4728
2161.046	4723
2163.086	4665
2165.126	4646
2167.163	4629
2169.202	4656
2171.239	4750
2173.277	4747
2175.314	4665
2177.349	4648
2179.385	4635
2181.42	4651
2183.453	4602
2185.49	4527
2187.522	4714
2189.555	4633
2191.586	4624
2193.619	4676
2195.651	4649
2197.682	4617
2199.711	4675
2201.74	4578
2203.769	4706
2205.799	4623
2207.828	4659
2209.855	4605
2211.882	4610
2213.908	4565
2215.934	4708
2217.961	4675
2219.986	4793
2222.01	4629
2224.034	4580
2226.057	4619
2228.08	4569
2230.104	4643
2232.124	4589
2234.145	4621
2236.166	4585
2238.186	4598
2240.207	4609
2242.227	4620
2244.244	4528
2246.262	4625
2248.28	4603
2250.299	4671
2252.314	4567
2254.33	4646
2256.346	4590
2258.36	4566
2260.375	4611
2262.391	4698
2264.403	4643
2266.416	4627
2268.427	4610
2270.44	4689
2272.453	4657
2274.463	4737
2276.474	4623
2278.483	4635
2280.493	4714
2282.501	4653
2284.51	4594
2286.518	4610
2288.524	4743
2290.532	4617
2292.537	4618
2294.544	4610
2296.55	4671
2298.554	4591
2300.557	4683
2302.562	4522
2304.566	4595
2306.568	4578
2308.569	4542
2310.572	4600
2312.573	4679
2314.573	4629
2316.574	4697
2318.573	4670
2320.571	4621
2322.571	4622
2324.569	4595
2326.567	4625
2328.564	4532
2330.56	4595
2332.556	4657
2334.551	4665
2336.546	4528
2338.542	4656
2340.535	4593
2342.529	4507
2344.521	4518
2346.512	4586
2348.505	4587
2350.497	4536
2352.487	4548
2354.478	4539
2356.468	4495
2358.457	4545
2360.446	4540
2362.434	4480
2364.422	4553
2366.408	4571
2368.395	4578
2370.383	4680
2372.369	4530
2374.353	4575
2376.338	4580
2378.321	4500
2380.307	4515
2382.29	4496
2384.272	4561
2386.254	4560
2388.235	4504
2390.218	4510
2392.198	4524
2394.179	4563
2396.157	4472
2398.137	4553
2400.115	4515
2402.095	4499
2404.072	4522
2406.048	4512
2408.026	4450
2410.001	4494
2411.977	4442
2413.953	4582
2415.927	4558
2417.9	4515
2419.875	4490
2421.847	4586
2423.821	4467
2425.792	4526
2427.763	4567
2429.736	4555
2431.706	4577
2433.677	4568
2435.646	4546
2437.615	4445
2439.583	4542
2441.551	4544
2443.519	4572
2445.486	4476
2447.452	4533
2449.418	4557
2451.383	4483
2453.348	4578
2455.314	4541
2457.278	4495
2459.241	4407
2461.205	4503
2463.167	4547
2465.131	4512
2467.091	4506
2469.052	4574
2471.012	4519
2472.972	4517
2474.932	4544
2476.891	4510
2478.85	4427
2480.808	4449
2482.766	4553
2484.722	4590
2486.68	4487
2488.636	4534
2490.591	4471
2492.546	4493
2494.5	4485
2496.456	4462
2498.41	4595
2500.362	4525
2502.315	4490
2504.266	4410
2506.218	4395
2508.169	4420
2510.121	4561
2512.07	4510
2514.019	4457
2515.968	4437
2517.918	4572
2519.866	4533
2521.813	4501
2523.76	4557
2525.707	4427
2527.653	4403
2529.599	4424
2531.543	4513
2533.489	4470
2535.433	4445
2537.376	4527
2539.32	4596
2541.264	4474
2543.205	4524
2545.147	4423
2547.087	4519
2549.029	4380
2550.969	4463
2552.908	4523
2554.847	4435
2556.786	4421
2558.724	4478
2560.663	4524
2562.6	4526
2564.537	4473
2566.473	4463
2568.408	4461
2570.345	4556
2572.28	4530
2574.214	4441
2576.148	4463
2578.081	4537
2580.014	4423
2581.947	4546
2583.879	4442
2585.81	4452
2587.741	4460
2589.67	4448
2591.602	4484
2593.532	4540
2595.461	4416
2597.388	4461
2599.316	4453
2601.244	4431
2603.172	4466
2605.098	4561
2607.023	4409
2608.949	4569
2610.873	4450
2612.8	4508
2614.723	4350
2616.647	4462
2618.569	4498
2620.493	4550
2622.416	4549
2624.338	4443
2626.258	4500
2628.179	4437
2630.099	4481
2632.019	4425
2633.939	4535
2635.857	4534
2637.775	4386
2639.694	4500
2641.61	4497
2643.528	4524
2645.444	4494
2647.361	4497
2649.276	4498
2651.19	4461
2653.105	4491
2655.019	4584
2656.934	4579
2658.846	4514
2660.758	4552
2662.67	4577
2664.583	4454
2666.493	4544
2668.404	4512
2670.313	4502
2672.223	4521
2674.134	4498
2676.042	4525
2677.95	4475
2679.858	4491
2681.765	4464
2683.673	4433
2685.579	4579
2687.483	4576
2689.389	4492
2691.294	4484
2693.198	4430
2695.104	4477
2697.006	4541
2698.909	4471
2700.811	4491
2702.713	4445
2704.615	4377
2706.516	4346
2708.417	4479
2710.316	4348
2712.216	4408
2714.115	4445
2716.014	4445
2717.913	4384
2719.81	4453
2721.707	4497
2723.603	4495
2725.501	4434
2727.396	4480
2729.292	4312
2731.186	4478
2733.081	4430
2734.976	4387
2736.87	4440
2738.762	4398
2740.653	4420
2742.546	4472
2744.437	4421
2746.329	4496
2748.22	4436
2750.11	4381
2751.999	4373
2753.889	4388
2755.778	4511
2757.666	4403
2759.553	4432
2761.44	4398
2763.328	4470
2765.215	4480
2767.101	4407
2768.986	4400
2770.87	4344
2772.754	4450
2774.638	4471
2776.523	4383
2778.405	4459
2780.288	4319
2782.17	4425
2784.051	4304
2785.934	4500
2787.814	4434
2789.694	4390
2791.574	4449
2793.453	4392
2795.332	4437
2797.212	4404
2799.088	4341
2800.966	4427
2802.843	4305
2804.719	4395
2806.597	4378
2808.471	4369
2810.346	4384
2812.221	4408
2814.094	4303
2815.969	4357
2817.843	4487
2819.714	4417
2821.587	4339
2823.459	4305
2825.329	4364
2827.202	4395
2829.072	4321
2830.942	4348
2832.811	4413
2834.68	4449
2836.549	4415
2838.418	4462
2840.284	4430
2842.152	4366
2844.018	4346
2845.885	4263
2847.751	4435
2849.616	4365
2851.482	4361
2853.345	4416
2855.208	4394
2857.074	4519
2858.937	4439
2860.799	4443
2862.66	4480
2864.522	4416
2866.385	4433
2868.245	4541
2870.104	4572
2871.964	4437
2873.824	4538
2875.683	4550
2877.542	4569
2879.4	4605
2881.257	4712
2883.114	4605
2884.97	4538
2886.827	4690
2888.683	4605
2890.537	4485
2892.392	4653
2894.246	4543
2896.1	4503
2897.954	4569
2899.807	4597
2901.66	4592
2903.51	4637
2905.362	4555
2907.214	4566
2909.065	4592
2910.915	4593
2912.765	4603
2914.613	4553
2916.463	4738
2918.311	4648
2920.158	4724
2922.006	4666
2923.853	4810
2925.698	4783
2927.546	4848
2929.392	4842
2931.236	4799
2933.081	4834
2934.924	4942
2936.77	4840
2938.613	4943
2940.455	4922
2942.298	4980
2944.139	4971
2945.982	4925
2947.823	4915
2949.662	4894
2951.503	4949
2953.342	4773
2955.182	4799
2957.021	4807
2958.858	4794
2960.697	4790
2962.534	4668
2964.37	4728
2966.207	4656
2968.044	4713
2969.879	4717
2971.714	4663
2973.548	4600
2975.383	4633
2977.218	4656
2979.051	4567
2980.883	4644
2982.715	4602
2984.547	4655
2986.379	4582
2988.21	4604
2990.04	4568
2991.87	4621
2993.7	4533
2995.53	4514
2997.359	4417
2999.187	4428
3001.015	4509
3002.842	4451
3004.669	4454
3006.497	4407
3008.323	4316
3010.148	4394
3011.974	4271
3013.797	4359
3015.623	4353
3017.447	4322
3019.27	4284
3021.094	4277
3022.915	4243
3024.737	4297
3026.56	4317
3028.38	4286
3030.201	4250
3032.022	4259
3033.84	4221
3035.662	4282
3037.481	4347
3039.298	4206
3041.117	4184
3042.933	4251
3044.752	4151
3046.568	4227
3048.385	4234
3050.2	4237
3052.016	4252
3053.83	4190
3055.646	4266
3057.46	4187
3059.272	4205
3061.086	4234
3062.898	4219
3064.711	4132
3066.524	4212
3068.335	4169
3070.145	4203
3071.956	4206
3073.766	4174
3075.576	4150
3077.385	4111
3079.193	4255
3081.002	4245
3082.81	4109
3084.618	4161
3086.425	4131
3088.231	4232
3090.036	4153
3091.842	4105
3093.648	4135
3095.452	4081
3097.257	4022
3099.06	4082
3100.863	4106
3102.666	4118
3104.47	4088
3106.272	4064
3108.073	4027
3109.875	4107
3111.676	4093
3113.477	4031
3115.277	4066
3117.077	4142
3118.874	4076
3120.673	4087
3122.473	4033
3124.271	4025
3126.066	3962
3127.863	4051
3129.66	4056
3131.456	4003
3133.252	4081
3135.047	4093
3136.842	4067
3138.635	3981
3140.429	4071
3142.223	4078
3144.016	3965
3145.808	3999
3147.6	4053
3149.392	3957
3151.183	3999
3152.975	3969
3154.765	3979
3156.553	3988
3158.344	3987
3160.132	4084
3161.922	3992
3163.71	3980
3165.497	4018
3167.285	4016
3169.071	3969
3170.858	3995
3172.645	4026
3174.429	4030
3176.214	4007
3177.998	3937
3179.783	3976
3181.568	4002
3183.351	3917
3185.133	3984
3186.915	3882
3188.698	3850
3190.481	3918
3192.261	3958
3194.042	4022
3195.822	3959
3197.601	4005
3199.381	3905
3201.161	4023
3202.939	3972
3204.717	3888
3206.495	3896
3208.272	3989
3210.05	3957
3211.826	3992
3213.602	3971
3215.376	3924
3217.151	3990
3218.927	4078
3220.702	3921
3222.476	3828
3224.249	3976
3226.021	3948
3227.793	4006
3229.567	3960
3231.339	3942
3233.109	3937
3234.88	3998
3236.651	3981
3238.421	3843
3240.191	3976
3241.96	3926
3243.728	3955
3245.497	3965
3247.263	3902
3249.033	3966
3250.799	3905
3252.566	3958
3254.331	3944
3256.097	3877
3257.863	3923
3259.628	3838
3261.392	3877
3263.156	3993
3264.919	3932
3266.683	3958
3268.447	3915
3270.208	3912
3271.969	3971
3273.731	3972
3275.492	3967
3277.253	3937
3279.013	3925
3280.773	3808
3282.532	3951
3284.291	3919
3286.05	3926
3287.808	3959
3289.566	3919
3291.323	3976
3293.079	3890
3294.835	3960
3296.593	3931
3298.348	3994
3300.102	4003
3301.857	3865
3303.611	3962
3305.366	3983
3307.119	3899
3308.872	3855
3310.624	3900
3312.376	3932
3314.129	3895
3315.881	3885
3317.631	3909
3319.38	3797
3321.13	3969
3322.88	3873
3324.631	3993
3326.379	3960
3328.126	3956
3329.875	3938
3331.622	3977
3333.371	3933
3335.116	3895
3336.863	3984
3338.609	3844
3340.353	3902
3342.1	3918
3343.845	3901
3345.588	3907
3347.332	3849
3349.074	3928
3350.817	3891
3352.56	3862
3354.303	3862
3356.043	3866
3357.785	3804
3359.525	3914
3361.268	3852
3363.007	3906
3364.745	3772
3366.485	3882
3368.223	3813
3369.962	3848
3371.701	3887
3373.438	3942
3375.174	3884
3376.911	3882
3378.647	3928
3380.384	3912
3382.118	3741
3383.854	3792
3385.588	3921
3387.322	3825
3389.057	3818
3390.79	3761
3392.522	3772
3394.255	3825
3395.987	3799
3397.719	3879
3399.451	3847
3401.181	3715
3402.911	3877
3404.641	3828
3406.371	3811
3408.101	3836
3409.83	3844
3411.558	3806
3413.285	3802
3415.011	3817
3416.739	3812
3418.467	3867
3420.193	3823
3421.919	3845
3423.644	3804
3425.368	3808
3427.094	3832
3428.818	3752
3430.542	3851
3432.264	3788
3433.987	3772
3435.712	3718
3437.434	3715
3439.155	3732
3440.876	3715
3442.596	3732
3444.317	3766
3446.039	3837
3447.757	3670
3449.477	3707
3451.195	3687
3452.914	3782
3454.632	3780
3456.35	3708
3458.067	3700
3459.784	3704
3461.5	3753
3463.216	3681
3464.932	3661
3466.647	3601
3468.362	3717
3470.076	3618
3471.789	3691
3473.505	3727
3475.217	3732
3476.929	3674
3478.641	3671
3480.354	3722
3482.066	3664
3483.777	3725
3485.487	3680
3487.197	3606
3488.908	3607
3490.617	3654
3492.327	3679
3494.035	3643
3495.743	3655
3497.451	3684
3499.158	3631
3500.866	3668
3502.572	3551
3504.278	3650
3505.984	3638
3507.689	3640
3509.396	3670
3511.1	3630
3512.804	3611
3514.508	3663
3516.211	3592
3517.913	3614
3519.616	3589
3521.319	3652
3523.021	3599
3524.722	3595
3526.422	3659
3528.124	3597
3529.824	3453
3531.524	3649
3533.222	3564
3534.921	3614
3536.62	3559
3538.318	3592
3540.016	3535
3541.714	3507
3543.41	3564
3545.107	3576
3546.803	3535
3548.5	3518
3550.194	3609
3551.889	3509
3553.583	3486
3555.279	3553
3556.972	3464
3558.666	3552
3560.358	3533
3562.051	3579
3563.742	3528
3565.435	3507
3567.126	3555
3568.817	3542
3570.507	3605
3572.197	3465
3573.888	3518
3575.577	3502
3577.265	3484
3578.954	3508
3580.642	3438
3582.329	3505
3584.017	3525
3585.704	3498
3587.391	3526
3589.077	3555
3590.762	3442
3592.449	3526
3594.133	3521
3595.817	3412
3597.501	3479
3599.185	3452
3600.869	3437
3602.552	3475
3604.234	3446
3605.916	3522
3607.598	3424
3609.279	3424
3610.961	3472
3612.642	3402
3614.321	3379
3616	3395
3617.68	3455
3619.36	3371
3621.039	3443
3622.716	3428
3624.394	3374
3626.071	3396
3627.748	3418
3629.425	3398
3631.102	3354
3632.778	3377
3634.452	3407
3636.127	3394
3637.803	3437
3639.477	3439
3641.151	3383
3642.823	3288
3644.497	3437
3646.171	3262
3647.842	3371
3649.515	3277
3651.185	3372
3652.857	3380
3654.527	3338
3656.198	3360
3657.868	3270
3659.537	3304
3661.207	3379
3662.875	3290
3664.544	3297
3666.212	3259
3667.879	3334
3669.546	3277
3671.212	3315
3672.88	3300
3674.546	3270
3676.211	3410
3677.875	3234
3679.541	3398
3681.205	3238
3682.87	3367
3684.533	3324
3686.196	3264
3687.859	3359
3689.521	3332
3691.184	3313
3692.845	3306
3694.507	3261
3696.167	3297
3697.827	3324
3699.487	3235
3701.148	3220
3702.808	3299
3704.466	3221
3706.125	3313
3707.783	3276
3709.442	3239
3711.099	3242
3712.757	3322
3714.412	3201
3716.068	3243
3717.725	3176
3719.381	3187
3721.036	3233
3722.689	3268
3724.344	3278
3725.998	3240
3727.652	3205
3729.305	3259
3730.958	3258
3732.61	3356
3734.262	3270
3735.915	3197
3737.565	3263
3739.217	3242
3740.866	3215
3742.516	3170
3744.165	3236
3745.816	3219
3747.464	3303
3749.113	3228
3750.761	3225
3752.409	3205
3754.057	3267
3755.703	3188
3757.35	3223
3758.996	3215
3760.641	3158
3762.289	3233
3763.933	3156
3765.577	3199
3767.222	3156
3768.865	3187
3770.508	3153
3772.152	3110
3773.796	3198
3775.438	3249
3777.079	3125
3778.721	3146
3780.363	3136
3782.003	3148
3783.643	3171
3785.283	3197
3786.923	3227
3788.563	3126
3790.203	3123
3791.841	3117
3793.479	3113
3795.115	3150
3796.753	3115
3798.391	3105
3800.027	3129
3801.664	3076
3803.299	3163
3804.935	3117
3806.571	3074
3808.206	3074
3809.839	3142
3811.473	3043
3813.107	3120
3814.74	3130
3816.375	3139
3818.006	3128
3819.638	3053
3821.27	3161
3822.9	3123
3824.532	3016
3826.163	3090
3827.792	3154
3829.423	3103
3831.051	3127
3832.682	3049
3834.311	3062
3835.938	3116
3837.566	3055
3839.193	3056
3840.821	3108
3842.448	3132
3844.075	3003
3845.7	3004
3847.325	3148
3848.951	3068
3850.576	3155
3852.201	3068
3853.825	3046
3855.448	3124
3857.072	3024
3858.694	3078
3860.318	3026
3861.939	3040
3863.562	3087
3865.183	3015
3866.804	3031
3868.426	3023
3870.045	3009
3871.666	3055
3873.285	3105
3874.904	2964
3876.524	2924
3878.142	2961
3879.76	3101
3881.378	2970
3882.995	3033
3884.612	3014
3886.229	3015
3887.845	3045
3889.461	2948
3891.076	3056
3892.691	3031
3894.307	2998
3895.922	3041
3897.536	2989
3899.149	3026
3900.761	3015
3902.374	2997
3903.988	2984
3905.6	3023
3907.212	3071
3908.822	2986
3910.433	2975
3912.045	2948
3913.655	3043
3915.265	3015
3916.875	2992
3918.483	2924
3920.093	2960
3921.702	3002
3923.309	2933
3924.917	2936
3926.523	2930
3928.13	2934
3929.739	2998
3931.344	2986
3932.95	2980
3934.555	2986
3936.159	2971
3937.766	2919
3939.369	2937
3940.974	2902
3942.577	2977
3944.181	2994
3945.783	2998
3947.386	2938
3948.989	2993
3950.59	2907
3952.191	2930
3953.791	2916
3955.394	2880
3956.994	3004
3958.593	2989
3960.192	3019
3961.791	2893
3963.392	3000
3964.99	2907
3966.588	2993
3968.185	2982
3969.782	2940
3971.379	2946
3972.976	2892
3974.572	2885
3976.168	2909
3977.763	2922
3979.358	2920
3980.954	2933
3982.548	2865
3984.142	2927
3985.736	2874
3987.329	2876
3988.922	2850
3990.516	2846
3992.108	2917
3993.698	2903
3995.29	2879
3996.881	2851
3998.473	2972
4000.064	2895
4001.653	2845
4003.242	2796
4004.832	2815
4006.422	2863
4008.01	2822
4009.598	2847
4011.186	2817
4012.773	2826
4014.36	2860
4015.947	2799
4017.534	2782
4019.119	2822
4020.705	2805
4022.291	2874
4023.876	2841
4025.461	2911
4027.044	2875
4028.627	2829
4030.211	2785
4031.795	2760
4033.378	2755
4034.96	2813
4036.542	2821
4038.124	2853
4039.704	2792
4041.286	2744
4042.867	2785
4044.447	2760
4046.026	2797
4047.606	2799
4049.187	2718
4050.765	2766
4052.343	2744
4053.92	2731
4055.498	2764
4057.076	2760
4058.654	2828
4060.23	2703
4061.806	2714
4063.381	2724
4064.957	2771
4066.533	2705
4068.107	2730
4069.682	2765
4071.256	2778
4072.829	2691
4074.404	2731
4075.977	2733
4077.549	2730
4079.121	2762
4080.693	2753
4082.265	2738
4083.836	2654
4085.407	2721
4086.977	2736
4088.547	2735
4090.117	2759
4091.687	2722
4093.256	2751
4094.825	2729
4096.392	2731
4097.96	2691
4099.528	2748
4101.097	2790
4102.663	2714
4104.229	2666
4105.795	2687
4107.361	2728
4108.928	2682
4110.493	2667
4112.058	2687
4113.621	2647
4115.186	2727
4116.75	2688
4118.313	2705
4119.876	2690
4121.438	2727
4123	2653
4124.562	2649
4126.125	2692
4127.686	2629
4129.246	2651
4130.807	2655
4132.367	2651
4133.927	2614
4135.486	2633
4137.046	2634
4138.604	2612
4140.162	2623
4141.72	2673
4143.279	2578
4144.836	2644
4146.393	2661
4147.949	2695
4149.505	2613
4151.062	2617
4152.617	2583
4154.172	2660
4155.727	2610
4157.281	2533
4158.836	2616
4160.39	2592
4161.943	2597
4163.496	2580
4165.048	2549
4166.601	2605
4168.154	2571
4169.706	2598
4171.257	2583
4172.808	2639
4174.358	2556
4175.909	2651
4177.458	2548
4179.008	2611
4180.558	2619
4182.106	2524
4183.655	2499
4185.204	2527
4186.751	2587
4188.298	2552
4189.845	2498
4191.392	2532
4192.939	2568
4194.485	2539
4196.031	2565
4197.576	2506
4199.121	2593
4200.666	2497
4202.211	2512
4203.754	2554
4205.298	2471
4206.84	2529
4208.384	2530
4209.927	2558
4211.47	2536
4213.011	2557
4214.552	2543
4216.094	2557
4217.635	2525
4219.175	2545
4220.716	2542
4222.255	2499
4223.793	2553
4225.335	2468
4226.873	2508
4228.411	2447
4229.948	2527
4231.486	2454
4233.024	2451
4234.562	2566
4236.098	2520
4237.634	2538
4239.169	2501
4240.705	2445
4242.241	2503
4243.776	2505
4245.31	2482
4246.844	2480
4248.378	2618
4249.911	2446
4251.445	2457
4252.978	2429
4254.51	2428
4256.042	2418
4257.574	2497
4259.107	2509
4260.638	2516
4262.169	2484
4263.699	2468
4265.228	2472
4266.759	2476
4268.289	2442
4269.818	2521
4271.345	2488
4272.874	2418
4274.402	2459
4275.931	2522
4277.458	2447
4278.985	2460
4280.512	2485
4282.037	2453
4283.564	2426
4285.089	2448
4286.615	2504
4288.139	2441
4289.664	2443
4291.187	2359
4292.712	2501
4294.235	2412
4295.759	2402
4297.281	2422
4298.804	2386
4300.327	2452
4301.849	2422
4303.37	2396
4304.891	2457
4306.412	2417
4307.933	2417
4309.453	2439
4310.973	2374
4312.492	2458
