398.1873	2600
400.7097	2608
403.2336	2573
405.7547	2596
408.2751	2658
410.7948	2657
413.3138	2591
415.83	2649
418.3497	2691
420.8666	2687
423.3829	2653
425.8985	2767
428.4133	2727
430.9275	2711
433.441	2745
435.9538	2675
438.4639	2786
440.9753	2681
443.4881	2743
445.9982	2722
448.5055	2786
451.0142	2798
453.5201	2771
456.0274	2743
458.5361	2739
461.04	2771
463.5453	2688
466.0478	2736
468.5517	2731
471.0549	2693
473.5574	2797
476.0572	2764
478.5584	2811
481.0568	2684
483.5545	2803
486.0557	2786
488.5521	2796
491.0478	2817
493.5449	2786
496.0392	2845
498.5349	2867
501.0299	2860
503.5222	2870
506.0139	2805
508.5048	2832
510.9991	2830
513.4887	2827
515.9777	2888
518.4659	2812
520.9534	2830
523.4403	2829
525.9306	2832
528.4161	2873
530.9009	2830
533.3851	2899
535.8687	2817
538.3535	2822
540.8356	2842
543.3171	2889
545.7979	2786
548.278	2782
550.7595	2835
553.2383	2903
555.7144	2929
558.1918	2889
560.6685	2923
563.1446	2870
565.6221	2881
568.0968	2882
570.5688	2907
573.0422	2966
575.515	2941
577.989	2913
580.4584	2892
582.9291	3006
585.3991	2974
587.8685	2934
590.3352	2927
592.8052	2943
595.2706	2948
597.7372	2948
600.2033	2965
602.6666	2906
605.1334	2901
607.5953	2957
610.0587	2870
612.5193	2993
614.9814	2935
617.4427	2978
619.9034	2847
622.3615	2919
624.8208	2988
627.2775	2941
629.7335	2921
632.1929	2887
634.6476	2904
637.1016	2957
639.5569	2954
642.0096	2920
644.4637	2949
646.9151	2971
649.3678	2997
651.8179	2989
654.2672	2926
656.7159	2992
659.166	2956
661.6154	2980
664.0622	2977
666.5082	2959
668.9537	2999
671.4005	2981
673.8445	2980
676.288	2942
678.7308	2990
681.1729	3087
683.6163	2980
686.0572	3068
688.4973	3012
690.9368	3059
693.3757	3011
695.8138	3026
698.2534	3097
700.6902	3107
703.1245	3037
705.56	2999
707.9949	3059
710.4311	3069
712.8647	3078
715.2957	3048
717.7279	3070
720.1595	3069
722.5905	3135
725.0208	3068
727.4505	3066
729.8795	3068
732.3058	3101
734.7336	3109
737.1626	3172
739.587	3205
742.0128	3118
744.4359	3164
746.8604	3203
749.2841	3227
751.7073	3212
754.1278	3209
756.5496	3169
758.9688	3211
761.3893	3207
763.8093	3230
766.2285	3206
768.6451	3235
771.0611	3211
773.4784	3241
775.895	3249
778.3091	3254
780.7244	3173
783.1371	3288
785.5493	3241
787.9626	3196
790.3754	3146
792.7856	3253
795.1951	3196
797.6039	3159
800.0121	3205
802.4236	3278
804.8306	3320
807.2369	3290
809.6425	3248
812.0475	3278
814.4538	3207
816.8575	3258
819.2606	3231
821.663	3268
824.0648	3275
826.4659	3287
828.8683	3205
831.2682	3283
833.6674	3317
836.066	3342
838.4639	3318
840.8632	3296
843.2579	3238
845.6539	3318
848.0493	3248
850.444	3366
852.84	3243
855.2315	3291
857.6243	3366
860.0165	3286
862.4081	3323
864.797	3294
867.1892	3390
869.5789	3344
871.9659	3253
874.3542	3329
876.74	3248
879.129	3317
881.5155	3324
883.8994	3259
886.2845	3326
888.6671	3352
891.051	3314
893.4343	3269
895.8169	3305
898.197	3291
900.5783	3284
902.9571	3335
905.3372	3320
907.7167	3233
910.0936	3341
912.4698	3302
914.8474	3365
917.2244	3390
919.5987	3426
921.9744	3438
924.3475	3416
926.72	3388
929.0918	3488
931.4669	3509
933.8375	3486
936.2074	3414
938.5767	3494
940.9454	3484
943.3154	3627
945.6829	3566
948.0497	3636
950.4178	3683
952.7833	3870
955.1483	3874
957.5145	4000
959.8782	3964
962.2412	4040
964.6036	3892
966.9655	3814
969.3266	3626
971.6871	3722
974.0471	3563
976.4064	3491
978.765	3503
981.125	3394
983.4824	3458
985.8373	3354
988.1935	3492
990.549	3409
992.9039	3364
995.2602	3414
997.6119	3398
999.965	3464
1002.317	3347
1004.667	3467
1007.02	3437
1009.371	3391
1011.719	3415
1014.068	3478
1016.415	3414
1018.765	3463
1021.111	3408
1023.458	3483
1025.804	3432
1028.147	3543
1030.49	3409
1032.837	3561
1035.179	3431
1037.522	3463
1039.862	3535
1042.204	3504
1044.546	3469
1046.884	3502
1049.224	3480
1051.562	3515
1053.899	3487
1056.237	3470
1058.575	3501
1060.91	3503
1063.244	3512
1065.58	3520
1067.913	3582
1070.248	3581
1072.579	3564
1074.911	3607
1077.242	3585
1079.572	3536
1081.905	3557
1084.234	3537
1086.562	3506
1088.89	3487
1091.217	3503
1093.544	3527
1095.871	3553
1098.197	3506
1100.521	3545
1102.845	3543
1105.169	3586
1107.491	3547
1109.814	3581
1112.135	3503
1114.456	3575
1116.776	3553
1119.096	3523
1121.415	3534
1123.734	3509
1126.052	3553
1128.369	3531
1130.686	3561
1133.002	3547
1135.318	3500
1137.632	3588
1139.945	3541
1142.258	3545
1144.573	3466
1146.884	3597
1149.196	3489
1151.505	3570
1153.816	3562
1156.124	3612
1158.435	3522
1160.742	3527
1163.051	3490
1165.356	3506
1167.663	3586
1169.97	3528
1172.276	3636
1174.579	3554
1176.881	3545
1179.186	3687
1181.487	3478
1183.79	3539
1186.092	3648
1188.392	3554
1190.691	3563
1192.991	3507
1195.291	3541
1197.588	3553
1199.885	3581
1202.181	3526
1204.479	3573
1206.775	3544
1209.07	3574
1211.363	3570
1213.656	3605
1215.949	3559
1218.241	3609
1220.534	3624
1222.825	3659
1225.115	3652
1227.405	3547
1229.693	3647
1231.984	3610
1234.271	3639
1236.558	3701
1238.845	3635
1241.131	3660
1243.416	3616
1245.703	3747
1247.987	3751
1250.269	3686
1252.552	3660
1254.834	3732
1257.118	3725
1259.399	3662
1261.678	3770
1263.958	3701
1266.237	3592
1268.516	3667
1270.794	3620
1273.072	3637
1275.347	3701
1277.624	3697
1279.899	3716
1282.175	3768
1284.449	3695
1286.722	3704
1288.995	3644
1291.266	3654
1293.54	3733
1295.81	3611
1298.081	3632
1300.35	3590
1302.62	3683
1304.889	3643
1307.156	3659
1309.425	3670
1311.69	3647
1313.957	3693
1316.222	3650
1318.488	3597
1320.751	3579
1323.016	3594
1325.278	3748
1327.54	3723
1329.803	3724
1332.065	3634
1334.325	3649
1336.584	3684
1338.843	3734
1341.101	3654
1343.36	3689
1345.617	3679
1347.876	3744
1350.131	3675
1352.387	3669
1354.643	3701
1356.897	3741
1359.151	3657
1361.403	3593
1363.656	3694
1365.909	3671
1368.16	3698
1370.409	3736
1372.659	3733
1374.909	3671
1377.157	3681
1379.407	3696
1381.655	3767
1383.9	3721
1386.147	3710
1388.393	3788
1390.64	3733
1392.885	3725
1395.127	3734
1397.37	3779
1399.614	3756
1401.854	3720
1404.098	3756
1406.339	3777
1408.578	3763
1410.818	3713
1413.056	3790
1415.297	3783
1417.533	3857
1419.771	3732
1422.006	3742
1424.243	3809
1426.479	3738
1428.715	3762
1430.948	3804
1433.182	3849
1435.414	3778
1437.647	3802
1439.88	3814
1442.11	3779
1444.342	3836
1446.571	3742
1448.799	3844
1451.029	3981
1453.258	3852
1455.485	3846
1457.711	3797
1459.937	3959
1462.164	3870
1464.39	3896
1466.614	3756
1468.838	3803
1471.06	3780
1473.283	3819
1475.506	3708
1477.727	3719
1479.949	3788
1482.169	3783
1484.389	3729
1486.609	3811
1488.828	3714
1491.045	3773
1493.261	3686
1495.477	3841
1497.693	3793
1499.91	3734
1502.125	3680
1504.339	3727
1506.553	3737
1508.766	3667
1510.979	3753
1513.191	3789
1515.402	3701
1517.613	3701
1519.823	3737
1522.033	3734
1524.242	3688
1526.451	3643
1528.657	3711
1530.865	3721
1533.072	3788
1535.278	3709
1537.484	3792
1539.687	3666
1541.892	3730
1544.096	3695
1546.299	3828
1548.502	3744
1550.703	3725
1552.905	3722
1555.104	3706
1557.303	3745
1559.505	3793
1561.703	3783
1563.902	3872
1566.099	3819
1568.295	3910
1570.494	3771
1572.689	3884
1574.883	3857
1577.079	3794
1579.272	3787
1581.467	3838
1583.659	3844
1585.853	3908
1588.044	3848
1590.234	3887
1592.424	3883
1594.615	3845
1596.806	3795
1598.994	3860
1601.182	3841
1603.369	3854
1605.557	3816
1607.744	3941
1609.929	3866
1612.114	3933
1614.298	3848
1616.482	3843
1618.667	3867
1620.85	3804
1623.032	3832
1625.214	3894
1627.395	3844
1629.575	3942
1631.755	3865
1633.935	3859
1636.114	3861
1638.292	3876
1640.471	3926
1642.647	3922
1644.823	3896
1647	3936
1649.175	3879
1651.348	3911
1653.525	3997
1655.698	3976
1657.87	3971
1660.043	3871
1662.213	3962
1664.387	4002
1666.558	3919
1668.727	3922
1670.896	4042
1673.064	3970
1675.233	3982
1677.401	3991
1679.569	3919
1681.735	3930
1683.902	3939
1686.066	3911
1688.233	3868
1690.397	3915
1692.559	3877
1694.723	3939
1696.885	3981
1699.048	3955
1701.21	3934
1703.37	3914
1705.53	3899
1707.689	3939
1709.849	3842
1712.009	3920
1714.166	3940
1716.323	3812
1718.479	3835
1720.634	3824
1722.793	3934
1724.948	3940
1727.102	3934
1729.255	3930
1731.408	3778
1733.562	3880
1735.714	3827
1737.865	3881
1740.016	3903
1742.166	3855
1744.316	3951
1746.467	3941
1748.616	3956
1750.764	3883
1752.911	3894
1755.056	3924
1757.205	3927
1759.35	3912
1761.496	3966
1763.641	3916
1765.785	3893
1767.927	3981
1770.072	3870
1772.214	3952
1774.355	4000
1776.496	3946
1778.637	4001
1780.778	3887
1782.918	3940
1785.057	3998
1787.194	3913
1789.333	3984
1791.472	3923
1793.608	4007
1795.745	3955
1797.879	3958
1800.015	3928
1802.148	3980
1804.284	3937
1806.417	3978
1808.548	4039
1810.682	3865
1812.812	4039
1814.946	4009
1817.075	4002
1819.205	3933
1821.335	4049
1823.463	3976
1825.59	3949
1827.721	3970
1829.847	3929
1831.973	3919
1834.098	3965
1836.223	3957
1838.351	3991
1840.475	3907
1842.598	3910
1844.721	3979
1846.843	3897
1848.966	3973
1851.087	3901
1853.21	3962
1855.33	3955
1857.449	3907
1859.568	3933
1861.688	3983
1863.806	4003
1865.924	4053
1868.039	3964
1870.155	3941
1872.273	3893
1874.388	4030
1876.503	3892
1878.617	4012
1880.73	3942
1882.844	4022
1884.956	3923
1887.068	3974
1889.18	3877
1891.291	4007
1893.4	3981
1895.511	3939
1897.621	4103
1899.73	3952
1901.837	4017
1903.944	4044
1906.053	3973
1908.159	3963
1910.265	4007
1912.369	4033
1914.474	4033
1916.577	4074
1918.683	3956
1920.785	4045
1922.888	4029
1924.989	3940
1927.091	3975
1929.193	4059
1931.294	4090
1933.393	4032
1935.493	3983
1937.59	4044
1939.689	3943
1941.788	3984
1943.884	4043
1945.98	4082
1948.077	4063
1950.171	4035
1952.267	3917
1954.361	4007
1956.455	4018
1958.548	4104
1960.64	4103
1962.733	4039
1964.824	4070
1966.915	4056
1969.005	3953
1971.096	4035
1973.185	3983
1975.275	3933
1977.363	4077
1979.45	4039
1981.537	4077
1983.623	4056
1985.711	4000
1987.796	4078
1989.881	3951
1991.965	3977
1994.047	3981
1996.132	4022
1998.215	4043
2000.297	3990
2002.378	4021
2004.46	3971
2006.54	3995
2008.62	4000
2010.7	4001
2012.779	4058
2014.858	3968
2016.934	4003
2019.013	4046
2021.09	4075
2023.165	3979
2025.241	4020
2027.317	4014
2029.39	4016
2031.466	3912
2033.538	4059
2035.612	3993
2037.683	3992
2039.755	4019
2041.827	4006
2043.898	3954
2045.968	4064
2048.038	4018
2050.106	4026
2052.177	3942
2054.244	4105
2056.313	4049
2058.379	3929
2060.444	4071
2062.511	4014
2064.577	4061
2066.641	4071
2068.705	4000
2070.77	4147
2072.832	4065
2074.896	4001
2076.958	4061
2079.02	4059
2081.081	4112
2083.141	4085
2085.2	3940
2087.261	4067
2089.319	4095
2091.377	4025
2093.435	4030
2095.492	4131
2097.552	3974
2099.607	3980
2101.663	4066
2103.718	4029
2105.771	4038
2107.826	4116
2109.879	4041
2111.932	4071
2113.985	4013
2116.037	4164
2118.088	4078
2120.141	3978
2122.191	4084
2124.239	4033
2126.288	4104
2128.337	4067
2130.387	4026
2132.434	4084
2134.481	3916
2136.528	4047
2138.574	4087
2140.618	4011
2142.665	4045
2144.71	4029
2146.753	3984
2148.797	3992
2150.838	4126
2152.883	3971
2154.923	4064
2156.965	4023
2159.007	4152
2161.046	3979
2163.086	4031
2165.126	4051
2167.163	4060
2169.202	4054
2171.239	4011
2173.277	4064
2175.314	3931
2177.349	4000
2179.385	4005
2181.42	4134
2183.453	4080
2185.49	4054
2187.522	3925
2189.555	4034
2191.586	3991
2193.619	3935
2195.651	3982
2197.682	4001
2199.711	3974
2201.74	4000
2203.769	3994
2205.799	3992
2207.828	3950
2209.855	4022
2211.882	3915
2213.908	3999
2215.934	3964
2217.961	3992
2219.986	3935
2222.01	3943
2224.034	4017
2226.057	3885
2228.08	4060
2230.104	3974
2232.124	4096
2234.145	3950
2236.166	3893
2238.186	4004
2240.207	4005
2242.227	3992
2244.244	3970
2246.262	3900
2248.28	4004
2250.299	3994
2252.314	3966
2254.33	3935
2256.346	4068
2258.36	3951
2260.375	3976
2262.391	3921
2264.403	4012
2266.416	4050
2268.427	3942
2270.44	4014
2272.453	4018
2274.463	3992
2276.474	3970
2278.483	3934
2280.493	3961
2282.501	4023
2284.51	4035
2286.518	4041
2288.524	3917
2290.532	3995
2292.537	4020
2294.544	4010
2296.55	4034
2298.554	4064
2300.557	4042
2302.562	4032
2304.566	4029
2306.568	4061
2308.569	4076
2310.572	4024
2312.573	3972
2314.573	3989
2316.574	3980
2318.573	3995
2320.571	3966
2322.571	3991
2324.569	3895
2326.567	4103
2328.564	4005
2330.56	3980
2332.556	3954
2334.551	3955
2336.546	3992
2338.542	3919
2340.535	3975
2342.529	3952
2344.521	3930
2346.512	4011
2348.505	3926
2350.497	3902
2352.487	4018
2354.478	3934
2356.468	3891
2358.457	3868
2360.446	3862
2362.434	3989
2364.422	3957
2366.408	3914
2368.395	3939
2370.383	3913
2372.369	3877
2374.353	3971
2376.338	3860
2378.321	3879
2380.307	4005
2382.29	3912
2384.272	3981
2386.254	3891
2388.235	3923
2390.218	3945
2392.198	3836
2394.179	3862
2396.157	3929
2398.137	3975
2400.115	3858
2402.095	3905
2404.072	3929
2406.048	3868
2408.026	3881
2410.001	3841
2411.977	3861
2413.953	3887
2415.927	3926
2417.9	3923
2419.875	3840
2421.847	3888
2423.821	3806
2425.792	3865
2427.763	3944
2429.736	3887
2431.706	3995
2433.677	3845
2435.646	3890
2437.615	3940
2439.583	3901
2441.551	3928
2443.519	3871
2445.486	3988
2447.452	3912
2449.418	3897
2451.383	3924
2453.348	3877
2455.314	3898
2457.278	3878
2459.241	3844
2461.205	3944
2463.167	3793
2465.131	3959
2467.091	3852
2469.052	3843
2471.012	3891
2472.972	3877
2474.932	3896
2476.891	3920
2478.85	3873
2480.808	3868
2482.766	3955
2484.722	3874
2486.68	3916
2488.636	3813
2490.591	3874
2492.546	3814
2494.5	3920
2496.456	3857
2498.41	3739
2500.362	3793
2502.315	3803
2504.266	3865
2506.218	3827
2508.169	3828
2510.121	3838
2512.07	3917
2514.019	3851
2515.968	3855
2517.918	3781
2519.866	3874
2521.813	3866
2523.76	3826
2525.707	3891
2527.653	3818
2529.599	3830
2531.543	3910
2533.489	3807
2535.433	3879
2537.376	3825
2539.32	3858
2541.264	3856
2543.205	3786
2545.147	3883
2547.087	3809
2549.029	3825
2550.969	3878
2552.908	3807
2554.847	3866
2556.786	3860
2558.724	3811
2560.663	3895
2562.6	3926
2564.537	3851
2566.473	3845
2568.408	3744
2570.345	3862
2572.28	3844
2574.214	3861
2576.148	3832
2578.081	3803
2580.014	3862
2581.947	3839
2583.879	3907
2585.81	3827
2587.741	3865
2589.67	3865
2591.602	3906
2593.532	3878
2595.461	3798
2597.388	3789
2599.316	3767
2601.244	3813
2603.172	3870
2605.098	4027
2607.023	3797
2608.949	3957
2610.873	3748
2612.8	3875
2614.723	3989
2616.647	3840
2618.569	3897
2620.493	3902
2622.416	3951
2624.338	3872
2626.258	3922
2628.179	4018
2630.099	3850
2632.019	3848
2633.939	3959
2635.857	3898
2637.775	3846
2639.694	3913
2641.61	3863
2643.528	3954
2645.444	3860
2647.361	3899
2649.276	3903
2651.19	3815
2653.105	3834
2655.019	3839
2656.934	3869
2658.846	3926
2660.758	3851
2662.67	3818
2664.583	3803
2666.493	3937
2668.404	3891
2670.313	3880
2672.223	3997
2674.134	3836
2676.042	3851
2677.95	3812
2679.858	3737
2681.765	3858
2683.673	3813
2685.579	3838
2687.483	3846
2689.389	3871
2691.294	3865
2693.198	3775
2695.104	3917
2697.006	3931
2698.909	3853
2700.811	3844
2702.713	3826
2704.615	3911
2706.516	3864
2708.417	3904
2710.316	3822
2712.216	3789
2714.115	3804
2716.014	3875
2717.913	3895
2719.81	3765
2721.707	3847
2723.603	3857
2725.501	3877
2727.396	3792
2729.292	3833
2731.186	3801
2733.081	3905
2734.976	3830
2736.87	3891
2738.762	3832
2740.653	3762
2742.546	3777
2744.437	3821
2746.329	3822
2748.22	3849
2750.11	3857
2751.999	3804
2753.889	3838
2755.778	3849
2757.666	3879
2759.553	3811
2761.44	3815
2763.328	3864
2765.215	3917
2767.101	3806
2768.986	3811
2770.87	3814
2772.754	3837
2774.638	3761
2776.523	3763
2778.405	3755
2780.288	3852
2782.17	3806
2784.051	3849
2785.934	3764
2787.814	3869
2789.694	3774
2791.574	3747
2793.453	3881
2795.332	3815
2797.212	3768
2799.088	3769
2800.966	3757
2802.843	3806
2804.719	3716
2806.597	3805
2808.471	3770
2810.346	3897
2812.221	3731
2814.094	3805
2815.969	3748
2817.843	3714
2819.714	3728
2821.587	3786
2823.459	3817
2825.329	3784
2827.202	3851
2829.072	3802
2830.942	3753
2832.811	3662
2834.68	3759
2836.549	3761
2838.418	3740
2840.284	3820
2842.152	3766
2844.018	3774
2845.885	3857
2847.751	3810
2849.616	3878
2851.482	3774
2853.345	3872
2855.208	3829
2857.074	3899
2858.937	3840
2860.799	3793
2862.66	3719
2864.522	3848
2866.385	3859
2868.245	3870
2870.104	3859
2871.964	3905
2873.824	3852
2875.683	3931
2877.542	3904
2879.4	3976
2881.257	4019
2883.114	3948
2884.97	4043
2886.827	4000
2888.683	3922
2890.537	3995
2892.392	4003
2894.246	3956
2896.1	4059
2897.954	4082
2899.807	3994
2901.66	4015
2903.51	3914
2905.362	3946
2907.214	3955
2909.065	3934
2910.915	4008
2912.765	3982
2914.613	3954
2916.463	4007
2918.311	4127
2920.158	4054
2922.006	4060
2923.853	4099
2925.698	4067
2927.546	4137
2929.392	4186
2931.236	4191
2933.081	4132
2934.924	4129
2936.77	4249
2938.613	4204
2940.455	4285
2942.298	4238
2944.139	4233
2945.982	4279
2947.823	4228
2949.662	4166
2951.503	4231
2953.342	4145
2955.182	4277
2957.021	4208
2958.858	4169
2960.697	4090
2962.534	4093
2964.37	4084
2966.207	4113
2968.044	4056
2969.879	4115
2971.714	4075
2973.548	4007
2975.383	3919
2977.218	3981
2979.051	4005
2980.883	4007
2982.715	3976
2984.547	3959
2986.379	3950
2988.21	3940
2990.04	3882
2991.87	3890
2993.7	3874
2995.53	3883
2997.359	3871
2999.187	3829
3001.015	3821
3002.842	3806
3004.669	3826
3006.497	3783
3008.323	3796
3010.148	3678
3011.974	3711
3013.797	3812
3015.623	3712
3017.447	3707
3019.27	3614
3021.094	3696
3022.915	3722
3024.737	3708
3026.56	3645
3028.38	3712
3030.201	3621
3032.022	3601
3033.84	3728
3035.662	3680
3037.481	3574
3039.298	3598
3041.117	3705
3042.933	3697
3044.752	3695
3046.568	3621
3048.385	3690
3050.2	3660
3052.016	3600
3053.83	3638
3055.646	3707
3057.46	3570
3059.272	3656
3061.086	3590
3062.898	3736
3064.711	3625
3066.524	3592
3068.335	3655
3070.145	3623
3071.956	3610
3073.766	3655
3075.576	3623
3077.385	3533
3079.193	3576
3081.002	3667
3082.81	3547
3084.618	3544
3086.425	3571
3088.231	3607
3090.036	3571
3091.842	3548
3093.648	3501
3095.452	3599
3097.257	3515
3099.06	3661
3100.863	3515
3102.666	3515
3104.47	3489
3106.272	3591
3108.073	3518
3109.875	3477
3111.676	3518
3113.477	3543
3115.277	3511
3117.077	3513
3118.874	3414
3120.673	3506
3122.473	3562
3124.271	3563
3126.066	3525
3127.863	3462
3129.66	3588
3131.456	3448
3133.252	3467
3135.047	3524
3136.842	3478
3138.635	3518
3140.429	3509
3142.223	3453
3144.016	3434
3145.808	3409
3147.6	3442
3149.392	3526
3151.183	3441
3152.975	3457
3154.765	3531
3156.553	3424
3158.344	3519
3160.132	3515
3161.922	3473
3163.71	3455
3165.497	3469
3167.285	3404
3169.071	3433
3170.858	3404
3172.645	3403
3174.429	3444
3176.214	3418
3177.998	3489
3179.783	3374
3181.568	3445
3183.351	3458
3185.133	3409
3186.915	3395
3188.698	3526
3190.481	3404
3192.261	3459
3194.042	3485
3195.822	3518
3197.601	3484
3199.381	3377
3201.161	3502
3202.939	3357
3204.717	3447
3206.495	3404
3208.272	3420
3210.05	3436
3211.826	3411
3213.602	3400
3215.376	3435
3217.151	3437
3218.927	3399
3220.702	3482
3222.476	3434
3224.249	3458
3226.021	3425
3227.793	3439
3229.567	3410
3231.339	3375
3233.109	3403
3234.88	3468
3236.651	3421
3238.421	3384
3240.191	3426
3241.96	3469
3243.728	3428
3245.497	3398
3247.263	3386
3249.033	3443
3250.799	3394
3252.566	3355
3254.331	3374
3256.097	3336
3257.863	3369
3259.628	3369
3261.392	3383
3263.156	3519
3264.919	3412
3266.683	3459
3268.447	3426
3270.208	3451
3271.969	3369
3273.731	3398
3275.492	3379
3277.253	3394
3279.013	3387
3280.773	3326
3282.532	3458
3284.291	3409
3286.05	3402
3287.808	3391
3289.566	3411
3291.323	3437
3293.079	3383
3294.835	3395
3296.593	3382
3298.348	3369
3300.102	3392
3301.857	3415
3303.611	3411
3305.366	3390
3307.119	3327
3308.872	3436
3310.624	3405
3312.376	3403
3314.129	3422
3315.881	3392
3317.631	3400
3319.38	3361
3321.13	3422
3322.88	3296
3324.631	3404
3326.379	3358
3328.126	3462
3329.875	3325
3331.622	3385
3333.371	3336
3335.116	3348
3336.863	3450
3338.609	3450
3340.353	3347
3342.1	3429
3343.845	3370
3345.588	3297
3347.332	3325
3349.074	3358
3350.817	3433
3352.56	3321
3354.303	3361
3356.043	3429
3357.785	3396
3359.525	3348
3361.268	3349
3363.007	3338
3364.745	3276
3366.485	3288
3368.223	3436
3369.962	3383
3371.701	3398
3373.438	3348
3375.174	3363
3376.911	3338
3378.647	3289
3380.384	3319
3382.118	3290
3383.854	3324
3385.588	3304
3387.322	3327
3389.057	3385
3390.79	3397
3392.522	3268
3394.255	3316
3395.987	3294
3397.719	3217
3399.451	3344
3401.181	3290
3402.911	3382
3404.641	3318
3406.371	3239
3408.101	3251
3409.83	3264
3411.558	3329
3413.285	3278
3415.011	3290
3416.739	3308
3418.467	3378
3420.193	3367
3421.919	3210
3423.644	3259
3425.368	3351
3427.094	3310
3428.818	3186
3430.542	3303
3432.264	3298
3433.987	3279
3435.712	3188
3437.434	3283
3439.155	3168
3440.876	3264
3442.596	3197
3444.317	3283
3446.039	3192
3447.757	3279
3449.477	3224
3451.195	3257
3452.914	3175
3454.632	3247
3456.35	3212
3458.067	3266
3459.784	3251
3461.5	3212
3463.216	3117
3464.932	3184
3466.647	3199
3468.362	3197
3470.076	3248
3471.789	3209
3473.505	3270
3475.217	3192
3476.929	3224
3478.641	3130
3480.354	3190
3482.066	3110
3483.777	3203
3485.487	3103
3487.197	3182
3488.908	3161
3490.617	3132
3492.327	3173
3494.035	3217
3495.743	3158
3497.451	3145
3499.158	3174
3500.866	3139
3502.572	3103
3504.278	3147
3505.984	3180
3507.689	3129
3509.396	3204
3511.1	3049
3512.804	3134
3514.508	3155
3516.211	3106
3517.913	3135
3519.616	3145
3521.319	3131
3523.021	3125
3524.722	3105
3526.422	3129
3528.124	3083
3529.824	3118
3531.524	3065
3533.222	3064
3534.921	3046
3536.62	3141
3538.318	3066
3540.016	3076
3541.714	3037
3543.41	3073
3545.107	3111
3546.803	3090
3548.5	3017
3550.194	3078
3551.889	3073
3553.583	3142
3555.279	3151
3556.972	3007
3558.666	3088
3560.358	3023
3562.051	3047
3563.742	3072
3565.435	3065
3567.126	3078
3568.817	3031
3570.507	3077
3572.197	3119
3573.888	3092
3575.577	3102
3577.265	3042
3578.954	3041
3580.642	3033
3582.329	3020
3584.017	3061
3585.704	3072
3587.391	2964
3589.077	2999
3590.762	3004
3592.449	2936
3594.133	2954
3595.817	3008
3597.501	3077
3599.185	3020
3600.869	2997
3602.552	2967
3604.234	2968
3605.916	2979
3607.598	3052
3609.279	2955
3610.961	2985
3612.642	2940
3614.321	2926
3616	2984
3617.68	2974
3619.36	2986
3621.039	2930
3622.716	2965
3624.394	3006
3626.071	2905
3627.748	2897
3629.425	2966
3631.102	2965
3632.778	2934
3634.452	2992
3636.127	2964
3637.803	2980
3639.477	2928
3641.151	2923
3642.823	2911
3644.497	2926
3646.171	2888
3647.842	2992
3649.515	2795
3651.185	2956
3652.857	2855
3654.527	2848
3656.198	2935
3657.868	2967
3659.537	2876
3661.207	2939
3662.875	2934
3664.544	2936
3666.212	2946
3667.879	2829
3669.546	2868
3671.212	2873
3672.88	2853
3674.546	2942
3676.211	2907
3677.875	2845
3679.541	2930
3681.205	2855
3682.87	2877
3684.533	2940
3686.196	2881
3687.859	2896
3689.521	2874
3691.184	2852
3692.845	2904
3694.507	2892
3696.167	2888
3697.827	2867
3699.487	2883
3701.148	2850
3702.808	2870
3704.466	2897
3706.125	2878
3707.783	2827
3709.442	2783
3711.099	2849
3712.757	2849
3714.412	2881
3716.068	2860
3717.725	2882
3719.381	2863
3721.036	2830
3722.689	2785
3724.344	2760
3725.998	2837
3727.652	2870
3729.305	2780
3730.958	2776
3732.61	2828
3734.262	2851
3735.915	2859
3737.565	2798
3739.217	2909
3740.866	2796
3742.516	2815
3744.165	2814
3745.816	2786
3747.464	2780
3749.113	2804
3750.761	2857
3752.409	2828
3754.057	2811
3755.703	2755
3757.35	2795
3758.996	2723
3760.641	2800
3762.289	2804
3763.933	2794
3765.577	2772
3767.222	2802
3768.865	2795
3770.508	2685
3772.152	2765
3773.796	2813
3775.438	2767
3777.079	2753
3778.721	2809
3780.363	2732
3782.003	2718
3783.643	2801
3785.283	2813
3786.923	2793
3788.563	2770
3790.203	2781
3791.841	2805
3793.479	2711
3795.115	2695
3796.753	2783
3798.391	2733
3800.027	2722
3801.664	2744
3803.299	2734
3804.935	2724
3806.571	2761
3808.206	2713
3809.839	2747
3811.473	2700
3813.107	2750
3814.74	2737
3816.375	2795
3818.006	2777
3819.638	2735
3821.27	2804
3822.9	2772
3824.532	2733
3826.163	2796
3827.792	2664
3829.423	2719
3831.051	2751
3832.682	2688
3834.311	2714
3835.938	2691
3837.566	2699
3839.193	2754
3840.821	2597
3842.448	2678
3844.075	2680
3845.7	2687
3847.325	2703
3848.951	2683
3850.576	2677
3852.201	2679
3853.825	2661
3855.448	2623
3857.072	2613
3858.694	2660
3860.318	2676
3861.939	2573
3863.562	2588
3865.183	2690
3866.804	2675
3868.426	2621
3870.045	2645
3871.666	2644
3873.285	2672
3874.904	2619
3876.524	2671
3878.142	2632
3879.76	2643
3881.378	2636
3882.995	2695
3884.612	2712
3886.229	2669
3887.845	2628
3889.461	2612
3891.076	2614
3892.691	2635
3894.307	2661
3895.922	2658
3897.536	2628
3899.149	2614
3900.761	2671
3902.374	2675
3903.988	2665
3905.6	2660
3907.212	2603
3908.822	2615
3910.433	2640
3912.045	2624
3913.655	2626
3915.265	2506
3916.875	2575
3918.483	2636
3920.093	2631
3921.702	2637
3923.309	2602
3924.917	2601
3926.523	2644
3928.13	2505
3929.739	2573
3931.344	2612
3932.95	2609
3934.555	2585
3936.159	2624
3937.766	2552
3939.369	2613
3940.974	2552
3942.577	2603
3944.181	2644
3945.783	2646
3947.386	2571
3948.989	2636
3950.59	2536
3952.191	2598
3953.791	2561
3955.394	2558
3956.994	2585
3958.593	2611
3960.192	2572
3961.791	2625
3963.392	2613
3964.99	2571
3966.588	2540
3968.185	2542
3969.782	2607
3971.379	2527
3972.976	2537
3974.572	2505
3976.168	2563
3977.763	2518
3979.358	2596
3980.954	2550
3982.548	2526
3984.142	2550
3985.736	2559
3987.329	2528
3988.922	2536
3990.516	2473
3992.108	2532
3993.698	2551
3995.29	2503
3996.881	2541
3998.473	2500
4000.064	2496
4001.653	2565
4003.242	2503
4004.832	2538
4006.422	2473
4008.01	2576
4009.598	2488
4011.186	2478
4012.773	2518
4014.36	2516
4015.947	2448
4017.534	2533
4019.119	2560
4020.705	2465
4022.291	2509
4023.876	2406
4025.461	2428
4027.044	2444
4028.627	2484
4030.211	2498
4031.795	2425
4033.378	2455
4034.96	2451
4036.542	2501
4038.124	2433
4039.704	2470
4041.286	2394
4042.867	2414
4044.447	2422
4046.026	2471
4047.606	2450
4049.187	2414
4050.765	2455
4052.343	2454
4053.92	2390
4055.498	2427
4057.076	2444
4058.654	2458
4060.23	2456
4061.806	2308
4063.381	2427
4064.957	2413
4066.533	2420
4068.107	2398
4069.682	2466
4071.256	2452
4072.829	2373
4074.404	2385
4075.977	2423
4077.549	2347
4079.121	2380
4080.693	2414
4082.265	2395
4083.836	2410
4085.407	2385
4086.977	2406
4088.547	2372
4090.117	2378
4091.687	2381
4093.256	2404
4094.825	2435
4096.392	2410
4097.96	2392
4099.528	2510
4101.097	2429
4102.663	2410
4104.229	2387
4105.795	2417
4107.361	2336
4108.928	2405
4110.493	2389
4112.058	2378
4113.621	2388
4115.186	2378
4116.75	2407
4118.313	2361
4119.876	2407
4121.438	2360
4123	2349
4124.562	2344
4126.125	2406
4127.686	2362
4129.246	2398
4130.807	2355
4132.367	2349
4133.927	2361
4135.486	2354
4137.046	2358
4138.604	2323
4140.162	2314
4141.72	2298
4143.279	2293
4144.836	2313
4146.393	2262
4147.949	2354
4149.505	2358
4151.062	2316
4152.617	2298
4154.172	2270
4155.727	2331
4157.281	2264
4158.836	2287
4160.39	2264
4161.943	2326
4163.496	2304
4165.048	2294
4166.601	2273
4168.154	2297
4169.706	2278
4171.257	2261
4172.808	2283
4174.358	2248
4175.909	2270
4177.458	2312
4179.008	2285
4180.558	2219
4182.106	2273
4183.655	2198
4185.204	2232
4186.751	2248
4188.298	2212
4189.845	2238
4191.392	2332
4192.939	2297
4194.485	2285
4196.031	2257
4197.576	2259
4199.121	2200
4200.666	2241
4202.211	2331
4203.754	2232
4205.298	2245
4206.84	2285
4208.384	2274
4209.927	2207
4211.47	2229
4213.011	2303
4214.552	2167
4216.094	2262
4217.635	2285
4219.175	2233
4220.716	2205
4222.255	2285
4223.793	2223
4225.335	2271
4226.873	2336
4228.411	2210
4229.948	2242
4231.486	2210
4233.024	2208
4234.562	2256
4236.098	2199
4237.634	2185
4239.169	2237
4240.705	2246
4242.241	2198
4243.776	2250
4245.31	2198
4246.844	2231
4248.378	2193
4249.911	2234
4251.445	2242
4252.978	2177
4254.51	2163
4256.042	2272
4257.574	2205
4259.107	2187
4260.638	2191
4262.169	2137
4263.699	2179
4265.228	2146
4266.759	2176
4268.289	2234
4269.818	2172
4271.345	2133
4272.874	2173
4274.402	2206
4275.931	2201
4277.458	2198
4278.985	2233
4280.512	2170
4282.037	2219
4283.564	2161
4285.089	2217
4286.615	2167
4288.139	2202
4289.664	2189
4291.187	2187
4292.712	2174
4294.235	2124
4295.759	2159
4297.281	2174
4298.804	2197
4300.327	2130
4301.849	2137
4303.37	2171
4304.891	2167
4306.412	2193
4307.933	2121
4309.453	2086
4310.973	2086
4312.492	2164
