398.1873	4202
400.7097	4335
403.2336	4267
405.7547	4297
408.2751	4287
410.7948	4377
413.3138	4312
415.83	4353
418.3497	4415
420.8666	4498
423.3829	4473
425.8985	4569
428.4133	4531
430.9275	4597
433.441	4686
435.9538	4602
438.4639	4582
440.9753	4525
443.4881	4550
445.9982	4635
448.5055	4621
451.0142	4562
453.5201	4625
456.0274	4585
458.5361	4576
461.04	4590
463.5453	4639
466.0478	4482
468.5517	4457
471.0549	4716
473.5574	4632
476.0572	4580
478.5584	4585
481.0568	4611
483.5545	4668
486.0557	4626
488.5521	4717
491.0478	4660
493.5449	4665
496.0392	4754
498.5349	4703
501.0299	4743
503.5222	4739
506.0139	4741
508.5048	4696
510.9991	4726
513.4887	4668
515.9777	4707
518.4659	4762
520.9534	4758
523.4403	4828
525.9306	4783
528.4161	4723
530.9009	4868
533.3851	4784
535.8687	4828
538.3535	4812
540.8356	4881
543.3171	4798
545.7979	4782
548.278	4832
550.7595	4804
553.2383	4829
555.7144	4815
558.1918	4865
560.6685	4794
563.1446	4876
565.6221	4884
568.0968	4955
570.5688	4851
573.0422	4849
575.515	4985
577.989	4994
580.4584	5022
582.9291	5022
585.3991	4967
587.8685	5016
590.3352	4998
592.8052	5022
595.2706	4985
597.7372	4946
600.2033	5028
602.6666	4996
605.1334	4947
607.5953	4907
610.0587	4926
612.5193	4897
614.9814	4905
617.4427	4896
619.9034	4945
622.3615	4903
624.8208	4868
627.2775	4872
629.7335	4879
632.1929	4951
634.6476	4800
637.1016	4920
639.5569	4960
642.0096	4958
644.4637	4985
646.9151	4928
649.3678	5005
651.8179	4916
654.2672	4993
656.7159	4973
659.166	4929
661.6154	5036
664.0622	5049
666.5082	4982
668.9537	4953
671.4005	4986
673.8445	4975
676.288	5092
678.7308	5090
681.1729	5042
683.6163	5079
686.0572	5102
688.4973	5068
690.9368	5087
693.3757	5014
695.8138	5084
698.2534	5092
700.6902	5076
703.1245	5181
705.56	5037
707.9949	5130
710.4311	5197
712.8647	5175
715.2957	5207
717.7279	5214
720.1595	5259
722.5905	5157
725.0208	5206
727.4505	5191
729.8795	5183
732.3058	5293
734.7336	5250
737.1626	5277
739.587	5379
742.0128	5325
744.4359	5409
746.8604	5362
749.2841	5388
751.7073	5399
754.1278	5358
756.5496	5424
758.9688	5455
761.3893	5469
763.8093	5415
766.2285	5437
768.6451	5466
771.0611	5446
773.4784	5374
775.895	5394
778.3091	5461
780.7244	5411
783.1371	5410
785.5493	5383
787.9626	5435
790.3754	5491
792.7856	5566
795.1951	5527
797.6039	5500
800.0121	5382
802.4236	5466
804.8306	5498
807.2369	5466
809.6425	5518
812.0475	5607
814.4538	5464
816.8575	5539
819.2606	5544
821.663	5528
824.0648	5603
826.4659	5487
828.8683	5492
831.2682	5561
833.6674	5607
836.066	5575
838.4639	5594
840.8632	5599
843.2579	5610
845.6539	5618
848.0493	5578
850.444	5667
852.84	5582
855.2315	5620
857.6243	5656
860.0165	5746
862.4081	5640
864.797	5611
867.1892	5509
869.5789	5630
871.9659	5676
874.3542	5718
876.74	5658
879.129	5642
881.5155	5600
883.8994	5686
886.2845	5654
888.6671	5552
891.051	5665
893.4343	5599
895.8169	5589
898.197	5593
900.5783	5571
902.9571	5727
905.3372	5651
907.7167	5639
910.0936	5685
912.4698	5582
914.8474	5681
917.2244	5790
919.5987	5826
921.9744	5861
924.3475	5855
926.72	5833
929.0918	5849
931.4669	5831
933.8375	5820
936.2074	5896
938.5767	6064
940.9454	6090
943.3154	6138
945.6829	6234
948.0497	6253
950.4178	6590
952.7833	6650
955.1483	7071
957.5145	7205
959.8782	7361
962.2412	7408
964.6036	7242
966.9655	6909
969.3266	6622
971.6871	6422
974.0471	6158
976.4064	6069
978.765	5924
981.125	5900
983.4824	5903
985.8373	5797
988.1935	5789
990.549	5871
992.9039	5821
995.2602	5708
997.6119	5937
999.965	5863
1002.317	5961
1004.667	5832
1007.02	5960
1009.371	5874
1011.719	5875
1014.068	5909
1016.415	5891
1018.765	5848
1021.111	5909
1023.458	5861
1025.804	5880
1028.147	5900
1030.49	5956
1032.837	5939
1035.179	5936
1037.522	6016
1039.862	6021
1042.204	5988
1044.546	6025
1046.884	5954
1049.224	6045
1051.562	6007
1053.899	5967
1056.237	5985
1058.575	6035
1060.91	6055
1063.244	6013
1065.58	6065
1067.913	6133
1070.248	6093
1072.579	6143
1074.911	6094
1077.242	6178
1079.572	6125
1081.905	6003
1084.234	6014
1086.562	6063
1088.89	6046
1091.217	6009
1093.544	5974
1095.871	5893
1098.197	6063
1100.521	5927
1102.845	6046
1105.169	5980
1107.491	5940
1109.814	5967
1112.135	5962
1114.456	6007
1116.776	5964
1119.096	5954
1121.415	6007
1123.734	5897
1126.052	5971
1128.369	5858
1130.686	6019
1133.002	6015
1135.318	6040
1137.632	5960
1139.945	6039
1142.258	5959
1144.573	5913
1146.884	6088
1149.196	5941
1151.505	6029
1153.816	5993
1156.124	5948
1158.435	6035
1160.742	6049
1163.051	5978
1165.356	5966
1167.663	5968
1169.97	6054
1172.276	5927
1174.579	5992
1176.881	5866
1179.186	6078
1181.487	6032
1183.79	5989
1186.092	6046
1188.392	5870
1190.691	6080
1192.991	5953
1195.291	5989
1197.588	5981
1199.885	5939
1202.181	5949
1204.479	6065
1206.775	5949
1209.07	6017
1211.363	5999
1213.656	5924
1215.949	6065
1218.241	6074
1220.534	6082
1222.825	5987
1225.115	6180
1227.405	6196
1229.693	6120
1231.984	6218
1234.271	6133
1236.558	6300
1238.845	6270
1241.131	6243
1243.416	6249
1245.703	6301
1247.987	6315
1250.269	6184
1252.552	6237
1254.834	6276
1257.118	6194
1259.399	6276
1261.678	6280
1263.958	6310
1266.237	6202
1268.516	6275
1270.794	6266
1273.072	6293
1275.347	6141
1277.624	6194
1279.899	6277
1282.175	6157
1284.449	6194
1286.722	6202
1288.995	6060
1291.266	6174
1293.54	6141
1295.81	6157
1298.081	6098
1300.35	6100
1302.62	6131
1304.889	6202
1307.156	6247
1309.425	6111
1311.69	6156
1313.957	6013
1316.222	6227
1318.488	6062
1320.751	6145
1323.016	6151
1325.278	6217
1327.54	6189
1329.803	6135
1332.065	6271
1334.325	6167
1336.584	6106
1338.843	6240
1341.101	6163
1343.36	6192
1345.617	6144
1347.876	6199
1350.131	6139
1352.387	6114
1354.643	6232
1356.897	6059
1359.151	6205
1361.403	6128
1363.656	6165
1365.909	6161
1368.16	6253
1370.409	6168
1372.659	6261
1374.909	6348
1377.157	6234
1379.407	6178
1381.655	6287
1383.9	6163
1386.147	6305
1388.393	6338
1390.64	6226
1392.885	6294
1395.127	6209
1397.37	6222
1399.614	6293
1401.854	6187
1404.098	6223
1406.339	6371
1408.578	6254
1410.818	6334
1413.056	6307
1415.297	6418
1417.533	6352
1419.771	6349
1422.006	6263
1424.243	6343
1426.479	6360
1428.715	6349
1430.948	6347
1433.182	6390
1435.414	6412
1437.647	6379
1439.88	6377
1442.11	6463
1444.342	6439
1446.571	6453
1448.799	6368
1451.029	6520
1453.258	6493
1455.485	6517
1457.711	6473
1459.937	6500
1462.164	6412
1464.39	6445
1466.614	6465
1468.838	6331
1471.06	6415
1473.283	6447
1475.506	6439
1477.727	6406
1479.949	6304
1482.169	6331
1484.389	6286
1486.609	6158
1488.828	6310
1491.045	6122
1493.261	6287
1495.477	6293
1497.693	6210
1499.91	6125
1502.125	6198
1504.339	6234
1506.553	6258
1508.766	6222
1510.979	6189
1513.191	6332
1515.402	6204
1517.613	6271
1519.823	6215
1522.033	6229
1524.242	6091
1526.451	6235
1528.657	6375
1530.865	6238
1533.072	6376
1535.278	6240
1537.484	6268
1539.687	6274
1541.892	6178
1544.096	6302
1546.299	6225
1548.502	6336
1550.703	6235
1552.905	6303
1555.104	6275
1557.303	6379
1559.505	6204
1561.703	6397
1563.902	6371
1566.099	6343
1568.295	6446
1570.494	6422
1572.689	6304
1574.883	6324
1577.079	6425
1579.272	6431
1581.467	6455
1583.659	6448
1585.853	6381
1588.044	6505
1590.234	6428
1592.424	6466
1594.615	6419
1596.806	6453
1598.994	6514
1601.182	6431
1603.369	6414
1605.557	6465
1607.744	6446
1609.929	6419
1612.114	6596
1614.298	6421
1616.482	6541
1618.667	6607
1620.85	6396
1623.032	6461
1625.214	6462
1627.395	6574
1629.575	6516
1631.755	6556
1633.935	6524
1636.114	6584
1638.292	6494
1640.471	6538
1642.647	6593
1644.823	6699
1647	6549
1649.175	6633
1651.348	6649
1653.525	6608
1655.698	6525
1657.87	6561
1660.043	6610
1662.213	6624
1664.387	6687
1666.558	6641
1668.727	6701
1670.896	6627
1673.064	6637
1675.233	6614
1677.401	6671
1679.569	6507
1681.735	6621
1683.902	6537
1686.066	6632
1688.233	6659
1690.397	6640
1692.559	6564
1694.723	6625
1696.885	6570
1699.048	6629
1701.21	6560
1703.37	6516
1705.53	6416
1707.689	6542
1709.849	6532
1712.009	6505
1714.166	6516
1716.323	6492
1718.479	6417
1720.634	6484
1722.793	6431
1724.948	6532
1727.102	6469
1729.255	6534
1731.408	6543
1733.562	6458
1735.714	6572
1737.865	6604
1740.016	6543
1742.166	6402
1744.316	6438
1746.467	6521
1748.616	6457
1750.764	6475
1752.911	6491
1755.056	6503
1757.205	6559
1759.35	6583
1761.496	6540
1763.641	6542
1765.785	6496
1767.927	6524
1770.072	6610
1772.214	6632
1774.355	6474
1776.496	6535
1778.637	6525
1780.778	6497
1782.918	6614
1785.057	6495
1787.194	6519
1789.333	6561
1791.472	6529
1793.608	6573
1795.745	6579
1797.879	6559
1800.015	6607
1802.148	6497
1804.284	6609
1806.417	6558
1808.548	6532
1810.682	6575
1812.812	6605
1814.946	6537
1817.075	6507
1819.205	6560
1821.335	6627
1823.463	6722
1825.59	6564
1827.721	6604
1829.847	6530
1831.973	6495
1834.098	6585
1836.223	6548
1838.351	6456
1840.475	6562
1842.598	6604
1844.721	6367
1846.843	6524
1848.966	6474
1851.087	6533
1853.21	6651
1855.33	6497
1857.449	6590
1859.568	6440
1861.688	6572
1863.806	6450
1865.924	6506
1868.039	6374
1870.155	6447
1872.273	6513
1874.388	6476
1876.503	6537
1878.617	6496
1880.73	6536
1882.844	6456
1884.956	6503
1887.068	6476
1889.18	6545
1891.291	6455
1893.4	6607
1895.511	6589
1897.621	6544
1899.73	6544
1901.837	6575
1903.944	6553
1906.053	6699
1908.159	6486
1910.265	6580
1912.369	6596
1914.474	6515
1916.577	6685
1918.683	6679
1920.785	6642
1922.888	6609
1924.989	6592
1927.091	6650
1929.193	6642
1931.294	6643
1933.393	6612
1935.493	6580
1937.59	6634
1939.689	6771
1941.788	6672
1943.884	6714
1945.98	6695
1948.077	6701
1950.171	6709
1952.267	6687
1954.361	6558
1956.455	6712
1958.548	6652
1960.64	6653
1962.733	6575
1964.824	6635
1966.915	6663
1969.005	6593
1971.096	6625
1973.185	6637
1975.275	6561
1977.363	6620
1979.45	6568
1981.537	6700
1983.623	6634
1985.711	6631
1987.796	6612
1989.881	6630
1991.965	6683
1994.047	6738
1996.132	6647
1998.215	6540
2000.297	6635
2002.378	6583
2004.46	6549
2006.54	6459
2008.62	6602
2010.7	6652
2012.779	6496
2014.858	6609
2016.934	6617
2019.013	6463
2021.09	6540
2023.165	6657
2025.241	6685
2027.317	6533
2029.39	6514
2031.466	6524
2033.538	6500
2035.612	6533
2037.683	6806
2039.755	6548
2041.827	6603
2043.898	6569
2045.968	6567
2048.038	6543
2050.106	6612
2052.177	6634
2054.244	6626
2056.313	6668
2058.379	6662
2060.444	6638
2062.511	6727
2064.577	6681
2066.641	6638
2068.705	6592
2070.77	6640
2072.832	6733
2074.896	6584
2076.958	6546
2079.02	6554
2081.081	6586
2083.141	6668
2085.2	6654
2087.261	6499
2089.319	6546
2091.377	6584
2093.435	6564
2095.492	6544
2097.552	6654
2099.607	6570
2101.663	6649
2103.718	6613
2105.771	6560
2107.826	6654
2109.879	6507
2111.932	6602
2113.985	6633
2116.037	6569
2118.088	6628
2120.141	6529
2122.191	6758
2124.239	6677
2126.288	6527
2128.337	6609
2130.387	6632
2132.434	6622
2134.481	6572
2136.528	6749
2138.574	6706
2140.618	6594
2142.665	6591
2144.71	6645
2146.753	6618
2148.797	6623
2150.838	6489
2152.883	6616
2154.923	6716
2156.965	6615
2159.007	6606
2161.046	6535
2163.086	6609
2165.126	6582
2167.163	6665
2169.202	6508
2171.239	6596
2173.277	6498
2175.314	6479
2177.349	6416
2179.385	6554
2181.42	6446
2183.453	6537
2185.49	6541
2187.522	6502
2189.555	6517
2191.586	6517
2193.619	6537
2195.651	6513
2197.682	6505
2199.711	6507
2201.74	6485
2203.769	6497
2205.799	6428
2207.828	6492
2209.855	6592
2211.882	6464
2213.908	6427
2215.934	6426
2217.961	6537
2219.986	6445
2222.01	6467
2224.034	6492
2226.057	6398
2228.08	6546
2230.104	6457
2232.124	6466
2234.145	6396
2236.166	6467
2238.186	6389
2240.207	6484
2242.227	6368
2244.244	6375
2246.262	6531
2248.28	6509
2250.299	6508
2252.314	6487
2254.33	6575
2256.346	6643
2258.36	6567
2260.375	6509
2262.391	6464
2264.403	6437
2266.416	6547
2268.427	6518
2270.44	6581
2272.453	6409
2274.463	6610
2276.474	6512
2278.483	6455
2280.493	6492
2282.501	6528
2284.51	6392
2286.518	6475
2288.524	6463
2290.532	6581
2292.537	6553
2294.544	6441
2296.55	6464
2298.554	6414
2300.557	6496
2302.562	6369
2304.566	6622
2306.568	6494
2308.569	6351
2310.572	6525
2312.573	6478
2314.573	6317
2316.574	6489
2318.573	6436
2320.571	6482
2322.571	6449
2324.569	6300
2326.567	6478
2328.564	6471
2330.56	6424
2332.556	6441
2334.551	6484
2336.546	6333
2338.542	6460
2340.535	6414
2342.529	6371
2344.521	6384
2346.512	6366
2348.505	6394
2350.497	6361
2352.487	6329
2354.478	6371
2356.468	6303
2358.457	6362
2360.446	6383
2362.434	6364
2364.422	6434
2366.408	6307
2368.395	6306
2370.383	6308
2372.369	6297
2374.353	6386
2376.338	6471
2378.321	6224
2380.307	6248
2382.29	6451
2384.272	6195
2386.254	6353
2388.235	6285
2390.218	6383
2392.198	6298
2394.179	6363
2396.157	6271
2398.137	6308
2400.115	6335
2402.095	6291
2404.072	6237
2406.048	6312
2408.026	6293
2410.001	6426
2411.977	6401
2413.953	6312
2415.927	6226
2417.9	6285
2419.875	6354
2421.847	6267
2423.821	6240
2425.792	6219
2427.763	6401
2429.736	6325
2431.706	6276
2433.677	6253
2435.646	6310
2437.615	6235
2439.583	6225
2441.551	6313
2443.519	6283
2445.486	6198
2447.452	6333
2449.418	6352
2451.383	6223
2453.348	6278
2455.314	6221
2457.278	6237
2459.241	6255
2461.205	6194
2463.167	6216
2465.131	6194
2467.091	6347
2469.052	6284
2471.012	6318
2472.972	6267
2474.932	6325
2476.891	6266
2478.85	6158
2480.808	6319
2482.766	6218
2484.722	6239
2486.68	6190
2488.636	6210
2490.591	6156
2492.546	6312
2494.5	6218
2496.456	6125
2498.41	6154
2500.362	6188
2502.315	6224
2504.266	6281
2506.218	6296
2508.169	6049
2510.121	6151
2512.07	6189
2514.019	6266
2515.968	6239
2517.918	6118
2519.866	6215
2521.813	6287
2523.76	6195
2525.707	6158
2527.653	6256
2529.599	6181
2531.543	6217
2533.489	6233
2535.433	6223
2537.376	6203
2539.32	6244
2541.264	6226
2543.205	6115
2545.147	6190
2547.087	6179
2549.029	6005
2550.969	6163
2552.908	6143
2554.847	6112
2556.786	6165
2558.724	6152
2560.663	6014
2562.6	6237
2564.537	6261
2566.473	6173
2568.408	6260
2570.345	6174
2572.28	6219
2574.214	6195
2576.148	6190
2578.081	6218
2580.014	6127
2581.947	6173
2583.879	6204
2585.81	6077
2587.741	6311
2589.67	6115
2591.602	6240
2593.532	6086
2595.461	6255
2597.388	6270
2599.316	6136
2601.244	6169
2603.172	6277
2605.098	6200
2607.023	6249
2608.949	6283
2610.873	6254
2612.8	6244
2614.723	6326
2616.647	6134
2618.569	6238
2620.493	6190
2622.416	6317
2624.338	6165
2626.258	6243
2628.179	6197
2630.099	6304
2632.019	6216
2633.939	6296
2635.857	6093
2637.775	6240
2639.694	6286
2641.61	6221
2643.528	6263
2645.444	6178
2647.361	6332
2649.276	6218
2651.19	6266
2653.105	6232
2655.019	6171
2656.934	6206
2658.846	6108
2660.758	6308
2662.67	6207
2664.583	6222
2666.493	6181
2668.404	6201
2670.313	6175
2672.223	6239
2674.134	6173
2676.042	6196
2677.95	6067
2679.858	6129
2681.765	6195
2683.673	6217
2685.579	6189
2687.483	6107
2689.389	6037
2691.294	6143
2693.198	6127
2695.104	6221
2697.006	6194
2698.909	6116
2700.811	6136
2702.713	6132
2704.615	6112
2706.516	6048
2708.417	6127
2710.316	6083
2712.216	6120
2714.115	6135
2716.014	6019
2717.913	6122
2719.81	6118
2721.707	6068
2723.603	6132
2725.501	6105
2727.396	6169
2729.292	6097
2731.186	6092
2733.081	6231
2734.976	6084
2736.87	6144
2738.762	6153
2740.653	6195
2742.546	6117
2744.437	6083
2746.329	6141
2748.22	6050
2750.11	6119
2751.999	6094
2753.889	6104
2755.778	6133
2757.666	6116
2759.553	6086
2761.44	6123
2763.328	6031
2765.215	6111
2767.101	6141
2768.986	6064
2770.87	6095
2772.754	6073
2774.638	6140
2776.523	6060
2778.405	6067
2780.288	6086
2782.17	6075
2784.051	6063
2785.934	6178
2787.814	6141
2789.694	6057
2791.574	6055
2793.453	6023
2795.332	6072
2797.212	5984
2799.088	6025
2800.966	6034
2802.843	6082
2804.719	6045
2806.597	6104
2808.471	5884
2810.346	6042
2812.221	6048
2814.094	6127
2815.969	6025
2817.843	6032
2819.714	5943
2821.587	6072
2823.459	6142
2825.329	6034
2827.202	6056
2829.072	5973
2830.942	6103
2832.811	6039
2834.68	6049
2836.549	6015
2838.418	5999
2840.284	6015
2842.152	6146
2844.018	6116
2845.885	5990
2847.751	6033
2849.616	6006
2851.482	6029
2853.345	6093
2855.208	6089
2857.074	6096
2858.937	6032
2860.799	6120
2862.66	6177
2864.522	6063
2866.385	6165
2868.245	6289
2870.104	6363
2871.964	6292
2873.824	6296
2875.683	6303
2877.542	6426
2879.4	6491
2881.257	6434
2883.114	6502
2884.97	6352
2886.827	6372
2888.683	6495
2890.537	6444
2892.392	6531
2894.246	6333
2896.1	6454
2897.954	6520
2899.807	6381
2901.66	6332
2903.51	6466
2905.362	6407
2907.214	6417
2909.065	6397
2910.915	6454
2912.765	6646
2914.613	6487
2916.463	6678
2918.311	6648
2920.158	6704
2922.006	6717
2923.853	6693
2925.698	6850
2927.546	6909
2929.392	6914
2931.236	6975
2933.081	7011
2934.924	7043
2936.77	6930
2938.613	6997
2940.455	7203
2942.298	7253
2944.139	7262
2945.982	7215
2947.823	7231
2949.662	7019
2951.503	7110
2953.342	7009
2955.182	6900
2957.021	6886
2958.858	6899
2960.697	6775
2962.534	6751
2964.37	6719
2966.207	6649
2968.044	6656
2969.879	6648
2971.714	6588
2973.548	6541
2975.383	6577
2977.218	6539
2979.051	6597
2980.883	6592
2982.715	6484
2984.547	6417
2986.379	6545
2988.21	6420
2990.04	6377
2991.87	6396
2993.7	6347
2995.53	6340
2997.359	6265
2999.187	6309
3001.015	6225
3002.842	6189
3004.669	6132
3006.497	6101
3008.323	6033
3010.148	6018
3011.974	5974
3013.797	5905
3015.623	6023
3017.447	5884
3019.27	5889
3021.094	6006
3022.915	5851
3024.737	5906
3026.56	5736
3028.38	5897
3030.201	5863
3032.022	5936
3033.84	5749
3035.662	5776
3037.481	5922
3039.298	5718
3041.117	5759
3042.933	5825
3044.752	5787
3046.568	5803
3048.385	5725
3050.2	5793
3052.016	5684
3053.83	5768
3055.646	5842
3057.46	5691
3059.272	5690
3061.086	5776
3062.898	5815
3064.711	5839
3066.524	5764
3068.335	5733
3070.145	5644
3071.956	5678
3073.766	5703
3075.576	5678
3077.385	5701
3079.193	5815
3081.002	5737
3082.81	5584
3084.618	5662
3086.425	5709
3088.231	5601
3090.036	5695
3091.842	5664
3093.648	5608
3095.452	5624
3097.257	5701
3099.06	5484
3100.863	5541
3102.666	5682
3104.47	5633
3106.272	5707
3108.073	5643
3109.875	5590
3111.676	5603
3113.477	5481
3115.277	5540
3117.077	5696
3118.874	5533
3120.673	5535
3122.473	5517
3124.271	5510
3126.066	5438
3127.863	5383
3129.66	5610
3131.456	5527
3133.252	5500
3135.047	5451
3136.842	5464
3138.635	5518
3140.429	5510
3142.223	5499
3144.016	5500
3145.808	5352
3147.6	5468
3149.392	5432
3151.183	5525
3152.975	5478
3154.765	5440
3156.553	5494
3158.344	5526
3160.132	5473
3161.922	5443
3163.71	5475
3165.497	5398
3167.285	5334
3169.071	5393
3170.858	5406
3172.645	5528
3174.429	5438
3176.214	5465
3177.998	5372
3179.783	5456
3181.568	5392
3183.351	5554
3185.133	5460
3186.915	5408
3188.698	5327
3190.481	5416
3192.261	5460
3194.042	5365
3195.822	5342
3197.601	5318
3199.381	5376
3201.161	5392
3202.939	5433
3204.717	5348
3206.495	5467
3208.272	5344
3210.05	5412
3211.826	5402
3213.602	5332
3215.376	5444
3217.151	5399
3218.927	5419
3220.702	5329
3222.476	5413
3224.249	5425
3226.021	5420
3227.793	5358
3229.567	5328
3231.339	5378
3233.109	5318
3234.88	5355
3236.651	5382
3238.421	5329
3240.191	5302
3241.96	5390
3243.728	5290
3245.497	5369
3247.263	5406
3249.033	5331
3250.799	5397
3252.566	5416
3254.331	5353
3256.097	5449
3257.863	5341
3259.628	5338
3261.392	5375
3263.156	5392
3264.919	5467
3266.683	5370
3268.447	5332
3270.208	5292
3271.969	5399
3273.731	5400
3275.492	5301
3277.253	5292
3279.013	5305
3280.773	5377
3282.532	5518
3284.291	5388
3286.05	5357
3287.808	5349
3289.566	5424
3291.323	5351
3293.079	5417
3294.835	5426
3296.593	5322
3298.348	5377
3300.102	5425
3301.857	5267
3303.611	5339
3305.366	5332
3307.119	5311
3308.872	5244
3310.624	5443
3312.376	5343
3314.129	5317
3315.881	5325
3317.631	5441
3319.38	5329
3321.13	5413
3322.88	5369
3324.631	5411
3326.379	5362
3328.126	5378
3329.875	5343
3331.622	5364
3333.371	5286
3335.116	5214
3336.863	5367
3338.609	5386
3340.353	5370
3342.1	5279
3343.845	5343
3345.588	5270
3347.332	5271
3349.074	5327
3350.817	5388
3352.56	5302
3354.303	5285
3356.043	5242
3357.785	5227
3359.525	5249
3361.268	5302
3363.007	5277
3364.745	5104
3366.485	5320
3368.223	5223
3369.962	5240
3371.701	5145
3373.438	5211
3375.174	5291
3376.911	5185
3378.647	5198
3380.384	5155
3382.118	5267
3383.854	5119
3385.588	5184
3387.322	5233
3389.057	5119
3390.79	5129
3392.522	5200
3394.255	5204
3395.987	5187
3397.719	5176
3399.451	5142
3401.181	5253
3402.911	5280
3404.641	5189
3406.371	5165
3408.101	5257
3409.83	5163
3411.558	5125
3413.285	5134
3415.011	5106
3416.739	5136
3418.467	5057
3420.193	5142
3421.919	5083
3423.644	5201
3425.368	5204
3427.094	5147
3428.818	5222
3430.542	5086
3432.264	5069
3433.987	5196
3435.712	5176
3437.434	5140
3439.155	5081
3440.876	5009
3442.596	4964
3444.317	5142
3446.039	5126
3447.757	5045
3449.477	5091
3451.195	5105
3452.914	5062
3454.632	5032
3456.35	5014
3458.067	4978
3459.784	4970
3461.5	5096
3463.216	4970
3464.932	5109
3466.647	4900
3468.362	5003
3470.076	5011
3471.789	4893
3473.505	4968
3475.217	4984
3476.929	4906
3478.641	5018
3480.354	4955
3482.066	4993
3483.777	4953
3485.487	4967
3487.197	4943
3488.908	4886
3490.617	4950
3492.327	4878
3494.035	5011
3495.743	4872
3497.451	4914
3499.158	4911
3500.866	4918
3502.572	4895
3504.278	4825
3505.984	4892
3507.689	4848
3509.396	4925
3511.1	4859
3512.804	4804
3514.508	4808
3516.211	4849
3517.913	4823
3519.616	4815
3521.319	4820
3523.021	4876
3524.722	4814
3526.422	4848
3528.124	4766
3529.824	4786
3531.524	4734
3533.222	4749
3534.921	4878
3536.62	4879
3538.318	4766
3540.016	4692
3541.714	4763
3543.41	4878
3545.107	4883
3546.803	4707
3548.5	4768
3550.194	4796
3551.889	4817
3553.583	4776
3555.279	4665
3556.972	4795
3558.666	4753
3560.358	4765
3562.051	4711
3563.742	4709
3565.435	4699
3567.126	4705
3568.817	4671
3570.507	4798
3572.197	4765
3573.888	4631
3575.577	4714
3577.265	4724
3578.954	4695
3580.642	4751
3582.329	4745
3584.017	4655
3585.704	4688
3587.391	4698
3589.077	4691
3590.762	4601
3592.449	4653
3594.133	4611
3595.817	4548
3597.501	4724
3599.185	4621
3600.869	4646
3602.552	4563
3604.234	4611
3605.916	4524
3607.598	4519
3609.279	4503
3610.961	4546
3612.642	4578
3614.321	4679
3616	4583
3617.68	4468
3619.36	4503
3621.039	4567
3622.716	4439
3624.394	4469
3626.071	4527
3627.748	4468
3629.425	4551
3631.102	4485
3632.778	4611
3634.452	4477
3636.127	4522
3637.803	4465
3639.477	4459
3641.151	4528
3642.823	4437
3644.497	4507
3646.171	4410
3647.842	4407
3649.515	4456
3651.185	4399
3652.857	4467
3654.527	4403
3656.198	4388
3657.868	4476
3659.537	4379
3661.207	4320
3662.875	4488
3664.544	4367
3666.212	4412
3667.879	4436
3669.546	4447
3671.212	4392
3672.88	4468
3674.546	4430
3676.211	4390
3677.875	4400
3679.541	4317
3681.205	4457
3682.87	4382
3684.533	4309
3686.196	4376
3687.859	4368
3689.521	4321
3691.184	4298
3692.845	4400
3694.507	4321
3696.167	4304
3697.827	4324
3699.487	4303
3701.148	4428
3702.808	4346
3704.466	4380
3706.125	4371
3707.783	4376
3709.442	4279
3711.099	4367
3712.757	4329
3714.412	4262
3716.068	4314
3717.725	4304
3719.381	4313
3721.036	4235
3722.689	4374
3724.344	4449
3725.998	4294
3727.652	4311
3729.305	4320
3730.958	4301
3732.61	4277
3734.262	4330
3735.915	4279
3737.565	4225
3739.217	4276
3740.866	4204
3742.516	4266
3744.165	4327
3745.816	4255
3747.464	4283
3749.113	4302
3750.761	4247
3752.409	4191
3754.057	4217
3755.703	4348
3757.35	4189
3758.996	4255
3760.641	4169
3762.289	4215
3763.933	4198
3765.577	4243
3767.222	4146
3768.865	4291
3770.508	4157
3772.152	4297
3773.796	4164
3775.438	4186
3777.079	4176
3778.721	4203
3780.363	4159
3782.003	4181
3783.643	4117
3785.283	4152
3786.923	4166
3788.563	4130
3790.203	4171
3791.841	4151
3793.479	4090
3795.115	4115
3796.753	4089
3798.391	4090
3800.027	4105
3801.664	4041
3803.299	4050
3804.935	4213
3806.571	4120
3808.206	4101
3809.839	4002
3811.473	4139
3813.107	4134
3814.74	4100
3816.375	4118
3818.006	4178
3819.638	4171
3821.27	4139
3822.9	3979
3824.532	4080
3826.163	4070
3827.792	3981
3829.423	4139
3831.051	3996
3832.682	4047
3834.311	3956
3835.938	4017
3837.566	4063
3839.193	4041
3840.821	4044
3842.448	4050
3844.075	4063
3845.7	4031
3847.325	4010
3848.951	3943
3850.576	4043
3852.201	4015
3853.825	4085
3855.448	3944
3857.072	3956
3858.694	4155
3860.318	4040
3861.939	3957
3863.562	4041
3865.183	4046
3866.804	3970
3868.426	4031
3870.045	4008
3871.666	4008
3873.285	3950
3874.904	3946
3876.524	3960
3878.142	3960
3879.76	3978
3881.378	4015
3882.995	3943
3884.612	3947
3886.229	3882
3887.845	3905
3889.461	3895
3891.076	3988
3892.691	3896
3894.307	3890
3895.922	3907
3897.536	3910
3899.149	4014
3900.761	3912
3902.374	3926
3903.988	3912
3905.6	3829
3907.212	3914
3908.822	3920
3910.433	3932
3912.045	3896
3913.655	3940
3915.265	3967
3916.875	3892
3918.483	3968
3920.093	3864
3921.702	3920
3923.309	3837
3924.917	3872
3926.523	3814
3928.13	3852
3929.739	3917
3931.344	3846
3932.95	3945
3934.555	3883
3936.159	3960
3937.766	3898
3939.369	3913
3940.974	3873
3942.577	3907
3944.181	3982
3945.783	3850
3947.386	3938
3948.989	3862
3950.59	3982
3952.191	3799
3953.791	3898
3955.394	3827
3956.994	3879
3958.593	3891
3960.192	3917
3961.791	3852
3963.392	3885
3964.99	3853
3966.588	3751
3968.185	3777
3969.782	3734
3971.379	3751
3972.976	3851
3974.572	3818
3976.168	3839
3977.763	3848
3979.358	3797
3980.954	3746
3982.548	3728
3984.142	3718
3985.736	3754
3987.329	3738
3988.922	3789
3990.516	3744
3992.108	3790
3993.698	3749
3995.29	3730
3996.881	3768
3998.473	3689
4000.064	3785
4001.653	3739
4003.242	3716
4004.832	3709
4006.422	3668
4008.01	3650
4009.598	3791
4011.186	3745
4012.773	3651
4014.36	3737
4015.947	3614
4017.534	3685
4019.119	3727
4020.705	3690
4022.291	3742
4023.876	3570
4025.461	3643
4027.044	3627
4028.627	3559
4030.211	3720
4031.795	3604
4033.378	3598
4034.96	3760
4036.542	3572
4038.124	3631
4039.704	3611
4041.286	3605
4042.867	3654
4044.447	3550
4046.026	3555
4047.606	3583
4049.187	3574
4050.765	3646
4052.343	3542
4053.92	3583
4055.498	3615
4057.076	3689
4058.654	3526
4060.23	3614
4061.806	3554
4063.381	3537
4064.957	3598
4066.533	3552
4068.107	3557
4069.682	3558
4071.256	3514
4072.829	3575
4074.404	3569
4075.977	3597
4077.549	3596
4079.121	3596
4080.693	3553
4082.265	3617
4083.836	3586
4085.407	3572
4086.977	3494
4088.547	3519
4090.117	3490
4091.687	3519
4093.256	3519
4094.825	3482
4096.392	3526
4097.96	3498
4099.528	3509
4101.097	3523
4102.663	3540
4104.229	3572
4105.795	3446
4107.361	3500
4108.928	3483
4110.493	3510
4112.058	3477
4113.621	3586
4115.186	3510
4116.75	3387
4118.313	3486
4119.876	3481
4121.438	3478
4123	3487
4124.562	3499
4126.125	3487
4127.686	3444
4129.246	3481
4130.807	3391
4132.367	3350
4133.927	3409
4135.486	3396
4137.046	3345
4138.604	3397
4140.162	3485
4141.72	3341
4143.279	3356
4144.836	3425
4146.393	3446
4147.949	3380
4149.505	3447
4151.062	3384
4152.617	3419
4154.172	3293
4155.727	3359
4157.281	3350
4158.836	3418
4160.39	3355
4161.943	3406
4163.496	3372
4165.048	3374
4166.601	3352
4168.154	3326
4169.706	3337
4171.257	3424
4172.808	3321
4174.358	3361
4175.909	3270
4177.458	3293
4179.008	3334
4180.558	3390
4182.106	3328
4183.655	3299
4185.204	3377
4186.751	3341
4188.298	3287
4189.845	3305
4191.392	3371
4192.939	3240
4194.485	3201
4196.031	3304
4197.576	3221
4199.121	3307
4200.666	3240
4202.211	3255
4203.754	3266
4205.298	3245
4206.84	3284
4208.384	3281
4209.927	3290
4211.47	3267
4213.011	3286
4214.552	3249
4216.094	3237
4217.635	3242
4219.175	3263
4220.716	3299
4222.255	3209
4223.793	3229
4225.335	3246
4226.873	3241
4228.411	3278
4229.948	3256
4231.486	3199
4233.024	3216
4234.562	3202
4236.098	3208
4237.634	3257
4239.169	3215
4240.705	3224
4242.241	3225
4243.776	3240
4245.31	3187
4246.844	3177
4248.378	3168
4249.911	3223
4251.445	3252
4252.978	3208
4254.51	3194
4256.042	3204
4257.574	3240
4259.107	3143
4260.638	3260
4262.169	3243
4263.699	3179
4265.228	3171
4266.759	3133
4268.289	3101
4269.818	3203
4271.345	3219
4272.874	3145
4274.402	3118
4275.931	3168
4277.458	3072
4278.985	3165
4280.512	3186
4282.037	3129
4283.564	3191
4285.089	3095
4286.615	3183
4288.139	3059
4289.664	3188
4291.187	3132
4292.712	3094
4294.235	3171
4295.759	3222
4297.281	3183
4298.804	3102
4300.327	3129
4301.849	3058
4303.37	3070
4304.891	3037
4306.412	3065
4307.933	3116
4309.453	3151
4310.973	3103
4312.492	3111
