398.1873	6754
400.7097	6683
403.2336	6736
405.7547	6678
408.2751	6708
410.7948	6861
413.3138	6738
415.83	6871
418.3497	6854
420.8666	7012
423.3829	6913
425.8985	6890
428.4133	7033
430.9275	7124
433.441	7067
435.9538	7059
438.4639	7157
440.9753	7043
443.4881	7251
445.9982	6970
448.5055	7185
451.0142	7189
453.5201	7188
456.0274	7191
458.5361	7185
461.04	7159
463.5453	7187
466.0478	7307
468.5517	7182
471.0549	7305
473.5574	7326
476.0572	7297
478.5584	7321
481.0568	7224
483.5545	7325
486.0557	7365
488.5521	7273
491.0478	7395
493.5449	7311
496.0392	7470
498.5349	7575
501.0299	7465
503.5222	7540
506.0139	7364
508.5048	7519
510.9991	7571
513.4887	7489
515.9777	7574
518.4659	7617
520.9534	7566
523.4403	7528
525.9306	7615
528.4161	7601
530.9009	7595
533.3851	7584
535.8687	7590
538.3535	7466
540.8356	7661
543.3171	7506
545.7979	7581
548.278	7659
550.7595	7671
553.2383	7595
555.7144	7646
558.1918	7677
560.6685	7458
563.1446	7685
565.6221	7635
568.0968	7691
570.5688	7674
573.0422	7702
575.515	7761
577.989	7855
580.4584	7774
582.9291	7877
585.3991	7766
587.8685	7824
590.3352	7861
592.8052	7789
595.2706	7880
597.7372	7884
600.2033	7863
602.6666	7741
605.1334	7850
607.5953	7828
610.0587	7932
612.5193	7810
614.9814	7809
617.4427	7863
619.9034	7862
622.3615	7762
624.8208	7765
627.2775	7917
629.7335	7719
632.1929	7792
634.6476	7906
637.1016	7822
639.5569	7851
642.0096	7833
644.4637	7841
646.9151	7854
649.3678	8068
651.8179	7921
654.2672	7910
656.7159	8076
659.166	8016
661.6154	8013
664.0622	8014
666.5082	7908
668.9537	8049
671.4005	8162
673.8445	8072
676.288	7971
678.7308	8191
681.1729	8137
683.6163	8081
686.0572	8122
688.4973	8246
690.9368	8050
693.3757	8288
695.8138	8273
698.2534	8291
700.6902	8131
703.1245	8265
705.56	8188
707.9949	8315
710.4311	8383
712.8647	8335
715.2957	8438
717.7279	8429
720.1595	8301
722.5905	8462
725.0208	8360
727.4505	8364
729.8795	8412
732.3058	8623
734.7336	8545
737.1626	8507
739.587	8497
742.0128	8622
744.4359	8441
746.8604	8524
749.2841	8603
751.7073	8510
754.1278	8725
756.5496	8622
758.9688	8658
761.3893	8764
763.8093	8668
766.2285	8715
768.6451	8737
771.0611	8603
773.4784	8786
775.895	8913
778.3091	8729
780.7244	8765
783.1371	8777
785.5493	8830
787.9626	8879
790.3754	8694
792.7856	8633
795.1951	8876
797.6039	8700
800.0121	8688
802.4236	8799
804.8306	8781
807.2369	8855
809.6425	8897
812.0475	8866
814.4538	8945
816.8575	8799
819.2606	8937
821.663	8820
824.0648	8890
826.4659	8782
828.8683	8853
831.2682	8820
833.6674	8831
836.066	8975
838.4639	8962
840.8632	8945
843.2579	9135
845.6539	8988
848.0493	8897
850.444	9156
852.84	9105
855.2315	9064
857.6243	8964
860.0165	8959
862.4081	8967
864.797	8788
867.1892	8964
869.5789	8985
871.9659	8938
874.3542	9032
876.74	8915
879.129	8926
881.5155	9138
883.8994	9006
886.2845	8938
888.6671	8993
891.051	8960
893.4343	8824
895.8169	8886
898.197	8925
900.5783	9061
902.9571	8966
905.3372	9153
907.7167	9121
910.0936	9015
912.4698	9107
914.8474	9149
917.2244	9154
919.5987	9187
921.9744	9274
924.3475	9321
926.72	9203
929.0918	9267
931.4669	9298
933.8375	9250
936.2074	9315
938.5767	9334
940.9454	9448
943.3154	9464
945.6829	9625
948.0497	9603
950.4178	9687
952.7833	9945
955.1483	10020
957.5145	10197
959.8782	10228
962.2412	10247
964.6036	10170
966.9655	9801
969.3266	9649
971.6871	9482
974.0471	9607
976.4064	9271
978.765	9351
981.125	9364
983.4824	9294
985.8373	9274
988.1935	9219
990.549	9177
992.9039	9223
995.2602	9245
997.6119	9160
999.965	9246
1002.317	9422
1004.667	9350
1007.02	9238
1009.371	9391
1011.719	9223
1014.068	9343
1016.415	9248
1018.765	9259
1021.111	9387
1023.458	9264
1025.804	9322
1028.147	9161
1030.49	9373
1032.837	9404
1035.179	9264
1037.522	9460
1039.862	9312
1042.204	9385
1044.546	9434
1046.884	9267
1049.224	9510
1051.562	9443
1053.899	9292
1056.237	9454
1058.575	9332
1060.91	9389
1063.244	9526
1065.58	9519
1067.913	9569
1070.248	9459
1072.579	9589
1074.911	9435
1077.242	9530
1079.572	9504
1081.905	9536
1084.234	9477
1086.562	9544
1088.89	9408
1091.217	9387
1093.544	9452
1095.871	9389
1098.197	9436
1100.521	9620
1102.845	9569
1105.169	9372
1107.491	9582
1109.814	9463
1112.135	9537
1114.456	9523
1116.776	9413
1119.096	9485
1121.415	9562
1123.734	9561
1126.052	9608
1128.369	9573
1130.686	9464
1133.002	9637
1135.318	9570
1137.632	9543
1139.945	9523
1142.258	9562
1144.573	9539
1146.884	9571
1149.196	9529
1151.505	9510
1153.816	9518
1156.124	9528
1158.435	9494
1160.742	9694
1163.051	9569
1165.356	9580
1167.663	9619
1169.97	9546
1172.276	9587
1174.579	9496
1176.881	9361
1179.186	9657
1181.487	9532
1183.79	9518
1186.092	9631
1188.392	9622
1190.691	9650
1192.991	9619
1195.291	9552
1197.588	9716
1199.885	9701
1202.181	9603
1204.479	9563
1206.775	9635
1209.07	9637
1211.363	9660
1213.656	9628
1215.949	9727
1218.241	9748
1220.534	9618
1222.825	9795
1225.115	9684
1227.405	9781
1229.693	9711
1231.984	9743
1234.271	9800
1236.558	9903
1238.845	9633
1241.131	9950
1243.416	9956
1245.703	9834
1247.987	9773
1250.269	10085
1252.552	9906
1254.834	9960
1257.118	9868
1259.399	9956
1261.678	9840
1263.958	9908
1266.237	9898
1268.516	9869
1270.794	9909
1273.072	9878
1275.347	9972
1277.624	9815
1279.899	9899
1282.175	9824
1284.449	9916
1286.722	9945
1288.995	9769
1291.266	9833
1293.54	9714
1295.81	9672
1298.081	9839
1300.35	9733
1302.62	9715
1304.889	9743
1307.156	9688
1309.425	9777
1311.69	9631
1313.957	9795
1316.222	9829
1318.488	9703
1320.751	9841
1323.016	9834
1325.278	9730
1327.54	9864
1329.803	9837
1332.065	9747
1334.325	9923
1336.584	9855
1338.843	9969
1341.101	9953
1343.36	9785
1345.617	9890
1347.876	9721
1350.131	9795
1352.387	9781
1354.643	9824
1356.897	9758
1359.151	9827
1361.403	9756
1363.656	9716
1365.909	9924
1368.16	9777
1370.409	9856
1372.659	9814
1374.909	9910
1377.157	9848
1379.407	9773
1381.655	9846
1383.9	10028
1386.147	9793
1388.393	9841
1390.64	10005
1392.885	9971
1395.127	9942
1397.37	9990
1399.614	9870
1401.854	9808
1404.098	10060
1406.339	10046
1408.578	9821
1410.818	10036
1413.056	9865
1415.297	10003
1417.533	10144
1419.771	10059
1422.006	9978
1424.243	10076
1426.479	9975
1428.715	10151
1430.948	10220
1433.182	10152
1435.414	10091
1437.647	10108
1439.88	10183
1442.11	10161
1444.342	10209
1446.571	10210
1448.799	10294
1451.029	10137
1453.258	10277
1455.485	10116
1457.711	10201
1459.937	10158
1462.164	10196
1464.39	10165
1466.614	10099
1468.838	10105
1471.06	10101
1473.283	10084
1475.506	9983
1477.727	9931
1479.949	9898
1482.169	10022
1484.389	9992
1486.609	9970
1488.828	9930
1491.045	10006
1493.261	9764
1495.477	9895
1497.693	9977
1499.91	9977
1502.125	9862
1504.339	9942
1506.553	9895
1508.766	9643
1510.979	10005
1513.191	10027
1515.402	9977
1517.613	9853
1519.823	9964
1522.033	9872
1524.242	9941
1526.451	9774
1528.657	9866
1530.865	9773
1533.072	9916
1535.278	9811
1537.484	9987
1539.687	9890
1541.892	10044
1544.096	10075
1546.299	9948
1548.502	10054
1550.703	9862
1552.905	10252
1555.104	9946
1557.303	9997
1559.505	10141
1561.703	9901
1563.902	10028
1566.099	10078
1568.295	9976
1570.494	10012
1572.689	10133
1574.883	10136
1577.079	10066
1579.272	10121
1581.467	10131
1583.659	10134
1585.853	10150
1588.044	10276
1590.234	10210
1592.424	10197
1594.615	10201
1596.806	10198
1598.994	10102
1601.182	10184
1603.369	10241
1605.557	10168
1607.744	10136
1609.929	10274
1612.114	10106
1614.298	10310
1616.482	10290
1618.667	10130
1620.85	10260
1623.032	10320
1625.214	10248
1627.395	10215
1629.575	10110
1631.755	10156
1633.935	10188
1636.114	10293
1638.292	10203
1640.471	10458
1642.647	10205
1644.823	10296
1647	10234
1649.175	10284
1651.348	10280
1653.525	10294
1655.698	10411
1657.87	10229
1660.043	10329
1662.213	10283
1664.387	10425
1666.558	10279
1668.727	10328
1670.896	10467
1673.064	10244
1675.233	10401
1677.401	10393
1679.569	10358
1681.735	10263
1683.902	10124
1686.066	10327
1688.233	10338
1690.397	10232
1692.559	10303
1694.723	10279
1696.885	10251
1699.048	10216
1701.21	10241
1703.37	10199
1705.53	10215
1707.689	10230
1709.849	10293
1712.009	10130
1714.166	10311
1716.323	10201
1718.479	10230
1720.634	10183
1722.793	10299
1724.948	10110
1727.102	10304
1729.255	10234
1731.408	10220
1733.562	10370
1735.714	10191
1737.865	10241
1740.016	10146
1742.166	10113
1744.316	10293
1746.467	10191
1748.616	10264
1750.764	10232
1752.911	10306
1755.056	10406
1757.205	10196
1759.35	10284
1761.496	10317
1763.641	10218
1765.785	10316
1767.927	10370
1770.072	10336
1772.214	10305
1774.355	10250
1776.496	10452
1778.637	10317
1780.778	10405
1782.918	10281
1785.057	10331
1787.194	10404
1789.333	10416
1791.472	10381
1793.608	10363
1795.745	10353
1797.879	10358
1800.015	10478
1802.148	10191
1804.284	10314
1806.417	10271
1808.548	10396
1810.682	10417
1812.812	10456
1814.946	10383
1817.075	10165
1819.205	10309
1821.335	10386
1823.463	10285
1825.59	10383
1827.721	10151
1829.847	10297
1831.973	10145
1834.098	10260
1836.223	10137
1838.351	10265
1840.475	10374
1842.598	10241
1844.721	10405
1846.843	10223
1848.966	10210
1851.087	10240
1853.21	10056
1855.33	10114
1857.449	10251
1859.568	10318
1861.688	10064
1863.806	10244
1865.924	10224
1868.039	10200
1870.155	10311
1872.273	10129
1874.388	10149
1876.503	10052
1878.617	10205
1880.73	10277
1882.844	10323
1884.956	10294
1887.068	10289
1889.18	10391
1891.291	10322
1893.4	10339
1895.511	10259
1897.621	10271
1899.73	10178
1901.837	10317
1903.944	10535
1906.053	10270
1908.159	10441
1910.265	10306
1912.369	10469
1914.474	10428
1916.577	10357
1918.683	10302
1920.785	10346
1922.888	10408
1924.989	10345
1927.091	10478
1929.193	10277
1931.294	10450
1933.393	10527
1935.493	10470
1937.59	10479
1939.689	10330
1941.788	10301
1943.884	10384
1945.98	10629
1948.077	10432
1950.171	10428
1952.267	10252
1954.361	10374
1956.455	10419
1958.548	10359
1960.64	10385
1962.733	10532
1964.824	10404
1966.915	10334
1969.005	10352
1971.096	10302
1973.185	10389
1975.275	10334
1977.363	10435
1979.45	10367
1981.537	10315
1983.623	10389
1985.711	10385
1987.796	10262
1989.881	10270
1991.965	10460
1994.047	10320
1996.132	10333
1998.215	10193
2000.297	10401
2002.378	10317
2004.46	10332
2006.54	10202
2008.62	10607
2010.7	10396
2012.779	10268
2014.858	10307
2016.934	10407
2019.013	10278
2021.09	10250
2023.165	10195
2025.241	10414
2027.317	10228
2029.39	10257
2031.466	10326
2033.538	10178
2035.612	10343
2037.683	10198
2039.755	10255
2041.827	10346
2043.898	10244
2045.968	10200
2048.038	10332
2050.106	10302
2052.177	10448
2054.244	10373
2056.313	10288
2058.379	10328
2060.444	10313
2062.511	10282
2064.577	10280
2066.641	10424
2068.705	10231
2070.77	10241
2072.832	10289
2074.896	10262
2076.958	10328
2079.02	10247
2081.081	10139
2083.141	10403
2085.2	10355
2087.261	10286
2089.319	10217
2091.377	10233
2093.435	10253
2095.492	10238
2097.552	10335
2099.607	10258
2101.663	10271
2103.718	10217
2105.771	10394
2107.826	10127
2109.879	10339
2111.932	10395
2113.985	10321
2116.037	10325
2118.088	10331
2120.141	10299
2122.191	10437
2124.239	10223
2126.288	10242
2128.337	10334
2130.387	10184
2132.434	10172
2134.481	10320
2136.528	10225
2138.574	10259
2140.618	10189
2142.665	10266
2144.71	10300
2146.753	10253
2148.797	10248
2150.838	10205
2152.883	10183
2154.923	10195
2156.965	10194
2159.007	10178
2161.046	10184
2163.086	10215
2165.126	10153
2167.163	10196
2169.202	10256
2171.239	10110
2173.277	10188
2175.314	10209
2177.349	10094
2179.385	10217
2181.42	10078
2183.453	10134
2185.49	10008
2187.522	9963
2189.555	10111
2191.586	9995
2193.619	9961
2195.651	10016
2197.682	10134
2199.711	10074
2201.74	10118
2203.769	9877
2205.799	10222
2207.828	10269
2209.855	10000
2211.882	10091
2213.908	9881
2215.934	9915
2217.961	9966
2219.986	10141
2222.01	9936
2224.034	10008
2226.057	9988
2228.08	9981
2230.104	10020
2232.124	10089
2234.145	10107
2236.166	9944
2238.186	10184
2240.207	9896
2242.227	9909
2244.244	10006
2246.262	9924
2248.28	9940
2250.299	9933
2252.314	10133
2254.33	9975
2256.346	10267
2258.36	10056
2260.375	10095
2262.391	10051
2264.403	9887
2266.416	10102
2268.427	10045
2270.44	9891
2272.453	10028
2274.463	9945
2276.474	9889
2278.483	9932
2280.493	10053
2282.501	9952
2284.51	9810
2286.518	9947
2288.524	10006
2290.532	10010
2292.537	9890
2294.544	9923
2296.55	10025
2298.554	9936
2300.557	9988
2302.562	10060
2304.566	9978
2306.568	9948
2308.569	9929
2310.572	10003
2312.573	10085
2314.573	9992
2316.574	10008
2318.573	9923
2320.571	9912
2322.571	9911
2324.569	9815
2326.567	9794
2328.564	9871
2330.56	9706
2332.556	10072
2334.551	9857
2336.546	9798
2338.542	9832
2340.535	9840
2342.529	10004
2344.521	9808
2346.512	9778
2348.505	9808
2350.497	9767
2352.487	9654
2354.478	9728
2356.468	9810
2358.457	9816
2360.446	9771
2362.434	9790
2364.422	9711
2366.408	9778
2368.395	9750
2370.383	9772
2372.369	9677
2374.353	9755
2376.338	9692
2378.321	9667
2380.307	9622
2382.29	9674
2384.272	9630
2386.254	9666
2388.235	9688
2390.218	9671
2392.198	9672
2394.179	9463
2396.157	9606
2398.137	9640
2400.115	9423
2402.095	9603
2404.072	9671
2406.048	9713
2408.026	9614
2410.001	9687
2411.977	9500
2413.953	9617
2415.927	9621
2417.9	9671
2419.875	9710
2421.847	9568
2423.821	9513
2425.792	9626
2427.763	9584
2429.736	9526
2431.706	9697
2433.677	9591
2435.646	9570
2437.615	9577
2439.583	9587
2441.551	9550
2443.519	9763
2445.486	9554
2447.452	9536
2449.418	9536
2451.383	9594
2453.348	9488
2455.314	9618
2457.278	9552
2459.241	9589
2461.205	9493
2463.167	9529
2465.131	9580
2467.091	9556
2469.052	9569
2471.012	9588
2472.972	9606
2474.932	9405
2476.891	9606
2478.85	9507
2480.808	9432
2482.766	9591
2484.722	9461
2486.68	9482
2488.636	9530
2490.591	9495
2492.546	9514
2494.5	9353
2496.456	9457
2498.41	9508
2500.362	9518
2502.315	9406
2504.266	9495
2506.218	9598
2508.169	9341
2510.121	9517
2512.07	9406
2514.019	9337
2515.968	9513
2517.918	9536
2519.866	9513
2521.813	9477
2523.76	9253
2525.707	9437
2527.653	9416
2529.599	9422
2531.543	9424
2533.489	9529
2535.433	9342
2537.376	9390
2539.32	9420
2541.264	9334
2543.205	9403
2545.147	9420
2547.087	9386
2549.029	9419
2550.969	9281
2552.908	9416
2554.847	9476
2556.786	9249
2558.724	9331
2560.663	9267
2562.6	9393
2564.537	9476
2566.473	9369
2568.408	9546
2570.345	9431
2572.28	9360
2574.214	9331
2576.148	9274
2578.081	9422
2580.014	9325
2581.947	9403
2583.879	9329
2585.81	9283
2587.741	9411
2589.67	9329
2591.602	9233
2593.532	9373
2595.461	9317
2597.388	9347
2599.316	9297
2601.244	9292
2603.172	9350
2605.098	9383
2607.023	9324
2608.949	9306
2610.873	9224
2612.8	9422
2614.723	9373
2616.647	9415
2618.569	9379
2620.493	9481
2622.416	9458
2624.338	9431
2626.258	9260
2628.179	9443
2630.099	9315
2632.019	9346
2633.939	9283
2635.857	9419
2637.775	9565
2639.694	9396
2641.61	9389
2643.528	9390
2645.444	9401
2647.361	9283
2649.276	9250
2651.19	9447
2653.105	9301
2655.019	9361
2656.934	9290
2658.846	9448
2660.758	9377
2662.67	9380
2664.583	9342
2666.493	9320
2668.404	9431
2670.313	9340
2672.223	9336
2674.134	9324
2676.042	9392
2677.95	9324
2679.858	9290
2681.765	9275
2683.673	9280
2685.579	9145
2687.483	9352
2689.389	9233
2691.294	9309
2693.198	9184
2695.104	9396
2697.006	9272
2698.909	9195
2700.811	9142
2702.713	9293
2704.615	9313
2706.516	9150
2708.417	9238
2710.316	9247
2712.216	9269
2714.115	9100
2716.014	9122
2717.913	9140
2719.81	9148
2721.707	9080
2723.603	9285
2725.501	9263
2727.396	9227
2729.292	9112
2731.186	8953
2733.081	9137
2734.976	9155
2736.87	8982
2738.762	9104
2740.653	9105
2742.546	9089
2744.437	9053
2746.329	9085
2748.22	9080
2750.11	9161
2751.999	8834
2753.889	9077
2755.778	9001
2757.666	9166
2759.553	9014
2761.44	9043
2763.328	9044
2765.215	9018
2767.101	9029
2768.986	9044
2770.87	9011
2772.754	8949
2774.638	9043
2776.523	9091
2778.405	8926
2780.288	9029
2782.17	8967
2784.051	9016
2785.934	9035
2787.814	9050
2789.694	9121
2791.574	8940
2793.453	8985
2795.332	9068
2797.212	9027
2799.088	8949
2800.966	8966
2802.843	9140
2804.719	8972
2806.597	9090
2808.471	9015
2810.346	8931
2812.221	8768
2814.094	8895
2815.969	8908
2817.843	8875
2819.714	8854
2821.587	9012
2823.459	9047
2825.329	8978
2827.202	8879
2829.072	8938
2830.942	8822
2832.811	8968
2834.68	9003
2836.549	8931
2838.418	8889
2840.284	8913
2842.152	8904
2844.018	8953
2845.885	8922
2847.751	8774
2849.616	8844
2851.482	8851
2853.345	8915
2855.208	9011
2857.074	8835
2858.937	8990
2860.799	8984
2862.66	8945
2864.522	8905
2866.385	8886
2868.245	8950
2870.104	9148
2871.964	9140
2873.824	9221
2875.683	9185
2877.542	9098
2879.4	9132
2881.257	9185
2883.114	9172
2884.97	9263
2886.827	9313
2888.683	9116
2890.537	9173
2892.392	9129
2894.246	9086
2896.1	9365
2897.954	9194
2899.807	9204
2901.66	9140
2903.51	9005
2905.362	9145
2907.214	9234
2909.065	9280
2910.915	9464
2912.765	9215
2914.613	9238
2916.463	9378
2918.311	9401
2920.158	9278
2922.006	9449
2923.853	9397
2925.698	9415
2927.546	9378
2929.392	9521
2931.236	9534
2933.081	9490
2934.924	9725
2936.77	9559
2938.613	9602
2940.455	9578
2942.298	9593
2944.139	9737
2945.982	9805
2947.823	9666
2949.662	9687
2951.503	9602
2953.342	9567
2955.182	9565
2957.021	9561
2958.858	9559
2960.697	9300
2962.534	9514
2964.37	9431
2966.207	9300
2968.044	9300
2969.879	9186
2971.714	9163
2973.548	9179
2975.383	9175
2977.218	9157
2979.051	9189
2980.883	9101
2982.715	8983
2984.547	9114
2986.379	9096
2988.21	9063
2990.04	8969
2991.87	8992
2993.7	8864
2995.53	8865
2997.359	8882
2999.187	8846
3001.015	8855
3002.842	8764
3004.669	8701
3006.497	8634
3008.323	8753
3010.148	8581
3011.974	8718
3013.797	8554
3015.623	8685
3017.447	8598
3019.27	8604
3021.094	8544
3022.915	8579
3024.737	8484
3026.56	8456
3028.38	8584
3030.201	8296
3032.022	8593
3033.84	8463
3035.662	8490
3037.481	8389
3039.298	8306
3041.117	8409
3042.933	8513
3044.752	8385
3046.568	8539
3048.385	8317
3050.2	8352
3052.016	8218
3053.83	8414
3055.646	8300
3057.46	8347
3059.272	8280
3061.086	8423
3062.898	8390
3064.711	8298
3066.524	8363
3068.335	8285
3070.145	8338
3071.956	8170
3073.766	8188
3075.576	8366
3077.385	8304
3079.193	8291
3081.002	8169
3082.81	8090
3084.618	8309
3086.425	8274
3088.231	8264
3090.036	8133
3091.842	8168
3093.648	8201
3095.452	8156
3097.257	8251
3099.06	8282
3100.863	7977
3102.666	8028
3104.47	8161
3106.272	8004
3108.073	8106
3109.875	8076
3111.676	8099
3113.477	8096
3115.277	8126
3117.077	8035
3118.874	8013
3120.673	8013
3122.473	8074
3124.271	7938
3126.066	8034
3127.863	7964
3129.66	8089
3131.456	7997
3133.252	7889
3135.047	7975
3136.842	8026
3138.635	8018
3140.429	8030
3142.223	7841
3144.016	7851
3145.808	7958
3147.6	7928
3149.392	7874
3151.183	7926
3152.975	7903
3154.765	7925
3156.553	7911
3158.344	7967
3160.132	7886
3161.922	7748
3163.71	7865
3165.497	7795
3167.285	7888
3169.071	7882
3170.858	7678
3172.645	7880
3174.429	7918
3176.214	7789
3177.998	7914
3179.783	7846
3181.568	7773
3183.351	7872
3185.133	7783
3186.915	7684
3188.698	7899
3190.481	7765
3192.261	7793
3194.042	7892
3195.822	7757
3197.601	7812
3199.381	7700
3201.161	7815
3202.939	7786
3204.717	7710
3206.495	7650
3208.272	7747
3210.05	7698
3211.826	7782
3213.602	7684
3215.376	7744
3217.151	7653
3218.927	7593
3220.702	7679
3222.476	7603
3224.249	7667
3226.021	7638
3227.793	7732
3229.567	7730
3231.339	7573
3233.109	7609
3234.88	7696
3236.651	7618
3238.421	7682
3240.191	7616
3241.96	7699
3243.728	7631
3245.497	7588
3247.263	7640
3249.033	7666
3250.799	7643
3252.566	7636
3254.331	7615
3256.097	7629
3257.863	7579
3259.628	7549
3261.392	7578
3263.156	7554
3264.919	7566
3266.683	7621
3268.447	7608
3270.208	7639
3271.969	7604
3273.731	7643
3275.492	7606
3277.253	7663
3279.013	7642
3280.773	7576
3282.532	7546
3284.291	7648
3286.05	7654
3287.808	7642
3289.566	7573
3291.323	7568
3293.079	7572
3294.835	7542
3296.593	7622
3298.348	7486
3300.102	7579
3301.857	7676
3303.611	7485
3305.366	7645
3307.119	7604
3308.872	7695
3310.624	7577
3312.376	7522
3314.129	7501
3315.881	7558
3317.631	7413
3319.38	7624
3321.13	7503
3322.88	7574
3324.631	7562
3326.379	7417
3328.126	7543
3329.875	7500
3331.622	7562
3333.371	7540
3335.116	7422
3336.863	7609
3338.609	7503
3340.353	7354
3342.1	7458
3343.845	7637
3345.588	7380
3347.332	7427
3349.074	7468
3350.817	7312
3352.56	7543
3354.303	7374
3356.043	7324
3357.785	7443
3359.525	7461
3361.268	7400
3363.007	7503
3364.745	7364
3366.485	7385
3368.223	7372
3369.962	7307
3371.701	7382
3373.438	7423
3375.174	7336
3376.911	7333
3378.647	7365
3380.384	7343
3382.118	7402
3383.854	7225
3385.588	7290
3387.322	7461
3389.057	7192
3390.79	7392
3392.522	7196
3394.255	7259
3395.987	7264
3397.719	7236
3399.451	7353
3401.181	7357
3402.911	7377
3404.641	7371
3406.371	7188
3408.101	7320
3409.83	7341
3411.558	7220
3413.285	7153
3415.011	7267
3416.739	7187
3418.467	7343
3420.193	7093
3421.919	7199
3423.644	7186
3425.368	7146
3427.094	7196
3428.818	7166
3430.542	7219
3432.264	7258
3433.987	7295
3435.712	7099
3437.434	7120
3439.155	7163
3440.876	7206
3442.596	7098
3444.317	7108
3446.039	7177
3447.757	7080
3449.477	7127
3451.195	7053
3452.914	7009
3454.632	7102
3456.35	6979
3458.067	7073
3459.784	7155
3461.5	7109
3463.216	7095
3464.932	6992
3466.647	6939
3468.362	6978
3470.076	6967
3471.789	6938
3473.505	6981
3475.217	6964
3476.929	6958
3478.641	6937
3480.354	6938
3482.066	6845
3483.777	7073
3485.487	6884
3487.197	7004
3488.908	6893
3490.617	6986
3492.327	6876
3494.035	6771
3495.743	6854
3497.451	6901
3499.158	6850
3500.866	6785
3502.572	6898
3504.278	6846
3505.984	6847
3507.689	6731
3509.396	6795
3511.1	6876
3512.804	6916
3514.508	6728
3516.211	6810
3517.913	6886
3519.616	6822
3521.319	6660
3523.021	6784
3524.722	6680
3526.422	6738
3528.124	6760
3529.824	6770
3531.524	6723
3533.222	6713
3534.921	6627
3536.62	6831
3538.318	6811
3540.016	6643
3541.714	6766
3543.41	6678
3545.107	6708
3546.803	6553
3548.5	6740
3550.194	6726
3551.889	6789
3553.583	6706
3555.279	6668
3556.972	6660
3558.666	6596
3560.358	6791
3562.051	6723
3563.742	6761
3565.435	6635
3567.126	6603
3568.817	6596
3570.507	6675
3572.197	6674
3573.888	6660
3575.577	6675
3577.265	6516
3578.954	6515
3580.642	6590
3582.329	6614
3584.017	6686
3585.704	6525
3587.391	6594
3589.077	6523
3590.762	6445
3592.449	6505
3594.133	6525
3595.817	6479
3597.501	6499
3599.185	6506
3600.869	6510
3602.552	6493
3604.234	6411
3605.916	6504
3607.598	6442
3609.279	6496
3610.961	6478
3612.642	6378
3614.321	6331
3616	6373
3617.68	6409
3619.36	6528
3621.039	6440
3622.716	6383
3624.394	6377
3626.071	6283
3627.748	6355
3629.425	6441
3631.102	6337
3632.778	6401
3634.452	6313
3636.127	6343
3637.803	6327
3639.477	6304
3641.151	6222
3642.823	6323
3644.497	6305
3646.171	6307
3647.842	6313
3649.515	6220
3651.185	6334
3652.857	6233
3654.527	6227
3656.198	6257
3657.868	6239
3659.537	6270
3661.207	6184
3662.875	6015
3664.544	6146
3666.212	6239
3667.879	6044
3669.546	6336
3671.212	6221
3672.88	6243
3674.546	6171
3676.211	6116
3677.875	6177
3679.541	6213
3681.205	6035
3682.87	6205
3684.533	6161
3686.196	6180
3687.859	6181
3689.521	6108
3691.184	6032
3692.845	6233
3694.507	6144
3696.167	6155
3697.827	6127
3699.487	6114
3701.148	6056
3702.808	6169
3704.466	6009
3706.125	6074
3707.783	6101
3709.442	6087
3711.099	6098
3712.757	6133
3714.412	5980
3716.068	6029
3717.725	6168
3719.381	6198
3721.036	6127
3722.689	5992
3724.344	6114
3725.998	5989
3727.652	6006
3729.305	6077
3730.958	5916
3732.61	6007
3734.262	6008
3735.915	6123
3737.565	5990
3739.217	6034
3740.866	5874
3742.516	6021
3744.165	6027
3745.816	5924
3747.464	6066
3749.113	5965
3750.761	5951
3752.409	5964
3754.057	5963
3755.703	5976
3757.35	5911
3758.996	5882
3760.641	5950
3762.289	5975
3763.933	5969
3765.577	6013
3767.222	5895
3768.865	5866
3770.508	5905
3772.152	5910
3773.796	5807
3775.438	5839
3777.079	5723
3778.721	5829
3780.363	5847
3782.003	5815
3783.643	5872
3785.283	5808
3786.923	5925
3788.563	5816
3790.203	5810
3791.841	5817
3793.479	5793
3795.115	5836
3796.753	5823
3798.391	5724
3800.027	5808
3801.664	5792
3803.299	5866
3804.935	5718
3806.571	5714
3808.206	5803
3809.839	5684
3811.473	5838
3813.107	5764
3814.74	5792
3816.375	5694
3818.006	5812
3819.638	5738
3821.27	5616
3822.9	5759
3824.532	5675
3826.163	5720
3827.792	5683
3829.423	5683
3831.051	5601
3832.682	5609
3834.311	5683
3835.938	5723
3837.566	5710
3839.193	5709
3840.821	5647
3842.448	5662
3844.075	5573
3845.7	5674
3847.325	5560
3848.951	5718
3850.576	5672
3852.201	5527
3853.825	5581
3855.448	5461
3857.072	5597
3858.694	5604
3860.318	5641
3861.939	5651
3863.562	5431
3865.183	5596
3866.804	5499
3868.426	5532
3870.045	5566
3871.666	5518
3873.285	5551
3874.904	5584
3876.524	5592
3878.142	5537
3879.76	5471
3881.378	5616
3882.995	5490
3884.612	5551
3886.229	5546
3887.845	5416
3889.461	5427
3891.076	5563
3892.691	5525
3894.307	5552
3895.922	5526
3897.536	5402
3899.149	5506
3900.761	5512
3902.374	5491
3903.988	5390
3905.6	5441
3907.212	5462
3908.822	5455
3910.433	5522
3912.045	5428
3913.655	5516
3915.265	5371
3916.875	5475
3918.483	5418
3920.093	5425
3921.702	5418
3923.309	5408
3924.917	5372
3926.523	5491
3928.13	5467
3929.739	5396
3931.344	5385
3932.95	5468
3934.555	5427
3936.159	5403
3937.766	5479
3939.369	5354
3940.974	5363
3942.577	5367
3944.181	5384
3945.783	5289
3947.386	5337
3948.989	5408
3950.59	5404
3952.191	5344
3953.791	5388
3955.394	5335
3956.994	5353
3958.593	5416
3960.192	5281
3961.791	5284
3963.392	5324
3964.99	5270
3966.588	5314
3968.185	5262
3969.782	5222
3971.379	5315
3972.976	5291
3974.572	5271
3976.168	5236
3977.763	5264
3979.358	5252
3980.954	5262
3982.548	5279
3984.142	5274
3985.736	5201
3987.329	5181
3988.922	5178
3990.516	5158
3992.108	5311
3993.698	5239
3995.29	5162
3996.881	5081
3998.473	5096
4000.064	5174
4001.653	5090
4003.242	5155
4004.832	5177
4006.422	5142
4008.01	5118
4009.598	5100
4011.186	5215
4012.773	5111
4014.36	5019
4015.947	5078
4017.534	5092
4019.119	5067
4020.705	5156
4022.291	5028
4023.876	4992
4025.461	5052
4027.044	4991
4028.627	5059
4030.211	5012
4031.795	5001
4033.378	5004
4034.96	5108
4036.542	4960
4038.124	5027
4039.704	4979
4041.286	4956
4042.867	4906
4044.447	4976
4046.026	4843
4047.606	5035
4049.187	4866
4050.765	4987
4052.343	4960
4053.92	4818
4055.498	4990
4057.076	4937
4058.654	5013
4060.23	4849
4061.806	4885
4063.381	4790
4064.957	4932
4066.533	4887
4068.107	4936
4069.682	4871
4071.256	4823
4072.829	4852
4074.404	4861
4075.977	4914
4077.549	4879
4079.121	4839
4080.693	4917
4082.265	4907
4083.836	4839
4085.407	4857
4086.977	4918
4088.547	4863
4090.117	4900
4091.687	4823
4093.256	4870
4094.825	4793
4096.392	4833
4097.96	4771
4099.528	4745
4101.097	4804
4102.663	4764
4104.229	4852
4105.795	4783
4107.361	4732
4108.928	4845
4110.493	4834
4112.058	4762
4113.621	4831
4115.186	4772
4116.75	4806
4118.313	4763
4119.876	4698
4121.438	4709
4123	4776
4124.562	4808
4126.125	4722
4127.686	4718
4129.246	4756
4130.807	4677
4132.367	4618
4133.927	4702
4135.486	4682
4137.046	4706
4138.604	4677
4140.162	4650
4141.72	4764
4143.279	4634
4144.836	4722
4146.393	4668
4147.949	4650
4149.505	4633
4151.062	4672
4152.617	4708
4154.172	4600
4155.727	4591
4157.281	4504
4158.836	4493
4160.39	4559
4161.943	4593
4163.496	4541
4165.048	4521
4166.601	4576
4168.154	4555
4169.706	4587
4171.257	4539
4172.808	4558
4174.358	4425
4175.909	4608
4177.458	4518
4179.008	4637
4180.558	4596
4182.106	4467
4183.655	4504
4185.204	4423
4186.751	4611
4188.298	4467
4189.845	4452
4191.392	4443
4192.939	4479
4194.485	4462
4196.031	4510
4197.576	4420
4199.121	4457
4200.666	4490
4202.211	4530
4203.754	4422
4205.298	4413
4206.84	4468
4208.384	4469
4209.927	4407
4211.47	4428
4213.011	4435
4214.552	4364
4216.094	4387
4217.635	4422
4219.175	4394
4220.716	4396
4222.255	4389
4223.793	4307
4225.335	4414
4226.873	4419
4228.411	4386
4229.948	4317
4231.486	4327
4233.024	4356
4234.562	4381
4236.098	4443
4237.634	4376
4239.169	4367
4240.705	4325
4242.241	4359
4243.776	4372
4245.31	4400
4246.844	4283
4248.378	4321
4249.911	4335
4251.445	4341
4252.978	4364
4254.51	4291
4256.042	4343
4257.574	4348
4259.107	4275
4260.638	4279
4262.169	4276
4263.699	4331
4265.228	4281
4266.759	4294
4268.289	4328
4269.818	4331
4271.345	4304
4272.874	4345
4274.402	4253
4275.931	4256
4277.458	4236
4278.985	4228
4280.512	4262
4282.037	4218
4283.564	4290
4285.089	4172
4286.615	4204
4288.139	4167
4289.664	4175
4291.187	4298
4292.712	4290
4294.235	4222
4295.759	4228
4297.281	4206
4298.804	4165
4300.327	4211
4301.849	4203
4303.37	4225
4304.891	4137
4306.412	4171
4307.933	4149
4309.453	4186
4310.973	4152
4312.492	4121
