398.1873	2744
400.7097	2678
403.2336	2718
405.7547	2662
408.2751	2667
410.7948	2803
413.3138	2738
415.83	2768
418.3497	2773
420.8666	2813
423.3829	2807
425.8985	2838
428.4133	2854
430.9275	2881
433.441	2875
435.9538	2909
438.4639	2817
440.9753	2874
443.4881	2831
445.9982	2862
448.5055	2926
451.0142	2911
453.5201	2873
456.0274	2906
458.5361	2878
461.04	2891
463.5453	2879
466.0478	2860
468.5517	2926
471.0549	2840
473.5574	2958
476.0572	2892
478.5584	2900
481.0568	2852
483.5545	2960
486.0557	2926
488.5521	2977
491.0478	2964
493.5449	2847
496.0392	2902
498.5349	2904
501.0299	2962
503.5222	2869
506.0139	2966
508.5048	2987
510.9991	3003
513.4887	2979
515.9777	2961
518.4659	2844
520.9534	2958
523.4403	3044
525.9306	3043
528.4161	2996
530.9009	3090
533.3851	2945
535.8687	2944
538.3535	2995
540.8356	2951
543.3171	2976
545.7979	2935
548.278	3045
550.7595	2939
553.2383	2974
555.7144	3001
558.1918	3049
560.6685	3049
563.1446	3040
565.6221	3007
568.0968	2952
570.5688	3089
573.0422	3032
575.515	3138
577.989	3042
580.4584	3118
582.9291	3135
585.3991	3092
587.8685	3082
590.3352	3165
592.8052	3121
595.2706	3084
597.7372	3125
600.2033	3150
602.6666	3121
605.1334	3081
607.5953	3084
610.0587	3082
612.5193	3020
614.9814	3058
617.4427	2964
619.9034	3033
622.3615	3046
624.8208	3121
627.2775	3108
629.7335	2987
632.1929	3073
634.6476	3036
637.1016	3054
639.5569	3034
642.0096	3183
644.4637	3061
646.9151	3065
649.3678	3131
651.8179	3110
654.2672	3113
656.7159	3154
659.166	3167
661.6154	3106
664.0622	3075
666.5082	3150
668.9537	3156
671.4005	3084
673.8445	3153
676.288	3138
678.7308	3186
681.1729	3182
683.6163	3096
686.0572	3201
688.4973	3156
690.9368	3233
693.3757	3076
695.8138	3149
698.2534	3222
700.6902	3155
703.1245	3238
705.56	3154
707.9949	3177
710.4311	3289
712.8647	3235
715.2957	3239
717.7279	3297
720.1595	3208
722.5905	3262
725.0208	3280
727.4505	3272
729.8795	3254
732.3058	3316
734.7336	3344
737.1626	3301
739.587	3303
742.0128	3276
744.4359	3324
746.8604	3302
749.2841	3347
751.7073	3357
754.1278	3380
756.5496	3435
758.9688	3329
761.3893	3394
763.8093	3341
766.2285	3395
768.6451	3296
771.0611	3408
773.4784	3434
775.895	3365
778.3091	3415
780.7244	3342
783.1371	3470
785.5493	3435
787.9626	3364
790.3754	3332
792.7856	3335
795.1951	3363
797.6039	3409
800.0121	3376
802.4236	3427
804.8306	3410
807.2369	3410
809.6425	3391
812.0475	3451
814.4538	3499
816.8575	3392
819.2606	3382
821.663	3381
824.0648	3403
826.4659	3406
828.8683	3438
831.2682	3486
833.6674	3444
836.066	3507
838.4639	3402
840.8632	3388
843.2579	3421
845.6539	3531
848.0493	3429
850.444	3400
852.84	3463
855.2315	3524
857.6243	3420
860.0165	3444
862.4081	3489
864.797	3411
867.1892	3530
869.5789	3495
871.9659	3432
874.3542	3480
876.74	3531
879.129	3465
881.5155	3448
883.8994	3481
886.2845	3439
888.6671	3520
891.051	3439
893.4343	3424
895.8169	3485
898.197	3461
900.5783	3475
902.9571	3587
905.3372	3522
907.7167	3534
910.0936	3477
912.4698	3491
914.8474	3468
917.2244	3537
919.5987	3490
921.9744	3525
924.3475	3599
926.72	3576
929.0918	3611
931.4669	3614
933.8375	3587
936.2074	3650
938.5767	3662
940.9454	3683
943.3154	3698
945.6829	3709
948.0497	3763
950.4178	3984
952.7833	3971
955.1483	4055
957.5145	4302
959.8782	4211
962.2412	4299
964.6036	4142
966.9655	4054
969.3266	3960
971.6871	3854
974.0471	3695
976.4064	3682
978.765	3644
981.125	3638
983.4824	3609
985.8373	3564
988.1935	3559
990.549	3629
992.9039	3656
995.2602	3618
997.6119	3539
999.965	3621
1002.317	3686
1004.667	3703
1007.02	3589
1009.371	3627
1011.719	3595
1014.068	3597
1016.415	3648
1018.765	3600
1021.111	3632
1023.458	3612
1025.804	3666
1028.147	3660
1030.49	3651
1032.837	3637
1035.179	3657
1037.522	3627
1039.862	3809
1042.204	3615
1044.546	3597
1046.884	3650
1049.224	3749
1051.562	3644
1053.899	3632
1056.237	3709
1058.575	3695
1060.91	3700
1063.244	3731
1065.58	3700
1067.913	3691
1070.248	3812
1072.579	3797
1074.911	3753
1077.242	3737
1079.572	3765
1081.905	3734
1084.234	3681
1086.562	3747
1088.89	3684
1091.217	3681
1093.544	3720
1095.871	3740
1098.197	3718
1100.521	3749
1102.845	3698
1105.169	3785
1107.491	3602
1109.814	3723
1112.135	3729
1114.456	3777
1116.776	3619
1119.096	3724
1121.415	3780
1123.734	3661
1126.052	3719
1128.369	3789
1130.686	3819
1133.002	3738
1135.318	3750
1137.632	3715
1139.945	3744
1142.258	3697
1144.573	3778
1146.884	3686
1149.196	3741
1151.505	3672
1153.816	3724
1156.124	3778
1158.435	3757
1160.742	3769
1163.051	3772
1165.356	3762
1167.663	3753
1169.97	3736
1172.276	3783
1174.579	3791
1176.881	3685
1179.186	3716
1181.487	3791
1183.79	3782
1186.092	3766
1188.392	3732
1190.691	3758
1192.991	3775
1195.291	3813
1197.588	3817
1199.885	3649
1202.181	3806
1204.479	3832
1206.775	3783
1209.07	3792
1211.363	3733
1213.656	3742
1215.949	3794
1218.241	3816
1220.534	3755
1222.825	3801
1225.115	3749
1227.405	3909
1229.693	3929
1231.984	3881
1234.271	3837
1236.558	3848
1238.845	3848
1241.131	3935
1243.416	3867
1245.703	3801
1247.987	3883
1250.269	3816
1252.552	3892
1254.834	3873
1257.118	3885
1259.399	3876
1261.678	3918
1263.958	3821
1266.237	3832
1268.516	3912
1270.794	3956
1273.072	3909
1275.347	3862
1277.624	3840
1279.899	3894
1282.175	3842
1284.449	3812
1286.722	3899
1288.995	3904
1291.266	3816
1293.54	3903
1295.81	3868
1298.081	3951
1300.35	3846
1302.62	3899
1304.889	3824
1307.156	3869
1309.425	3801
1311.69	3816
1313.957	3848
1316.222	3828
1318.488	3756
1320.751	3844
1323.016	3874
1325.278	3791
1327.54	3885
1329.803	3909
1332.065	3883
1334.325	3898
1336.584	3845
1338.843	3924
1341.101	3909
1343.36	3923
1345.617	3838
1347.876	3831
1350.131	3775
1352.387	3822
1354.643	3882
1356.897	3846
1359.151	3870
1361.403	3854
1363.656	3910
1365.909	3928
1368.16	3891
1370.409	3908
1372.659	3857
1374.909	3838
1377.157	3969
1379.407	3888
1381.655	3918
1383.9	3866
1386.147	3860
1388.393	3877
1390.64	3882
1392.885	4013
1395.127	3948
1397.37	3905
1399.614	3919
1401.854	3914
1404.098	3873
1406.339	3933
1408.578	3879
1410.818	4015
1413.056	3994
1415.297	3997
1417.533	3969
1419.771	3983
1422.006	3932
1424.243	3956
1426.479	3977
1428.715	4017
1430.948	3904
1433.182	3985
1435.414	4074
1437.647	4002
1439.88	4092
1442.11	4007
1444.342	4020
1446.571	4079
1448.799	4114
1451.029	4031
1453.258	4055
1455.485	4139
1457.711	4134
1459.937	4004
1462.164	3999
1464.39	4064
1466.614	4039
1468.838	4089
1471.06	3972
1473.283	4057
1475.506	3972
1477.727	3972
1479.949	4033
1482.169	4007
1484.389	3987
1486.609	4051
1488.828	3964
1491.045	3986
1493.261	3961
1495.477	3967
1497.693	3953
1499.91	3898
1502.125	3979
1504.339	4002
1506.553	4041
1508.766	3902
1510.979	3957
1513.191	3990
1515.402	3903
1517.613	3904
1519.823	3931
1522.033	3981
1524.242	3944
1526.451	3834
1528.657	3967
1530.865	3986
1533.072	3965
1535.278	3915
1537.484	3971
1539.687	3933
1541.892	3956
1544.096	4017
1546.299	3973
1548.502	3995
1550.703	4001
1552.905	3974
1555.104	3985
1557.303	4047
1559.505	4021
1561.703	3999
1563.902	3995
1566.099	4027
1568.295	4109
1570.494	4077
1572.689	4084
1574.883	4111
1577.079	4105
1579.272	3950
1581.467	4014
1583.659	4026
1585.853	3944
1588.044	4037
1590.234	4044
1592.424	4067
1594.615	4018
1596.806	4014
1598.994	4055
1601.182	4037
1603.369	4161
1605.557	4093
1607.744	4100
1609.929	4091
1612.114	4005
1614.298	4071
1616.482	4083
1618.667	4051
1620.85	3996
1623.032	4124
1625.214	4093
1627.395	4121
1629.575	4178
1631.755	4148
1633.935	4073
1636.114	4128
1638.292	4079
1640.471	4122
1642.647	4148
1644.823	4123
1647	4100
1649.175	4131
1651.348	4112
1653.525	4227
1655.698	4009
1657.87	4181
1660.043	4168
1662.213	4163
1664.387	4162
1666.558	4145
1668.727	4209
1670.896	4159
1673.064	4203
1675.233	4168
1677.401	4131
1679.569	4152
1681.735	4163
1683.902	4120
1686.066	4217
1688.233	4110
1690.397	4114
1692.559	4082
1694.723	4162
1696.885	4232
1699.048	4080
1701.21	4113
1703.37	4046
1705.53	4172
1707.689	4026
1709.849	4081
1712.009	4111
1714.166	4043
1716.323	4071
1718.479	4101
1720.634	4108
1722.793	4087
1724.948	4090
1727.102	4184
1729.255	4148
1731.408	4107
1733.562	4114
1735.714	4131
1737.865	4099
1740.016	4091
1742.166	4073
1744.316	4139
1746.467	4083
1748.616	4167
1750.764	4082
1752.911	4074
1755.056	4099
1757.205	4136
1759.35	4184
1761.496	4113
1763.641	4116
1765.785	4132
1767.927	4107
1770.072	4179
1772.214	4047
1774.355	4172
1776.496	4184
1778.637	4163
1780.778	4168
1782.918	4080
1785.057	4141
1787.194	4093
1789.333	4128
1791.472	4168
1793.608	4186
1795.745	4261
1797.879	4127
1800.015	4163
1802.148	4199
1804.284	4157
1806.417	4134
1808.548	4168
1810.682	4187
1812.812	4128
1814.946	4186
1817.075	4205
1819.205	4181
1821.335	4168
1823.463	4151
1825.59	4275
1827.721	4126
1829.847	4207
1831.973	4141
1834.098	4167
1836.223	4171
1838.351	4245
1840.475	4163
1842.598	4165
1844.721	4246
1846.843	4156
1848.966	4131
1851.087	4125
1853.21	4061
1855.33	4124
1857.449	4127
1859.568	4227
1861.688	4104
1863.806	4104
1865.924	4132
1868.039	4191
1870.155	4178
1872.273	4131
1874.388	4127
1876.503	4141
1878.617	4155
1880.73	4187
1882.844	4142
1884.956	4222
1887.068	4174
1889.18	4250
1891.291	4229
1893.4	4182
1895.511	4227
1897.621	4224
1899.73	4031
1901.837	4209
1903.944	4280
1906.053	4204
1908.159	4182
1910.265	4268
1912.369	4241
1914.474	4268
1916.577	4206
1918.683	4232
1920.785	4249
1922.888	4207
1924.989	4188
1927.091	4240
1929.193	4219
1931.294	4320
1933.393	4314
1935.493	4276
1937.59	4255
1939.689	4205
1941.788	4226
1943.884	4283
1945.98	4276
1948.077	4348
1950.171	4243
1952.267	4187
1954.361	4172
1956.455	4290
1958.548	4240
1960.64	4326
1962.733	4260
1964.824	4286
1966.915	4268
1969.005	4308
1971.096	4164
1973.185	4303
1975.275	4224
1977.363	4173
1979.45	4247
1981.537	4200
1983.623	4168
1985.711	4173
1987.796	4190
1989.881	4115
1991.965	4271
1994.047	4220
1996.132	4250
1998.215	4157
2000.297	4253
2002.378	4305
2004.46	4244
2006.54	4232
2008.62	4228
2010.7	4270
2012.779	4248
2014.858	4147
2016.934	4129
2019.013	4217
2021.09	4286
2023.165	4290
2025.241	4216
2027.317	4175
2029.39	4217
2031.466	4248
2033.538	4288
2035.612	4276
2037.683	4165
2039.755	4158
2041.827	4245
2043.898	4210
2045.968	4133
2048.038	4194
2050.106	4158
2052.177	4238
2054.244	4234
2056.313	4245
2058.379	4239
2060.444	4212
2062.511	4235
2064.577	4205
2066.641	4250
2068.705	4181
2070.77	4327
2072.832	4152
2074.896	4229
2076.958	4141
2079.02	4319
2081.081	4305
2083.141	4274
2085.2	4297
2087.261	4333
2089.319	4180
2091.377	4270
2093.435	4345
2095.492	4193
2097.552	4163
2099.607	4287
2101.663	4191
2103.718	4298
2105.771	4216
2107.826	4324
2109.879	4253
2111.932	4266
2113.985	4245
2116.037	4292
2118.088	4293
2120.141	4284
2122.191	4290
2124.239	4272
2126.288	4357
2128.337	4318
2130.387	4239
2132.434	4378
2134.481	4266
2136.528	4282
2138.574	4233
2140.618	4295
2142.665	4232
2144.71	4247
2146.753	4198
2148.797	4317
2150.838	4299
2152.883	4286
2154.923	4273
2156.965	4211
2159.007	4247
2161.046	4235
2163.086	4184
2165.126	4199
2167.163	4212
2169.202	4217
2171.239	4140
2173.277	4207
2175.314	4086
2177.349	4210
2179.385	4259
2181.42	4211
2183.453	4221
2185.49	4125
2187.522	4154
2189.555	4238
2191.586	4180
2193.619	4193
2195.651	4301
2197.682	4195
2199.711	4187
2201.74	4101
2203.769	4290
2205.799	4156
2207.828	4172
2209.855	4221
2211.882	4150
2213.908	4190
2215.934	4255
2217.961	4199
2219.986	4158
2222.01	4129
2224.034	4127
2226.057	4230
2228.08	4105
2230.104	4149
2232.124	4190
2234.145	4125
2236.166	4149
2238.186	4226
2240.207	4237
2242.227	4184
2244.244	4196
2246.262	4160
2248.28	4216
2250.299	4112
2252.314	4189
2254.33	4118
2256.346	4183
2258.36	4186
2260.375	4188
2262.391	4148
2264.403	4161
2266.416	4154
2268.427	4181
2270.44	4175
2272.453	4172
2274.463	4229
2276.474	4170
2278.483	4209
2280.493	4115
2282.501	4215
2284.51	4123
2286.518	4243
2288.524	4244
2290.532	4167
2292.537	4175
2294.544	4172
2296.55	4298
2298.554	4142
2300.557	4213
2302.562	4217
2304.566	4231
2306.568	4097
2308.569	4177
2310.572	4129
2312.573	4125
2314.573	4225
2316.574	4160
2318.573	4217
2320.571	4223
2322.571	4209
2324.569	4193
2326.567	4139
2328.564	4209
2330.56	4213
2332.556	4214
2334.551	4252
2336.546	4116
2338.542	4127
2340.535	4105
2342.529	4141
2344.521	4276
2346.512	4094
2348.505	4164
2350.497	4159
2352.487	4185
2354.478	4146
2356.468	4062
2358.457	4115
2360.446	4164
2362.434	4074
2364.422	4107
2366.408	4060
2368.395	4095
2370.383	4195
2372.369	4045
2374.353	4156
2376.338	4144
2378.321	4169
2380.307	4187
2382.29	4105
2384.272	4099
2386.254	4108
2388.235	4161
2390.218	4098
2392.198	4082
2394.179	4040
2396.157	4125
2398.137	4106
2400.115	4122
2402.095	4090
2404.072	4120
2406.048	4092
2408.026	4064
2410.001	3987
2411.977	4056
2413.953	4022
2415.927	4105
2417.9	4062
2419.875	4161
2421.847	4136
2423.821	4151
2425.792	4112
2427.763	4163
2429.736	4127
2431.706	4075
2433.677	4100
2435.646	4126
2437.615	3979
2439.583	4102
2441.551	4020
2443.519	4129
2445.486	4045
2447.452	4135
2449.418	4094
2451.383	4082
2453.348	4088
2455.314	4132
2457.278	4120
2459.241	4088
2461.205	4073
2463.167	4108
2465.131	4125
2467.091	4127
2469.052	4130
2471.012	4041
2472.972	4069
2474.932	4191
2476.891	4139
2478.85	4033
2480.808	4033
2482.766	4143
2484.722	4102
2486.68	4046
2488.636	3994
2490.591	4166
2492.546	4046
2494.5	4052
2496.456	4101
2498.41	4055
2500.362	4016
2502.315	4017
2504.266	4015
2506.218	4049
2508.169	4038
2510.121	4086
2512.07	4086
2514.019	4024
2515.968	4023
2517.918	4188
2519.866	4000
2521.813	4043
2523.76	4055
2525.707	4075
2527.653	4042
2529.599	4090
2531.543	4049
2533.489	4029
2535.433	4077
2537.376	3994
2539.32	4076
2541.264	3981
2543.205	4001
2545.147	3980
2547.087	3966
2549.029	4063
2550.969	4085
2552.908	4114
2554.847	4039
2556.786	4060
2558.724	4068
2560.663	4041
2562.6	4053
2564.537	4043
2566.473	4043
2568.408	4015
2570.345	4006
2572.28	4065
2574.214	4081
2576.148	3973
2578.081	4056
2580.014	4118
2581.947	4090
2583.879	4073
2585.81	4090
2587.741	4074
2589.67	4052
2591.602	4065
2593.532	4047
2595.461	4015
2597.388	4021
2599.316	4057
2601.244	4112
2603.172	4070
2605.098	4059
2607.023	4059
2608.949	4119
2610.873	4072
2612.8	4125
2614.723	4024
2616.647	4071
2618.569	4090
2620.493	4154
2622.416	4126
2624.338	4051
2626.258	4067
2628.179	4098
2630.099	4003
2632.019	4008
2633.939	4095
2635.857	4048
2637.775	4163
2639.694	4117
2641.61	4082
2643.528	4074
2645.444	4018
2647.361	4001
2649.276	4101
2651.19	4116
2653.105	4054
2655.019	4063
2656.934	4022
2658.846	4017
2660.758	4107
2662.67	4102
2664.583	4094
2666.493	4144
2668.404	4076
2670.313	3972
2672.223	4099
2674.134	4154
2676.042	4018
2677.95	4105
2679.858	4083
2681.765	4056
2683.673	4058
2685.579	4037
2687.483	4032
2689.389	3938
2691.294	4012
2693.198	4004
2695.104	4064
2697.006	4109
2698.909	4108
2700.811	3982
2702.713	3968
2704.615	4048
2706.516	4015
2708.417	4025
2710.316	4035
2712.216	4014
2714.115	4060
2716.014	4041
2717.913	3902
2719.81	4061
2721.707	3997
2723.603	4070
2725.501	4019
2727.396	4109
2729.292	4014
2731.186	4040
2733.081	4003
2734.976	4015
2736.87	3934
2738.762	4008
2740.653	3965
2742.546	4011
2744.437	3976
2746.329	3946
2748.22	3954
2750.11	3958
2751.999	3981
2753.889	4080
2755.778	3967
2757.666	4040
2759.553	3941
2761.44	3940
2763.328	3998
2765.215	3955
2767.101	3984
2768.986	4076
2770.87	4031
2772.754	3977
2774.638	3979
2776.523	4010
2778.405	3905
2780.288	3936
2782.17	3937
2784.051	4039
2785.934	3971
2787.814	3886
2789.694	3967
2791.574	3875
2793.453	3952
2795.332	3947
2797.212	3991
2799.088	3868
2800.966	3965
2802.843	3981
2804.719	3956
2806.597	4039
2808.471	3915
2810.346	4000
2812.221	3939
2814.094	4007
2815.969	3887
2817.843	4072
2819.714	4054
2821.587	3931
2823.459	3971
2825.329	3931
2827.202	3953
2829.072	3945
2830.942	3967
2832.811	3901
2834.68	3969
2836.549	3957
2838.418	3916
2840.284	3966
2842.152	3913
2844.018	3998
2845.885	4014
2847.751	3987
2849.616	3954
2851.482	3936
2853.345	3933
2855.208	3936
2857.074	3995
2858.937	3980
2860.799	3957
2862.66	3949
2864.522	3969
2866.385	3939
2868.245	4002
2870.104	4107
2871.964	3977
2873.824	4079
2875.683	4110
2877.542	4102
2879.4	4069
2881.257	4070
2883.114	4095
2884.97	4116
2886.827	4113
2888.683	4188
2890.537	4070
2892.392	4090
2894.246	4213
2896.1	4108
2897.954	4078
2899.807	4136
2901.66	4165
2903.51	4184
2905.362	4005
2907.214	4131
2909.065	4159
2910.915	4085
2912.765	4164
2914.613	4099
2916.463	4215
2918.311	4203
2920.158	4183
2922.006	4216
2923.853	4300
2925.698	4274
2927.546	4292
2929.392	4288
2931.236	4403
2933.081	4314
2934.924	4339
2936.77	4344
2938.613	4333
2940.455	4417
2942.298	4357
2944.139	4415
2945.982	4377
2947.823	4427
2949.662	4364
2951.503	4381
2953.342	4372
2955.182	4290
2957.021	4328
2958.858	4250
2960.697	4211
2962.534	4272
2964.37	4307
2966.207	4206
2968.044	4113
2969.879	4252
2971.714	4144
2973.548	4216
2975.383	4215
2977.218	4287
2979.051	4157
2980.883	4064
2982.715	4072
2984.547	4097
2986.379	4085
2988.21	4087
2990.04	4139
2991.87	4117
2993.7	4106
2995.53	4056
2997.359	4088
2999.187	3907
3001.015	3972
3002.842	3968
3004.669	3944
3006.497	3928
3008.323	3942
3010.148	3818
3011.974	3901
3013.797	3846
3015.623	3961
3017.447	3847
3019.27	3872
3021.094	3960
3022.915	3848
3024.737	3835
3026.56	3914
3028.38	3848
3030.201	3832
3032.022	3785
3033.84	3874
3035.662	3800
3037.481	3791
3039.298	3806
3041.117	3845
3042.933	3869
3044.752	3784
3046.568	3841
3048.385	3768
3050.2	3896
3052.016	3821
3053.83	3760
3055.646	3856
3057.46	3775
3059.272	3755
3061.086	3794
3062.898	3713
3064.711	3842
3066.524	3754
3068.335	3870
3070.145	3789
3071.956	3794
3073.766	3739
3075.576	3804
3077.385	3776
3079.193	3735
3081.002	3812
3082.81	3786
3084.618	3783
3086.425	3693
3088.231	3808
3090.036	3638
3091.842	3757
3093.648	3642
3095.452	3702
3097.257	3665
3099.06	3634
3100.863	3705
3102.666	3655
3104.47	3767
3106.272	3668
3108.073	3705
3109.875	3655
3111.676	3681
3113.477	3794
3115.277	3699
3117.077	3740
3118.874	3671
3120.673	3707
3122.473	3620
3124.271	3698
3126.066	3675
3127.863	3665
3129.66	3640
3131.456	3673
3133.252	3688
3135.047	3729
3136.842	3612
3138.635	3662
3140.429	3695
3142.223	3641
3144.016	3655
3145.808	3617
3147.6	3676
3149.392	3643
3151.183	3630
3152.975	3587
3154.765	3610
3156.553	3667
3158.344	3579
3160.132	3585
3161.922	3682
3163.71	3654
3165.497	3597
3167.285	3631
3169.071	3640
3170.858	3603
3172.645	3627
3174.429	3583
3176.214	3614
3177.998	3591
3179.783	3631
3181.568	3657
3183.351	3605
3185.133	3584
3186.915	3564
3188.698	3590
3190.481	3640
3192.261	3617
3194.042	3581
3195.822	3582
3197.601	3624
3199.381	3638
3201.161	3556
3202.939	3525
3204.717	3630
3206.495	3533
3208.272	3637
3210.05	3535
3211.826	3527
3213.602	3574
3215.376	3561
3217.151	3585
3218.927	3482
3220.702	3565
3222.476	3531
3224.249	3567
3226.021	3492
3227.793	3441
3229.567	3552
3231.339	3522
3233.109	3517
3234.88	3534
3236.651	3567
3238.421	3568
3240.191	3578
3241.96	3527
3243.728	3562
3245.497	3622
3247.263	3582
3249.033	3488
3250.799	3477
3252.566	3561
3254.331	3514
3256.097	3503
3257.863	3526
3259.628	3524
3261.392	3582
3263.156	3516
3264.919	3528
3266.683	3538
3268.447	3602
3270.208	3494
3271.969	3559
3273.731	3513
3275.492	3557
3277.253	3547
3279.013	3569
3280.773	3603
3282.532	3603
3284.291	3560
3286.05	3608
3287.808	3531
3289.566	3597
3291.323	3551
3293.079	3574
3294.835	3514
3296.593	3577
3298.348	3523
3300.102	3583
3301.857	3581
3303.611	3604
3305.366	3579
3307.119	3512
3308.872	3642
3310.624	3493
3312.376	3590
3314.129	3500
3315.881	3554
3317.631	3523
3319.38	3549
3321.13	3580
3322.88	3491
3324.631	3501
3326.379	3480
3328.126	3538
3329.875	3451
3331.622	3538
3333.371	3543
3335.116	3509
3336.863	3563
3338.609	3449
3340.353	3497
3342.1	3578
3343.845	3562
3345.588	3570
3347.332	3551
3349.074	3475
3350.817	3518
3352.56	3533
3354.303	3458
3356.043	3454
3357.785	3497
3359.525	3533
3361.268	3479
3363.007	3423
3364.745	3452
3366.485	3443
3368.223	3471
3369.962	3422
3371.701	3462
3373.438	3448
3375.174	3512
3376.911	3414
3378.647	3428
3380.384	3439
3382.118	3509
3383.854	3483
3385.588	3437
3387.322	3419
3389.057	3448
3390.79	3534
3392.522	3467
3394.255	3399
3395.987	3496
3397.719	3439
3399.451	3361
3401.181	3391
3402.911	3478
3404.641	3408
3406.371	3381
3408.101	3414
3409.83	3416
3411.558	3443
3413.285	3405
3415.011	3423
3416.739	3427
3418.467	3415
3420.193	3438
3421.919	3395
3423.644	3419
3425.368	3412
3427.094	3388
3428.818	3392
3430.542	3413
3432.264	3408
3433.987	3360
3435.712	3402
3437.434	3407
3439.155	3416
3440.876	3354
3442.596	3428
3444.317	3422
3446.039	3404
3447.757	3411
3449.477	3401
3451.195	3348
3452.914	3417
3454.632	3321
3456.35	3355
3458.067	3389
3459.784	3363
3461.5	3383
3463.216	3300
3464.932	3358
3466.647	3339
3468.362	3314
3470.076	3344
3471.789	3290
3473.505	3339
3475.217	3314
3476.929	3312
3478.641	3296
3480.354	3301
3482.066	3314
3483.777	3326
3485.487	3309
3487.197	3270
3488.908	3268
3490.617	3234
3492.327	3293
3494.035	3262
3495.743	3290
3497.451	3260
3499.158	3264
3500.866	3256
3502.572	3232
3504.278	3302
3505.984	3299
3507.689	3228
3509.396	3214
3511.1	3290
3512.804	3281
3514.508	3239
3516.211	3295
3517.913	3272
3519.616	3245
3521.319	3282
3523.021	3254
3524.722	3167
3526.422	3271
3528.124	3223
3529.824	3185
3531.524	3209
3533.222	3281
3534.921	3261
3536.62	3251
3538.318	3184
3540.016	3210
3541.714	3180
3543.41	3220
3545.107	3165
3546.803	3185
3548.5	3228
3550.194	3196
3551.889	3212
3553.583	3219
3555.279	3245
3556.972	3243
3558.666	3179
3560.358	3277
3562.051	3194
3563.742	3129
3565.435	3235
3567.126	3232
3568.817	3145
3570.507	3155
3572.197	3148
3573.888	3244
3575.577	3121
3577.265	3220
3578.954	3151
3580.642	3126
3582.329	3153
3584.017	3144
3585.704	3259
3587.391	3201
3589.077	3178
3590.762	3159
3592.449	3081
3594.133	3148
3595.817	3065
3597.501	3147
3599.185	3112
3600.869	3145
3602.552	3089
3604.234	3147
3605.916	3143
3607.598	3128
3609.279	3191
3610.961	3093
3612.642	3076
3614.321	3113
3616	3000
3617.68	3051
3619.36	3113
3621.039	3038
3622.716	3047
3624.394	3096
3626.071	3114
3627.748	3067
3629.425	3058
3631.102	3046
3632.778	3006
3634.452	2969
3636.127	3086
3637.803	3097
3639.477	3062
3641.151	3064
3642.823	3009
3644.497	3105
3646.171	3016
3647.842	3006
3649.515	3023
3651.185	3003
3652.857	3052
3654.527	3010
3656.198	2978
3657.868	2931
3659.537	2973
3661.207	2995
3662.875	2994
3664.544	3033
3666.212	2987
3667.879	3001
3669.546	3018
3671.212	3002
3672.88	2992
3674.546	2952
3676.211	2954
3677.875	3031
3679.541	2922
3681.205	3001
3682.87	3014
3684.533	2979
3686.196	2967
3687.859	3011
3689.521	2990
3691.184	3075
3692.845	2967
3694.507	2944
3696.167	3018
3697.827	3050
3699.487	3057
3701.148	2936
3702.808	2937
3704.466	2908
3706.125	3028
3707.783	2939
3709.442	2955
3711.099	2879
3712.757	2913
3714.412	3027
3716.068	2981
3717.725	2928
3719.381	2959
3721.036	2913
3722.689	2908
3724.344	2996
3725.998	2889
3727.652	2929
3729.305	2888
3730.958	2938
3732.61	2970
3734.262	2953
3735.915	2944
3737.565	2915
3739.217	2873
3740.866	2951
3742.516	2932
3744.165	2839
3745.816	2910
3747.464	2889
3749.113	2946
3750.761	2944
3752.409	2866
3754.057	2898
3755.703	2901
3757.35	2917
3758.996	2953
3760.641	2905
3762.289	2871
3763.933	2863
3765.577	2911
3767.222	2917
3768.865	2912
3770.508	2875
3772.152	2879
3773.796	2817
3775.438	2885
3777.079	2863
3778.721	2865
3780.363	2808
3782.003	2834
3783.643	2798
3785.283	2837
3786.923	2867
3788.563	2827
3790.203	2878
3791.841	2862
3793.479	2829
3795.115	2882
3796.753	2863
3798.391	2831
3800.027	2804
3801.664	2847
3803.299	2898
3804.935	2797
3806.571	2804
3808.206	2789
3809.839	2840
3811.473	2839
3813.107	2754
3814.74	2819
3816.375	2801
3818.006	2855
3819.638	2785
3821.27	2784
3822.9	2818
3824.532	2713
3826.163	2851
3827.792	2776
3829.423	2797
3831.051	2787
3832.682	2849
3834.311	2828
3835.938	2800
3837.566	2763
3839.193	2759
3840.821	2805
3842.448	2859
3844.075	2802
3845.7	2767
3847.325	2735
3848.951	2779
3850.576	2758
3852.201	2795
3853.825	2770
3855.448	2711
3857.072	2748
3858.694	2785
3860.318	2824
3861.939	2781
3863.562	2797
3865.183	2744
3866.804	2763
3868.426	2790
3870.045	2717
3871.666	2744
3873.285	2697
3874.904	2728
3876.524	2710
3878.142	2752
3879.76	2698
3881.378	2664
3882.995	2685
3884.612	2701
3886.229	2703
3887.845	2656
3889.461	2697
3891.076	2833
3892.691	2667
3894.307	2746
3895.922	2795
3897.536	2699
3899.149	2752
3900.761	2767
3902.374	2693
3903.988	2755
3905.6	2715
3907.212	2735
3908.822	2750
3910.433	2683
3912.045	2697
3913.655	2706
3915.265	2692
3916.875	2725
3918.483	2719
3920.093	2656
3921.702	2704
3923.309	2720
3924.917	2655
3926.523	2695
3928.13	2675
3929.739	2663
3931.344	2768
3932.95	2713
3934.555	2683
3936.159	2632
3937.766	2653
3939.369	2685
3940.974	2669
3942.577	2702
3944.181	2726
3945.783	2711
3947.386	2616
3948.989	2680
3950.59	2600
3952.191	2722
3953.791	2654
3955.394	2703
3956.994	2737
3958.593	2766
3960.192	2637
3961.791	2596
3963.392	2754
3964.99	2641
3966.588	2619
3968.185	2693
3969.782	2641
3971.379	2605
3972.976	2641
3974.572	2540
3976.168	2632
3977.763	2577
3979.358	2641
3980.954	2557
3982.548	2651
3984.142	2558
3985.736	2638
3987.329	2605
3988.922	2626
3990.516	2619
3992.108	2619
3993.698	2575
3995.29	2618
3996.881	2547
3998.473	2496
4000.064	2589
4001.653	2633
4003.242	2643
4004.832	2590
4006.422	2579
4008.01	2560
4009.598	2584
4011.186	2580
4012.773	2544
4014.36	2530
4015.947	2551
4017.534	2531
4019.119	2548
4020.705	2584
4022.291	2560
4023.876	2510
4025.461	2521
4027.044	2572
4028.627	2599
4030.211	2612
4031.795	2514
4033.378	2569
4034.96	2509
4036.542	2511
4038.124	2472
4039.704	2493
4041.286	2447
4042.867	2511
4044.447	2488
4046.026	2567
4047.606	2607
4049.187	2549
4050.765	2502
4052.343	2539
4053.92	2508
4055.498	2547
4057.076	2526
4058.654	2526
4060.23	2449
4061.806	2613
4063.381	2497
4064.957	2529
4066.533	2486
4068.107	2469
4069.682	2458
4071.256	2461
4072.829	2484
4074.404	2476
4075.977	2414
4077.549	2504
4079.121	2470
4080.693	2583
4082.265	2454
4083.836	2457
4085.407	2535
4086.977	2484
4088.547	2428
4090.117	2503
4091.687	2477
4093.256	2465
4094.825	2516
4096.392	2435
4097.96	2442
4099.528	2512
4101.097	2428
4102.663	2449
4104.229	2446
4105.795	2467
4107.361	2435
4108.928	2412
4110.493	2488
4112.058	2444
4113.621	2419
4115.186	2472
4116.75	2500
4118.313	2423
4119.876	2424
4121.438	2417
4123	2399
4124.562	2449
4126.125	2418
4127.686	2375
4129.246	2415
4130.807	2457
4132.367	2406
4133.927	2394
4135.486	2436
4137.046	2314
4138.604	2431
4140.162	2409
4141.72	2458
4143.279	2378
4144.836	2356
4146.393	2401
4147.949	2353
4149.505	2381
4151.062	2444
4152.617	2342
4154.172	2306
4155.727	2447
4157.281	2404
4158.836	2339
4160.39	2335
4161.943	2356
4163.496	2331
4165.048	2397
4166.601	2345
4168.154	2374
4169.706	2422
4171.257	2354
4172.808	2410
4174.358	2412
4175.909	2320
4177.458	2357
4179.008	2350
4180.558	2265
4182.106	2343
4183.655	2267
4185.204	2289
4186.751	2334
4188.298	2314
4189.845	2290
4191.392	2371
4192.939	2320
4194.485	2330
4196.031	2333
4197.576	2303
4199.121	2317
4200.666	2305
4202.211	2325
4203.754	2338
4205.298	2287
4206.84	2297
4208.384	2263
4209.927	2271
4211.47	2321
4213.011	2284
4214.552	2293
4216.094	2296
4217.635	2298
4219.175	2293
4220.716	2244
4222.255	2281
4223.793	2268
4225.335	2295
4226.873	2304
4228.411	2207
4229.948	2268
4231.486	2287
4233.024	2286
4234.562	2266
4236.098	2327
4237.634	2326
4239.169	2263
4240.705	2284
4242.241	2287
4243.776	2230
4245.31	2268
4246.844	2206
4248.378	2276
4249.911	2239
4251.445	2286
4252.978	2204
4254.51	2290
4256.042	2237
4257.574	2301
4259.107	2303
4260.638	2240
4262.169	2235
4263.699	2230
4265.228	2291
4266.759	2211
4268.289	2224
4269.818	2275
4271.345	2236
4272.874	2284
4274.402	2213
4275.931	2253
4277.458	2201
4278.985	2166
4280.512	2179
4282.037	2213
4283.564	2210
4285.089	2248
4286.615	2186
4288.139	2245
4289.664	2190
4291.187	2202
4292.712	2226
4294.235	2200
4295.759	2157
4297.281	2228
4298.804	2227
4300.327	2156
4301.849	2158
4303.37	2196
4304.891	2179
4306.412	2225
4307.933	2166
4309.453	2218
4310.973	2150
4312.492	2232
