200.151048	59258.333333
201.758777	59278.333333
203.365815	59114.000000
204.972162	59048.333333
206.577820	59131.666667
208.182787	59091.000000
209.787065	59076.666667
211.390653	58898.333333
212.993553	58976.000000
214.595765	59060.333333
216.197289	58966.000000
217.798125	59000.000000
219.398274	58769.000000
220.997737	58812.000000
222.596513	58998.666667
224.194603	58806.333333
225.792008	58713.333333
227.388728	58870.333333
228.984763	58739.000000
230.580114	58812.666667
232.174781	58830.000000
233.768765	58571.666667
235.362065	58798.333333
236.954683	58631.000000
238.546619	58783.666667
240.137872	58472.000000
241.728445	58663.333333
243.318336	58286.666667
244.907546	58446.000000
246.496076	58370.666667
248.083926	58245.333333
249.671097	58031.666667
251.257589	58144.333333
252.843402	57794.666667
254.428536	57985.666667
256.012993	57718.333333
257.596772	57797.000000
259.179874	57860.333333
260.762300	57704.333333
262.344049	57374.666667
263.925122	57534.333333
265.505519	57350.000000
267.085241	57444.000000
268.664289	57455.333333
270.242662	57456.666667
271.820361	57451.333333
273.397387	57603.333333
274.973740	57671.000000
276.549419	57573.000000
278.124426	57583.000000
279.698762	57795.666667
281.272425	57709.000000
282.845417	57818.333333
284.417739	57969.666667
285.989390	57982.000000
287.560371	57876.000000
289.130682	58067.666667
290.700324	57847.666667
292.269297	57944.333333
293.837602	57818.666667
295.405238	57894.333333
296.972207	57705.000000
298.538508	57640.666667
300.104142	57427.000000
301.669110	57615.000000
303.233411	57433.000000
304.797047	57172.333333
306.360017	57036.666667
307.922322	57274.000000
309.483963	57064.333333
311.044939	56808.333333
312.605252	56766.333333
314.164900	56409.000000
315.723886	56375.666667
317.282209	56327.000000
318.839870	56363.333333
320.396868	56552.000000
321.953205	56125.333333
323.508881	56344.000000
325.063896	56166.000000
326.618251	56179.333333
328.171945	56122.000000
329.724980	56240.000000
331.277356	56032.666667
332.829072	56055.666667
334.380131	56022.666667
335.930530	56132.666667
337.480273	56121.333333
339.029357	56226.000000
340.577785	56239.666667
342.125556	56164.666667
343.672671	56111.000000
345.219130	56288.000000
346.764933	56242.000000
348.310081	56498.000000
349.854575	56328.666667
351.398414	56441.666667
352.941599	56153.666667
354.484130	56317.333333
356.026008	56058.333333
357.567234	56219.333333
359.107807	55913.333333
360.647727	55998.000000
362.186996	55938.666667
363.725614	56127.333333
365.263580	55836.333333
366.800896	55837.000000
368.337562	55597.666667
369.873578	55776.666667
371.408944	55711.333333
372.943661	55564.666667
374.477730	55405.666667
376.011150	55716.666667
377.543922	55573.333333
379.076046	55872.666667
380.607523	55244.333333
382.138353	55352.666667
383.668537	55517.666667
385.198075	55396.000000
386.726966	55413.666667
388.255213	55355.000000
389.782814	55415.666667
391.309770	55509.333333
392.836083	55360.333333
394.361751	55303.666667
395.886776	55385.666667
397.411157	55346.666667
398.934896	55629.000000
400.457992	55560.000000
401.980446	55610.666667
403.502258	55486.000000
405.023429	55409.666667
406.543959	55687.666667
408.063849	55632.333333
409.583098	55734.333333
411.101707	55826.000000
412.619677	55895.666667
414.137007	55982.333333
415.653699	56271.333333
417.169752	56274.000000
418.685167	56547.666667
420.199945	56635.000000
421.714085	56825.333333
423.227588	56916.666667
424.740454	56880.000000
426.252684	57043.666667
427.764279	56990.666667
429.275238	57009.333333
430.785561	56812.000000
432.295250	56694.333333
433.804304	56669.000000
435.312725	56179.000000
436.820511	56181.666667
438.327664	55978.000000
439.834185	55765.000000
441.340072	55638.333333
442.845327	55295.666667
444.349951	55433.333333
445.853942	54959.666667
447.357303	55226.333333
448.860033	55132.333333
450.362132	54913.000000
451.863601	54788.666667
453.364440	54643.333333
454.864650	54300.333333
456.364231	54348.000000
457.863183	54077.333333
459.361507	53857.333333
460.859203	53485.000000
462.356271	53665.000000
463.852712	53469.333333
465.348526	53297.666667
466.843714	53304.666667
468.338275	53178.666667
469.832210	53193.666667
471.325520	53047.000000
472.818205	52905.333333
474.310265	52731.000000
475.801700	53009.333333
477.292512	52777.666667
478.782700	52644.333333
480.272264	52684.000000
481.761205	52720.333333
483.249524	52581.000000
484.737221	52502.333333
486.224295	52641.000000
487.710748	52313.000000
489.196579	52256.000000
490.681790	52172.333333
492.166380	52240.333333
493.650350	52263.000000
495.133700	52160.333333
496.616431	52067.000000
498.098542	52099.333333
499.580035	51943.333333
501.060909	51763.666667
502.541165	51752.666667
504.020804	52009.666667
505.499825	51786.666667
506.978228	51765.333333
508.456016	51589.000000
509.933186	51459.666667
511.409741	51265.000000
512.885680	51294.333333
514.361004	51190.666667
515.835713	51298.666667
517.309807	51215.000000
518.783287	51241.333333
520.256153	51238.000000
521.728406	51070.000000
523.200045	51101.333333
524.671071	50963.000000
526.141485	50945.000000
527.611287	50884.666667
529.080476	50849.000000
530.549054	50999.666667
532.017021	50851.000000
533.484378	50693.000000
534.951123	50784.333333
536.417259	50756.000000
537.882785	50630.000000
539.347701	50498.333333
540.812008	50432.333333
542.275707	50543.333333
543.738797	50573.666667
545.201279	50363.333333
546.663153	50485.333333
548.124420	50584.333333
549.585080	50526.666667
551.045133	50540.000000
552.504579	50516.000000
553.963420	50513.666667
555.421655	50721.000000
556.879285	50711.666667
558.336309	50369.666667
559.792729	50520.333333
561.248545	50481.000000
562.703756	50602.000000
564.158364	50339.333333
565.612369	50667.333333
567.065770	50554.000000
568.518569	50692.333333
569.970766	50706.000000
571.422361	50814.000000
572.873354	50992.666667
574.323745	50965.000000
575.773536	51077.333333
577.222726	51177.666667
578.671316	51233.666667
580.119306	51187.666667
581.566696	51204.000000
583.013487	50904.000000
584.459679	51089.333333
585.905273	50885.666667
587.350268	50789.333333
588.794665	50665.666667
590.238465	50629.333333
591.681667	50602.333333
593.124272	50463.000000
594.566281	50206.666667
596.007694	50239.333333
597.448510	50014.333333
598.888731	49765.666667
600.328357	49588.333333
601.767388	49550.333333
603.205824	49507.333333
604.643666	49358.000000
606.080914	49016.666667
607.517568	49191.666667
608.953629	49070.333333
610.389097	49175.000000
611.823972	49009.333333
613.258255	49002.000000
614.691946	48701.333333
616.125046	48691.333333
617.557554	48374.333333
618.989471	48348.000000
620.420798	48290.666667
621.851534	48072.333333
623.281680	47976.666667
624.711237	47896.000000
626.140204	47584.000000
627.568582	47635.333333
628.996372	47600.000000
630.423573	47468.000000
631.850186	47393.666667
633.276211	47524.333333
634.701650	47275.333333
636.126501	47210.666667
637.550765	47281.666667
638.974443	47052.333333
640.397535	47176.000000
641.820041	47020.666667
643.241961	46849.333333
644.663297	46951.000000
646.084048	46749.000000
647.504214	46775.000000
648.923796	46665.333333
650.342795	46857.666667
651.761210	46472.000000
653.179041	46532.666667
654.596290	46392.333333
656.012957	46468.666667
657.429041	46461.000000
658.844543	46420.000000
660.259464	46317.333333
661.673804	46336.333333
663.087563	46111.666667
664.500741	46167.000000
665.913339	46048.666667
667.325357	46130.000000
668.736795	46253.666667
670.147654	45852.333333
671.557934	46019.000000
672.967636	45756.666667
674.376759	45740.333333
675.785304	45776.666667
677.193271	45734.333333
678.600661	45496.000000
680.007474	45442.333333
681.413711	45445.333333
682.819370	45383.333333
684.224454	45305.666667
685.628962	45200.333333
687.032895	45083.333333
688.436252	45106.000000
689.839034	45100.666667
691.241242	45132.333333
692.642876	45005.333333
694.043936	44997.000000
695.444422	44925.000000
696.844336	44851.000000
698.243676	44866.000000
699.642443	44765.000000
701.040639	44856.000000
702.438262	44819.000000
703.835313	44559.333333
705.231794	44501.666667
706.627703	44487.333333
708.023041	44530.000000
709.417810	44621.000000
710.812008	44426.000000
712.205636	44425.666667
713.598694	44219.333333
714.991184	44441.000000
716.383105	44314.666667
717.774457	44159.000000
719.165241	44208.666667
720.555457	44188.000000
721.945105	44104.333333
723.334187	44087.000000
724.722701	44039.333333
726.110648	44035.666667
727.498030	44039.666667
728.884845	43865.666667
730.271094	43741.000000
731.656778	43683.333333
733.041897	43791.666667
734.426451	43804.000000
735.810441	43531.000000
737.193866	43882.333333
738.576728	43722.000000
739.959026	43672.666667
741.340760	43528.666667
742.721932	43500.000000
744.102541	43380.666667
745.482588	43412.333333
746.862073	43322.666667
748.240996	43331.333333
749.619358	43499.000000
750.997158	43445.333333
752.374398	43393.000000
753.751077	43229.666667
755.127197	43138.333333
756.502756	43119.666667
757.877756	42996.666667
759.252196	42963.666667
760.626078	42968.333333
761.999400	42947.666667
763.372165	42907.000000
764.744371	42812.000000
766.116020	42711.666667
767.487111	42689.333333
768.857646	42829.000000
770.227623	42455.000000
771.597044	42429.666667
772.965908	42522.666667
774.334217	42459.333333
775.701970	42272.000000
777.069168	42185.000000
778.435811	42226.333333
779.801899	42167.666667
781.167433	42052.666667
782.532412	42171.333333
783.896838	41866.000000
785.260710	41837.333333
786.624029	41942.333333
787.986796	41785.666667
789.349009	41899.333333
790.710671	41531.333333
792.071780	41699.666667
793.432338	41620.333333
794.792344	41592.666667
796.151799	41534.000000
797.510704	41467.666667
798.869058	41537.666667
800.226862	41483.333333
801.584116	41289.000000
802.940820	41378.000000
804.296975	41291.333333
805.652581	41237.000000
807.007638	41078.000000
808.362147	41208.000000
809.716108	41246.333333
811.069521	41122.000000
812.422387	41259.333333
813.774705	40997.000000
815.126476	40953.333333
816.477701	41097.666667
817.828380	41021.666667
819.178512	40845.000000
820.528099	40728.333333
821.877140	40781.666667
823.225637	40755.000000
824.573588	40693.000000
825.920995	40787.333333
827.267857	40647.333333
828.614176	40687.000000
829.959951	40737.000000
831.305183	40647.666667
832.649871	40570.000000
833.994017	40398.666667
835.337620	40550.333333
836.680681	40312.666667
838.023201	40543.000000
839.365178	40304.333333
840.706614	40285.666667
842.047510	40281.000000
843.387864	40257.666667
844.727678	40198.000000
846.066952	40375.666667
847.405687	40049.666667
848.743881	40360.000000
850.081537	40085.000000
851.418653	40358.000000
852.755231	40218.000000
854.091270	40195.666667
855.426771	40063.333333
856.761735	40109.000000
858.096160	40052.000000
859.430049	40043.000000
860.763401	39992.333333
862.096216	39771.666667
863.428495	39646.333333
864.760237	39670.666667
866.091444	39637.000000
867.422115	39604.333333
868.752252	39509.000000
870.081853	39583.666667
871.410919	39300.666667
872.739452	39287.333333
874.067450	39318.666667
875.394914	39197.333333
876.721845	39201.000000
878.048243	39155.666667
879.374108	39053.333333
880.699440	38859.666667
882.024240	38851.000000
883.348508	38934.666667
884.672244	38781.000000
885.995449	38597.333333
887.318122	38649.000000
888.640265	38397.666667
889.961877	38535.333333
891.282959	38545.666667
892.603510	38409.000000
893.923532	38294.000000
895.243024	38374.333333
896.561987	38230.333333
897.880422	38310.000000
899.198327	37916.333333
900.515705	38093.333333
901.832554	37843.333333
903.148875	37941.333333
904.464669	37959.000000
905.779936	38060.666667
907.094676	38149.333333
908.408889	37842.666667
909.722576	37910.666667
911.035737	37934.333333
912.348371	37944.666667
913.660481	37977.666667
914.972065	38109.666667
916.283124	38126.333333
917.593659	38261.666667
918.903669	38105.333333
920.213155	38064.333333
921.522117	38114.000000
922.830556	38001.000000
924.138471	37971.666667
925.445864	37979.000000
926.752733	37958.000000
928.059081	38022.000000
929.364906	37891.333333
930.670209	37936.333333
931.974991	37964.666667
933.279251	38045.000000
934.582990	38098.000000
935.886209	38270.666667
937.188907	38337.666667
938.491085	38423.000000
939.792743	38607.333333
941.093881	38904.666667
942.394500	39223.333333
943.694600	39555.000000
944.994181	39954.000000
946.293243	40220.000000
947.591787	40761.333333
948.889813	41277.333333
950.187322	41968.333333
951.484313	42804.666667
952.780787	43520.666667
954.076744	44363.000000
955.372184	45206.000000
956.667108	45979.666667
957.961516	46384.666667
959.255409	46610.333333
960.548785	46156.666667
961.841647	45365.000000
963.133993	44651.333333
964.425825	43422.000000
965.717142	42265.000000
967.007946	41303.000000
968.298235	40049.666667
969.588011	39132.333333
970.877273	38467.666667
972.166023	37950.333333
973.454259	37363.000000
974.741984	36993.666667
976.029196	36683.000000
977.315895	36428.333333
978.602084	36138.333333
979.887761	36065.333333
981.172926	35842.666667
982.457581	35720.000000
983.741725	35604.666667
985.025359	35554.666667
986.308483	35487.000000
987.591097	35378.666667
988.873202	35252.333333
990.154797	35218.000000
991.435883	35155.333333
992.716461	34981.666667
993.996530	35048.666667
995.276091	35015.666667
996.555144	34948.666667
997.833690	35104.666667
999.111728	35098.000000
1000.389259	34895.666667
1001.666283	35068.666667
1002.942800	34934.666667
1004.218812	34926.000000
1005.494317	34925.000000
1006.769317	34931.000000
1008.043811	34785.333333
1009.317799	34852.666667
1010.591283	34774.666667
1011.864263	34611.333333
1013.136737	34792.666667
1014.408708	34807.333333
1015.680175	34824.000000
1016.951138	34640.333333
1018.221598	34733.333333
1019.491554	34504.000000
1020.761008	34746.000000
1022.029959	34561.000000
1023.298408	34529.000000
1024.566355	34405.333333
1025.833800	34453.000000
1027.100744	34686.000000
1028.367187	34570.000000
1029.633128	34677.666667
1030.898569	34623.666667
1032.163509	34607.333333
1033.427949	34476.666667
1034.691890	34501.666667
1035.955330	34525.000000
1037.218271	34458.333333
1038.480714	34604.666667
1039.742657	34522.000000
1041.004101	34548.666667
1042.265048	34505.000000
1043.525496	34373.333333
1044.785446	34401.000000
1046.044899	34355.000000
1047.303855	34273.000000
1048.562313	34405.333333
1049.820275	34287.666667
1051.077740	34139.666667
1052.334709	33978.666667
1053.591182	33941.333333
1054.847160	33957.666667
1056.102641	34091.666667
1057.357628	33957.666667
1058.612120	34146.333333
1059.866117	34001.333333
1061.119619	34228.000000
1062.372628	33912.000000
1063.625142	34036.333333
1064.877163	34200.666667
1066.128691	33968.333333
1067.379725	34196.000000
1068.630267	34143.666667
1069.880316	34071.333333
1071.129872	33959.666667
1072.378937	33957.000000
1073.627509	33895.333333
1074.875590	33733.666667
1076.123180	33503.666667
1077.370279	33368.333333
1078.616887	33251.666667
1079.863004	33100.333333
1081.108631	33039.333333
1082.353768	32814.000000
1083.598415	32652.333333
1084.842573	32547.333333
1086.086241	32419.000000
1087.329421	32396.666667
1088.572111	32152.666667
1089.814314	32002.000000
1091.056028	31956.333333
1092.297253	31959.000000
1093.537992	31863.666667
1094.778242	31734.000000
1096.018006	31672.666667
1097.257282	31588.000000
1098.496072	31721.666667
1099.734376	31727.000000
1100.972193	31656.333333
1102.209524	31567.000000
1103.446370	31534.333333
1104.682730	31461.666667
1105.918604	31415.666667
1107.153994	31373.666667
1108.388900	31399.666667
1109.623320	31184.333333
1110.857257	31282.666667
1112.090710	31051.000000
1113.323679	31182.000000
1114.556164	31042.000000
1115.788167	30944.000000
1117.019686	30931.000000
1118.250723	30902.333333
1119.481278	30764.666667
1120.711350	30770.666667
1121.940940	30738.000000
1123.170049	30675.000000
1124.398676	30512.666667
1125.626823	30575.333333
1126.854488	30727.000000
1128.081672	30664.000000
1129.308376	30438.333333
1130.534600	30565.666667
1131.760345	30434.000000
1132.985609	30439.000000
1134.210394	30427.000000
1135.434700	30413.000000
1136.658527	30301.666667
1137.881875	30340.000000
1139.104745	30316.666667
1140.327136	30204.666667
1141.549050	30217.000000
1142.770486	30262.666667
1143.991445	30174.000000
1145.211926	30203.333333
1146.431931	30241.000000
1147.651459	30015.666667
1148.870510	30036.000000
1150.089086	30101.000000
1151.307185	29992.333333
1152.524808	30019.666667
1153.741957	29877.666667
1154.958630	29800.333333
1156.174828	29829.333333
1157.390551	29981.333333
1158.605800	29685.666667
1159.820574	29786.666667
1161.034875	29733.333333
1162.248702	29746.000000
1163.462055	29561.000000
1164.674936	29700.666667
1165.887343	29603.333333
1167.099277	29643.000000
1168.310739	29561.333333
1169.521729	29629.000000
1170.732247	29547.000000
1171.942293	29526.000000
1173.151867	29482.666667
1174.360970	29475.666667
1175.569602	29404.333333
1176.777764	29471.333333
1177.985454	29264.333333
1179.192675	29295.000000
1180.399425	29246.666667
1181.605706	29215.000000
1182.811517	29144.333333
1184.016859	28914.333333
1185.221731	28980.000000
1186.426135	29036.333333
1187.630070	28946.000000
1188.833537	28776.666667
1190.036535	28761.333333
1191.239066	28781.333333
1192.441129	28661.000000
1193.642725	28551.333333
1194.843853	28647.000000
1196.044515	28496.666667
1197.244710	28555.000000
1198.444438	28632.666667
1199.643701	28570.000000
1200.842497	28469.333333
1202.040827	28558.000000
1203.238693	28523.666667
1204.436092	28581.000000
1205.633027	28575.333333
1206.829497	28478.666667
1208.025503	28407.000000
1209.221044	28252.666667
1210.416122	28254.000000
1211.610735	28161.333333
1212.804885	28101.666667
1213.998572	28018.000000
1215.191795	28055.666667
1216.384556	27971.333333
1217.576854	27811.000000
1218.768689	27670.000000
1219.960063	27643.333333
1221.150974	27792.666667
1222.341424	27748.666667
1223.531413	27681.000000
1224.720940	27666.666667
1225.910006	27622.000000
1227.098612	27769.000000
1228.286757	27710.666667
1229.474442	27694.666667
1230.661667	27807.333333
1231.848432	27901.666667
1233.034738	27863.333333
1234.220584	27939.333333
1235.405971	27771.666667
1236.590900	27923.666667
1237.775369	27793.333333
1238.959381	27807.000000
1240.142934	27883.666667
1241.326029	27852.666667
1242.508667	27891.666667
1243.690848	27790.000000
1244.872571	27875.333333
1246.053837	27717.000000
1247.234646	27694.000000
1248.414999	27664.000000
1249.594896	27501.333333
1250.774337	27482.000000
1251.953322	27415.333333
1253.131851	27504.000000
1254.309925	27501.666667
1255.487544	27450.333333
1256.664708	27287.666667
1257.841417	27386.666667
1259.017673	27339.666667
1260.193473	27289.666667
1261.368820	27210.000000
1262.543714	27264.666667
1263.718154	27358.000000
1264.892140	27139.333333
1266.065674	27231.000000
1267.238755	27464.333333
1268.411383	27364.333333
1269.583559	27226.666667
1270.755283	27087.666667
1271.926555	27279.333333
1273.097375	27172.333333
1274.267744	27250.000000
1275.437662	27158.333333
1276.607129	27304.666667
1277.776145	26992.333333
1278.944711	27111.666667
1280.112827	27000.666667
1281.280492	26857.000000
1282.447708	27028.666667
1283.614474	26811.666667
1284.780791	26760.333333
1285.946659	26667.000000
1287.112078	26601.666667
1288.277048	26516.000000
1289.441570	26410.000000
1290.605644	26482.666667
1291.769270	26406.000000
1292.932448	26321.333333
1294.095178	26161.666667
1295.257461	26188.333333
1296.419298	26168.000000
1297.580687	26191.666667
1298.741630	25970.666667
1299.902126	26013.666667
1301.062177	26013.000000
1302.221781	25977.666667
1303.380940	25923.333333
1304.539653	25963.333333
1305.697921	25886.666667
1306.855744	26052.666667
1308.013123	25956.666667
1309.170056	25812.333333
1310.326546	25937.000000
1311.482591	26002.333333
1312.638193	25960.000000
1313.793350	25901.333333
1314.948065	25772.666667
1316.102336	25779.000000
1317.256164	25718.666667
1318.409550	25634.333333
1319.562493	25445.333333
1320.714993	25550.000000
1321.867052	25334.000000
1323.018668	25302.666667
1324.169843	25477.000000
1325.320577	25380.333333
1326.470870	25230.333333
1327.620721	25125.000000
1328.770132	25193.000000
1329.919102	25058.333333
1331.067632	25061.666667
1332.215722	25106.666667
1333.363372	25016.666667
1334.510582	24974.000000
1335.657353	24849.666667
1336.803685	24961.000000
1337.949578	25153.333333
1339.095032	25028.666667
1340.240048	25031.666667
1341.384625	24947.000000
1342.528764	24954.666667
1343.672466	25159.666667
1344.815729	24952.333333
1345.958556	24936.000000
1347.100945	24929.666667
1348.242897	24841.333333
1349.384413	24700.000000
1350.525492	24823.333333
1351.666134	24824.333333
1352.806341	24657.000000
1353.946111	24426.666667
1355.085446	24505.333333
1356.224346	24409.000000
1357.362810	24523.000000
1358.500840	24468.666667
1359.638434	24364.666667
1360.775594	24290.666667
1361.912320	24271.666667
1363.048612	24169.666667
1364.184469	24098.000000
1365.319893	24136.000000
1366.454884	24080.333333
1367.589441	24018.333333
1368.723566	24253.333333
1369.857257	24097.333333
1370.990516	23959.333333
1372.123343	24065.666667
1373.255737	24149.333333
1374.387699	24084.000000
1375.519230	24204.000000
1376.650329	23959.000000
1377.780997	24108.666667
1378.911234	24205.333333
1380.041040	24158.000000
1381.170416	24128.666667
1382.299361	23987.666667
1383.427875	24009.000000
1384.555960	23878.000000
1385.683615	23904.000000
1386.810841	23962.000000
1387.937637	23856.333333
1389.064004	23830.333333
1390.189942	23841.333333
1391.315451	23784.666667
1392.440532	23797.666667
1393.565185	23795.666667
1394.689409	23679.333333
1395.813206	23492.333333
1396.936575	23398.666667
1398.059517	23532.333333
1399.182032	23500.000000
1400.304119	23467.000000
1401.425780	23328.666667
1402.547014	23320.000000
1403.667822	23309.666667
1404.788204	23211.666667
1405.908160	23402.333333
1407.027690	23193.000000
1408.146795	23391.666667
1409.265474	23015.000000
1410.383728	23293.000000
1411.501558	23317.666667
1412.618963	23157.333333
1413.735943	23358.666667
1414.852499	23248.333333
1415.968632	23203.666667
1417.084340	23200.333333
1418.199625	23198.000000
1419.314486	23167.333333
1420.428925	23272.000000
1421.542940	23243.000000
1422.656533	23098.000000
1423.769703	23181.666667
1424.882451	23012.666667
1425.994777	22944.666667
1427.106680	22848.333333
1428.218163	22951.666667
1429.329223	22722.333333
1430.439863	22862.333333
1431.550081	22688.333333
1432.659879	22781.000000
1433.769256	22688.333333
1434.878212	22591.666667
1435.986749	22593.333333
1437.094865	22570.000000
1438.202562	22669.333333
1439.309839	22647.333333
1440.416696	22592.666667
1441.523135	22515.666667
1442.629154	22559.666667
1443.734755	22634.000000
1444.839937	22568.333333
1445.944701	22676.333333
1447.049047	22669.333333
1448.152975	22778.666667
1449.256485	22617.333333
1450.359577	22688.333333
1451.462253	22558.000000
1452.564511	22635.000000
1453.666352	22548.666667
1454.767777	22523.333333
1455.868785	22468.666667
1456.969377	22443.333333
1458.069553	22504.666667
1459.169313	22360.333333
1460.268658	22265.333333
1461.367587	22242.000000
1462.466101	22306.333333
1463.564200	22027.666667
1464.661884	21935.333333
1465.759153	21901.666667
1466.856008	21927.000000
1467.952449	21743.333333
1469.048476	21727.666667
1470.144089	21583.000000
1471.239288	21615.333333
1472.334074	21380.000000
1473.428447	21245.333333
1474.522407	21270.333333
1475.615955	21228.333333
1476.709089	21016.333333
1477.801812	21178.333333
1478.894122	20971.666667
1479.986020	21026.666667
1481.077506	21006.000000
1482.168581	21025.000000
1483.259245	21093.000000
1484.349498	20904.000000
1485.439339	20917.333333
1486.528770	20911.333333
1487.617790	20921.666667
1488.706400	20870.666667
1489.794600	20902.333333
1490.882390	20886.000000
1491.969771	20848.333333
1493.056742	20891.666667
1494.143303	20791.333333
1495.229456	20839.000000
1496.315199	20775.333333
1497.400534	20709.000000
1498.485460	20525.666667
1499.569978	20568.000000
1500.654088	20503.000000
1501.737790	20408.666667
1502.821085	20422.333333
1503.903972	20381.666667
1504.986451	20266.000000
1506.068524	20213.333333
1507.150189	20178.333333
1508.231448	20103.333333
1509.312301	20010.666667
1510.392747	20047.000000
1511.472787	19978.666667
1512.552422	19974.666667
1513.631650	19847.666667
1514.710473	19828.333333
1515.788891	19787.000000
1516.866904	19862.666667
1517.944512	19744.333333
1519.021715	19786.333333
1520.098513	19835.333333
1521.174908	19913.333333
1522.250898	19894.333333
1523.326485	19958.333333
1524.401667	19880.666667
1525.476447	19707.333333
1526.550823	19902.333333
1527.624796	19743.666667
1528.698365	19715.666667
1529.771533	19851.333333
1530.844298	19719.333333
1531.916660	19626.333333
1532.988620	19674.666667
1534.060179	19573.333333
1535.131336	19460.666667
1536.202091	19428.333333
1537.272445	19583.333333
1538.342398	19491.000000
1539.411950	19357.000000
1540.481101	19390.000000
1541.549851	19279.666667
1542.618202	19143.333333
1543.686152	19046.333333
1544.753702	19137.333333
1545.820853	19010.000000
1546.887604	19119.666667
1547.953955	19004.000000
1549.019908	18992.333333
1550.085461	18798.333333
1551.150616	18792.000000
1552.215372	18863.333333
1553.279730	18757.333333
1554.343690	18787.666667
1555.407252	18672.666667
1556.470415	18633.000000
1557.533182	18622.666667
1558.595551	18807.333333
1559.657522	18678.333333
1560.719097	18818.000000
1561.780275	18752.666667
1562.841056	18715.666667
1563.901441	18674.000000
1564.961429	18652.333333
1566.021022	18703.000000
1567.080219	18564.333333
1568.139020	18583.000000
1569.197425	18576.000000
1570.255436	18539.333333
1571.313051	18617.000000
1572.370271	18576.333333
1573.427097	18559.666667
1574.483528	18441.666667
1575.539565	18421.666667
1576.595208	18342.333333
1577.650457	18381.333333
1578.705312	18288.666667
1579.759774	18195.333333
1580.813842	18168.333333
1581.867517	18051.000000
1582.920799	18040.333333
1583.973689	18018.000000
1585.026186	17812.333333
1586.078290	17899.666667
1587.130002	17849.000000
1588.181323	17812.000000
1589.232251	17821.000000
1590.282788	17838.000000
1591.332933	17801.666667
1592.382688	17674.000000
1593.432051	17629.666667
1594.481023	17601.333333
1595.529605	17640.333333
1596.577796	17557.333333
1597.625597	17738.666667
1598.673007	17600.000000
1599.720028	17722.000000
1600.766660	17774.000000
1601.812901	17822.000000
1602.858753	17739.666667
1603.904217	17710.333333
1604.949291	17644.000000
1605.993976	17813.666667
1607.038273	17633.000000
1608.082182	17652.333333
1609.125702	17615.666667
1610.168834	17598.000000
1611.211579	17694.333333
1612.253935	17468.666667
1613.295905	17486.000000
1614.337487	17367.333333
1615.378682	17500.000000
1616.419490	17370.000000
1617.459912	17299.666667
1618.499946	17251.333333
1619.539595	17166.000000
1620.578858	17122.333333
1621.617734	17043.666667
1622.656225	17125.333333
1623.694330	17028.666667
1624.732050	16744.333333
1625.769385	16904.000000
1626.806334	16847.333333
1627.842899	16789.666667
1628.879079	16823.666667
1629.914875	16729.333333
1630.950286	16649.000000
1631.985314	16587.666667
1633.019957	16803.000000
1634.054217	16758.333333
1635.088093	16659.333333
1636.121586	16669.666667
1637.154696	16810.666667
1638.187423	16714.333333
1639.219767	16709.000000
1640.251728	16817.333333
1641.283307	16672.333333
1642.314504	16666.000000
1643.345319	16900.333333
1644.375751	16739.000000
1645.405803	16715.333333
1646.435472	16650.000000
1647.464761	16661.000000
1648.493668	16758.000000
1649.522194	16648.333333
1650.550340	16450.000000
1651.578105	16545.000000
1652.605490	16528.666667
1653.632494	16498.000000
1654.659119	16447.333333
1655.685363	16336.333333
1656.711228	16277.666667
1657.736714	16220.333333
1658.761820	16209.000000
1659.786547	16049.000000
1660.810895	16149.666667
1661.834865	15966.666667
1662.858456	15997.000000
1663.881668	15991.666667
1664.904503	15769.000000
1665.926959	15776.333333
1666.949038	15902.333333
1667.970739	15739.333333
1668.992062	15663.333333
1670.013008	15717.666667
1671.033577	15662.000000
1672.053770	15584.333333
1673.073585	15637.333333
1674.093024	15587.666667
1675.112086	15496.666667
1676.130773	15565.666667
1677.149083	15578.000000
1678.167017	15514.666667
1679.184576	15645.666667
1680.201760	15526.000000
1681.218568	15520.333333
1682.235001	15429.000000
1683.251059	15551.333333
1684.266742	15486.000000
1685.282051	15496.000000
1686.296985	15506.666667
1687.311546	15433.333333
1688.325732	15335.000000
1689.339544	15256.666667
1690.352983	15282.000000
1691.366048	15191.000000
1692.378740	15169.333333
1693.391058	15017.666667
1694.403004	15040.000000
1695.414577	14951.333333
1696.425778	14980.666667
1697.436606	14731.666667
1698.447061	14806.333333
1699.457145	14776.333333
1700.466857	14612.666667
1701.476197	14584.666667
1702.485166	14515.333333
1703.493763	14439.333333
1704.501989	14436.666667
1705.509844	14432.000000
1706.517328	14263.666667
1707.524442	14256.666667
1708.531185	14369.333333
1709.537558	14228.333333
1710.543561	14337.666667
1711.549194	14281.000000
1712.554457	14179.000000
1713.559351	14277.333333
1714.563875	14184.000000
1715.568030	14111.333333
1716.571816	14313.333333
1717.575233	14239.000000
1718.578282	14263.333333
1719.580962	14280.666667
1720.583273	14270.666667
1721.585217	14289.000000
1722.586792	14341.333333
1723.588000	14337.666667
1724.588840	14382.333333
1725.589312	14262.333333
1726.589418	14300.000000
1727.589156	14286.666667
1728.588527	14234.000000
1729.587532	14207.666667
1730.586170	14165.000000
1731.584441	14075.000000
1732.582346	14177.666667
1733.579886	14114.666667
1734.577059	14094.666667
1735.573867	14015.333333
1736.570309	13894.666667
1737.566386	13832.333333
1738.562097	13900.000000
1739.557444	13740.000000
1740.552426	13682.333333
1741.547043	13649.666667
1742.541295	13495.333333
1743.535184	13584.666667
1744.528708	13581.666667
1745.521868	13524.666667
1746.514664	13373.000000
1747.507097	13411.000000
1748.499166	13464.000000
1749.490873	13321.000000
1750.482216	13353.666667
1751.473196	13339.666667
1752.463813	13198.333333
1753.454068	13228.000000
1754.443960	13340.666667
1755.433490	13227.000000
1756.422658	13281.000000
1757.411464	13146.666667
1758.399908	13234.000000
1759.387991	13208.666667
1760.375713	13240.000000
1761.363073	13230.666667
1762.350072	13129.000000
1763.336711	13148.666667
1764.322988	12983.666667
1765.308905	13016.666667
1766.294462	13127.000000
1767.279659	13116.666667
1768.264496	12951.666667
1769.248972	12953.000000
1770.233089	13019.666667
1771.216847	12902.333333
1772.200245	12892.000000
1773.183284	12843.666667
1774.165965	12834.666667
1775.148286	12714.666667
1776.130249	12730.666667
1777.111853	12658.000000
1778.093099	12521.333333
1779.073987	12459.000000
1780.054517	12453.666667
1781.034689	12375.333333
1782.014503	12288.666667
1782.993960	12222.666667
1783.973060	12117.000000
1784.951802	12101.666667
1785.930188	12033.333333
1786.908217	11947.000000
1787.885889	12022.333333
1788.863205	11953.000000
1789.840164	11938.000000
1790.816768	11853.000000
1791.793015	11873.666667
1792.768907	11879.000000
1793.744443	11872.000000
1794.719624	11834.000000
1795.694449	11846.333333
1796.668919	11909.000000
1797.643035	11780.000000
1798.616795	11817.000000
1799.590201	11843.666667
1800.563253	11902.333333
1801.535950	11904.666667
1802.508294	11945.000000
1803.480283	11886.666667
1804.451919	11931.666667
1805.423201	11790.666667
1806.394129	11864.000000
1807.364705	11911.000000
1808.334927	11879.000000
1809.304796	11866.666667
1810.274313	11884.000000
1811.243477	11855.000000
1812.212288	11800.666667
1813.180747	11876.000000
1814.148855	11787.333333
1815.116610	11731.000000
1816.084013	11736.333333
1817.051065	11700.666667
1818.017766	11625.000000
1818.984115	11558.000000
1819.950113	11545.000000
1820.915760	11540.666667
1821.881057	11465.666667
1822.846003	11364.000000
1823.810598	11362.333333
1824.774843	11320.333333
1825.738738	11355.666667
1826.702283	11270.000000
1827.665479	11318.666667
1828.628324	11262.333333
1829.590821	11204.000000
1830.552968	11210.666667
1831.514765	11219.000000
1832.476214	11073.333333
1833.437314	11132.666667
1834.398066	11011.666667
1835.358469	11102.666667
1836.318524	11059.666667
1837.278230	11107.333333
1838.237589	11090.666667
1839.196600	10973.000000
1840.155263	11052.333333
1841.113578	11099.333333
1842.071547	11098.333333
1843.029168	11100.000000
1843.986442	11092.333333
1844.943369	11109.666667
1845.899950	11119.666667
1846.856184	11156.000000
1847.812072	11172.666667
1848.767614	11196.666667
1849.722809	11116.333333
1850.677659	11078.333333
1851.632163	11193.333333
1852.586322	11049.666667
1853.540135	11133.000000
1854.493603	11019.333333
1855.446726	11000.666667
1856.399504	11020.666667
1857.351937	10889.333333
1858.304026	10932.000000
1859.255770	10877.666667
1860.207170	10799.666667
1861.158227	10796.000000
1862.108939	10745.333333
1863.059307	10700.666667
1864.009332	10681.333333
1864.959013	10629.333333
1865.908351	10619.000000
1866.857346	10544.333333
1867.805998	10402.000000
1868.754307	10449.666667
1869.702274	10376.000000
1870.649898	10354.666667
1871.597180	10315.333333
1872.544119	10286.666667
1873.490717	10244.000000
1874.436973	10219.666667
1875.382887	10279.333333
1876.328459	10195.000000
1877.273691	10136.333333
1878.218581	10238.333333
1879.163130	10226.666667
1880.107338	10183.000000
1881.051205	10142.666667
1881.994732	10246.333333
1882.937919	10255.000000
1883.880765	10131.666667
1884.823271	10117.333333
1885.765437	10232.000000
1886.707264	10302.666667
1887.648750	10180.666667
1888.589898	10168.666667
1889.530706	10176.333333
1890.471175	10177.666667
1891.411305	10203.666667
1892.351096	10255.666667
1893.290548	10242.333333
1894.229662	10180.000000
1895.168438	10148.666667
1896.106876	10055.000000
1897.044975	10174.000000
1897.982737	10162.666667
1898.920160	10014.666667
1899.857247	10013.666667
1900.793996	9978.333333
1901.730407	9969.666667
1902.666482	9931.666667
1903.602219	9910.666667
1904.537620	9865.333333
1905.472685	9772.666667
1906.407412	9753.000000
1907.341804	9653.333333
1908.275859	9603.333333
1909.209579	9638.666667
1910.142962	9640.000000
1911.076010	9561.000000
1912.008722	9413.333333
1912.941099	9423.333333
1913.873141	9378.666667
1914.804848	9356.333333
1915.736219	9308.333333
1916.667256	9279.333333
1917.597959	9204.333333
1918.528327	9213.000000
1919.458360	9240.666667
1920.388060	9232.000000
1921.317426	9197.000000
1922.246457	9117.333333
1923.175156	9239.000000
1924.103520	9229.666667
1925.031552	9166.666667
1925.959250	9216.333333
1926.886615	9156.666667
1927.813647	9127.333333
1928.740346	9209.333333
1929.666713	9177.000000
1930.592748	9156.000000
1931.518450	9155.666667
1932.443820	9174.666667
1933.368858	9208.666667
1934.293564	9198.000000
1935.217939	9219.000000
1936.141982	9168.333333
1937.065694	9129.666667
1937.989074	9170.333333
1938.912124	9125.000000
1939.834842	9053.333333
1940.757230	9091.000000
1941.679287	9059.333333
1942.601014	9063.666667
1943.522411	8969.000000
1944.443477	8887.666667
1945.364214	8910.666667
1946.284621	8806.333333
1947.204698	8803.333333
1948.124445	8817.333333
1949.043863	8681.666667
1949.962952	8655.000000
1950.881712	8567.333333
1951.800143	8555.000000
1952.718245	8603.666667
1953.636019	8513.000000
1954.553464	8476.333333
1955.470581	8475.666667
1956.387369	8407.333333
1957.303830	8408.000000
1958.219963	8389.000000
1959.135768	8370.000000
1960.051246	8374.333333
1960.966396	8382.666667
1961.881219	8355.666667
1962.795715	8382.333333
1963.709883	8417.666667
1964.623726	8442.333333
1965.537241	8459.000000
1966.450430	8390.333333
1967.363293	8454.000000
1968.275829	8429.000000
1969.188040	8462.666667
1970.099924	8471.000000
1971.011483	8459.666667
1971.922716	8411.333333
1972.833624	8439.333333
1973.744206	8488.666667
1974.654464	8483.666667
1975.564396	8468.333333
1976.474004	8384.000000
1977.383286	8377.000000
1978.292245	8373.333333
1979.200878	8386.666667
1980.109188	8288.000000
1981.017174	8279.000000
1981.924835	8321.000000
1982.832173	8193.666667
1983.739187	8237.333333
1984.645878	8197.333333
1985.552245	8163.333333
1986.458289	8160.000000
1987.364010	8065.666667
1988.269408	8074.000000
1989.174484	7929.333333
1990.079236	7945.666667
1990.983667	7932.333333
1991.887775	7909.666667
1992.791561	7868.000000
1993.695024	7793.000000
1994.598166	7807.333333
1995.500986	7863.333333
1996.403485	7784.333333
1997.305662	7819.666667
1998.207518	7843.000000
1999.109053	7789.333333
