200.151048	52436.000000
201.758777	52143.000000
203.365815	51995.333333
204.972162	51926.333333
206.577820	51771.666667
208.182787	51499.000000
209.787065	51254.000000
211.390653	51159.333333
212.993553	50929.333333
214.595765	50729.666667
216.197289	50825.666667
217.798125	50455.000000
219.398274	50361.000000
220.997737	50293.000000
222.596513	49953.000000
224.194603	49979.666667
225.792008	49791.666667
227.388728	49543.666667
228.984763	49515.333333
230.580114	49329.333333
232.174781	49157.333333
233.768765	49116.333333
235.362065	48793.000000
236.954683	48634.333333
238.546619	48608.000000
240.137872	48326.666667
241.728445	48291.333333
243.318336	47875.000000
244.907546	47846.333333
246.496076	47889.000000
248.083926	47596.666667
249.671097	47311.666667
251.257589	47067.666667
252.843402	46761.666667
254.428536	46752.333333
256.012993	46491.000000
257.596772	46335.000000
259.179874	45971.333333
260.762300	46228.000000
262.344049	45863.333333
263.925122	45875.333333
265.505519	45657.333333
267.085241	45580.333333
268.664289	45582.333333
270.242662	45468.000000
271.820361	45299.000000
273.397387	45227.333333
274.973740	45185.000000
276.549419	45140.333333
278.124426	45062.666667
279.698762	45167.000000
281.272425	44936.333333
282.845417	44966.000000
284.417739	44929.000000
285.989390	45046.000000
287.560371	44983.666667
289.130682	44917.000000
290.700324	44736.333333
292.269297	44560.333333
293.837602	44565.000000
295.405238	44373.333333
296.972207	44511.666667
298.538508	44250.666667
300.104142	43955.000000
301.669110	44102.000000
303.233411	43960.666667
304.797047	43539.333333
306.360017	43642.666667
307.922322	43181.333333
309.483963	42985.333333
311.044939	43133.000000
312.605252	42970.666667
314.164900	42853.000000
315.723886	42728.000000
317.282209	42505.333333
318.839870	42376.666667
320.396868	42040.666667
321.953205	42178.666667
323.508881	41982.666667
325.063896	41733.666667
326.618251	41939.666667
328.171945	41833.666667
329.724980	41737.333333
331.277356	41773.666667
332.829072	41670.666667
334.380131	41592.666667
335.930530	41572.666667
337.480273	41406.000000
339.029357	41430.000000
340.577785	41364.333333
342.125556	41444.000000
343.672671	41402.666667
345.219130	41330.000000
346.764933	40988.333333
348.310081	41061.333333
349.854575	41086.000000
351.398414	40804.000000
352.941599	41063.666667
354.484130	40819.000000
356.026008	40843.000000
357.567234	40825.666667
359.107807	40604.333333
360.647727	40454.333333
362.186996	40361.333333
363.725614	40299.333333
365.263580	40322.000000
366.800896	40141.333333
368.337562	39981.666667
369.873578	40118.333333
371.408944	39899.333333
372.943661	39857.333333
374.477730	39931.000000
376.011150	39924.666667
377.543922	39920.333333
379.076046	39846.666667
380.607523	39704.333333
382.138353	39665.333333
383.668537	39499.000000
385.198075	39487.666667
386.726966	39625.333333
388.255213	39635.666667
389.782814	39517.000000
391.309770	39397.666667
392.836083	39364.666667
394.361751	39613.666667
395.886776	39654.666667
397.411157	39456.666667
398.934896	39434.333333
400.457992	39416.666667
401.980446	39515.333333
403.502258	39494.333333
405.023429	39412.666667
406.543959	39429.333333
408.063849	39506.666667
409.583098	39678.333333
411.101707	39571.333333
412.619677	39746.333333
414.137007	39694.333333
415.653699	39987.666667
417.169752	39952.000000
418.685167	40074.666667
420.199945	40357.666667
421.714085	40410.666667
423.227588	40530.333333
424.740454	40661.333333
426.252684	40553.666667
427.764279	40643.000000
429.275238	40477.000000
430.785561	40334.000000
432.295250	40388.666667
433.804304	40109.666667
435.312725	39798.000000
436.820511	39811.666667
438.327664	39553.666667
439.834185	39191.333333
441.340072	39081.000000
442.845327	38935.333333
444.349951	38763.333333
445.853942	38742.333333
447.357303	38642.333333
448.860033	38597.666667
450.362132	38424.666667
451.863601	38219.000000
453.364440	38033.333333
454.864650	37707.000000
456.364231	37627.333333
457.863183	37565.666667
459.361507	37363.333333
460.859203	37146.666667
462.356271	36947.666667
463.852712	36997.666667
465.348526	36572.666667
466.843714	36672.000000
468.338275	36403.333333
469.832210	36448.666667
471.325520	36110.333333
472.818205	36320.333333
474.310265	35999.000000
475.801700	36002.666667
477.292512	35819.333333
478.782700	35901.000000
480.272264	35877.000000
481.761205	35658.000000
483.249524	35617.666667
484.737221	35675.000000
486.224295	35443.000000
487.710748	35255.000000
489.196579	35067.000000
490.681790	35277.666667
492.166380	35148.666667
493.650350	35227.000000
495.133700	35266.333333
496.616431	35094.000000
498.098542	35030.333333
499.580035	34969.666667
501.060909	35004.666667
502.541165	34855.333333
504.020804	34898.000000
505.499825	34921.666667
506.978228	34755.000000
508.456016	34615.000000
509.933186	34495.666667
511.409741	34319.666667
512.885680	34183.000000
514.361004	34421.000000
515.835713	34401.000000
517.309807	34042.000000
518.783287	34235.000000
520.256153	34155.000000
521.728406	34228.333333
523.200045	34216.666667
524.671071	34068.333333
526.141485	34069.000000
527.611287	34060.000000
529.080476	34077.000000
530.549054	33976.666667
532.017021	33979.000000
533.484378	33859.666667
534.951123	33857.000000
536.417259	33791.333333
537.882785	33855.333333
539.347701	33658.333333
540.812008	33711.000000
542.275707	33590.333333
543.738797	33574.333333
545.201279	33669.000000
546.663153	33620.333333
548.124420	33772.000000
549.585080	33778.666667
551.045133	33822.666667
552.504579	33963.333333
553.963420	33820.666667
555.421655	33841.333333
556.879285	33997.666667
558.336309	33763.333333
559.792729	33665.666667
561.248545	33832.000000
562.703756	33803.666667
564.158364	33901.333333
565.612369	33801.333333
567.065770	34024.333333
568.518569	34054.666667
569.970766	34172.666667
571.422361	34062.333333
572.873354	34047.333333
574.323745	34328.000000
575.773536	34270.333333
577.222726	34279.666667
578.671316	34332.000000
580.119306	34327.333333
581.566696	34260.333333
583.013487	33979.333333
584.459679	33909.000000
585.905273	33579.666667
587.350268	33568.333333
588.794665	33639.000000
590.238465	33540.000000
591.681667	33491.333333
593.124272	33566.333333
594.566281	33352.666667
596.007694	33289.666667
597.448510	33065.333333
598.888731	32860.333333
600.328357	32934.000000
601.767388	32705.666667
603.205824	32668.333333
604.643666	32527.000000
606.080914	32500.333333
607.517568	32447.666667
608.953629	32544.000000
610.389097	32398.333333
611.823972	32321.666667
613.258255	32329.000000
614.691946	32261.000000
616.125046	32046.333333
617.557554	31966.666667
618.989471	31735.666667
620.420798	31429.333333
621.851534	31466.333333
623.281680	31323.666667
624.711237	31254.333333
626.140204	30938.000000
627.568582	30956.666667
628.996372	30793.666667
630.423573	30735.333333
631.850186	30699.333333
633.276211	30638.333333
634.701650	30486.666667
636.126501	30632.333333
637.550765	30443.666667
638.974443	30443.666667
640.397535	30392.666667
641.820041	30589.666667
643.241961	30446.666667
644.663297	30457.333333
646.084048	30393.000000
647.504214	30216.000000
648.923796	30066.000000
650.342795	30008.666667
651.761210	29987.666667
653.179041	29942.333333
654.596290	29788.666667
656.012957	29748.666667
657.429041	29776.000000
658.844543	29816.000000
660.259464	29761.333333
661.673804	29728.333333
663.087563	29404.000000
664.500741	29528.000000
665.913339	29466.666667
667.325357	29413.333333
668.736795	29548.666667
670.147654	29440.333333
671.557934	29559.333333
672.967636	29163.333333
674.376759	29321.666667
675.785304	29303.333333
677.193271	29227.000000
678.600661	29177.333333
680.007474	29192.000000
681.413711	28995.666667
682.819370	28947.666667
684.224454	28977.000000
685.628962	28922.666667
687.032895	28904.000000
688.436252	28911.666667
689.839034	28884.666667
691.241242	28739.333333
692.642876	28679.333333
694.043936	28533.000000
695.444422	28513.000000
696.844336	28480.000000
698.243676	28457.000000
699.642443	28312.333333
701.040639	28392.000000
702.438262	28324.333333
703.835313	28466.666667
705.231794	28193.333333
706.627703	28227.666667
708.023041	28271.333333
709.417810	28118.000000
710.812008	28238.000000
712.205636	28059.666667
713.598694	28286.000000
714.991184	27960.000000
716.383105	27830.666667
717.774457	27840.333333
719.165241	27905.666667
720.555457	27767.666667
721.945105	27762.666667
723.334187	27753.666667
724.722701	27897.000000
726.110648	27787.000000
727.498030	27766.000000
728.884845	27583.000000
730.271094	27765.333333
731.656778	27595.000000
733.041897	27541.666667
734.426451	27650.333333
735.810441	27455.000000
737.193866	27337.333333
738.576728	27489.666667
739.959026	27334.000000
741.340760	27229.333333
742.721932	27414.666667
744.102541	27436.333333
745.482588	27309.333333
746.862073	27264.666667
748.240996	27173.000000
749.619358	27191.666667
750.997158	27329.000000
752.374398	27254.333333
753.751077	27048.000000
755.127197	27072.000000
756.502756	27110.000000
757.877756	27073.666667
759.252196	27004.333333
760.626078	26807.666667
761.999400	26828.666667
763.372165	26871.000000
764.744371	26754.000000
766.116020	26686.333333
767.487111	26636.000000
768.857646	26611.666667
770.227623	26539.666667
771.597044	26371.333333
772.965908	26437.333333
774.334217	26319.333333
775.701970	26267.333333
777.069168	26250.000000
778.435811	26255.333333
779.801899	26163.000000
781.167433	26151.333333
782.532412	26101.333333
783.896838	26105.333333
785.260710	26148.666667
786.624029	26087.666667
787.986796	25939.666667
789.349009	25996.666667
790.710671	25831.333333
792.071780	25770.666667
793.432338	25785.333333
794.792344	25869.333333
796.151799	25618.333333
797.510704	25743.000000
798.869058	25710.666667
800.226862	25707.666667
801.584116	25498.333333
802.940820	25533.666667
804.296975	25549.666667
805.652581	25442.666667
807.007638	25464.000000
808.362147	25489.333333
809.716108	25514.333333
811.069521	25481.666667
812.422387	25469.000000
813.774705	25445.333333
815.126476	25271.666667
816.477701	25283.000000
817.828380	25353.333333
819.178512	25117.333333
820.528099	25170.333333
821.877140	25168.333333
823.225637	25192.000000
824.573588	25108.666667
825.920995	25118.000000
827.267857	25044.333333
828.614176	24967.000000
829.959951	24991.333333
831.305183	24827.666667
832.649871	24911.333333
833.994017	24859.333333
835.337620	24778.333333
836.680681	24948.333333
838.023201	24863.666667
839.365178	24671.666667
840.706614	24830.666667
842.047510	24828.333333
843.387864	24787.333333
844.727678	24702.000000
846.066952	24941.666667
847.405687	24767.000000
848.743881	24795.333333
850.081537	24888.333333
851.418653	24875.000000
852.755231	24774.333333
854.091270	24850.000000
855.426771	24640.333333
856.761735	24789.000000
858.096160	24499.666667
859.430049	24572.666667
860.763401	24575.000000
862.096216	24544.333333
863.428495	24394.000000
864.760237	24277.666667
866.091444	24230.666667
867.422115	24237.666667
868.752252	24161.333333
870.081853	24160.666667
871.410919	24078.333333
872.739452	24111.333333
874.067450	24030.333333
875.394914	24142.333333
876.721845	23970.333333
878.048243	23848.666667
879.374108	23958.666667
880.699440	23815.333333
882.024240	23800.000000
883.348508	23745.666667
884.672244	23629.333333
885.995449	23506.333333
887.318122	23614.333333
888.640265	23541.000000
889.961877	23623.666667
891.282959	23594.333333
892.603510	23294.666667
893.923532	23223.000000
895.243024	23238.333333
896.561987	23258.666667
897.880422	23147.000000
899.198327	23039.000000
900.515705	23055.666667
901.832554	22905.666667
903.148875	23051.000000
904.464669	22949.333333
905.779936	23014.666667
907.094676	23030.666667
908.408889	22934.333333
909.722576	23148.333333
911.035737	23047.000000
912.348371	23030.000000
913.660481	23128.000000
914.972065	23052.666667
916.283124	23276.000000
917.593659	23194.666667
918.903669	23179.000000
920.213155	23174.333333
921.522117	23246.333333
922.830556	23143.666667
924.138471	23218.000000
925.445864	23029.000000
926.752733	23141.333333
928.059081	23221.000000
929.364906	23144.666667
930.670209	23211.000000
931.974991	23280.666667
933.279251	23552.000000
934.582990	23470.333333
935.886209	23692.000000
937.188907	23926.333333
938.491085	23968.666667
939.792743	24298.333333
941.093881	24470.333333
942.394500	24752.000000
943.694600	25197.333333
944.994181	25521.000000
946.293243	25969.000000
947.591787	26600.666667
948.889813	27383.666667
950.187322	28030.666667
951.484313	29008.666667
952.780787	29987.333333
954.076744	30998.333333
955.372184	31863.666667
956.667108	32671.333333
957.961516	33110.333333
959.255409	33138.000000
960.548785	32691.666667
961.841647	32271.000000
963.133993	31093.666667
964.425825	30788.666667
965.717142	28680.000000
967.007946	27516.000000
968.298235	26096.333333
969.588011	25061.666667
970.877273	24244.333333
972.166023	23538.333333
973.454259	23114.000000
974.741984	22650.666667
976.029196	22216.333333
977.315895	22089.333333
978.602084	21839.666667
979.887761	21697.333333
981.172926	21507.333333
982.457581	21338.666667
983.741725	21362.000000
985.025359	21286.000000
986.308483	21104.000000
987.591097	21160.000000
988.873202	20953.333333
990.154797	20965.666667
991.435883	20994.000000
992.716461	20878.333333
993.996530	20982.666667
995.276091	20823.666667
996.555144	20826.333333
997.833690	21044.333333
999.111728	20980.333333
1000.389259	20925.000000
1001.666283	21109.666667
1002.942800	21045.666667
1004.218812	20938.000000
1005.494317	20928.000000
1006.769317	20781.000000
1008.043811	20851.000000
1009.317799	20913.333333
1010.591283	20829.666667
1011.864263	20776.333333
1013.136737	20816.666667
1014.408708	20667.000000
1015.680175	20767.000000
1016.951138	20691.000000
1018.221598	20700.333333
1019.491554	20716.000000
1020.761008	20754.666667
1022.029959	20674.666667
1023.298408	20733.666667
1024.566355	20727.666667
1025.833800	20747.666667
1027.100744	20771.666667
1028.367187	20685.333333
1029.633128	20714.000000
1030.898569	20562.000000
1032.163509	20503.333333
1033.427949	20495.666667
1034.691890	20593.666667
1035.955330	20779.333333
1037.218271	20643.333333
1038.480714	20590.000000
1039.742657	20635.333333
1041.004101	20646.666667
1042.265048	20675.333333
1043.525496	20589.000000
1044.785446	20704.333333
1046.044899	20584.000000
1047.303855	20552.000000
1048.562313	20610.000000
1049.820275	20498.000000
1051.077740	20449.666667
1052.334709	20442.666667
1053.591182	20335.666667
1054.847160	20291.666667
1056.102641	20340.000000
1057.357628	20439.333333
1058.612120	20500.333333
1059.866117	20347.333333
1061.119619	20486.000000
1062.372628	20525.666667
1063.625142	20588.000000
1064.877163	20762.333333
1066.128691	20614.333333
1067.379725	20705.000000
1068.630267	20554.333333
1069.880316	20561.333333
1071.129872	20708.333333
1072.378937	20634.000000
1073.627509	20297.000000
1074.875590	20302.000000
1076.123180	20118.333333
1077.370279	19994.666667
1078.616887	19813.666667
1079.863004	19818.666667
1081.108631	19561.666667
1082.353768	19458.666667
1083.598415	19286.000000
1084.842573	19250.666667
1086.086241	19061.333333
1087.329421	19008.000000
1088.572111	18926.000000
1089.814314	18867.666667
1091.056028	18814.666667
1092.297253	18631.000000
1093.537992	18591.666667
1094.778242	18689.333333
1096.018006	18558.333333
1097.257282	18414.666667
1098.496072	18503.666667
1099.734376	18485.000000
1100.972193	18498.333333
1102.209524	18474.000000
1103.446370	18444.333333
1104.682730	18347.000000
1105.918604	18301.000000
1107.153994	18187.333333
1108.388900	18193.333333
1109.623320	18041.666667
1110.857257	18100.000000
1112.090710	17972.666667
1113.323679	17925.666667
1114.556164	17991.333333
1115.788167	17853.666667
1117.019686	17768.666667
1118.250723	17709.333333
1119.481278	17770.666667
1120.711350	17615.333333
1121.940940	17625.333333
1123.170049	17656.333333
1124.398676	17732.333333
1125.626823	17544.666667
1126.854488	17728.000000
1128.081672	17597.666667
1129.308376	17452.333333
1130.534600	17396.666667
1131.760345	17495.666667
1132.985609	17327.666667
1134.210394	17376.666667
1135.434700	17376.000000
1136.658527	17304.333333
1137.881875	17307.666667
1139.104745	17398.000000
1140.327136	17257.000000
1141.549050	17264.333333
1142.770486	17279.000000
1143.991445	17205.000000
1145.211926	17280.000000
1146.431931	17334.333333
1147.651459	17181.666667
1148.870510	17163.000000
1150.089086	17098.666667
1151.307185	17162.666667
1152.524808	17221.333333
1153.741957	17170.000000
1154.958630	17128.666667
1156.174828	16974.000000
1157.390551	16967.000000
1158.605800	17067.000000
1159.820574	17027.000000
1161.034875	17056.666667
1162.248702	16865.000000
1163.462055	16944.666667
1164.674936	16863.000000
1165.887343	16837.333333
1167.099277	16809.333333
1168.310739	16845.666667
1169.521729	16783.666667
1170.732247	16812.000000
1171.942293	16840.333333
1173.151867	16869.000000
1174.360970	16738.666667
1175.569602	16714.666667
1176.777764	16650.000000
1177.985454	16634.000000
1179.192675	16547.666667
1180.399425	16507.333333
1181.605706	16496.000000
1182.811517	16584.000000
1184.016859	16413.333333
1185.221731	16461.000000
1186.426135	16388.666667
1187.630070	16299.666667
1188.833537	16238.666667
1190.036535	16307.333333
1191.239066	16082.333333
1192.441129	16115.333333
1193.642725	16142.666667
1194.843853	16075.333333
1196.044515	16111.333333
1197.244710	16090.333333
1198.444438	16137.333333
1199.643701	16056.000000
1200.842497	16044.333333
1202.040827	16113.333333
1203.238693	16138.333333
1204.436092	16094.333333
1205.633027	16110.333333
1206.829497	16053.333333
1208.025503	16026.666667
1209.221044	15861.666667
1210.416122	15972.000000
1211.610735	15850.666667
1212.804885	15851.666667
1213.998572	15814.666667
1215.191795	15752.666667
1216.384556	15709.000000
1217.576854	15721.000000
1218.768689	15600.000000
1219.960063	15636.666667
1221.150974	15669.666667
1222.341424	15572.666667
1223.531413	15582.333333
1224.720940	15647.666667
1225.910006	15699.000000
1227.098612	15484.666667
1228.286757	15668.000000
1229.474442	15715.666667
1230.661667	15620.666667
1231.848432	15747.666667
1233.034738	15712.333333
1234.220584	15816.333333
1235.405971	15950.666667
1236.590900	15909.333333
1237.775369	15825.333333
1238.959381	15881.000000
1240.142934	15799.000000
1241.326029	15899.333333
1242.508667	15900.333333
1243.690848	15922.333333
1244.872571	15879.333333
1246.053837	15889.000000
1247.234646	15868.666667
1248.414999	15776.000000
1249.594896	15738.666667
1250.774337	15717.000000
1251.953322	15574.666667
1253.131851	15522.666667
1254.309925	15468.000000
1255.487544	15470.333333
1256.664708	15496.666667
1257.841417	15547.333333
1259.017673	15451.666667
1260.193473	15384.000000
1261.368820	15353.000000
1262.543714	15467.666667
1263.718154	15427.666667
1264.892140	15478.000000
1266.065674	15512.666667
1267.238755	15469.333333
1268.411383	15472.666667
1269.583559	15493.000000
1270.755283	15419.333333
1271.926555	15407.333333
1273.097375	15515.666667
1274.267744	15340.000000
1275.437662	15300.666667
1276.607129	15265.333333
1277.776145	15278.000000
1278.944711	15266.333333
1280.112827	15068.666667
1281.280492	15205.333333
1282.447708	15067.333333
1283.614474	15108.333333
1284.780791	15036.666667
1285.946659	15064.666667
1287.112078	14836.333333
1288.277048	14759.000000
1289.441570	14879.000000
1290.605644	14730.333333
1291.769270	14785.666667
1292.932448	14704.666667
1294.095178	14584.000000
1295.257461	14561.666667
1296.419298	14561.333333
1297.580687	14483.333333
1298.741630	14470.666667
1299.902126	14536.000000
1301.062177	14450.000000
1302.221781	14486.333333
1303.380940	14390.666667
1304.539653	14365.000000
1305.697921	14493.666667
1306.855744	14390.333333
1308.013123	14317.333333
1309.170056	14406.000000
1310.326546	14289.666667
1311.482591	14299.000000
1312.638193	14288.666667
1313.793350	14313.333333
1314.948065	14264.666667
1316.102336	14364.666667
1317.256164	14281.666667
1318.409550	14216.333333
1319.562493	14144.666667
1320.714993	14107.000000
1321.867052	14218.666667
1323.018668	14144.666667
1324.169843	13981.333333
1325.320577	14149.000000
1326.470870	13962.000000
1327.620721	13975.666667
1328.770132	13880.000000
1329.919102	13822.666667
1331.067632	13833.666667
1332.215722	13807.333333
1333.363372	13862.000000
1334.510582	13763.000000
1335.657353	13749.666667
1336.803685	13815.666667
1337.949578	13735.666667
1339.095032	13840.000000
1340.240048	13796.666667
1341.384625	13845.666667
1342.528764	13750.000000
1343.672466	13708.666667
1344.815729	13723.333333
1345.958556	13731.000000
1347.100945	13778.333333
1348.242897	13639.000000
1349.384413	13511.666667
1350.525492	13681.666667
1351.666134	13654.000000
1352.806341	13454.666667
1353.946111	13474.000000
1355.085446	13472.333333
1356.224346	13442.000000
1357.362810	13347.000000
1358.500840	13307.666667
1359.638434	13307.333333
1360.775594	13168.333333
1361.912320	13296.333333
1363.048612	13255.333333
1364.184469	13222.666667
1365.319893	13193.000000
1366.454884	13118.333333
1367.589441	13078.666667
1368.723566	13213.000000
1369.857257	13177.666667
1370.990516	13141.666667
1372.123343	13189.666667
1373.255737	13235.000000
1374.387699	13157.333333
1375.519230	13204.333333
1376.650329	13168.000000
1377.780997	13291.333333
1378.911234	13264.333333
1380.041040	13163.333333
1381.170416	13082.000000
1382.299361	13153.000000
1383.427875	13154.333333
1384.555960	13136.666667
1385.683615	13119.666667
1386.810841	13052.000000
1387.937637	13009.333333
1389.064004	12978.666667
1390.189942	13034.333333
1391.315451	12970.666667
1392.440532	12986.333333
1393.565185	12968.666667
1394.689409	12876.666667
1395.813206	12874.333333
1396.936575	12815.666667
1398.059517	12802.666667
1399.182032	12859.666667
1400.304119	12805.666667
1401.425780	12788.000000
1402.547014	12765.333333
1403.667822	12733.000000
1404.788204	12673.666667
1405.908160	12730.666667
1407.027690	12738.000000
1408.146795	12721.000000
1409.265474	12755.333333
1410.383728	12748.666667
1411.501558	12707.333333
1412.618963	12656.333333
1413.735943	12697.000000
1414.852499	12669.000000
1415.968632	12588.000000
1417.084340	12682.666667
1418.199625	12653.000000
1419.314486	12766.333333
1420.428925	12723.000000
1421.542940	12812.666667
1422.656533	12741.666667
1423.769703	12676.333333
1424.882451	12644.666667
1425.994777	12599.666667
1427.106680	12584.666667
1428.218163	12634.666667
1429.329223	12458.666667
1430.439863	12444.666667
1431.550081	12431.666667
1432.659879	12381.000000
1433.769256	12395.000000
1434.878212	12484.333333
1435.986749	12318.000000
1437.094865	12427.333333
1438.202562	12427.000000
1439.309839	12297.333333
1440.416696	12434.666667
1441.523135	12447.000000
1442.629154	12427.000000
1443.734755	12445.000000
1444.839937	12545.666667
1445.944701	12481.333333
1447.049047	12484.333333
1448.152975	12545.666667
1449.256485	12532.000000
1450.359577	12503.333333
1451.462253	12459.000000
1452.564511	12515.666667
1453.666352	12410.000000
1454.767777	12318.666667
1455.868785	12563.333333
1456.969377	12367.333333
1458.069553	12385.333333
1459.169313	12239.333333
1460.268658	12222.000000
1461.367587	12202.666667
1462.466101	12147.666667
1463.564200	12118.000000
1464.661884	12217.000000
1465.759153	11981.666667
1466.856008	12009.666667
1467.952449	11815.000000
1469.048476	11864.000000
1470.144089	11694.000000
1471.239288	11680.333333
1472.334074	11559.333333
1473.428447	11470.666667
1474.522407	11566.000000
1475.615955	11364.666667
1476.709089	11426.000000
1477.801812	11369.000000
1478.894122	11290.333333
1479.986020	11277.666667
1481.077506	11261.333333
1482.168581	11248.333333
1483.259245	11216.666667
1484.349498	11183.333333
1485.439339	11153.666667
1486.528770	11267.333333
1487.617790	11152.333333
1488.706400	11067.333333
1489.794600	11048.333333
1490.882390	11164.666667
1491.969771	11103.333333
1493.056742	11055.000000
1494.143303	11028.666667
1495.229456	11055.333333
1496.315199	10992.000000
1497.400534	10916.666667
1498.485460	10982.000000
1499.569978	10940.333333
1500.654088	10872.666667
1501.737790	10819.666667
1502.821085	10824.000000
1503.903972	10824.333333
1504.986451	10909.666667
1506.068524	10773.666667
1507.150189	10710.000000
1508.231448	10737.333333
1509.312301	10564.666667
1510.392747	10581.333333
1511.472787	10640.000000
1512.552422	10567.333333
1513.631650	10557.000000
1514.710473	10519.333333
1515.788891	10502.333333
1516.866904	10506.000000
1517.944512	10549.000000
1519.021715	10631.333333
1520.098513	10491.666667
1521.174908	10573.000000
1522.250898	10466.000000
1523.326485	10580.333333
1524.401667	10602.333333
1525.476447	10467.666667
1526.550823	10531.333333
1527.624796	10574.000000
1528.698365	10442.000000
1529.771533	10530.333333
1530.844298	10481.333333
1531.916660	10428.000000
1532.988620	10531.333333
1534.060179	10432.333333
1535.131336	10441.333333
1536.202091	10427.000000
1537.272445	10368.333333
1538.342398	10325.333333
1539.411950	10242.666667
1540.481101	10243.000000
1541.549851	10252.666667
1542.618202	10302.666667
1543.686152	10194.666667
1544.753702	10131.333333
1545.820853	10155.666667
1546.887604	10115.666667
1547.953955	10107.000000
1549.019908	10085.000000
1550.085461	9982.333333
1551.150616	9991.000000
1552.215372	10020.333333
1553.279730	9973.666667
1554.343690	9903.333333
1555.407252	9931.666667
1556.470415	9930.666667
1557.533182	9999.666667
1558.595551	9955.666667
1559.657522	9896.000000
1560.719097	9845.666667
1561.780275	9911.333333
1562.841056	9829.333333
1563.901441	9814.333333
1564.961429	9818.666667
1566.021022	9773.666667
1567.080219	9821.333333
1568.139020	9708.666667
1569.197425	9785.666667
1570.255436	9728.666667
1571.313051	9712.666667
1572.370271	9712.333333
1573.427097	9740.666667
1574.483528	9732.000000
1575.539565	9676.666667
1576.595208	9637.333333
1577.650457	9601.333333
1578.705312	9590.333333
1579.759774	9619.333333
1580.813842	9475.666667
1581.867517	9452.666667
1582.920799	9473.000000
1583.973689	9416.333333
1585.026186	9436.666667
1586.078290	9373.333333
1587.130002	9372.666667
1588.181323	9401.000000
1589.232251	9347.333333
1590.282788	9374.000000
1591.332933	9206.000000
1592.382688	9211.000000
1593.432051	9208.333333
1594.481023	9245.333333
1595.529605	9356.000000
1596.577796	9324.666667
1597.625597	9239.666667
1598.673007	9332.666667
1599.720028	9350.000000
1600.766660	9364.000000
1601.812901	9348.000000
1602.858753	9357.000000
1603.904217	9299.333333
1604.949291	9270.000000
1605.993976	9439.000000
1607.038273	9391.333333
1608.082182	9303.333333
1609.125702	9303.000000
1610.168834	9266.333333
1611.211579	9203.333333
1612.253935	9215.333333
1613.295905	9169.666667
1614.337487	9108.666667
1615.378682	9028.666667
1616.419490	9032.333333
1617.459912	9054.666667
1618.499946	8996.333333
1619.539595	9093.333333
1620.578858	9164.666667
1621.617734	9136.666667
1622.656225	9173.000000
1623.694330	9038.333333
1624.732050	9022.333333
1625.769385	9035.333333
1626.806334	8973.666667
1627.842899	8991.666667
1628.879079	8966.333333
1629.914875	8985.666667
1630.950286	8903.333333
1631.985314	8997.666667
1633.019957	8930.000000
1634.054217	8966.333333
1635.088093	9001.333333
1636.121586	9076.666667
1637.154696	8995.000000
1638.187423	9020.333333
1639.219767	9016.000000
1640.251728	8998.666667
1641.283307	9031.666667
1642.314504	9028.000000
1643.345319	9023.666667
1644.375751	9018.333333
1645.405803	8980.666667
1646.435472	8993.000000
1647.464761	8964.333333
1648.493668	8967.000000
1649.522194	8891.333333
1650.550340	8985.333333
1651.578105	8957.000000
1652.605490	8923.000000
1653.632494	8889.333333
1654.659119	8840.666667
1655.685363	8898.666667
1656.711228	8784.000000
1657.736714	8755.666667
1658.761820	8826.000000
1659.786547	8709.333333
1660.810895	8794.666667
1661.834865	8644.333333
1662.858456	8744.000000
1663.881668	8694.000000
1664.904503	8543.666667
1665.926959	8641.000000
1666.949038	8598.666667
1667.970739	8473.666667
1668.992062	8506.666667
1670.013008	8483.000000
1671.033577	8551.000000
1672.053770	8509.000000
1673.073585	8526.666667
1674.093024	8423.666667
1675.112086	8464.333333
1676.130773	8515.666667
1677.149083	8379.666667
1678.167017	8388.333333
1679.184576	8360.333333
1680.201760	8352.666667
1681.218568	8289.666667
1682.235001	8320.333333
1683.251059	8371.333333
1684.266742	8385.666667
1685.282051	8335.333333
1686.296985	8252.000000
1687.311546	8283.333333
1688.325732	8206.666667
1689.339544	8190.666667
1690.352983	8179.333333
1691.366048	7994.000000
1692.378740	8058.000000
1693.391058	7961.666667
1694.403004	8050.666667
1695.414577	7941.666667
1696.425778	7940.000000
1697.436606	7894.666667
1698.447061	7869.333333
1699.457145	7805.666667
1700.466857	7766.000000
1701.476197	7636.666667
1702.485166	7586.666667
1703.493763	7598.333333
1704.501989	7630.333333
1705.509844	7634.000000
1706.517328	7554.333333
1707.524442	7549.666667
1708.531185	7524.333333
1709.537558	7467.000000
1710.543561	7454.666667
1711.549194	7458.000000
1712.554457	7425.666667
1713.559351	7462.666667
1714.563875	7419.000000
1715.568030	7349.666667
1716.571816	7439.333333
1717.575233	7561.000000
1718.578282	7478.333333
1719.580962	7494.666667
1720.583273	7552.666667
1721.585217	7543.333333
1722.586792	7439.000000
1723.588000	7511.666667
1724.588840	7470.666667
1725.589312	7496.333333
1726.589418	7457.666667
1727.589156	7533.000000
1728.588527	7505.000000
1729.587532	7471.666667
1730.586170	7432.000000
1731.584441	7458.333333
1732.582346	7465.666667
1733.579886	7454.333333
1734.577059	7346.000000
1735.573867	7307.000000
1736.570309	7329.666667
1737.566386	7363.333333
1738.562097	7264.333333
1739.557444	7343.000000
1740.552426	7247.000000
1741.547043	7252.333333
1742.541295	7161.333333
1743.535184	7138.000000
1744.528708	7116.333333
1745.521868	7155.333333
1746.514664	7066.666667
1747.507097	7072.666667
1748.499166	7083.000000
1749.490873	6982.333333
1750.482216	7040.000000
1751.473196	7061.333333
1752.463813	7041.333333
1753.454068	7051.333333
1754.443960	6985.000000
1755.433490	6942.000000
1756.422658	7009.333333
1757.411464	6939.000000
1758.399908	7088.666667
1759.387991	6981.666667
1760.375713	6990.666667
1761.363073	6928.666667
1762.350072	6943.333333
1763.336711	6924.000000
1764.322988	6851.666667
1765.308905	6919.000000
1766.294462	6894.666667
1767.279659	6909.333333
1768.264496	6811.000000
1769.248972	6821.666667
1770.233089	6679.333333
1771.216847	6664.666667
1772.200245	6716.333333
1773.183284	6732.000000
1774.165965	6703.000000
1775.148286	6664.333333
1776.130249	6698.000000
1777.111853	6609.666667
1778.093099	6648.000000
1779.073987	6531.333333
1780.054517	6619.000000
1781.034689	6494.333333
1782.014503	6505.333333
1782.993960	6461.333333
1783.973060	6272.666667
1784.951802	6338.666667
1785.930188	6301.000000
1786.908217	6291.333333
1787.885889	6202.333333
1788.863205	6204.666667
1789.840164	6175.000000
1790.816768	6203.000000
1791.793015	6189.666667
1792.768907	6160.666667
1793.744443	6131.666667
1794.719624	6204.666667
1795.694449	6241.666667
1796.668919	6187.333333
1797.643035	6207.000000
1798.616795	6151.666667
1799.590201	6288.333333
1800.563253	6214.666667
1801.535950	6254.000000
1802.508294	6245.333333
1803.480283	6319.666667
1804.451919	6223.333333
1805.423201	6267.333333
1806.394129	6253.000000
1807.364705	6236.000000
1808.334927	6212.000000
1809.304796	6202.666667
1810.274313	6147.000000
1811.243477	6178.666667
1812.212288	6212.000000
1813.180747	6181.666667
1814.148855	6149.333333
1815.116610	6123.666667
1816.084013	6149.666667
1817.051065	6176.000000
1818.017766	6130.333333
1818.984115	6154.666667
1819.950113	6136.000000
1820.915760	6171.666667
1821.881057	6014.666667
1822.846003	6053.666667
1823.810598	6093.666667
1824.774843	6030.333333
1825.738738	6070.000000
1826.702283	6040.000000
1827.665479	6050.666667
1828.628324	6008.333333
1829.590821	6014.333333
1830.552968	5981.000000
1831.514765	5937.666667
1832.476214	5908.666667
1833.437314	5992.333333
1834.398066	5987.333333
1835.358469	5892.666667
1836.318524	5850.666667
1837.278230	5842.000000
1838.237589	5869.333333
1839.196600	5907.000000
1840.155263	5942.666667
1841.113578	5904.666667
1842.071547	5908.333333
1843.029168	5845.333333
1843.986442	5951.666667
1844.943369	5898.666667
1845.899950	5943.333333
1846.856184	5914.333333
1847.812072	5924.000000
1848.767614	5825.000000
1849.722809	5829.666667
1850.677659	5874.333333
1851.632163	5838.666667
1852.586322	5865.000000
1853.540135	5851.666667
1854.493603	5918.000000
1855.446726	5793.333333
1856.399504	5829.666667
1857.351937	5788.666667
1858.304026	5716.666667
1859.255770	5775.000000
1860.207170	5721.000000
1861.158227	5685.333333
1862.108939	5644.666667
1863.059307	5603.666667
1864.009332	5571.666667
1864.959013	5590.333333
1865.908351	5570.666667
1866.857346	5518.333333
1867.805998	5532.666667
1868.754307	5581.000000
1869.702274	5521.000000
1870.649898	5487.000000
1871.597180	5563.000000
1872.544119	5424.333333
1873.490717	5414.000000
1874.436973	5353.000000
1875.382887	5433.666667
1876.328459	5392.666667
1877.273691	5329.000000
1878.218581	5365.666667
1879.163130	5377.666667
1880.107338	5419.666667
1881.051205	5378.000000
1881.994732	5443.666667
1882.937919	5330.000000
1883.880765	5377.666667
1884.823271	5392.333333
1885.765437	5409.666667
1886.707264	5413.333333
1887.648750	5444.000000
1888.589898	5396.000000
1889.530706	5497.666667
1890.471175	5424.000000
1891.411305	5470.000000
1892.351096	5434.333333
1893.290548	5425.000000
1894.229662	5421.666667
1895.168438	5460.666667
1896.106876	5398.333333
1897.044975	5437.000000
1897.982737	5389.666667
1898.920160	5389.333333
1899.857247	5382.333333
1900.793996	5377.666667
1901.730407	5335.333333
1902.666482	5266.333333
1903.602219	5311.333333
1904.537620	5280.666667
1905.472685	5233.000000
1906.407412	5286.000000
1907.341804	5194.333333
1908.275859	5234.666667
1909.209579	5186.333333
1910.142962	5176.333333
1911.076010	5099.000000
1912.008722	5111.333333
1912.941099	5099.333333
1913.873141	5020.666667
1914.804848	4986.333333
1915.736219	4975.000000
1916.667256	4919.333333
1917.597959	5005.000000
1918.528327	4907.000000
1919.458360	4990.000000
1920.388060	4910.666667
1921.317426	4932.000000
1922.246457	4896.000000
1923.175156	4926.333333
1924.103520	4897.333333
1925.031552	4884.666667
1925.959250	4901.333333
1926.886615	4882.000000
1927.813647	4837.333333
1928.740346	4891.000000
1929.666713	4891.000000
1930.592748	4879.000000
1931.518450	4878.333333
1932.443820	4906.333333
1933.368858	4912.000000
1934.293564	4886.333333
1935.217939	4867.000000
1936.141982	4860.333333
1937.065694	4849.000000
1937.989074	4866.666667
1938.912124	4773.666667
1939.834842	4784.333333
1940.757230	4835.333333
1941.679287	4761.333333
1942.601014	4780.000000
1943.522411	4756.000000
1944.443477	4698.333333
1945.364214	4734.666667
1946.284621	4684.000000
1947.204698	4687.666667
1948.124445	4630.333333
1949.043863	4683.333333
1949.962952	4642.000000
1950.881712	4595.000000
1951.800143	4563.666667
1952.718245	4615.666667
1953.636019	4534.000000
1954.553464	4525.666667
1955.470581	4484.666667
1956.387369	4528.666667
1957.303830	4542.333333
1958.219963	4410.666667
1959.135768	4464.333333
1960.051246	4510.666667
1960.966396	4451.666667
1961.881219	4466.333333
1962.795715	4461.333333
1963.709883	4542.000000
1964.623726	4538.000000
1965.537241	4453.000000
1966.450430	4560.666667
1967.363293	4507.333333
1968.275829	4562.000000
1969.188040	4469.000000
1970.099924	4540.333333
1971.011483	4522.666667
1971.922716	4577.000000
1972.833624	4528.000000
1973.744206	4499.666667
1974.654464	4511.333333
1975.564396	4545.000000
1976.474004	4514.666667
1977.383286	4500.333333
1978.292245	4543.333333
1979.200878	4374.333333
1980.109188	4461.333333
1981.017174	4416.666667
1981.924835	4389.333333
1982.832173	4424.000000
1983.739187	4399.666667
1984.645878	4381.000000
1985.552245	4362.333333
1986.458289	4293.333333
1987.364010	4313.666667
1988.269408	4270.000000
1989.174484	4258.000000
1990.079236	4245.000000
1990.983667	4286.000000
1991.887775	4205.000000
1992.791561	4184.000000
1993.695024	4226.333333
1994.598166	4176.000000
1995.500986	4138.333333
1996.403485	4096.000000
1997.305662	4130.333333
1998.207518	4066.000000
1999.109053	4076.666667
