200.151048	59064.666667
201.758777	58914.333333
203.365815	58773.000000
204.972162	58734.666667
206.577820	58781.666667
208.182787	58713.000000
209.787065	58421.333333
211.390653	58525.666667
212.993553	58442.666667
214.595765	58375.666667
216.197289	58235.333333
217.798125	58281.666667
219.398274	58397.666667
220.997737	57999.333333
222.596513	58182.666667
224.194603	58180.666667
225.792008	58123.666667
227.388728	58192.666667
228.984763	58026.333333
230.580114	57990.666667
232.174781	58014.333333
233.768765	57936.666667
235.362065	57817.000000
236.954683	57750.333333
238.546619	57697.666667
240.137872	57423.000000
241.728445	57676.666667
243.318336	57249.333333
244.907546	57025.000000
246.496076	57115.000000
248.083926	56989.666667
249.671097	57059.333333
251.257589	56771.666667
252.843402	56549.000000
254.428536	56486.333333
256.012993	56394.000000
257.596772	56243.333333
259.179874	56179.666667
260.762300	56183.000000
262.344049	55918.000000
263.925122	55949.333333
265.505519	55908.666667
267.085241	55959.666667
268.664289	55785.000000
270.242662	55812.666667
271.820361	55841.666667
273.397387	55723.666667
274.973740	55893.666667
276.549419	56055.333333
278.124426	55909.333333
279.698762	56184.333333
281.272425	56085.666667
282.845417	56111.000000
284.417739	56038.666667
285.989390	56132.666667
287.560371	56129.333333
289.130682	56047.666667
290.700324	55850.000000
292.269297	55988.000000
293.837602	56008.333333
295.405238	55995.333333
296.972207	55859.000000
298.538508	56023.000000
300.104142	55603.333333
301.669110	55605.333333
303.233411	55499.666667
304.797047	55297.000000
306.360017	55101.000000
307.922322	55144.666667
309.483963	54931.666667
311.044939	54951.000000
312.605252	54620.666667
314.164900	54647.000000
315.723886	54482.000000
317.282209	54564.333333
318.839870	54270.000000
320.396868	54233.333333
321.953205	53979.000000
323.508881	54094.666667
325.063896	54154.666667
326.618251	54116.000000
328.171945	53912.333333
329.724980	53976.000000
331.277356	53988.666667
332.829072	54082.000000
334.380131	54133.666667
335.930530	53840.666667
337.480273	53986.000000
339.029357	53981.666667
340.577785	53936.666667
342.125556	54062.000000
343.672671	54018.000000
345.219130	54076.000000
346.764933	53962.333333
348.310081	53933.000000
349.854575	54023.666667
351.398414	53865.000000
352.941599	53797.666667
354.484130	54018.333333
356.026008	53870.333333
357.567234	53694.000000
359.107807	53593.000000
360.647727	53588.666667
362.186996	53605.333333
363.725614	53381.666667
365.263580	53335.666667
366.800896	53298.000000
368.337562	52990.666667
369.873578	53388.333333
371.408944	52862.666667
372.943661	52921.333333
374.477730	52852.000000
376.011150	52759.333333
377.543922	52607.666667
379.076046	52833.666667
380.607523	52642.666667
382.138353	52634.666667
383.668537	52764.666667
385.198075	52698.666667
386.726966	52526.000000
388.255213	52542.333333
389.782814	52560.333333
391.309770	52486.333333
392.836083	52323.000000
394.361751	52301.666667
395.886776	52480.000000
397.411157	52398.000000
398.934896	52412.333333
400.457992	52289.666667
401.980446	52248.333333
403.502258	52145.333333
405.023429	52565.333333
406.543959	52527.666667
408.063849	52386.000000
409.583098	52455.000000
411.101707	52537.000000
412.619677	52381.666667
414.137007	52508.333333
415.653699	52316.666667
417.169752	52698.666667
418.685167	52532.000000
420.199945	52820.000000
421.714085	52473.666667
423.227588	52773.333333
424.740454	52930.000000
426.252684	52882.000000
427.764279	52860.000000
429.275238	52944.333333
430.785561	52713.333333
432.295250	52624.666667
433.804304	52318.666667
435.312725	52248.666667
436.820511	51977.000000
438.327664	52005.000000
439.834185	51716.666667
441.340072	51693.000000
442.845327	51489.666667
444.349951	51405.000000
445.853942	51089.666667
447.357303	50972.333333
448.860033	50749.333333
450.362132	50883.333333
451.863601	50902.333333
453.364440	50441.333333
454.864650	50322.000000
456.364231	50263.666667
457.863183	50331.666667
459.361507	49920.000000
460.859203	49741.333333
462.356271	49621.000000
463.852712	49627.666667
465.348526	49505.000000
466.843714	49321.000000
468.338275	49469.000000
469.832210	49283.333333
471.325520	49221.000000
472.818205	49247.333333
474.310265	49179.000000
475.801700	48993.666667
477.292512	49017.333333
478.782700	48823.333333
480.272264	48700.666667
481.761205	48772.000000
483.249524	48567.333333
484.737221	48647.000000
486.224295	48660.333333
487.710748	48453.000000
489.196579	48312.333333
490.681790	48364.000000
492.166380	48171.666667
493.650350	48257.333333
495.133700	48373.000000
496.616431	48226.666667
498.098542	47917.666667
499.580035	47796.000000
501.060909	47970.333333
502.541165	47898.000000
504.020804	47880.000000
505.499825	47728.000000
506.978228	47524.333333
508.456016	47563.000000
509.933186	47587.333333
511.409741	47320.333333
512.885680	47221.666667
514.361004	47180.333333
515.835713	46992.000000
517.309807	47020.666667
518.783287	46971.666667
520.256153	46903.333333
521.728406	46905.666667
523.200045	46859.333333
524.671071	46658.000000
526.141485	46611.000000
527.611287	46633.333333
529.080476	46592.333333
530.549054	46608.333333
532.017021	46517.333333
533.484378	46260.333333
534.951123	46329.666667
536.417259	46286.000000
537.882785	46133.000000
539.347701	46018.666667
540.812008	46081.666667
542.275707	46011.666667
543.738797	45872.333333
545.201279	45883.000000
546.663153	46072.000000
548.124420	45801.000000
549.585080	45844.000000
551.045133	45738.000000
552.504579	45688.666667
553.963420	45882.333333
555.421655	45648.666667
556.879285	45678.333333
558.336309	45827.000000
559.792729	45840.666667
561.248545	45671.666667
562.703756	45717.000000
564.158364	45544.333333
565.612369	45820.333333
567.065770	45487.000000
568.518569	45721.666667
569.970766	45795.333333
571.422361	45638.333333
572.873354	45599.333333
574.323745	45694.666667
575.773536	45546.666667
577.222726	45773.666667
578.671316	45640.333333
580.119306	45815.333333
581.566696	45585.666667
583.013487	45597.666667
584.459679	45597.666667
585.905273	45410.000000
587.350268	45363.333333
588.794665	45328.666667
590.238465	45250.000000
591.681667	45196.000000
593.124272	45094.333333
594.566281	44560.666667
596.007694	44616.333333
597.448510	44471.333333
598.888731	44472.000000
600.328357	44221.000000
601.767388	44078.333333
603.205824	44045.666667
604.643666	43839.333333
606.080914	43721.000000
607.517568	43619.666667
608.953629	43604.333333
610.389097	43707.000000
611.823972	43564.666667
613.258255	43460.000000
614.691946	43179.666667
616.125046	43233.333333
617.557554	43147.333333
618.989471	43171.333333
620.420798	42673.000000
621.851534	42720.666667
623.281680	42597.333333
624.711237	42396.333333
626.140204	42346.666667
627.568582	42373.666667
628.996372	42093.666667
630.423573	42125.333333
631.850186	42042.333333
633.276211	41988.000000
634.701650	42025.666667
636.126501	41842.333333
637.550765	41754.666667
638.974443	41737.666667
640.397535	41820.000000
641.820041	41663.666667
643.241961	41491.333333
644.663297	41605.666667
646.084048	41311.333333
647.504214	41360.000000
648.923796	41275.666667
650.342795	41237.666667
651.761210	41179.333333
653.179041	40965.000000
654.596290	40917.000000
656.012957	41113.333333
657.429041	40967.333333
658.844543	40849.000000
660.259464	40815.000000
661.673804	40752.666667
663.087563	40606.666667
664.500741	40507.666667
665.913339	40438.333333
667.325357	40251.333333
668.736795	40497.333333
670.147654	40287.333333
671.557934	40407.666667
672.967636	40289.000000
674.376759	40109.666667
675.785304	40050.333333
677.193271	39988.000000
678.600661	39964.666667
680.007474	40078.000000
681.413711	39689.666667
682.819370	39621.666667
684.224454	39796.333333
685.628962	39561.000000
687.032895	39566.000000
688.436252	39439.666667
689.839034	39286.333333
691.241242	39245.666667
692.642876	39247.333333
694.043936	39172.000000
695.444422	39121.666667
696.844336	39130.000000
698.243676	38888.000000
699.642443	38996.000000
701.040639	38803.000000
702.438262	38909.000000
703.835313	38839.333333
705.231794	38705.666667
706.627703	38603.000000
708.023041	38494.000000
709.417810	38670.000000
710.812008	38651.000000
712.205636	38394.000000
713.598694	38251.666667
714.991184	38256.666667
716.383105	38263.333333
717.774457	38145.666667
719.165241	38149.333333
720.555457	38088.333333
721.945105	37830.333333
723.334187	38095.000000
724.722701	38028.333333
726.110648	38057.666667
727.498030	37824.000000
728.884845	37736.000000
730.271094	37781.333333
731.656778	37646.666667
733.041897	37667.333333
734.426451	37691.666667
735.810441	37602.333333
737.193866	37503.666667
738.576728	37672.666667
739.959026	37553.333333
741.340760	37439.000000
742.721932	37404.000000
744.102541	37185.000000
745.482588	37380.666667
746.862073	37206.666667
748.240996	37112.000000
749.619358	37017.666667
750.997158	37050.000000
752.374398	36956.333333
753.751077	36984.666667
755.127197	36853.000000
756.502756	36968.000000
757.877756	36576.000000
759.252196	36787.000000
760.626078	36670.333333
761.999400	36751.333333
763.372165	36379.666667
764.744371	36519.000000
766.116020	36378.333333
767.487111	36462.666667
768.857646	36434.000000
770.227623	36278.333333
771.597044	36244.666667
772.965908	36166.000000
774.334217	36011.666667
775.701970	35947.333333
777.069168	35991.666667
778.435811	35888.666667
779.801899	35837.666667
781.167433	35846.000000
782.532412	35597.666667
783.896838	35660.333333
785.260710	35407.666667
786.624029	35355.666667
787.986796	35368.333333
789.349009	35456.666667
790.710671	35123.333333
792.071780	35148.000000
793.432338	34963.000000
794.792344	35052.000000
796.151799	35189.666667
797.510704	35022.000000
798.869058	34923.333333
800.226862	34878.666667
801.584116	34833.000000
802.940820	34808.333333
804.296975	34813.666667
805.652581	34769.333333
807.007638	34644.000000
808.362147	34753.666667
809.716108	34424.333333
811.069521	34687.666667
812.422387	34490.000000
813.774705	34488.000000
815.126476	34422.666667
816.477701	34441.000000
817.828380	34394.333333
819.178512	34158.333333
820.528099	34147.000000
821.877140	34101.333333
823.225637	34022.666667
824.573588	34064.000000
825.920995	34112.666667
827.267857	33949.666667
828.614176	34048.000000
829.959951	33871.666667
831.305183	33753.666667
832.649871	33904.666667
833.994017	33717.666667
835.337620	33824.666667
836.680681	33730.333333
838.023201	33573.666667
839.365178	33608.666667
840.706614	33327.000000
842.047510	33583.666667
843.387864	33360.333333
844.727678	33416.000000
846.066952	33401.666667
847.405687	33433.000000
848.743881	33386.333333
850.081537	33172.000000
851.418653	33368.333333
852.755231	33300.666667
854.091270	33218.666667
855.426771	33315.333333
856.761735	33255.000000
858.096160	33270.666667
859.430049	32973.666667
860.763401	33029.000000
862.096216	32723.666667
863.428495	32873.333333
864.760237	32720.666667
866.091444	32568.666667
867.422115	32596.333333
868.752252	32554.666667
870.081853	32413.333333
871.410919	32427.333333
872.739452	32514.666667
874.067450	32347.000000
875.394914	32252.000000
876.721845	32304.333333
878.048243	32190.000000
879.374108	32107.333333
880.699440	32095.666667
882.024240	32006.666667
883.348508	31934.666667
884.672244	31906.666667
885.995449	31923.000000
887.318122	31652.333333
888.640265	31558.000000
889.961877	31539.333333
891.282959	31479.333333
892.603510	31720.666667
893.923532	31359.666667
895.243024	31286.666667
896.561987	31211.666667
897.880422	31217.666667
899.198327	31214.000000
900.515705	30996.000000
901.832554	31081.333333
903.148875	30901.666667
904.464669	30998.000000
905.779936	30880.333333
907.094676	31037.666667
908.408889	30754.333333
909.722576	30771.666667
911.035737	30938.666667
912.348371	30916.333333
913.660481	30848.000000
914.972065	30751.333333
916.283124	30861.333333
917.593659	30760.666667
918.903669	30683.000000
920.213155	30810.000000
921.522117	30682.666667
922.830556	30783.333333
924.138471	30704.666667
925.445864	30598.000000
926.752733	30621.000000
928.059081	30654.333333
929.364906	30544.666667
930.670209	30545.666667
931.974991	30794.000000
933.279251	30585.333333
934.582990	30428.666667
935.886209	30655.333333
937.188907	30736.333333
938.491085	30808.000000
939.792743	30883.666667
941.093881	30888.333333
942.394500	31192.333333
943.694600	31481.333333
944.994181	31583.000000
946.293243	31872.333333
947.591787	32226.333333
948.889813	32679.666667
950.187322	33045.333333
951.484313	33429.000000
952.780787	34086.333333
954.076744	34703.666667
955.372184	35164.666667
956.667108	35710.666667
957.961516	35966.000000
959.255409	36089.000000
960.548785	35782.333333
961.841647	35396.666667
963.133993	34932.000000
964.425825	33953.000000
965.717142	33268.000000
967.007946	32608.000000
968.298235	31845.666667
969.588011	31238.000000
970.877273	30628.000000
972.166023	30225.333333
973.454259	29818.000000
974.741984	29462.666667
976.029196	29129.000000
977.315895	28906.333333
978.602084	28862.333333
979.887761	28593.333333
981.172926	28505.666667
982.457581	28440.000000
983.741725	28418.000000
985.025359	28054.000000
986.308483	28112.000000
987.591097	28052.666667
988.873202	28118.333333
990.154797	27970.666667
991.435883	28062.333333
992.716461	27850.666667
993.996530	27888.000000
995.276091	27624.333333
996.555144	27775.000000
997.833690	27799.000000
999.111728	27671.000000
1000.389259	27829.000000
1001.666283	27681.333333
1002.942800	27673.000000
1004.218812	27649.333333
1005.494317	27648.333333
1006.769317	27495.666667
1008.043811	27469.333333
1009.317799	27451.333333
1010.591283	27346.000000
1011.864263	27496.666667
1013.136737	27408.333333
1014.408708	27547.333333
1015.680175	27457.666667
1016.951138	27315.666667
1018.221598	27311.000000
1019.491554	27399.000000
1020.761008	27299.666667
1022.029959	27267.666667
1023.298408	27384.666667
1024.566355	27375.333333
1025.833800	27225.333333
1027.100744	27269.666667
1028.367187	27231.000000
1029.633128	27127.000000
1030.898569	27189.000000
1032.163509	27091.666667
1033.427949	27128.333333
1034.691890	27083.333333
1035.955330	26937.333333
1037.218271	27086.666667
1038.480714	27110.000000
1039.742657	27119.666667
1041.004101	27027.000000
1042.265048	27032.666667
1043.525496	27029.000000
1044.785446	26864.000000
1046.044899	26978.000000
1047.303855	26975.666667
1048.562313	26832.000000
1049.820275	26799.666667
1051.077740	26650.333333
1052.334709	26584.333333
1053.591182	26649.666667
1054.847160	26489.333333
1056.102641	26407.000000
1057.357628	26434.000000
1058.612120	26349.333333
1059.866117	26417.666667
1061.119619	26463.333333
1062.372628	26463.000000
1063.625142	26430.333333
1064.877163	26450.666667
1066.128691	26395.666667
1067.379725	26475.000000
1068.630267	26365.333333
1069.880316	26320.000000
1071.129872	26251.666667
1072.378937	26229.666667
1073.627509	26121.333333
1074.875590	26104.666667
1076.123180	26011.000000
1077.370279	25756.333333
1078.616887	25668.000000
1079.863004	25573.000000
1081.108631	25485.666667
1082.353768	25414.333333
1083.598415	25412.000000
1084.842573	25174.333333
1086.086241	25138.666667
1087.329421	25071.666667
1088.572111	24813.666667
1089.814314	24925.333333
1091.056028	24785.000000
1092.297253	24619.000000
1093.537992	24740.000000
1094.778242	24494.333333
1096.018006	24606.666667
1097.257282	24578.333333
1098.496072	24418.666667
1099.734376	24415.666667
1100.972193	24407.333333
1102.209524	24456.000000
1103.446370	24334.000000
1104.682730	24274.000000
1105.918604	24167.333333
1107.153994	24182.666667
1108.388900	24082.666667
1109.623320	24069.333333
1110.857257	24147.333333
1112.090710	23867.666667
1113.323679	23897.333333
1114.556164	23757.666667
1115.788167	23788.333333
1117.019686	23788.666667
1118.250723	23752.666667
1119.481278	23722.000000
1120.711350	23657.333333
1121.940940	23612.666667
1123.170049	23572.000000
1124.398676	23551.333333
1125.626823	23431.333333
1126.854488	23475.333333
1128.081672	23387.000000
1129.308376	23325.666667
1130.534600	23324.000000
1131.760345	23333.000000
1132.985609	23422.000000
1134.210394	23254.000000
1135.434700	23330.666667
1136.658527	23285.333333
1137.881875	23215.000000
1139.104745	23275.666667
1140.327136	23199.000000
1141.549050	23132.333333
1142.770486	23207.000000
1143.991445	23113.000000
1145.211926	23025.333333
1146.431931	23055.333333
1147.651459	22962.000000
1148.870510	23020.666667
1150.089086	22954.666667
1151.307185	23007.000000
1152.524808	22818.333333
1153.741957	22830.000000
1154.958630	22869.666667
1156.174828	22773.333333
1157.390551	22786.666667
1158.605800	22694.666667
1159.820574	22535.666667
1161.034875	22560.333333
1162.248702	22603.333333
1163.462055	22570.000000
1164.674936	22656.666667
1165.887343	22518.333333
1167.099277	22478.000000
1168.310739	22427.000000
1169.521729	22384.000000
1170.732247	22513.666667
1171.942293	22488.666667
1173.151867	22440.000000
1174.360970	22412.666667
1175.569602	22302.000000
1176.777764	22305.666667
1177.985454	22284.333333
1179.192675	22158.000000
1180.399425	22186.000000
1181.605706	22056.666667
1182.811517	22084.333333
1184.016859	22089.666667
1185.221731	21788.000000
1186.426135	21778.000000
1187.630070	21947.666667
1188.833537	21779.666667
1190.036535	21672.666667
1191.239066	21704.666667
1192.441129	21606.000000
1193.642725	21662.666667
1194.843853	21614.666667
1196.044515	21582.000000
1197.244710	21480.000000
1198.444438	21600.000000
1199.643701	21505.333333
1200.842497	21430.666667
1202.040827	21551.666667
1203.238693	21377.666667
1204.436092	21446.666667
1205.633027	21464.666667
1206.829497	21334.000000
1208.025503	21250.333333
1209.221044	21236.666667
1210.416122	21241.666667
1211.610735	21128.000000
1212.804885	21043.333333
1213.998572	21106.333333
1215.191795	20992.333333
1216.384556	21078.000000
1217.576854	20855.666667
1218.768689	21015.000000
1219.960063	20851.333333
1221.150974	20812.333333
1222.341424	20803.666667
1223.531413	20612.000000
1224.720940	20714.333333
1225.910006	20750.333333
1227.098612	20579.333333
1228.286757	20636.666667
1229.474442	20744.333333
1230.661667	20640.666667
1231.848432	20578.666667
1233.034738	20737.666667
1234.220584	20671.000000
1235.405971	20596.333333
1236.590900	20679.000000
1237.775369	20741.000000
1238.959381	20869.666667
1240.142934	20764.000000
1241.326029	20567.333333
1242.508667	20627.333333
1243.690848	20690.666667
1244.872571	20614.333333
1246.053837	20580.666667
1247.234646	20523.000000
1248.414999	20498.666667
1249.594896	20520.666667
1250.774337	20373.000000
1251.953322	20340.000000
1253.131851	20365.333333
1254.309925	20188.666667
1255.487544	20138.000000
1256.664708	20292.000000
1257.841417	20251.000000
1259.017673	20252.000000
1260.193473	20228.000000
1261.368820	20178.333333
1262.543714	20228.333333
1263.718154	20135.333333
1264.892140	20116.333333
1266.065674	20110.000000
1267.238755	20142.333333
1268.411383	20138.666667
1269.583559	20080.666667
1270.755283	20066.333333
1271.926555	20110.666667
1273.097375	19970.666667
1274.267744	20165.333333
1275.437662	19972.000000
1276.607129	20018.333333
1277.776145	19901.666667
1278.944711	20059.333333
1280.112827	19935.666667
1281.280492	19922.000000
1282.447708	19798.666667
1283.614474	19639.666667
1284.780791	19662.666667
1285.946659	19517.000000
1287.112078	19606.666667
1288.277048	19453.666667
1289.441570	19492.333333
1290.605644	19298.333333
1291.769270	19281.000000
1292.932448	19173.000000
1294.095178	19222.000000
1295.257461	19137.000000
1296.419298	19136.666667
1297.580687	19093.666667
1298.741630	19066.666667
1299.902126	18965.666667
1301.062177	19078.000000
1302.221781	18893.666667
1303.380940	19079.333333
1304.539653	18998.000000
1305.697921	18996.333333
1306.855744	18937.666667
1308.013123	18945.000000
1309.170056	18864.000000
1310.326546	18875.666667
1311.482591	18822.000000
1312.638193	18925.333333
1313.793350	18822.666667
1314.948065	18793.333333
1316.102336	18804.333333
1317.256164	18657.333333
1318.409550	18682.000000
1319.562493	18539.666667
1320.714993	18559.333333
1321.867052	18453.000000
1323.018668	18557.000000
1324.169843	18451.333333
1325.320577	18384.333333
1326.470870	18303.000000
1327.620721	18197.666667
1328.770132	18219.666667
1329.919102	18171.333333
1331.067632	18328.666667
1332.215722	18179.000000
1333.363372	18175.666667
1334.510582	18188.000000
1335.657353	18175.000000
1336.803685	18147.000000
1337.949578	18182.333333
1339.095032	18165.000000
1340.240048	18125.333333
1341.384625	18265.666667
1342.528764	18163.666667
1343.672466	18021.000000
1344.815729	18146.000000
1345.958556	17985.000000
1347.100945	18030.000000
1348.242897	18001.333333
1349.384413	18043.666667
1350.525492	18006.666667
1351.666134	17869.333333
1352.806341	17869.000000
1353.946111	17900.333333
1355.085446	17741.333333
1356.224346	17744.000000
1357.362810	17745.000000
1358.500840	17702.666667
1359.638434	17565.333333
1360.775594	17652.000000
1361.912320	17378.000000
1363.048612	17422.333333
1364.184469	17525.000000
1365.319893	17424.333333
1366.454884	17497.333333
1367.589441	17424.666667
1368.723566	17382.000000
1369.857257	17348.000000
1370.990516	17408.333333
1372.123343	17306.666667
1373.255737	17378.666667
1374.387699	17350.666667
1375.519230	17400.333333
1376.650329	17293.666667
1377.780997	17306.000000
1378.911234	17356.333333
1380.041040	17302.000000
1381.170416	17327.000000
1382.299361	17322.666667
1383.427875	17254.666667
1384.555960	17212.000000
1385.683615	17153.000000
1386.810841	17172.333333
1387.937637	17206.000000
1389.064004	17135.333333
1390.189942	17153.333333
1391.315451	17099.666667
1392.440532	17088.333333
1393.565185	17043.000000
1394.689409	16860.333333
1395.813206	16931.333333
1396.936575	16940.666667
1398.059517	16794.333333
1399.182032	16780.000000
1400.304119	16834.333333
1401.425780	16821.000000
1402.547014	16682.000000
1403.667822	16703.333333
1404.788204	16678.666667
1405.908160	16686.333333
1407.027690	16746.666667
1408.146795	16582.000000
1409.265474	16648.333333
1410.383728	16708.000000
1411.501558	16587.666667
1412.618963	16610.000000
1413.735943	16702.000000
1414.852499	16669.666667
1415.968632	16576.666667
1417.084340	16593.333333
1418.199625	16639.000000
1419.314486	16510.333333
1420.428925	16575.000000
1421.542940	16570.333333
1422.656533	16564.000000
1423.769703	16430.666667
1424.882451	16405.000000
1425.994777	16401.666667
1427.106680	16392.666667
1428.218163	16298.333333
1429.329223	16187.000000
1430.439863	16287.333333
1431.550081	16144.666667
1432.659879	16138.333333
1433.769256	16082.333333
1434.878212	16030.333333
1435.986749	16061.333333
1437.094865	16111.333333
1438.202562	15993.000000
1439.309839	16005.333333
1440.416696	15989.000000
1441.523135	15997.333333
1442.629154	16012.000000
1443.734755	15992.666667
1444.839937	16040.000000
1445.944701	16151.000000
1447.049047	16145.333333
1448.152975	16123.000000
1449.256485	15983.666667
1450.359577	16104.000000
1451.462253	16073.333333
1452.564511	16095.333333
1453.666352	16004.000000
1454.767777	15935.666667
1455.868785	15938.666667
1456.969377	15907.666667
1458.069553	15886.000000
1459.169313	15808.666667
1460.268658	15962.666667
1461.367587	15680.333333
1462.466101	15618.666667
1463.564200	15610.000000
1464.661884	15705.666667
1465.759153	15537.000000
1466.856008	15556.666667
1467.952449	15417.666667
1469.048476	15419.666667
1470.144089	15239.000000
1471.239288	15246.666667
1472.334074	15208.666667
1473.428447	15100.666667
1474.522407	15145.333333
1475.615955	15025.666667
1476.709089	15024.666667
1477.801812	15000.333333
1478.894122	14892.333333
1479.986020	14885.666667
1481.077506	14889.333333
1482.168581	14828.666667
1483.259245	14869.333333
1484.349498	14835.333333
1485.439339	14863.666667
1486.528770	14933.333333
1487.617790	14813.000000
1488.706400	14808.666667
1489.794600	14687.333333
1490.882390	14821.666667
1491.969771	14718.333333
1493.056742	14693.666667
1494.143303	14734.666667
1495.229456	14691.000000
1496.315199	14656.666667
1497.400534	14567.000000
1498.485460	14598.000000
1499.569978	14555.666667
1500.654088	14536.000000
1501.737790	14487.000000
1502.821085	14479.666667
1503.903972	14435.666667
1504.986451	14327.666667
1506.068524	14327.666667
1507.150189	14272.000000
1508.231448	14174.333333
1509.312301	14210.000000
1510.392747	14192.333333
1511.472787	14138.333333
1512.552422	14118.666667
1513.631650	14056.000000
1514.710473	13986.000000
1515.788891	13995.666667
1516.866904	13972.333333
1517.944512	14003.000000
1519.021715	13981.333333
1520.098513	13952.666667
1521.174908	13957.000000
1522.250898	13890.000000
1523.326485	14059.333333
1524.401667	13863.000000
1525.476447	13977.666667
1526.550823	13929.666667
1527.624796	14040.666667
1528.698365	13978.000000
1529.771533	13852.333333
1530.844298	13931.000000
1531.916660	13832.000000
1532.988620	13932.666667
1534.060179	13894.333333
1535.131336	13792.666667
1536.202091	13879.333333
1537.272445	13690.666667
1538.342398	13718.666667
1539.411950	13661.333333
1540.481101	13707.000000
1541.549851	13638.333333
1542.618202	13557.666667
1543.686152	13592.000000
1544.753702	13472.666667
1545.820853	13493.666667
1546.887604	13398.000000
1547.953955	13423.666667
1549.019908	13338.666667
1550.085461	13329.333333
1551.150616	13280.666667
1552.215372	13278.000000
1553.279730	13211.000000
1554.343690	13209.000000
1555.407252	13094.333333
1556.470415	13184.333333
1557.533182	13132.666667
1558.595551	13211.333333
1559.657522	13114.000000
1560.719097	13197.666667
1561.780275	13130.333333
1562.841056	13200.333333
1563.901441	13125.000000
1564.961429	13071.666667
1566.021022	13111.666667
1567.080219	13095.000000
1568.139020	13095.000000
1569.197425	13186.000000
1570.255436	13139.000000
1571.313051	13035.000000
1572.370271	12982.333333
1573.427097	12953.666667
1574.483528	12924.333333
1575.539565	12795.000000
1576.595208	12976.000000
1577.650457	12797.666667
1578.705312	12778.666667
1579.759774	12724.333333
1580.813842	12728.666667
1581.867517	12672.000000
1582.920799	12731.333333
1583.973689	12559.333333
1585.026186	12565.333333
1586.078290	12613.666667
1587.130002	12653.000000
1588.181323	12452.333333
1589.232251	12462.333333
1590.282788	12511.666667
1591.332933	12481.333333
1592.382688	12420.666667
1593.432051	12456.666667
1594.481023	12364.000000
1595.529605	12481.333333
1596.577796	12483.000000
1597.625597	12410.333333
1598.673007	12389.333333
1599.720028	12440.666667
1600.766660	12501.666667
1601.812901	12411.000000
1602.858753	12437.666667
1603.904217	12405.000000
1604.949291	12418.333333
1605.993976	12537.666667
1607.038273	12487.000000
1608.082182	12397.666667
1609.125702	12305.000000
1610.168834	12382.666667
1611.211579	12298.666667
1612.253935	12304.000000
1613.295905	12261.000000
1614.337487	12211.333333
1615.378682	12241.666667
1616.419490	12198.000000
1617.459912	12171.333333
1618.499946	12119.000000
1619.539595	12097.333333
1620.578858	12030.666667
1621.617734	12041.000000
1622.656225	12084.333333
1623.694330	11945.333333
1624.732050	11914.666667
1625.769385	11828.000000
1626.806334	11836.000000
1627.842899	11793.000000
1628.879079	11844.666667
1629.914875	11861.666667
1630.950286	11829.666667
1631.985314	11791.333333
1633.019957	11827.666667
1634.054217	11692.666667
1635.088093	11762.666667
1636.121586	11804.333333
1637.154696	11777.333333
1638.187423	11727.000000
1639.219767	11777.666667
1640.251728	11786.000000
1641.283307	11783.333333
1642.314504	11682.333333
1643.345319	11712.333333
1644.375751	11775.666667
1645.405803	11778.000000
1646.435472	11787.000000
1647.464761	11770.666667
1648.493668	11748.666667
1649.522194	11771.666667
1650.550340	11678.333333
1651.578105	11682.333333
1652.605490	11578.666667
1653.632494	11617.000000
1654.659119	11522.666667
1655.685363	11506.666667
1656.711228	11451.333333
1657.736714	11401.000000
1658.761820	11341.333333
1659.786547	11447.333333
1660.810895	11288.333333
1661.834865	11375.333333
1662.858456	11241.666667
1663.881668	11270.333333
1664.904503	11133.666667
1665.926959	11232.666667
1666.949038	11095.666667
1667.970739	11041.333333
1668.992062	11000.333333
1670.013008	11128.000000
1671.033577	10973.000000
1672.053770	10964.000000
1673.073585	11003.000000
1674.093024	10924.000000
1675.112086	10937.000000
1676.130773	10979.000000
1677.149083	10937.333333
1678.167017	10927.000000
1679.184576	10888.000000
1680.201760	10884.000000
1681.218568	10842.333333
1682.235001	10888.000000
1683.251059	10867.333333
1684.266742	10897.666667
1685.282051	10878.000000
1686.296985	10868.666667
1687.311546	10834.333333
1688.325732	10819.666667
1689.339544	10748.666667
1690.352983	10703.666667
1691.366048	10711.333333
1692.378740	10689.666667
1693.391058	10604.333333
1694.403004	10631.666667
1695.414577	10607.333333
1696.425778	10548.333333
1697.436606	10508.333333
1698.447061	10432.666667
1699.457145	10381.000000
1700.466857	10376.333333
1701.476197	10326.333333
1702.485166	10371.333333
1703.493763	10213.666667
1704.501989	10248.333333
1705.509844	10217.666667
1706.517328	10213.666667
1707.524442	10157.333333
1708.531185	10119.666667
1709.537558	10054.000000
1710.543561	10037.666667
1711.549194	10045.000000
1712.554457	10116.333333
1713.559351	10004.000000
1714.563875	9986.333333
1715.568030	10098.666667
1716.571816	10072.333333
1717.575233	10076.666667
1718.578282	10122.666667
1719.580962	10053.000000
1720.583273	10183.333333
1721.585217	10193.000000
1722.586792	10146.666667
1723.588000	10161.666667
1724.588840	10143.333333
1725.589312	10131.666667
1726.589418	10159.000000
1727.589156	10138.000000
1728.588527	10237.000000
1729.587532	10103.333333
1730.586170	10136.000000
1731.584441	10113.000000
1732.582346	10123.666667
1733.579886	10059.666667
1734.577059	10048.666667
1735.573867	9985.666667
1736.570309	9949.666667
1737.566386	9898.000000
1738.562097	9911.666667
1739.557444	9833.333333
1740.552426	9797.000000
1741.547043	9703.000000
1742.541295	9786.666667
1743.535184	9710.333333
1744.528708	9754.666667
1745.521868	9650.666667
1746.514664	9660.666667
1747.507097	9583.666667
1748.499166	9582.333333
1749.490873	9590.000000
1750.482216	9570.666667
1751.473196	9550.000000
1752.463813	9487.000000
1753.454068	9508.000000
1754.443960	9520.666667
1755.433490	9562.000000
1756.422658	9415.000000
1757.411464	9448.666667
1758.399908	9430.000000
1759.387991	9463.666667
1760.375713	9440.666667
1761.363073	9490.000000
1762.350072	9474.333333
1763.336711	9388.000000
1764.322988	9347.666667
1765.308905	9255.666667
1766.294462	9374.333333
1767.279659	9272.000000
1768.264496	9292.000000
1769.248972	9258.666667
1770.233089	9217.333333
1771.216847	9194.333333
1772.200245	9208.666667
1773.183284	9134.000000
1774.165965	9062.000000
1775.148286	9079.666667
1776.130249	9004.666667
1777.111853	8949.666667
1778.093099	9053.000000
1779.073987	8940.000000
1780.054517	8914.000000
1781.034689	8796.000000
1782.014503	8846.333333
1782.993960	8742.333333
1783.973060	8657.333333
1784.951802	8647.666667
1785.930188	8637.000000
1786.908217	8524.666667
1787.885889	8576.666667
1788.863205	8531.333333
1789.840164	8459.333333
1790.816768	8485.666667
1791.793015	8453.666667
1792.768907	8451.333333
1793.744443	8432.000000
1794.719624	8382.333333
1795.694449	8455.666667
1796.668919	8447.333333
1797.643035	8456.333333
1798.616795	8340.666667
1799.590201	8438.666667
1800.563253	8428.666667
1801.535950	8472.333333
1802.508294	8443.666667
1803.480283	8498.000000
1804.451919	8456.333333
1805.423201	8460.666667
1806.394129	8495.666667
1807.364705	8458.333333
1808.334927	8506.000000
1809.304796	8564.666667
1810.274313	8463.333333
1811.243477	8561.666667
1812.212288	8460.333333
1813.180747	8416.666667
1814.148855	8380.666667
1815.116610	8479.000000
1816.084013	8411.666667
1817.051065	8402.333333
1818.017766	8359.000000
1818.984115	8356.000000
1819.950113	8416.000000
1820.915760	8355.666667
1821.881057	8331.666667
1822.846003	8373.000000
1823.810598	8308.000000
1824.774843	8266.666667
1825.738738	8297.000000
1826.702283	8264.333333
1827.665479	8231.000000
1828.628324	8154.333333
1829.590821	8223.666667
1830.552968	8122.666667
1831.514765	8052.000000
1832.476214	8084.666667
1833.437314	8055.000000
1834.398066	8072.333333
1835.358469	8131.666667
1836.318524	8091.000000
1837.278230	8114.333333
1838.237589	8028.666667
1839.196600	7976.333333
1840.155263	7971.000000
1841.113578	8020.000000
1842.071547	8030.666667
1843.029168	7994.000000
1843.986442	8087.666667
1844.943369	8055.666667
1845.899950	8046.000000
1846.856184	7985.666667
1847.812072	8044.333333
1848.767614	7999.000000
1849.722809	7937.333333
1850.677659	8000.333333
1851.632163	7971.000000
1852.586322	7889.000000
1853.540135	7847.333333
1854.493603	7960.000000
1855.446726	7881.333333
1856.399504	7857.333333
1857.351937	7828.333333
1858.304026	7781.000000
1859.255770	7797.666667
1860.207170	7783.333333
1861.158227	7698.666667
1862.108939	7666.333333
1863.059307	7551.333333
1864.009332	7641.666667
1864.959013	7577.333333
1865.908351	7585.666667
1866.857346	7519.333333
1867.805998	7505.666667
1868.754307	7392.666667
1869.702274	7421.000000
1870.649898	7451.333333
1871.597180	7350.666667
1872.544119	7305.000000
1873.490717	7230.333333
1874.436973	7306.333333
1875.382887	7332.333333
1876.328459	7315.666667
1877.273691	7255.000000
1878.218581	7221.666667
1879.163130	7349.666667
1880.107338	7221.333333
1881.051205	7275.333333
1881.994732	7212.000000
1882.937919	7324.000000
1883.880765	7256.000000
1884.823271	7350.666667
1885.765437	7245.333333
1886.707264	7252.666667
1887.648750	7274.666667
1888.589898	7358.333333
1889.530706	7338.333333
1890.471175	7289.666667
1891.411305	7350.666667
1892.351096	7294.333333
1893.290548	7319.666667
1894.229662	7272.333333
1895.168438	7348.000000
1896.106876	7385.000000
1897.044975	7240.333333
1897.982737	7291.333333
1898.920160	7217.000000
1899.857247	7268.666667
1900.793996	7259.666667
1901.730407	7189.000000
1902.666482	7109.333333
1903.602219	7110.666667
1904.537620	7076.000000
1905.472685	7110.333333
1906.407412	7130.333333
1907.341804	6987.333333
1908.275859	6928.000000
1909.209579	6905.333333
1910.142962	6949.000000
1911.076010	6847.000000
1912.008722	6828.000000
1912.941099	6765.000000
1913.873141	6785.000000
1914.804848	6733.666667
1915.736219	6649.000000
1916.667256	6740.000000
1917.597959	6658.000000
1918.528327	6670.000000
1919.458360	6602.333333
1920.388060	6645.666667
1921.317426	6563.333333
1922.246457	6554.333333
1923.175156	6582.333333
1924.103520	6594.000000
1925.031552	6592.666667
1925.959250	6579.333333
1926.886615	6524.333333
1927.813647	6580.333333
1928.740346	6482.666667
1929.666713	6566.666667
1930.592748	6518.000000
1931.518450	6599.000000
1932.443820	6549.333333
1933.368858	6550.000000
1934.293564	6499.000000
1935.217939	6485.333333
1936.141982	6467.000000
1937.065694	6492.666667
1937.989074	6476.333333
1938.912124	6507.666667
1939.834842	6441.000000
1940.757230	6435.000000
1941.679287	6428.666667
1942.601014	6362.666667
1943.522411	6353.666667
1944.443477	6342.666667
1945.364214	6333.666667
1946.284621	6222.333333
1947.204698	6220.333333
1948.124445	6214.000000
1949.043863	6158.666667
1949.962952	6125.333333
1950.881712	6150.333333
1951.800143	6093.666667
1952.718245	6102.666667
1953.636019	6065.666667
1954.553464	6036.666667
1955.470581	6050.000000
1956.387369	6002.666667
1957.303830	6011.000000
1958.219963	6038.000000
1959.135768	5985.000000
1960.051246	6020.333333
1960.966396	6058.333333
1961.881219	6012.666667
1962.795715	5996.333333
1963.709883	6093.000000
1964.623726	5986.333333
1965.537241	6025.333333
1966.450430	6023.666667
1967.363293	6089.333333
1968.275829	6090.000000
1969.188040	6012.000000
1970.099924	6045.333333
1971.011483	6058.000000
1971.922716	6031.333333
1972.833624	6018.000000
1973.744206	6043.333333
1974.654464	6069.333333
1975.564396	6051.333333
1976.474004	6015.666667
1977.383286	6003.333333
1978.292245	6006.000000
1979.200878	6014.333333
1980.109188	6019.333333
1981.017174	5992.000000
1981.924835	5940.000000
1982.832173	5964.333333
1983.739187	5829.666667
1984.645878	5859.666667
1985.552245	5818.666667
1986.458289	5785.000000
1987.364010	5700.666667
1988.269408	5724.666667
1989.174484	5752.333333
1990.079236	5692.666667
1990.983667	5658.000000
1991.887775	5699.666667
1992.791561	5651.000000
1993.695024	5595.666667
1994.598166	5495.000000
1995.500986	5615.333333
1996.403485	5557.000000
1997.305662	5543.666667
1998.207518	5519.000000
1999.109053	5514.000000
