200.151048	29464.000000
201.758777	29404.000000
203.365815	29239.666667
204.972162	29258.333333
206.577820	29249.333333
208.182787	29126.666667
209.787065	29232.666667
211.390653	29053.333333
212.993553	29018.333333
214.595765	28877.666667
216.197289	28942.666667
217.798125	28906.666667
219.398274	28755.000000
220.997737	28934.000000
222.596513	28811.000000
224.194603	28721.333333
225.792008	28733.666667
227.388728	28651.666667
228.984763	28720.666667
230.580114	28671.333333
232.174781	28586.000000
233.768765	28578.333333
235.362065	28520.666667
236.954683	28603.333333
238.546619	28356.666667
240.137872	28462.000000
241.728445	28387.666667
243.318336	28353.666667
244.907546	28191.333333
246.496076	28266.333333
248.083926	28260.666667
249.671097	28098.333333
251.257589	28089.333333
252.843402	27969.666667
254.428536	27815.666667
256.012993	27821.333333
257.596772	27665.000000
259.179874	27608.000000
260.762300	27607.666667
262.344049	27713.666667
263.925122	27462.000000
265.505519	27685.666667
267.085241	27497.333333
268.664289	27458.333333
270.242662	27460.000000
271.820361	27452.333333
273.397387	27434.666667
274.973740	27404.000000
276.549419	27641.000000
278.124426	27480.666667
279.698762	27492.333333
281.272425	27636.333333
282.845417	27730.000000
284.417739	27489.333333
285.989390	27545.666667
287.560371	27473.000000
289.130682	27632.666667
290.700324	27550.000000
292.269297	27492.333333
293.837602	27573.666667
295.405238	27550.000000
296.972207	27349.666667
298.538508	27372.333333
300.104142	27394.000000
301.669110	27311.333333
303.233411	27159.666667
304.797047	27051.666667
306.360017	27227.666667
307.922322	27069.666667
309.483963	26970.000000
311.044939	26870.333333
312.605252	26725.000000
314.164900	26676.666667
315.723886	26586.333333
317.282209	26550.000000
318.839870	26517.666667
320.396868	26533.333333
321.953205	26422.333333
323.508881	26465.333333
325.063896	26235.000000
326.618251	26280.666667
328.171945	26340.666667
329.724980	26599.000000
331.277356	27067.000000
332.829072	26144.666667
334.380131	26263.666667
335.930530	26271.666667
337.480273	26226.000000
339.029357	26256.333333
340.577785	26280.333333
342.125556	26269.000000
343.672671	26141.000000
345.219130	26231.666667
346.764933	26140.666667
348.310081	26049.666667
349.854575	26128.333333
351.398414	26162.333333
352.941599	26111.666667
354.484130	26066.000000
356.026008	25929.666667
357.567234	26017.666667
359.107807	25889.000000
360.647727	25842.666667
362.186996	25892.666667
363.725614	25969.333333
365.263580	25976.000000
366.800896	25897.666667
368.337562	25743.333333
369.873578	25692.333333
371.408944	25956.666667
372.943661	25800.000000
374.477730	25865.666667
376.011150	25869.000000
377.543922	25914.000000
379.076046	25828.333333
380.607523	25679.333333
382.138353	25891.666667
383.668537	25804.000000
385.198075	25764.666667
386.726966	25794.000000
388.255213	25903.333333
389.782814	25929.666667
391.309770	25793.666667
392.836083	25906.000000
394.361751	25868.333333
395.886776	25957.000000
397.411157	25977.666667
398.934896	25843.333333
400.457992	26006.333333
401.980446	26099.666667
403.502258	25996.333333
405.023429	26083.333333
406.543959	26167.333333
408.063849	26368.333333
409.583098	26223.000000
411.101707	26473.666667
412.619677	26473.333333
414.137007	26545.666667
415.653699	26727.666667
417.169752	26857.000000
418.685167	26881.333333
420.199945	27259.666667
421.714085	27390.666667
423.227588	27543.000000
424.740454	27638.333333
426.252684	27851.666667
427.764279	27790.333333
429.275238	27833.333333
430.785561	27630.000000
432.295250	27586.666667
433.804304	27480.333333
435.312725	27420.333333
436.820511	27057.000000
438.327664	27099.333333
439.834185	27035.333333
441.340072	26791.000000
442.845327	26898.333333
444.349951	26680.000000
445.853942	26781.333333
447.357303	26427.333333
448.860033	26454.000000
450.362132	26183.666667
451.863601	26073.666667
453.364440	26033.333333
454.864650	25924.666667
456.364231	25724.333333
457.863183	25665.333333
459.361507	25414.000000
460.859203	25384.666667
462.356271	25286.666667
463.852712	25208.000000
465.348526	25012.666667
466.843714	25058.000000
468.338275	24998.333333
469.832210	24833.333333
471.325520	24721.000000
472.818205	24484.333333
474.310265	24660.000000
475.801700	24629.666667
477.292512	24489.666667
478.782700	24463.333333
480.272264	24457.666667
481.761205	24359.666667
483.249524	24390.000000
484.737221	24227.333333
486.224295	24300.000000
487.710748	24305.333333
489.196579	24233.666667
490.681790	24268.000000
492.166380	24111.666667
493.650350	24073.666667
495.133700	24082.666667
496.616431	23952.333333
498.098542	23982.666667
499.580035	23978.333333
501.060909	23978.000000
502.541165	23897.000000
504.020804	23927.000000
505.499825	23737.666667
506.978228	23771.666667
508.456016	23712.000000
509.933186	23771.000000
511.409741	23597.666667
512.885680	23719.666667
514.361004	23653.000000
515.835713	23616.333333
517.309807	23729.000000
518.783287	23762.333333
520.256153	23506.666667
521.728406	23492.666667
523.200045	23682.333333
524.671071	23561.666667
526.141485	23577.333333
527.611287	23508.666667
529.080476	23654.333333
530.549054	23406.000000
532.017021	23520.666667
533.484378	23659.666667
534.951123	23501.000000
536.417259	23418.666667
537.882785	23497.333333
539.347701	23410.333333
540.812008	23520.000000
542.275707	23351.666667
543.738797	23368.666667
545.201279	23319.666667
546.663153	23289.000000
548.124420	23283.666667
549.585080	23477.333333
551.045133	23293.666667
552.504579	23522.333333
553.963420	23478.333333
555.421655	23421.666667
556.879285	23577.000000
558.336309	23602.666667
559.792729	23541.000000
561.248545	23541.000000
562.703756	23557.666667
564.158364	23729.666667
565.612369	23704.000000
567.065770	23758.666667
568.518569	23856.000000
569.970766	23880.000000
571.422361	24021.666667
572.873354	24040.666667
574.323745	24007.333333
575.773536	24277.000000
577.222726	24390.333333
578.671316	24432.333333
580.119306	24455.333333
581.566696	24421.333333
583.013487	24410.666667
584.459679	24543.666667
585.905273	24295.666667
587.350268	24336.333333
588.794665	24289.000000
590.238465	24355.666667
591.681667	24135.333333
593.124272	24016.000000
594.566281	23775.666667
596.007694	23745.333333
597.448510	23688.000000
598.888731	23392.000000
600.328357	23353.666667
601.767388	23236.333333
603.205824	23092.333333
604.643666	22975.666667
606.080914	23107.666667
607.517568	23047.333333
608.953629	23022.333333
610.389097	22955.666667
611.823972	22796.666667
613.258255	22841.000000
614.691946	22650.333333
616.125046	22686.000000
617.557554	22498.333333
618.989471	22472.666667
620.420798	22361.333333
621.851534	22094.333333
623.281680	22177.333333
624.711237	21953.000000
626.140204	21919.000000
627.568582	21775.666667
628.996372	21752.000000
630.423573	21759.333333
631.850186	21644.000000
633.276211	21714.000000
634.701650	21597.000000
636.126501	21469.333333
637.550765	21522.666667
638.974443	21561.333333
640.397535	21550.666667
641.820041	21425.000000
643.241961	21453.333333
644.663297	21378.333333
646.084048	21425.666667
647.504214	21415.000000
648.923796	21305.666667
650.342795	21352.333333
651.761210	21270.000000
653.179041	21129.666667
654.596290	21240.666667
656.012957	21112.333333
657.429041	21173.000000
658.844543	21145.333333
660.259464	21149.333333
661.673804	21122.333333
663.087563	21157.000000
664.500741	21166.666667
665.913339	20988.666667
667.325357	21126.666667
668.736795	20998.000000
670.147654	21000.333333
671.557934	20946.333333
672.967636	20921.000000
674.376759	20928.666667
675.785304	20834.000000
677.193271	20952.000000
678.600661	20960.333333
680.007474	20827.000000
681.413711	20853.333333
682.819370	20687.333333
684.224454	20783.333333
685.628962	20599.666667
687.032895	20664.000000
688.436252	20627.666667
689.839034	20614.333333
691.241242	20575.333333
692.642876	20596.666667
694.043936	20536.000000
695.444422	20585.666667
696.844336	20562.666667
698.243676	20491.333333
699.642443	20315.000000
701.040639	20245.333333
702.438262	20407.333333
703.835313	20401.333333
705.231794	20416.333333
706.627703	20441.666667
708.023041	20345.666667
709.417810	20285.333333
710.812008	20245.000000
712.205636	20151.666667
713.598694	20200.333333
714.991184	20298.333333
716.383105	20380.333333
717.774457	20156.000000
719.165241	20119.333333
720.555457	20295.000000
721.945105	20180.666667
723.334187	20028.333333
724.722701	20214.000000
726.110648	20074.666667
727.498030	20088.333333
728.884845	20033.000000
730.271094	20068.000000
731.656778	19803.000000
733.041897	20008.666667
734.426451	19988.666667
735.810441	19912.666667
737.193866	19866.333333
738.576728	19940.333333
739.959026	19909.000000
741.340760	19867.000000
742.721932	19876.000000
744.102541	19918.000000
745.482588	19934.000000
746.862073	19847.333333
748.240996	19810.666667
749.619358	19814.333333
750.997158	19803.000000
752.374398	19766.000000
753.751077	19839.000000
755.127197	19659.666667
756.502756	19652.666667
757.877756	19573.666667
759.252196	19749.000000
760.626078	19686.666667
761.999400	19585.666667
763.372165	19636.000000
764.744371	19607.333333
766.116020	19433.000000
767.487111	19430.333333
768.857646	19424.666667
770.227623	19386.333333
771.597044	19344.000000
772.965908	19418.333333
774.334217	19321.000000
775.701970	19315.000000
777.069168	19341.666667
778.435811	19216.666667
779.801899	19105.333333
781.167433	19138.666667
782.532412	19028.333333
783.896838	19088.000000
785.260710	19057.666667
786.624029	19077.666667
787.986796	19000.666667
789.349009	18930.000000
790.710671	18978.000000
792.071780	19012.000000
793.432338	18895.666667
794.792344	18914.333333
796.151799	18985.333333
797.510704	18880.666667
798.869058	18805.333333
800.226862	18839.666667
801.584116	18814.000000
802.940820	18894.333333
804.296975	18747.000000
805.652581	18772.666667
807.007638	18824.333333
808.362147	18639.666667
809.716108	18816.666667
811.069521	18729.000000
812.422387	18697.000000
813.774705	18867.000000
815.126476	18710.000000
816.477701	18693.666667
817.828380	18709.333333
819.178512	18568.000000
820.528099	18703.000000
821.877140	18619.000000
823.225637	18618.666667
824.573588	18589.333333
825.920995	18552.000000
827.267857	18530.666667
828.614176	18542.000000
829.959951	18463.000000
831.305183	18410.666667
832.649871	18440.000000
833.994017	18466.333333
835.337620	18550.000000
836.680681	18359.666667
838.023201	18443.000000
839.365178	18519.000000
840.706614	18459.666667
842.047510	18542.000000
843.387864	18503.333333
844.727678	18532.333333
846.066952	18675.333333
847.405687	18483.000000
848.743881	18611.666667
850.081537	18576.333333
851.418653	18761.666667
852.755231	18695.333333
854.091270	18602.333333
855.426771	18687.000000
856.761735	18579.333333
858.096160	18502.666667
859.430049	18431.333333
860.763401	18402.333333
862.096216	18300.333333
863.428495	18372.000000
864.760237	18276.000000
866.091444	18231.333333
867.422115	18237.333333
868.752252	18169.000000
870.081853	18103.000000
871.410919	18145.333333
872.739452	18129.666667
874.067450	18158.666667
875.394914	18124.000000
876.721845	18151.333333
878.048243	18119.000000
879.374108	18062.333333
880.699440	18041.333333
882.024240	17964.333333
883.348508	17936.666667
884.672244	17938.666667
885.995449	17783.333333
887.318122	17664.666667
888.640265	17746.000000
889.961877	17785.333333
891.282959	17710.666667
892.603510	17662.000000
893.923532	17721.333333
895.243024	17590.666667
896.561987	17448.666667
897.880422	17557.000000
899.198327	17529.333333
900.515705	17524.333333
901.832554	17437.333333
903.148875	17393.333333
904.464669	17400.666667
905.779936	17349.333333
907.094676	17438.333333
908.408889	17574.666667
909.722576	17586.666667
911.035737	17487.000000
912.348371	17444.333333
913.660481	17555.333333
914.972065	17705.000000
916.283124	17784.333333
917.593659	17725.000000
918.903669	17850.000000
920.213155	17829.666667
921.522117	17842.666667
922.830556	17802.000000
924.138471	17841.666667
925.445864	17798.333333
926.752733	17858.000000
928.059081	17906.000000
929.364906	17883.666667
930.670209	18000.000000
931.974991	18029.666667
933.279251	18028.666667
934.582990	18172.000000
935.886209	18264.333333
937.188907	18486.000000
938.491085	18449.333333
939.792743	18809.333333
941.093881	18997.000000
942.394500	19277.333333
943.694600	19771.333333
944.994181	19926.000000
946.293243	20493.666667
947.591787	21056.000000
948.889813	21684.666667
950.187322	22409.333333
951.484313	23195.333333
952.780787	24162.333333
954.076744	25195.000000
955.372184	25980.333333
956.667108	26644.333333
957.961516	27321.333333
959.255409	27258.666667
960.548785	27065.333333
961.841647	26453.666667
963.133993	25607.666667
964.425825	24592.666667
965.717142	23406.000000
967.007946	22136.333333
968.298235	21221.333333
969.588011	20241.000000
970.877273	19542.666667
972.166023	18867.666667
973.454259	18266.666667
974.741984	17811.000000
976.029196	17511.000000
977.315895	17066.333333
978.602084	17015.000000
979.887761	16686.666667
981.172926	16606.000000
982.457581	16564.000000
983.741725	16443.000000
985.025359	16314.000000
986.308483	16237.000000
987.591097	16345.666667
988.873202	16276.666667
990.154797	16144.666667
991.435883	16251.333333
992.716461	16051.333333
993.996530	16096.666667
995.276091	16098.666667
996.555144	16093.666667
997.833690	16203.000000
999.111728	16181.333333
1000.389259	16203.000000
1001.666283	16323.000000
1002.942800	16246.666667
1004.218812	16266.333333
1005.494317	16125.666667
1006.769317	16176.333333
1008.043811	16101.333333
1009.317799	16268.666667
1010.591283	16111.333333
1011.864263	16004.000000
1013.136737	16101.333333
1014.408708	16139.000000
1015.680175	16144.000000
1016.951138	16104.666667
1018.221598	16075.666667
1019.491554	16094.333333
1020.761008	16153.666667
1022.029959	16072.333333
1023.298408	16221.666667
1024.566355	16180.000000
1025.833800	16267.000000
1027.100744	16286.000000
1028.367187	16246.666667
1029.633128	16158.000000
1030.898569	16227.000000
1032.163509	16238.666667
1033.427949	16193.333333
1034.691890	16280.666667
1035.955330	16283.333333
1037.218271	16221.000000
1038.480714	16186.666667
1039.742657	16165.666667
1041.004101	16245.333333
1042.265048	16269.333333
1043.525496	16242.000000
1044.785446	16201.000000
1046.044899	16138.333333
1047.303855	16205.333333
1048.562313	16087.000000
1049.820275	16033.666667
1051.077740	15998.666667
1052.334709	15996.333333
1053.591182	16076.666667
1054.847160	15966.333333
1056.102641	15980.333333
1057.357628	16078.000000
1058.612120	16145.333333
1059.866117	16161.333333
1061.119619	16108.000000
1062.372628	16247.333333
1063.625142	16281.333333
1064.877163	16306.333333
1066.128691	16378.666667
1067.379725	16367.666667
1068.630267	16338.333333
1069.880316	16320.333333
1071.129872	16260.666667
1072.378937	16262.666667
1073.627509	16156.333333
1074.875590	16126.333333
1076.123180	16016.000000
1077.370279	15886.000000
1078.616887	15744.666667
1079.863004	15525.333333
1081.108631	15412.333333
1082.353768	15274.333333
1083.598415	15303.333333
1084.842573	15113.666667
1086.086241	14971.666667
1087.329421	14938.333333
1088.572111	14826.000000
1089.814314	14731.000000
1091.056028	14750.666667
1092.297253	14635.000000
1093.537992	14580.333333
1094.778242	14558.000000
1096.018006	14544.333333
1097.257282	14495.000000
1098.496072	14418.333333
1099.734376	14448.000000
1100.972193	14399.000000
1102.209524	14360.333333
1103.446370	14238.666667
1104.682730	14341.000000
1105.918604	14336.333333
1107.153994	14158.333333
1108.388900	14182.333333
1109.623320	14171.333333
1110.857257	14072.333333
1112.090710	14041.333333
1113.323679	13960.000000
1114.556164	13953.333333
1115.788167	13942.333333
1117.019686	13799.000000
1118.250723	13733.000000
1119.481278	13762.333333
1120.711350	13761.000000
1121.940940	13806.333333
1123.170049	13861.666667
1124.398676	13758.333333
1125.626823	13733.333333
1126.854488	13641.666667
1128.081672	13801.333333
1129.308376	13591.000000
1130.534600	13726.666667
1131.760345	13613.333333
1132.985609	13601.000000
1134.210394	13571.333333
1135.434700	13544.333333
1136.658527	13552.333333
1137.881875	13474.000000
1139.104745	13458.333333
1140.327136	13544.000000
1141.549050	13391.333333
1142.770486	13407.333333
1143.991445	13429.333333
1145.211926	13318.666667
1146.431931	13434.000000
1147.651459	13504.000000
1148.870510	13373.333333
1150.089086	13354.333333
1151.307185	13305.000000
1152.524808	13360.000000
1153.741957	13345.000000
1154.958630	13298.666667
1156.174828	13314.666667
1157.390551	13256.666667
1158.605800	13217.000000
1159.820574	13162.666667
1161.034875	13246.000000
1162.248702	13227.333333
1163.462055	13180.000000
1164.674936	13211.000000
1165.887343	13150.000000
1167.099277	13145.333333
1168.310739	13181.666667
1169.521729	13212.000000
1170.732247	13203.000000
1171.942293	13090.333333
1173.151867	13053.666667
1174.360970	13149.333333
1175.569602	13023.666667
1176.777764	13102.000000
1177.985454	13053.666667
1179.192675	12918.666667
1180.399425	13005.333333
1181.605706	12957.333333
1182.811517	12906.000000
1184.016859	12858.333333
1185.221731	12831.333333
1186.426135	12862.333333
1187.630070	12886.333333
1188.833537	12808.333333
1190.036535	12752.333333
1191.239066	12756.666667
1192.441129	12779.666667
1193.642725	12632.333333
1194.843853	12594.666667
1196.044515	12707.333333
1197.244710	12719.666667
1198.444438	12623.333333
1199.643701	12665.666667
1200.842497	12672.333333
1202.040827	12656.333333
1203.238693	12633.333333
1204.436092	12662.666667
1205.633027	12643.333333
1206.829497	12505.333333
1208.025503	12503.000000
1209.221044	12429.333333
1210.416122	12443.333333
1211.610735	12407.666667
1212.804885	12377.333333
1213.998572	12369.333333
1215.191795	12321.666667
1216.384556	12228.000000
1217.576854	12303.666667
1218.768689	12260.666667
1219.960063	12236.333333
1221.150974	12133.333333
1222.341424	12275.333333
1223.531413	12189.000000
1224.720940	12253.000000
1225.910006	12310.000000
1227.098612	12291.000000
1228.286757	12272.000000
1229.474442	12397.666667
1230.661667	12459.000000
1231.848432	12319.000000
1233.034738	12543.666667
1234.220584	12432.000000
1235.405971	12580.666667
1236.590900	12515.333333
1237.775369	12535.666667
1238.959381	12440.666667
1240.142934	12525.000000
1241.326029	12552.666667
1242.508667	12558.333333
1243.690848	12600.000000
1244.872571	12589.000000
1246.053837	12549.666667
1247.234646	12471.000000
1248.414999	12525.000000
1249.594896	12430.666667
1250.774337	12528.666667
1251.953322	12432.000000
1253.131851	12356.000000
1254.309925	12417.333333
1255.487544	12349.666667
1256.664708	12334.000000
1257.841417	12203.666667
1259.017673	12230.000000
1260.193473	12211.666667
1261.368820	12256.333333
1262.543714	12210.666667
1263.718154	12316.666667
1264.892140	12284.333333
1266.065674	12334.333333
1267.238755	12370.000000
1268.411383	12281.666667
1269.583559	12308.333333
1270.755283	12275.333333
1271.926555	12273.666667
1273.097375	12299.333333
1274.267744	12236.666667
1275.437662	12250.333333
1276.607129	12137.666667
1277.776145	12005.333333
1278.944711	12114.000000
1280.112827	12034.666667
1281.280492	12051.666667
1282.447708	11968.333333
1283.614474	11866.333333
1284.780791	11945.666667
1285.946659	11869.666667
1287.112078	11758.666667
1288.277048	11794.666667
1289.441570	11731.000000
1290.605644	11634.333333
1291.769270	11637.666667
1292.932448	11625.666667
1294.095178	11544.666667
1295.257461	11524.000000
1296.419298	11494.666667
1297.580687	11458.666667
1298.741630	11458.333333
1299.902126	11394.666667
1301.062177	11332.333333
1302.221781	11465.000000
1303.380940	11381.333333
1304.539653	11389.000000
1305.697921	11403.666667
1306.855744	11428.000000
1308.013123	11382.666667
1309.170056	11370.666667
1310.326546	11400.000000
1311.482591	11414.000000
1312.638193	11354.000000
1313.793350	11368.666667
1314.948065	11318.000000
1316.102336	11419.333333
1317.256164	11342.000000
1318.409550	11325.666667
1319.562493	11282.000000
1320.714993	11248.000000
1321.867052	11192.666667
1323.018668	11174.000000
1324.169843	11147.666667
1325.320577	11076.000000
1326.470870	11044.000000
1327.620721	11035.666667
1328.770132	11002.666667
1329.919102	10969.333333
1331.067632	11094.000000
1332.215722	10979.333333
1333.363372	10927.333333
1334.510582	10909.000000
1335.657353	10941.000000
1336.803685	11034.000000
1337.949578	10985.333333
1339.095032	10955.333333
1340.240048	10881.333333
1341.384625	10944.000000
1342.528764	10927.666667
1343.672466	10911.666667
1344.815729	10894.000000
1345.958556	10812.333333
1347.100945	10731.000000
1348.242897	10815.333333
1349.384413	10800.666667
1350.525492	10814.333333
1351.666134	10766.333333
1352.806341	10691.333333
1353.946111	10714.666667
1355.085446	10698.000000
1356.224346	10603.333333
1357.362810	10657.000000
1358.500840	10568.666667
1359.638434	10544.666667
1360.775594	10492.000000
1361.912320	10489.333333
1363.048612	10497.333333
1364.184469	10572.333333
1365.319893	10430.333333
1366.454884	10490.000000
1367.589441	10517.333333
1368.723566	10447.333333
1369.857257	10431.000000
1370.990516	10450.000000
1372.123343	10511.666667
1373.255737	10521.333333
1374.387699	10436.666667
1375.519230	10510.333333
1376.650329	10479.666667
1377.780997	10543.000000
1378.911234	10453.333333
1380.041040	10450.666667
1381.170416	10498.333333
1382.299361	10418.000000
1383.427875	10489.666667
1384.555960	10455.666667
1385.683615	10464.333333
1386.810841	10346.666667
1387.937637	10407.000000
1389.064004	10415.666667
1390.189942	10394.333333
1391.315451	10432.666667
1392.440532	10292.666667
1393.565185	10373.333333
1394.689409	10362.000000
1395.813206	10301.666667
1396.936575	10386.333333
1398.059517	10215.000000
1399.182032	10270.000000
1400.304119	10255.333333
1401.425780	10307.000000
1402.547014	10289.666667
1403.667822	10228.666667
1404.788204	10263.333333
1405.908160	10135.333333
1407.027690	10203.666667
1408.146795	10177.333333
1409.265474	10318.666667
1410.383728	10199.666667
1411.501558	10246.333333
1412.618963	10085.000000
1413.735943	10186.666667
1414.852499	10326.666667
1415.968632	10238.333333
1417.084340	10254.000000
1418.199625	10172.666667
1419.314486	10224.333333
1420.428925	10159.666667
1421.542940	10219.000000
1422.656533	10203.000000
1423.769703	10118.000000
1424.882451	10225.000000
1425.994777	10198.333333
1427.106680	10158.000000
1428.218163	10124.333333
1429.329223	10091.000000
1430.439863	10073.333333
1431.550081	9991.666667
1432.659879	10012.000000
1433.769256	9955.333333
1434.878212	9977.666667
1435.986749	9995.000000
1437.094865	9952.666667
1438.202562	10047.333333
1439.309839	10042.666667
1440.416696	10115.666667
1441.523135	10047.333333
1442.629154	10155.333333
1443.734755	10127.000000
1444.839937	10108.333333
1445.944701	10195.333333
1447.049047	10161.333333
1448.152975	10191.666667
1449.256485	10219.666667
1450.359577	10165.000000
1451.462253	10215.666667
1452.564511	10199.666667
1453.666352	10149.666667
1454.767777	10091.000000
1455.868785	10096.666667
1456.969377	10029.333333
1458.069553	9996.666667
1459.169313	9957.000000
1460.268658	9891.666667
1461.367587	9884.666667
1462.466101	9815.666667
1463.564200	9786.666667
1464.661884	9776.333333
1465.759153	9778.000000
1466.856008	9636.000000
1467.952449	9600.666667
1469.048476	9482.666667
1470.144089	9455.666667
1471.239288	9473.000000
1472.334074	9242.333333
1473.428447	9231.000000
1474.522407	9284.666667
1475.615955	9168.666667
1476.709089	9151.000000
1477.801812	9092.000000
1478.894122	9111.666667
1479.986020	8989.666667
1481.077506	8978.333333
1482.168581	8891.000000
1483.259245	8946.333333
1484.349498	8931.000000
1485.439339	8924.666667
1486.528770	8916.333333
1487.617790	8896.333333
1488.706400	8908.333333
1489.794600	8857.000000
1490.882390	8858.333333
1491.969771	8814.000000
1493.056742	8836.000000
1494.143303	8867.000000
1495.229456	8869.333333
1496.315199	8755.000000
1497.400534	8848.333333
1498.485460	8734.000000
1499.569978	8790.333333
1500.654088	8717.000000
1501.737790	8696.333333
1502.821085	8657.666667
1503.903972	8621.000000
1504.986451	8622.000000
1506.068524	8551.666667
1507.150189	8533.666667
1508.231448	8575.666667
1509.312301	8517.666667
1510.392747	8500.333333
1511.472787	8492.000000
1512.552422	8429.000000
1513.631650	8464.666667
1514.710473	8395.333333
1515.788891	8448.666667
1516.866904	8423.000000
1517.944512	8388.333333
1519.021715	8471.333333
1520.098513	8451.666667
1521.174908	8485.333333
1522.250898	8443.000000
1523.326485	8464.666667
1524.401667	8488.000000
1525.476447	8431.000000
1526.550823	8474.333333
1527.624796	8430.333333
1528.698365	8456.333333
1529.771533	8477.000000
1530.844298	8434.333333
1531.916660	8345.666667
1532.988620	8409.666667
1534.060179	8426.000000
1535.131336	8370.333333
1536.202091	8343.666667
1537.272445	8421.333333
1538.342398	8331.666667
1539.411950	8269.000000
1540.481101	8337.666667
1541.549851	8329.000000
1542.618202	8253.000000
1543.686152	8245.000000
1544.753702	8272.000000
1545.820853	8181.000000
1546.887604	8138.666667
1547.953955	8122.333333
1549.019908	8136.000000
1550.085461	8122.333333
1551.150616	8166.666667
1552.215372	8070.333333
1553.279730	8152.000000
1554.343690	8082.000000
1555.407252	8124.000000
1556.470415	7965.333333
1557.533182	8043.000000
1558.595551	8028.000000
1559.657522	7928.000000
1560.719097	8010.000000
1561.780275	8020.666667
1562.841056	7971.666667
1563.901441	8052.000000
1564.961429	8021.666667
1566.021022	7954.666667
1567.080219	7983.000000
1568.139020	7935.000000
1569.197425	7987.333333
1570.255436	7956.666667
1571.313051	7933.333333
1572.370271	7979.000000
1573.427097	7891.000000
1574.483528	7876.000000
1575.539565	7798.333333
1576.595208	7835.666667
1577.650457	7825.333333
1578.705312	7829.666667
1579.759774	7839.000000
1580.813842	7795.333333
1581.867517	7777.333333
1582.920799	7780.666667
1583.973689	7724.333333
1585.026186	7688.666667
1586.078290	7733.000000
1587.130002	7633.666667
1588.181323	7666.666667
1589.232251	7664.333333
1590.282788	7694.000000
1591.332933	7615.666667
1592.382688	7645.000000
1593.432051	7646.000000
1594.481023	7633.333333
1595.529605	7630.666667
1596.577796	7579.000000
1597.625597	7683.333333
1598.673007	7739.333333
1599.720028	7629.000000
1600.766660	7628.666667
1601.812901	7700.000000
1602.858753	7660.000000
1603.904217	7682.333333
1604.949291	7809.000000
1605.993976	7737.000000
1607.038273	7700.000000
1608.082182	7817.333333
1609.125702	7746.000000
1610.168834	7685.333333
1611.211579	7639.000000
1612.253935	7598.000000
1613.295905	7699.666667
1614.337487	7647.333333
1615.378682	7676.666667
1616.419490	7604.000000
1617.459912	7664.333333
1618.499946	7662.333333
1619.539595	7480.666667
1620.578858	7618.666667
1621.617734	7516.333333
1622.656225	7548.000000
1623.694330	7622.666667
1624.732050	7614.666667
1625.769385	7506.666667
1626.806334	7525.333333
1627.842899	7525.666667
1628.879079	7550.333333
1629.914875	7518.333333
1630.950286	7526.333333
1631.985314	7565.000000
1633.019957	7527.666667
1634.054217	7510.666667
1635.088093	7566.666667
1636.121586	7569.333333
1637.154696	7518.000000
1638.187423	7566.666667
1639.219767	7554.000000
1640.251728	7553.333333
1641.283307	7514.000000
1642.314504	7559.000000
1643.345319	7589.333333
1644.375751	7601.333333
1645.405803	7529.333333
1646.435472	7531.333333
1647.464761	7560.000000
1648.493668	7591.333333
1649.522194	7524.666667
1650.550340	7515.666667
1651.578105	7582.333333
1652.605490	7476.333333
1653.632494	7517.666667
1654.659119	7485.000000
1655.685363	7507.333333
1656.711228	7418.666667
1657.736714	7481.000000
1658.761820	7427.000000
1659.786547	7463.666667
1660.810895	7392.000000
1661.834865	7412.333333
1662.858456	7337.000000
1663.881668	7413.333333
1664.904503	7364.333333
1665.926959	7322.666667
1666.949038	7302.333333
1667.970739	7192.666667
1668.992062	7264.333333
1670.013008	7245.666667
1671.033577	7177.333333
1672.053770	7161.666667
1673.073585	7142.333333
1674.093024	7143.333333
1675.112086	7078.333333
1676.130773	7101.333333
1677.149083	7083.000000
1678.167017	7095.666667
1679.184576	7105.666667
1680.201760	7115.666667
1681.218568	7034.000000
1682.235001	7096.333333
1683.251059	7042.000000
1684.266742	7043.000000
1685.282051	7095.333333
1686.296985	6986.333333
1687.311546	6964.000000
1688.325732	6975.333333
1689.339544	6924.000000
1690.352983	6840.333333
1691.366048	6862.000000
1692.378740	6831.333333
1693.391058	6783.333333
1694.403004	6799.666667
1695.414577	6757.333333
1696.425778	6705.333333
1697.436606	6691.333333
1698.447061	6594.333333
1699.457145	6567.333333
1700.466857	6531.000000
1701.476197	6580.666667
1702.485166	6484.000000
1703.493763	6499.333333
1704.501989	6499.666667
1705.509844	6508.666667
1706.517328	6457.000000
1707.524442	6451.000000
1708.531185	6458.666667
1709.537558	6359.000000
1710.543561	6399.666667
1711.549194	6366.000000
1712.554457	6373.000000
1713.559351	6421.000000
1714.563875	6405.333333
1715.568030	6390.333333
1716.571816	6430.000000
1717.575233	6440.333333
1718.578282	6429.666667
1719.580962	6427.666667
1720.583273	6458.666667
1721.585217	6414.666667
1722.586792	6506.000000
1723.588000	6463.000000
1724.588840	6514.666667
1725.589312	6550.666667
1726.589418	6468.666667
1727.589156	6488.333333
1728.588527	6497.000000
1729.587532	6494.666667
1730.586170	6539.333333
1731.584441	6489.333333
1732.582346	6468.666667
1733.579886	6536.666667
1734.577059	6434.333333
1735.573867	6365.666667
1736.570309	6421.333333
1737.566386	6449.333333
1738.562097	6417.666667
1739.557444	6365.000000
1740.552426	6360.333333
1741.547043	6370.666667
1742.541295	6368.666667
1743.535184	6321.000000
1744.528708	6292.333333
1745.521868	6314.000000
1746.514664	6295.000000
1747.507097	6268.000000
1748.499166	6256.666667
1749.490873	6243.000000
1750.482216	6227.333333
1751.473196	6210.000000
1752.463813	6203.000000
1753.454068	6198.000000
1754.443960	6204.000000
1755.433490	6151.000000
1756.422658	6174.000000
1757.411464	6195.666667
1758.399908	6147.333333
1759.387991	6183.666667
1760.375713	6106.333333
1761.363073	6111.666667
1762.350072	6089.666667
1763.336711	6048.000000
1764.322988	6070.333333
1765.308905	6052.000000
1766.294462	6000.000000
1767.279659	6018.666667
1768.264496	6003.333333
1769.248972	5976.000000
1770.233089	5955.666667
1771.216847	5905.000000
1772.200245	5797.333333
1773.183284	5839.666667
1774.165965	5815.333333
1775.148286	5860.000000
1776.130249	5759.666667
1777.111853	5737.666667
1778.093099	5721.666667
1779.073987	5728.333333
1780.054517	5666.333333
1781.034689	5644.000000
1782.014503	5631.666667
1782.993960	5636.333333
1783.973060	5598.666667
1784.951802	5554.000000
1785.930188	5550.333333
1786.908217	5492.666667
1787.885889	5452.000000
1788.863205	5513.333333
1789.840164	5416.666667
1790.816768	5438.333333
1791.793015	5449.333333
1792.768907	5387.666667
1793.744443	5440.666667
1794.719624	5370.666667
1795.694449	5421.666667
1796.668919	5404.000000
1797.643035	5442.333333
1798.616795	5465.333333
1799.590201	5478.000000
1800.563253	5461.000000
1801.535950	5422.333333
1802.508294	5472.666667
1803.480283	5486.000000
1804.451919	5455.666667
1805.423201	5471.666667
1806.394129	5523.333333
1807.364705	5500.000000
1808.334927	5463.000000
1809.304796	5504.666667
1810.274313	5513.666667
1811.243477	5573.000000
1812.212288	5538.000000
1813.180747	5558.333333
1814.148855	5580.666667
1815.116610	5537.333333
1816.084013	5550.666667
1817.051065	5585.333333
1818.017766	5562.666667
1818.984115	5549.666667
1819.950113	5565.333333
1820.915760	5530.333333
1821.881057	5588.666667
1822.846003	5522.000000
1823.810598	5525.666667
1824.774843	5535.666667
1825.738738	5543.000000
1826.702283	5505.666667
1827.665479	5434.666667
1828.628324	5477.333333
1829.590821	5447.333333
1830.552968	5523.333333
1831.514765	5433.333333
1832.476214	5485.333333
1833.437314	5465.333333
1834.398066	5458.666667
1835.358469	5427.666667
1836.318524	5483.333333
1837.278230	5412.333333
1838.237589	5367.000000
1839.196600	5407.333333
1840.155263	5385.666667
1841.113578	5364.333333
1842.071547	5327.000000
1843.029168	5370.666667
1843.986442	5390.333333
1844.943369	5379.000000
1845.899950	5324.666667
1846.856184	5287.333333
1847.812072	5329.000000
1848.767614	5307.666667
1849.722809	5281.000000
1850.677659	5266.000000
1851.632163	5198.666667
1852.586322	5223.333333
1853.540135	5239.333333
1854.493603	5236.000000
1855.446726	5247.333333
1856.399504	5150.000000
1857.351937	5110.000000
1858.304026	5106.000000
1859.255770	5082.333333
1860.207170	5062.333333
1861.158227	5018.666667
1862.108939	4992.333333
1863.059307	4891.666667
1864.009332	4946.000000
1864.959013	4927.000000
1865.908351	4891.000000
1866.857346	4939.000000
1867.805998	4857.000000
1868.754307	4818.666667
1869.702274	4871.000000
1870.649898	4849.000000
1871.597180	4823.333333
1872.544119	4737.333333
1873.490717	4775.000000
1874.436973	4765.000000
1875.382887	4754.333333
1876.328459	4731.000000
1877.273691	4770.666667
1878.218581	4742.666667
1879.163130	4752.000000
1880.107338	4763.000000
1881.051205	4741.333333
1881.994732	4750.000000
1882.937919	4835.000000
1883.880765	4779.333333
1884.823271	4714.666667
1885.765437	4763.000000
1886.707264	4781.666667
1887.648750	4809.333333
1888.589898	4836.333333
1889.530706	4840.333333
1890.471175	4854.333333
1891.411305	4780.333333
1892.351096	4761.666667
1893.290548	4825.333333
1894.229662	4816.666667
1895.168438	4842.333333
1896.106876	4806.333333
1897.044975	4832.000000
1897.982737	4782.666667
1898.920160	4805.666667
1899.857247	4788.000000
1900.793996	4819.333333
1901.730407	4814.666667
1902.666482	4812.333333
1903.602219	4730.333333
1904.537620	4755.333333
1905.472685	4756.000000
1906.407412	4653.666667
1907.341804	4662.666667
1908.275859	4617.666667
1909.209579	4591.000000
1910.142962	4644.000000
1911.076010	4593.000000
1912.008722	4593.333333
1912.941099	4578.333333
1913.873141	4550.333333
1914.804848	4450.000000
1915.736219	4467.000000
1916.667256	4439.333333
1917.597959	4441.000000
1918.528327	4439.000000
1919.458360	4413.000000
1920.388060	4419.000000
1921.317426	4329.666667
1922.246457	4368.333333
1923.175156	4351.000000
1924.103520	4317.333333
1925.031552	4355.000000
1925.959250	4321.000000
1926.886615	4357.000000
1927.813647	4370.000000
1928.740346	4257.000000
1929.666713	4264.333333
1930.592748	4302.000000
1931.518450	4303.000000
1932.443820	4317.000000
1933.368858	4298.333333
1934.293564	4263.666667
1935.217939	4250.000000
1936.141982	4274.333333
1937.065694	4278.333333
1937.989074	4307.000000
1938.912124	4257.000000
1939.834842	4212.333333
1940.757230	4261.666667
1941.679287	4165.000000
1942.601014	4180.333333
1943.522411	4137.000000
1944.443477	4149.333333
1945.364214	4121.333333
1946.284621	4177.000000
1947.204698	4118.333333
1948.124445	4084.333333
1949.043863	4144.666667
1949.962952	4017.333333
1950.881712	4032.000000
1951.800143	4077.000000
1952.718245	4013.000000
1953.636019	4005.666667
1954.553464	4014.333333
1955.470581	3991.000000
1956.387369	3967.666667
1957.303830	4009.000000
1958.219963	3955.666667
1959.135768	3968.333333
1960.051246	3978.000000
1960.966396	3991.333333
1961.881219	3993.333333
1962.795715	3930.000000
1963.709883	4044.000000
1964.623726	4022.666667
1965.537241	4025.333333
1966.450430	4050.000000
1967.363293	4025.000000
1968.275829	4037.666667
1969.188040	4099.000000
1970.099924	4081.333333
1971.011483	4042.000000
1971.922716	4081.333333
1972.833624	4015.333333
1973.744206	4030.333333
1974.654464	4081.666667
1975.564396	4086.666667
1976.474004	4046.666667
1977.383286	4061.666667
1978.292245	4015.000000
1979.200878	4051.000000
1980.109188	3997.333333
1981.017174	3942.666667
1981.924835	4000.666667
1982.832173	3944.666667
1983.739187	3898.000000
1984.645878	3909.000000
1985.552245	3915.333333
1986.458289	3890.000000
1987.364010	3856.666667
1988.269408	3835.333333
1989.174484	3791.333333
1990.079236	3739.333333
1990.983667	3803.666667
1991.887775	3734.333333
1992.791561	3737.666667
1993.695024	3730.333333
1994.598166	3702.000000
1995.500986	3655.666667
1996.403485	3652.666667
1997.305662	3672.000000
1998.207518	3613.666667
1999.109053	3588.000000
