200.151048	12329.000000
201.758777	12201.666667
203.365815	12191.333333
204.972162	12148.666667
206.577820	11983.333333
208.182787	12058.333333
209.787065	12041.333333
211.390653	11909.666667
212.993553	11818.666667
214.595765	11797.333333
216.197289	11838.666667
217.798125	11719.333333
219.398274	11807.000000
220.997737	11736.000000
222.596513	11671.000000
224.194603	11633.333333
225.792008	11501.000000
227.388728	11477.666667
228.984763	11559.333333
230.580114	11462.666667
232.174781	11478.000000
233.768765	11395.333333
235.362065	11398.000000
236.954683	11360.000000
238.546619	11255.666667
240.137872	11257.333333
241.728445	11259.666667
243.318336	11209.000000
244.907546	11158.333333
246.496076	11159.000000
248.083926	11054.666667
249.671097	11051.333333
251.257589	10971.000000
252.843402	10910.333333
254.428536	10838.000000
256.012993	10811.333333
257.596772	10714.000000
259.179874	10722.666667
260.762300	10692.000000
262.344049	10758.333333
263.925122	10597.000000
265.505519	10587.333333
267.085241	10614.000000
268.664289	10569.000000
270.242662	10532.000000
271.820361	10506.000000
273.397387	10525.333333
274.973740	10503.666667
276.549419	10476.333333
278.124426	10423.333333
279.698762	10415.333333
281.272425	10496.666667
282.845417	10430.666667
284.417739	10462.333333
285.989390	10458.000000
287.560371	10443.333333
289.130682	10400.333333
290.700324	10351.000000
292.269297	10332.333333
293.837602	10332.666667
295.405238	10242.666667
296.972207	10240.666667
298.538508	10276.333333
300.104142	10178.000000
301.669110	10317.333333
303.233411	10154.333333
304.797047	10054.666667
306.360017	10075.666667
307.922322	10012.666667
309.483963	10005.666667
311.044939	10008.000000
312.605252	9876.333333
314.164900	9833.000000
315.723886	9827.666667
317.282209	9736.333333
318.839870	9705.333333
320.396868	9674.333333
321.953205	9524.333333
323.508881	9608.333333
325.063896	9521.333333
326.618251	9559.333333
328.171945	9569.000000
329.724980	9488.333333
331.277356	9465.000000
332.829072	9388.666667
334.380131	9399.666667
335.930530	9428.666667
337.480273	9361.666667
339.029357	9317.000000
340.577785	9350.333333
342.125556	9269.666667
343.672671	9259.000000
345.219130	9275.666667
346.764933	9241.000000
348.310081	9190.000000
349.854575	9127.333333
351.398414	9103.000000
352.941599	9035.333333
354.484130	9097.666667
356.026008	9093.333333
357.567234	9014.666667
359.107807	8989.666667
360.647727	9015.000000
362.186996	8950.333333
363.725614	8928.333333
365.263580	8983.666667
366.800896	8881.333333
368.337562	8772.000000
369.873578	8852.666667
371.408944	8828.333333
372.943661	8798.000000
374.477730	8797.333333
376.011150	8846.000000
377.543922	8859.000000
379.076046	8916.000000
380.607523	8872.666667
382.138353	8889.000000
383.668537	8938.666667
385.198075	8846.666667
386.726966	8910.666667
388.255213	8909.000000
389.782814	8957.000000
391.309770	9049.000000
392.836083	8991.666667
394.361751	8957.666667
395.886776	8925.666667
397.411157	8923.333333
398.934896	8910.666667
400.457992	8972.666667
401.980446	9044.333333
403.502258	8989.000000
405.023429	9064.000000
406.543959	9097.666667
408.063849	9067.000000
409.583098	9158.666667
411.101707	9081.666667
412.619677	9210.666667
414.137007	9132.666667
415.653699	9350.333333
417.169752	9490.666667
418.685167	9551.666667
420.199945	9648.000000
421.714085	9799.333333
423.227588	9832.000000
424.740454	10034.000000
426.252684	10083.666667
427.764279	10163.666667
429.275238	10197.666667
430.785561	10126.000000
432.295250	10105.333333
433.804304	10037.333333
435.312725	9869.333333
436.820511	9843.666667
438.327664	9660.333333
439.834185	9625.333333
441.340072	9589.000000
442.845327	9419.666667
444.349951	9444.333333
445.853942	9470.666667
447.357303	9425.333333
448.860033	9414.666667
450.362132	9249.333333
451.863601	9190.333333
453.364440	9157.000000
454.864650	9056.333333
456.364231	8915.333333
457.863183	8873.000000
459.361507	8802.666667
460.859203	8768.333333
462.356271	8617.000000
463.852712	8577.000000
465.348526	8500.333333
466.843714	8494.333333
468.338275	8395.000000
469.832210	8398.666667
471.325520	8277.666667
472.818205	8221.000000
474.310265	8212.000000
475.801700	8143.333333
477.292512	8162.333333
478.782700	8219.000000
480.272264	8096.666667
481.761205	8134.000000
483.249524	8035.666667
484.737221	8064.000000
486.224295	8006.333333
487.710748	8014.333333
489.196579	8025.333333
490.681790	7909.000000
492.166380	7880.666667
493.650350	7875.333333
495.133700	7872.333333
496.616431	7821.333333
498.098542	7864.000000
499.580035	7821.333333
501.060909	7859.333333
502.541165	7791.666667
504.020804	7827.000000
505.499825	7771.333333
506.978228	7816.666667
508.456016	7775.000000
509.933186	7812.333333
511.409741	7795.333333
512.885680	7746.333333
514.361004	7719.666667
515.835713	7744.333333
517.309807	7699.333333
518.783287	7689.000000
520.256153	7731.333333
521.728406	7724.666667
523.200045	7779.000000
524.671071	7776.333333
526.141485	7755.666667
527.611287	7742.000000
529.080476	7770.666667
530.549054	7808.000000
532.017021	7763.333333
533.484378	7732.000000
534.951123	7798.333333
536.417259	7731.666667
537.882785	7747.000000
539.347701	7702.000000
540.812008	7690.666667
542.275707	7694.000000
543.738797	7716.666667
545.201279	7687.333333
546.663153	7652.000000
548.124420	7689.666667
549.585080	7728.000000
551.045133	7689.000000
552.504579	7689.000000
553.963420	7789.000000
555.421655	7795.000000
556.879285	7799.000000
558.336309	7849.666667
559.792729	7800.666667
561.248545	7841.000000
562.703756	7892.666667
564.158364	7954.666667
565.612369	7901.666667
567.065770	7933.333333
568.518569	7983.000000
569.970766	8044.000000
571.422361	8057.333333
572.873354	8272.000000
574.323745	8250.666667
575.773536	8354.666667
577.222726	8430.333333
578.671316	8475.000000
580.119306	8552.000000
581.566696	8544.333333
583.013487	8530.333333
584.459679	8550.000000
585.905273	8483.333333
587.350268	8424.333333
588.794665	8452.666667
590.238465	8370.666667
591.681667	8419.666667
593.124272	8341.000000
594.566281	8209.000000
596.007694	8069.666667
597.448510	8034.666667
598.888731	7852.000000
600.328357	7831.333333
601.767388	7740.333333
603.205824	7725.666667
604.643666	7743.000000
606.080914	7723.333333
607.517568	7670.333333
608.953629	7792.666667
610.389097	7815.333333
611.823972	7682.666667
613.258255	7678.333333
614.691946	7565.333333
616.125046	7547.666667
617.557554	7460.666667
618.989471	7438.666667
620.420798	7343.666667
621.851534	7251.000000
623.281680	7226.666667
624.711237	7157.666667
626.140204	7118.333333
627.568582	7090.666667
628.996372	7098.000000
630.423573	7056.000000
631.850186	7015.333333
633.276211	6933.666667
634.701650	6929.666667
636.126501	6915.333333
637.550765	6954.333333
638.974443	6931.666667
640.397535	6906.000000
641.820041	6894.333333
643.241961	6874.666667
644.663297	6932.666667
646.084048	6899.333333
647.504214	6855.666667
648.923796	6909.333333
650.342795	6873.000000
651.761210	6796.666667
653.179041	6854.000000
654.596290	6887.333333
656.012957	6884.333333
657.429041	6831.333333
658.844543	6839.000000
660.259464	6841.000000
661.673804	6811.000000
663.087563	6863.666667
664.500741	6759.666667
665.913339	6836.333333
667.325357	6765.666667
668.736795	6852.666667
670.147654	6787.000000
671.557934	6780.000000
672.967636	6766.333333
674.376759	6761.666667
675.785304	6793.000000
677.193271	6787.333333
678.600661	6776.666667
680.007474	6730.333333
681.413711	6708.333333
682.819370	6792.666667
684.224454	6786.666667
685.628962	6705.666667
687.032895	6713.333333
688.436252	6787.333333
689.839034	6667.666667
691.241242	6712.000000
692.642876	6737.000000
694.043936	6725.666667
695.444422	6645.666667
696.844336	6646.000000
698.243676	6682.666667
699.642443	6638.000000
701.040639	6656.666667
702.438262	6660.000000
703.835313	6670.000000
705.231794	6672.666667
706.627703	6654.666667
708.023041	6669.333333
709.417810	6592.000000
710.812008	6648.666667
712.205636	6591.666667
713.598694	6589.666667
714.991184	6639.000000
716.383105	6593.000000
717.774457	6587.666667
719.165241	6624.333333
720.555457	6632.333333
721.945105	6546.333333
723.334187	6593.666667
724.722701	6542.333333
726.110648	6517.666667
727.498030	6524.666667
728.884845	6485.333333
730.271094	6557.000000
731.656778	6542.000000
733.041897	6518.333333
734.426451	6522.666667
735.810441	6422.000000
737.193866	6467.666667
738.576728	6387.333333
739.959026	6475.333333
741.340760	6434.666667
742.721932	6524.333333
744.102541	6425.666667
745.482588	6463.333333
746.862073	6480.666667
748.240996	6452.333333
749.619358	6508.333333
750.997158	6496.666667
752.374398	6527.666667
753.751077	6464.666667
755.127197	6487.333333
756.502756	6519.333333
757.877756	6508.000000
759.252196	6450.333333
760.626078	6442.000000
761.999400	6517.666667
763.372165	6411.000000
764.744371	6462.333333
766.116020	6375.666667
767.487111	6382.000000
768.857646	6449.333333
770.227623	6354.000000
771.597044	6401.333333
772.965908	6306.666667
774.334217	6390.666667
775.701970	6344.000000
777.069168	6271.000000
778.435811	6288.000000
779.801899	6375.666667
781.167433	6296.000000
782.532412	6324.000000
783.896838	6285.333333
785.260710	6304.333333
786.624029	6313.666667
787.986796	6296.333333
789.349009	6285.333333
790.710671	6285.000000
792.071780	6263.333333
793.432338	6242.000000
794.792344	6209.333333
796.151799	6249.666667
797.510704	6160.333333
798.869058	6183.666667
800.226862	6195.333333
801.584116	6177.666667
802.940820	6193.333333
804.296975	6277.333333
805.652581	6209.000000
807.007638	6235.000000
808.362147	6237.000000
809.716108	6256.000000
811.069521	6275.000000
812.422387	6254.333333
813.774705	6269.333333
815.126476	6327.000000
816.477701	6199.000000
817.828380	6275.333333
819.178512	6206.333333
820.528099	6201.000000
821.877140	6176.666667
823.225637	6215.000000
824.573588	6161.666667
825.920995	6154.333333
827.267857	6123.666667
828.614176	6111.000000
829.959951	6150.333333
831.305183	6163.666667
832.649871	6188.333333
833.994017	6184.333333
835.337620	6137.000000
836.680681	6170.666667
838.023201	6163.000000
839.365178	6227.000000
840.706614	6252.333333
842.047510	6175.666667
843.387864	6206.000000
844.727678	6248.000000
846.066952	6283.000000
847.405687	6300.000000
848.743881	6281.333333
850.081537	6320.333333
851.418653	6424.333333
852.755231	6412.000000
854.091270	6449.000000
855.426771	6442.333333
856.761735	6416.333333
858.096160	6383.000000
859.430049	6404.666667
860.763401	6356.666667
862.096216	6311.666667
863.428495	6235.333333
864.760237	6295.666667
866.091444	6231.000000
867.422115	6328.000000
868.752252	6214.666667
870.081853	6240.666667
871.410919	6282.666667
872.739452	6274.666667
874.067450	6266.666667
875.394914	6228.000000
876.721845	6261.333333
878.048243	6243.333333
879.374108	6178.666667
880.699440	6197.666667
882.024240	6180.333333
883.348508	6167.000000
884.672244	6156.333333
885.995449	6215.666667
887.318122	6105.666667
888.640265	6076.333333
889.961877	6087.000000
891.282959	6093.333333
892.603510	6076.333333
893.923532	5970.000000
895.243024	6033.333333
896.561987	5972.333333
897.880422	6041.666667
899.198327	6052.333333
900.515705	5975.333333
901.832554	5997.666667
903.148875	5975.333333
904.464669	5966.666667
905.779936	6037.000000
907.094676	5975.666667
908.408889	6014.333333
909.722576	6064.333333
911.035737	6066.000000
912.348371	6070.666667
913.660481	6143.666667
914.972065	6187.666667
916.283124	6257.666667
917.593659	6263.000000
918.903669	6279.333333
920.213155	6211.333333
921.522117	6267.333333
922.830556	6200.000000
924.138471	6234.000000
925.445864	6271.666667
926.752733	6307.666667
928.059081	6275.000000
929.364906	6295.333333
930.670209	6417.000000
931.974991	6447.333333
933.279251	6603.000000
934.582990	6535.666667
935.886209	6588.666667
937.188907	6713.333333
938.491085	6809.666667
939.792743	6946.000000
941.093881	7030.666667
942.394500	7278.333333
943.694600	7344.000000
944.994181	7657.666667
946.293243	7928.000000
947.591787	8187.333333
948.889813	8542.666667
950.187322	8952.666667
951.484313	9526.000000
952.780787	10012.000000
954.076744	10619.333333
955.372184	11186.666667
956.667108	11751.333333
957.961516	12072.666667
959.255409	12115.666667
960.548785	12033.333333
961.841647	11625.333333
963.133993	11154.333333
964.425825	10443.333333
965.717142	9770.333333
967.007946	9100.666667
968.298235	8515.000000
969.588011	7917.000000
970.877273	7416.000000
972.166023	7145.333333
973.454259	6786.666667
974.741984	6547.333333
976.029196	6371.000000
977.315895	6226.333333
978.602084	6084.666667
979.887761	5989.000000
981.172926	5944.666667
982.457581	5808.333333
983.741725	5761.333333
985.025359	5759.333333
986.308483	5776.000000
987.591097	5743.000000
988.873202	5717.666667
990.154797	5701.666667
991.435883	5713.666667
992.716461	5719.000000
993.996530	5748.333333
995.276091	5681.666667
996.555144	5736.333333
997.833690	5754.333333
999.111728	5794.000000
1000.389259	5881.666667
1001.666283	5933.333333
1002.942800	6001.000000
1004.218812	5944.333333
1005.494317	5868.000000
1006.769317	5868.333333
1008.043811	5810.000000
1009.317799	5830.000000
1010.591283	5806.333333
1011.864263	5875.000000
1013.136737	5890.000000
1014.408708	5860.000000
1015.680175	5907.333333
1016.951138	5873.333333
1018.221598	5894.333333
1019.491554	5853.000000
1020.761008	5909.000000
1022.029959	5947.000000
1023.298408	5961.000000
1024.566355	6033.666667
1025.833800	6029.666667
1027.100744	6122.000000
1028.367187	6067.666667
1029.633128	6082.333333
1030.898569	6091.000000
1032.163509	6186.000000
1033.427949	6168.666667
1034.691890	6124.000000
1035.955330	6115.333333
1037.218271	6090.333333
1038.480714	6124.000000
1039.742657	6145.000000
1041.004101	6189.333333
1042.265048	6140.666667
1043.525496	6184.333333
1044.785446	6167.666667
1046.044899	6197.000000
1047.303855	6097.000000
1048.562313	6153.333333
1049.820275	6091.666667
1051.077740	6052.000000
1052.334709	6019.000000
1053.591182	6095.333333
1054.847160	6021.000000
1056.102641	6007.666667
1057.357628	6044.333333
1058.612120	6075.666667
1059.866117	6172.333333
1061.119619	6170.666667
1062.372628	6227.333333
1063.625142	6308.000000
1064.877163	6352.000000
1066.128691	6370.000000
1067.379725	6377.000000
1068.630267	6355.666667
1069.880316	6316.000000
1071.129872	6320.333333
1072.378937	6329.333333
1073.627509	6253.000000
1074.875590	6187.666667
1076.123180	6183.000000
1077.370279	6127.666667
1078.616887	6041.000000
1079.863004	5952.333333
1081.108631	5844.666667
1082.353768	5837.333333
1083.598415	5713.333333
1084.842573	5704.333333
1086.086241	5641.000000
1087.329421	5662.666667
1088.572111	5602.666667
1089.814314	5611.000000
1091.056028	5509.333333
1092.297253	5452.000000
1093.537992	5527.000000
1094.778242	5406.000000
1096.018006	5411.000000
1097.257282	5402.333333
1098.496072	5434.666667
1099.734376	5421.333333
1100.972193	5459.000000
1102.209524	5376.666667
1103.446370	5340.000000
1104.682730	5355.666667
1105.918604	5375.333333
1107.153994	5270.000000
1108.388900	5268.333333
1109.623320	5255.333333
1110.857257	5178.333333
1112.090710	5198.000000
1113.323679	5193.000000
1114.556164	5142.333333
1115.788167	5109.000000
1117.019686	5096.000000
1118.250723	5109.333333
1119.481278	5057.666667
1120.711350	5058.666667
1121.940940	5069.333333
1123.170049	5066.666667
1124.398676	5099.666667
1125.626823	5087.333333
1126.854488	5026.666667
1128.081672	5066.000000
1129.308376	5065.000000
1130.534600	5008.000000
1131.760345	4975.666667
1132.985609	5031.000000
1134.210394	5013.000000
1135.434700	4974.000000
1136.658527	4980.333333
1137.881875	4990.333333
1139.104745	5065.000000
1140.327136	4962.666667
1141.549050	4971.666667
1142.770486	5024.333333
1143.991445	4984.666667
1145.211926	4964.333333
1146.431931	4964.000000
1147.651459	4940.666667
1148.870510	4971.666667
1150.089086	4968.333333
1151.307185	4944.333333
1152.524808	4996.333333
1153.741957	4993.666667
1154.958630	4975.333333
1156.174828	4979.333333
1157.390551	5006.333333
1158.605800	4999.333333
1159.820574	4902.333333
1161.034875	4933.666667
1162.248702	4974.000000
1163.462055	4980.000000
1164.674936	4985.333333
1165.887343	4964.333333
1167.099277	4935.000000
1168.310739	4939.000000
1169.521729	4951.000000
1170.732247	4972.000000
1171.942293	4957.000000
1173.151867	4945.666667
1174.360970	4939.333333
1175.569602	4985.333333
1176.777764	4958.000000
1177.985454	4921.000000
1179.192675	4934.666667
1180.399425	4940.333333
1181.605706	4894.000000
1182.811517	4921.333333
1184.016859	4901.000000
1185.221731	4904.333333
1186.426135	4890.666667
1187.630070	4854.000000
1188.833537	4848.666667
1190.036535	4848.000000
1191.239066	4829.333333
1192.441129	4894.666667
1193.642725	4834.666667
1194.843853	4910.666667
1196.044515	4872.000000
1197.244710	4857.333333
1198.444438	4870.000000
1199.643701	4817.666667
1200.842497	4843.333333
1202.040827	4876.000000
1203.238693	4885.333333
1204.436092	4827.000000
1205.633027	4847.333333
1206.829497	4794.333333
1208.025503	4832.333333
1209.221044	4818.333333
1210.416122	4779.333333
1211.610735	4771.000000
1212.804885	4736.666667
1213.998572	4759.000000
1215.191795	4740.333333
1216.384556	4728.333333
1217.576854	4762.000000
1218.768689	4679.333333
1219.960063	4752.000000
1221.150974	4761.000000
1222.341424	4782.000000
1223.531413	4749.666667
1224.720940	4800.666667
1225.910006	4839.666667
1227.098612	4819.666667
1228.286757	4812.000000
1229.474442	4926.333333
1230.661667	4924.000000
1231.848432	4919.000000
1233.034738	4930.333333
1234.220584	4946.333333
1235.405971	4922.333333
1236.590900	5000.666667
1237.775369	5047.000000
1238.959381	5087.666667
1240.142934	5078.000000
1241.326029	5035.000000
1242.508667	5045.333333
1243.690848	5080.333333
1244.872571	5045.333333
1246.053837	5094.666667
1247.234646	5084.666667
1248.414999	5083.000000
1249.594896	5067.000000
1250.774337	5003.000000
1251.953322	4975.333333
1253.131851	5018.666667
1254.309925	4968.333333
1255.487544	4910.333333
1256.664708	4930.333333
1257.841417	4975.333333
1259.017673	4942.000000
1260.193473	4933.000000
1261.368820	4956.333333
1262.543714	4965.666667
1263.718154	4975.666667
1264.892140	4997.000000
1266.065674	4991.333333
1267.238755	5044.000000
1268.411383	5011.333333
1269.583559	5029.666667
1270.755283	5032.666667
1271.926555	4957.666667
1273.097375	5002.666667
1274.267744	5002.333333
1275.437662	4971.000000
1276.607129	4963.000000
1277.776145	4945.333333
1278.944711	4963.666667
1280.112827	4891.666667
1281.280492	4897.666667
1282.447708	4829.333333
1283.614474	4913.333333
1284.780791	4814.666667
1285.946659	4752.666667
1287.112078	4813.333333
1288.277048	4809.333333
1289.441570	4762.333333
1290.605644	4775.000000
1291.769270	4715.666667
1292.932448	4711.666667
1294.095178	4618.333333
1295.257461	4708.000000
1296.419298	4635.333333
1297.580687	4661.666667
1298.741630	4656.000000
1299.902126	4647.666667
1301.062177	4651.000000
1302.221781	4566.333333
1303.380940	4662.000000
1304.539653	4553.666667
1305.697921	4603.000000
1306.855744	4597.000000
1308.013123	4637.333333
1309.170056	4586.666667
1310.326546	4650.333333
1311.482591	4609.666667
1312.638193	4648.333333
1313.793350	4582.333333
1314.948065	4634.666667
1316.102336	4634.000000
1317.256164	4570.666667
1318.409550	4648.333333
1319.562493	4646.000000
1320.714993	4587.666667
1321.867052	4548.666667
1323.018668	4538.000000
1324.169843	4492.333333
1325.320577	4533.333333
1326.470870	4478.000000
1327.620721	4476.666667
1328.770132	4459.666667
1329.919102	4474.333333
1331.067632	4460.333333
1332.215722	4479.666667
1333.363372	4490.666667
1334.510582	4478.000000
1335.657353	4481.000000
1336.803685	4460.333333
1337.949578	4495.333333
1339.095032	4501.666667
1340.240048	4466.666667
1341.384625	4491.000000
1342.528764	4462.333333
1343.672466	4477.333333
1344.815729	4494.000000
1345.958556	4453.333333
1347.100945	4440.666667
1348.242897	4425.666667
1349.384413	4436.000000
1350.525492	4366.000000
1351.666134	4415.666667
1352.806341	4373.333333
1353.946111	4324.000000
1355.085446	4316.666667
1356.224346	4325.000000
1357.362810	4299.333333
1358.500840	4267.333333
1359.638434	4264.000000
1360.775594	4353.000000
1361.912320	4269.000000
1363.048612	4258.000000
1364.184469	4311.333333
1365.319893	4303.000000
1366.454884	4256.666667
1367.589441	4311.333333
1368.723566	4311.333333
1369.857257	4314.333333
1370.990516	4285.666667
1372.123343	4313.333333
1373.255737	4326.000000
1374.387699	4298.333333
1375.519230	4308.333333
1376.650329	4307.333333
1377.780997	4330.333333
1378.911234	4346.000000
1380.041040	4290.333333
1381.170416	4359.333333
1382.299361	4326.333333
1383.427875	4352.333333
1384.555960	4315.666667
1385.683615	4303.000000
1386.810841	4323.666667
1387.937637	4290.333333
1389.064004	4330.333333
1390.189942	4277.333333
1391.315451	4306.333333
1392.440532	4274.666667
1393.565185	4272.000000
1394.689409	4276.333333
1395.813206	4268.000000
1396.936575	4273.666667
1398.059517	4256.333333
1399.182032	4237.333333
1400.304119	4251.000000
1401.425780	4300.000000
1402.547014	4210.666667
1403.667822	4246.000000
1404.788204	4200.000000
1405.908160	4228.000000
1407.027690	4200.333333
1408.146795	4229.000000
1409.265474	4214.000000
1410.383728	4192.000000
1411.501558	4208.000000
1412.618963	4242.000000
1413.735943	4249.000000
1414.852499	4239.000000
1415.968632	4316.333333
1417.084340	4261.000000
1418.199625	4333.333333
1419.314486	4317.666667
1420.428925	4304.666667
1421.542940	4325.333333
1422.656533	4336.333333
1423.769703	4262.333333
1424.882451	4320.333333
1425.994777	4238.000000
1427.106680	4278.666667
1428.218163	4270.000000
1429.329223	4203.666667
1430.439863	4200.333333
1431.550081	4254.666667
1432.659879	4197.666667
1433.769256	4221.333333
1434.878212	4200.000000
1435.986749	4239.666667
1437.094865	4237.333333
1438.202562	4265.666667
1439.309839	4258.666667
1440.416696	4280.666667
1441.523135	4348.333333
1442.629154	4335.666667
1443.734755	4339.000000
1444.839937	4360.666667
1445.944701	4369.000000
1447.049047	4418.666667
1448.152975	4476.666667
1449.256485	4391.000000
1450.359577	4448.000000
1451.462253	4405.000000
1452.564511	4400.333333
1453.666352	4383.000000
1454.767777	4352.666667
1455.868785	4299.333333
1456.969377	4325.666667
1458.069553	4321.333333
1459.169313	4326.333333
1460.268658	4268.666667
1461.367587	4240.333333
1462.466101	4231.333333
1463.564200	4237.666667
1464.661884	4196.666667
1465.759153	4146.000000
1466.856008	4067.666667
1467.952449	4077.333333
1469.048476	4043.000000
1470.144089	3994.333333
1471.239288	3952.666667
1472.334074	3953.333333
1473.428447	3897.000000
1474.522407	3875.333333
1475.615955	3841.333333
1476.709089	3821.333333
1477.801812	3821.000000
1478.894122	3777.666667
1479.986020	3783.333333
1481.077506	3777.666667
1482.168581	3748.666667
1483.259245	3703.000000
1484.349498	3704.000000
1485.439339	3712.000000
1486.528770	3691.000000
1487.617790	3694.666667
1488.706400	3672.000000
1489.794600	3666.666667
1490.882390	3684.666667
1491.969771	3628.666667
1493.056742	3688.000000
1494.143303	3631.333333
1495.229456	3652.000000
1496.315199	3613.666667
1497.400534	3606.666667
1498.485460	3586.666667
1499.569978	3571.000000
1500.654088	3668.333333
1501.737790	3573.333333
1502.821085	3583.000000
1503.903972	3588.666667
1504.986451	3581.000000
1506.068524	3549.666667
1507.150189	3546.666667
1508.231448	3526.666667
1509.312301	3496.333333
1510.392747	3532.333333
1511.472787	3477.333333
1512.552422	3484.000000
1513.631650	3498.333333
1514.710473	3490.333333
1515.788891	3510.333333
1516.866904	3521.000000
1517.944512	3489.333333
1519.021715	3468.666667
1520.098513	3463.333333
1521.174908	3436.000000
1522.250898	3464.666667
1523.326485	3477.333333
1524.401667	3490.666667
1525.476447	3487.666667
1526.550823	3515.333333
1527.624796	3486.000000
1528.698365	3451.000000
1529.771533	3455.333333
1530.844298	3446.666667
1531.916660	3449.000000
1532.988620	3456.000000
1534.060179	3433.000000
1535.131336	3451.333333
1536.202091	3441.333333
1537.272445	3421.000000
1538.342398	3424.666667
1539.411950	3396.333333
1540.481101	3443.666667
1541.549851	3409.000000
1542.618202	3395.333333
1543.686152	3397.333333
1544.753702	3410.333333
1545.820853	3349.000000
1546.887604	3353.000000
1547.953955	3374.333333
1549.019908	3387.000000
1550.085461	3386.666667
1551.150616	3356.666667
1552.215372	3413.333333
1553.279730	3379.000000
1554.343690	3352.666667
1555.407252	3369.000000
1556.470415	3340.666667
1557.533182	3329.000000
1558.595551	3313.666667
1559.657522	3285.333333
1560.719097	3302.333333
1561.780275	3339.333333
1562.841056	3341.666667
1563.901441	3325.666667
1564.961429	3290.666667
1566.021022	3348.666667
1567.080219	3313.000000
1568.139020	3333.000000
1569.197425	3314.333333
1570.255436	3303.666667
1571.313051	3268.666667
1572.370271	3269.000000
1573.427097	3340.000000
1574.483528	3276.333333
1575.539565	3260.333333
1576.595208	3257.333333
1577.650457	3290.333333
1578.705312	3286.000000
1579.759774	3218.000000
1580.813842	3229.333333
1581.867517	3251.000000
1582.920799	3238.000000
1583.973689	3241.333333
1585.026186	3264.666667
1586.078290	3206.666667
1587.130002	3227.666667
1588.181323	3174.000000
1589.232251	3210.000000
1590.282788	3208.666667
1591.332933	3207.333333
1592.382688	3204.333333
1593.432051	3175.000000
1594.481023	3202.666667
1595.529605	3215.000000
1596.577796	3205.666667
1597.625597	3183.333333
1598.673007	3183.000000
1599.720028	3220.000000
1600.766660	3196.000000
1601.812901	3226.666667
1602.858753	3276.333333
1603.904217	3243.000000
1604.949291	3215.666667
1605.993976	3238.000000
1607.038273	3207.666667
1608.082182	3221.666667
1609.125702	3205.333333
1610.168834	3217.333333
1611.211579	3235.000000
1612.253935	3238.000000
1613.295905	3147.000000
1614.337487	3176.333333
1615.378682	3218.333333
1616.419490	3166.000000
1617.459912	3203.666667
1618.499946	3167.333333
1619.539595	3131.666667
1620.578858	3214.666667
1621.617734	3191.333333
1622.656225	3153.666667
1623.694330	3205.000000
1624.732050	3182.666667
1625.769385	3161.333333
1626.806334	3167.666667
1627.842899	3172.000000
1628.879079	3178.666667
1629.914875	3206.333333
1630.950286	3149.666667
1631.985314	3194.333333
1633.019957	3192.666667
1634.054217	3189.666667
1635.088093	3232.333333
1636.121586	3231.666667
1637.154696	3184.333333
1638.187423	3162.666667
1639.219767	3192.000000
1640.251728	3196.333333
1641.283307	3206.666667
1642.314504	3207.000000
1643.345319	3266.333333
1644.375751	3213.666667
1645.405803	3199.666667
1646.435472	3188.000000
1647.464761	3202.333333
1648.493668	3221.000000
1649.522194	3203.666667
1650.550340	3203.333333
1651.578105	3180.666667
1652.605490	3191.333333
1653.632494	3187.333333
1654.659119	3200.000000
1655.685363	3193.666667
1656.711228	3223.333333
1657.736714	3180.333333
1658.761820	3156.666667
1659.786547	3145.666667
1660.810895	3133.666667
1661.834865	3132.000000
1662.858456	3140.000000
1663.881668	3143.666667
1664.904503	3142.000000
1665.926959	3132.000000
1666.949038	3102.000000
1667.970739	3093.333333
1668.992062	3131.333333
1670.013008	3071.666667
1671.033577	3045.000000
1672.053770	3025.000000
1673.073585	3024.333333
1674.093024	3030.333333
1675.112086	3045.333333
1676.130773	3011.333333
1677.149083	3043.000000
1678.167017	3003.666667
1679.184576	3010.000000
1680.201760	2935.666667
1681.218568	2983.000000
1682.235001	2966.666667
1683.251059	2955.000000
1684.266742	2913.666667
1685.282051	2939.000000
1686.296985	2908.666667
1687.311546	2926.666667
1688.325732	2929.666667
1689.339544	2887.333333
1690.352983	2876.333333
1691.366048	2834.000000
1692.378740	2828.666667
1693.391058	2839.333333
1694.403004	2804.666667
1695.414577	2777.666667
1696.425778	2753.000000
1697.436606	2747.333333
1698.447061	2693.333333
1699.457145	2709.333333
1700.466857	2688.333333
1701.476197	2668.333333
1702.485166	2638.333333
1703.493763	2661.666667
1704.501989	2626.666667
1705.509844	2627.333333
1706.517328	2607.000000
1707.524442	2625.333333
1708.531185	2614.333333
1709.537558	2564.333333
1710.543561	2612.666667
1711.549194	2643.000000
1712.554457	2625.666667
1713.559351	2558.333333
1714.563875	2601.666667
1715.568030	2591.666667
1716.571816	2566.333333
1717.575233	2587.000000
1718.578282	2615.333333
1719.580962	2562.000000
1720.583273	2617.333333
1721.585217	2608.333333
1722.586792	2589.666667
1723.588000	2593.666667
1724.588840	2563.333333
1725.589312	2611.666667
1726.589418	2595.666667
1727.589156	2577.333333
1728.588527	2595.000000
1729.587532	2565.666667
1730.586170	2562.000000
1731.584441	2558.666667
1732.582346	2570.666667
1733.579886	2543.333333
1734.577059	2573.000000
1735.573867	2558.000000
1736.570309	2558.000000
1737.566386	2541.666667
1738.562097	2521.000000
1739.557444	2502.000000
1740.552426	2548.333333
1741.547043	2521.666667
1742.541295	2482.666667
1743.535184	2479.000000
1744.528708	2467.333333
1745.521868	2470.000000
1746.514664	2455.666667
1747.507097	2453.333333
1748.499166	2444.666667
1749.490873	2446.666667
1750.482216	2434.000000
1751.473196	2471.666667
1752.463813	2434.000000
1753.454068	2435.000000
1754.443960	2472.333333
1755.433490	2470.333333
1756.422658	2460.333333
1757.411464	2414.000000
1758.399908	2429.000000
1759.387991	2446.333333
1760.375713	2427.333333
1761.363073	2439.333333
1762.350072	2426.666667
1763.336711	2460.666667
1764.322988	2398.333333
1765.308905	2411.000000
1766.294462	2402.000000
1767.279659	2419.666667
1768.264496	2387.333333
1769.248972	2354.000000
1770.233089	2415.333333
1771.216847	2368.000000
1772.200245	2368.000000
1773.183284	2368.333333
1774.165965	2353.333333
1775.148286	2356.666667
1776.130249	2296.666667
1777.111853	2332.666667
1778.093099	2305.666667
1779.073987	2296.000000
1780.054517	2284.333333
1781.034689	2302.000000
1782.014503	2278.333333
1782.993960	2289.000000
1783.973060	2262.333333
1784.951802	2284.333333
1785.930188	2273.666667
1786.908217	2235.333333
1787.885889	2257.000000
1788.863205	2227.666667
1789.840164	2221.666667
1790.816768	2198.333333
1791.793015	2231.000000
1792.768907	2207.666667
1793.744443	2232.000000
1794.719624	2214.000000
1795.694449	2199.666667
1796.668919	2215.000000
1797.643035	2198.666667
1798.616795	2221.000000
1799.590201	2218.333333
1800.563253	2182.333333
1801.535950	2189.333333
1802.508294	2213.333333
1803.480283	2196.333333
1804.451919	2162.666667
1805.423201	2228.000000
1806.394129	2217.666667
1807.364705	2198.666667
1808.334927	2209.000000
1809.304796	2205.333333
1810.274313	2206.333333
1811.243477	2218.333333
1812.212288	2205.000000
1813.180747	2191.000000
1814.148855	2178.666667
1815.116610	2180.333333
1816.084013	2175.333333
1817.051065	2199.000000
1818.017766	2203.333333
1818.984115	2203.333333
1819.950113	2150.333333
1820.915760	2174.000000
1821.881057	2150.333333
1822.846003	2165.333333
1823.810598	2131.666667
1824.774843	2166.333333
1825.738738	2161.000000
1826.702283	2170.333333
1827.665479	2149.666667
1828.628324	2112.666667
1829.590821	2103.000000
1830.552968	2113.000000
1831.514765	2134.666667
1832.476214	2129.000000
1833.437314	2120.000000
1834.398066	2121.000000
1835.358469	2091.666667
1836.318524	2151.333333
1837.278230	2127.666667
1838.237589	2133.666667
1839.196600	2093.333333
1840.155263	2090.000000
1841.113578	2136.666667
1842.071547	2107.000000
1843.029168	2088.333333
1843.986442	2091.000000
1844.943369	2143.333333
1845.899950	2122.666667
1846.856184	2111.000000
1847.812072	2113.333333
1848.767614	2088.333333
1849.722809	2112.666667
1850.677659	2095.333333
1851.632163	2114.666667
1852.586322	2090.000000
1853.540135	2082.000000
1854.493603	2112.333333
1855.446726	2123.000000
1856.399504	2063.666667
1857.351937	2091.000000
1858.304026	2045.000000
1859.255770	2039.000000
1860.207170	2041.000000
1861.158227	2053.666667
1862.108939	2042.666667
1863.059307	2033.666667
1864.009332	2016.333333
1864.959013	2028.000000
1865.908351	2023.666667
1866.857346	2016.000000
1867.805998	1981.333333
1868.754307	1970.000000
1869.702274	1998.000000
1870.649898	1965.333333
1871.597180	1960.333333
1872.544119	1930.333333
1873.490717	1961.333333
1874.436973	1939.666667
1875.382887	1960.000000
1876.328459	1957.000000
1877.273691	1947.000000
1878.218581	1975.000000
1879.163130	1966.333333
1880.107338	1946.000000
1881.051205	1930.666667
1881.994732	1915.666667
1882.937919	1931.333333
1883.880765	1939.666667
1884.823271	1949.666667
1885.765437	1936.333333
1886.707264	1929.333333
1887.648750	1966.666667
1888.589898	1978.333333
1889.530706	1954.000000
1890.471175	1941.666667
1891.411305	1953.666667
1892.351096	1941.000000
1893.290548	1960.000000
1894.229662	1972.333333
1895.168438	1950.666667
1896.106876	1917.333333
1897.044975	1969.000000
1897.982737	1944.666667
1898.920160	1933.333333
1899.857247	1932.333333
1900.793996	1912.333333
1901.730407	1907.666667
1902.666482	1921.333333
1903.602219	1909.333333
1904.537620	1947.000000
1905.472685	1922.000000
1906.407412	1912.000000
1907.341804	1878.000000
1908.275859	1860.000000
1909.209579	1858.000000
1910.142962	1873.333333
1911.076010	1864.666667
1912.008722	1851.000000
1912.941099	1844.666667
1913.873141	1856.333333
1914.804848	1841.000000
1915.736219	1834.333333
1916.667256	1842.000000
1917.597959	1829.666667
1918.528327	1801.333333
1919.458360	1765.333333
1920.388060	1816.000000
1921.317426	1824.333333
1922.246457	1797.666667
1923.175156	1795.666667
1924.103520	1791.333333
1925.031552	1802.666667
1925.959250	1831.000000
1926.886615	1758.000000
1927.813647	1781.333333
1928.740346	1808.333333
1929.666713	1791.666667
1930.592748	1807.666667
1931.518450	1804.666667
1932.443820	1797.000000
1933.368858	1804.666667
1934.293564	1779.666667
1935.217939	1762.000000
1936.141982	1763.000000
1937.065694	1775.000000
1937.989074	1775.000000
1938.912124	1737.000000
1939.834842	1753.333333
1940.757230	1761.333333
1941.679287	1775.000000
1942.601014	1735.666667
1943.522411	1736.666667
1944.443477	1736.666667
1945.364214	1743.333333
1946.284621	1775.666667
1947.204698	1733.000000
1948.124445	1730.333333
1949.043863	1694.666667
1949.962952	1712.000000
1950.881712	1691.000000
1951.800143	1737.333333
1952.718245	1705.666667
1953.636019	1681.333333
1954.553464	1691.000000
1955.470581	1710.000000
1956.387369	1685.666667
1957.303830	1638.333333
1958.219963	1663.333333
1959.135768	1694.333333
1960.051246	1675.333333
1960.966396	1690.333333
1961.881219	1697.666667
1962.795715	1699.000000
1963.709883	1658.333333
1964.623726	1701.000000
1965.537241	1659.333333
1966.450430	1673.000000
1967.363293	1713.000000
1968.275829	1664.666667
1969.188040	1689.000000
1970.099924	1681.666667
1971.011483	1715.333333
1971.922716	1688.333333
1972.833624	1715.000000
1973.744206	1670.333333
1974.654464	1691.333333
1975.564396	1672.000000
1976.474004	1685.333333
1977.383286	1688.333333
1978.292245	1653.333333
1979.200878	1668.333333
1980.109188	1686.333333
1981.017174	1652.666667
1981.924835	1645.333333
1982.832173	1655.333333
1983.739187	1635.333333
1984.645878	1628.000000
1985.552245	1648.333333
1986.458289	1659.666667
1987.364010	1606.666667
1988.269408	1635.000000
1989.174484	1617.000000
1990.079236	1632.000000
1990.983667	1620.333333
1991.887775	1601.000000
1992.791561	1581.333333
1993.695024	1591.666667
1994.598166	1606.666667
1995.500986	1586.333333
1996.403485	1558.666667
1997.305662	1587.333333
1998.207518	1555.666667
1999.109053	1566.000000
