200.151048	26938.333333
201.758777	26837.333333
203.365815	26730.000000
204.972162	26651.000000
206.577820	26532.333333
208.182787	26610.333333
209.787065	26479.666667
211.390653	26497.000000
212.993553	26425.000000
214.595765	26359.000000
216.197289	26401.666667
217.798125	26323.666667
219.398274	26223.000000
220.997737	26031.333333
222.596513	26128.666667
224.194603	26248.666667
225.792008	26139.000000
227.388728	26182.333333
228.984763	26020.000000
230.580114	25880.333333
232.174781	26002.666667
233.768765	25991.333333
235.362065	25844.333333
236.954683	25843.666667
238.546619	25746.333333
240.137872	25733.666667
241.728445	25638.333333
243.318336	25706.666667
244.907546	25611.666667
246.496076	25549.000000
248.083926	25352.000000
249.671097	25395.333333
251.257589	25279.333333
252.843402	25270.333333
254.428536	24934.000000
256.012993	25150.000000
257.596772	25080.333333
259.179874	24850.666667
260.762300	24922.666667
262.344049	24859.666667
263.925122	24762.000000
265.505519	24809.333333
267.085241	24678.000000
268.664289	24712.000000
270.242662	24818.000000
271.820361	24698.666667
273.397387	24833.333333
274.973740	24800.333333
276.549419	24784.000000
278.124426	24695.333333
279.698762	24743.000000
281.272425	24698.666667
282.845417	24636.333333
284.417739	24639.333333
285.989390	24744.333333
287.560371	24793.000000
289.130682	24731.666667
290.700324	24701.000000
292.269297	24729.333333
293.837602	24616.000000
295.405238	24722.666667
296.972207	24647.666667
298.538508	24533.666667
300.104142	24424.333333
301.669110	24596.000000
303.233411	24334.666667
304.797047	24261.333333
306.360017	24152.666667
307.922322	24236.333333
309.483963	24070.666667
311.044939	23984.666667
312.605252	24011.000000
314.164900	23929.666667
315.723886	23908.000000
317.282209	23670.333333
318.839870	23728.333333
320.396868	23641.666667
321.953205	23594.000000
323.508881	23488.000000
325.063896	23404.000000
326.618251	23510.333333
328.171945	23436.333333
329.724980	23365.000000
331.277356	23376.666667
332.829072	23213.333333
334.380131	23322.333333
335.930530	23304.000000
337.480273	23230.333333
339.029357	23267.333333
340.577785	23213.000000
342.125556	23251.666667
343.672671	23282.666667
345.219130	23178.666667
346.764933	23168.666667
348.310081	23232.000000
349.854575	23070.666667
351.398414	23008.000000
352.941599	23162.000000
354.484130	23045.666667
356.026008	22959.000000
357.567234	22943.000000
359.107807	22963.333333
360.647727	22917.666667
362.186996	22830.666667
363.725614	22902.333333
365.263580	22845.333333
366.800896	22913.000000
368.337562	22861.666667
369.873578	22756.666667
371.408944	22772.333333
372.943661	22906.666667
374.477730	22819.000000
376.011150	22676.666667
377.543922	22797.666667
379.076046	22837.333333
380.607523	22748.666667
382.138353	22830.000000
383.668537	22936.000000
385.198075	22787.666667
386.726966	22905.333333
388.255213	23097.333333
389.782814	22975.000000
391.309770	23034.666667
392.836083	23025.000000
394.361751	23054.000000
395.886776	23102.333333
397.411157	23134.000000
398.934896	23150.666667
400.457992	23210.000000
401.980446	23384.000000
403.502258	23287.666667
405.023429	23307.000000
406.543959	23360.333333
408.063849	23396.333333
409.583098	23455.333333
411.101707	23604.666667
412.619677	23833.333333
414.137007	23893.666667
415.653699	24162.000000
417.169752	24165.333333
418.685167	24388.333333
420.199945	24509.333333
421.714085	24915.333333
423.227588	25100.666667
424.740454	25422.000000
426.252684	25504.666667
427.764279	25471.666667
429.275238	25577.333333
430.785561	25553.333333
432.295250	25342.000000
433.804304	25355.000000
435.312725	24974.666667
436.820511	24945.333333
438.327664	24747.000000
439.834185	24671.666667
441.340072	24513.333333
442.845327	24436.666667
444.349951	24297.000000
445.853942	24326.333333
447.357303	24107.666667
448.860033	24272.000000
450.362132	23926.333333
451.863601	23915.666667
453.364440	23708.666667
454.864650	23466.666667
456.364231	23322.333333
457.863183	23267.000000
459.361507	22993.333333
460.859203	22957.333333
462.356271	22763.666667
463.852712	22617.333333
465.348526	22559.666667
466.843714	22456.333333
468.338275	22440.666667
469.832210	22323.000000
471.325520	22168.333333
472.818205	22072.000000
474.310265	22039.333333
475.801700	21984.666667
477.292512	21988.333333
478.782700	21790.666667
480.272264	21775.333333
481.761205	21715.666667
483.249524	21707.666667
484.737221	21689.000000
486.224295	21606.333333
487.710748	21477.000000
489.196579	21509.000000
490.681790	21468.000000
492.166380	21367.000000
493.650350	21443.333333
495.133700	21523.000000
496.616431	21399.333333
498.098542	21353.666667
499.580035	21351.333333
501.060909	21217.000000
502.541165	21205.666667
504.020804	21318.000000
505.499825	21209.333333
506.978228	21171.000000
508.456016	21088.000000
509.933186	21179.333333
511.409741	21087.333333
512.885680	21112.666667
514.361004	21047.333333
515.835713	21119.666667
517.309807	21021.000000
518.783287	21138.000000
520.256153	21109.333333
521.728406	21203.000000
523.200045	21173.000000
524.671071	21063.000000
526.141485	21136.333333
527.611287	21076.000000
529.080476	21143.333333
530.549054	20983.000000
532.017021	21066.333333
533.484378	21019.333333
534.951123	21131.000000
536.417259	20987.000000
537.882785	21039.666667
539.347701	20884.333333
540.812008	20958.333333
542.275707	20952.000000
543.738797	20992.666667
545.201279	20971.333333
546.663153	20992.333333
548.124420	20993.666667
549.585080	20975.000000
551.045133	21108.000000
552.504579	21090.666667
553.963420	21145.000000
555.421655	21129.333333
556.879285	21220.000000
558.336309	21320.666667
559.792729	21346.000000
561.248545	21333.333333
562.703756	21359.000000
564.158364	21369.666667
565.612369	21531.333333
567.065770	21568.000000
568.518569	21636.666667
569.970766	21795.666667
571.422361	21794.333333
572.873354	21953.333333
574.323745	22213.000000
575.773536	22221.333333
577.222726	22392.000000
578.671316	22481.666667
580.119306	22585.333333
581.566696	22535.000000
583.013487	22566.000000
584.459679	22510.000000
585.905273	22338.333333
587.350268	22362.333333
588.794665	22466.666667
590.238465	22405.333333
591.681667	22321.000000
593.124272	22126.000000
594.566281	21978.000000
596.007694	21757.000000
597.448510	21661.000000
598.888731	21390.666667
600.328357	21360.000000
601.767388	21154.333333
603.205824	21135.333333
604.643666	21077.333333
606.080914	21011.333333
607.517568	21061.666667
608.953629	20982.666667
610.389097	21028.666667
611.823972	20835.000000
613.258255	20848.666667
614.691946	20613.000000
616.125046	20659.333333
617.557554	20540.333333
618.989471	20383.000000
620.420798	20234.666667
621.851534	20121.666667
623.281680	20046.000000
624.711237	19945.000000
626.140204	19888.333333
627.568582	19733.333333
628.996372	19651.666667
630.423573	19585.666667
631.850186	19497.000000
633.276211	19555.000000
634.701650	19555.333333
636.126501	19463.333333
637.550765	19391.333333
638.974443	19355.666667
640.397535	19402.333333
641.820041	19489.333333
643.241961	19330.000000
644.663297	19381.333333
646.084048	19250.666667
647.504214	19280.333333
648.923796	19249.666667
650.342795	19194.666667
651.761210	19326.000000
653.179041	19181.666667
654.596290	19157.333333
656.012957	19113.000000
657.429041	19174.333333
658.844543	19087.666667
660.259464	19144.333333
661.673804	19099.000000
663.087563	19013.000000
664.500741	19030.666667
665.913339	19002.666667
667.325357	19112.000000
668.736795	19156.000000
670.147654	19025.333333
671.557934	19110.000000
672.967636	18955.000000
674.376759	19004.000000
675.785304	19005.333333
677.193271	18910.333333
678.600661	19063.333333
680.007474	18808.000000
681.413711	18928.333333
682.819370	18867.666667
684.224454	18833.666667
685.628962	18822.333333
687.032895	18781.666667
688.436252	18907.333333
689.839034	18722.666667
691.241242	18792.000000
692.642876	18790.333333
694.043936	18850.333333
695.444422	18667.666667
696.844336	18672.333333
698.243676	18690.666667
699.642443	18616.333333
701.040639	18520.333333
702.438262	18547.333333
703.835313	18597.000000
705.231794	18577.333333
706.627703	18623.666667
708.023041	18664.333333
709.417810	18732.333333
710.812008	18508.000000
712.205636	18492.333333
713.598694	18480.000000
714.991184	18564.000000
716.383105	18439.000000
717.774457	18403.000000
719.165241	18494.000000
720.555457	18545.666667
721.945105	18488.666667
723.334187	18389.666667
724.722701	18420.666667
726.110648	18411.000000
727.498030	18502.333333
728.884845	18304.666667
730.271094	18329.333333
731.656778	18408.333333
733.041897	18256.333333
734.426451	18292.666667
735.810441	18190.333333
737.193866	18283.333333
738.576728	18363.666667
739.959026	18194.333333
741.340760	18287.000000
742.721932	18268.000000
744.102541	18324.000000
745.482588	18247.000000
746.862073	18256.333333
748.240996	18168.333333
749.619358	18251.333333
750.997158	18158.333333
752.374398	18181.333333
753.751077	18181.666667
755.127197	18221.333333
756.502756	18259.333333
757.877756	18071.666667
759.252196	18033.000000
760.626078	18077.333333
761.999400	18034.000000
763.372165	18072.333333
764.744371	18078.666667
766.116020	18001.000000
767.487111	17942.000000
768.857646	18067.666667
770.227623	17895.666667
771.597044	17794.666667
772.965908	17862.666667
774.334217	17842.666667
775.701970	17831.666667
777.069168	17779.333333
778.435811	17797.666667
779.801899	17800.666667
781.167433	17710.333333
782.532412	17664.666667
783.896838	17570.333333
785.260710	17537.333333
786.624029	17625.666667
787.986796	17639.333333
789.349009	17513.666667
790.710671	17556.000000
792.071780	17561.000000
793.432338	17452.666667
794.792344	17581.333333
796.151799	17405.000000
797.510704	17417.333333
798.869058	17346.000000
800.226862	17277.000000
801.584116	17313.000000
802.940820	17390.000000
804.296975	17412.333333
805.652581	17403.333333
807.007638	17369.333333
808.362147	17374.333333
809.716108	17428.333333
811.069521	17403.000000
812.422387	17510.333333
813.774705	17546.666667
815.126476	17397.333333
816.477701	17486.666667
817.828380	17483.333333
819.178512	17417.666667
820.528099	17256.666667
821.877140	17341.333333
823.225637	17159.666667
824.573588	17239.333333
825.920995	17231.333333
827.267857	17140.666667
828.614176	17175.333333
829.959951	17271.000000
831.305183	17096.000000
832.649871	17179.333333
833.994017	17204.666667
835.337620	17198.333333
836.680681	17219.000000
838.023201	17240.000000
839.365178	17149.666667
840.706614	17217.333333
842.047510	17320.333333
843.387864	17310.666667
844.727678	17225.000000
846.066952	17417.000000
847.405687	17485.666667
848.743881	17478.666667
850.081537	17515.666667
851.418653	17510.000000
852.755231	17507.000000
854.091270	17624.333333
855.426771	17456.333333
856.761735	17556.666667
858.096160	17494.666667
859.430049	17612.333333
860.763401	17333.666667
862.096216	17332.000000
863.428495	17325.000000
864.760237	17293.333333
866.091444	17156.000000
867.422115	17203.000000
868.752252	17100.000000
870.081853	17162.000000
871.410919	17093.666667
872.739452	17101.000000
874.067450	17154.666667
875.394914	17120.666667
876.721845	17039.666667
878.048243	17001.000000
879.374108	17022.333333
880.699440	17015.000000
882.024240	16919.333333
883.348508	16909.666667
884.672244	16781.666667
885.995449	16818.333333
887.318122	16583.333333
888.640265	16712.333333
889.961877	16787.000000
891.282959	16650.000000
892.603510	16505.666667
893.923532	16610.333333
895.243024	16519.333333
896.561987	16507.666667
897.880422	16482.000000
899.198327	16399.666667
900.515705	16510.333333
901.832554	16486.000000
903.148875	16545.000000
904.464669	16360.333333
905.779936	16521.000000
907.094676	16408.000000
908.408889	16429.666667
909.722576	16556.333333
911.035737	16510.333333
912.348371	16617.666667
913.660481	16710.000000
914.972065	16723.000000
916.283124	16765.666667
917.593659	16895.666667
918.903669	16931.333333
920.213155	16916.333333
921.522117	16909.666667
922.830556	16950.333333
924.138471	16987.000000
925.445864	17008.333333
926.752733	16961.666667
928.059081	17125.000000
929.364906	16909.333333
930.670209	17193.000000
931.974991	17263.000000
933.279251	17314.000000
934.582990	17421.333333
935.886209	17493.333333
937.188907	17655.666667
938.491085	17862.333333
939.792743	18161.666667
941.093881	18384.666667
942.394500	18715.333333
943.694600	19126.000000
944.994181	19498.000000
946.293243	20052.666667
947.591787	20623.333333
948.889813	21401.333333
950.187322	22185.333333
951.484313	23157.333333
952.780787	24243.666667
954.076744	25284.333333
955.372184	26417.666667
956.667108	27350.666667
957.961516	27930.000000
959.255409	28112.666667
960.548785	27879.000000
961.841647	27232.333333
963.133993	26286.000000
964.425825	24991.333333
965.717142	23640.666667
967.007946	22428.333333
968.298235	21219.666667
969.588011	20113.000000
970.877273	19211.333333
972.166023	18337.333333
973.454259	17881.666667
974.741984	17244.333333
976.029196	16879.666667
977.315895	16496.333333
978.602084	16200.000000
979.887761	16044.666667
981.172926	15911.666667
982.457581	15796.333333
983.741725	15638.000000
985.025359	15541.000000
986.308483	15536.666667
987.591097	15373.666667
988.873202	15437.000000
990.154797	15530.333333
991.435883	15467.000000
992.716461	15454.333333
993.996530	15305.333333
995.276091	15268.333333
996.555144	15478.666667
997.833690	15459.666667
999.111728	15540.666667
1000.389259	15655.000000
1001.666283	15715.333333
1002.942800	15721.666667
1004.218812	15553.666667
1005.494317	15731.666667
1006.769317	15622.333333
1008.043811	15453.000000
1009.317799	15445.333333
1010.591283	15548.666667
1011.864263	15440.333333
1013.136737	15553.000000
1014.408708	15495.666667
1015.680175	15439.333333
1016.951138	15461.666667
1018.221598	15487.333333
1019.491554	15559.666667
1020.761008	15537.333333
1022.029959	15529.666667
1023.298408	15604.666667
1024.566355	15679.666667
1025.833800	15643.666667
1027.100744	15782.000000
1028.367187	15728.000000
1029.633128	15644.333333
1030.898569	15772.000000
1032.163509	15833.000000
1033.427949	15879.333333
1034.691890	15726.000000
1035.955330	15729.000000
1037.218271	15718.666667
1038.480714	15760.333333
1039.742657	15858.333333
1041.004101	15831.333333
1042.265048	15905.000000
1043.525496	15788.666667
1044.785446	15817.333333
1046.044899	15827.333333
1047.303855	15744.000000
1048.562313	15677.666667
1049.820275	15683.333333
1051.077740	15667.333333
1052.334709	15540.666667
1053.591182	15572.666667
1054.847160	15511.666667
1056.102641	15658.333333
1057.357628	15571.000000
1058.612120	15660.666667
1059.866117	15709.000000
1061.119619	15719.666667
1062.372628	15859.333333
1063.625142	15981.666667
1064.877163	15967.333333
1066.128691	16078.666667
1067.379725	16139.000000
1068.630267	16157.666667
1069.880316	16203.666667
1071.129872	16131.000000
1072.378937	16097.333333
1073.627509	15893.666667
1074.875590	15702.000000
1076.123180	15690.333333
1077.370279	15447.000000
1078.616887	15397.666667
1079.863004	15258.333333
1081.108631	15145.666667
1082.353768	14933.000000
1083.598415	14921.333333
1084.842573	14842.666667
1086.086241	14720.666667
1087.329421	14545.333333
1088.572111	14507.333333
1089.814314	14318.666667
1091.056028	14282.666667
1092.297253	14176.333333
1093.537992	14268.666667
1094.778242	14144.333333
1096.018006	14154.333333
1097.257282	14041.333333
1098.496072	14013.000000
1099.734376	14074.333333
1100.972193	13990.333333
1102.209524	13972.333333
1103.446370	13896.000000
1104.682730	13832.666667
1105.918604	13860.000000
1107.153994	13836.000000
1108.388900	13774.000000
1109.623320	13775.333333
1110.857257	13663.000000
1112.090710	13506.333333
1113.323679	13541.333333
1114.556164	13426.666667
1115.788167	13521.000000
1117.019686	13439.333333
1118.250723	13293.000000
1119.481278	13372.333333
1120.711350	13222.333333
1121.940940	13247.333333
1123.170049	13312.000000
1124.398676	13337.000000
1125.626823	13292.333333
1126.854488	13258.000000
1128.081672	13281.333333
1129.308376	13193.666667
1130.534600	13212.333333
1131.760345	13154.000000
1132.985609	13157.000000
1134.210394	13134.000000
1135.434700	13132.666667
1136.658527	13022.333333
1137.881875	13037.333333
1139.104745	13117.000000
1140.327136	13061.333333
1141.549050	13021.333333
1142.770486	12966.333333
1143.991445	12953.666667
1145.211926	12956.333333
1146.431931	13049.000000
1147.651459	12984.000000
1148.870510	12920.000000
1150.089086	12889.000000
1151.307185	12847.333333
1152.524808	12917.333333
1153.741957	13046.666667
1154.958630	12859.000000
1156.174828	12993.666667
1157.390551	12950.333333
1158.605800	12969.666667
1159.820574	12895.333333
1161.034875	12937.666667
1162.248702	12895.000000
1163.462055	12934.333333
1164.674936	12795.000000
1165.887343	12877.333333
1167.099277	12865.666667
1168.310739	12817.000000
1169.521729	12804.000000
1170.732247	12826.000000
1171.942293	12877.000000
1173.151867	12786.333333
1174.360970	12869.333333
1175.569602	12791.333333
1176.777764	12797.333333
1177.985454	12734.000000
1179.192675	12706.666667
1180.399425	12679.333333
1181.605706	12681.333333
1182.811517	12644.000000
1184.016859	12584.666667
1185.221731	12571.000000
1186.426135	12548.666667
1187.630070	12518.333333
1188.833537	12484.000000
1190.036535	12551.000000
1191.239066	12468.000000
1192.441129	12413.666667
1193.642725	12472.000000
1194.843853	12311.000000
1196.044515	12430.333333
1197.244710	12341.666667
1198.444438	12410.333333
1199.643701	12400.666667
1200.842497	12414.666667
1202.040827	12472.666667
1203.238693	12457.333333
1204.436092	12307.666667
1205.633027	12368.000000
1206.829497	12311.333333
1208.025503	12320.666667
1209.221044	12321.000000
1210.416122	12159.666667
1211.610735	12125.000000
1212.804885	12198.666667
1213.998572	12221.666667
1215.191795	12182.333333
1216.384556	12174.666667
1217.576854	12067.000000
1218.768689	12024.666667
1219.960063	11977.000000
1221.150974	12062.333333
1222.341424	12029.333333
1223.531413	12068.000000
1224.720940	12131.666667
1225.910006	12045.000000
1227.098612	12207.000000
1228.286757	12247.333333
1229.474442	12149.333333
1230.661667	12230.666667
1231.848432	12322.666667
1233.034738	12299.333333
1234.220584	12318.666667
1235.405971	12379.666667
1236.590900	12429.666667
1237.775369	12414.333333
1238.959381	12530.000000
1240.142934	12508.666667
1241.326029	12534.666667
1242.508667	12592.333333
1243.690848	12582.333333
1244.872571	12529.333333
1246.053837	12599.000000
1247.234646	12479.000000
1248.414999	12560.666667
1249.594896	12491.333333
1250.774337	12426.666667
1251.953322	12369.000000
1253.131851	12421.000000
1254.309925	12262.333333
1255.487544	12371.666667
1256.664708	12129.333333
1257.841417	12193.333333
1259.017673	12170.000000
1260.193473	12217.666667
1261.368820	12254.666667
1262.543714	12190.000000
1263.718154	12263.666667
1264.892140	12230.333333
1266.065674	12246.333333
1267.238755	12367.666667
1268.411383	12248.333333
1269.583559	12280.333333
1270.755283	12261.000000
1271.926555	12209.000000
1273.097375	12201.000000
1274.267744	12226.666667
1275.437662	12121.333333
1276.607129	12179.666667
1277.776145	12125.666667
1278.944711	12046.666667
1280.112827	12114.333333
1281.280492	12035.666667
1282.447708	11966.666667
1283.614474	11983.000000
1284.780791	11840.666667
1285.946659	11903.333333
1287.112078	11848.333333
1288.277048	11725.333333
1289.441570	11797.666667
1290.605644	11652.333333
1291.769270	11671.666667
1292.932448	11642.000000
1294.095178	11502.333333
1295.257461	11457.666667
1296.419298	11435.000000
1297.580687	11395.333333
1298.741630	11404.333333
1299.902126	11380.000000
1301.062177	11437.333333
1302.221781	11483.333333
1303.380940	11371.666667
1304.539653	11344.333333
1305.697921	11310.333333
1306.855744	11327.333333
1308.013123	11443.000000
1309.170056	11409.333333
1310.326546	11401.333333
1311.482591	11421.666667
1312.638193	11338.000000
1313.793350	11362.000000
1314.948065	11345.333333
1316.102336	11306.333333
1317.256164	11287.666667
1318.409550	11274.666667
1319.562493	11317.666667
1320.714993	11223.000000
1321.867052	11147.000000
1323.018668	11182.666667
1324.169843	11200.000000
1325.320577	11182.333333
1326.470870	11129.666667
1327.620721	10999.666667
1328.770132	10995.000000
1329.919102	11005.666667
1331.067632	10996.666667
1332.215722	10977.666667
1333.363372	10970.333333
1334.510582	11042.333333
1335.657353	10876.333333
1336.803685	10970.333333
1337.949578	11016.666667
1339.095032	11074.000000
1340.240048	10974.666667
1341.384625	10980.333333
1342.528764	10926.666667
1343.672466	10903.333333
1344.815729	10882.666667
1345.958556	11022.333333
1347.100945	10814.666667
1348.242897	10894.666667
1349.384413	10769.000000
1350.525492	10780.000000
1351.666134	10750.000000
1352.806341	10708.333333
1353.946111	10692.333333
1355.085446	10658.666667
1356.224346	10684.333333
1357.362810	10592.000000
1358.500840	10675.000000
1359.638434	10518.333333
1360.775594	10586.666667
1361.912320	10572.333333
1363.048612	10459.333333
1364.184469	10443.333333
1365.319893	10443.000000
1366.454884	10420.333333
1367.589441	10541.333333
1368.723566	10469.666667
1369.857257	10608.333333
1370.990516	10440.333333
1372.123343	10510.666667
1373.255737	10465.000000
1374.387699	10536.666667
1375.519230	10535.000000
1376.650329	10520.333333
1377.780997	10536.000000
1378.911234	10499.666667
1380.041040	10612.000000
1381.170416	10467.333333
1382.299361	10455.333333
1383.427875	10599.666667
1384.555960	10533.333333
1385.683615	10520.333333
1386.810841	10508.000000
1387.937637	10557.333333
1389.064004	10398.000000
1390.189942	10442.000000
1391.315451	10483.000000
1392.440532	10419.000000
1393.565185	10457.000000
1394.689409	10436.666667
1395.813206	10408.666667
1396.936575	10304.000000
1398.059517	10396.000000
1399.182032	10254.333333
1400.304119	10342.333333
1401.425780	10359.000000
1402.547014	10272.000000
1403.667822	10232.000000
1404.788204	10254.000000
1405.908160	10301.000000
1407.027690	10284.000000
1408.146795	10307.000000
1409.265474	10156.000000
1410.383728	10318.000000
1411.501558	10213.333333
1412.618963	10295.666667
1413.735943	10218.666667
1414.852499	10328.000000
1415.968632	10280.666667
1417.084340	10355.000000
1418.199625	10356.666667
1419.314486	10493.666667
1420.428925	10403.000000
1421.542940	10372.666667
1422.656533	10328.333333
1423.769703	10363.000000
1424.882451	10264.000000
1425.994777	10343.000000
1427.106680	10283.666667
1428.218163	10235.333333
1429.329223	10221.666667
1430.439863	10156.666667
1431.550081	10167.333333
1432.659879	10122.666667
1433.769256	10120.000000
1434.878212	10138.000000
1435.986749	10072.333333
1437.094865	10233.666667
1438.202562	10214.333333
1439.309839	10167.666667
1440.416696	10230.333333
1441.523135	10210.333333
1442.629154	10235.333333
1443.734755	10365.000000
1444.839937	10358.000000
1445.944701	10379.333333
1447.049047	10387.666667
1448.152975	10406.666667
1449.256485	10485.000000
1450.359577	10472.333333
1451.462253	10473.666667
1452.564511	10438.333333
1453.666352	10463.333333
1454.767777	10416.666667
1455.868785	10329.000000
1456.969377	10389.666667
1458.069553	10279.000000
1459.169313	10198.333333
1460.268658	10180.000000
1461.367587	10206.666667
1462.466101	10132.666667
1463.564200	10116.333333
1464.661884	9942.333333
1465.759153	9937.000000
1466.856008	9843.333333
1467.952449	9768.666667
1469.048476	9810.333333
1470.144089	9581.333333
1471.239288	9556.666667
1472.334074	9559.333333
1473.428447	9523.666667
1474.522407	9402.333333
1475.615955	9317.666667
1476.709089	9265.666667
1477.801812	9270.000000
1478.894122	9247.333333
1479.986020	9057.333333
1481.077506	9129.666667
1482.168581	9100.333333
1483.259245	9071.333333
1484.349498	9136.666667
1485.439339	9094.000000
1486.528770	9058.000000
1487.617790	9037.333333
1488.706400	8950.666667
1489.794600	8986.000000
1490.882390	8956.000000
1491.969771	8932.000000
1493.056742	8935.000000
1494.143303	8919.000000
1495.229456	8881.333333
1496.315199	8832.000000
1497.400534	8844.000000
1498.485460	8840.666667
1499.569978	8821.666667
1500.654088	8799.000000
1501.737790	8839.000000
1502.821085	8787.333333
1503.903972	8760.666667
1504.986451	8701.333333
1506.068524	8667.333333
1507.150189	8730.333333
1508.231448	8579.000000
1509.312301	8651.666667
1510.392747	8668.000000
1511.472787	8581.000000
1512.552422	8660.000000
1513.631650	8560.000000
1514.710473	8598.333333
1515.788891	8622.333333
1516.866904	8529.333333
1517.944512	8498.666667
1519.021715	8701.666667
1520.098513	8561.000000
1521.174908	8607.000000
1522.250898	8567.333333
1523.326485	8552.333333
1524.401667	8625.666667
1525.476447	8615.666667
1526.550823	8684.333333
1527.624796	8570.333333
1528.698365	8697.000000
1529.771533	8611.666667
1530.844298	8703.000000
1531.916660	8700.333333
1532.988620	8659.666667
1534.060179	8634.333333
1535.131336	8613.000000
1536.202091	8618.666667
1537.272445	8572.000000
1538.342398	8514.666667
1539.411950	8567.000000
1540.481101	8551.666667
1541.549851	8510.333333
1542.618202	8479.666667
1543.686152	8461.000000
1544.753702	8476.000000
1545.820853	8392.333333
1546.887604	8434.333333
1547.953955	8293.666667
1549.019908	8322.666667
1550.085461	8310.666667
1551.150616	8351.333333
1552.215372	8362.666667
1553.279730	8330.000000
1554.343690	8308.666667
1555.407252	8319.000000
1556.470415	8231.333333
1557.533182	8287.000000
1558.595551	8181.000000
1559.657522	8250.000000
1560.719097	8230.666667
1561.780275	8171.333333
1562.841056	8196.000000
1563.901441	8222.666667
1564.961429	8190.666667
1566.021022	8177.666667
1567.080219	8140.666667
1568.139020	8179.000000
1569.197425	8162.000000
1570.255436	8139.000000
1571.313051	8138.666667
1572.370271	8084.333333
1573.427097	8059.000000
1574.483528	8057.333333
1575.539565	8039.666667
1576.595208	8104.000000
1577.650457	8106.666667
1578.705312	8012.000000
1579.759774	8033.666667
1580.813842	7985.333333
1581.867517	7975.666667
1582.920799	7949.000000
1583.973689	7895.666667
1585.026186	7920.666667
1586.078290	7912.000000
1587.130002	7906.333333
1588.181323	7808.666667
1589.232251	7882.333333
1590.282788	7911.333333
1591.332933	7900.666667
1592.382688	7816.000000
1593.432051	7846.666667
1594.481023	7887.666667
1595.529605	7870.666667
1596.577796	7872.000000
1597.625597	7885.666667
1598.673007	7954.000000
1599.720028	7922.000000
1600.766660	7975.666667
1601.812901	7924.666667
1602.858753	7958.000000
1603.904217	7979.000000
1604.949291	8043.666667
1605.993976	7983.666667
1607.038273	7920.666667
1608.082182	7930.000000
1609.125702	7982.666667
1610.168834	8015.000000
1611.211579	8013.000000
1612.253935	8001.333333
1613.295905	7939.666667
1614.337487	7921.333333
1615.378682	8016.333333
1616.419490	7924.666667
1617.459912	7905.000000
1618.499946	7938.333333
1619.539595	7938.333333
1620.578858	7880.333333
1621.617734	7932.333333
1622.656225	7921.666667
1623.694330	7822.333333
1624.732050	7924.666667
1625.769385	7875.666667
1626.806334	7875.000000
1627.842899	7923.000000
1628.879079	7881.666667
1629.914875	7863.666667
1630.950286	7915.000000
1631.985314	7926.333333
1633.019957	7878.000000
1634.054217	7906.000000
1635.088093	7936.000000
1636.121586	7921.333333
1637.154696	7969.000000
1638.187423	7932.666667
1639.219767	7971.333333
1640.251728	7976.666667
1641.283307	7933.000000
1642.314504	8021.666667
1643.345319	7923.666667
1644.375751	7974.666667
1645.405803	8006.666667
1646.435472	7958.000000
1647.464761	7988.000000
1648.493668	8010.000000
1649.522194	8024.000000
1650.550340	8071.666667
1651.578105	7992.333333
1652.605490	7971.666667
1653.632494	7939.666667
1654.659119	7956.333333
1655.685363	7881.666667
1656.711228	7933.666667
1657.736714	7905.666667
1658.761820	7899.000000
1659.786547	7885.666667
1660.810895	7864.000000
1661.834865	7847.666667
1662.858456	7829.666667
1663.881668	7801.333333
1664.904503	7755.666667
1665.926959	7783.333333
1666.949038	7749.333333
1667.970739	7694.666667
1668.992062	7654.666667
1670.013008	7624.000000
1671.033577	7624.666667
1672.053770	7614.000000
1673.073585	7531.666667
1674.093024	7559.000000
1675.112086	7506.333333
1676.130773	7433.000000
1677.149083	7554.000000
1678.167017	7480.000000
1679.184576	7509.333333
1680.201760	7443.666667
1681.218568	7503.666667
1682.235001	7426.000000
1683.251059	7466.333333
1684.266742	7435.000000
1685.282051	7490.000000
1686.296985	7371.666667
1687.311546	7338.000000
1688.325732	7283.333333
1689.339544	7271.333333
1690.352983	7270.000000
1691.366048	7255.000000
1692.378740	7199.333333
1693.391058	7160.000000
1694.403004	7111.333333
1695.414577	7073.000000
1696.425778	7072.000000
1697.436606	7024.333333
1698.447061	7024.000000
1699.457145	6981.000000
1700.466857	6923.333333
1701.476197	6901.666667
1702.485166	6957.000000
1703.493763	6859.333333
1704.501989	6782.000000
1705.509844	6855.666667
1706.517328	6815.333333
1707.524442	6853.333333
1708.531185	6769.666667
1709.537558	6748.666667
1710.543561	6774.000000
1711.549194	6816.666667
1712.554457	6807.333333
1713.559351	6778.000000
1714.563875	6806.666667
1715.568030	6772.000000
1716.571816	6804.333333
1717.575233	6795.333333
1718.578282	6846.666667
1719.580962	6800.000000
1720.583273	6887.000000
1721.585217	6841.333333
1722.586792	6840.666667
1723.588000	6904.666667
1724.588840	6879.666667
1725.589312	6909.000000
1726.589418	6946.000000
1727.589156	6898.333333
1728.588527	6864.000000
1729.587532	6880.000000
1730.586170	6857.333333
1731.584441	6970.000000
1732.582346	6956.333333
1733.579886	6927.000000
1734.577059	6972.666667
1735.573867	6980.333333
1736.570309	6963.000000
1737.566386	6858.333333
1738.562097	6972.666667
1739.557444	6910.333333
1740.552426	6903.666667
1741.547043	6896.666667
1742.541295	6836.000000
1743.535184	6853.000000
1744.528708	6861.333333
1745.521868	6728.666667
1746.514664	6812.000000
1747.507097	6714.666667
1748.499166	6710.333333
1749.490873	6759.000000
1750.482216	6769.333333
1751.473196	6706.000000
1752.463813	6768.666667
1753.454068	6716.666667
1754.443960	6694.666667
1755.433490	6692.000000
1756.422658	6691.333333
1757.411464	6678.000000
1758.399908	6660.000000
1759.387991	6653.333333
1760.375713	6630.666667
1761.363073	6543.000000
1762.350072	6572.000000
1763.336711	6489.666667
1764.322988	6489.333333
1765.308905	6450.333333
1766.294462	6522.333333
1767.279659	6464.333333
1768.264496	6353.000000
1769.248972	6377.000000
1770.233089	6382.666667
1771.216847	6288.000000
1772.200245	6298.333333
1773.183284	6342.333333
1774.165965	6291.333333
1775.148286	6219.333333
1776.130249	6183.666667
1777.111853	6179.666667
1778.093099	6056.666667
1779.073987	6156.333333
1780.054517	6091.666667
1781.034689	6042.000000
1782.014503	5983.000000
1782.993960	5984.666667
1783.973060	5956.666667
1784.951802	5962.333333
1785.930188	5849.666667
1786.908217	5864.666667
1787.885889	5823.000000
1788.863205	5852.000000
1789.840164	5808.666667
1790.816768	5802.333333
1791.793015	5809.000000
1792.768907	5782.000000
1793.744443	5813.333333
1794.719624	5794.333333
1795.694449	5776.000000
1796.668919	5713.666667
1797.643035	5816.000000
1798.616795	5835.000000
1799.590201	5784.000000
1800.563253	5777.333333
1801.535950	5842.000000
1802.508294	5794.666667
1803.480283	5836.666667
1804.451919	5799.666667
1805.423201	5907.333333
1806.394129	5846.333333
1807.364705	5896.666667
1808.334927	5908.000000
1809.304796	5838.000000
1810.274313	5861.666667
1811.243477	5948.000000
1812.212288	5875.000000
1813.180747	5942.666667
1814.148855	5906.666667
1815.116610	5962.666667
1816.084013	5971.000000
1817.051065	6000.000000
1818.017766	5934.000000
1818.984115	6023.000000
1819.950113	5919.000000
1820.915760	6038.333333
1821.881057	6034.333333
1822.846003	6019.000000
1823.810598	5943.000000
1824.774843	6012.333333
1825.738738	6017.666667
1826.702283	5991.000000
1827.665479	6025.333333
1828.628324	6050.333333
1829.590821	6030.666667
1830.552968	5986.000000
1831.514765	5961.666667
1832.476214	6005.000000
1833.437314	5990.333333
1834.398066	5933.333333
1835.358469	5952.333333
1836.318524	5970.333333
1837.278230	5986.666667
1838.237589	5957.333333
1839.196600	5896.000000
1840.155263	5841.333333
1841.113578	5957.333333
1842.071547	5882.666667
1843.029168	5836.666667
1843.986442	5854.666667
1844.943369	5886.333333
1845.899950	5819.333333
1846.856184	5841.333333
1847.812072	5808.666667
1848.767614	5761.333333
1849.722809	5711.000000
1850.677659	5695.000000
1851.632163	5670.333333
1852.586322	5617.666667
1853.540135	5619.000000
1854.493603	5585.333333
1855.446726	5577.666667
1856.399504	5599.666667
1857.351937	5488.333333
1858.304026	5513.333333
1859.255770	5425.000000
1860.207170	5404.000000
1861.158227	5398.666667
1862.108939	5369.000000
1863.059307	5328.333333
1864.009332	5354.666667
1864.959013	5288.666667
1865.908351	5272.000000
1866.857346	5234.000000
1867.805998	5224.666667
1868.754307	5217.666667
1869.702274	5165.000000
1870.649898	5154.333333
1871.597180	5107.000000
1872.544119	5108.333333
1873.490717	5119.333333
1874.436973	5098.000000
1875.382887	5109.000000
1876.328459	5057.000000
1877.273691	5081.666667
1878.218581	5054.000000
1879.163130	5073.333333
1880.107338	5083.666667
1881.051205	5110.000000
1881.994732	5115.666667
1882.937919	5139.666667
1883.880765	5102.333333
1884.823271	5084.000000
1885.765437	5119.666667
1886.707264	5125.333333
1887.648750	5198.000000
1888.589898	5207.666667
1889.530706	5179.000000
1890.471175	5230.333333
1891.411305	5214.000000
1892.351096	5206.333333
1893.290548	5272.000000
1894.229662	5247.666667
1895.168438	5131.666667
1896.106876	5236.333333
1897.044975	5230.000000
1897.982737	5209.000000
1898.920160	5241.333333
1899.857247	5236.000000
1900.793996	5260.000000
1901.730407	5224.333333
1902.666482	5210.333333
1903.602219	5187.333333
1904.537620	5155.000000
1905.472685	5207.333333
1906.407412	5091.333333
1907.341804	5098.333333
1908.275859	5117.666667
1909.209579	5007.333333
1910.142962	5035.333333
1911.076010	5022.000000
1912.008722	4919.333333
1912.941099	4891.333333
1913.873141	4873.000000
1914.804848	4853.000000
1915.736219	4785.333333
1916.667256	4805.333333
1917.597959	4805.000000
1918.528327	4765.666667
1919.458360	4787.666667
1920.388060	4751.000000
1921.317426	4750.666667
1922.246457	4670.666667
1923.175156	4700.333333
1924.103520	4689.666667
1925.031552	4682.000000
1925.959250	4635.333333
1926.886615	4598.333333
1927.813647	4583.666667
1928.740346	4617.000000
1929.666713	4638.666667
1930.592748	4620.333333
1931.518450	4599.666667
1932.443820	4605.333333
1933.368858	4558.000000
1934.293564	4635.666667
1935.217939	4546.333333
1936.141982	4529.000000
1937.065694	4581.333333
1937.989074	4507.333333
1938.912124	4508.000000
1939.834842	4557.666667
1940.757230	4439.333333
1941.679287	4485.000000
1942.601014	4463.333333
1943.522411	4415.000000
1944.443477	4397.666667
1945.364214	4407.666667
1946.284621	4427.000000
1947.204698	4372.333333
1948.124445	4330.000000
1949.043863	4378.333333
1949.962952	4305.666667
1950.881712	4332.000000
1951.800143	4255.666667
1952.718245	4275.666667
1953.636019	4303.000000
1954.553464	4245.000000
1955.470581	4282.333333
1956.387369	4233.333333
1957.303830	4313.333333
1958.219963	4200.333333
1959.135768	4252.333333
1960.051246	4302.000000
1960.966396	4264.333333
1961.881219	4242.333333
1962.795715	4257.333333
1963.709883	4246.000000
1964.623726	4324.333333
1965.537241	4319.333333
1966.450430	4366.000000
1967.363293	4298.333333
1968.275829	4312.333333
1969.188040	4307.333333
1970.099924	4411.666667
1971.011483	4333.333333
1971.922716	4358.666667
1972.833624	4324.333333
1973.744206	4365.333333
1974.654464	4347.000000
1975.564396	4332.333333
1976.474004	4328.333333
1977.383286	4329.000000
1978.292245	4274.666667
1979.200878	4286.000000
1980.109188	4258.000000
1981.017174	4253.000000
1981.924835	4286.666667
1982.832173	4235.000000
1983.739187	4163.666667
1984.645878	4173.333333
1985.552245	4165.000000
1986.458289	4167.666667
1987.364010	4130.000000
1988.269408	4086.666667
1989.174484	4052.000000
1990.079236	4051.000000
1990.983667	3982.000000
1991.887775	3972.666667
1992.791561	3927.000000
1993.695024	3982.666667
1994.598166	3943.333333
1995.500986	3945.000000
1996.403485	3888.666667
1997.305662	3903.000000
1998.207518	3863.666667
1999.109053	3848.666667
