200.151048	19387.333333
201.758777	19370.000000
203.365815	19401.333333
204.972162	19237.333333
206.577820	19318.333333
208.182787	19240.333333
209.787065	19321.333333
211.390653	19181.000000
212.993553	19042.333333
214.595765	19220.000000
216.197289	19105.000000
217.798125	19103.666667
219.398274	19089.333333
220.997737	18976.000000
222.596513	18967.333333
224.194603	19076.666667
225.792008	19035.666667
227.388728	19033.000000
228.984763	18953.000000
230.580114	18907.666667
232.174781	18941.333333
233.768765	18894.000000
235.362065	18903.000000
236.954683	18901.666667
238.546619	18814.333333
240.137872	18885.333333
241.728445	18723.000000
243.318336	18599.333333
244.907546	18665.333333
246.496076	18731.666667
248.083926	18658.000000
249.671097	18605.333333
251.257589	18460.333333
252.843402	18453.333333
254.428536	18372.333333
256.012993	18395.000000
257.596772	18203.333333
259.179874	18301.333333
260.762300	18275.666667
262.344049	18177.666667
263.925122	18165.000000
265.505519	18217.000000
267.085241	18225.666667
268.664289	18131.666667
270.242662	18091.333333
271.820361	18148.666667
273.397387	18245.333333
274.973740	18129.666667
276.549419	18157.000000
278.124426	18209.666667
279.698762	18279.000000
281.272425	18220.333333
282.845417	18226.000000
284.417739	18223.666667
285.989390	18181.333333
287.560371	18252.666667
289.130682	18100.666667
290.700324	18242.666667
292.269297	18206.666667
293.837602	18238.666667
295.405238	18160.000000
296.972207	18125.666667
298.538508	18157.666667
300.104142	18152.333333
301.669110	18131.666667
303.233411	18114.666667
304.797047	17969.000000
306.360017	17987.333333
307.922322	17921.666667
309.483963	17811.000000
311.044939	17862.666667
312.605252	17830.333333
314.164900	17649.666667
315.723886	17755.333333
317.282209	17570.000000
318.839870	17560.333333
320.396868	17451.666667
321.953205	17512.000000
323.508881	17500.333333
325.063896	17603.000000
326.618251	17361.000000
328.171945	17468.666667
329.724980	17407.666667
331.277356	17392.666667
332.829072	17407.000000
334.380131	17295.666667
335.930530	17360.000000
337.480273	17398.666667
339.029357	17319.000000
340.577785	17446.000000
342.125556	17462.000000
343.672671	17351.333333
345.219130	17468.000000
346.764933	17229.666667
348.310081	17392.000000
349.854575	17382.000000
351.398414	17388.333333
352.941599	17425.333333
354.484130	17399.000000
356.026008	17392.666667
357.567234	17277.333333
359.107807	17282.000000
360.647727	17147.000000
362.186996	17237.000000
363.725614	17264.666667
365.263580	17201.333333
366.800896	17102.666667
368.337562	17227.666667
369.873578	17104.000000
371.408944	16992.666667
372.943661	17068.666667
374.477730	17109.000000
376.011150	17136.666667
377.543922	17050.333333
379.076046	17079.333333
380.607523	17154.000000
382.138353	17096.000000
383.668537	17141.333333
385.198075	17020.666667
386.726966	17113.666667
388.255213	17121.333333
389.782814	17145.333333
391.309770	17080.666667
392.836083	17149.000000
394.361751	17175.666667
395.886776	17270.666667
397.411157	17140.333333
398.934896	17207.000000
400.457992	17147.666667
401.980446	17156.333333
403.502258	17212.333333
405.023429	17202.333333
406.543959	17290.666667
408.063849	17245.333333
409.583098	17355.000000
411.101707	17353.666667
412.619677	17411.333333
414.137007	17568.666667
415.653699	17605.333333
417.169752	17784.666667
418.685167	17816.000000
420.199945	17878.333333
421.714085	18044.666667
423.227588	18108.000000
424.740454	18376.000000
426.252684	18282.666667
427.764279	18360.666667
429.275238	18303.666667
430.785561	18362.666667
432.295250	18315.666667
433.804304	18106.666667
435.312725	18075.666667
436.820511	17963.333333
438.327664	17936.666667
439.834185	17859.666667
441.340072	17843.666667
442.845327	17827.666667
444.349951	17608.333333
445.853942	17588.666667
447.357303	17563.666667
448.860033	17375.000000
450.362132	17407.000000
451.863601	17452.000000
453.364440	17324.666667
454.864650	17011.333333
456.364231	16944.000000
457.863183	17008.000000
459.361507	16878.666667
460.859203	16818.000000
462.356271	16806.666667
463.852712	16706.666667
465.348526	16519.000000
466.843714	16530.666667
468.338275	16399.333333
469.832210	16385.666667
471.325520	16425.333333
472.818205	16222.000000
474.310265	16294.333333
475.801700	16311.333333
477.292512	16190.666667
478.782700	16221.333333
480.272264	16147.666667
481.761205	16137.000000
483.249524	16050.666667
484.737221	16045.000000
486.224295	16045.666667
487.710748	15993.333333
489.196579	15966.333333
490.681790	15949.333333
492.166380	15993.000000
493.650350	16035.666667
495.133700	15832.666667
496.616431	15883.000000
498.098542	15862.333333
499.580035	15912.666667
501.060909	15813.000000
502.541165	15862.333333
504.020804	15867.333333
505.499825	15711.333333
506.978228	15870.333333
508.456016	15778.000000
509.933186	15709.666667
511.409741	15749.333333
512.885680	15596.333333
514.361004	15676.000000
515.835713	15702.000000
517.309807	15661.666667
518.783287	15601.333333
520.256153	15548.000000
521.728406	15624.000000
523.200045	15581.333333
524.671071	15568.666667
526.141485	15630.666667
527.611287	15599.000000
529.080476	15548.666667
530.549054	15535.333333
532.017021	15612.000000
533.484378	15559.666667
534.951123	15576.666667
536.417259	15497.333333
537.882785	15508.000000
539.347701	15540.666667
540.812008	15480.333333
542.275707	15458.333333
543.738797	15474.666667
545.201279	15412.333333
546.663153	15484.333333
548.124420	15472.333333
549.585080	15337.000000
551.045133	15497.000000
552.504579	15490.666667
553.963420	15617.666667
555.421655	15511.000000
556.879285	15496.666667
558.336309	15496.000000
559.792729	15442.333333
561.248545	15491.666667
562.703756	15591.333333
564.158364	15586.333333
565.612369	15495.000000
567.065770	15745.000000
568.518569	15773.666667
569.970766	15826.000000
571.422361	15791.000000
572.873354	15783.333333
574.323745	15964.000000
575.773536	15993.000000
577.222726	16142.000000
578.671316	16053.666667
580.119306	16228.000000
581.566696	16217.000000
583.013487	16109.666667
584.459679	16104.333333
585.905273	16127.000000
587.350268	16093.333333
588.794665	15993.666667
590.238465	16044.000000
591.681667	16025.333333
593.124272	15970.666667
594.566281	15873.000000
596.007694	15614.666667
597.448510	15700.666667
598.888731	15486.333333
600.328357	15325.000000
601.767388	15302.666667
603.205824	15348.333333
604.643666	15292.333333
606.080914	15316.666667
607.517568	15223.000000
608.953629	15186.000000
610.389097	15209.000000
611.823972	15088.000000
613.258255	15161.666667
614.691946	15154.666667
616.125046	15053.000000
617.557554	14840.666667
618.989471	14844.666667
620.420798	14699.000000
621.851534	14753.333333
623.281680	14665.666667
624.711237	14594.000000
626.140204	14609.666667
627.568582	14481.000000
628.996372	14359.333333
630.423573	14401.000000
631.850186	14317.000000
633.276211	14304.666667
634.701650	14438.333333
636.126501	14189.666667
637.550765	14192.666667
638.974443	14270.333333
640.397535	14295.333333
641.820041	14230.000000
643.241961	14250.666667
644.663297	14243.000000
646.084048	14237.666667
647.504214	14158.000000
648.923796	14051.000000
650.342795	14149.333333
651.761210	14156.000000
653.179041	14060.000000
654.596290	14040.666667
656.012957	14044.000000
657.429041	14035.000000
658.844543	14070.333333
660.259464	14059.333333
661.673804	14102.333333
663.087563	13980.666667
664.500741	14036.000000
665.913339	14011.333333
667.325357	14030.000000
668.736795	13860.666667
670.147654	13917.000000
671.557934	13986.000000
672.967636	13864.000000
674.376759	13856.000000
675.785304	13973.000000
677.193271	13805.000000
678.600661	13834.333333
680.007474	13778.000000
681.413711	13851.000000
682.819370	13804.000000
684.224454	13893.333333
685.628962	13816.333333
687.032895	13793.666667
688.436252	13758.666667
689.839034	13709.000000
691.241242	13792.333333
692.642876	13730.666667
694.043936	13650.000000
695.444422	13694.000000
696.844336	13811.000000
698.243676	13656.000000
699.642443	13607.666667
701.040639	13557.000000
702.438262	13501.333333
703.835313	13651.000000
705.231794	13555.666667
706.627703	13607.666667
708.023041	13342.333333
709.417810	13613.333333
710.812008	13460.000000
712.205636	13522.333333
713.598694	13463.333333
714.991184	13427.666667
716.383105	13461.000000
717.774457	13458.666667
719.165241	13505.333333
720.555457	13434.333333
721.945105	13405.666667
723.334187	13413.333333
724.722701	13366.333333
726.110648	13365.000000
727.498030	13403.666667
728.884845	13345.666667
730.271094	13368.333333
731.656778	13421.333333
733.041897	13311.000000
734.426451	13260.000000
735.810441	13320.333333
737.193866	13348.333333
738.576728	13301.333333
739.959026	13236.000000
741.340760	13273.000000
742.721932	13308.333333
744.102541	13215.333333
745.482588	13283.000000
746.862073	13240.666667
748.240996	13330.333333
749.619358	13250.000000
750.997158	13116.666667
752.374398	13167.333333
753.751077	13279.000000
755.127197	13150.333333
756.502756	13273.333333
757.877756	13158.666667
759.252196	13291.666667
760.626078	13096.666667
761.999400	13046.000000
763.372165	13005.333333
764.744371	13135.000000
766.116020	13060.000000
767.487111	13027.666667
768.857646	12978.666667
770.227623	12947.666667
771.597044	12972.333333
772.965908	12880.333333
774.334217	12856.000000
775.701970	12888.666667
777.069168	12904.333333
778.435811	12916.000000
779.801899	12738.000000
781.167433	12866.666667
782.532412	12852.666667
783.896838	12782.666667
785.260710	12736.000000
786.624029	12712.333333
787.986796	12775.666667
789.349009	12675.333333
790.710671	12677.666667
792.071780	12678.666667
793.432338	12656.333333
794.792344	12608.333333
796.151799	12682.000000
797.510704	12669.333333
798.869058	12523.333333
800.226862	12585.333333
801.584116	12558.333333
802.940820	12581.000000
804.296975	12588.000000
805.652581	12568.333333
807.007638	12662.666667
808.362147	12546.333333
809.716108	12594.333333
811.069521	12615.000000
812.422387	12651.333333
813.774705	12587.666667
815.126476	12662.666667
816.477701	12494.666667
817.828380	12571.000000
819.178512	12594.000000
820.528099	12577.666667
821.877140	12518.000000
823.225637	12484.000000
824.573588	12391.000000
825.920995	12441.666667
827.267857	12440.333333
828.614176	12383.666667
829.959951	12458.333333
831.305183	12349.000000
832.649871	12336.333333
833.994017	12337.000000
835.337620	12287.000000
836.680681	12417.333333
838.023201	12334.000000
839.365178	12442.000000
840.706614	12384.666667
842.047510	12320.000000
843.387864	12432.333333
844.727678	12263.666667
846.066952	12418.000000
847.405687	12460.666667
848.743881	12463.333333
850.081537	12409.000000
851.418653	12522.333333
852.755231	12525.666667
854.091270	12480.000000
855.426771	12442.000000
856.761735	12440.000000
858.096160	12467.666667
859.430049	12470.333333
860.763401	12357.666667
862.096216	12435.666667
863.428495	12270.333333
864.760237	12365.000000
866.091444	12256.666667
867.422115	12314.666667
868.752252	12253.333333
870.081853	12251.000000
871.410919	12168.333333
872.739452	12149.333333
874.067450	12249.000000
875.394914	12151.000000
876.721845	12195.000000
878.048243	12158.333333
879.374108	12168.000000
880.699440	12141.666667
882.024240	11953.333333
883.348508	12083.666667
884.672244	11933.666667
885.995449	11955.666667
887.318122	12095.000000
888.640265	12009.333333
889.961877	12026.333333
891.282959	11952.333333
892.603510	11923.000000
893.923532	11855.000000
895.243024	11863.333333
896.561987	11924.333333
897.880422	11873.333333
899.198327	11914.000000
900.515705	11834.333333
901.832554	11793.666667
903.148875	11722.333333
904.464669	11703.333333
905.779936	11810.333333
907.094676	11759.333333
908.408889	11805.000000
909.722576	11744.000000
911.035737	11769.000000
912.348371	11733.333333
913.660481	11814.333333
914.972065	11859.333333
916.283124	11865.000000
917.593659	11921.666667
918.903669	11977.666667
920.213155	12122.666667
921.522117	11914.000000
922.830556	11905.666667
924.138471	11916.000000
925.445864	11967.333333
926.752733	11879.333333
928.059081	11847.000000
929.364906	11938.666667
930.670209	12014.333333
931.974991	12021.333333
933.279251	12137.333333
934.582990	12129.000000
935.886209	12241.000000
937.188907	12254.000000
938.491085	12299.333333
939.792743	12496.000000
941.093881	12599.333333
942.394500	12873.666667
943.694600	12959.666667
944.994181	13195.333333
946.293243	13558.000000
947.591787	13872.666667
948.889813	14293.333333
950.187322	14615.666667
951.484313	15281.666667
952.780787	15713.666667
954.076744	16484.666667
955.372184	16965.666667
956.667108	17617.000000
957.961516	17771.333333
959.255409	17983.666667
960.548785	17919.333333
961.841647	17551.000000
963.133993	17034.000000
964.425825	16273.333333
965.717142	15582.666667
967.007946	14934.666667
968.298235	14232.666667
969.588011	13534.666667
970.877273	13073.000000
972.166023	12616.000000
973.454259	12269.666667
974.741984	12028.333333
976.029196	11882.666667
977.315895	11563.000000
978.602084	11327.000000
979.887761	11357.666667
981.172926	11251.000000
982.457581	11209.666667
983.741725	11054.333333
985.025359	11127.000000
986.308483	11025.333333
987.591097	10955.333333
988.873202	10960.000000
990.154797	10941.000000
991.435883	10987.333333
992.716461	10874.333333
993.996530	10911.666667
995.276091	11043.666667
996.555144	10863.666667
997.833690	10969.000000
999.111728	11037.333333
1000.389259	10963.666667
1001.666283	11001.333333
1002.942800	11068.333333
1004.218812	11012.666667
1005.494317	10878.333333
1006.769317	10948.666667
1008.043811	10934.666667
1009.317799	10850.000000
1010.591283	10887.333333
1011.864263	10933.000000
1013.136737	10867.666667
1014.408708	10920.666667
1015.680175	10849.000000
1016.951138	10940.333333
1018.221598	10987.333333
1019.491554	10930.000000
1020.761008	10947.666667
1022.029959	10905.000000
1023.298408	11003.000000
1024.566355	10943.000000
1025.833800	10962.666667
1027.100744	10946.666667
1028.367187	11070.333333
1029.633128	10969.333333
1030.898569	11060.000000
1032.163509	11064.333333
1033.427949	11112.000000
1034.691890	11180.666667
1035.955330	11034.000000
1037.218271	10933.666667
1038.480714	11039.000000
1039.742657	11044.666667
1041.004101	11102.666667
1042.265048	11058.333333
1043.525496	11034.000000
1044.785446	11011.333333
1046.044899	11051.000000
1047.303855	10988.666667
1048.562313	10989.666667
1049.820275	10996.666667
1051.077740	10936.000000
1052.334709	11031.000000
1053.591182	10930.000000
1054.847160	10963.333333
1056.102641	10917.000000
1057.357628	10977.666667
1058.612120	10924.666667
1059.866117	10952.000000
1061.119619	11028.000000
1062.372628	11030.333333
1063.625142	11073.666667
1064.877163	11144.333333
1066.128691	11158.000000
1067.379725	11222.666667
1068.630267	11129.000000
1069.880316	11175.666667
1071.129872	11126.333333
1072.378937	11135.000000
1073.627509	11247.333333
1074.875590	11007.333333
1076.123180	11034.333333
1077.370279	10887.666667
1078.616887	10874.333333
1079.863004	10792.333333
1081.108631	10717.333333
1082.353768	10705.666667
1083.598415	10528.666667
1084.842573	10594.000000
1086.086241	10428.333333
1087.329421	10481.000000
1088.572111	10389.333333
1089.814314	10353.333333
1091.056028	10316.000000
1092.297253	10241.666667
1093.537992	10172.333333
1094.778242	10128.666667
1096.018006	10174.666667
1097.257282	10068.666667
1098.496072	10219.000000
1099.734376	10054.666667
1100.972193	9954.666667
1102.209524	10015.666667
1103.446370	10018.333333
1104.682730	9951.000000
1105.918604	10003.666667
1107.153994	9933.000000
1108.388900	9915.666667
1109.623320	9813.333333
1110.857257	9857.666667
1112.090710	9814.000000
1113.323679	9810.666667
1114.556164	9845.333333
1115.788167	9724.000000
1117.019686	9761.666667
1118.250723	9754.000000
1119.481278	9679.000000
1120.711350	9682.666667
1121.940940	9672.000000
1123.170049	9625.000000
1124.398676	9585.666667
1125.626823	9581.333333
1126.854488	9560.666667
1128.081672	9502.333333
1129.308376	9513.333333
1130.534600	9509.000000
1131.760345	9459.000000
1132.985609	9416.000000
1134.210394	9391.333333
1135.434700	9434.333333
1136.658527	9416.666667
1137.881875	9393.666667
1139.104745	9367.333333
1140.327136	9355.000000
1141.549050	9418.666667
1142.770486	9421.333333
1143.991445	9393.666667
1145.211926	9389.333333
1146.431931	9292.333333
1147.651459	9358.333333
1148.870510	9382.666667
1150.089086	9321.333333
1151.307185	9292.333333
1152.524808	9270.000000
1153.741957	9260.333333
1154.958630	9331.666667
1156.174828	9278.666667
1157.390551	9155.000000
1158.605800	9193.333333
1159.820574	9219.333333
1161.034875	9284.333333
1162.248702	9279.000000
1163.462055	9200.666667
1164.674936	9214.333333
1165.887343	9138.666667
1167.099277	9092.666667
1168.310739	9265.666667
1169.521729	9075.666667
1170.732247	9092.000000
1171.942293	9130.666667
1173.151867	9098.333333
1174.360970	9045.000000
1175.569602	9086.666667
1176.777764	9154.333333
1177.985454	9043.666667
1179.192675	9039.666667
1180.399425	9000.666667
1181.605706	9022.333333
1182.811517	8967.000000
1184.016859	9017.000000
1185.221731	8977.333333
1186.426135	8893.666667
1187.630070	8910.000000
1188.833537	8925.666667
1190.036535	8866.333333
1191.239066	8894.000000
1192.441129	8919.666667
1193.642725	8888.333333
1194.843853	8834.333333
1196.044515	8838.000000
1197.244710	8780.666667
1198.444438	8786.666667
1199.643701	8806.000000
1200.842497	8811.333333
1202.040827	8797.000000
1203.238693	8831.666667
1204.436092	8860.000000
1205.633027	8853.000000
1206.829497	8676.666667
1208.025503	8765.666667
1209.221044	8713.333333
1210.416122	8764.666667
1211.610735	8700.666667
1212.804885	8747.666667
1213.998572	8575.000000
1215.191795	8710.000000
1216.384556	8563.000000
1217.576854	8619.000000
1218.768689	8561.000000
1219.960063	8661.666667
1221.150974	8591.000000
1222.341424	8629.000000
1223.531413	8554.666667
1224.720940	8567.000000
1225.910006	8669.333333
1227.098612	8676.333333
1228.286757	8623.666667
1229.474442	8676.333333
1230.661667	8735.000000
1231.848432	8697.666667
1233.034738	8700.333333
1234.220584	8796.333333
1235.405971	8781.666667
1236.590900	8772.666667
1237.775369	8856.333333
1238.959381	8905.333333
1240.142934	8862.000000
1241.326029	8826.333333
1242.508667	8853.666667
1243.690848	8821.333333
1244.872571	8871.333333
1246.053837	8833.666667
1247.234646	8864.666667
1248.414999	8788.666667
1249.594896	8763.000000
1250.774337	8754.666667
1251.953322	8692.333333
1253.131851	8733.000000
1254.309925	8640.666667
1255.487544	8708.333333
1256.664708	8713.333333
1257.841417	8707.666667
1259.017673	8663.666667
1260.193473	8645.333333
1261.368820	8668.000000
1262.543714	8703.666667
1263.718154	8740.333333
1264.892140	8678.333333
1266.065674	8712.000000
1267.238755	8692.333333
1268.411383	8666.333333
1269.583559	8618.666667
1270.755283	8662.000000
1271.926555	8736.666667
1273.097375	8713.666667
1274.267744	8684.000000
1275.437662	8596.000000
1276.607129	8678.333333
1277.776145	8588.000000
1278.944711	8605.666667
1280.112827	8643.666667
1281.280492	8536.333333
1282.447708	8566.666667
1283.614474	8470.000000
1284.780791	8474.333333
1285.946659	8469.666667
1287.112078	8426.000000
1288.277048	8437.666667
1289.441570	8347.000000
1290.605644	8286.333333
1291.769270	8263.333333
1292.932448	8225.000000
1294.095178	8331.333333
1295.257461	8298.666667
1296.419298	8105.000000
1297.580687	8174.333333
1298.741630	8188.333333
1299.902126	8181.666667
1301.062177	8189.000000
1302.221781	8136.000000
1303.380940	8145.333333
1304.539653	8256.000000
1305.697921	8184.000000
1306.855744	8200.666667
1308.013123	8178.000000
1309.170056	8187.666667
1310.326546	8204.000000
1311.482591	8165.000000
1312.638193	8237.333333
1313.793350	8189.333333
1314.948065	8125.666667
1316.102336	8140.666667
1317.256164	8131.000000
1318.409550	8125.666667
1319.562493	8133.000000
1320.714993	8147.000000
1321.867052	8054.666667
1323.018668	8080.000000
1324.169843	8043.333333
1325.320577	8017.333333
1326.470870	8008.000000
1327.620721	7964.000000
1328.770132	7966.666667
1329.919102	8014.666667
1331.067632	7998.666667
1332.215722	7950.000000
1333.363372	8067.333333
1334.510582	7990.333333
1335.657353	7988.666667
1336.803685	7983.000000
1337.949578	7966.000000
1339.095032	7974.333333
1340.240048	8085.000000
1341.384625	7917.000000
1342.528764	8026.000000
1343.672466	7970.666667
1344.815729	7980.333333
1345.958556	7913.666667
1347.100945	7978.000000
1348.242897	7889.333333
1349.384413	7939.666667
1350.525492	7957.000000
1351.666134	7881.333333
1352.806341	7877.000000
1353.946111	7841.666667
1355.085446	7859.000000
1356.224346	7728.333333
1357.362810	7715.333333
1358.500840	7760.666667
1359.638434	7711.333333
1360.775594	7747.333333
1361.912320	7728.666667
1363.048612	7729.666667
1364.184469	7720.666667
1365.319893	7669.000000
1366.454884	7599.666667
1367.589441	7755.000000
1368.723566	7633.333333
1369.857257	7719.333333
1370.990516	7703.000000
1372.123343	7725.333333
1373.255737	7706.000000
1374.387699	7715.666667
1375.519230	7674.000000
1376.650329	7730.666667
1377.780997	7740.666667
1378.911234	7719.333333
1380.041040	7676.333333
1381.170416	7683.333333
1382.299361	7694.666667
1383.427875	7704.000000
1384.555960	7678.666667
1385.683615	7694.666667
1386.810841	7636.333333
1387.937637	7699.666667
1389.064004	7639.666667
1390.189942	7606.333333
1391.315451	7621.333333
1392.440532	7672.000000
1393.565185	7584.333333
1394.689409	7592.333333
1395.813206	7520.666667
1396.936575	7591.666667
1398.059517	7502.000000
1399.182032	7529.000000
1400.304119	7524.333333
1401.425780	7515.000000
1402.547014	7514.333333
1403.667822	7511.666667
1404.788204	7501.000000
1405.908160	7422.333333
1407.027690	7534.000000
1408.146795	7432.333333
1409.265474	7458.000000
1410.383728	7440.333333
1411.501558	7482.000000
1412.618963	7521.000000
1413.735943	7514.000000
1414.852499	7490.666667
1415.968632	7593.333333
1417.084340	7439.333333
1418.199625	7477.666667
1419.314486	7443.666667
1420.428925	7499.333333
1421.542940	7503.666667
1422.656533	7483.000000
1423.769703	7467.666667
1424.882451	7477.666667
1425.994777	7471.666667
1427.106680	7416.000000
1428.218163	7385.333333
1429.329223	7362.333333
1430.439863	7344.666667
1431.550081	7322.333333
1432.659879	7315.333333
1433.769256	7347.333333
1434.878212	7352.666667
1435.986749	7274.000000
1437.094865	7353.333333
1438.202562	7385.666667
1439.309839	7297.000000
1440.416696	7392.333333
1441.523135	7328.666667
1442.629154	7376.333333
1443.734755	7465.000000
1444.839937	7506.000000
1445.944701	7434.666667
1447.049047	7486.333333
1448.152975	7521.666667
1449.256485	7577.000000
1450.359577	7482.666667
1451.462253	7496.666667
1452.564511	7468.333333
1453.666352	7504.666667
1454.767777	7453.333333
1455.868785	7502.333333
1456.969377	7471.666667
1458.069553	7388.666667
1459.169313	7407.666667
1460.268658	7386.000000
1461.367587	7374.000000
1462.466101	7294.666667
1463.564200	7316.333333
1464.661884	7256.000000
1465.759153	7224.000000
1466.856008	7214.333333
1467.952449	7130.333333
1469.048476	7193.333333
1470.144089	7091.666667
1471.239288	7032.666667
1472.334074	6985.000000
1473.428447	6930.000000
1474.522407	6848.333333
1475.615955	6892.666667
1476.709089	6843.333333
1477.801812	6846.000000
1478.894122	6707.000000
1479.986020	6729.333333
1481.077506	6693.000000
1482.168581	6705.333333
1483.259245	6615.666667
1484.349498	6642.000000
1485.439339	6566.333333
1486.528770	6687.666667
1487.617790	6648.333333
1488.706400	6602.666667
1489.794600	6552.000000
1490.882390	6581.666667
1491.969771	6582.333333
1493.056742	6549.666667
1494.143303	6639.333333
1495.229456	6558.000000
1496.315199	6578.333333
1497.400534	6586.666667
1498.485460	6473.666667
1499.569978	6508.333333
1500.654088	6486.333333
1501.737790	6433.333333
1502.821085	6460.666667
1503.903972	6421.000000
1504.986451	6503.666667
1506.068524	6452.333333
1507.150189	6365.000000
1508.231448	6398.000000
1509.312301	6383.333333
1510.392747	6397.333333
1511.472787	6355.666667
1512.552422	6349.333333
1513.631650	6360.000000
1514.710473	6405.333333
1515.788891	6385.666667
1516.866904	6346.666667
1517.944512	6380.666667
1519.021715	6388.666667
1520.098513	6370.333333
1521.174908	6337.000000
1522.250898	6428.000000
1523.326485	6343.666667
1524.401667	6458.000000
1525.476447	6427.666667
1526.550823	6461.333333
1527.624796	6436.666667
1528.698365	6480.333333
1529.771533	6518.666667
1530.844298	6422.000000
1531.916660	6420.000000
1532.988620	6498.333333
1534.060179	6449.666667
1535.131336	6418.333333
1536.202091	6435.333333
1537.272445	6471.000000
1538.342398	6378.000000
1539.411950	6381.666667
1540.481101	6382.666667
1541.549851	6345.000000
1542.618202	6326.666667
1543.686152	6354.000000
1544.753702	6317.333333
1545.820853	6278.666667
1546.887604	6280.666667
1547.953955	6213.000000
1549.019908	6255.333333
1550.085461	6244.000000
1551.150616	6225.000000
1552.215372	6205.666667
1553.279730	6180.333333
1554.343690	6186.333333
1555.407252	6199.333333
1556.470415	6160.666667
1557.533182	6159.333333
1558.595551	6117.000000
1559.657522	6055.000000
1560.719097	6129.333333
1561.780275	6043.666667
1562.841056	6151.666667
1563.901441	6094.000000
1564.961429	6049.333333
1566.021022	6130.333333
1567.080219	6046.666667
1568.139020	6084.666667
1569.197425	6091.000000
1570.255436	6057.333333
1571.313051	6042.666667
1572.370271	6049.666667
1573.427097	6021.333333
1574.483528	6082.666667
1575.539565	6009.333333
1576.595208	6020.333333
1577.650457	5950.666667
1578.705312	5942.333333
1579.759774	5978.000000
1580.813842	5918.666667
1581.867517	5913.666667
1582.920799	5845.666667
1583.973689	5896.000000
1585.026186	5908.000000
1586.078290	5857.666667
1587.130002	5845.333333
1588.181323	5877.333333
1589.232251	5814.000000
1590.282788	5821.000000
1591.332933	5909.000000
1592.382688	5868.666667
1593.432051	5841.333333
1594.481023	5875.666667
1595.529605	5790.666667
1596.577796	5900.666667
1597.625597	5913.666667
1598.673007	5944.333333
1599.720028	5879.000000
1600.766660	5965.666667
1601.812901	5941.000000
1602.858753	5944.000000
1603.904217	5979.666667
1604.949291	5920.000000
1605.993976	6003.333333
1607.038273	5967.000000
1608.082182	5958.000000
1609.125702	5944.666667
1610.168834	6028.333333
1611.211579	5996.000000
1612.253935	5954.000000
1613.295905	5949.333333
1614.337487	5917.666667
1615.378682	5900.000000
1616.419490	5947.000000
1617.459912	5837.666667
1618.499946	5903.000000
1619.539595	5897.333333
1620.578858	5844.000000
1621.617734	5856.000000
1622.656225	5972.000000
1623.694330	5823.666667
1624.732050	5830.333333
1625.769385	5856.000000
1626.806334	5833.333333
1627.842899	5893.333333
1628.879079	5891.666667
1629.914875	5854.000000
1630.950286	5916.000000
1631.985314	5858.666667
1633.019957	5889.000000
1634.054217	5881.333333
1635.088093	5895.666667
1636.121586	5861.666667
1637.154696	5929.666667
1638.187423	5852.333333
1639.219767	5895.000000
1640.251728	5976.000000
1641.283307	5950.666667
1642.314504	5933.333333
1643.345319	5946.666667
1644.375751	5887.000000
1645.405803	5890.666667
1646.435472	5947.333333
1647.464761	5909.666667
1648.493668	5954.000000
1649.522194	5946.000000
1650.550340	5933.000000
1651.578105	5905.000000
1652.605490	5927.333333
1653.632494	5962.666667
1654.659119	5870.000000
1655.685363	5922.000000
1656.711228	5920.000000
1657.736714	5939.000000
1658.761820	5869.333333
1659.786547	5830.333333
1660.810895	5821.333333
1661.834865	5885.000000
1662.858456	5734.666667
1663.881668	5790.666667
1664.904503	5765.000000
1665.926959	5802.000000
1666.949038	5742.333333
1667.970739	5714.000000
1668.992062	5706.000000
1670.013008	5720.333333
1671.033577	5684.666667
1672.053770	5667.000000
1673.073585	5606.333333
1674.093024	5613.333333
1675.112086	5712.333333
1676.130773	5560.333333
1677.149083	5607.666667
1678.167017	5632.333333
1679.184576	5587.333333
1680.201760	5603.000000
1681.218568	5619.333333
1682.235001	5597.000000
1683.251059	5540.666667
1684.266742	5557.000000
1685.282051	5588.333333
1686.296985	5557.333333
1687.311546	5569.000000
1688.325732	5521.666667
1689.339544	5471.666667
1690.352983	5511.333333
1691.366048	5485.666667
1692.378740	5404.000000
1693.391058	5375.333333
1694.403004	5381.666667
1695.414577	5369.333333
1696.425778	5306.666667
1697.436606	5318.000000
1698.447061	5327.333333
1699.457145	5289.000000
1700.466857	5253.000000
1701.476197	5236.666667
1702.485166	5221.000000
1703.493763	5189.666667
1704.501989	5242.333333
1705.509844	5206.666667
1706.517328	5177.666667
1707.524442	5203.000000
1708.531185	5174.000000
1709.537558	5187.666667
1710.543561	5259.333333
1711.549194	5184.666667
1712.554457	5171.000000
1713.559351	5184.666667
1714.563875	5209.666667
1715.568030	5202.666667
1716.571816	5246.666667
1717.575233	5225.000000
1718.578282	5217.666667
1719.580962	5280.000000
1720.583273	5254.333333
1721.585217	5263.000000
1722.586792	5270.333333
1723.588000	5320.000000
1724.588840	5265.333333
1725.589312	5333.333333
1726.589418	5345.000000
1727.589156	5417.333333
1728.588527	5400.333333
1729.587532	5358.000000
1730.586170	5382.333333
1731.584441	5381.666667
1732.582346	5384.666667
1733.579886	5365.333333
1734.577059	5355.333333
1735.573867	5362.333333
1736.570309	5429.333333
1737.566386	5324.333333
1738.562097	5321.333333
1739.557444	5376.000000
1740.552426	5306.000000
1741.547043	5356.000000
1742.541295	5312.333333
1743.535184	5296.000000
1744.528708	5299.333333
1745.521868	5289.666667
1746.514664	5263.333333
1747.507097	5231.666667
1748.499166	5225.000000
1749.490873	5227.000000
1750.482216	5280.000000
1751.473196	5219.333333
1752.463813	5165.666667
1753.454068	5210.666667
1754.443960	5238.000000
1755.433490	5191.000000
1756.422658	5131.666667
1757.411464	5118.333333
1758.399908	5172.333333
1759.387991	5143.333333
1760.375713	5134.000000
1761.363073	5070.666667
1762.350072	5113.000000
1763.336711	5068.333333
1764.322988	5056.000000
1765.308905	4976.000000
1766.294462	5047.000000
1767.279659	4990.000000
1768.264496	4955.666667
1769.248972	4971.666667
1770.233089	4922.666667
1771.216847	4888.666667
1772.200245	4907.000000
1773.183284	4831.000000
1774.165965	4868.333333
1775.148286	4779.666667
1776.130249	4803.333333
1777.111853	4712.000000
1778.093099	4750.666667
1779.073987	4725.000000
1780.054517	4700.000000
1781.034689	4606.333333
1782.014503	4614.666667
1782.993960	4661.666667
1783.973060	4611.000000
1784.951802	4590.666667
1785.930188	4583.666667
1786.908217	4538.000000
1787.885889	4517.000000
1788.863205	4499.000000
1789.840164	4491.666667
1790.816768	4443.666667
1791.793015	4466.666667
1792.768907	4439.333333
1793.744443	4488.666667
1794.719624	4442.333333
1795.694449	4475.666667
1796.668919	4522.000000
1797.643035	4500.666667
1798.616795	4469.333333
1799.590201	4507.000000
1800.563253	4481.333333
1801.535950	4450.666667
1802.508294	4493.333333
1803.480283	4548.000000
1804.451919	4535.666667
1805.423201	4541.000000
1806.394129	4536.333333
1807.364705	4534.000000
1808.334927	4548.333333
1809.304796	4647.000000
1810.274313	4592.666667
1811.243477	4617.000000
1812.212288	4570.333333
1813.180747	4626.000000
1814.148855	4628.666667
1815.116610	4662.666667
1816.084013	4678.000000
1817.051065	4702.333333
1818.017766	4725.666667
1818.984115	4705.000000
1819.950113	4692.000000
1820.915760	4705.333333
1821.881057	4731.000000
1822.846003	4791.333333
1823.810598	4729.333333
1824.774843	4760.666667
1825.738738	4711.333333
1826.702283	4733.000000
1827.665479	4748.000000
1828.628324	4757.333333
1829.590821	4748.333333
1830.552968	4783.666667
1831.514765	4676.333333
1832.476214	4791.666667
1833.437314	4771.666667
1834.398066	4743.000000
1835.358469	4705.333333
1836.318524	4719.333333
1837.278230	4692.333333
1838.237589	4704.333333
1839.196600	4668.333333
1840.155263	4655.666667
1841.113578	4618.666667
1842.071547	4655.000000
1843.029168	4638.333333
1843.986442	4569.666667
1844.943369	4572.333333
1845.899950	4576.333333
1846.856184	4567.333333
1847.812072	4500.666667
1848.767614	4501.666667
1849.722809	4457.333333
1850.677659	4441.333333
1851.632163	4413.333333
1852.586322	4442.666667
1853.540135	4403.333333
1854.493603	4357.000000
1855.446726	4362.333333
1856.399504	4342.000000
1857.351937	4319.666667
1858.304026	4313.000000
1859.255770	4298.333333
1860.207170	4250.666667
1861.158227	4226.000000
1862.108939	4232.666667
1863.059307	4182.666667
1864.009332	4114.333333
1864.959013	4107.333333
1865.908351	4111.000000
1866.857346	4127.000000
1867.805998	4041.333333
1868.754307	4086.666667
1869.702274	4087.666667
1870.649898	4028.333333
1871.597180	4028.333333
1872.544119	3977.333333
1873.490717	3985.666667
1874.436973	4021.666667
1875.382887	3985.000000
1876.328459	3995.000000
1877.273691	3991.666667
1878.218581	3937.000000
1879.163130	3933.666667
1880.107338	3951.666667
1881.051205	4019.666667
1881.994732	3968.333333
1882.937919	4019.333333
1883.880765	4038.333333
1884.823271	4037.000000
1885.765437	4002.000000
1886.707264	3977.333333
1887.648750	3989.000000
1888.589898	4007.333333
1889.530706	4085.333333
1890.471175	4081.333333
1891.411305	4060.000000
1892.351096	4060.666667
1893.290548	4111.333333
1894.229662	4135.666667
1895.168438	4100.666667
1896.106876	4123.333333
1897.044975	4164.333333
1897.982737	4099.000000
1898.920160	4092.000000
1899.857247	4102.000000
1900.793996	4128.666667
1901.730407	4069.333333
1902.666482	4136.333333
1903.602219	4086.000000
1904.537620	4080.000000
1905.472685	4013.333333
1906.407412	4071.333333
1907.341804	3967.000000
1908.275859	4032.000000
1909.209579	3976.000000
1910.142962	3961.000000
1911.076010	3916.333333
1912.008722	3904.333333
1912.941099	3954.333333
1913.873141	3866.666667
1914.804848	3842.666667
1915.736219	3816.333333
1916.667256	3787.666667
1917.597959	3764.333333
1918.528327	3749.000000
1919.458360	3745.333333
1920.388060	3770.000000
1921.317426	3699.000000
1922.246457	3717.666667
1923.175156	3706.333333
1924.103520	3669.666667
1925.031552	3741.000000
1925.959250	3683.000000
1926.886615	3659.333333
1927.813647	3622.000000
1928.740346	3624.333333
1929.666713	3613.666667
1930.592748	3622.666667
1931.518450	3602.000000
1932.443820	3614.666667
1933.368858	3622.333333
1934.293564	3574.333333
1935.217939	3573.333333
1936.141982	3575.333333
1937.065694	3553.333333
1937.989074	3535.333333
1938.912124	3584.666667
1939.834842	3528.666667
1940.757230	3525.666667
1941.679287	3555.000000
1942.601014	3539.666667
1943.522411	3442.000000
1944.443477	3488.000000
1945.364214	3481.333333
1946.284621	3484.333333
1947.204698	3453.666667
1948.124445	3423.333333
1949.043863	3444.666667
1949.962952	3379.666667
1950.881712	3426.333333
1951.800143	3393.666667
1952.718245	3377.666667
1953.636019	3387.666667
1954.553464	3378.666667
1955.470581	3379.000000
1956.387369	3323.000000
1957.303830	3342.333333
1958.219963	3382.666667
1959.135768	3420.333333
1960.051246	3388.666667
1960.966396	3353.666667
1961.881219	3392.666667
1962.795715	3427.333333
1963.709883	3420.000000
1964.623726	3476.000000
1965.537241	3420.333333
1966.450430	3426.000000
1967.363293	3451.333333
1968.275829	3431.000000
1969.188040	3435.000000
1970.099924	3412.333333
1971.011483	3444.000000
1971.922716	3409.333333
1972.833624	3442.666667
1973.744206	3443.333333
1974.654464	3459.000000
1975.564396	3429.666667
1976.474004	3413.000000
1977.383286	3441.333333
1978.292245	3427.666667
1979.200878	3429.666667
1980.109188	3395.666667
1981.017174	3426.000000
1981.924835	3372.333333
1982.832173	3370.333333
1983.739187	3286.000000
1984.645878	3342.000000
1985.552245	3297.666667
1986.458289	3257.000000
1987.364010	3274.666667
1988.269408	3248.333333
1989.174484	3219.666667
1990.079236	3223.333333
1990.983667	3199.333333
1991.887775	3118.666667
1992.791561	3175.333333
1993.695024	3122.666667
1994.598166	3132.333333
1995.500986	3096.000000
1996.403485	3054.000000
1997.305662	3041.666667
1998.207518	3072.000000
1999.109053	3042.000000
