200.151048	31042.333333
201.758777	31034.000000
203.365815	31124.333333
204.972162	30979.000000
206.577820	30972.000000
208.182787	30925.000000
209.787065	30920.666667
211.390653	30754.000000
212.993553	30795.000000
214.595765	30682.333333
216.197289	30637.666667
217.798125	30689.333333
219.398274	30591.000000
220.997737	30591.666667
222.596513	30611.333333
224.194603	30598.000000
225.792008	30578.333333
227.388728	30434.666667
228.984763	30490.666667
230.580114	30407.000000
232.174781	30553.333333
233.768765	30393.333333
235.362065	30420.333333
236.954683	30455.333333
238.546619	30281.666667
240.137872	30210.333333
241.728445	30182.333333
243.318336	30134.666667
244.907546	29977.666667
246.496076	30215.000000
248.083926	30082.000000
249.671097	29798.666667
251.257589	29851.333333
252.843402	29821.333333
254.428536	29719.666667
256.012993	29765.000000
257.596772	29584.666667
259.179874	29505.666667
260.762300	29652.333333
262.344049	29485.666667
263.925122	29417.333333
265.505519	29446.000000
267.085241	29459.000000
268.664289	29353.666667
270.242662	29391.333333
271.820361	29445.333333
273.397387	29410.666667
274.973740	29535.000000
276.549419	29424.333333
278.124426	29689.666667
279.698762	29453.666667
281.272425	29618.000000
282.845417	29568.000000
284.417739	29589.666667
285.989390	29715.000000
287.560371	29628.000000
289.130682	29715.333333
290.700324	29757.333333
292.269297	29800.000000
293.837602	29634.333333
295.405238	29576.000000
296.972207	29670.666667
298.538508	29645.333333
300.104142	29758.666667
301.669110	29522.333333
303.233411	29439.666667
304.797047	29463.666667
306.360017	29365.000000
307.922322	29268.000000
309.483963	29213.000000
311.044939	29169.000000
312.605252	29039.333333
314.164900	29082.000000
315.723886	29030.000000
317.282209	28945.333333
318.839870	28824.333333
320.396868	29005.666667
321.953205	28644.000000
323.508881	28808.333333
325.063896	28666.666667
326.618251	28824.666667
328.171945	28655.666667
329.724980	28686.333333
331.277356	28649.333333
332.829072	28700.000000
334.380131	28719.666667
335.930530	28694.333333
337.480273	28683.666667
339.029357	28817.666667
340.577785	28785.333333
342.125556	28768.000000
343.672671	28704.666667
345.219130	28798.666667
346.764933	28871.333333
348.310081	28816.666667
349.854575	28815.000000
351.398414	28655.666667
352.941599	28658.666667
354.484130	28588.666667
356.026008	28610.333333
357.567234	28549.000000
359.107807	28632.666667
360.647727	28592.000000
362.186996	28368.666667
363.725614	28511.666667
365.263580	28502.000000
366.800896	28502.000000
368.337562	28386.333333
369.873578	28284.666667
371.408944	28370.666667
372.943661	28551.000000
374.477730	28278.333333
376.011150	28390.000000
377.543922	28407.666667
379.076046	28433.666667
380.607523	28449.000000
382.138353	28271.666667
383.668537	28420.333333
385.198075	28365.000000
386.726966	28471.666667
388.255213	28505.333333
389.782814	28383.000000
391.309770	28517.333333
392.836083	28561.000000
394.361751	28409.000000
395.886776	28557.666667
397.411157	28595.000000
398.934896	28581.666667
400.457992	28578.000000
401.980446	28641.333333
403.502258	28553.333333
405.023429	28498.666667
406.543959	28757.666667
408.063849	28767.666667
409.583098	28979.666667
411.101707	28931.333333
412.619677	28951.666667
414.137007	29039.666667
415.653699	29261.666667
417.169752	29303.333333
418.685167	29421.333333
420.199945	29523.666667
421.714085	29850.000000
423.227588	29877.333333
424.740454	29904.666667
426.252684	30091.000000
427.764279	30058.666667
429.275238	30072.000000
430.785561	29952.000000
432.295250	29887.333333
433.804304	29809.666667
435.312725	29737.666667
436.820511	29649.000000
438.327664	29332.666667
439.834185	29266.666667
441.340072	29137.666667
442.845327	29098.333333
444.349951	28978.000000
445.853942	28978.333333
447.357303	28933.666667
448.860033	28735.666667
450.362132	28856.666667
451.863601	28670.333333
453.364440	28447.666667
454.864650	28414.666667
456.364231	28409.000000
457.863183	28291.000000
459.361507	28224.666667
460.859203	28100.666667
462.356271	27957.666667
463.852712	27801.000000
465.348526	27715.666667
466.843714	27599.000000
468.338275	27598.666667
469.832210	27639.333333
471.325520	27399.333333
472.818205	27621.666667
474.310265	27261.666667
475.801700	27410.000000
477.292512	27332.000000
478.782700	27405.000000
480.272264	27254.333333
481.761205	27323.000000
483.249524	27208.666667
484.737221	27293.666667
486.224295	27202.666667
487.710748	27142.000000
489.196579	27129.333333
490.681790	27052.333333
492.166380	27104.000000
493.650350	27091.000000
495.133700	26967.333333
496.616431	26956.666667
498.098542	27025.666667
499.580035	26919.666667
501.060909	27035.000000
502.541165	26770.666667
504.020804	26944.333333
505.499825	26995.000000
506.978228	26897.666667
508.456016	26784.666667
509.933186	26598.000000
511.409741	26666.333333
512.885680	26650.000000
514.361004	26661.666667
515.835713	26848.000000
517.309807	26735.666667
518.783287	26697.333333
520.256153	26692.666667
521.728406	26500.666667
523.200045	26721.333333
524.671071	26565.000000
526.141485	26601.666667
527.611287	26635.333333
529.080476	26616.333333
530.549054	26651.666667
532.017021	26615.000000
533.484378	26601.333333
534.951123	26512.000000
536.417259	26549.666667
537.882785	26526.666667
539.347701	26597.666667
540.812008	26392.000000
542.275707	26575.666667
543.738797	26415.000000
545.201279	26408.000000
546.663153	26576.666667
548.124420	26536.666667
549.585080	26585.333333
551.045133	26633.000000
552.504579	26576.666667
553.963420	26547.333333
555.421655	26787.666667
556.879285	26733.333333
558.336309	26786.333333
559.792729	26717.000000
561.248545	26883.000000
562.703756	26637.000000
564.158364	26757.333333
565.612369	26976.000000
567.065770	26822.000000
568.518569	27046.333333
569.970766	27171.333333
571.422361	27198.000000
572.873354	27075.000000
574.323745	27041.666667
575.773536	27362.666667
577.222726	27369.333333
578.671316	27400.666667
580.119306	27369.666667
581.566696	27428.000000
583.013487	27344.333333
584.459679	27463.333333
585.905273	27227.333333
587.350268	27146.666667
588.794665	27236.333333
590.238465	27240.333333
591.681667	27105.666667
593.124272	27141.333333
594.566281	26825.333333
596.007694	26807.666667
597.448510	26805.000000
598.888731	26626.333333
600.328357	26528.666667
601.767388	26430.000000
603.205824	26425.333333
604.643666	26355.666667
606.080914	26487.333333
607.517568	26412.666667
608.953629	26456.000000
610.389097	26462.666667
611.823972	26309.000000
613.258255	26456.000000
614.691946	26182.333333
616.125046	26399.666667
617.557554	25929.666667
618.989471	26000.000000
620.420798	25690.666667
621.851534	25660.666667
623.281680	25612.666667
624.711237	25463.000000
626.140204	25241.666667
627.568582	25248.333333
628.996372	25354.000000
630.423573	25197.333333
631.850186	25141.333333
633.276211	25067.000000
634.701650	25119.000000
636.126501	25003.000000
637.550765	25046.000000
638.974443	24967.333333
640.397535	24957.000000
641.820041	24865.000000
643.241961	24902.333333
644.663297	24962.333333
646.084048	24871.000000
647.504214	24803.000000
648.923796	24703.333333
650.342795	24934.000000
651.761210	24766.000000
653.179041	24877.333333
654.596290	24707.666667
656.012957	24648.666667
657.429041	24702.666667
658.844543	24600.333333
660.259464	24657.333333
661.673804	24719.666667
663.087563	24693.333333
664.500741	24548.333333
665.913339	24591.000000
667.325357	24558.666667
668.736795	24578.666667
670.147654	24482.333333
671.557934	24668.333333
672.967636	24471.333333
674.376759	24564.000000
675.785304	24454.333333
677.193271	24483.666667
678.600661	24392.333333
680.007474	24430.000000
681.413711	24314.333333
682.819370	24260.000000
684.224454	24440.666667
685.628962	24296.000000
687.032895	24370.000000
688.436252	24298.000000
689.839034	24284.000000
691.241242	24181.666667
692.642876	24261.333333
694.043936	24109.333333
695.444422	24105.666667
696.844336	24040.000000
698.243676	24119.666667
699.642443	24016.000000
701.040639	24012.666667
702.438262	24019.333333
703.835313	24215.333333
705.231794	24146.666667
706.627703	24034.000000
708.023041	23978.666667
709.417810	24046.333333
710.812008	23952.000000
712.205636	23897.000000
713.598694	23988.333333
714.991184	24054.333333
716.383105	23830.000000
717.774457	23995.000000
719.165241	23820.333333
720.555457	23829.666667
721.945105	23777.333333
723.334187	23804.666667
724.722701	23868.666667
726.110648	23756.000000
727.498030	23687.333333
728.884845	23750.333333
730.271094	23724.333333
731.656778	23734.000000
733.041897	23644.666667
734.426451	23759.666667
735.810441	23751.333333
737.193866	23777.000000
738.576728	23690.000000
739.959026	23620.666667
741.340760	23543.666667
742.721932	23637.000000
744.102541	23636.000000
745.482588	23524.333333
746.862073	23582.333333
748.240996	23595.000000
749.619358	23501.666667
750.997158	23683.333333
752.374398	23639.333333
753.751077	23600.000000
755.127197	23601.000000
756.502756	23634.666667
757.877756	23496.666667
759.252196	23517.000000
760.626078	23480.000000
761.999400	23521.666667
763.372165	23350.666667
764.744371	23501.666667
766.116020	23455.000000
767.487111	23439.000000
768.857646	23181.000000
770.227623	23427.333333
771.597044	23262.000000
772.965908	23316.333333
774.334217	23247.000000
775.701970	23264.000000
777.069168	23236.666667
778.435811	23134.666667
779.801899	23110.000000
781.167433	23057.333333
782.532412	23105.333333
783.896838	23126.000000
785.260710	22961.666667
786.624029	23057.666667
787.986796	23131.000000
789.349009	22925.000000
790.710671	22943.666667
792.071780	23022.333333
793.432338	22958.333333
794.792344	23003.333333
796.151799	22927.333333
797.510704	22874.666667
798.869058	22810.666667
800.226862	22921.333333
801.584116	22775.666667
802.940820	22709.666667
804.296975	22820.666667
805.652581	22845.000000
807.007638	22761.666667
808.362147	22801.666667
809.716108	22871.000000
811.069521	22794.666667
812.422387	22826.333333
813.774705	22741.666667
815.126476	22788.666667
816.477701	22815.333333
817.828380	22744.000000
819.178512	22695.666667
820.528099	22757.000000
821.877140	22683.666667
823.225637	22604.666667
824.573588	22741.333333
825.920995	22606.333333
827.267857	22485.333333
828.614176	22672.333333
829.959951	22572.000000
831.305183	22553.000000
832.649871	22458.333333
833.994017	22577.333333
835.337620	22576.333333
836.680681	22492.000000
838.023201	22536.666667
839.365178	22464.333333
840.706614	22516.000000
842.047510	22543.333333
843.387864	22480.666667
844.727678	22589.666667
846.066952	22416.333333
847.405687	22627.333333
848.743881	22624.666667
850.081537	22663.000000
851.418653	22695.333333
852.755231	22613.666667
854.091270	22720.333333
855.426771	22766.333333
856.761735	22516.333333
858.096160	22558.000000
859.430049	22429.000000
860.763401	22392.333333
862.096216	22472.333333
863.428495	22280.666667
864.760237	22354.333333
866.091444	22270.666667
867.422115	22306.333333
868.752252	22188.000000
870.081853	22055.333333
871.410919	22315.666667
872.739452	22078.000000
874.067450	22146.666667
875.394914	22108.666667
876.721845	22109.333333
878.048243	22120.666667
879.374108	22040.666667
880.699440	21909.666667
882.024240	21893.666667
883.348508	21908.000000
884.672244	21887.666667
885.995449	21844.000000
887.318122	21768.666667
888.640265	21810.000000
889.961877	21651.333333
891.282959	21699.333333
892.603510	21668.333333
893.923532	21695.333333
895.243024	21642.000000
896.561987	21543.666667
897.880422	21436.000000
899.198327	21446.000000
900.515705	21560.666667
901.832554	21485.666667
903.148875	21509.666667
904.464669	21324.000000
905.779936	21436.000000
907.094676	21616.000000
908.408889	21547.666667
909.722576	21591.000000
911.035737	21600.666667
912.348371	21631.000000
913.660481	21701.666667
914.972065	21652.333333
916.283124	21589.000000
917.593659	21815.333333
918.903669	21700.000000
920.213155	21845.333333
921.522117	21839.000000
922.830556	21778.666667
924.138471	21662.000000
925.445864	21794.666667
926.752733	21763.333333
928.059081	21668.666667
929.364906	21768.333333
930.670209	21888.333333
931.974991	21934.666667
933.279251	21990.000000
934.582990	22013.333333
935.886209	22141.000000
937.188907	22215.333333
938.491085	22339.000000
939.792743	22540.333333
941.093881	22645.333333
942.394500	22906.666667
943.694600	23160.666667
944.994181	23478.333333
946.293243	24008.000000
947.591787	24293.000000
948.889813	24967.333333
950.187322	25538.333333
951.484313	26172.666667
952.780787	26833.000000
954.076744	27859.333333
955.372184	28480.666667
956.667108	29113.333333
957.961516	29339.666667
959.255409	29410.333333
960.548785	28943.666667
961.841647	28536.000000
963.133993	27701.333333
964.425825	26840.000000
965.717142	25657.333333
967.007946	24945.333333
968.298235	24173.666667
969.588011	23417.333333
970.877273	22895.333333
972.166023	22167.666667
973.454259	21968.666667
974.741984	21714.666667
976.029196	21201.333333
977.315895	20976.666667
978.602084	20902.333333
979.887761	20630.666667
981.172926	20736.333333
982.457581	20660.333333
983.741725	20417.666667
985.025359	20528.333333
986.308483	20445.333333
987.591097	20311.000000
988.873202	20207.666667
990.154797	20255.000000
991.435883	20327.333333
992.716461	20282.333333
993.996530	20092.000000
995.276091	20183.333333
996.555144	20276.333333
997.833690	20276.666667
999.111728	20379.000000
1000.389259	20564.333333
1001.666283	20461.333333
1002.942800	20508.333333
1004.218812	20414.666667
1005.494317	20449.333333
1006.769317	20377.000000
1008.043811	20260.333333
1009.317799	20139.666667
1010.591283	20201.333333
1011.864263	20384.333333
1013.136737	20337.666667
1014.408708	20348.333333
1015.680175	20245.666667
1016.951138	20221.333333
1018.221598	20267.666667
1019.491554	20251.000000
1020.761008	20314.333333
1022.029959	20371.333333
1023.298408	20264.333333
1024.566355	20300.333333
1025.833800	20289.666667
1027.100744	20362.333333
1028.367187	20372.333333
1029.633128	20317.666667
1030.898569	20485.666667
1032.163509	20368.000000
1033.427949	20204.000000
1034.691890	20286.333333
1035.955330	20412.666667
1037.218271	20255.333333
1038.480714	20457.000000
1039.742657	20310.000000
1041.004101	20441.666667
1042.265048	20532.333333
1043.525496	20484.666667
1044.785446	20380.333333
1046.044899	20362.333333
1047.303855	20439.333333
1048.562313	20266.333333
1049.820275	20250.333333
1051.077740	20155.000000
1052.334709	19955.666667
1053.591182	20165.333333
1054.847160	20015.666667
1056.102641	20087.333333
1057.357628	20121.666667
1058.612120	20153.333333
1059.866117	20231.000000
1061.119619	20143.000000
1062.372628	20185.000000
1063.625142	20268.333333
1064.877163	20371.333333
1066.128691	20345.333333
1067.379725	20394.666667
1068.630267	20434.333333
1069.880316	20308.000000
1071.129872	20242.666667
1072.378937	20189.333333
1073.627509	20110.666667
1074.875590	19922.666667
1076.123180	20122.000000
1077.370279	19905.666667
1078.616887	19670.333333
1079.863004	19762.666667
1081.108631	19580.000000
1082.353768	19582.333333
1083.598415	19354.666667
1084.842573	19445.000000
1086.086241	19265.333333
1087.329421	19232.666667
1088.572111	19223.000000
1089.814314	19020.000000
1091.056028	18965.333333
1092.297253	18971.000000
1093.537992	19027.000000
1094.778242	18899.666667
1096.018006	18971.000000
1097.257282	18899.000000
1098.496072	18833.666667
1099.734376	18842.000000
1100.972193	18950.333333
1102.209524	18778.666667
1103.446370	18780.666667
1104.682730	18678.666667
1105.918604	18778.666667
1107.153994	18564.333333
1108.388900	18601.666667
1109.623320	18612.333333
1110.857257	18414.666667
1112.090710	18546.666667
1113.323679	18454.333333
1114.556164	18367.666667
1115.788167	18405.666667
1117.019686	18343.333333
1118.250723	18322.000000
1119.481278	18212.000000
1120.711350	18217.666667
1121.940940	18299.666667
1123.170049	18351.666667
1124.398676	18322.000000
1125.626823	18131.666667
1126.854488	18117.333333
1128.081672	18145.666667
1129.308376	18213.666667
1130.534600	18191.000000
1131.760345	18098.000000
1132.985609	18097.333333
1134.210394	18153.000000
1135.434700	18177.666667
1136.658527	17973.333333
1137.881875	18136.666667
1139.104745	18078.333333
1140.327136	18109.666667
1141.549050	18039.333333
1142.770486	18010.333333
1143.991445	18076.000000
1145.211926	18125.333333
1146.431931	17962.666667
1147.651459	18135.000000
1148.870510	18070.000000
1150.089086	17957.333333
1151.307185	17948.666667
1152.524808	17917.000000
1153.741957	18035.666667
1154.958630	17904.666667
1156.174828	17874.333333
1157.390551	17960.000000
1158.605800	17769.000000
1159.820574	17881.333333
1161.034875	17979.333333
1162.248702	17951.333333
1163.462055	17851.666667
1164.674936	17898.666667
1165.887343	17896.333333
1167.099277	17914.000000
1168.310739	17845.666667
1169.521729	17853.000000
1170.732247	17872.666667
1171.942293	17883.000000
1173.151867	17907.000000
1174.360970	18002.333333
1175.569602	17796.000000
1176.777764	17882.333333
1177.985454	17727.000000
1179.192675	17831.666667
1180.399425	17835.666667
1181.605706	17677.666667
1182.811517	17662.666667
1184.016859	17721.000000
1185.221731	17705.333333
1186.426135	17506.333333
1187.630070	17618.333333
1188.833537	17481.666667
1190.036535	17365.000000
1191.239066	17603.333333
1192.441129	17428.000000
1193.642725	17405.666667
1194.843853	17366.333333
1196.044515	17399.333333
1197.244710	17497.666667
1198.444438	17404.000000
1199.643701	17433.333333
1200.842497	17385.666667
1202.040827	17407.000000
1203.238693	17441.000000
1204.436092	17440.666667
1205.633027	17437.000000
1206.829497	17301.333333
1208.025503	17359.666667
1209.221044	17393.000000
1210.416122	17367.666667
1211.610735	17297.000000
1212.804885	17238.666667
1213.998572	17228.333333
1215.191795	17179.000000
1216.384556	17121.000000
1217.576854	17041.333333
1218.768689	17031.333333
1219.960063	17063.666667
1221.150974	16926.666667
1222.341424	16976.000000
1223.531413	16874.000000
1224.720940	16981.000000
1225.910006	17118.666667
1227.098612	17103.333333
1228.286757	17117.333333
1229.474442	17069.000000
1230.661667	17084.333333
1231.848432	17373.333333
1233.034738	17289.333333
1234.220584	17247.000000
1235.405971	17254.000000
1236.590900	17428.333333
1237.775369	17437.000000
1238.959381	17445.000000
1240.142934	17368.000000
1241.326029	17492.333333
1242.508667	17426.000000
1243.690848	17532.666667
1244.872571	17262.000000
1246.053837	17270.000000
1247.234646	17449.333333
1248.414999	17340.666667
1249.594896	17370.666667
1250.774337	17212.333333
1251.953322	17165.333333
1253.131851	17289.666667
1254.309925	17153.666667
1255.487544	17240.333333
1256.664708	17117.666667
1257.841417	17121.000000
1259.017673	17008.333333
1260.193473	17138.333333
1261.368820	17141.333333
1262.543714	17082.333333
1263.718154	17123.666667
1264.892140	17087.000000
1266.065674	17034.666667
1267.238755	17214.000000
1268.411383	17076.666667
1269.583559	17142.666667
1270.755283	17166.000000
1271.926555	17072.666667
1273.097375	17153.333333
1274.267744	17207.000000
1275.437662	17077.000000
1276.607129	17034.000000
1277.776145	16917.000000
1278.944711	16953.000000
1280.112827	16931.000000
1281.280492	16876.666667
1282.447708	16931.000000
1283.614474	16806.333333
1284.780791	16751.000000
1285.946659	16727.000000
1287.112078	16717.333333
1288.277048	16685.666667
1289.441570	16626.666667
1290.605644	16548.333333
1291.769270	16547.666667
1292.932448	16443.333333
1294.095178	16506.000000
1295.257461	16319.666667
1296.419298	16362.000000
1297.580687	16385.000000
1298.741630	16335.333333
1299.902126	16267.333333
1301.062177	16362.000000
1302.221781	16330.666667
1303.380940	16339.666667
1304.539653	16274.333333
1305.697921	16288.000000
1306.855744	16241.000000
1308.013123	16380.333333
1309.170056	16246.333333
1310.326546	16306.666667
1311.482591	16305.000000
1312.638193	16239.000000
1313.793350	16226.000000
1314.948065	16300.000000
1316.102336	16349.666667
1317.256164	16213.666667
1318.409550	16216.666667
1319.562493	16202.000000
1320.714993	16156.333333
1321.867052	16100.333333
1323.018668	16094.000000
1324.169843	16100.333333
1325.320577	16114.333333
1326.470870	15964.333333
1327.620721	15858.666667
1328.770132	15801.333333
1329.919102	15888.666667
1331.067632	15932.000000
1332.215722	16018.666667
1333.363372	15905.333333
1334.510582	15923.666667
1335.657353	15877.000000
1336.803685	15875.666667
1337.949578	15906.666667
1339.095032	15995.333333
1340.240048	15958.000000
1341.384625	15999.333333
1342.528764	15990.666667
1343.672466	15897.000000
1344.815729	15998.333333
1345.958556	15956.000000
1347.100945	15931.000000
1348.242897	15915.666667
1349.384413	15847.333333
1350.525492	15811.000000
1351.666134	15789.666667
1352.806341	15849.666667
1353.946111	15811.666667
1355.085446	15730.666667
1356.224346	15684.000000
1357.362810	15640.333333
1358.500840	15715.333333
1359.638434	15767.333333
1360.775594	15584.666667
1361.912320	15722.333333
1363.048612	15622.000000
1364.184469	15600.666667
1365.319893	15672.000000
1366.454884	15609.333333
1367.589441	15712.000000
1368.723566	15625.666667
1369.857257	15606.333333
1370.990516	15619.333333
1372.123343	15689.333333
1373.255737	15682.666667
1374.387699	15692.333333
1375.519230	15711.000000
1376.650329	15719.333333
1377.780997	15686.000000
1378.911234	15646.666667
1380.041040	15668.666667
1381.170416	15617.333333
1382.299361	15620.666667
1383.427875	15536.666667
1384.555960	15616.666667
1385.683615	15590.666667
1386.810841	15475.333333
1387.937637	15358.333333
1389.064004	15438.333333
1390.189942	15470.333333
1391.315451	15446.000000
1392.440532	15422.666667
1393.565185	15407.000000
1394.689409	15260.666667
1395.813206	15250.333333
1396.936575	15284.000000
1398.059517	15229.333333
1399.182032	15038.333333
1400.304119	15127.333333
1401.425780	15153.000000
1402.547014	15040.333333
1403.667822	15088.666667
1404.788204	15113.333333
1405.908160	15005.666667
1407.027690	15127.333333
1408.146795	14962.333333
1409.265474	14951.000000
1410.383728	14991.000000
1411.501558	14953.333333
1412.618963	15085.000000
1413.735943	15013.333333
1414.852499	14969.666667
1415.968632	15028.333333
1417.084340	15014.333333
1418.199625	15110.333333
1419.314486	15047.333333
1420.428925	14928.000000
1421.542940	15028.333333
1422.656533	15034.666667
1423.769703	14940.666667
1424.882451	14906.666667
1425.994777	14896.666667
1427.106680	14920.666667
1428.218163	14803.333333
1429.329223	14787.666667
1430.439863	14790.000000
1431.550081	14690.000000
1432.659879	14655.333333
1433.769256	14748.333333
1434.878212	14647.333333
1435.986749	14622.000000
1437.094865	14679.666667
1438.202562	14607.333333
1439.309839	14730.666667
1440.416696	14663.000000
1441.523135	14704.000000
1442.629154	14735.666667
1443.734755	14728.666667
1444.839937	14817.666667
1445.944701	14745.333333
1447.049047	14851.333333
1448.152975	14778.000000
1449.256485	14782.666667
1450.359577	14812.333333
1451.462253	14674.333333
1452.564511	14746.666667
1453.666352	14698.000000
1454.767777	14754.333333
1455.868785	14578.000000
1456.969377	14625.333333
1458.069553	14611.333333
1459.169313	14469.666667
1460.268658	14569.000000
1461.367587	14640.333333
1462.466101	14475.333333
1463.564200	14490.666667
1464.661884	14302.000000
1465.759153	14322.333333
1466.856008	14303.333333
1467.952449	14185.000000
1469.048476	14165.333333
1470.144089	14187.666667
1471.239288	14051.666667
1472.334074	13994.333333
1473.428447	13833.000000
1474.522407	13878.666667
1475.615955	13825.666667
1476.709089	13784.333333
1477.801812	13795.666667
1478.894122	13658.666667
1479.986020	13654.333333
1481.077506	13682.666667
1482.168581	13697.000000
1483.259245	13654.000000
1484.349498	13678.000000
1485.439339	13681.666667
1486.528770	13692.000000
1487.617790	13661.666667
1488.706400	13561.000000
1489.794600	13648.666667
1490.882390	13629.333333
1491.969771	13642.000000
1493.056742	13527.666667
1494.143303	13593.333333
1495.229456	13532.000000
1496.315199	13642.333333
1497.400534	13521.000000
1498.485460	13561.333333
1499.569978	13378.666667
1500.654088	13499.000000
1501.737790	13329.333333
1502.821085	13449.000000
1503.903972	13377.333333
1504.986451	13301.000000
1506.068524	13282.000000
1507.150189	13290.333333
1508.231448	13235.000000
1509.312301	13059.666667
1510.392747	13116.000000
1511.472787	13093.666667
1512.552422	13021.333333
1513.631650	13075.000000
1514.710473	13066.000000
1515.788891	13041.000000
1516.866904	12969.666667
1517.944512	13047.333333
1519.021715	13112.666667
1520.098513	13088.333333
1521.174908	12967.666667
1522.250898	13035.666667
1523.326485	13074.666667
1524.401667	12980.333333
1525.476447	12903.000000
1526.550823	12968.666667
1527.624796	13026.000000
1528.698365	12962.666667
1529.771533	12941.000000
1530.844298	12896.333333
1531.916660	12954.000000
1532.988620	12907.666667
1534.060179	12877.666667
1535.131336	12855.666667
1536.202091	12878.333333
1537.272445	12860.666667
1538.342398	12781.333333
1539.411950	12788.333333
1540.481101	12775.666667
1541.549851	12707.000000
1542.618202	12741.666667
1543.686152	12596.000000
1544.753702	12642.000000
1545.820853	12529.000000
1546.887604	12636.666667
1547.953955	12477.666667
1549.019908	12536.000000
1550.085461	12486.000000
1551.150616	12384.666667
1552.215372	12485.000000
1553.279730	12413.666667
1554.343690	12552.666667
1555.407252	12423.333333
1556.470415	12428.333333
1557.533182	12402.000000
1558.595551	12422.000000
1559.657522	12363.000000
1560.719097	12359.666667
1561.780275	12355.333333
1562.841056	12457.666667
1563.901441	12394.000000
1564.961429	12355.000000
1566.021022	12341.000000
1567.080219	12430.666667
1568.139020	12373.666667
1569.197425	12469.000000
1570.255436	12368.666667
1571.313051	12383.333333
1572.370271	12317.000000
1573.427097	12326.333333
1574.483528	12273.333333
1575.539565	12264.666667
1576.595208	12262.000000
1577.650457	12278.666667
1578.705312	12145.666667
1579.759774	12170.666667
1580.813842	12090.666667
1581.867517	12055.666667
1582.920799	11969.333333
1583.973689	11973.666667
1585.026186	11936.000000
1586.078290	11928.333333
1587.130002	11903.666667
1588.181323	11863.333333
1589.232251	11849.333333
1590.282788	11859.000000
1591.332933	11858.666667
1592.382688	11799.333333
1593.432051	11783.666667
1594.481023	11810.000000
1595.529605	11710.000000
1596.577796	11850.000000
1597.625597	11790.666667
1598.673007	11836.000000
1599.720028	11842.666667
1600.766660	11819.000000
1601.812901	11856.000000
1602.858753	11859.000000
1603.904217	11860.000000
1604.949291	11839.666667
1605.993976	11891.000000
1607.038273	11860.666667
1608.082182	11760.000000
1609.125702	11745.666667
1610.168834	11789.000000
1611.211579	11762.666667
1612.253935	11707.000000
1613.295905	11647.000000
1614.337487	11694.333333
1615.378682	11717.000000
1616.419490	11597.333333
1617.459912	11626.000000
1618.499946	11560.000000
1619.539595	11584.333333
1620.578858	11539.333333
1621.617734	11520.333333
1622.656225	11461.333333
1623.694330	11363.666667
1624.732050	11499.333333
1625.769385	11360.333333
1626.806334	11361.333333
1627.842899	11283.333333
1628.879079	11342.666667
1629.914875	11307.333333
1630.950286	11284.333333
1631.985314	11277.333333
1633.019957	11340.000000
1634.054217	11280.333333
1635.088093	11334.666667
1636.121586	11273.000000
1637.154696	11287.666667
1638.187423	11327.666667
1639.219767	11245.333333
1640.251728	11326.666667
1641.283307	11236.000000
1642.314504	11293.000000
1643.345319	11348.666667
1644.375751	11147.333333
1645.405803	11331.666667
1646.435472	11199.333333
1647.464761	11204.666667
1648.493668	11321.666667
1649.522194	11105.666667
1650.550340	11256.666667
1651.578105	11213.333333
1652.605490	11157.000000
1653.632494	11127.666667
1654.659119	11150.000000
1655.685363	11148.000000
1656.711228	11109.000000
1657.736714	11013.333333
1658.761820	10906.333333
1659.786547	10907.000000
1660.810895	10956.333333
1661.834865	10953.000000
1662.858456	10837.000000
1663.881668	10878.000000
1664.904503	10829.666667
1665.926959	10760.000000
1666.949038	10721.333333
1667.970739	10673.666667
1668.992062	10623.000000
1670.013008	10591.000000
1671.033577	10570.333333
1672.053770	10492.666667
1673.073585	10591.666667
1674.093024	10527.666667
1675.112086	10581.000000
1676.130773	10460.333333
1677.149083	10498.000000
1678.167017	10470.666667
1679.184576	10559.666667
1680.201760	10572.333333
1681.218568	10552.000000
1682.235001	10511.333333
1683.251059	10504.333333
1684.266742	10532.666667
1685.282051	10540.666667
1686.296985	10519.000000
1687.311546	10509.000000
1688.325732	10435.666667
1689.339544	10354.000000
1690.352983	10365.000000
1691.366048	10322.000000
1692.378740	10212.000000
1693.391058	10258.000000
1694.403004	10135.000000
1695.414577	10103.666667
1696.425778	10045.000000
1697.436606	10096.333333
1698.447061	10066.333333
1699.457145	10007.666667
1700.466857	10063.333333
1701.476197	9978.333333
1702.485166	9969.666667
1703.493763	9851.333333
1704.501989	9878.666667
1705.509844	9821.000000
1706.517328	9816.000000
1707.524442	9775.333333
1708.531185	9823.666667
1709.537558	9701.000000
1710.543561	9721.333333
1711.549194	9756.000000
1712.554457	9705.000000
1713.559351	9650.666667
1714.563875	9721.333333
1715.568030	9698.333333
1716.571816	9709.333333
1717.575233	9654.333333
1718.578282	9691.333333
1719.580962	9753.666667
1720.583273	9726.000000
1721.585217	9709.333333
1722.586792	9742.333333
1723.588000	9746.666667
1724.588840	9736.666667
1725.589312	9796.666667
1726.589418	9715.666667
1727.589156	9764.333333
1728.588527	9720.333333
1729.587532	9803.666667
1730.586170	9716.333333
1731.584441	9744.333333
1732.582346	9701.666667
1733.579886	9609.000000
1734.577059	9558.666667
1735.573867	9562.666667
1736.570309	9572.000000
1737.566386	9529.666667
1738.562097	9452.333333
1739.557444	9506.000000
1740.552426	9536.000000
1741.547043	9299.666667
1742.541295	9305.333333
1743.535184	9351.333333
1744.528708	9340.666667
1745.521868	9220.000000
1746.514664	9345.666667
1747.507097	9229.666667
1748.499166	9237.333333
1749.490873	9193.000000
1750.482216	9206.000000
1751.473196	9170.333333
1752.463813	9182.333333
1753.454068	9188.000000
1754.443960	9248.333333
1755.433490	9066.000000
1756.422658	9153.000000
1757.411464	9109.666667
1758.399908	9130.666667
1759.387991	9078.000000
1760.375713	9084.666667
1761.363073	9026.666667
1762.350072	8969.666667
1763.336711	9008.000000
1764.322988	9009.666667
1765.308905	9028.666667
1766.294462	8935.333333
1767.279659	8983.666667
1768.264496	8949.666667
1769.248972	8880.333333
1770.233089	8966.333333
1771.216847	8837.333333
1772.200245	8916.333333
1773.183284	8920.000000
1774.165965	8892.666667
1775.148286	8845.666667
1776.130249	8820.333333
1777.111853	8807.000000
1778.093099	8769.333333
1779.073987	8735.000000
1780.054517	8684.666667
1781.034689	8646.333333
1782.014503	8694.000000
1782.993960	8541.333333
1783.973060	8578.000000
1784.951802	8513.000000
1785.930188	8451.666667
1786.908217	8457.333333
1787.885889	8362.333333
1788.863205	8403.333333
1789.840164	8418.000000
1790.816768	8436.000000
1791.793015	8301.333333
1792.768907	8308.333333
1793.744443	8352.000000
1794.719624	8311.000000
1795.694449	8312.333333
1796.668919	8300.333333
1797.643035	8302.666667
1798.616795	8288.000000
1799.590201	8312.000000
1800.563253	8402.666667
1801.535950	8359.000000
1802.508294	8350.666667
1803.480283	8311.333333
1804.451919	8352.666667
1805.423201	8368.666667
1806.394129	8389.666667
1807.364705	8325.000000
1808.334927	8369.000000
1809.304796	8339.666667
1810.274313	8353.000000
1811.243477	8332.333333
1812.212288	8293.000000
1813.180747	8323.333333
1814.148855	8270.000000
1815.116610	8203.000000
1816.084013	8132.000000
1817.051065	8169.666667
1818.017766	8187.000000
1818.984115	8187.333333
1819.950113	8185.333333
1820.915760	8189.000000
1821.881057	8081.666667
1822.846003	8028.000000
1823.810598	8059.333333
1824.774843	8071.333333
1825.738738	7962.000000
1826.702283	8070.000000
1827.665479	7967.666667
1828.628324	8026.333333
1829.590821	7966.333333
1830.552968	7900.000000
1831.514765	7910.666667
1832.476214	7857.000000
1833.437314	7863.666667
1834.398066	7846.000000
1835.358469	7858.000000
1836.318524	7812.000000
1837.278230	7839.666667
1838.237589	7775.666667
1839.196600	7783.333333
1840.155263	7806.666667
1841.113578	7809.333333
1842.071547	7812.666667
1843.029168	7851.666667
1843.986442	7799.000000
1844.943369	7921.333333
1845.899950	7897.000000
1846.856184	7874.666667
1847.812072	7924.000000
1848.767614	7924.666667
1849.722809	7829.666667
1850.677659	7874.000000
1851.632163	7838.666667
1852.586322	7867.000000
1853.540135	7854.333333
1854.493603	7804.000000
1855.446726	7773.333333
1856.399504	7876.333333
1857.351937	7817.666667
1858.304026	7769.000000
1859.255770	7754.666667
1860.207170	7744.000000
1861.158227	7699.000000
1862.108939	7688.333333
1863.059307	7661.000000
1864.009332	7639.000000
1864.959013	7637.333333
1865.908351	7599.333333
1866.857346	7585.333333
1867.805998	7568.000000
1868.754307	7604.000000
1869.702274	7496.333333
1870.649898	7494.000000
1871.597180	7423.666667
1872.544119	7366.333333
1873.490717	7410.333333
1874.436973	7355.666667
1875.382887	7426.333333
1876.328459	7376.666667
1877.273691	7360.333333
1878.218581	7346.333333
1879.163130	7319.666667
1880.107338	7327.666667
1881.051205	7207.333333
1881.994732	7319.666667
1882.937919	7332.000000
1883.880765	7395.666667
1884.823271	7313.000000
1885.765437	7318.000000
1886.707264	7355.666667
1887.648750	7350.333333
1888.589898	7341.666667
1889.530706	7324.333333
1890.471175	7366.000000
1891.411305	7352.000000
1892.351096	7338.000000
1893.290548	7354.333333
1894.229662	7346.666667
1895.168438	7329.000000
1896.106876	7311.333333
1897.044975	7254.333333
1897.982737	7283.666667
1898.920160	7261.666667
1899.857247	7294.666667
1900.793996	7192.000000
1901.730407	7136.666667
1902.666482	7192.333333
1903.602219	7170.666667
1904.537620	7137.333333
1905.472685	7095.333333
1906.407412	7092.333333
1907.341804	7066.666667
1908.275859	7121.000000
1909.209579	7004.666667
1910.142962	6992.333333
1911.076010	7017.000000
1912.008722	6909.333333
1912.941099	6905.666667
1913.873141	6833.666667
1914.804848	6867.666667
1915.736219	6748.000000
1916.667256	6797.000000
1917.597959	6771.000000
1918.528327	6691.333333
1919.458360	6703.000000
1920.388060	6765.000000
1921.317426	6651.333333
1922.246457	6625.000000
1923.175156	6705.000000
1924.103520	6678.333333
1925.031552	6715.666667
1925.959250	6717.666667
1926.886615	6673.666667
1927.813647	6710.333333
1928.740346	6718.666667
1929.666713	6716.000000
1930.592748	6715.333333
1931.518450	6671.333333
1932.443820	6751.333333
1933.368858	6725.666667
1934.293564	6733.666667
1935.217939	6736.666667
1936.141982	6714.333333
1937.065694	6758.333333
1937.989074	6715.333333
1938.912124	6740.333333
1939.834842	6663.000000
1940.757230	6683.333333
1941.679287	6622.333333
1942.601014	6591.666667
1943.522411	6585.666667
1944.443477	6593.000000
1945.364214	6562.666667
1946.284621	6510.333333
1947.204698	6499.333333
1948.124445	6538.666667
1949.043863	6392.333333
1949.962952	6445.333333
1950.881712	6396.666667
1951.800143	6347.000000
1952.718245	6286.666667
1953.636019	6258.666667
1954.553464	6258.333333
1955.470581	6231.666667
1956.387369	6157.000000
1957.303830	6215.000000
1958.219963	6210.333333
1959.135768	6155.000000
1960.051246	6216.333333
1960.966396	6169.333333
1961.881219	6171.666667
1962.795715	6141.666667
1963.709883	6188.000000
1964.623726	6198.666667
1965.537241	6245.666667
1966.450430	6159.000000
1967.363293	6120.333333
1968.275829	6167.333333
1969.188040	6225.333333
1970.099924	6262.333333
1971.011483	6209.333333
1971.922716	6208.666667
1972.833624	6311.666667
1973.744206	6223.000000
1974.654464	6312.666667
1975.564396	6200.000000
1976.474004	6316.333333
1977.383286	6219.666667
1978.292245	6223.333333
1979.200878	6201.333333
1980.109188	6217.666667
1981.017174	6176.333333
1981.924835	6227.000000
1982.832173	6212.000000
1983.739187	6126.666667
1984.645878	6167.333333
1985.552245	6076.000000
1986.458289	6091.333333
1987.364010	6052.666667
1988.269408	6012.000000
1989.174484	6043.666667
1990.079236	5962.000000
1990.983667	5977.333333
1991.887775	5904.333333
1992.791561	5910.333333
1993.695024	5880.000000
1994.598166	5939.666667
1995.500986	5886.333333
1996.403485	5862.000000
1997.305662	5822.000000
1998.207518	5803.666667
1999.109053	5785.333333
