200.151048	40341.333333
201.758777	40126.666667
203.365815	40178.333333
204.972162	39969.333333
206.577820	40079.666667
208.182787	39796.000000
209.787065	39794.000000
211.390653	39667.666667
212.993553	39718.000000
214.595765	39554.666667
216.197289	39603.333333
217.798125	39546.333333
219.398274	39598.333333
220.997737	39488.333333
222.596513	39495.333333
224.194603	39305.666667
225.792008	39358.000000
227.388728	39307.666667
228.984763	39269.333333
230.580114	39201.666667
232.174781	39192.000000
233.768765	39173.666667
235.362065	39097.666667
236.954683	39184.000000
238.546619	39038.666667
240.137872	38961.000000
241.728445	38986.666667
243.318336	38906.333333
244.907546	38912.666667
246.496076	38619.000000
248.083926	38479.333333
249.671097	38544.000000
251.257589	38432.666667
252.843402	38376.666667
254.428536	38170.666667
256.012993	38223.333333
257.596772	38063.000000
259.179874	38046.000000
260.762300	37987.666667
262.344049	37956.000000
263.925122	37867.333333
265.505519	37942.333333
267.085241	38049.333333
268.664289	37801.333333
270.242662	37752.333333
271.820361	37660.333333
273.397387	37768.333333
274.973740	37666.666667
276.549419	37894.666667
278.124426	37748.666667
279.698762	37994.666667
281.272425	37953.333333
282.845417	37996.333333
284.417739	38113.666667
285.989390	37880.666667
287.560371	38213.666667
289.130682	38122.000000
290.700324	38020.000000
292.269297	38006.666667
293.837602	38197.666667
295.405238	37988.333333
296.972207	37949.666667
298.538508	37926.666667
300.104142	37982.000000
301.669110	37828.000000
303.233411	37906.666667
304.797047	37632.333333
306.360017	37364.000000
307.922322	37523.666667
309.483963	37353.666667
311.044939	37383.000000
312.605252	37259.000000
314.164900	37351.000000
315.723886	36989.666667
317.282209	36861.000000
318.839870	36994.000000
320.396868	36989.666667
321.953205	36802.666667
323.508881	36693.000000
325.063896	36713.666667
326.618251	36722.333333
328.171945	36631.333333
329.724980	36721.666667
331.277356	36655.000000
332.829072	36529.333333
334.380131	36829.333333
335.930530	36685.666667
337.480273	36443.000000
339.029357	36637.666667
340.577785	36483.000000
342.125556	36612.000000
343.672671	36681.333333
345.219130	36527.666667
346.764933	36558.333333
348.310081	36560.000000
349.854575	36525.666667
351.398414	36493.666667
352.941599	36470.666667
354.484130	36444.333333
356.026008	36394.333333
357.567234	36428.000000
359.107807	36171.333333
360.647727	36425.333333
362.186996	36273.666667
363.725614	36246.000000
365.263580	36243.000000
366.800896	36176.666667
368.337562	36052.000000
369.873578	36011.000000
371.408944	35928.000000
372.943661	35934.666667
374.477730	35908.666667
376.011150	35987.000000
377.543922	36030.666667
379.076046	35997.000000
380.607523	35864.666667
382.138353	35896.000000
383.668537	36052.000000
385.198075	36006.333333
386.726966	35853.333333
388.255213	35815.666667
389.782814	35805.333333
391.309770	35997.333333
392.836083	35926.666667
394.361751	35868.333333
395.886776	36143.333333
397.411157	36051.333333
398.934896	36113.666667
400.457992	36226.666667
401.980446	36118.666667
403.502258	36012.333333
405.023429	36019.333333
406.543959	36077.666667
408.063849	36140.333333
409.583098	36259.666667
411.101707	36247.000000
412.619677	36372.000000
414.137007	36494.666667
415.653699	36819.666667
417.169752	36847.333333
418.685167	36726.666667
420.199945	37101.000000
421.714085	37354.333333
423.227588	37627.666667
424.740454	37759.666667
426.252684	37608.666667
427.764279	37651.333333
429.275238	37842.333333
430.785561	37731.666667
432.295250	37708.333333
433.804304	37571.000000
435.312725	37034.333333
436.820511	37018.000000
438.327664	36910.333333
439.834185	36696.000000
441.340072	36637.000000
442.845327	36501.666667
444.349951	36264.333333
445.853942	36137.000000
447.357303	36080.333333
448.860033	36028.333333
450.362132	35780.666667
451.863601	35791.666667
453.364440	35596.000000
454.864650	35272.000000
456.364231	35286.333333
457.863183	35124.333333
459.361507	34933.000000
460.859203	34964.666667
462.356271	34566.000000
463.852712	34503.000000
465.348526	34442.333333
466.843714	34184.666667
468.338275	34190.666667
469.832210	34136.000000
471.325520	34113.000000
472.818205	33853.666667
474.310265	33905.000000
475.801700	33870.333333
477.292512	33658.333333
478.782700	34012.000000
480.272264	33833.333333
481.761205	33771.333333
483.249524	33764.333333
484.737221	33704.666667
486.224295	33606.666667
487.710748	33353.000000
489.196579	33519.000000
490.681790	33410.666667
492.166380	33277.000000
493.650350	33271.666667
495.133700	33204.666667
496.616431	33305.000000
498.098542	33308.333333
499.580035	33246.666667
501.060909	33343.333333
502.541165	33283.666667
504.020804	33147.333333
505.499825	33169.333333
506.978228	33089.333333
508.456016	32894.666667
509.933186	32776.000000
511.409741	32842.333333
512.885680	32783.666667
514.361004	32753.333333
515.835713	32742.333333
517.309807	32862.000000
518.783287	32778.333333
520.256153	32637.666667
521.728406	32704.333333
523.200045	32762.666667
524.671071	32883.333333
526.141485	32672.666667
527.611287	32588.000000
529.080476	32551.000000
530.549054	32626.333333
532.017021	32634.333333
533.484378	32677.000000
534.951123	32598.000000
536.417259	32549.000000
537.882785	32379.000000
539.347701	32463.333333
540.812008	32562.333333
542.275707	32556.666667
543.738797	32239.333333
545.201279	32560.000000
546.663153	32511.333333
548.124420	32615.333333
549.585080	32578.333333
551.045133	32878.333333
552.504579	32676.333333
553.963420	32850.000000
555.421655	32934.000000
556.879285	33189.000000
558.336309	33022.666667
559.792729	33040.333333
561.248545	32880.666667
562.703756	33065.666667
564.158364	33156.333333
565.612369	33177.666667
567.065770	33101.666667
568.518569	32982.333333
569.970766	33107.666667
571.422361	33024.000000
572.873354	33218.333333
574.323745	33319.333333
575.773536	33458.333333
577.222726	33440.666667
578.671316	33477.666667
580.119306	33287.333333
581.566696	33443.666667
583.013487	33197.333333
584.459679	33131.666667
585.905273	33109.666667
587.350268	33074.333333
588.794665	33036.000000
590.238465	33042.333333
591.681667	33001.000000
593.124272	32869.333333
594.566281	32666.333333
596.007694	32467.333333
597.448510	32461.000000
598.888731	32312.000000
600.328357	32251.333333
601.767388	32043.333333
603.205824	32081.666667
604.643666	32062.333333
606.080914	31973.666667
607.517568	31977.000000
608.953629	31765.333333
610.389097	31975.000000
611.823972	31918.666667
613.258255	31771.000000
614.691946	31549.666667
616.125046	31711.000000
617.557554	31371.000000
618.989471	31313.666667
620.420798	31247.000000
621.851534	30865.333333
623.281680	30804.333333
624.711237	30730.333333
626.140204	30601.333333
627.568582	30466.000000
628.996372	30499.666667
630.423573	30467.666667
631.850186	30451.000000
633.276211	30430.000000
634.701650	30224.666667
636.126501	30245.333333
637.550765	30326.333333
638.974443	30232.666667
640.397535	30362.000000
641.820041	30226.666667
643.241961	30221.333333
644.663297	30197.000000
646.084048	30196.666667
647.504214	30062.666667
648.923796	29888.000000
650.342795	29928.000000
651.761210	29772.333333
653.179041	29577.666667
654.596290	29618.666667
656.012957	29699.000000
657.429041	29690.000000
658.844543	29598.000000
660.259464	29722.000000
661.673804	29470.666667
663.087563	29544.000000
664.500741	29441.666667
665.913339	29493.333333
667.325357	29524.666667
668.736795	29542.333333
670.147654	29587.333333
671.557934	29515.000000
672.967636	29356.000000
674.376759	29236.666667
675.785304	29230.000000
677.193271	29296.333333
678.600661	29137.333333
680.007474	29295.666667
681.413711	29090.333333
682.819370	29091.000000
684.224454	29123.000000
685.628962	29024.333333
687.032895	28994.000000
688.436252	29025.333333
689.839034	28938.666667
691.241242	28970.666667
692.642876	28862.666667
694.043936	28842.666667
695.444422	28776.666667
696.844336	28730.666667
698.243676	28712.333333
699.642443	28727.333333
701.040639	28589.000000
702.438262	28765.666667
703.835313	28703.000000
705.231794	28742.333333
706.627703	28716.333333
708.023041	28614.666667
709.417810	28644.333333
710.812008	28598.666667
712.205636	28356.000000
713.598694	28456.333333
714.991184	28444.333333
716.383105	28502.333333
717.774457	28368.666667
719.165241	28367.000000
720.555457	28354.000000
721.945105	28140.333333
723.334187	28276.333333
724.722701	28374.666667
726.110648	28356.000000
727.498030	28247.333333
728.884845	28312.333333
730.271094	28124.000000
731.656778	28178.666667
733.041897	28250.000000
734.426451	28195.666667
735.810441	28020.666667
737.193866	27920.000000
738.576728	28036.333333
739.959026	28085.333333
741.340760	28022.666667
742.721932	28035.666667
744.102541	27939.000000
745.482588	27983.333333
746.862073	27826.333333
748.240996	27991.000000
749.619358	27948.666667
750.997158	27791.333333
752.374398	27830.333333
753.751077	27963.666667
755.127197	27854.000000
756.502756	27896.333333
757.877756	27843.333333
759.252196	27942.666667
760.626078	27732.333333
761.999400	27689.666667
763.372165	27717.666667
764.744371	27701.000000
766.116020	27689.000000
767.487111	27588.333333
768.857646	27529.000000
770.227623	27478.333333
771.597044	27357.666667
772.965908	27311.000000
774.334217	27292.666667
775.701970	27302.333333
777.069168	27241.333333
778.435811	27180.333333
779.801899	27058.333333
781.167433	27037.000000
782.532412	27109.333333
783.896838	27064.666667
785.260710	26980.333333
786.624029	27069.666667
787.986796	26999.333333
789.349009	26850.000000
790.710671	27014.000000
792.071780	26865.333333
793.432338	26752.333333
794.792344	26751.666667
796.151799	26758.333333
797.510704	26726.333333
798.869058	26568.333333
800.226862	26723.333333
801.584116	26548.000000
802.940820	26662.333333
804.296975	26468.666667
805.652581	26599.333333
807.007638	26698.666667
808.362147	26721.333333
809.716108	26584.666667
811.069521	26600.000000
812.422387	26590.333333
813.774705	26450.666667
815.126476	26491.333333
816.477701	26516.333333
817.828380	26559.666667
819.178512	26370.000000
820.528099	26437.000000
821.877140	26421.333333
823.225637	26288.333333
824.573588	26445.666667
825.920995	26242.000000
827.267857	26304.000000
828.614176	26289.333333
829.959951	26153.000000
831.305183	26213.000000
832.649871	26185.333333
833.994017	26133.666667
835.337620	25974.333333
836.680681	26035.666667
838.023201	26207.666667
839.365178	26288.000000
840.706614	26222.000000
842.047510	26246.666667
843.387864	26156.000000
844.727678	26242.333333
846.066952	26157.666667
847.405687	26158.000000
848.743881	26276.333333
850.081537	26330.333333
851.418653	26327.000000
852.755231	26375.000000
854.091270	26196.000000
855.426771	26207.333333
856.761735	26220.000000
858.096160	26187.333333
859.430049	26206.666667
860.763401	26017.666667
862.096216	25980.666667
863.428495	26023.333333
864.760237	26040.000000
866.091444	25741.333333
867.422115	25853.000000
868.752252	25808.000000
870.081853	25729.666667
871.410919	25727.000000
872.739452	25680.333333
874.067450	25610.000000
875.394914	25647.666667
876.721845	25572.666667
878.048243	25570.666667
879.374108	25479.000000
880.699440	25384.666667
882.024240	25332.333333
883.348508	25222.666667
884.672244	25156.000000
885.995449	25340.666667
887.318122	25021.666667
888.640265	25054.333333
889.961877	24782.333333
891.282959	24944.000000
892.603510	24878.333333
893.923532	24759.333333
895.243024	24870.666667
896.561987	24802.333333
897.880422	24824.000000
899.198327	24693.333333
900.515705	24632.000000
901.832554	24644.333333
903.148875	24672.666667
904.464669	24675.000000
905.779936	24561.000000
907.094676	24639.333333
908.408889	24716.000000
909.722576	24730.666667
911.035737	24648.666667
912.348371	24681.000000
913.660481	24769.666667
914.972065	24957.666667
916.283124	24933.666667
917.593659	24997.000000
918.903669	24891.333333
920.213155	24998.666667
921.522117	24944.000000
922.830556	24983.666667
924.138471	24774.000000
925.445864	24895.666667
926.752733	24823.666667
928.059081	24941.666667
929.364906	24888.333333
930.670209	24891.000000
931.974991	25137.666667
933.279251	25073.333333
934.582990	25238.666667
935.886209	25293.666667
937.188907	25337.000000
938.491085	25440.666667
939.792743	25868.000000
941.093881	26120.666667
942.394500	26299.333333
943.694600	26517.000000
944.994181	27003.333333
946.293243	27520.000000
947.591787	28047.000000
948.889813	28688.333333
950.187322	29261.333333
951.484313	30266.666667
952.780787	31240.666667
954.076744	32535.333333
955.372184	33426.333333
956.667108	34365.333333
957.961516	35051.000000
959.255409	35085.000000
960.548785	34819.333333
961.841647	33992.666667
963.133993	32902.333333
964.425825	31537.333333
965.717142	30164.666667
967.007946	28958.666667
968.298235	27925.666667
969.588011	26904.333333
970.877273	25976.666667
972.166023	25434.333333
973.454259	24722.666667
974.741984	24422.000000
976.029196	24040.333333
977.315895	23855.333333
978.602084	23719.000000
979.887761	23461.333333
981.172926	23333.666667
982.457581	23231.333333
983.741725	23190.666667
985.025359	23074.333333
986.308483	23020.666667
987.591097	23039.666667
988.873202	22791.666667
990.154797	22738.666667
991.435883	22690.666667
992.716461	22780.333333
993.996530	22710.666667
995.276091	22632.666667
996.555144	22744.666667
997.833690	22788.333333
999.111728	22864.000000
1000.389259	22884.333333
1001.666283	22940.666667
1002.942800	23011.333333
1004.218812	22924.333333
1005.494317	22852.333333
1006.769317	22767.000000
1008.043811	22700.000000
1009.317799	22696.666667
1010.591283	22754.000000
1011.864263	22676.666667
1013.136737	22701.666667
1014.408708	22588.000000
1015.680175	22798.666667
1016.951138	22665.000000
1018.221598	22584.333333
1019.491554	22512.000000
1020.761008	22595.333333
1022.029959	22700.333333
1023.298408	22712.000000
1024.566355	22670.666667
1025.833800	22730.000000
1027.100744	22724.333333
1028.367187	22715.666667
1029.633128	22733.000000
1030.898569	22661.000000
1032.163509	22602.333333
1033.427949	22696.666667
1034.691890	22602.333333
1035.955330	22798.666667
1037.218271	22660.333333
1038.480714	22758.333333
1039.742657	22781.333333
1041.004101	22795.000000
1042.265048	22694.666667
1043.525496	22729.333333
1044.785446	22821.333333
1046.044899	22630.333333
1047.303855	22710.000000
1048.562313	22687.666667
1049.820275	22427.000000
1051.077740	22488.000000
1052.334709	22407.000000
1053.591182	22447.000000
1054.847160	22417.666667
1056.102641	22377.333333
1057.357628	22325.666667
1058.612120	22506.666667
1059.866117	22400.333333
1061.119619	22478.333333
1062.372628	22449.666667
1063.625142	22528.000000
1064.877163	22677.666667
1066.128691	22682.666667
1067.379725	22746.000000
1068.630267	22676.333333
1069.880316	22578.666667
1071.129872	22586.666667
1072.378937	22508.000000
1073.627509	22275.000000
1074.875590	22219.333333
1076.123180	22169.000000
1077.370279	21918.000000
1078.616887	21787.000000
1079.863004	21736.333333
1081.108631	21603.000000
1082.353768	21494.000000
1083.598415	21410.333333
1084.842573	21248.666667
1086.086241	21061.333333
1087.329421	21020.666667
1088.572111	21022.333333
1089.814314	20796.666667
1091.056028	20914.666667
1092.297253	20893.333333
1093.537992	20658.333333
1094.778242	20697.333333
1096.018006	20475.000000
1097.257282	20610.666667
1098.496072	20534.000000
1099.734376	20472.666667
1100.972193	20619.666667
1102.209524	20446.000000
1103.446370	20332.000000
1104.682730	20370.000000
1105.918604	20380.000000
1107.153994	20316.333333
1108.388900	20237.333333
1109.623320	20303.666667
1110.857257	20218.000000
1112.090710	20169.666667
1113.323679	19883.000000
1114.556164	19942.333333
1115.788167	19837.666667
1117.019686	19899.666667
1118.250723	19866.000000
1119.481278	19783.333333
1120.711350	19734.333333
1121.940940	19791.333333
1123.170049	19706.333333
1124.398676	19674.666667
1125.626823	19746.666667
1126.854488	19632.333333
1128.081672	19649.000000
1129.308376	19471.000000
1130.534600	19581.666667
1131.760345	19400.666667
1132.985609	19416.333333
1134.210394	19532.000000
1135.434700	19420.000000
1136.658527	19467.000000
1137.881875	19349.000000
1139.104745	19431.000000
1140.327136	19404.333333
1141.549050	19381.000000
1142.770486	19405.333333
1143.991445	19369.000000
1145.211926	19365.666667
1146.431931	19530.666667
1147.651459	19265.000000
1148.870510	19272.000000
1150.089086	19198.666667
1151.307185	19288.333333
1152.524808	19221.333333
1153.741957	19280.666667
1154.958630	19232.666667
1156.174828	19201.666667
1157.390551	19073.666667
1158.605800	19228.666667
1159.820574	19228.000000
1161.034875	19214.000000
1162.248702	19192.666667
1163.462055	19162.333333
1164.674936	19245.666667
1165.887343	19046.666667
1167.099277	19053.000000
1168.310739	19076.666667
1169.521729	19013.000000
1170.732247	19075.666667
1171.942293	19018.666667
1173.151867	19080.666667
1174.360970	19013.666667
1175.569602	19030.000000
1176.777764	18981.666667
1177.985454	18900.666667
1179.192675	18897.666667
1180.399425	18809.666667
1181.605706	18872.000000
1182.811517	18695.000000
1184.016859	18670.000000
1185.221731	18722.333333
1186.426135	18627.000000
1187.630070	18543.666667
1188.833537	18451.000000
1190.036535	18431.666667
1191.239066	18392.000000
1192.441129	18430.666667
1193.642725	18392.333333
1194.843853	18329.000000
1196.044515	18330.333333
1197.244710	18363.666667
1198.444438	18356.333333
1199.643701	18319.000000
1200.842497	18388.000000
1202.040827	18387.333333
1203.238693	18378.333333
1204.436092	18344.666667
1205.633027	18306.000000
1206.829497	18249.000000
1208.025503	18230.333333
1209.221044	18116.333333
1210.416122	18139.000000
1211.610735	18101.000000
1212.804885	18099.666667
1213.998572	18098.666667
1215.191795	18053.666667
1216.384556	17966.000000
1217.576854	17932.666667
1218.768689	17888.666667
1219.960063	17933.000000
1221.150974	17886.000000
1222.341424	17879.333333
1223.531413	17871.666667
1224.720940	17933.000000
1225.910006	18006.666667
1227.098612	17870.333333
1228.286757	17990.666667
1229.474442	18045.333333
1230.661667	18115.666667
1231.848432	18124.666667
1233.034738	18104.333333
1234.220584	18054.333333
1235.405971	18140.333333
1236.590900	18180.666667
1237.775369	18306.000000
1238.959381	18285.333333
1240.142934	18403.333333
1241.326029	18256.666667
1242.508667	18232.333333
1243.690848	18311.333333
1244.872571	18280.000000
1246.053837	18253.333333
1247.234646	18171.333333
1248.414999	18087.333333
1249.594896	18100.000000
1250.774337	18074.666667
1251.953322	17986.333333
1253.131851	17942.000000
1254.309925	18014.333333
1255.487544	17935.000000
1256.664708	17969.333333
1257.841417	17853.000000
1259.017673	17851.333333
1260.193473	17858.333333
1261.368820	17882.666667
1262.543714	17853.000000
1263.718154	17793.333333
1264.892140	17996.666667
1266.065674	17983.000000
1267.238755	17878.333333
1268.411383	17883.666667
1269.583559	17974.000000
1270.755283	17834.333333
1271.926555	17867.333333
1273.097375	17766.000000
1274.267744	17846.333333
1275.437662	17704.666667
1276.607129	17687.666667
1277.776145	17720.000000
1278.944711	17702.666667
1280.112827	17547.666667
1281.280492	17509.666667
1282.447708	17494.666667
1283.614474	17560.333333
1284.780791	17351.333333
1285.946659	17385.333333
1287.112078	17300.666667
1288.277048	17323.666667
1289.441570	17228.333333
1290.605644	17049.333333
1291.769270	17072.666667
1292.932448	17003.333333
1294.095178	16924.000000
1295.257461	17030.000000
1296.419298	16888.333333
1297.580687	16852.333333
1298.741630	16785.000000
1299.902126	16801.333333
1301.062177	16828.666667
1302.221781	16766.000000
1303.380940	16955.000000
1304.539653	16842.000000
1305.697921	16694.333333
1306.855744	16748.666667
1308.013123	16772.000000
1309.170056	16761.000000
1310.326546	16713.666667
1311.482591	16729.666667
1312.638193	16684.000000
1313.793350	16643.666667
1314.948065	16682.000000
1316.102336	16724.000000
1317.256164	16671.000000
1318.409550	16647.000000
1319.562493	16516.666667
1320.714993	16567.666667
1321.867052	16536.333333
1323.018668	16491.666667
1324.169843	16330.333333
1325.320577	16422.333333
1326.470870	16319.000000
1327.620721	16203.333333
1328.770132	16247.333333
1329.919102	16066.333333
1331.067632	16150.333333
1332.215722	16159.666667
1333.363372	16117.333333
1334.510582	16214.666667
1335.657353	16198.000000
1336.803685	16232.333333
1337.949578	16146.333333
1339.095032	16185.000000
1340.240048	16123.000000
1341.384625	16111.000000
1342.528764	16155.333333
1343.672466	16162.333333
1344.815729	16193.666667
1345.958556	16125.666667
1347.100945	16052.000000
1348.242897	16081.000000
1349.384413	15828.000000
1350.525492	15990.000000
1351.666134	15848.666667
1352.806341	15745.666667
1353.946111	15783.000000
1355.085446	15735.333333
1356.224346	15761.666667
1357.362810	15674.666667
1358.500840	15653.000000
1359.638434	15626.000000
1360.775594	15571.333333
1361.912320	15604.000000
1363.048612	15594.333333
1364.184469	15553.000000
1365.319893	15499.666667
1366.454884	15490.000000
1367.589441	15450.666667
1368.723566	15504.333333
1369.857257	15483.333333
1370.990516	15384.333333
1372.123343	15421.666667
1373.255737	15514.333333
1374.387699	15545.333333
1375.519230	15626.000000
1376.650329	15558.666667
1377.780997	15499.333333
1378.911234	15546.000000
1380.041040	15476.666667
1381.170416	15609.000000
1382.299361	15455.000000
1383.427875	15444.333333
1384.555960	15412.000000
1385.683615	15371.333333
1386.810841	15402.000000
1387.937637	15401.000000
1389.064004	15364.333333
1390.189942	15410.333333
1391.315451	15326.000000
1392.440532	15311.000000
1393.565185	15299.000000
1394.689409	15277.000000
1395.813206	15197.333333
1396.936575	15274.000000
1398.059517	15161.000000
1399.182032	15121.333333
1400.304119	15088.333333
1401.425780	15016.666667
1402.547014	15199.666667
1403.667822	15146.333333
1404.788204	14967.000000
1405.908160	15032.333333
1407.027690	15099.666667
1408.146795	14943.666667
1409.265474	15001.666667
1410.383728	15104.000000
1411.501558	15050.000000
1412.618963	15029.666667
1413.735943	15051.333333
1414.852499	14960.000000
1415.968632	15094.000000
1417.084340	15086.000000
1418.199625	15107.000000
1419.314486	15128.333333
1420.428925	15205.000000
1421.542940	15058.000000
1422.656533	15058.666667
1423.769703	15033.666667
1424.882451	14978.333333
1425.994777	14944.000000
1427.106680	14819.000000
1428.218163	14899.666667
1429.329223	14853.333333
1430.439863	14805.333333
1431.550081	14794.333333
1432.659879	14658.000000
1433.769256	14763.000000
1434.878212	14783.666667
1435.986749	14655.000000
1437.094865	14770.000000
1438.202562	14695.000000
1439.309839	14893.000000
1440.416696	14841.333333
1441.523135	14803.666667
1442.629154	14802.333333
1443.734755	14846.333333
1444.839937	14984.666667
1445.944701	14973.000000
1447.049047	14989.333333
1448.152975	14919.333333
1449.256485	14878.000000
1450.359577	14859.333333
1451.462253	14952.333333
1452.564511	14875.666667
1453.666352	14910.000000
1454.767777	14861.666667
1455.868785	14822.666667
1456.969377	14884.000000
1458.069553	14813.000000
1459.169313	14747.666667
1460.268658	14708.333333
1461.367587	14520.333333
1462.466101	14505.333333
1463.564200	14399.333333
1464.661884	14411.666667
1465.759153	14352.333333
1466.856008	14300.000000
1467.952449	14282.000000
1469.048476	14245.333333
1470.144089	14045.666667
1471.239288	14138.333333
1472.334074	13994.333333
1473.428447	13880.333333
1474.522407	13745.333333
1475.615955	13664.000000
1476.709089	13671.000000
1477.801812	13609.333333
1478.894122	13706.000000
1479.986020	13496.000000
1481.077506	13615.000000
1482.168581	13526.000000
1483.259245	13633.333333
1484.349498	13518.333333
1485.439339	13552.333333
1486.528770	13397.000000
1487.617790	13477.000000
1488.706400	13416.000000
1489.794600	13304.666667
1490.882390	13440.333333
1491.969771	13357.000000
1493.056742	13406.000000
1494.143303	13317.000000
1495.229456	13288.333333
1496.315199	13328.333333
1497.400534	13215.666667
1498.485460	13202.000000
1499.569978	13190.666667
1500.654088	13151.000000
1501.737790	13129.666667
1502.821085	13107.000000
1503.903972	13039.666667
1504.986451	13055.000000
1506.068524	12956.000000
1507.150189	12937.333333
1508.231448	12826.666667
1509.312301	12926.666667
1510.392747	12896.000000
1511.472787	12753.666667
1512.552422	12843.000000
1513.631650	12726.000000
1514.710473	12763.333333
1515.788891	12762.333333
1516.866904	12716.333333
1517.944512	12796.666667
1519.021715	12761.666667
1520.098513	12729.666667
1521.174908	12710.666667
1522.250898	12697.333333
1523.326485	12707.333333
1524.401667	12693.000000
1525.476447	12727.666667
1526.550823	12779.666667
1527.624796	12681.000000
1528.698365	12619.666667
1529.771533	12668.333333
1530.844298	12648.666667
1531.916660	12790.333333
1532.988620	12618.000000
1534.060179	12598.000000
1535.131336	12649.000000
1536.202091	12600.666667
1537.272445	12538.333333
1538.342398	12571.666667
1539.411950	12447.333333
1540.481101	12432.333333
1541.549851	12454.000000
1542.618202	12394.666667
1543.686152	12349.666667
1544.753702	12335.000000
1545.820853	12260.000000
1546.887604	12229.000000
1547.953955	12339.666667
1549.019908	12392.666667
1550.085461	12223.000000
1551.150616	12134.333333
1552.215372	12140.333333
1553.279730	12158.333333
1554.343690	12058.666667
1555.407252	12138.000000
1556.470415	12179.333333
1557.533182	12044.333333
1558.595551	12091.666667
1559.657522	12021.333333
1560.719097	12080.000000
1561.780275	12086.000000
1562.841056	12017.000000
1563.901441	12050.000000
1564.961429	11988.000000
1566.021022	12080.333333
1567.080219	12076.333333
1568.139020	12024.666667
1569.197425	11999.333333
1570.255436	12034.000000
1571.313051	11894.333333
1572.370271	11850.000000
1573.427097	11907.333333
1574.483528	11951.666667
1575.539565	11953.000000
1576.595208	11892.333333
1577.650457	11825.333333
1578.705312	11837.333333
1579.759774	11736.333333
1580.813842	11674.666667
1581.867517	11594.333333
1582.920799	11633.666667
1583.973689	11564.000000
1585.026186	11619.000000
1586.078290	11595.000000
1587.130002	11471.000000
1588.181323	11550.333333
1589.232251	11469.666667
1590.282788	11443.666667
1591.332933	11376.333333
1592.382688	11417.666667
1593.432051	11407.333333
1594.481023	11329.333333
1595.529605	11442.333333
1596.577796	11419.666667
1597.625597	11445.000000
1598.673007	11489.000000
1599.720028	11528.000000
1600.766660	11524.333333
1601.812901	11499.333333
1602.858753	11496.666667
1603.904217	11533.000000
1604.949291	11498.333333
1605.993976	11536.000000
1607.038273	11476.000000
1608.082182	11443.666667
1609.125702	11416.666667
1610.168834	11381.333333
1611.211579	11362.333333
1612.253935	11347.000000
1613.295905	11342.333333
1614.337487	11250.333333
1615.378682	11310.000000
1616.419490	11196.666667
1617.459912	11180.000000
1618.499946	11203.666667
1619.539595	11228.666667
1620.578858	11196.333333
1621.617734	11239.000000
1622.656225	11177.666667
1623.694330	11094.333333
1624.732050	11166.000000
1625.769385	11081.666667
1626.806334	11156.000000
1627.842899	11062.666667
1628.879079	11010.666667
1629.914875	11035.666667
1630.950286	10991.000000
1631.985314	11085.666667
1633.019957	11103.000000
1634.054217	11040.666667
1635.088093	11012.000000
1636.121586	11037.333333
1637.154696	11037.000000
1638.187423	11013.333333
1639.219767	11057.333333
1640.251728	11184.666667
1641.283307	11072.333333
1642.314504	11013.333333
1643.345319	11067.666667
1644.375751	11075.333333
1645.405803	11063.666667
1646.435472	11074.333333
1647.464761	10995.666667
1648.493668	11048.333333
1649.522194	10977.666667
1650.550340	11069.666667
1651.578105	10966.666667
1652.605490	10987.000000
1653.632494	11004.000000
1654.659119	10898.000000
1655.685363	10931.666667
1656.711228	10852.333333
1657.736714	10832.000000
1658.761820	10841.333333
1659.786547	10835.000000
1660.810895	10750.666667
1661.834865	10641.666667
1662.858456	10645.000000
1663.881668	10682.333333
1664.904503	10704.333333
1665.926959	10615.666667
1666.949038	10610.666667
1667.970739	10537.666667
1668.992062	10577.000000
1670.013008	10546.666667
1671.033577	10572.666667
1672.053770	10453.000000
1673.073585	10506.666667
1674.093024	10479.333333
1675.112086	10492.333333
1676.130773	10365.333333
1677.149083	10361.000000
1678.167017	10316.666667
1679.184576	10224.666667
1680.201760	10306.000000
1681.218568	10372.333333
1682.235001	10354.000000
1683.251059	10357.666667
1684.266742	10367.666667
1685.282051	10284.333333
1686.296985	10358.333333
1687.311546	10252.000000
1688.325732	10159.666667
1689.339544	10122.666667
1690.352983	10130.333333
1691.366048	9986.000000
1692.378740	9949.000000
1693.391058	10047.666667
1694.403004	9941.666667
1695.414577	9927.666667
1696.425778	9776.666667
1697.436606	9753.666667
1698.447061	9697.333333
1699.457145	9612.000000
1700.466857	9570.666667
1701.476197	9480.000000
1702.485166	9550.333333
1703.493763	9416.000000
1704.501989	9422.333333
1705.509844	9393.000000
1706.517328	9453.666667
1707.524442	9414.666667
1708.531185	9410.000000
1709.537558	9436.333333
1710.543561	9343.666667
1711.549194	9290.000000
1712.554457	9247.666667
1713.559351	9239.333333
1714.563875	9341.000000
1715.568030	9319.000000
1716.571816	9159.666667
1717.575233	9265.666667
1718.578282	9375.666667
1719.580962	9260.000000
1720.583273	9258.333333
1721.585217	9335.000000
1722.586792	9389.000000
1723.588000	9368.666667
1724.588840	9295.000000
1725.589312	9324.333333
1726.589418	9363.333333
1727.589156	9412.666667
1728.588527	9334.666667
1729.587532	9338.000000
1730.586170	9385.333333
1731.584441	9171.000000
1732.582346	9160.333333
1733.579886	9200.333333
1734.577059	9194.000000
1735.573867	9145.333333
1736.570309	9072.333333
1737.566386	9042.000000
1738.562097	9128.000000
1739.557444	9050.333333
1740.552426	8967.000000
1741.547043	9002.333333
1742.541295	9000.000000
1743.535184	8929.666667
1744.528708	8922.000000
1745.521868	8861.666667
1746.514664	8822.000000
1747.507097	8780.333333
1748.499166	8822.333333
1749.490873	8723.000000
1750.482216	8730.000000
1751.473196	8757.333333
1752.463813	8801.666667
1753.454068	8679.666667
1754.443960	8762.000000
1755.433490	8637.666667
1756.422658	8632.333333
1757.411464	8606.333333
1758.399908	8656.000000
1759.387991	8726.333333
1760.375713	8744.666667
1761.363073	8734.000000
1762.350072	8610.666667
1763.336711	8658.666667
1764.322988	8599.666667
1765.308905	8665.333333
1766.294462	8672.000000
1767.279659	8569.000000
1768.264496	8558.666667
1769.248972	8493.000000
1770.233089	8556.666667
1771.216847	8440.000000
1772.200245	8505.333333
1773.183284	8447.333333
1774.165965	8400.000000
1775.148286	8340.000000
1776.130249	8449.666667
1777.111853	8288.000000
1778.093099	8361.000000
1779.073987	8225.666667
1780.054517	8252.000000
1781.034689	8131.000000
1782.014503	8117.000000
1782.993960	8031.666667
1783.973060	8078.333333
1784.951802	7998.666667
1785.930188	8045.666667
1786.908217	7983.666667
1787.885889	7893.000000
1788.863205	7894.000000
1789.840164	7918.333333
1790.816768	7814.000000
1791.793015	7856.333333
1792.768907	7850.333333
1793.744443	7844.333333
1794.719624	7788.000000
1795.694449	7884.333333
1796.668919	7903.333333
1797.643035	7897.666667
1798.616795	7829.333333
1799.590201	7926.666667
1800.563253	7932.000000
1801.535950	7885.333333
1802.508294	7850.333333
1803.480283	7875.000000
1804.451919	7916.333333
1805.423201	7950.000000
1806.394129	7910.666667
1807.364705	7929.000000
1808.334927	7860.333333
1809.304796	7932.333333
1810.274313	7875.333333
1811.243477	7796.000000
1812.212288	7809.333333
1813.180747	7806.333333
1814.148855	7811.333333
1815.116610	7765.666667
1816.084013	7743.000000
1817.051065	7837.000000
1818.017766	7737.333333
1818.984115	7710.666667
1819.950113	7728.000000
1820.915760	7648.000000
1821.881057	7730.000000
1822.846003	7635.000000
1823.810598	7611.333333
1824.774843	7637.000000
1825.738738	7589.333333
1826.702283	7500.666667
1827.665479	7633.666667
1828.628324	7476.666667
1829.590821	7474.000000
1830.552968	7497.333333
1831.514765	7441.000000
1832.476214	7442.666667
1833.437314	7479.666667
1834.398066	7368.333333
1835.358469	7365.333333
1836.318524	7383.333333
1837.278230	7368.000000
1838.237589	7411.666667
1839.196600	7408.000000
1840.155263	7388.666667
1841.113578	7412.000000
1842.071547	7409.333333
1843.029168	7432.333333
1843.986442	7405.000000
1844.943369	7451.666667
1845.899950	7398.666667
1846.856184	7408.333333
1847.812072	7435.333333
1848.767614	7438.666667
1849.722809	7432.666667
1850.677659	7334.000000
1851.632163	7440.333333
1852.586322	7440.333333
1853.540135	7452.333333
1854.493603	7475.000000
1855.446726	7444.333333
1856.399504	7420.333333
1857.351937	7387.666667
1858.304026	7263.333333
1859.255770	7310.000000
1860.207170	7290.000000
1861.158227	7253.333333
1862.108939	7249.000000
1863.059307	7179.333333
1864.009332	7111.666667
1864.959013	7151.666667
1865.908351	7060.000000
1866.857346	7139.333333
1867.805998	7076.000000
1868.754307	6993.333333
1869.702274	6986.000000
1870.649898	6999.000000
1871.597180	7034.666667
1872.544119	6907.333333
1873.490717	6892.000000
1874.436973	6927.333333
1875.382887	6894.000000
1876.328459	6881.666667
1877.273691	6809.000000
1878.218581	6871.000000
1879.163130	6826.666667
1880.107338	6831.666667
1881.051205	6862.000000
1881.994732	6856.000000
1882.937919	6878.333333
1883.880765	6925.666667
1884.823271	6837.000000
1885.765437	6848.666667
1886.707264	6886.666667
1887.648750	6857.333333
1888.589898	6886.000000
1889.530706	6934.333333
1890.471175	6894.666667
1891.411305	6885.666667
1892.351096	6893.333333
1893.290548	6930.666667
1894.229662	6957.666667
1895.168438	6897.000000
1896.106876	6912.000000
1897.044975	6908.666667
1897.982737	6827.333333
1898.920160	6884.333333
1899.857247	6850.000000
1900.793996	6745.000000
1901.730407	6758.333333
1902.666482	6786.333333
1903.602219	6650.333333
1904.537620	6674.333333
1905.472685	6655.000000
1906.407412	6566.000000
1907.341804	6607.666667
1908.275859	6563.000000
1909.209579	6469.666667
1910.142962	6516.000000
1911.076010	6449.333333
1912.008722	6396.333333
1912.941099	6408.333333
1913.873141	6347.666667
1914.804848	6370.333333
1915.736219	6279.333333
1916.667256	6422.666667
1917.597959	6353.000000
1918.528327	6329.333333
1919.458360	6248.666667
1920.388060	6263.333333
1921.317426	6229.000000
1922.246457	6231.000000
1923.175156	6278.000000
1924.103520	6276.333333
1925.031552	6256.000000
1925.959250	6305.666667
1926.886615	6339.000000
1927.813647	6272.666667
1928.740346	6217.666667
1929.666713	6290.000000
1930.592748	6304.333333
1931.518450	6253.333333
1932.443820	6258.333333
1933.368858	6323.666667
1934.293564	6256.333333
1935.217939	6257.666667
1936.141982	6270.333333
1937.065694	6232.666667
1937.989074	6196.333333
1938.912124	6144.666667
1939.834842	6162.666667
1940.757230	6148.000000
1941.679287	6122.333333
1942.601014	6168.000000
1943.522411	6039.000000
1944.443477	6121.000000
1945.364214	6128.000000
1946.284621	5992.666667
1947.204698	6029.666667
1948.124445	5974.333333
1949.043863	5942.333333
1949.962952	5895.000000
1950.881712	5888.333333
1951.800143	5901.666667
1952.718245	5790.333333
1953.636019	5812.333333
1954.553464	5773.666667
1955.470581	5782.000000
1956.387369	5729.666667
1957.303830	5735.000000
1958.219963	5687.666667
1959.135768	5758.333333
1960.051246	5735.000000
1960.966396	5723.333333
1961.881219	5769.333333
1962.795715	5698.333333
1963.709883	5703.333333
1964.623726	5754.000000
1965.537241	5724.333333
1966.450430	5812.000000
1967.363293	5774.333333
1968.275829	5804.666667
1969.188040	5773.000000
1970.099924	5782.333333
1971.011483	5723.000000
1971.922716	5757.333333
1972.833624	5765.333333
1973.744206	5796.000000
1974.654464	5718.666667
1975.564396	5716.000000
1976.474004	5772.666667
1977.383286	5733.000000
1978.292245	5743.666667
1979.200878	5725.000000
1980.109188	5656.333333
1981.017174	5646.000000
1981.924835	5675.333333
1982.832173	5676.666667
1983.739187	5570.333333
1984.645878	5620.666667
1985.552245	5582.000000
1986.458289	5644.666667
1987.364010	5532.666667
1988.269408	5480.333333
1989.174484	5425.666667
1990.079236	5446.000000
1990.983667	5443.666667
1991.887775	5382.666667
1992.791561	5365.333333
1993.695024	5357.000000
1994.598166	5363.000000
1995.500986	5366.666667
1996.403485	5379.666667
1997.305662	5424.666667
1998.207518	5267.333333
1999.109053	5299.333333
2000.010267	5261.333333
2000.911160	5335.666667
2001.811732	5350.333333
2002.711984	5309.000000
2003.611915	5259.666667
2004.511526	5276.666667
2005.410817	5309.333333
2006.309788	5339.666667
2007.208439	5334.333333
2008.106771	5318.333333
2009.004783	5395.666667
2009.902475	5362.333333
2010.799849	5351.666667
2011.696903	5370.666667
2012.593638	5312.000000
2013.490055	5322.666667
2014.386153	5371.666667
2015.281932	5304.666667
2016.177394	5353.666667
2017.072536	5293.666667
2017.967361	5347.333333
2018.861868	5291.000000
2019.756057	5248.333333
2020.649929	5284.000000
2021.543483	5298.000000
2022.436720	5201.000000
2023.329639	5294.666667
2024.222241	5181.333333
2025.114527	5105.333333
2026.006496	5099.333333
2026.898148	5174.000000
2027.789484	5145.000000
2028.680503	5047.666667
2029.571206	5032.333333
2030.461594	5043.666667
2031.351665	4997.333333
2032.241420	4962.333333
2033.130860	4934.666667
2034.019985	4884.666667
2034.908794	4883.000000
2035.797288	4830.666667
2036.685467	4837.666667
2037.573331	4841.666667
2038.460880	4799.000000
2039.348115	4876.666667
2040.235035	4846.666667
2041.121641	4920.000000
2042.007933	4902.000000
2042.893911	4911.666667
2043.779575	4937.666667
2044.664925	4915.333333
2045.549961	4910.666667
2046.434685	4875.666667
2047.319094	4854.666667
2048.203191	4945.666667
2049.086975	4919.000000
2049.970445	4927.000000
2050.853603	4896.666667
2051.736449	4920.333333
2052.618982	4893.333333
2053.501202	4930.333333
2054.383111	4869.333333
2055.264707	4948.666667
2056.145991	4874.333333
2057.026964	4896.666667
2057.907625	4839.666667
2058.787975	4853.666667
2059.668013	4877.666667
2060.547741	4858.666667
2061.427157	4828.333333
2062.306262	4760.666667
2063.185056	4791.666667
2064.063540	4735.333333
2064.941714	4720.333333
2065.819577	4764.000000
2066.697130	4685.666667
2067.574372	4594.666667
2068.451305	4636.666667
2069.327928	4599.666667
2070.204242	4602.333333
2071.080246	4594.000000
2071.955940	4556.000000
2072.831326	4483.000000
2073.706402	4488.666667
2074.581170	4518.000000
2075.455628	4493.333333
2076.329778	4473.666667
2077.203620	4476.333333
2078.077153	4450.000000
2078.950378	4504.000000
2079.823294	4491.333333
2080.695903	4505.333333
2081.568204	4445.666667
2082.440197	4467.333333
2083.311883	4506.000000
2084.183261	4481.333333
2085.054333	4517.666667
2085.925097	4496.000000
2086.795554	4567.000000
2087.665704	4544.333333
2088.535547	4545.666667
2089.405084	4549.000000
2090.274315	4533.666667
2091.143239	4542.666667
2092.011857	4502.000000
2092.880169	4508.000000
2093.748175	4441.333333
2094.615875	4506.666667
2095.483270	4513.666667
2096.350360	4464.666667
2097.217144	4471.333333
2098.083622	4440.000000
2098.949796	4429.666667
2099.815665	4425.666667
2100.681229	4351.666667
2101.546489	4420.333333
2102.411444	4397.666667
2103.276094	4367.333333
2104.140441	4300.666667
2105.004483	4288.000000
2105.868222	4246.333333
2106.731656	4298.666667
2107.594787	4214.666667
2108.457614	4213.666667
2109.320138	4284.666667
2110.182359	4253.666667
2111.044277	4250.666667
2111.905891	4291.666667
2112.767203	4231.333333
2113.628212	4215.333333
2114.488919	4250.333333
2115.349323	4316.000000
2116.209424	4256.666667
2117.069224	4273.666667
2117.928721	4226.000000
2118.787917	4284.666667
2119.646811	4289.333333
2120.505403	4259.666667
2121.363694	4259.000000
2122.221683	4272.000000
2123.079371	4301.666667
2123.936758	4282.666667
2124.793844	4282.000000
2125.650630	4295.666667
2126.507114	4335.000000
2127.363298	4279.333333
2128.219182	4267.333333
2129.074765	4282.000000
2129.930048	4249.333333
2130.785032	4215.000000
2131.639715	4154.666667
2132.494099	4183.000000
2133.348183	4116.000000
2134.201967	4133.000000
2135.055452	4113.666667
2135.908638	4095.333333
2136.761525	4106.666667
2137.614113	4088.333333
2138.466403	4104.000000
2139.318393	4015.000000
2140.170085	3996.333333
2141.021479	4014.666667
2141.872574	4013.000000
2142.723371	3933.333333
2143.573871	3936.333333
2144.424072	3931.000000
2145.273976	3981.000000
2146.123582	3903.000000
2146.972891	3926.000000
2147.821902	3946.333333
2148.670616	3872.000000
2149.519033	3933.000000
2150.367153	3947.000000
2151.214976	3922.000000
2152.062503	3940.333333
2152.909733	3948.333333
2153.756667	3930.666667
2154.603304	4019.666667
2155.449646	3913.666667
2156.295691	4002.666667
2157.141441	3972.000000
2157.986894	3954.666667
2158.832052	3996.333333
2159.676915	3944.000000
2160.521482	3917.666667
2161.365755	3944.333333
2162.209732	3966.333333
2163.053414	3960.666667
2163.896801	3914.666667
2164.739894	3877.000000
2165.582692	3918.000000
2166.425196	3923.333333
2167.267405	3918.000000
2168.109320	3849.333333
2168.950941	3885.000000
2169.792269	3825.666667
2170.633302	3824.000000
2171.474042	3841.333333
2172.314489	3798.000000
2173.154642	3753.000000
2173.994502	3755.000000
2174.834068	3722.333333
2175.673342	3763.000000
2176.512323	3704.666667
2177.351011	3707.000000
2178.189407	3656.333333
2179.027510	3642.333333
2179.865321	3654.000000
2180.702840	3646.333333
2181.540066	3621.666667
2182.377001	3694.000000
2183.213644	3675.666667
2184.049995	3624.333333
2184.886055	3596.333333
2185.721823	3666.333333
2186.557300	3622.666667
2187.392486	3664.666667
2188.227381	3721.000000
2189.061985	3684.333333
2189.896298	3737.333333
2190.730320	3661.666667
2191.564052	3710.000000
2192.397494	3720.333333
2193.230646	3683.000000
2194.063507	3753.000000
2194.896078	3747.000000
2195.728360	3732.666667
2196.560351	3725.666667
2197.392053	3706.666667
2198.223466	3728.333333
2199.054589	3707.333333
2199.885424	3708.666667
