200.151048	40266.000000
201.758777	40036.333333
203.365815	40082.666667
204.972162	40080.333333
206.577820	40099.333333
208.182787	40021.333333
209.787065	39793.333333
211.390653	39697.333333
212.993553	39767.000000
214.595765	39771.333333
216.197289	39771.333333
217.798125	39658.333333
219.398274	39815.666667
220.997737	39625.666667
222.596513	39538.666667
224.194603	39555.333333
225.792008	39549.666667
227.388728	39424.333333
228.984763	39381.666667
230.580114	39230.333333
232.174781	39360.000000
233.768765	39291.333333
235.362065	39159.666667
236.954683	39264.666667
238.546619	39182.000000
240.137872	39147.333333
241.728445	38951.000000
243.318336	38727.666667
244.907546	38877.666667
246.496076	38659.333333
248.083926	38696.000000
249.671097	38552.666667
251.257589	38496.333333
252.843402	38332.333333
254.428536	38081.000000
256.012993	38289.333333
257.596772	38295.333333
259.179874	38269.666667
260.762300	37897.333333
262.344049	37976.666667
263.925122	37837.666667
265.505519	37891.000000
267.085241	37848.333333
268.664289	37897.000000
270.242662	37808.333333
271.820361	37785.000000
273.397387	37891.666667
274.973740	37866.333333
276.549419	37814.333333
278.124426	37977.000000
279.698762	37954.000000
281.272425	37883.666667
282.845417	37941.000000
284.417739	37921.333333
285.989390	37913.333333
287.560371	38054.000000
289.130682	38049.333333
290.700324	37944.000000
292.269297	38098.000000
293.837602	37945.333333
295.405238	37956.666667
296.972207	37781.666667
298.538508	37796.333333
300.104142	37943.666667
301.669110	37556.000000
303.233411	37676.333333
304.797047	37307.333333
306.360017	37388.000000
307.922322	37491.666667
309.483963	37142.333333
311.044939	37086.333333
312.605252	37024.333333
314.164900	36800.666667
315.723886	36691.666667
317.282209	36672.666667
318.839870	36698.000000
320.396868	36633.666667
321.953205	36576.333333
323.508881	36420.666667
325.063896	36517.333333
326.618251	36333.333333
328.171945	36559.666667
329.724980	36405.666667
331.277356	36508.333333
332.829072	36505.333333
334.380131	36299.000000
335.930530	36500.333333
337.480273	36294.333333
339.029357	36393.000000
340.577785	36410.333333
342.125556	36405.000000
343.672671	36386.000000
345.219130	36369.333333
346.764933	36325.000000
348.310081	36414.333333
349.854575	36132.666667
351.398414	36309.000000
352.941599	36264.666667
354.484130	36218.000000
356.026008	36137.666667
357.567234	36138.666667
359.107807	36064.666667
360.647727	35896.666667
362.186996	35870.000000
363.725614	36005.333333
365.263580	35903.333333
366.800896	35733.333333
368.337562	35781.000000
369.873578	35664.666667
371.408944	35687.333333
372.943661	35576.666667
374.477730	35652.333333
376.011150	35719.666667
377.543922	35682.000000
379.076046	35707.666667
380.607523	35641.000000
382.138353	35507.000000
383.668537	35738.333333
385.198075	35542.666667
386.726966	35767.333333
388.255213	35436.333333
389.782814	35601.000000
391.309770	35541.666667
392.836083	35736.666667
394.361751	35533.666667
395.886776	35505.333333
397.411157	35800.666667
398.934896	35647.333333
400.457992	35722.000000
401.980446	35669.333333
403.502258	35768.000000
405.023429	35654.000000
406.543959	35906.000000
408.063849	35634.666667
409.583098	35831.000000
411.101707	35940.000000
412.619677	36037.000000
414.137007	36051.000000
415.653699	36192.333333
417.169752	36292.000000
418.685167	36586.666667
420.199945	36577.666667
421.714085	36731.333333
423.227588	37006.666667
424.740454	37092.333333
426.252684	36942.000000
427.764279	37031.666667
429.275238	37092.333333
430.785561	36967.666667
432.295250	36918.000000
433.804304	36683.333333
435.312725	36482.333333
436.820511	36422.333333
438.327664	36163.333333
439.834185	35902.666667
441.340072	35815.666667
442.845327	35785.000000
444.349951	35717.000000
445.853942	35548.333333
447.357303	35587.666667
448.860033	35524.000000
450.362132	35121.000000
451.863601	35193.000000
453.364440	35031.333333
454.864650	34809.000000
456.364231	34830.333333
457.863183	34598.666667
459.361507	34484.333333
460.859203	34345.000000
462.356271	34277.666667
463.852712	34067.666667
465.348526	34003.666667
466.843714	33837.000000
468.338275	33830.666667
469.832210	33848.000000
471.325520	33757.333333
472.818205	33738.333333
474.310265	33502.333333
475.801700	33415.666667
477.292512	33421.666667
478.782700	33444.666667
480.272264	33397.000000
481.761205	33371.333333
483.249524	33200.000000
484.737221	33057.666667
486.224295	32956.333333
487.710748	33011.000000
489.196579	32854.333333
490.681790	32795.000000
492.166380	33019.000000
493.650350	32872.666667
495.133700	32989.333333
496.616431	32855.666667
498.098542	32797.000000
499.580035	32851.000000
501.060909	32780.333333
502.541165	32782.666667
504.020804	32650.333333
505.499825	32685.000000
506.978228	32466.333333
508.456016	32512.333333
509.933186	32314.000000
511.409741	32323.666667
512.885680	32275.666667
514.361004	32205.666667
515.835713	32308.333333
517.309807	32320.333333
518.783287	32255.000000
520.256153	32064.333333
521.728406	32300.000000
523.200045	32230.333333
524.671071	32115.333333
526.141485	32183.000000
527.611287	32139.000000
529.080476	32080.666667
530.549054	32023.333333
532.017021	32031.666667
533.484378	31981.666667
534.951123	31778.666667
536.417259	31799.000000
537.882785	31863.000000
539.347701	31758.333333
540.812008	31727.666667
542.275707	31743.000000
543.738797	31652.666667
545.201279	31691.000000
546.663153	31735.333333
548.124420	31817.666667
549.585080	31816.000000
551.045133	31960.333333
552.504579	31934.000000
553.963420	31921.333333
555.421655	31952.333333
556.879285	31890.333333
558.336309	31993.000000
559.792729	31821.333333
561.248545	32142.000000
562.703756	31885.666667
564.158364	32015.000000
565.612369	31866.000000
567.065770	32133.000000
568.518569	32067.000000
569.970766	32034.666667
571.422361	32352.000000
572.873354	32245.000000
574.323745	32431.333333
575.773536	32542.333333
577.222726	32736.333333
578.671316	32444.000000
580.119306	32592.666667
581.566696	32363.000000
583.013487	32333.000000
584.459679	32126.000000
585.905273	32253.333333
587.350268	32163.000000
588.794665	32072.000000
590.238465	32035.666667
591.681667	32057.333333
593.124272	32065.000000
594.566281	31844.333333
596.007694	31676.666667
597.448510	31541.666667
598.888731	31510.000000
600.328357	31181.666667
601.767388	31200.666667
603.205824	31180.666667
604.643666	31156.000000
606.080914	30977.666667
607.517568	30875.666667
608.953629	31009.000000
610.389097	30883.666667
611.823972	30750.000000
613.258255	30766.333333
614.691946	30874.666667
616.125046	30720.666667
617.557554	30602.666667
618.989471	30330.333333
620.420798	30208.333333
621.851534	29965.000000
623.281680	30115.666667
624.711237	29953.000000
626.140204	29807.333333
627.568582	29643.666667
628.996372	29492.000000
630.423573	29596.000000
631.850186	29558.666667
633.276211	29547.333333
634.701650	29360.333333
636.126501	29439.000000
637.550765	29364.000000
638.974443	29531.333333
640.397535	29281.333333
641.820041	29383.333333
643.241961	29150.000000
644.663297	29351.666667
646.084048	29228.000000
647.504214	29241.666667
648.923796	29164.666667
650.342795	28920.333333
651.761210	29009.666667
653.179041	28773.666667
654.596290	28804.000000
656.012957	28717.000000
657.429041	28930.000000
658.844543	28760.666667
660.259464	28868.666667
661.673804	28900.333333
663.087563	28807.000000
664.500741	28910.666667
665.913339	28755.666667
667.325357	28737.000000
668.736795	28622.000000
670.147654	28669.333333
671.557934	28421.333333
672.967636	28587.000000
674.376759	28506.666667
675.785304	28562.333333
677.193271	28564.333333
678.600661	28232.333333
680.007474	28370.666667
681.413711	28386.000000
682.819370	28379.666667
684.224454	28281.000000
685.628962	28127.000000
687.032895	28257.333333
688.436252	28094.000000
689.839034	28052.000000
691.241242	28120.333333
692.642876	28139.333333
694.043936	27930.000000
695.444422	27854.000000
696.844336	27865.333333
698.243676	27931.000000
699.642443	27832.333333
701.040639	27842.000000
702.438262	27713.666667
703.835313	27756.666667
705.231794	27793.333333
706.627703	27741.000000
708.023041	27735.333333
709.417810	27555.333333
710.812008	27697.000000
712.205636	27660.000000
713.598694	27588.333333
714.991184	27543.333333
716.383105	27343.000000
717.774457	27528.666667
719.165241	27568.000000
720.555457	27444.333333
721.945105	27426.000000
723.334187	27519.666667
724.722701	27455.000000
726.110648	27540.333333
727.498030	27500.000000
728.884845	27427.333333
730.271094	27293.333333
731.656778	27367.333333
733.041897	27114.333333
734.426451	27392.333333
735.810441	27263.000000
737.193866	27038.666667
738.576728	27172.666667
739.959026	27042.666667
741.340760	27025.666667
742.721932	27120.333333
744.102541	27097.666667
745.482588	26949.000000
746.862073	26948.000000
748.240996	26994.000000
749.619358	26926.666667
750.997158	26848.666667
752.374398	26828.333333
753.751077	26903.666667
755.127197	26875.333333
756.502756	26805.000000
757.877756	26961.666667
759.252196	26780.333333
760.626078	26792.000000
761.999400	26721.666667
763.372165	26595.666667
764.744371	26663.000000
766.116020	26640.000000
767.487111	26517.000000
768.857646	26511.000000
770.227623	26492.333333
771.597044	26346.666667
772.965908	26380.666667
774.334217	26526.666667
775.701970	26326.000000
777.069168	26325.666667
778.435811	26193.333333
779.801899	26088.666667
781.167433	26168.333333
782.532412	25904.333333
783.896838	26099.000000
785.260710	26120.666667
786.624029	25990.333333
787.986796	25963.666667
789.349009	25846.333333
790.710671	25977.333333
792.071780	25979.666667
793.432338	25810.000000
794.792344	25936.000000
796.151799	25795.333333
797.510704	25782.000000
798.869058	25689.333333
800.226862	25641.333333
801.584116	25640.000000
802.940820	25727.000000
804.296975	25833.333333
805.652581	25691.333333
807.007638	25597.000000
808.362147	25517.000000
809.716108	25590.333333
811.069521	25592.333333
812.422387	25667.000000
813.774705	25634.666667
815.126476	25544.000000
816.477701	25516.000000
817.828380	25516.333333
819.178512	25349.000000
820.528099	25333.333333
821.877140	25465.000000
823.225637	25295.000000
824.573588	25338.000000
825.920995	25277.333333
827.267857	25396.000000
828.614176	25249.333333
829.959951	25256.666667
831.305183	25206.666667
832.649871	25280.333333
833.994017	25058.000000
835.337620	25252.000000
836.680681	25243.000000
838.023201	25107.333333
839.365178	24958.666667
840.706614	24928.000000
842.047510	25000.333333
843.387864	25098.000000
844.727678	24991.000000
846.066952	25146.000000
847.405687	25125.333333
848.743881	25186.000000
850.081537	25183.666667
851.418653	25214.333333
852.755231	25161.000000
854.091270	25162.000000
855.426771	25027.000000
856.761735	25170.333333
858.096160	25002.333333
859.430049	25215.666667
860.763401	24959.000000
862.096216	24964.333333
863.428495	24859.000000
864.760237	24739.333333
866.091444	24714.333333
867.422115	24903.333333
868.752252	24584.000000
870.081853	24474.333333
871.410919	24582.333333
872.739452	24501.666667
874.067450	24468.666667
875.394914	24455.666667
876.721845	24445.666667
878.048243	24335.666667
879.374108	24354.333333
880.699440	24326.333333
882.024240	24351.000000
883.348508	24258.333333
884.672244	24000.333333
885.995449	24256.666667
887.318122	24079.333333
888.640265	24028.666667
889.961877	24100.333333
891.282959	23983.333333
892.603510	23873.333333
893.923532	23952.666667
895.243024	24020.333333
896.561987	23729.333333
897.880422	23817.666667
899.198327	23795.666667
900.515705	23684.333333
901.832554	23603.000000
903.148875	23653.000000
904.464669	23651.000000
905.779936	23691.666667
907.094676	23555.000000
908.408889	23545.000000
909.722576	23600.666667
911.035737	23624.000000
912.348371	23749.666667
913.660481	23834.000000
914.972065	23885.666667
916.283124	23875.666667
917.593659	23811.333333
918.903669	23878.666667
920.213155	23871.333333
921.522117	23869.000000
922.830556	23807.000000
924.138471	23802.666667
925.445864	23780.666667
926.752733	23708.000000
928.059081	23756.666667
929.364906	23777.000000
930.670209	23932.000000
931.974991	23950.333333
933.279251	24063.333333
934.582990	24041.666667
935.886209	24107.666667
937.188907	24326.000000
938.491085	24519.000000
939.792743	24679.333333
941.093881	24952.333333
942.394500	25149.666667
943.694600	25469.333333
944.994181	25729.000000
946.293243	26323.333333
947.591787	26865.666667
948.889813	27419.000000
950.187322	28125.333333
951.484313	28918.666667
952.780787	29890.666667
954.076744	30928.000000
955.372184	31732.000000
956.667108	32236.000000
957.961516	32847.333333
959.255409	32746.000000
960.548785	32279.666667
961.841647	31717.666667
963.133993	30490.333333
964.425825	29343.333333
965.717142	28433.666667
967.007946	27352.666667
968.298235	26290.000000
969.588011	25285.333333
970.877273	24630.333333
972.166023	24112.000000
973.454259	23652.000000
974.741984	23177.666667
976.029196	22897.333333
977.315895	22920.333333
978.602084	22631.000000
979.887761	22403.666667
981.172926	22443.000000
982.457581	22286.333333
983.741725	22129.333333
985.025359	22106.000000
986.308483	22058.666667
987.591097	22106.333333
988.873202	21888.000000
990.154797	21867.000000
991.435883	21804.000000
992.716461	21924.333333
993.996530	21828.000000
995.276091	21711.666667
996.555144	21876.000000
997.833690	21910.333333
999.111728	21944.666667
1000.389259	21888.000000
1001.666283	21979.000000
1002.942800	21955.000000
1004.218812	21850.666667
1005.494317	21756.333333
1006.769317	21861.666667
1008.043811	21736.333333
1009.317799	21683.333333
1010.591283	21597.333333
1011.864263	21805.000000
1013.136737	21682.333333
1014.408708	21762.000000
1015.680175	21767.000000
1016.951138	21652.000000
1018.221598	21686.333333
1019.491554	21626.000000
1020.761008	21805.000000
1022.029959	21546.333333
1023.298408	21686.666667
1024.566355	21750.333333
1025.833800	21605.333333
1027.100744	21775.666667
1028.367187	21759.666667
1029.633128	21580.666667
1030.898569	21773.333333
1032.163509	21510.666667
1033.427949	21569.333333
1034.691890	21524.333333
1035.955330	21785.333333
1037.218271	21653.000000
1038.480714	21655.333333
1039.742657	21775.000000
1041.004101	21776.333333
1042.265048	21654.333333
1043.525496	21657.000000
1044.785446	21655.000000
1046.044899	21672.333333
1047.303855	21740.333333
1048.562313	21529.666667
1049.820275	21513.666667
1051.077740	21468.333333
1052.334709	21488.666667
1053.591182	21407.000000
1054.847160	21337.333333
1056.102641	21366.333333
1057.357628	21510.666667
1058.612120	21464.333333
1059.866117	21422.000000
1061.119619	21501.333333
1062.372628	21460.000000
1063.625142	21600.666667
1064.877163	21558.333333
1066.128691	21684.333333
1067.379725	21680.666667
1068.630267	21655.333333
1069.880316	21688.666667
1071.129872	21524.000000
1072.378937	21389.333333
1073.627509	21347.666667
1074.875590	21224.333333
1076.123180	21116.333333
1077.370279	20990.666667
1078.616887	20954.333333
1079.863004	20872.000000
1081.108631	20709.333333
1082.353768	20659.666667
1083.598415	20491.666667
1084.842573	20286.666667
1086.086241	20278.333333
1087.329421	20105.000000
1088.572111	20103.666667
1089.814314	19969.666667
1091.056028	19873.000000
1092.297253	19875.333333
1093.537992	19655.333333
1094.778242	19719.666667
1096.018006	19685.666667
1097.257282	19660.000000
1098.496072	19635.666667
1099.734376	19587.000000
1100.972193	19630.000000
1102.209524	19548.666667
1103.446370	19490.333333
1104.682730	19573.666667
1105.918604	19419.000000
1107.153994	19472.666667
1108.388900	19483.666667
1109.623320	19405.333333
1110.857257	19313.666667
1112.090710	19272.666667
1113.323679	19089.333333
1114.556164	19083.333333
1115.788167	19130.333333
1117.019686	19073.666667
1118.250723	19028.000000
1119.481278	18980.333333
1120.711350	18896.666667
1121.940940	18958.000000
1123.170049	19004.333333
1124.398676	18933.000000
1125.626823	18828.333333
1126.854488	18831.666667
1128.081672	18923.000000
1129.308376	18921.333333
1130.534600	18719.333333
1131.760345	18730.666667
1132.985609	18732.666667
1134.210394	18694.333333
1135.434700	18703.333333
1136.658527	18704.666667
1137.881875	18577.000000
1139.104745	18547.333333
1140.327136	18513.000000
1141.549050	18632.333333
1142.770486	18689.000000
1143.991445	18557.000000
1145.211926	18484.000000
1146.431931	18539.333333
1147.651459	18566.666667
1148.870510	18398.333333
1150.089086	18405.666667
1151.307185	18476.000000
1152.524808	18494.666667
1153.741957	18462.666667
1154.958630	18350.666667
1156.174828	18395.666667
1157.390551	18366.333333
1158.605800	18344.666667
1159.820574	18377.666667
1161.034875	18302.666667
1162.248702	18321.666667
1163.462055	18342.666667
1164.674936	18242.000000
1165.887343	18281.666667
1167.099277	18155.000000
1168.310739	18243.333333
1169.521729	18243.000000
1170.732247	18157.333333
1171.942293	18122.666667
1173.151867	18229.000000
1174.360970	18168.666667
1175.569602	18140.333333
1176.777764	18077.666667
1177.985454	18047.333333
1179.192675	18015.333333
1180.399425	18008.000000
1181.605706	18044.666667
1182.811517	17771.666667
1184.016859	17779.333333
1185.221731	17769.666667
1186.426135	17716.000000
1187.630070	17798.000000
1188.833537	17693.333333
1190.036535	17655.333333
1191.239066	17480.666667
1192.441129	17549.333333
1193.642725	17587.666667
1194.843853	17500.000000
1196.044515	17506.333333
1197.244710	17518.666667
1198.444438	17527.000000
1199.643701	17545.666667
1200.842497	17550.333333
1202.040827	17492.666667
1203.238693	17500.000000
1204.436092	17498.666667
1205.633027	17501.333333
1206.829497	17413.666667
1208.025503	17342.333333
1209.221044	17224.333333
1210.416122	17311.333333
1211.610735	17241.333333
1212.804885	17223.000000
1213.998572	17208.000000
1215.191795	17133.333333
1216.384556	17208.333333
1217.576854	17093.666667
1218.768689	17145.333333
1219.960063	17090.666667
1221.150974	17049.000000
1222.341424	17052.000000
1223.531413	17031.000000
1224.720940	17020.333333
1225.910006	17018.000000
1227.098612	17125.666667
1228.286757	16972.666667
1229.474442	17129.666667
1230.661667	17276.000000
1231.848432	17139.666667
1233.034738	17127.000000
1234.220584	17330.666667
1235.405971	17215.333333
1236.590900	17237.000000
1237.775369	17284.666667
1238.959381	17318.333333
1240.142934	17320.333333
1241.326029	17349.666667
1242.508667	17190.666667
1243.690848	17319.000000
1244.872571	17183.000000
1246.053837	17275.333333
1247.234646	17273.333333
1248.414999	17133.000000
1249.594896	17194.333333
1250.774337	17149.000000
1251.953322	17007.666667
1253.131851	16967.333333
1254.309925	16977.333333
1255.487544	16842.333333
1256.664708	16828.333333
1257.841417	16869.000000
1259.017673	16881.333333
1260.193473	16896.666667
1261.368820	16901.333333
1262.543714	16888.666667
1263.718154	16914.333333
1264.892140	16892.333333
1266.065674	16803.333333
1267.238755	16941.666667
1268.411383	16813.333333
1269.583559	16886.666667
1270.755283	16739.666667
1271.926555	16881.333333
1273.097375	16858.000000
1274.267744	16847.000000
1275.437662	16739.333333
1276.607129	16660.666667
1277.776145	16826.666667
1278.944711	16645.666667
1280.112827	16627.666667
1281.280492	16505.666667
1282.447708	16503.000000
1283.614474	16401.666667
1284.780791	16486.000000
1285.946659	16479.666667
1287.112078	16368.333333
1288.277048	16283.000000
1289.441570	16193.333333
1290.605644	16207.000000
1291.769270	16137.000000
1292.932448	16152.666667
1294.095178	16002.333333
1295.257461	16012.333333
1296.419298	16002.000000
1297.580687	15889.333333
1298.741630	15885.333333
1299.902126	15871.000000
1301.062177	15957.000000
1302.221781	15912.000000
1303.380940	15921.000000
1304.539653	15843.000000
1305.697921	15898.333333
1306.855744	15864.666667
1308.013123	15994.333333
1309.170056	15803.333333
1310.326546	15886.666667
1311.482591	15810.000000
1312.638193	15827.333333
1313.793350	15787.333333
1314.948065	15823.333333
1316.102336	15869.666667
1317.256164	15672.333333
1318.409550	15705.000000
1319.562493	15591.333333
1320.714993	15629.666667
1321.867052	15671.333333
1323.018668	15506.333333
1324.169843	15520.666667
1325.320577	15503.666667
1326.470870	15428.333333
1327.620721	15424.000000
1328.770132	15507.333333
1329.919102	15188.666667
1331.067632	15353.000000
1332.215722	15230.000000
1333.363372	15272.333333
1334.510582	15265.333333
1335.657353	15274.666667
1336.803685	15344.333333
1337.949578	15354.000000
1339.095032	15346.000000
1340.240048	15345.000000
1341.384625	15328.666667
1342.528764	15169.666667
1343.672466	15302.666667
1344.815729	15160.000000
1345.958556	15172.333333
1347.100945	15147.666667
1348.242897	15074.000000
1349.384413	15116.666667
1350.525492	15104.666667
1351.666134	14983.000000
1352.806341	15050.000000
1353.946111	15030.000000
1355.085446	14929.666667
1356.224346	14851.000000
1357.362810	14898.333333
1358.500840	14789.333333
1359.638434	14741.000000
1360.775594	14744.000000
1361.912320	14704.000000
1363.048612	14576.333333
1364.184469	14678.666667
1365.319893	14664.666667
1366.454884	14611.666667
1367.589441	14606.000000
1368.723566	14663.000000
1369.857257	14570.000000
1370.990516	14696.333333
1372.123343	14643.333333
1373.255737	14728.333333
1374.387699	14613.666667
1375.519230	14685.000000
1376.650329	14593.000000
1377.780997	14669.666667
1378.911234	14669.666667
1380.041040	14677.666667
1381.170416	14673.333333
1382.299361	14594.000000
1383.427875	14612.333333
1384.555960	14587.000000
1385.683615	14444.666667
1386.810841	14536.000000
1387.937637	14416.333333
1389.064004	14535.000000
1390.189942	14476.333333
1391.315451	14435.666667
1392.440532	14429.000000
1393.565185	14360.000000
1394.689409	14356.333333
1395.813206	14319.666667
1396.936575	14327.333333
1398.059517	14195.333333
1399.182032	14339.666667
1400.304119	14315.666667
1401.425780	14134.000000
1402.547014	14234.000000
1403.667822	14106.000000
1404.788204	14122.666667
1405.908160	14117.000000
1407.027690	14155.333333
1408.146795	14149.333333
1409.265474	14233.666667
1410.383728	14151.666667
1411.501558	14171.666667
1412.618963	14195.666667
1413.735943	14272.333333
1414.852499	14085.666667
1415.968632	14124.666667
1417.084340	14106.666667
1418.199625	14171.333333
1419.314486	14111.000000
1420.428925	14105.333333
1421.542940	14152.333333
1422.656533	14000.666667
1423.769703	14102.666667
1424.882451	14062.000000
1425.994777	14005.666667
1427.106680	14002.666667
1428.218163	13876.000000
1429.329223	13918.666667
1430.439863	13901.333333
1431.550081	13843.000000
1432.659879	13808.333333
1433.769256	13857.000000
1434.878212	13786.333333
1435.986749	13822.000000
1437.094865	13806.000000
1438.202562	13715.333333
1439.309839	13828.333333
1440.416696	13878.666667
1441.523135	13795.666667
1442.629154	13818.333333
1443.734755	13859.333333
1444.839937	13897.333333
1445.944701	13882.000000
1447.049047	13889.333333
1448.152975	14007.333333
1449.256485	13904.666667
1450.359577	13951.000000
1451.462253	13898.000000
1452.564511	13820.333333
1453.666352	13904.666667
1454.767777	13810.333333
1455.868785	13737.000000
1456.969377	13783.000000
1458.069553	13697.333333
1459.169313	13663.666667
1460.268658	13663.666667
1461.367587	13536.333333
1462.466101	13600.000000
1463.564200	13469.333333
1464.661884	13499.000000
1465.759153	13425.000000
1466.856008	13316.000000
1467.952449	13296.000000
1469.048476	13145.333333
1470.144089	13008.666667
1471.239288	13135.333333
1472.334074	12919.000000
1473.428447	12949.000000
1474.522407	12810.666667
1475.615955	12906.666667
1476.709089	12709.000000
1477.801812	12792.666667
1478.894122	12712.333333
1479.986020	12738.666667
1481.077506	12572.666667
1482.168581	12663.000000
1483.259245	12623.000000
1484.349498	12543.333333
1485.439339	12520.333333
1486.528770	12625.666667
1487.617790	12624.666667
1488.706400	12478.000000
1489.794600	12591.666667
1490.882390	12527.333333
1491.969771	12558.666667
1493.056742	12422.666667
1494.143303	12445.333333
1495.229456	12418.000000
1496.315199	12423.666667
1497.400534	12537.333333
1498.485460	12371.000000
1499.569978	12344.333333
1500.654088	12270.666667
1501.737790	12289.000000
1502.821085	12305.666667
1503.903972	12299.000000
1504.986451	12161.000000
1506.068524	12114.000000
1507.150189	12157.333333
1508.231448	12094.666667
1509.312301	12099.666667
1510.392747	12002.000000
1511.472787	12033.666667
1512.552422	11964.666667
1513.631650	12064.666667
1514.710473	11954.000000
1515.788891	11990.000000
1516.866904	11969.666667
1517.944512	11888.000000
1519.021715	11962.333333
1520.098513	11989.666667
1521.174908	11940.000000
1522.250898	11857.000000
1523.326485	11919.333333
1524.401667	11980.333333
1525.476447	11949.666667
1526.550823	11950.666667
1527.624796	11897.666667
1528.698365	11925.000000
1529.771533	12016.333333
1530.844298	11886.333333
1531.916660	11894.333333
1532.988620	11977.333333
1534.060179	11839.666667
1535.131336	11725.333333
1536.202091	11759.333333
1537.272445	11762.000000
1538.342398	11750.666667
1539.411950	11724.333333
1540.481101	11662.333333
1541.549851	11634.000000
1542.618202	11676.333333
1543.686152	11561.000000
1544.753702	11571.666667
1545.820853	11481.333333
1546.887604	11534.333333
1547.953955	11470.333333
1549.019908	11409.000000
1550.085461	11457.333333
1551.150616	11311.666667
1552.215372	11410.333333
1553.279730	11403.000000
1554.343690	11364.333333
1555.407252	11281.666667
1556.470415	11311.333333
1557.533182	11284.333333
1558.595551	11296.000000
1559.657522	11265.333333
1560.719097	11178.000000
1561.780275	11262.333333
1562.841056	11249.666667
1563.901441	11292.666667
1564.961429	11243.666667
1566.021022	11285.000000
1567.080219	11256.666667
1568.139020	11146.333333
1569.197425	11248.666667
1570.255436	11141.666667
1571.313051	11233.333333
1572.370271	11055.333333
1573.427097	11166.666667
1574.483528	11055.333333
1575.539565	11041.666667
1576.595208	11089.333333
1577.650457	10975.333333
1578.705312	10962.666667
1579.759774	10904.333333
1580.813842	10951.666667
1581.867517	10935.333333
1582.920799	10941.333333
1583.973689	10749.000000
1585.026186	10783.333333
1586.078290	10752.666667
1587.130002	10732.333333
1588.181323	10799.666667
1589.232251	10692.000000
1590.282788	10724.666667
1591.332933	10702.333333
1592.382688	10640.333333
1593.432051	10639.666667
1594.481023	10638.000000
1595.529605	10668.000000
1596.577796	10650.000000
1597.625597	10669.666667
1598.673007	10738.000000
1599.720028	10802.000000
1600.766660	10741.000000
1601.812901	10696.666667
1602.858753	10786.666667
1603.904217	10744.666667
1604.949291	10693.000000
1605.993976	10731.333333
1607.038273	10726.666667
1608.082182	10740.000000
1609.125702	10668.000000
1610.168834	10583.666667
1611.211579	10597.666667
1612.253935	10609.000000
1613.295905	10527.666667
1614.337487	10488.333333
1615.378682	10474.333333
1616.419490	10489.000000
1617.459912	10426.666667
1618.499946	10386.333333
1619.539595	10514.666667
1620.578858	10392.333333
1621.617734	10381.666667
1622.656225	10336.000000
1623.694330	10322.000000
1624.732050	10366.333333
1625.769385	10261.333333
1626.806334	10321.333333
1627.842899	10300.000000
1628.879079	10287.666667
1629.914875	10235.666667
1630.950286	10245.333333
1631.985314	10294.666667
1633.019957	10199.333333
1634.054217	10214.333333
1635.088093	10245.666667
1636.121586	10216.333333
1637.154696	10220.333333
1638.187423	10311.666667
1639.219767	10307.000000
1640.251728	10225.666667
1641.283307	10249.666667
1642.314504	10349.000000
1643.345319	10272.333333
1644.375751	10243.333333
1645.405803	10244.000000
1646.435472	10247.000000
1647.464761	10330.666667
1648.493668	10152.000000
1649.522194	10195.000000
1650.550340	10258.000000
1651.578105	10099.666667
1652.605490	10212.000000
1653.632494	10072.666667
1654.659119	10020.333333
1655.685363	9960.000000
1656.711228	9958.666667
1657.736714	9923.000000
1658.761820	10012.666667
1659.786547	9984.666667
1660.810895	9928.000000
1661.834865	9890.666667
1662.858456	9970.666667
1663.881668	9874.333333
1664.904503	9840.000000
1665.926959	9828.000000
1666.949038	9795.666667
1667.970739	9810.666667
1668.992062	9808.333333
1670.013008	9692.333333
1671.033577	9700.000000
1672.053770	9657.333333
1673.073585	9651.000000
1674.093024	9584.666667
1675.112086	9562.000000
1676.130773	9509.666667
1677.149083	9558.666667
1678.167017	9591.333333
1679.184576	9640.333333
1680.201760	9536.000000
1681.218568	9539.333333
1682.235001	9575.000000
1683.251059	9586.666667
1684.266742	9551.000000
1685.282051	9461.000000
1686.296985	9467.666667
1687.311546	9438.000000
1688.325732	9357.000000
1689.339544	9353.000000
1690.352983	9384.666667
1691.366048	9220.000000
1692.378740	9227.666667
1693.391058	9184.000000
1694.403004	9179.333333
1695.414577	9072.333333
1696.425778	9060.333333
1697.436606	9054.333333
1698.447061	9061.000000
1699.457145	8951.000000
1700.466857	8913.666667
1701.476197	8891.000000
1702.485166	8790.000000
1703.493763	8761.333333
1704.501989	8767.333333
1705.509844	8674.000000
1706.517328	8781.666667
1707.524442	8653.000000
1708.531185	8704.666667
1709.537558	8599.333333
1710.543561	8583.000000
1711.549194	8618.666667
1712.554457	8545.666667
1713.559351	8631.666667
1714.563875	8597.000000
1715.568030	8676.000000
1716.571816	8644.000000
1717.575233	8708.000000
1718.578282	8701.333333
1719.580962	8652.000000
1720.583273	8683.666667
1721.585217	8702.666667
1722.586792	8645.333333
1723.588000	8712.000000
1724.588840	8640.333333
1725.589312	8648.333333
1726.589418	8650.000000
1727.589156	8743.000000
1728.588527	8667.000000
1729.587532	8682.666667
1730.586170	8648.333333
1731.584441	8623.666667
1732.582346	8613.000000
1733.579886	8614.333333
1734.577059	8584.666667
1735.573867	8478.666667
1736.570309	8427.333333
1737.566386	8424.666667
1738.562097	8446.000000
1739.557444	8376.000000
1740.552426	8284.666667
1741.547043	8298.000000
1742.541295	8368.333333
1743.535184	8308.666667
1744.528708	8246.000000
1745.521868	8248.333333
1746.514664	8219.333333
1747.507097	8208.333333
1748.499166	8109.666667
1749.490873	8142.000000
1750.482216	8141.000000
1751.473196	8164.666667
1752.463813	8119.333333
1753.454068	8107.333333
1754.443960	8125.666667
1755.433490	8009.666667
1756.422658	8079.666667
1757.411464	8060.000000
1758.399908	8157.000000
1759.387991	8105.666667
1760.375713	8026.666667
1761.363073	8009.666667
1762.350072	8069.666667
1763.336711	7998.000000
1764.322988	8006.666667
1765.308905	7962.333333
1766.294462	7969.000000
1767.279659	7995.333333
1768.264496	7989.000000
1769.248972	7821.000000
1770.233089	7872.666667
1771.216847	7885.333333
1772.200245	7785.000000
1773.183284	7822.666667
1774.165965	7701.666667
1775.148286	7793.000000
1776.130249	7728.666667
1777.111853	7686.000000
1778.093099	7700.333333
1779.073987	7662.333333
1780.054517	7544.666667
1781.034689	7492.000000
1782.014503	7522.666667
1782.993960	7466.000000
1783.973060	7419.000000
1784.951802	7422.000000
1785.930188	7335.333333
1786.908217	7239.666667
1787.885889	7347.000000
1788.863205	7282.000000
1789.840164	7222.000000
1790.816768	7216.000000
1791.793015	7232.000000
1792.768907	7225.666667
1793.744443	7197.666667
1794.719624	7207.333333
1795.694449	7194.666667
1796.668919	7250.666667
1797.643035	7174.000000
1798.616795	7280.333333
1799.590201	7221.000000
1800.563253	7263.000000
1801.535950	7246.000000
1802.508294	7287.666667
1803.480283	7342.000000
1804.451919	7249.666667
1805.423201	7272.000000
1806.394129	7276.000000
1807.364705	7345.000000
1808.334927	7293.333333
1809.304796	7262.666667
1810.274313	7206.666667
1811.243477	7195.000000
1812.212288	7176.666667
1813.180747	7151.000000
1814.148855	7232.666667
1815.116610	7123.000000
1816.084013	7158.333333
1817.051065	7146.333333
1818.017766	7178.000000
1818.984115	7185.666667
1819.950113	7091.000000
1820.915760	7105.666667
1821.881057	7077.000000
1822.846003	7122.000000
1823.810598	7048.333333
1824.774843	6997.666667
1825.738738	7050.000000
1826.702283	7026.333333
1827.665479	6953.000000
1828.628324	6963.000000
1829.590821	6893.666667
1830.552968	6907.333333
1831.514765	6908.000000
1832.476214	6954.333333
1833.437314	6890.333333
1834.398066	6864.000000
1835.358469	6844.000000
1836.318524	6833.666667
1837.278230	6827.000000
1838.237589	6854.333333
1839.196600	6902.666667
1840.155263	6792.000000
1841.113578	6871.333333
1842.071547	6812.666667
1843.029168	6839.666667
1843.986442	6867.333333
1844.943369	6895.666667
1845.899950	6846.666667
1846.856184	6786.666667
1847.812072	6879.333333
1848.767614	6814.000000
1849.722809	6836.000000
1850.677659	6748.000000
1851.632163	6761.666667
1852.586322	6872.000000
1853.540135	6775.333333
1854.493603	6827.333333
1855.446726	6809.333333
1856.399504	6733.666667
1857.351937	6763.666667
1858.304026	6690.000000
1859.255770	6730.333333
1860.207170	6588.333333
1861.158227	6569.000000
1862.108939	6481.000000
1863.059307	6549.000000
1864.009332	6478.333333
1864.959013	6531.666667
1865.908351	6483.000000
1866.857346	6416.333333
1867.805998	6463.333333
1868.754307	6423.000000
1869.702274	6428.000000
1870.649898	6345.333333
1871.597180	6317.666667
1872.544119	6351.333333
1873.490717	6296.333333
1874.436973	6341.333333
1875.382887	6293.333333
1876.328459	6251.666667
1877.273691	6245.666667
1878.218581	6297.333333
1879.163130	6209.333333
1880.107338	6266.000000
1881.051205	6250.000000
1881.994732	6203.333333
1882.937919	6267.666667
1883.880765	6318.000000
1884.823271	6300.333333
1885.765437	6263.666667
1886.707264	6302.333333
1887.648750	6321.333333
1888.589898	6333.000000
1889.530706	6259.333333
1890.471175	6312.666667
1891.411305	6315.000000
1892.351096	6288.333333
1893.290548	6286.000000
1894.229662	6362.666667
1895.168438	6335.333333
1896.106876	6370.333333
1897.044975	6280.000000
1897.982737	6219.666667
1898.920160	6145.666667
1899.857247	6196.333333
1900.793996	6174.000000
1901.730407	6203.333333
1902.666482	6105.666667
1903.602219	6114.000000
1904.537620	6115.333333
1905.472685	6117.333333
1906.407412	6045.000000
1907.341804	5970.333333
1908.275859	5974.666667
1909.209579	5972.333333
1910.142962	5943.000000
1911.076010	5882.666667
1912.008722	5891.000000
1912.941099	5874.333333
1913.873141	5847.000000
1914.804848	5772.333333
1915.736219	5802.333333
1916.667256	5826.000000
1917.597959	5748.333333
1918.528327	5763.333333
1919.458360	5673.333333
1920.388060	5730.000000
1921.317426	5690.000000
1922.246457	5738.000000
1923.175156	5627.666667
1924.103520	5673.666667
1925.031552	5698.333333
1925.959250	5720.333333
1926.886615	5700.666667
1927.813647	5695.000000
1928.740346	5734.333333
1929.666713	5701.333333
1930.592748	5688.000000
1931.518450	5661.333333
1932.443820	5744.000000
1933.368858	5650.333333
1934.293564	5673.333333
1935.217939	5608.000000
1936.141982	5634.333333
1937.065694	5604.333333
1937.989074	5690.000000
1938.912124	5603.666667
1939.834842	5624.000000
1940.757230	5587.000000
1941.679287	5538.333333
1942.601014	5528.000000
1943.522411	5562.333333
1944.443477	5453.333333
1945.364214	5438.000000
1946.284621	5424.333333
1947.204698	5439.666667
1948.124445	5369.000000
1949.043863	5376.666667
1949.962952	5399.000000
1950.881712	5330.000000
1951.800143	5330.666667
1952.718245	5330.333333
1953.636019	5366.333333
1954.553464	5284.000000
1955.470581	5291.666667
1956.387369	5257.000000
1957.303830	5210.000000
1958.219963	5192.666667
1959.135768	5248.000000
1960.051246	5198.000000
1960.966396	5201.666667
1961.881219	5205.333333
1962.795715	5316.000000
1963.709883	5170.333333
1964.623726	5289.666667
1965.537241	5290.000000
1966.450430	5291.000000
1967.363293	5253.333333
1968.275829	5261.333333
1969.188040	5283.000000
1970.099924	5215.333333
1971.011483	5288.333333
1971.922716	5250.333333
1972.833624	5327.000000
1973.744206	5324.333333
1974.654464	5280.333333
1975.564396	5303.333333
1976.474004	5230.333333
1977.383286	5251.000000
1978.292245	5220.666667
1979.200878	5231.666667
1980.109188	5127.666667
1981.017174	5161.666667
1981.924835	5141.666667
1982.832173	5113.666667
1983.739187	5109.333333
1984.645878	5050.333333
1985.552245	5088.333333
1986.458289	5052.000000
1987.364010	5034.000000
1988.269408	5044.666667
1989.174484	5015.000000
1990.079236	5003.333333
1990.983667	4964.000000
1991.887775	4926.666667
1992.791561	4903.666667
1993.695024	4901.000000
1994.598166	4784.000000
1995.500986	4850.333333
1996.403485	4753.666667
1997.305662	4797.333333
1998.207518	4823.000000
1999.109053	4814.000000
