200.151048	63688.000000
201.758777	63905.333333
203.365815	63785.333333
204.972162	63753.333333
206.577820	63571.666667
208.182787	63520.000000
209.787065	63415.666667
211.390653	63164.333333
212.993553	63049.333333
214.595765	62891.666667
216.197289	62727.666667
217.798125	62681.666667
219.398274	62539.333333
220.997737	62410.333333
222.596513	62240.000000
224.194603	62283.666667
225.792008	61964.000000
227.388728	61730.666667
228.984763	61545.000000
230.580114	61667.333333
232.174781	61537.333333
233.768765	61270.000000
235.362065	61044.333333
236.954683	60944.000000
238.546619	60800.333333
240.137872	60612.666667
241.728445	60654.000000
243.318336	60441.333333
244.907546	60415.333333
246.496076	60129.333333
248.083926	59769.666667
249.671097	59703.000000
251.257589	59558.666667
252.843402	59217.000000
254.428536	59157.333333
256.012993	59082.666667
257.596772	58953.333333
259.179874	58674.666667
260.762300	58604.000000
262.344049	58447.000000
263.925122	58382.333333
265.505519	58256.666667
267.085241	58343.666667
268.664289	57919.666667
270.242662	58007.000000
271.820361	57820.333333
273.397387	57818.666667
274.973740	57657.333333
276.549419	57537.666667
278.124426	57427.333333
279.698762	57381.333333
281.272425	57343.000000
282.845417	57313.000000
284.417739	56966.666667
285.989390	57230.666667
287.560371	57066.000000
289.130682	56782.666667
290.700324	56619.000000
292.269297	56613.333333
293.837602	56605.000000
295.405238	56249.666667
296.972207	56062.333333
298.538508	56094.000000
300.104142	55780.666667
301.669110	55515.666667
303.233411	55259.000000
304.797047	55124.000000
306.360017	54840.666667
307.922322	54748.333333
309.483963	54460.000000
311.044939	54190.000000
312.605252	54019.000000
314.164900	53799.333333
315.723886	53543.333333
317.282209	53496.333333
318.839870	53177.666667
320.396868	53081.666667
321.953205	53117.000000
323.508881	53001.333333
325.063896	52584.000000
326.618251	52594.666667
328.171945	52497.666667
329.724980	52460.333333
331.277356	52111.666667
332.829072	52263.000000
334.380131	52072.333333
335.930530	51891.000000
337.480273	51741.000000
339.029357	51983.333333
340.577785	51798.000000
342.125556	52000.000000
343.672671	51759.333333
345.219130	51639.333333
346.764933	51595.666667
348.310081	51371.666667
349.854575	51279.333333
351.398414	51369.666667
352.941599	51112.666667
354.484130	51042.333333
356.026008	50839.000000
357.567234	50901.333333
359.107807	50822.666667
360.647727	50536.000000
362.186996	50439.333333
363.725614	50427.000000
365.263580	50233.666667
366.800896	50017.666667
368.337562	49983.666667
369.873578	49849.000000
371.408944	49703.333333
372.943661	49655.333333
374.477730	49503.333333
376.011150	49412.666667
377.543922	49348.666667
379.076046	49205.666667
380.607523	49188.333333
382.138353	49068.000000
383.668537	49138.000000
385.198075	49008.000000
386.726966	48887.333333
388.255213	48907.000000
389.782814	49034.333333
391.309770	49005.000000
392.836083	48724.000000
394.361751	48701.666667
395.886776	48739.666667
397.411157	48845.000000
398.934896	48670.333333
400.457992	48754.000000
401.980446	48652.333333
403.502258	48430.666667
405.023429	48485.333333
406.543959	48594.000000
408.063849	48520.333333
409.583098	48795.666667
411.101707	48607.000000
412.619677	48681.000000
414.137007	48747.000000
415.653699	48950.333333
417.169752	48867.333333
418.685167	49067.000000
420.199945	49109.000000
421.714085	49414.333333
423.227588	49551.333333
424.740454	49471.333333
426.252684	49469.666667
427.764279	49500.333333
429.275238	49376.000000
430.785561	49232.666667
432.295250	49038.666667
433.804304	48766.333333
435.312725	48687.666667
436.820511	48391.333333
438.327664	48084.666667
439.834185	47703.333333
441.340072	47626.666667
442.845327	47440.000000
444.349951	47251.000000
445.853942	47201.666667
447.357303	46976.000000
448.860033	47115.000000
450.362132	46640.666667
451.863601	46614.000000
453.364440	46374.333333
454.864650	46098.666667
456.364231	45921.000000
457.863183	45766.000000
459.361507	45469.333333
460.859203	45205.333333
462.356271	45066.333333
463.852712	45049.666667
465.348526	44932.333333
466.843714	44640.666667
468.338275	44495.000000
469.832210	44579.000000
471.325520	44220.000000
472.818205	44252.000000
474.310265	44082.000000
475.801700	43837.333333
477.292512	43865.666667
478.782700	43777.666667
480.272264	43698.000000
481.761205	43817.666667
483.249524	43357.666667
484.737221	43508.000000
486.224295	43319.666667
487.710748	43309.333333
489.196579	42959.333333
490.681790	42924.000000
492.166380	42770.666667
493.650350	42902.000000
495.133700	42835.666667
496.616431	42447.333333
498.098542	42571.666667
499.580035	42723.333333
501.060909	42581.000000
502.541165	42593.333333
504.020804	42520.666667
505.499825	42331.333333
506.978228	42440.666667
508.456016	42047.333333
509.933186	42014.666667
511.409741	41829.666667
512.885680	41770.000000
514.361004	41828.333333
515.835713	41744.333333
517.309807	41578.000000
518.783287	41769.333333
520.256153	41629.333333
521.728406	41735.000000
523.200045	41416.666667
524.671071	41546.666667
526.141485	41410.000000
527.611287	41242.666667
529.080476	41318.000000
530.549054	41322.333333
532.017021	41246.333333
533.484378	41111.666667
534.951123	41150.666667
536.417259	40978.666667
537.882785	40834.333333
539.347701	40777.333333
540.812008	40876.000000
542.275707	40714.333333
543.738797	40787.666667
545.201279	40808.000000
546.663153	40955.666667
548.124420	40816.666667
549.585080	40641.666667
551.045133	40698.000000
552.504579	40918.000000
553.963420	40822.666667
555.421655	40662.000000
556.879285	40776.000000
558.336309	40591.666667
559.792729	40590.666667
561.248545	40886.000000
562.703756	40644.333333
564.158364	40729.333333
565.612369	40744.000000
567.065770	40776.000000
568.518569	40795.666667
569.970766	40630.333333
571.422361	40883.333333
572.873354	40752.333333
574.323745	40947.333333
575.773536	41091.000000
577.222726	40981.000000
578.671316	40958.666667
580.119306	41044.000000
581.566696	40913.000000
583.013487	40773.666667
584.459679	40682.666667
585.905273	40496.000000
587.350268	40438.666667
588.794665	40254.333333
590.238465	40217.333333
591.681667	40212.000000
593.124272	40246.000000
594.566281	40017.333333
596.007694	39769.333333
597.448510	39623.666667
598.888731	39379.000000
600.328357	39265.000000
601.767388	39335.666667
603.205824	39056.000000
604.643666	38947.333333
606.080914	38894.666667
607.517568	38740.666667
608.953629	38915.000000
610.389097	38654.666667
611.823972	38723.333333
613.258255	38430.000000
614.691946	38366.333333
616.125046	38365.000000
617.557554	38153.333333
618.989471	37910.000000
620.420798	37724.333333
621.851534	37549.000000
623.281680	37499.000000
624.711237	37536.333333
626.140204	37161.666667
627.568582	37050.333333
628.996372	36932.666667
630.423573	36831.666667
631.850186	36837.666667
633.276211	36430.333333
634.701650	36773.333333
636.126501	36640.333333
637.550765	36377.666667
638.974443	36467.333333
640.397535	36523.666667
641.820041	36429.000000
643.241961	36417.666667
644.663297	36271.666667
646.084048	36247.000000
647.504214	36133.000000
648.923796	35895.333333
650.342795	35766.666667
651.761210	35703.666667
653.179041	35702.333333
654.596290	35490.000000
656.012957	35548.666667
657.429041	35526.666667
658.844543	35436.666667
660.259464	35358.333333
661.673804	35431.333333
663.087563	35358.333333
664.500741	35318.666667
665.913339	35253.333333
667.325357	35180.666667
668.736795	35101.000000
670.147654	35185.000000
671.557934	34961.000000
672.967636	34968.333333
674.376759	34886.666667
675.785304	34803.666667
677.193271	34656.666667
678.600661	34819.000000
680.007474	34635.666667
681.413711	34665.333333
682.819370	34606.333333
684.224454	34663.000000
685.628962	34339.000000
687.032895	34250.666667
688.436252	34385.000000
689.839034	34229.000000
691.241242	34170.333333
692.642876	34035.666667
694.043936	34091.666667
695.444422	33983.333333
696.844336	33935.666667
698.243676	33810.000000
699.642443	33852.333333
701.040639	33675.666667
702.438262	33611.666667
703.835313	33574.333333
705.231794	33531.000000
706.627703	33453.666667
708.023041	33364.333333
709.417810	33385.666667
710.812008	33401.333333
712.205636	33368.333333
713.598694	33289.333333
714.991184	33294.333333
716.383105	33163.666667
717.774457	33066.666667
719.165241	33015.666667
720.555457	32850.000000
721.945105	32773.333333
723.334187	32842.666667
724.722701	32808.333333
726.110648	32838.000000
727.498030	32769.666667
728.884845	32529.333333
730.271094	32602.333333
731.656778	32557.333333
733.041897	32668.666667
734.426451	32592.666667
735.810441	32287.666667
737.193866	32370.000000
738.576728	32350.000000
739.959026	32422.333333
741.340760	32205.666667
742.721932	32226.666667
744.102541	32148.333333
745.482588	32135.666667
746.862073	31937.666667
748.240996	32057.333333
749.619358	31936.333333
750.997158	32041.333333
752.374398	31990.333333
753.751077	31763.666667
755.127197	31844.000000
756.502756	31782.333333
757.877756	31710.333333
759.252196	31716.666667
760.626078	31561.333333
761.999400	31608.666667
763.372165	31435.666667
764.744371	31427.000000
766.116020	31390.666667
767.487111	31322.333333
768.857646	31278.666667
770.227623	31266.333333
771.597044	30974.333333
772.965908	31048.666667
774.334217	31005.666667
775.701970	30923.666667
777.069168	30842.000000
778.435811	30634.000000
779.801899	30670.000000
781.167433	30638.000000
782.532412	30609.333333
783.896838	30477.333333
785.260710	30483.666667
786.624029	30461.333333
787.986796	30413.666667
789.349009	30283.333333
790.710671	30164.666667
792.071780	30220.000000
793.432338	30073.666667
794.792344	30226.666667
796.151799	30136.333333
797.510704	29996.666667
798.869058	29818.000000
800.226862	29784.000000
801.584116	29758.000000
802.940820	29643.666667
804.296975	29799.333333
805.652581	29781.333333
807.007638	29661.333333
808.362147	29716.000000
809.716108	29672.000000
811.069521	29661.333333
812.422387	29530.333333
813.774705	29621.333333
815.126476	29538.000000
816.477701	29497.666667
817.828380	29389.000000
819.178512	29185.000000
820.528099	29299.000000
821.877140	29188.666667
823.225637	29118.666667
824.573588	29108.000000
825.920995	29237.666667
827.267857	29166.333333
828.614176	29013.000000
829.959951	29014.000000
831.305183	28919.666667
832.649871	28921.000000
833.994017	28940.000000
835.337620	28973.666667
836.680681	28741.000000
838.023201	28594.333333
839.365178	28666.000000
840.706614	28640.333333
842.047510	28694.000000
843.387864	28585.000000
844.727678	28659.000000
846.066952	28658.000000
847.405687	28849.000000
848.743881	28603.666667
850.081537	28739.333333
851.418653	28806.333333
852.755231	28642.666667
854.091270	28689.666667
855.426771	28645.666667
856.761735	28531.000000
858.096160	28484.666667
859.430049	28215.000000
860.763401	28320.000000
862.096216	28177.666667
863.428495	28077.666667
864.760237	28111.666667
866.091444	27825.666667
867.422115	27860.333333
868.752252	27771.666667
870.081853	27813.333333
871.410919	27828.666667
872.739452	27737.000000
874.067450	27682.333333
875.394914	27595.333333
876.721845	27592.666667
878.048243	27413.000000
879.374108	27410.666667
880.699440	27455.000000
882.024240	27298.333333
883.348508	27248.333333
884.672244	27285.333333
885.995449	27229.333333
887.318122	26991.333333
888.640265	27027.666667
889.961877	26929.333333
891.282959	26925.000000
892.603510	26915.333333
893.923532	26914.333333
895.243024	26650.666667
896.561987	26651.333333
897.880422	26662.000000
899.198327	26521.000000
900.515705	26580.333333
901.832554	26333.333333
903.148875	26498.666667
904.464669	26490.333333
905.779936	26332.333333
907.094676	26524.666667
908.408889	26361.000000
909.722576	26366.666667
911.035737	26299.333333
912.348371	26315.000000
913.660481	26389.333333
914.972065	26365.333333
916.283124	26438.666667
917.593659	26432.000000
918.903669	26444.666667
920.213155	26383.666667
921.522117	26326.666667
922.830556	26360.333333
924.138471	26438.666667
925.445864	26371.000000
926.752733	26254.666667
928.059081	26364.333333
929.364906	26283.333333
930.670209	26254.666667
931.974991	26435.333333
933.279251	26550.000000
934.582990	26606.666667
935.886209	26774.000000
937.188907	26838.000000
938.491085	27093.000000
939.792743	27259.333333
941.093881	27719.000000
942.394500	27768.000000
943.694600	28233.000000
944.994181	28420.333333
946.293243	28955.666667
947.591787	29549.333333
948.889813	30016.000000
950.187322	30764.666667
951.484313	31631.666667
952.780787	32473.000000
954.076744	33632.333333
955.372184	34287.666667
956.667108	35229.666667
957.961516	35683.000000
959.255409	35680.000000
960.548785	35338.666667
961.841647	34686.000000
963.133993	33760.666667
964.425825	32535.333333
965.717142	31356.333333
967.007946	30159.000000
968.298235	29058.333333
969.588011	27993.666667
970.877273	27298.333333
972.166023	26526.333333
973.454259	26092.333333
974.741984	25582.000000
976.029196	25127.333333
977.315895	24856.666667
978.602084	24729.000000
979.887761	24514.333333
981.172926	24349.666667
982.457581	24226.666667
983.741725	24136.000000
985.025359	24100.666667
986.308483	24020.333333
987.591097	23860.666667
988.873202	23749.333333
990.154797	23608.666667
991.435883	23716.333333
992.716461	23679.666667
993.996530	23502.000000
995.276091	23501.666667
996.555144	23690.666667
997.833690	23547.333333
999.111728	23687.000000
1000.389259	23744.333333
1001.666283	23478.000000
1002.942800	23730.666667
1004.218812	23685.666667
1005.494317	23600.666667
1006.769317	23492.000000
1008.043811	23446.666667
1009.317799	23500.000000
1010.591283	23475.666667
1011.864263	23436.333333
1013.136737	23449.666667
1014.408708	23319.666667
1015.680175	23443.000000
1016.951138	23302.666667
1018.221598	23423.666667
1019.491554	23382.666667
1020.761008	23389.000000
1022.029959	23253.333333
1023.298408	23271.666667
1024.566355	23418.333333
1025.833800	23360.000000
1027.100744	23179.666667
1028.367187	23290.000000
1029.633128	23163.333333
1030.898569	23165.333333
1032.163509	23156.000000
1033.427949	23142.666667
1034.691890	23187.666667
1035.955330	23194.666667
1037.218271	23233.000000
1038.480714	23046.000000
1039.742657	23195.666667
1041.004101	23262.000000
1042.265048	23144.333333
1043.525496	23171.666667
1044.785446	23138.333333
1046.044899	23021.000000
1047.303855	23139.000000
1048.562313	23010.000000
1049.820275	23030.000000
1051.077740	22976.333333
1052.334709	22896.666667
1053.591182	22886.000000
1054.847160	22736.666667
1056.102641	22721.000000
1057.357628	22745.333333
1058.612120	22828.333333
1059.866117	22834.333333
1061.119619	22724.333333
1062.372628	22900.000000
1063.625142	22998.000000
1064.877163	23032.333333
1066.128691	23061.333333
1067.379725	22959.333333
1068.630267	23028.333333
1069.880316	23002.666667
1071.129872	22887.333333
1072.378937	22865.000000
1073.627509	22742.666667
1074.875590	22614.333333
1076.123180	22511.000000
1077.370279	22445.333333
1078.616887	22282.000000
1079.863004	21986.333333
1081.108631	21951.000000
1082.353768	21748.000000
1083.598415	21680.000000
1084.842573	21487.000000
1086.086241	21464.000000
1087.329421	21233.000000
1088.572111	21166.666667
1089.814314	21157.000000
1091.056028	21020.666667
1092.297253	20839.000000
1093.537992	21008.666667
1094.778242	20870.666667
1096.018006	20800.000000
1097.257282	20676.333333
1098.496072	20710.666667
1099.734376	20697.333333
1100.972193	20601.000000
1102.209524	20659.333333
1103.446370	20448.333333
1104.682730	20495.666667
1105.918604	20489.666667
1107.153994	20369.000000
1108.388900	20321.000000
1109.623320	20303.333333
1110.857257	20218.333333
1112.090710	20089.666667
1113.323679	20071.666667
1114.556164	19943.333333
1115.788167	20008.666667
1117.019686	19918.000000
1118.250723	19881.666667
1119.481278	19963.000000
1120.711350	19823.666667
1121.940940	19726.333333
1123.170049	19677.666667
1124.398676	19733.000000
1125.626823	19718.000000
1126.854488	19584.333333
1128.081672	19624.666667
1129.308376	19535.000000
1130.534600	19584.666667
1131.760345	19414.333333
1132.985609	19592.000000
1134.210394	19360.333333
1135.434700	19359.000000
1136.658527	19347.000000
1137.881875	19375.333333
1139.104745	19390.000000
1140.327136	19472.666667
1141.549050	19332.000000
1142.770486	19297.000000
1143.991445	19290.666667
1145.211926	19219.333333
1146.431931	19342.666667
1147.651459	19168.333333
1148.870510	19173.333333
1150.089086	19072.666667
1151.307185	19117.000000
1152.524808	19020.000000
1153.741957	19156.666667
1154.958630	19071.333333
1156.174828	18934.000000
1157.390551	19018.000000
1158.605800	19036.000000
1159.820574	18920.333333
1161.034875	18896.333333
1162.248702	18886.666667
1163.462055	18889.666667
1164.674936	18967.333333
1165.887343	18870.333333
1167.099277	18754.666667
1168.310739	18793.333333
1169.521729	18783.000000
1170.732247	18740.666667
1171.942293	18726.666667
1173.151867	18818.333333
1174.360970	18602.333333
1175.569602	18529.666667
1176.777764	18570.666667
1177.985454	18432.000000
1179.192675	18468.333333
1180.399425	18455.000000
1181.605706	18411.666667
1182.811517	18355.333333
1184.016859	18214.000000
1185.221731	18322.333333
1186.426135	18175.333333
1187.630070	18076.333333
1188.833537	18229.000000
1190.036535	17988.333333
1191.239066	18034.666667
1192.441129	17872.000000
1193.642725	17980.333333
1194.843853	17743.333333
1196.044515	17989.000000
1197.244710	17878.666667
1198.444438	17948.333333
1199.643701	17860.666667
1200.842497	17808.000000
1202.040827	17790.333333
1203.238693	17946.666667
1204.436092	17913.333333
1205.633027	17831.000000
1206.829497	17779.333333
1208.025503	17752.666667
1209.221044	17738.333333
1210.416122	17634.333333
1211.610735	17485.333333
1212.804885	17600.666667
1213.998572	17460.333333
1215.191795	17448.333333
1216.384556	17383.666667
1217.576854	17283.333333
1218.768689	17288.666667
1219.960063	17219.000000
1221.150974	17210.666667
1222.341424	17117.666667
1223.531413	17172.000000
1224.720940	17200.000000
1225.910006	17236.000000
1227.098612	17252.333333
1228.286757	17148.333333
1229.474442	17294.333333
1230.661667	17185.666667
1231.848432	17356.333333
1233.034738	17337.333333
1234.220584	17260.666667
1235.405971	17453.333333
1236.590900	17485.333333
1237.775369	17417.000000
1238.959381	17390.666667
1240.142934	17364.333333
1241.326029	17457.333333
1242.508667	17388.666667
1243.690848	17408.333333
1244.872571	17366.000000
1246.053837	17329.000000
1247.234646	17236.666667
1248.414999	17311.666667
1249.594896	17172.666667
1250.774337	17211.666667
1251.953322	17061.333333
1253.131851	17100.333333
1254.309925	17106.333333
1255.487544	17085.666667
1256.664708	16976.333333
1257.841417	16967.000000
1259.017673	16872.666667
1260.193473	16974.000000
1261.368820	16912.000000
1262.543714	17002.666667
1263.718154	16882.000000
1264.892140	17001.333333
1266.065674	16896.333333
1267.238755	16955.000000
1268.411383	16945.666667
1269.583559	16902.333333
1270.755283	16924.000000
1271.926555	16843.666667
1273.097375	16923.333333
1274.267744	16850.666667
1275.437662	16819.333333
1276.607129	16843.000000
1277.776145	16730.333333
1278.944711	16703.333333
1280.112827	16635.333333
1281.280492	16638.000000
1282.447708	16498.666667
1283.614474	16417.666667
1284.780791	16481.666667
1285.946659	16362.000000
1287.112078	16267.000000
1288.277048	16193.333333
1289.441570	16221.666667
1290.605644	16226.000000
1291.769270	16097.333333
1292.932448	16086.000000
1294.095178	16102.333333
1295.257461	15955.333333
1296.419298	16079.000000
1297.580687	16035.666667
1298.741630	15843.666667
1299.902126	15871.000000
1301.062177	15849.000000
1302.221781	15850.333333
1303.380940	15803.000000
1304.539653	15876.666667
1305.697921	15712.333333
1306.855744	15684.333333
1308.013123	15695.333333
1309.170056	15655.666667
1310.326546	15600.666667
1311.482591	15619.333333
1312.638193	15637.333333
1313.793350	15647.000000
1314.948065	15631.000000
1316.102336	15645.333333
1317.256164	15672.000000
1318.409550	15618.666667
1319.562493	15402.666667
1320.714993	15478.333333
1321.867052	15276.666667
1323.018668	15310.333333
1324.169843	15284.666667
1325.320577	15339.666667
1326.470870	15238.333333
1327.620721	15258.000000
1328.770132	15275.666667
1329.919102	15050.000000
1331.067632	15069.000000
1332.215722	15189.000000
1333.363372	15045.666667
1334.510582	15086.666667
1335.657353	15053.000000
1336.803685	15132.333333
1337.949578	15044.666667
1339.095032	14997.333333
1340.240048	15080.000000
1341.384625	15071.000000
1342.528764	15010.666667
1343.672466	15002.333333
1344.815729	15071.666667
1345.958556	14991.000000
1347.100945	14826.333333
1348.242897	14955.666667
1349.384413	14774.000000
1350.525492	14840.000000
1351.666134	14735.000000
1352.806341	14671.666667
1353.946111	14714.333333
1355.085446	14588.666667
1356.224346	14606.333333
1357.362810	14528.333333
1358.500840	14534.000000
1359.638434	14454.000000
1360.775594	14326.000000
1361.912320	14482.333333
1363.048612	14469.000000
1364.184469	14380.333333
1365.319893	14381.333333
1366.454884	14311.666667
1367.589441	14357.000000
1368.723566	14249.333333
1369.857257	14329.666667
1370.990516	14307.000000
1372.123343	14340.333333
1373.255737	14449.000000
1374.387699	14308.333333
1375.519230	14339.000000
1376.650329	14304.000000
1377.780997	14312.666667
1378.911234	14305.666667
1380.041040	14312.666667
1381.170416	14373.666667
1382.299361	14464.666667
1383.427875	14340.333333
1384.555960	14165.666667
1385.683615	14159.666667
1386.810841	14204.333333
1387.937637	14245.333333
1389.064004	14131.666667
1390.189942	14104.666667
1391.315451	14135.666667
1392.440532	14080.666667
1393.565185	13950.666667
1394.689409	13980.000000
1395.813206	13947.000000
1396.936575	13937.000000
1398.059517	13801.333333
1399.182032	13847.000000
1400.304119	13846.666667
1401.425780	13816.333333
1402.547014	13772.666667
1403.667822	13848.666667
1404.788204	13735.333333
1405.908160	13787.666667
1407.027690	13795.333333
1408.146795	13712.333333
1409.265474	13700.666667
1410.383728	13633.000000
1411.501558	13758.666667
1412.618963	13746.000000
1413.735943	13741.000000
1414.852499	13754.000000
1415.968632	13768.333333
1417.084340	13753.666667
1418.199625	13820.000000
1419.314486	13762.000000
1420.428925	13789.666667
1421.542940	13682.666667
1422.656533	13701.666667
1423.769703	13645.000000
1424.882451	13679.333333
1425.994777	13583.000000
1427.106680	13512.333333
1428.218163	13726.666667
1429.329223	13507.000000
1430.439863	13504.000000
1431.550081	13445.333333
1432.659879	13370.333333
1433.769256	13389.666667
1434.878212	13362.666667
1435.986749	13281.333333
1437.094865	13260.333333
1438.202562	13338.000000
1439.309839	13272.000000
1440.416696	13383.000000
1441.523135	13375.333333
1442.629154	13365.000000
1443.734755	13349.666667
1444.839937	13479.666667
1445.944701	13419.333333
1447.049047	13555.666667
1448.152975	13370.666667
1449.256485	13478.333333
1450.359577	13568.000000
1451.462253	13375.333333
1452.564511	13382.000000
1453.666352	13291.333333
1454.767777	13448.000000
1455.868785	13242.333333
1456.969377	13329.000000
1458.069553	13327.333333
1459.169313	13238.000000
1460.268658	13195.333333
1461.367587	13084.333333
1462.466101	13030.333333
1463.564200	12942.666667
1464.661884	12801.333333
1465.759153	12872.333333
1466.856008	12782.333333
1467.952449	12796.333333
1469.048476	12710.666667
1470.144089	12649.666667
1471.239288	12552.333333
1472.334074	12524.333333
1473.428447	12394.000000
1474.522407	12358.000000
1475.615955	12217.333333
1476.709089	12294.333333
1477.801812	12264.333333
1478.894122	12180.666667
1479.986020	12164.333333
1481.077506	12042.333333
1482.168581	12133.000000
1483.259245	12106.666667
1484.349498	12120.333333
1485.439339	12076.333333
1486.528770	12109.000000
1487.617790	11981.000000
1488.706400	12073.000000
1489.794600	12013.666667
1490.882390	12064.333333
1491.969771	11911.000000
1493.056742	11961.666667
1494.143303	11894.000000
1495.229456	11930.000000
1496.315199	11777.333333
1497.400534	11806.666667
1498.485460	11732.666667
1499.569978	11794.333333
1500.654088	11685.666667
1501.737790	11736.333333
1502.821085	11660.333333
1503.903972	11739.000000
1504.986451	11684.666667
1506.068524	11503.666667
1507.150189	11616.666667
1508.231448	11540.000000
1509.312301	11489.666667
1510.392747	11450.000000
1511.472787	11414.000000
1512.552422	11435.000000
1513.631650	11348.666667
1514.710473	11318.666667
1515.788891	11311.666667
1516.866904	11312.666667
1517.944512	11323.333333
1519.021715	11386.000000
1520.098513	11254.666667
1521.174908	11382.000000
1522.250898	11313.333333
1523.326485	11290.333333
1524.401667	11323.000000
1525.476447	11284.000000
1526.550823	11295.666667
1527.624796	11321.333333
1528.698365	11299.000000
1529.771533	11279.333333
1530.844298	11297.333333
1531.916660	11242.000000
1532.988620	11207.666667
1534.060179	11275.333333
1535.131336	11172.000000
1536.202091	11168.666667
1537.272445	11110.333333
1538.342398	11049.666667
1539.411950	11086.333333
1540.481101	10999.333333
1541.549851	10980.000000
1542.618202	11001.333333
1543.686152	10959.333333
1544.753702	10906.333333
1545.820853	10875.333333
1546.887604	10897.666667
1547.953955	10771.000000
1549.019908	10827.000000
1550.085461	10740.000000
1551.150616	10790.333333
1552.215372	10708.666667
1553.279730	10721.000000
1554.343690	10668.000000
1555.407252	10770.666667
1556.470415	10663.666667
1557.533182	10591.666667
1558.595551	10606.666667
1559.657522	10600.000000
1560.719097	10555.000000
1561.780275	10603.000000
1562.841056	10552.666667
1563.901441	10563.666667
1564.961429	10549.666667
1566.021022	10645.000000
1567.080219	10532.000000
1568.139020	10525.666667
1569.197425	10449.666667
1570.255436	10406.333333
1571.313051	10407.666667
1572.370271	10492.333333
1573.427097	10502.000000
1574.483528	10386.666667
1575.539565	10472.666667
1576.595208	10328.000000
1577.650457	10369.000000
1578.705312	10239.666667
1579.759774	10284.666667
1580.813842	10206.666667
1581.867517	10123.666667
1582.920799	10137.666667
1583.973689	10141.666667
1585.026186	10045.333333
1586.078290	10117.666667
1587.130002	10029.333333
1588.181323	10016.666667
1589.232251	10044.000000
1590.282788	9960.666667
1591.332933	9926.000000
1592.382688	9884.000000
1593.432051	9923.333333
1594.481023	9892.000000
1595.529605	9986.666667
1596.577796	9923.333333
1597.625597	10050.666667
1598.673007	10041.333333
1599.720028	10017.666667
1600.766660	10038.333333
1601.812901	10069.666667
1602.858753	10034.666667
1603.904217	9956.666667
1604.949291	10098.333333
1605.993976	10105.000000
1607.038273	9985.000000
1608.082182	10077.000000
1609.125702	9901.333333
1610.168834	9832.000000
1611.211579	9842.333333
1612.253935	9739.000000
1613.295905	9722.666667
1614.337487	9878.000000
1615.378682	9699.666667
1616.419490	9715.666667
1617.459912	9746.666667
1618.499946	9732.000000
1619.539595	9704.666667
1620.578858	9756.666667
1621.617734	9717.666667
1622.656225	9652.333333
1623.694330	9693.000000
1624.732050	9615.333333
1625.769385	9549.333333
1626.806334	9625.666667
1627.842899	9493.000000
1628.879079	9504.000000
1629.914875	9562.000000
1630.950286	9550.666667
1631.985314	9480.666667
1633.019957	9559.333333
1634.054217	9461.666667
1635.088093	9500.000000
1636.121586	9569.000000
1637.154696	9507.333333
1638.187423	9543.333333
1639.219767	9636.666667
1640.251728	9569.333333
1641.283307	9604.666667
1642.314504	9474.000000
1643.345319	9600.666667
1644.375751	9539.666667
1645.405803	9637.666667
1646.435472	9476.333333
1647.464761	9466.666667
1648.493668	9504.666667
1649.522194	9536.333333
1650.550340	9453.666667
1651.578105	9526.000000
1652.605490	9443.000000
1653.632494	9402.666667
1654.659119	9337.000000
1655.685363	9344.000000
1656.711228	9262.333333
1657.736714	9306.000000
1658.761820	9283.333333
1659.786547	9257.333333
1660.810895	9150.000000
1661.834865	9203.666667
1662.858456	9091.333333
1663.881668	9155.000000
1664.904503	9174.666667
1665.926959	9046.666667
1666.949038	9075.666667
1667.970739	8973.333333
1668.992062	8969.333333
1670.013008	9043.666667
1671.033577	8977.333333
1672.053770	9004.333333
1673.073585	8922.000000
1674.093024	8905.000000
1675.112086	8925.666667
1676.130773	8878.666667
1677.149083	8795.666667
1678.167017	8886.333333
1679.184576	8800.000000
1680.201760	8822.666667
1681.218568	8853.333333
1682.235001	8873.666667
1683.251059	8849.666667
1684.266742	8841.000000
1685.282051	8752.000000
1686.296985	8788.333333
1687.311546	8680.333333
1688.325732	8737.333333
1689.339544	8682.666667
1690.352983	8542.666667
1691.366048	8552.333333
1692.378740	8486.000000
1693.391058	8411.333333
1694.403004	8432.666667
1695.414577	8356.000000
1696.425778	8333.333333
1697.436606	8327.666667
1698.447061	8357.000000
1699.457145	8241.333333
1700.466857	8171.333333
1701.476197	8154.666667
1702.485166	8073.666667
1703.493763	8013.666667
1704.501989	8112.000000
1705.509844	7975.666667
1706.517328	8020.666667
1707.524442	7945.333333
1708.531185	7948.666667
1709.537558	7900.000000
1710.543561	7943.333333
1711.549194	7923.666667
1712.554457	7869.000000
1713.559351	7946.000000
1714.563875	7878.666667
1715.568030	7848.333333
1716.571816	7886.000000
1717.575233	7972.333333
1718.578282	7983.333333
1719.580962	7944.333333
1720.583273	7982.666667
1721.585217	7906.666667
1722.586792	7855.666667
1723.588000	7929.333333
1724.588840	8038.333333
1725.589312	7898.000000
1726.589418	7951.666667
1727.589156	7936.666667
1728.588527	7932.333333
1729.587532	8002.000000
1730.586170	7980.333333
1731.584441	7968.666667
1732.582346	7783.000000
1733.579886	7797.000000
1734.577059	7805.333333
1735.573867	7841.666667
1736.570309	7812.333333
1737.566386	7691.333333
1738.562097	7685.333333
1739.557444	7633.333333
1740.552426	7608.333333
1741.547043	7660.333333
1742.541295	7575.666667
1743.535184	7555.666667
1744.528708	7561.000000
1745.521868	7448.666667
1746.514664	7524.333333
1747.507097	7468.666667
1748.499166	7456.333333
1749.490873	7415.666667
1750.482216	7392.333333
1751.473196	7493.000000
1752.463813	7457.000000
1753.454068	7439.000000
1754.443960	7403.666667
1755.433490	7365.000000
1756.422658	7337.666667
1757.411464	7326.000000
1758.399908	7301.666667
1759.387991	7349.333333
1760.375713	7305.666667
1761.363073	7347.666667
1762.350072	7421.000000
1763.336711	7265.333333
1764.322988	7275.333333
1765.308905	7227.333333
1766.294462	7216.333333
1767.279659	7273.666667
1768.264496	7152.666667
1769.248972	7174.000000
1770.233089	7153.666667
1771.216847	7110.666667
1772.200245	7106.666667
1773.183284	7027.666667
1774.165965	7018.666667
1775.148286	7029.666667
1776.130249	7067.000000
1777.111853	6954.000000
1778.093099	6933.666667
1779.073987	6881.666667
1780.054517	6916.000000
1781.034689	6797.333333
1782.014503	6823.666667
1782.993960	6758.333333
1783.973060	6729.666667
1784.951802	6638.666667
1785.930188	6655.333333
1786.908217	6591.333333
1787.885889	6549.666667
1788.863205	6575.666667
1789.840164	6580.000000
1790.816768	6505.666667
1791.793015	6539.333333
1792.768907	6538.666667
1793.744443	6471.333333
1794.719624	6472.666667
1795.694449	6565.666667
1796.668919	6519.666667
1797.643035	6533.333333
1798.616795	6533.000000
1799.590201	6543.666667
1800.563253	6549.666667
1801.535950	6527.000000
1802.508294	6585.666667
1803.480283	6557.333333
1804.451919	6602.666667
1805.423201	6549.000000
1806.394129	6596.333333
1807.364705	6600.000000
1808.334927	6612.666667
1809.304796	6588.000000
1810.274313	6514.666667
1811.243477	6541.000000
1812.212288	6480.000000
1813.180747	6513.333333
1814.148855	6481.333333
1815.116610	6424.333333
1816.084013	6516.333333
1817.051065	6422.666667
1818.017766	6400.333333
1818.984115	6455.666667
1819.950113	6428.666667
1820.915760	6488.666667
1821.881057	6398.333333
1822.846003	6329.000000
1823.810598	6324.333333
1824.774843	6424.666667
1825.738738	6326.666667
1826.702283	6382.000000
1827.665479	6326.666667
1828.628324	6316.333333
1829.590821	6322.000000
1830.552968	6201.333333
1831.514765	6257.666667
1832.476214	6246.000000
1833.437314	6196.000000
1834.398066	6233.000000
1835.358469	6147.000000
1836.318524	6142.333333
1837.278230	6183.000000
1838.237589	6174.666667
1839.196600	6134.333333
1840.155263	6156.666667
1841.113578	6277.000000
1842.071547	6173.333333
1843.029168	6121.333333
1843.986442	6165.000000
1844.943369	6196.666667
1845.899950	6175.333333
1846.856184	6196.000000
1847.812072	6190.666667
1848.767614	6109.000000
1849.722809	6212.000000
1850.677659	6129.333333
1851.632163	6154.666667
1852.586322	6129.000000
1853.540135	6176.333333
1854.493603	6172.666667
1855.446726	6218.333333
1856.399504	6092.000000
1857.351937	6147.333333
1858.304026	5960.666667
1859.255770	6057.666667
1860.207170	5999.666667
1861.158227	5940.666667
1862.108939	5913.333333
1863.059307	5878.333333
1864.009332	5944.333333
1864.959013	5854.666667
1865.908351	5768.000000
1866.857346	5857.333333
1867.805998	5798.666667
1868.754307	5802.333333
1869.702274	5757.666667
1870.649898	5706.000000
1871.597180	5743.666667
1872.544119	5702.333333
1873.490717	5708.000000
1874.436973	5677.666667
1875.382887	5653.000000
1876.328459	5583.000000
1877.273691	5604.000000
1878.218581	5635.333333
1879.163130	5663.000000
1880.107338	5619.666667
1881.051205	5649.333333
1881.994732	5715.666667
1882.937919	5630.666667
1883.880765	5670.333333
1884.823271	5636.666667
1885.765437	5675.333333
1886.707264	5636.666667
1887.648750	5639.666667
1888.589898	5625.000000
1889.530706	5724.000000
1890.471175	5694.000000
1891.411305	5701.666667
1892.351096	5706.666667
1893.290548	5664.333333
1894.229662	5677.666667
1895.168438	5584.000000
1896.106876	5680.666667
1897.044975	5619.666667
1897.982737	5668.000000
1898.920160	5608.000000
1899.857247	5633.000000
1900.793996	5569.333333
1901.730407	5551.666667
1902.666482	5578.666667
1903.602219	5589.666667
1904.537620	5462.333333
1905.472685	5482.333333
1906.407412	5410.666667
1907.341804	5451.333333
1908.275859	5382.000000
1909.209579	5397.666667
1910.142962	5369.000000
1911.076010	5341.333333
1912.008722	5275.000000
1912.941099	5257.333333
1913.873141	5243.333333
1914.804848	5203.666667
1915.736219	5160.333333
1916.667256	5176.666667
1917.597959	5202.000000
1918.528327	5164.333333
1919.458360	5224.333333
1920.388060	5178.666667
1921.317426	5118.666667
1922.246457	5170.666667
1923.175156	5126.000000
1924.103520	5149.333333
1925.031552	5115.666667
1925.959250	5111.666667
1926.886615	5104.000000
1927.813647	5089.000000
1928.740346	5138.666667
1929.666713	5124.666667
1930.592748	5055.666667
1931.518450	5090.000000
1932.443820	5024.000000
1933.368858	5049.000000
1934.293564	5111.000000
1935.217939	5101.000000
1936.141982	5114.333333
1937.065694	5052.000000
1937.989074	5004.333333
1938.912124	5022.666667
1939.834842	4987.333333
1940.757230	5004.666667
1941.679287	4962.000000
1942.601014	4942.666667
1943.522411	4928.666667
1944.443477	4937.333333
1945.364214	4933.666667
1946.284621	4932.333333
1947.204698	4953.000000
1948.124445	4873.333333
1949.043863	4789.333333
1949.962952	4816.666667
1950.881712	4722.666667
1951.800143	4806.333333
1952.718245	4716.666667
1953.636019	4771.000000
1954.553464	4737.666667
1955.470581	4678.000000
1956.387369	4754.000000
1957.303830	4648.666667
1958.219963	4613.333333
1959.135768	4685.666667
1960.051246	4646.000000
1960.966396	4674.000000
1961.881219	4689.000000
1962.795715	4703.666667
1963.709883	4739.333333
1964.623726	4718.333333
1965.537241	4760.666667
1966.450430	4749.666667
1967.363293	4694.666667
1968.275829	4722.333333
1969.188040	4733.000000
1970.099924	4753.000000
1971.011483	4723.333333
1971.922716	4736.666667
1972.833624	4722.666667
1973.744206	4750.333333
1974.654464	4718.333333
1975.564396	4680.666667
1976.474004	4686.000000
1977.383286	4672.333333
1978.292245	4689.000000
1979.200878	4686.000000
1980.109188	4648.000000
1981.017174	4576.666667
1981.924835	4662.000000
1982.832173	4548.666667
1983.739187	4584.666667
1984.645878	4570.000000
1985.552245	4499.000000
1986.458289	4455.333333
1987.364010	4455.000000
1988.269408	4487.000000
1989.174484	4399.666667
1990.079236	4423.666667
1990.983667	4402.333333
1991.887775	4402.000000
1992.791561	4336.666667
1993.695024	4340.333333
1994.598166	4301.666667
1995.500986	4253.333333
1996.403485	4271.000000
1997.305662	4289.666667
1998.207518	4312.666667
1999.109053	4320.666667
