200.151048	14431.666667
201.758777	14482.666667
203.365815	14433.000000
204.972162	14287.000000
206.577820	14233.333333
208.182787	14183.666667
209.787065	14108.666667
211.390653	14111.000000
212.993553	14115.000000
214.595765	14064.000000
216.197289	14078.666667
217.798125	14000.000000
219.398274	13948.333333
220.997737	13883.333333
222.596513	13977.666667
224.194603	13971.333333
225.792008	13823.333333
227.388728	13890.333333
228.984763	13901.666667
230.580114	13783.000000
232.174781	13795.333333
233.768765	13648.000000
235.362065	13714.000000
236.954683	13647.000000
238.546619	13451.000000
240.137872	13643.666667
241.728445	13525.333333
243.318336	13404.333333
244.907546	13538.666667
246.496076	13513.333333
248.083926	13280.333333
249.671097	13341.666667
251.257589	13221.666667
252.843402	13248.333333
254.428536	13262.333333
256.012993	13277.333333
257.596772	13144.333333
259.179874	13129.666667
260.762300	13044.000000
262.344049	13080.333333
263.925122	12993.333333
265.505519	13066.333333
267.085241	12980.333333
268.664289	12928.000000
270.242662	12913.000000
271.820361	12856.666667
273.397387	12932.000000
274.973740	12797.000000
276.549419	12855.000000
278.124426	12868.333333
279.698762	12822.333333
281.272425	12861.000000
282.845417	12788.666667
284.417739	12877.333333
285.989390	12808.666667
287.560371	12810.666667
289.130682	12875.000000
290.700324	12796.333333
292.269297	12912.000000
293.837602	12634.000000
295.405238	12776.000000
296.972207	12767.333333
298.538508	12697.000000
300.104142	12708.000000
301.669110	12663.000000
303.233411	12654.333333
304.797047	12463.333333
306.360017	12456.666667
307.922322	12456.333333
309.483963	12414.666667
311.044939	12359.000000
312.605252	12282.666667
314.164900	12295.666667
315.723886	12324.333333
317.282209	12200.666667
318.839870	12200.333333
320.396868	12137.666667
321.953205	12155.666667
323.508881	12082.666667
325.063896	12120.666667
326.618251	12009.000000
328.171945	12171.666667
329.724980	12022.666667
331.277356	12064.333333
332.829072	11938.666667
334.380131	12032.333333
335.930530	11868.666667
337.480273	11914.000000
339.029357	11884.333333
340.577785	11954.666667
342.125556	11926.666667
343.672671	11912.000000
345.219130	11838.333333
346.764933	11937.000000
348.310081	11821.333333
349.854575	11854.666667
351.398414	11861.333333
352.941599	11713.666667
354.484130	11699.000000
356.026008	11673.333333
357.567234	11725.333333
359.107807	11742.333333
360.647727	11653.333333
362.186996	11632.333333
363.725614	11700.666667
365.263580	11518.000000
366.800896	11596.333333
368.337562	11622.666667
369.873578	11498.333333
371.408944	11476.333333
372.943661	11430.000000
374.477730	11342.000000
376.011150	11473.666667
377.543922	11427.333333
379.076046	11593.666667
380.607523	11507.666667
382.138353	11444.333333
383.668537	11520.000000
385.198075	11495.666667
386.726966	11440.000000
388.255213	11503.000000
389.782814	11389.666667
391.309770	11442.333333
392.836083	11548.333333
394.361751	11583.333333
395.886776	11604.333333
397.411157	11572.333333
398.934896	11579.666667
400.457992	11667.000000
401.980446	11690.000000
403.502258	11568.666667
405.023429	11599.000000
406.543959	11557.666667
408.063849	11670.333333
409.583098	11618.333333
411.101707	11760.666667
412.619677	11835.666667
414.137007	11853.666667
415.653699	12076.000000
417.169752	12042.333333
418.685167	12209.000000
420.199945	12200.333333
421.714085	12365.666667
423.227588	12530.333333
424.740454	12612.666667
426.252684	12700.333333
427.764279	12769.666667
429.275238	12822.333333
430.785561	12738.000000
432.295250	12658.000000
433.804304	12577.000000
435.312725	12536.666667
436.820511	12398.333333
438.327664	12215.666667
439.834185	12247.666667
441.340072	11951.333333
442.845327	11886.666667
444.349951	11857.000000
445.853942	11713.666667
447.357303	11806.333333
448.860033	11751.333333
450.362132	11653.333333
451.863601	11632.000000
453.364440	11523.666667
454.864650	11496.666667
456.364231	11274.666667
457.863183	11221.666667
459.361507	11122.000000
460.859203	11094.666667
462.356271	10930.666667
463.852712	10799.666667
465.348526	10699.666667
466.843714	10663.333333
468.338275	10635.000000
469.832210	10602.333333
471.325520	10560.333333
472.818205	10494.000000
474.310265	10494.000000
475.801700	10438.333333
477.292512	10369.333333
478.782700	10399.000000
480.272264	10385.000000
481.761205	10402.000000
483.249524	10303.666667
484.737221	10236.333333
486.224295	10072.333333
487.710748	10157.333333
489.196579	9969.666667
490.681790	9986.000000
492.166380	10040.000000
493.650350	10102.666667
495.133700	10152.666667
496.616431	10037.666667
498.098542	10075.666667
499.580035	10053.333333
501.060909	10057.666667
502.541165	10077.000000
504.020804	10233.666667
505.499825	10162.666667
506.978228	9979.333333
508.456016	10006.000000
509.933186	9881.000000
511.409741	9830.666667
512.885680	9759.666667
514.361004	9806.333333
515.835713	9899.000000
517.309807	9852.000000
518.783287	10002.000000
520.256153	9903.666667
521.728406	9973.000000
523.200045	9926.666667
524.671071	9977.333333
526.141485	9996.333333
527.611287	9994.333333
529.080476	9947.000000
530.549054	9952.333333
532.017021	9999.000000
533.484378	9887.666667
534.951123	9875.000000
536.417259	9881.333333
537.882785	9980.666667
539.347701	9838.000000
540.812008	9873.000000
542.275707	9814.666667
543.738797	9822.000000
545.201279	9883.666667
546.663153	9979.000000
548.124420	10055.666667
549.585080	10048.000000
551.045133	10140.000000
552.504579	10212.333333
553.963420	10200.000000
555.421655	10220.666667
556.879285	10219.000000
558.336309	10196.000000
559.792729	10217.000000
561.248545	10229.666667
562.703756	10225.000000
564.158364	10194.000000
565.612369	10274.666667
567.065770	10285.000000
568.518569	10334.333333
569.970766	10404.000000
571.422361	10379.666667
572.873354	10491.666667
574.323745	10526.333333
575.773536	10544.666667
577.222726	10617.666667
578.671316	10641.000000
580.119306	10672.666667
581.566696	10570.666667
583.013487	10528.666667
584.459679	10418.000000
585.905273	10298.333333
587.350268	10262.333333
588.794665	10254.333333
590.238465	10286.000000
591.681667	10302.000000
593.124272	10416.000000
594.566281	10403.333333
596.007694	10351.000000
597.448510	10306.333333
598.888731	10251.333333
600.328357	10125.666667
601.767388	10068.333333
603.205824	10001.333333
604.643666	10058.666667
606.080914	9912.000000
607.517568	9929.333333
608.953629	9965.666667
610.389097	10046.666667
611.823972	10056.000000
613.258255	10003.666667
614.691946	9943.666667
616.125046	9909.666667
617.557554	9774.000000
618.989471	9694.666667
620.420798	9673.000000
621.851534	9656.666667
623.281680	9502.333333
624.711237	9421.333333
626.140204	9359.000000
627.568582	9250.000000
628.996372	9290.333333
630.423573	9214.000000
631.850186	9183.666667
633.276211	9139.000000
634.701650	9138.666667
636.126501	9238.666667
637.550765	9200.000000
638.974443	9207.333333
640.397535	9263.666667
641.820041	9201.000000
643.241961	9234.000000
644.663297	9155.666667
646.084048	9203.666667
647.504214	9154.000000
648.923796	9018.666667
650.342795	9010.666667
651.761210	8872.333333
653.179041	8850.333333
654.596290	8779.666667
656.012957	8861.333333
657.429041	8870.000000
658.844543	8866.333333
660.259464	8895.333333
661.673804	8873.333333
663.087563	8910.333333
664.500741	8810.333333
665.913339	8907.666667
667.325357	8948.666667
668.736795	8915.333333
670.147654	8933.666667
671.557934	8846.666667
672.967636	8850.333333
674.376759	8818.666667
675.785304	8775.333333
677.193271	8836.000000
678.600661	8792.333333
680.007474	8839.666667
681.413711	8766.666667
682.819370	8756.000000
684.224454	8801.333333
685.628962	8790.333333
687.032895	8904.333333
688.436252	8909.666667
689.839034	8791.000000
691.241242	8818.000000
692.642876	8837.000000
694.043936	8766.666667
695.444422	8698.000000
696.844336	8665.333333
698.243676	8659.000000
699.642443	8639.000000
701.040639	8685.333333
702.438262	8738.333333
703.835313	8859.666667
705.231794	8728.000000
706.627703	8755.333333
708.023041	8744.000000
709.417810	8654.666667
710.812008	8641.333333
712.205636	8721.666667
713.598694	8645.000000
714.991184	8574.000000
716.383105	8554.333333
717.774457	8654.000000
719.165241	8578.000000
720.555457	8593.333333
721.945105	8550.000000
723.334187	8585.000000
724.722701	8649.000000
726.110648	8619.333333
727.498030	8668.000000
728.884845	8787.000000
730.271094	8560.000000
731.656778	8581.333333
733.041897	8549.666667
734.426451	8525.000000
735.810441	8519.333333
737.193866	8536.666667
738.576728	8358.333333
739.959026	8512.666667
741.340760	8481.000000
742.721932	8528.666667
744.102541	8472.333333
745.482588	8495.333333
746.862073	8511.333333
748.240996	8487.666667
749.619358	8472.000000
750.997158	8525.333333
752.374398	8574.333333
753.751077	8505.666667
755.127197	8476.333333
756.502756	8568.666667
757.877756	8492.666667
759.252196	8550.333333
760.626078	8545.666667
761.999400	8533.666667
763.372165	8454.333333
764.744371	8446.333333
766.116020	8455.000000
767.487111	8409.666667
768.857646	8351.000000
770.227623	8386.000000
771.597044	8362.333333
772.965908	8308.000000
774.334217	8378.666667
775.701970	8322.666667
777.069168	8443.666667
778.435811	8361.000000
779.801899	8368.000000
781.167433	8328.333333
782.532412	8366.000000
783.896838	8330.333333
785.260710	8297.666667
786.624029	8314.333333
787.986796	8234.000000
789.349009	8253.000000
790.710671	8239.333333
792.071780	8256.666667
793.432338	8267.000000
794.792344	8264.000000
796.151799	8244.333333
797.510704	8248.333333
798.869058	8144.333333
800.226862	8148.333333
801.584116	8181.666667
802.940820	8173.666667
804.296975	8135.333333
805.652581	8218.666667
807.007638	8169.666667
808.362147	8292.000000
809.716108	8296.000000
811.069521	8184.666667
812.422387	8131.000000
813.774705	8180.666667
815.126476	8211.333333
816.477701	8128.666667
817.828380	8146.000000
819.178512	8150.666667
820.528099	8152.333333
821.877140	8164.000000
823.225637	8150.333333
824.573588	8133.333333
825.920995	8044.666667
827.267857	8130.333333
828.614176	8078.666667
829.959951	8088.333333
831.305183	8149.666667
832.649871	8140.666667
833.994017	8087.333333
835.337620	8091.333333
836.680681	8090.666667
838.023201	8112.333333
839.365178	8114.000000
840.706614	8019.666667
842.047510	8125.666667
843.387864	8189.666667
844.727678	8072.666667
846.066952	8269.666667
847.405687	8214.666667
848.743881	8157.666667
850.081537	8264.000000
851.418653	8338.666667
852.755231	8324.666667
854.091270	8307.333333
855.426771	8310.000000
856.761735	8312.333333
858.096160	8148.666667
859.430049	8228.000000
860.763401	8172.000000
862.096216	8212.333333
863.428495	8147.000000
864.760237	8144.000000
866.091444	8111.666667
867.422115	8125.333333
868.752252	8016.000000
870.081853	8128.333333
871.410919	8099.666667
872.739452	8088.333333
874.067450	8062.666667
875.394914	8059.000000
876.721845	8003.666667
878.048243	7979.000000
879.374108	7999.666667
880.699440	8025.000000
882.024240	7934.000000
883.348508	7933.000000
884.672244	7873.000000
885.995449	7867.000000
887.318122	7892.000000
888.640265	7868.666667
889.961877	7808.333333
891.282959	7822.666667
892.603510	7935.000000
893.923532	7853.000000
895.243024	7796.000000
896.561987	7874.666667
897.880422	7815.333333
899.198327	7713.666667
900.515705	7742.000000
901.832554	7742.333333
903.148875	7746.666667
904.464669	7767.000000
905.779936	7766.333333
907.094676	7701.000000
908.408889	7797.333333
909.722576	7784.000000
911.035737	7817.666667
912.348371	7774.000000
913.660481	7861.333333
914.972065	7868.333333
916.283124	7952.000000
917.593659	7965.333333
918.903669	7947.666667
920.213155	7925.333333
921.522117	7969.666667
922.830556	8016.000000
924.138471	8002.666667
925.445864	8070.000000
926.752733	7976.000000
928.059081	7960.000000
929.364906	7974.666667
930.670209	8017.000000
931.974991	8139.333333
933.279251	8145.333333
934.582990	8266.666667
935.886209	8364.333333
937.188907	8571.333333
938.491085	8544.000000
939.792743	8647.666667
941.093881	8810.000000
942.394500	9080.333333
943.694600	9200.666667
944.994181	9530.000000
946.293243	9791.666667
947.591787	10108.666667
948.889813	10532.000000
950.187322	11087.666667
951.484313	11690.666667
952.780787	12296.333333
954.076744	12923.666667
955.372184	13565.333333
956.667108	14138.666667
957.961516	14608.333333
959.255409	14714.000000
960.548785	14646.000000
961.841647	14208.666667
963.133993	13602.333333
964.425825	12910.000000
965.717142	12071.666667
967.007946	11243.333333
968.298235	10472.666667
969.588011	9797.000000
970.877273	9317.000000
972.166023	8827.666667
973.454259	8436.666667
974.741984	8197.333333
976.029196	8021.000000
977.315895	7829.666667
978.602084	7678.666667
979.887761	7562.333333
981.172926	7528.666667
982.457581	7476.333333
983.741725	7412.666667
985.025359	7376.000000
986.308483	7403.333333
987.591097	7301.333333
988.873202	7295.666667
990.154797	7291.000000
991.435883	7143.666667
992.716461	7261.000000
993.996530	7211.333333
995.276091	7169.000000
996.555144	7146.333333
997.833690	7272.666667
999.111728	7298.333333
1000.389259	7302.000000
1001.666283	7408.333333
1002.942800	7372.666667
1004.218812	7369.000000
1005.494317	7373.000000
1006.769317	7353.000000
1008.043811	7344.000000
1009.317799	7321.333333
1010.591283	7298.666667
1011.864263	7318.333333
1013.136737	7312.000000
1014.408708	7289.666667
1015.680175	7286.666667
1016.951138	7294.000000
1018.221598	7268.333333
1019.491554	7377.333333
1020.761008	7303.666667
1022.029959	7285.000000
1023.298408	7341.000000
1024.566355	7327.666667
1025.833800	7352.000000
1027.100744	7340.666667
1028.367187	7235.666667
1029.633128	7234.000000
1030.898569	7219.333333
1032.163509	7224.000000
1033.427949	7256.333333
1034.691890	7262.000000
1035.955330	7269.666667
1037.218271	7381.000000
1038.480714	7315.000000
1039.742657	7458.000000
1041.004101	7423.666667
1042.265048	7478.000000
1043.525496	7495.333333
1044.785446	7481.000000
1046.044899	7525.000000
1047.303855	7368.333333
1048.562313	7388.333333
1049.820275	7416.333333
1051.077740	7403.666667
1052.334709	7412.333333
1053.591182	7337.666667
1054.847160	7379.000000
1056.102641	7404.666667
1057.357628	7380.333333
1058.612120	7395.333333
1059.866117	7453.000000
1061.119619	7449.333333
1062.372628	7456.666667
1063.625142	7607.000000
1064.877163	7629.000000
1066.128691	7614.666667
1067.379725	7695.666667
1068.630267	7674.000000
1069.880316	7731.000000
1071.129872	7703.000000
1072.378937	7579.333333
1073.627509	7587.333333
1074.875590	7434.333333
1076.123180	7488.333333
1077.370279	7342.666667
1078.616887	7305.666667
1079.863004	7273.666667
1081.108631	7200.000000
1082.353768	7051.666667
1083.598415	7043.333333
1084.842573	6944.000000
1086.086241	6915.000000
1087.329421	6868.000000
1088.572111	6738.666667
1089.814314	6847.000000
1091.056028	6707.000000
1092.297253	6754.666667
1093.537992	6582.000000
1094.778242	6627.000000
1096.018006	6571.666667
1097.257282	6682.666667
1098.496072	6581.666667
1099.734376	6536.666667
1100.972193	6521.333333
1102.209524	6538.000000
1103.446370	6543.666667
1104.682730	6555.666667
1105.918604	6476.666667
1107.153994	6371.000000
1108.388900	6434.333333
1109.623320	6399.333333
1110.857257	6379.333333
1112.090710	6321.000000
1113.323679	6305.000000
1114.556164	6308.000000
1115.788167	6307.333333
1117.019686	6228.000000
1118.250723	6227.000000
1119.481278	6239.666667
1120.711350	6249.666667
1121.940940	6207.333333
1123.170049	6210.333333
1124.398676	6156.666667
1125.626823	6151.666667
1126.854488	6164.666667
1128.081672	6170.333333
1129.308376	6151.000000
1130.534600	6141.000000
1131.760345	6142.666667
1132.985609	6150.666667
1134.210394	6114.333333
1135.434700	6095.000000
1136.658527	6107.000000
1137.881875	6112.000000
1139.104745	6087.000000
1140.327136	6087.000000
1141.549050	6062.333333
1142.770486	6119.333333
1143.991445	6114.333333
1145.211926	6060.000000
1146.431931	6109.666667
1147.651459	6063.333333
1148.870510	6137.000000
1150.089086	6048.333333
1151.307185	6081.000000
1152.524808	6054.333333
1153.741957	6059.333333
1154.958630	6130.000000
1156.174828	6068.000000
1157.390551	6083.000000
1158.605800	6141.666667
1159.820574	6043.000000
1161.034875	6006.333333
1162.248702	6070.333333
1163.462055	6004.333333
1164.674936	6079.333333
1165.887343	6027.333333
1167.099277	5956.666667
1168.310739	6002.666667
1169.521729	6015.000000
1170.732247	6026.666667
1171.942293	6069.000000
1173.151867	5988.333333
1174.360970	6026.333333
1175.569602	5912.333333
1176.777764	5979.000000
1177.985454	5896.000000
1179.192675	5934.000000
1180.399425	5906.333333
1181.605706	5913.333333
1182.811517	5885.333333
1184.016859	5829.666667
1185.221731	5839.666667
1186.426135	5938.000000
1187.630070	5851.000000
1188.833537	5797.333333
1190.036535	5799.000000
1191.239066	5702.333333
1192.441129	5604.666667
1193.642725	5587.666667
1194.843853	5597.666667
1196.044515	5610.333333
1197.244710	5638.000000
1198.444438	5693.666667
1199.643701	5760.000000
1200.842497	5729.000000
1202.040827	5840.000000
1203.238693	5763.000000
1204.436092	5791.666667
1205.633027	5778.000000
1206.829497	5715.000000
1208.025503	5765.333333
1209.221044	5744.000000
1210.416122	5697.000000
1211.610735	5703.666667
1212.804885	5640.666667
1213.998572	5695.333333
1215.191795	5654.333333
1216.384556	5633.000000
1217.576854	5628.666667
1218.768689	5612.333333
1219.960063	5626.666667
1221.150974	5681.666667
1222.341424	5668.000000
1223.531413	5621.000000
1224.720940	5748.666667
1225.910006	5676.333333
1227.098612	5683.333333
1228.286757	5686.333333
1229.474442	5635.666667
1230.661667	5786.333333
1231.848432	5764.666667
1233.034738	5766.666667
1234.220584	5829.000000
1235.405971	5812.666667
1236.590900	5876.333333
1237.775369	5896.666667
1238.959381	5943.333333
1240.142934	5907.666667
1241.326029	6025.666667
1242.508667	6032.333333
1243.690848	5887.000000
1244.872571	5864.333333
1246.053837	5979.000000
1247.234646	5883.000000
1248.414999	5943.000000
1249.594896	5903.000000
1250.774337	5817.000000
1251.953322	5855.333333
1253.131851	5858.000000
1254.309925	5804.000000
1255.487544	5795.000000
1256.664708	5730.666667
1257.841417	5767.666667
1259.017673	5772.000000
1260.193473	5774.666667
1261.368820	5845.333333
1262.543714	5795.666667
1263.718154	5833.666667
1264.892140	5809.000000
1266.065674	5858.333333
1267.238755	5875.333333
1268.411383	5814.333333
1269.583559	5742.000000
1270.755283	5791.666667
1271.926555	5810.666667
1273.097375	5841.000000
1274.267744	5751.666667
1275.437662	5766.333333
1276.607129	5686.666667
1277.776145	5772.333333
1278.944711	5689.333333
1280.112827	5737.333333
1281.280492	5668.333333
1282.447708	5712.333333
1283.614474	5671.333333
1284.780791	5563.666667
1285.946659	5658.666667
1287.112078	5607.000000
1288.277048	5547.333333
1289.441570	5552.000000
1290.605644	5443.000000
1291.769270	5527.000000
1292.932448	5439.333333
1294.095178	5421.000000
1295.257461	5446.333333
1296.419298	5389.000000
1297.580687	5416.666667
1298.741630	5446.333333
1299.902126	5380.000000
1301.062177	5383.666667
1302.221781	5421.333333
1303.380940	5426.000000
1304.539653	5434.333333
1305.697921	5418.666667
1306.855744	5403.333333
1308.013123	5386.666667
1309.170056	5437.666667
1310.326546	5462.333333
1311.482591	5393.666667
1312.638193	5402.333333
1313.793350	5392.666667
1314.948065	5373.000000
1316.102336	5377.666667
1317.256164	5408.666667
1318.409550	5428.000000
1319.562493	5370.333333
1320.714993	5364.000000
1321.867052	5401.666667
1323.018668	5356.666667
1324.169843	5264.666667
1325.320577	5320.000000
1326.470870	5341.000000
1327.620721	5296.000000
1328.770132	5251.000000
1329.919102	5192.000000
1331.067632	5294.333333
1332.215722	5200.666667
1333.363372	5222.333333
1334.510582	5167.333333
1335.657353	5247.333333
1336.803685	5226.666667
1337.949578	5256.333333
1339.095032	5283.333333
1340.240048	5258.000000
1341.384625	5276.666667
1342.528764	5300.333333
1343.672466	5286.000000
1344.815729	5295.333333
1345.958556	5244.333333
1347.100945	5232.666667
1348.242897	5260.333333
1349.384413	5165.000000
1350.525492	5183.666667
1351.666134	5161.666667
1352.806341	5169.666667
1353.946111	5106.333333
1355.085446	5109.333333
1356.224346	5098.000000
1357.362810	5079.666667
1358.500840	5084.666667
1359.638434	5065.333333
1360.775594	5084.666667
1361.912320	5060.666667
1363.048612	5029.000000
1364.184469	4990.666667
1365.319893	4947.666667
1366.454884	5014.000000
1367.589441	5079.666667
1368.723566	5013.000000
1369.857257	5049.666667
1370.990516	5073.000000
1372.123343	5062.333333
1373.255737	5067.000000
1374.387699	5031.666667
1375.519230	5110.333333
1376.650329	5056.333333
1377.780997	5040.000000
1378.911234	5112.666667
1380.041040	5055.666667
1381.170416	5047.333333
1382.299361	4970.666667
1383.427875	5068.333333
1384.555960	4962.000000
1385.683615	4961.666667
1386.810841	5010.333333
1387.937637	4984.000000
1389.064004	5019.333333
1390.189942	4984.333333
1391.315451	4984.666667
1392.440532	5001.333333
1393.565185	5006.666667
1394.689409	5046.333333
1395.813206	4972.000000
1396.936575	4985.333333
1398.059517	4990.000000
1399.182032	4934.000000
1400.304119	4944.666667
1401.425780	4975.333333
1402.547014	4944.000000
1403.667822	4944.666667
1404.788204	4976.000000
1405.908160	4998.666667
1407.027690	4949.000000
1408.146795	4960.666667
1409.265474	4995.666667
1410.383728	4955.333333
1411.501558	4987.666667
1412.618963	4943.333333
1413.735943	4938.000000
1414.852499	4951.666667
1415.968632	5030.666667
1417.084340	4946.333333
1418.199625	5055.000000
1419.314486	4983.000000
1420.428925	4943.000000
1421.542940	4995.333333
1422.656533	4994.666667
1423.769703	4943.333333
1424.882451	5040.000000
1425.994777	5016.666667
1427.106680	4952.000000
1428.218163	5015.000000
1429.329223	4976.000000
1430.439863	4928.666667
1431.550081	4926.000000
1432.659879	4967.333333
1433.769256	4857.000000
1434.878212	4906.666667
1435.986749	4830.000000
1437.094865	4926.000000
1438.202562	4948.666667
1439.309839	4919.666667
1440.416696	4944.333333
1441.523135	4941.333333
1442.629154	5053.000000
1443.734755	4940.333333
1444.839937	5038.000000
1445.944701	5065.666667
1447.049047	5027.000000
1448.152975	5084.000000
1449.256485	5071.000000
1450.359577	5079.333333
1451.462253	5062.666667
1452.564511	5040.666667
1453.666352	5048.000000
1454.767777	4976.000000
1455.868785	5063.000000
1456.969377	5039.000000
1458.069553	5002.000000
1459.169313	4920.333333
1460.268658	4936.666667
1461.367587	4865.333333
1462.466101	4931.666667
1463.564200	4860.333333
1464.661884	4833.666667
1465.759153	4835.333333
1466.856008	4834.000000
1467.952449	4783.000000
1469.048476	4707.666667
1470.144089	4731.000000
1471.239288	4641.000000
1472.334074	4646.333333
1473.428447	4570.000000
1474.522407	4539.666667
1475.615955	4561.666667
1476.709089	4512.333333
1477.801812	4446.000000
1478.894122	4508.666667
1479.986020	4430.333333
1481.077506	4420.333333
1482.168581	4478.666667
1483.259245	4392.000000
1484.349498	4374.666667
1485.439339	4366.333333
1486.528770	4348.333333
1487.617790	4341.666667
1488.706400	4326.333333
1489.794600	4323.666667
1490.882390	4315.666667
1491.969771	4389.666667
1493.056742	4327.333333
1494.143303	4318.000000
1495.229456	4321.333333
1496.315199	4264.333333
1497.400534	4307.333333
1498.485460	4266.333333
1499.569978	4245.333333
1500.654088	4238.666667
1501.737790	4302.000000
1502.821085	4252.000000
1503.903972	4198.000000
1504.986451	4181.000000
1506.068524	4243.000000
1507.150189	4270.000000
1508.231448	4227.666667
1509.312301	4208.000000
1510.392747	4168.000000
1511.472787	4148.666667
1512.552422	4187.666667
1513.631650	4191.666667
1514.710473	4194.666667
1515.788891	4137.333333
1516.866904	4117.666667
1517.944512	4212.666667
1519.021715	4226.000000
1520.098513	4208.333333
1521.174908	4232.333333
1522.250898	4221.666667
1523.326485	4191.000000
1524.401667	4176.666667
1525.476447	4190.666667
1526.550823	4234.000000
1527.624796	4175.333333
1528.698365	4206.000000
1529.771533	4227.000000
1530.844298	4280.666667
1531.916660	4237.000000
1532.988620	4220.333333
1534.060179	4220.666667
1535.131336	4241.000000
1536.202091	4245.666667
1537.272445	4158.666667
1538.342398	4188.333333
1539.411950	4163.666667
1540.481101	4110.000000
1541.549851	4127.000000
1542.618202	4150.000000
1543.686152	4118.333333
1544.753702	4119.333333
1545.820853	4130.666667
1546.887604	4139.666667
1547.953955	4093.666667
1549.019908	4110.000000
1550.085461	4089.000000
1551.150616	4102.333333
1552.215372	4035.666667
1553.279730	4036.000000
1554.343690	4000.666667
1555.407252	4019.000000
1556.470415	4012.666667
1557.533182	3999.333333
1558.595551	3975.000000
1559.657522	3956.666667
1560.719097	3974.333333
1561.780275	4010.000000
1562.841056	3959.333333
1563.901441	3940.000000
1564.961429	3936.000000
1566.021022	3935.000000
1567.080219	3912.666667
1568.139020	3952.000000
1569.197425	3858.000000
1570.255436	3846.333333
1571.313051	3904.000000
1572.370271	3860.000000
1573.427097	3921.666667
1574.483528	3883.000000
1575.539565	3910.333333
1576.595208	3864.000000
1577.650457	3896.666667
1578.705312	3854.333333
1579.759774	3796.333333
1580.813842	3825.666667
1581.867517	3765.333333
1582.920799	3743.666667
1583.973689	3734.333333
1585.026186	3757.333333
1586.078290	3742.000000
1587.130002	3811.333333
1588.181323	3763.000000
1589.232251	3781.666667
1590.282788	3756.333333
1591.332933	3764.666667
1592.382688	3717.666667
1593.432051	3750.000000
1594.481023	3731.666667
1595.529605	3798.333333
1596.577796	3772.000000
1597.625597	3808.000000
1598.673007	3810.000000
1599.720028	3834.000000
1600.766660	3805.000000
1601.812901	3827.333333
1602.858753	3852.666667
1603.904217	3773.000000
1604.949291	3848.000000
1605.993976	3888.333333
1607.038273	3876.000000
1608.082182	3834.666667
1609.125702	3830.666667
1610.168834	3819.000000
1611.211579	3756.333333
1612.253935	3729.666667
1613.295905	3668.666667
1614.337487	3715.333333
1615.378682	3668.333333
1616.419490	3735.666667
1617.459912	3681.333333
1618.499946	3779.666667
1619.539595	3798.666667
1620.578858	3869.000000
1621.617734	3822.333333
1622.656225	3824.666667
1623.694330	3885.333333
1624.732050	3831.333333
1625.769385	3690.000000
1626.806334	3776.333333
1627.842899	3764.333333
1628.879079	3786.666667
1629.914875	3752.333333
1630.950286	3789.000000
1631.985314	3753.000000
1633.019957	3791.000000
1634.054217	3828.666667
1635.088093	3781.666667
1636.121586	3797.333333
1637.154696	3768.000000
1638.187423	3766.000000
1639.219767	3840.666667
1640.251728	3821.333333
1641.283307	3852.333333
1642.314504	3859.333333
1643.345319	3854.333333
1644.375751	3883.666667
1645.405803	3845.000000
1646.435472	3798.000000
1647.464761	3866.333333
1648.493668	3763.000000
1649.522194	3902.666667
1650.550340	3837.333333
1651.578105	3857.000000
1652.605490	3805.666667
1653.632494	3851.333333
1654.659119	3807.333333
1655.685363	3840.333333
1656.711228	3805.666667
1657.736714	3762.666667
1658.761820	3776.333333
1659.786547	3765.333333
1660.810895	3782.000000
1661.834865	3767.000000
1662.858456	3733.666667
1663.881668	3777.666667
1664.904503	3750.333333
1665.926959	3725.333333
1666.949038	3714.666667
1667.970739	3732.666667
1668.992062	3704.333333
1670.013008	3712.666667
1671.033577	3705.666667
1672.053770	3761.666667
1673.073585	3712.000000
1674.093024	3742.333333
1675.112086	3705.000000
1676.130773	3671.666667
1677.149083	3631.666667
1678.167017	3621.000000
1679.184576	3609.000000
1680.201760	3624.666667
1681.218568	3652.666667
1682.235001	3672.000000
1683.251059	3659.666667
1684.266742	3667.333333
1685.282051	3622.333333
1686.296985	3650.666667
1687.311546	3613.000000
1688.325732	3533.333333
1689.339544	3510.666667
1690.352983	3474.333333
1691.366048	3463.333333
1692.378740	3410.666667
1693.391058	3448.000000
1694.403004	3432.000000
1695.414577	3411.000000
1696.425778	3429.666667
1697.436606	3409.000000
1698.447061	3387.333333
1699.457145	3377.333333
1700.466857	3292.666667
1701.476197	3284.333333
1702.485166	3218.666667
1703.493763	3202.666667
1704.501989	3243.333333
1705.509844	3212.000000
1706.517328	3230.333333
1707.524442	3240.000000
1708.531185	3245.666667
1709.537558	3246.666667
1710.543561	3245.000000
1711.549194	3212.666667
1712.554457	3159.333333
1713.559351	3149.666667
1714.563875	3156.000000
1715.568030	3152.000000
1716.571816	3159.333333
1717.575233	3230.333333
1718.578282	3197.666667
1719.580962	3274.333333
1720.583273	3311.666667
1721.585217	3276.333333
1722.586792	3292.666667
1723.588000	3247.333333
1724.588840	3169.333333
1725.589312	3204.333333
1726.589418	3219.000000
1727.589156	3219.333333
1728.588527	3240.666667
1729.587532	3263.000000
1730.586170	3276.333333
1731.584441	3300.000000
1732.582346	3246.000000
1733.579886	3234.333333
1734.577059	3184.666667
1735.573867	3233.666667
1736.570309	3217.000000
1737.566386	3224.000000
1738.562097	3201.333333
1739.557444	3233.666667
1740.552426	3177.666667
1741.547043	3206.000000
1742.541295	3164.666667
1743.535184	3169.333333
1744.528708	3199.666667
1745.521868	3188.000000
1746.514664	3155.333333
1747.507097	3118.333333
1748.499166	3085.333333
1749.490873	3073.666667
1750.482216	3150.333333
1751.473196	3143.000000
1752.463813	3104.666667
1753.454068	3108.666667
1754.443960	3173.000000
1755.433490	3137.333333
1756.422658	3036.333333
1757.411464	3035.333333
1758.399908	3034.333333
1759.387991	3072.333333
1760.375713	3056.666667
1761.363073	3073.333333
1762.350072	3066.333333
1763.336711	3056.333333
1764.322988	3089.666667
1765.308905	3105.666667
1766.294462	3071.333333
1767.279659	3071.333333
1768.264496	3006.666667
1769.248972	2997.000000
1770.233089	2954.000000
1771.216847	2963.000000
1772.200245	2890.666667
1773.183284	2955.000000
1774.165965	2989.000000
1775.148286	2945.000000
1776.130249	2979.666667
1777.111853	2912.666667
1778.093099	2935.333333
1779.073987	2905.000000
1780.054517	2932.333333
1781.034689	2864.666667
1782.014503	2837.666667
1782.993960	2805.333333
1783.973060	2788.333333
1784.951802	2719.333333
1785.930188	2756.000000
1786.908217	2746.666667
1787.885889	2715.333333
1788.863205	2721.333333
1789.840164	2713.000000
1790.816768	2693.333333
1791.793015	2706.333333
1792.768907	2735.333333
1793.744443	2736.666667
1794.719624	2725.666667
1795.694449	2778.666667
1796.668919	2732.000000
1797.643035	2776.000000
1798.616795	2778.333333
1799.590201	2808.333333
1800.563253	2798.333333
1801.535950	2793.666667
1802.508294	2753.333333
1803.480283	2838.333333
1804.451919	2857.333333
1805.423201	2828.666667
1806.394129	2801.333333
1807.364705	2829.333333
1808.334927	2813.666667
1809.304796	2814.666667
1810.274313	2799.666667
1811.243477	2767.333333
1812.212288	2725.333333
1813.180747	2756.666667
1814.148855	2730.666667
1815.116610	2727.666667
1816.084013	2789.000000
1817.051065	2781.333333
1818.017766	2772.666667
1818.984115	2799.333333
1819.950113	2796.000000
1820.915760	2809.000000
1821.881057	2757.000000
1822.846003	2766.333333
1823.810598	2794.333333
1824.774843	2831.000000
1825.738738	2757.000000
1826.702283	2828.666667
1827.665479	2807.000000
1828.628324	2843.666667
1829.590821	2772.666667
1830.552968	2807.666667
1831.514765	2767.000000
1832.476214	2801.666667
1833.437314	2723.333333
1834.398066	2745.333333
1835.358469	2746.666667
1836.318524	2730.666667
1837.278230	2714.000000
1838.237589	2666.333333
1839.196600	2720.333333
1840.155263	2720.333333
1841.113578	2711.666667
1842.071547	2737.666667
1843.029168	2754.666667
1843.986442	2797.666667
1844.943369	2763.666667
1845.899950	2793.333333
1846.856184	2737.333333
1847.812072	2710.333333
1848.767614	2680.333333
1849.722809	2702.666667
1850.677659	2654.000000
1851.632163	2686.333333
1852.586322	2714.333333
1853.540135	2693.333333
1854.493603	2725.666667
1855.446726	2772.333333
1856.399504	2693.000000
1857.351937	2691.333333
1858.304026	2697.333333
1859.255770	2655.333333
1860.207170	2618.000000
1861.158227	2598.666667
1862.108939	2563.333333
1863.059307	2598.000000
1864.009332	2551.000000
1864.959013	2546.666667
1865.908351	2576.000000
1866.857346	2547.333333
1867.805998	2622.666667
1868.754307	2570.000000
1869.702274	2567.333333
1870.649898	2550.666667
1871.597180	2523.666667
1872.544119	2546.333333
1873.490717	2522.333333
1874.436973	2514.666667
1875.382887	2545.333333
1876.328459	2499.333333
1877.273691	2480.333333
1878.218581	2499.333333
1879.163130	2513.000000
1880.107338	2507.000000
1881.051205	2510.666667
1881.994732	2510.333333
1882.937919	2530.333333
1883.880765	2507.000000
1884.823271	2534.333333
1885.765437	2514.666667
1886.707264	2505.666667
1887.648750	2522.666667
1888.589898	2527.666667
1889.530706	2536.333333
1890.471175	2575.666667
1891.411305	2572.666667
1892.351096	2590.666667
1893.290548	2575.000000
1894.229662	2599.666667
1895.168438	2573.666667
1896.106876	2570.666667
1897.044975	2597.000000
1897.982737	2553.666667
1898.920160	2574.666667
1899.857247	2575.333333
1900.793996	2576.333333
1901.730407	2554.333333
1902.666482	2533.666667
1903.602219	2536.666667
1904.537620	2527.333333
1905.472685	2482.666667
1906.407412	2530.666667
1907.341804	2519.666667
1908.275859	2496.000000
1909.209579	2493.666667
1910.142962	2519.333333
1911.076010	2442.666667
1912.008722	2472.000000
1912.941099	2437.666667
1913.873141	2423.333333
1914.804848	2392.666667
1915.736219	2397.000000
1916.667256	2389.000000
1917.597959	2396.000000
1918.528327	2370.000000
1919.458360	2388.333333
1920.388060	2377.333333
1921.317426	2374.333333
1922.246457	2360.666667
1923.175156	2341.333333
1924.103520	2362.000000
1925.031552	2397.666667
1925.959250	2375.333333
1926.886615	2378.666667
1927.813647	2308.333333
1928.740346	2323.333333
1929.666713	2351.666667
1930.592748	2369.000000
1931.518450	2357.666667
1932.443820	2330.666667
1933.368858	2316.333333
1934.293564	2356.333333
1935.217939	2375.333333
1936.141982	2327.333333
1937.065694	2292.000000
1937.989074	2295.000000
1938.912124	2301.333333
1939.834842	2293.333333
1940.757230	2255.333333
1941.679287	2295.333333
1942.601014	2273.333333
1943.522411	2285.333333
1944.443477	2279.666667
1945.364214	2312.333333
1946.284621	2287.666667
1947.204698	2305.333333
1948.124445	2264.333333
1949.043863	2246.666667
1949.962952	2252.666667
1950.881712	2232.666667
1951.800143	2247.333333
1952.718245	2238.666667
1953.636019	2194.666667
1954.553464	2217.333333
1955.470581	2170.000000
1956.387369	2193.666667
1957.303830	2206.000000
1958.219963	2175.000000
1959.135768	2165.333333
1960.051246	2192.000000
1960.966396	2170.333333
1961.881219	2201.333333
1962.795715	2213.333333
1963.709883	2185.000000
1964.623726	2189.333333
1965.537241	2201.666667
1966.450430	2235.333333
1967.363293	2239.000000
1968.275829	2235.666667
1969.188040	2208.333333
1970.099924	2193.000000
1971.011483	2248.000000
1971.922716	2236.000000
1972.833624	2209.666667
1973.744206	2241.000000
1974.654464	2245.666667
1975.564396	2235.333333
1976.474004	2245.000000
1977.383286	2176.666667
1978.292245	2194.333333
1979.200878	2188.666667
1980.109188	2199.000000
1981.017174	2140.333333
1981.924835	2142.000000
1982.832173	2145.333333
1983.739187	2155.000000
1984.645878	2158.000000
1985.552245	2133.000000
1986.458289	2155.666667
1987.364010	2119.000000
1988.269408	2104.333333
1989.174484	2071.666667
1990.079236	2053.000000
1990.983667	2066.666667
1991.887775	2048.000000
1992.791561	2088.333333
1993.695024	2066.666667
1994.598166	2001.333333
1995.500986	2009.333333
1996.403485	2022.333333
1997.305662	2001.333333
1998.207518	1973.000000
1999.109053	2010.666667
