200.151048	14287.000000
201.758777	14234.666667
203.365815	14238.333333
204.972162	14138.666667
206.577820	14215.333333
208.182787	14015.666667
209.787065	13986.666667
211.390653	13917.000000
212.993553	13765.666667
214.595765	13890.666667
216.197289	13742.000000
217.798125	13812.000000
219.398274	13814.000000
220.997737	13739.333333
222.596513	13714.666667
224.194603	13742.666667
225.792008	13605.000000
227.388728	13556.666667
228.984763	13537.666667
230.580114	13534.333333
232.174781	13568.666667
233.768765	13424.333333
235.362065	13260.666667
236.954683	13333.666667
238.546619	13184.333333
240.137872	13267.000000
241.728445	13148.666667
243.318336	13127.000000
244.907546	13087.666667
246.496076	13116.666667
248.083926	13054.666667
249.671097	13043.000000
251.257589	12923.666667
252.843402	12944.333333
254.428536	12791.333333
256.012993	12830.000000
257.596772	12794.666667
259.179874	12733.333333
260.762300	12647.000000
262.344049	12604.000000
263.925122	12585.333333
265.505519	12605.000000
267.085241	12591.666667
268.664289	12557.333333
270.242662	12547.000000
271.820361	12482.000000
273.397387	12544.333333
274.973740	12357.333333
276.549419	12274.000000
278.124426	12409.000000
279.698762	12474.666667
281.272425	12430.666667
282.845417	12348.666667
284.417739	12385.666667
285.989390	12356.333333
287.560371	12411.666667
289.130682	12497.000000
290.700324	12356.000000
292.269297	12264.333333
293.837602	12257.666667
295.405238	12288.000000
296.972207	12304.666667
298.538508	12296.000000
300.104142	12273.333333
301.669110	12229.333333
303.233411	12150.000000
304.797047	12063.000000
306.360017	12003.333333
307.922322	11942.666667
309.483963	11888.000000
311.044939	11885.000000
312.605252	11699.000000
314.164900	11793.666667
315.723886	11679.000000
317.282209	11661.666667
318.839870	11664.333333
320.396868	11628.000000
321.953205	11559.000000
323.508881	11496.666667
325.063896	11463.666667
326.618251	11467.666667
328.171945	11400.333333
329.724980	11504.000000
331.277356	11338.666667
332.829072	11379.000000
334.380131	11346.666667
335.930530	11429.000000
337.480273	11341.000000
339.029357	11313.333333
340.577785	11187.333333
342.125556	11293.333333
343.672671	11189.666667
345.219130	11223.333333
346.764933	11120.666667
348.310081	11153.333333
349.854575	11025.333333
351.398414	11062.666667
352.941599	11149.333333
354.484130	11037.000000
356.026008	11057.000000
357.567234	10998.000000
359.107807	10959.333333
360.647727	10864.666667
362.186996	10945.666667
363.725614	10859.000000
365.263580	10865.000000
366.800896	10873.666667
368.337562	10795.333333
369.873578	10846.666667
371.408944	10840.333333
372.943661	10804.666667
374.477730	10891.666667
376.011150	10855.666667
377.543922	10889.333333
379.076046	10935.000000
380.607523	10906.333333
382.138353	10990.000000
383.668537	10877.333333
385.198075	10984.333333
386.726966	10948.333333
388.255213	10940.333333
389.782814	10987.666667
391.309770	11044.000000
392.836083	11098.000000
394.361751	11019.666667
395.886776	11059.333333
397.411157	11161.666667
398.934896	11079.000000
400.457992	11104.333333
401.980446	11070.333333
403.502258	11226.333333
405.023429	11265.666667
406.543959	11229.666667
408.063849	11257.333333
409.583098	11440.000000
411.101707	11403.333333
412.619677	11494.666667
414.137007	11665.333333
415.653699	11746.333333
417.169752	11900.000000
418.685167	12048.333333
420.199945	12202.000000
421.714085	12302.000000
423.227588	12500.000000
424.740454	12673.333333
426.252684	12695.666667
427.764279	12796.333333
429.275238	12863.000000
430.785561	12687.333333
432.295250	12677.333333
433.804304	12596.333333
435.312725	12455.333333
436.820511	12304.000000
438.327664	12236.000000
439.834185	12149.000000
441.340072	12029.333333
442.845327	11799.666667
444.349951	11826.333333
445.853942	11814.333333
447.357303	11703.000000
448.860033	11628.333333
450.362132	11632.000000
451.863601	11543.666667
453.364440	11346.666667
454.864650	11302.333333
456.364231	11158.666667
457.863183	11006.000000
459.361507	10811.666667
460.859203	10857.000000
462.356271	10722.000000
463.852712	10605.333333
465.348526	10468.666667
466.843714	10451.333333
468.338275	10310.666667
469.832210	10303.666667
471.325520	10262.666667
472.818205	10134.000000
474.310265	10101.000000
475.801700	10074.666667
477.292512	10042.000000
478.782700	9972.000000
480.272264	9939.666667
481.761205	9865.333333
483.249524	9829.000000
484.737221	9903.666667
486.224295	9758.000000
487.710748	9739.333333
489.196579	9638.000000
490.681790	9549.000000
492.166380	9574.666667
493.650350	9607.000000
495.133700	9690.333333
496.616431	9629.000000
498.098542	9581.000000
499.580035	9666.666667
501.060909	9683.000000
502.541165	9630.333333
504.020804	9687.666667
505.499825	9654.333333
506.978228	9654.333333
508.456016	9528.000000
509.933186	9486.333333
511.409741	9393.000000
512.885680	9341.666667
514.361004	9474.666667
515.835713	9411.000000
517.309807	9570.000000
518.783287	9529.666667
520.256153	9605.000000
521.728406	9604.333333
523.200045	9564.666667
524.671071	9562.666667
526.141485	9554.333333
527.611287	9566.666667
529.080476	9619.000000
530.549054	9591.333333
532.017021	9626.000000
533.484378	9629.666667
534.951123	9548.666667
536.417259	9629.333333
537.882785	9588.000000
539.347701	9550.666667
540.812008	9518.333333
542.275707	9564.666667
543.738797	9512.666667
545.201279	9673.333333
546.663153	9596.666667
548.124420	9615.666667
549.585080	9801.333333
551.045133	9840.333333
552.504579	9832.333333
553.963420	9896.333333
555.421655	9903.000000
556.879285	9870.333333
558.336309	9890.333333
559.792729	9906.333333
561.248545	9945.000000
562.703756	9981.666667
564.158364	9989.333333
565.612369	10019.666667
567.065770	10239.333333
568.518569	10221.000000
569.970766	10280.666667
571.422361	10257.333333
572.873354	10404.666667
574.323745	10468.000000
575.773536	10516.000000
577.222726	10571.666667
578.671316	10754.000000
580.119306	10772.333333
581.566696	10712.666667
583.013487	10595.000000
584.459679	10485.000000
585.905273	10466.333333
587.350268	10421.000000
588.794665	10346.666667
590.238465	10528.000000
591.681667	10423.333333
593.124272	10449.666667
594.566281	10332.333333
596.007694	10260.333333
597.448510	10185.000000
598.888731	9999.666667
600.328357	10022.000000
601.767388	9906.000000
603.205824	9809.000000
604.643666	9816.666667
606.080914	9776.000000
607.517568	9848.333333
608.953629	9794.000000
610.389097	9806.000000
611.823972	9805.000000
613.258255	9791.000000
614.691946	9739.333333
616.125046	9663.333333
617.557554	9539.666667
618.989471	9513.666667
620.420798	9365.666667
621.851534	9288.333333
623.281680	9203.000000
624.711237	9010.000000
626.140204	9002.000000
627.568582	9031.000000
628.996372	8833.000000
630.423573	8894.333333
631.850186	8785.000000
633.276211	8730.000000
634.701650	8889.000000
636.126501	8696.000000
637.550765	8780.666667
638.974443	8774.000000
640.397535	8799.666667
641.820041	8757.333333
643.241961	8784.000000
644.663297	8873.333333
646.084048	8721.000000
647.504214	8727.666667
648.923796	8639.333333
650.342795	8632.666667
651.761210	8610.666667
653.179041	8459.333333
654.596290	8538.000000
656.012957	8540.000000
657.429041	8502.000000
658.844543	8491.333333
660.259464	8599.000000
661.673804	8565.666667
663.087563	8488.333333
664.500741	8458.333333
665.913339	8495.666667
667.325357	8530.666667
668.736795	8535.000000
670.147654	8560.000000
671.557934	8587.000000
672.967636	8493.333333
674.376759	8511.333333
675.785304	8478.000000
677.193271	8490.666667
678.600661	8584.000000
680.007474	8511.000000
681.413711	8591.000000
682.819370	8490.333333
684.224454	8409.666667
685.628962	8417.666667
687.032895	8458.333333
688.436252	8457.000000
689.839034	8601.000000
691.241242	8477.333333
692.642876	8432.333333
694.043936	8492.000000
695.444422	8466.000000
696.844336	8371.333333
698.243676	8328.666667
699.642443	8360.000000
701.040639	8427.666667
702.438262	8361.333333
703.835313	8395.333333
705.231794	8379.666667
706.627703	8467.000000
708.023041	8357.000000
709.417810	8355.000000
710.812008	8428.333333
712.205636	8348.000000
713.598694	8423.333333
714.991184	8337.000000
716.383105	8259.333333
717.774457	8306.666667
719.165241	8263.333333
720.555457	8242.333333
721.945105	8256.666667
723.334187	8313.000000
724.722701	8262.666667
726.110648	8391.666667
727.498030	8310.666667
728.884845	8362.666667
730.271094	8280.333333
731.656778	8288.333333
733.041897	8223.333333
734.426451	8248.333333
735.810441	8167.000000
737.193866	8168.333333
738.576728	8217.333333
739.959026	8144.333333
741.340760	8129.666667
742.721932	8160.000000
744.102541	8188.333333
745.482588	8266.000000
746.862073	8182.666667
748.240996	8171.666667
749.619358	8205.000000
750.997158	8216.000000
752.374398	8264.666667
753.751077	8187.333333
755.127197	8324.333333
756.502756	8275.666667
757.877756	8265.333333
759.252196	8316.333333
760.626078	8226.666667
761.999400	8224.000000
763.372165	8171.333333
764.744371	8289.666667
766.116020	8268.333333
767.487111	8150.666667
768.857646	8165.333333
770.227623	8094.000000
771.597044	8172.000000
772.965908	8020.000000
774.334217	8049.000000
775.701970	8035.333333
777.069168	8055.666667
778.435811	8068.000000
779.801899	7972.666667
781.167433	8049.666667
782.532412	8037.000000
783.896838	7991.333333
785.260710	8008.333333
786.624029	8007.000000
787.986796	8010.000000
789.349009	7902.333333
790.710671	7921.000000
792.071780	7956.666667
793.432338	8007.333333
794.792344	7897.000000
796.151799	7898.666667
797.510704	7903.000000
798.869058	7902.000000
800.226862	7884.666667
801.584116	7891.333333
802.940820	7823.000000
804.296975	7948.333333
805.652581	7973.666667
807.007638	7917.333333
808.362147	7994.333333
809.716108	7968.666667
811.069521	7962.000000
812.422387	7955.333333
813.774705	7921.666667
815.126476	7927.666667
816.477701	7993.666667
817.828380	7925.666667
819.178512	7968.000000
820.528099	7901.666667
821.877140	7923.333333
823.225637	7917.000000
824.573588	7900.333333
825.920995	7889.333333
827.267857	7840.000000
828.614176	7821.000000
829.959951	7862.333333
831.305183	7792.333333
832.649871	7768.333333
833.994017	7879.666667
835.337620	7877.333333
836.680681	7892.666667
838.023201	7904.333333
839.365178	7926.333333
840.706614	7900.333333
842.047510	7942.333333
843.387864	8012.666667
844.727678	7894.666667
846.066952	8043.333333
847.405687	8055.666667
848.743881	8115.000000
850.081537	8158.666667
851.418653	8233.000000
852.755231	8219.000000
854.091270	8213.333333
855.426771	8244.000000
856.761735	8208.333333
858.096160	8205.333333
859.430049	8117.000000
860.763401	8115.000000
862.096216	7992.000000
863.428495	8053.666667
864.760237	7977.000000
866.091444	7987.333333
867.422115	8081.666667
868.752252	7992.333333
870.081853	7953.666667
871.410919	7955.333333
872.739452	7985.666667
874.067450	8011.333333
875.394914	7919.000000
876.721845	7893.666667
878.048243	7995.000000
879.374108	7941.333333
880.699440	7844.333333
882.024240	7877.666667
883.348508	7742.000000
884.672244	7852.666667
885.995449	7858.333333
887.318122	7732.000000
888.640265	7757.333333
889.961877	7691.000000
891.282959	7764.333333
892.603510	7706.666667
893.923532	7681.333333
895.243024	7656.666667
896.561987	7617.000000
897.880422	7599.666667
899.198327	7605.333333
900.515705	7614.000000
901.832554	7659.000000
903.148875	7597.000000
904.464669	7594.333333
905.779936	7659.000000
907.094676	7686.333333
908.408889	7658.333333
909.722576	7688.333333
911.035737	7692.000000
912.348371	7796.666667
913.660481	7830.000000
914.972065	7881.000000
916.283124	7958.000000
917.593659	7970.333333
918.903669	8069.666667
920.213155	8105.333333
921.522117	8102.666667
922.830556	8123.000000
924.138471	8053.666667
925.445864	8071.000000
926.752733	8084.000000
928.059081	8115.333333
929.364906	8143.000000
930.670209	8224.666667
931.974991	8314.666667
933.279251	8383.000000
934.582990	8417.333333
935.886209	8738.333333
937.188907	8681.000000
938.491085	8923.666667
939.792743	9062.000000
941.093881	9238.333333
942.394500	9541.333333
943.694600	9951.333333
944.994181	10200.666667
946.293243	10643.000000
947.591787	11010.666667
948.889813	11673.666667
950.187322	12219.333333
951.484313	13060.333333
952.780787	13800.666667
954.076744	14617.666667
955.372184	15484.666667
956.667108	16081.333333
957.961516	16665.000000
959.255409	16716.666667
960.548785	16558.000000
961.841647	16080.333333
963.133993	15184.666667
964.425825	14267.666667
965.717142	13256.333333
967.007946	12346.000000
968.298235	11365.666667
969.588011	10604.666667
970.877273	9901.000000
972.166023	9207.333333
973.454259	8849.666667
974.741984	8458.000000
976.029196	8280.666667
977.315895	8063.333333
978.602084	7799.000000
979.887761	7687.666667
981.172926	7543.000000
982.457581	7511.000000
983.741725	7425.333333
985.025359	7397.666667
986.308483	7361.666667
987.591097	7370.333333
988.873202	7246.333333
990.154797	7225.666667
991.435883	7294.666667
992.716461	7236.666667
993.996530	7214.333333
995.276091	7195.000000
996.555144	7276.000000
997.833690	7314.666667
999.111728	7364.666667
1000.389259	7418.666667
1001.666283	7459.333333
1002.942800	7552.000000
1004.218812	7488.666667
1005.494317	7410.000000
1006.769317	7322.666667
1008.043811	7349.666667
1009.317799	7412.666667
1010.591283	7337.666667
1011.864263	7358.333333
1013.136737	7338.000000
1014.408708	7376.000000
1015.680175	7311.333333
1016.951138	7395.333333
1018.221598	7351.333333
1019.491554	7360.000000
1020.761008	7437.666667
1022.029959	7472.000000
1023.298408	7429.000000
1024.566355	7489.333333
1025.833800	7441.666667
1027.100744	7449.333333
1028.367187	7470.666667
1029.633128	7417.333333
1030.898569	7428.000000
1032.163509	7462.000000
1033.427949	7396.666667
1034.691890	7456.333333
1035.955330	7486.666667
1037.218271	7528.666667
1038.480714	7635.333333
1039.742657	7550.333333
1041.004101	7541.666667
1042.265048	7617.333333
1043.525496	7630.333333
1044.785446	7633.666667
1046.044899	7591.666667
1047.303855	7585.333333
1048.562313	7549.333333
1049.820275	7518.666667
1051.077740	7409.333333
1052.334709	7483.333333
1053.591182	7510.000000
1054.847160	7473.666667
1056.102641	7497.333333
1057.357628	7479.666667
1058.612120	7642.000000
1059.866117	7628.333333
1061.119619	7737.333333
1062.372628	7702.000000
1063.625142	7847.000000
1064.877163	7871.333333
1066.128691	7920.000000
1067.379725	7896.000000
1068.630267	7987.000000
1069.880316	7886.666667
1071.129872	7968.000000
1072.378937	7788.000000
1073.627509	7869.666667
1074.875590	7665.666667
1076.123180	7631.000000
1077.370279	7574.666667
1078.616887	7471.333333
1079.863004	7431.000000
1081.108631	7251.000000
1082.353768	7169.666667
1083.598415	7116.000000
1084.842573	7096.000000
1086.086241	6966.666667
1087.329421	6988.333333
1088.572111	6908.333333
1089.814314	6799.666667
1091.056028	6761.333333
1092.297253	6697.000000
1093.537992	6702.000000
1094.778242	6638.000000
1096.018006	6640.666667
1097.257282	6626.333333
1098.496072	6473.000000
1099.734376	6554.333333
1100.972193	6615.333333
1102.209524	6499.666667
1103.446370	6512.666667
1104.682730	6466.000000
1105.918604	6493.000000
1107.153994	6381.000000
1108.388900	6456.333333
1109.623320	6386.000000
1110.857257	6309.333333
1112.090710	6312.000000
1113.323679	6257.666667
1114.556164	6186.666667
1115.788167	6221.000000
1117.019686	6203.333333
1118.250723	6181.000000
1119.481278	6130.000000
1120.711350	6169.000000
1121.940940	6117.000000
1123.170049	6187.666667
1124.398676	6080.333333
1125.626823	6090.666667
1126.854488	6061.666667
1128.081672	6118.666667
1129.308376	6115.000000
1130.534600	5990.000000
1131.760345	6033.666667
1132.985609	6077.666667
1134.210394	6042.000000
1135.434700	5917.666667
1136.658527	5998.333333
1137.881875	5987.666667
1139.104745	5956.666667
1140.327136	6015.000000
1141.549050	5897.666667
1142.770486	5990.333333
1143.991445	5910.666667
1145.211926	5948.333333
1146.431931	5992.000000
1147.651459	5930.333333
1148.870510	5985.666667
1150.089086	5954.666667
1151.307185	5905.000000
1152.524808	5908.666667
1153.741957	5943.333333
1154.958630	5935.000000
1156.174828	5935.000000
1157.390551	5958.333333
1158.605800	5963.666667
1159.820574	5962.000000
1161.034875	5937.666667
1162.248702	5975.333333
1163.462055	5948.333333
1164.674936	6010.000000
1165.887343	5947.666667
1167.099277	5941.666667
1168.310739	5941.000000
1169.521729	5929.666667
1170.732247	5853.333333
1171.942293	5861.333333
1173.151867	5880.000000
1174.360970	5862.666667
1175.569602	5857.333333
1176.777764	5933.000000
1177.985454	5815.333333
1179.192675	5832.000000
1180.399425	5756.666667
1181.605706	5890.333333
1182.811517	5795.666667
1184.016859	5791.666667
1185.221731	5824.000000
1186.426135	5736.000000
1187.630070	5771.666667
1188.833537	5671.000000
1190.036535	5675.333333
1191.239066	5669.000000
1192.441129	5596.666667
1193.642725	5618.333333
1194.843853	5577.333333
1196.044515	5616.000000
1197.244710	5581.333333
1198.444438	5596.333333
1199.643701	5688.666667
1200.842497	5622.000000
1202.040827	5722.333333
1203.238693	5715.333333
1204.436092	5640.666667
1205.633027	5715.666667
1206.829497	5699.333333
1208.025503	5660.000000
1209.221044	5610.000000
1210.416122	5635.000000
1211.610735	5608.000000
1212.804885	5573.333333
1213.998572	5577.000000
1215.191795	5600.333333
1216.384556	5570.666667
1217.576854	5572.666667
1218.768689	5537.666667
1219.960063	5514.000000
1221.150974	5584.333333
1222.341424	5561.333333
1223.531413	5611.666667
1224.720940	5600.666667
1225.910006	5666.666667
1227.098612	5603.000000
1228.286757	5668.666667
1229.474442	5724.666667
1230.661667	5694.333333
1231.848432	5753.333333
1233.034738	5800.333333
1234.220584	5820.333333
1235.405971	5868.000000
1236.590900	5854.000000
1237.775369	5874.333333
1238.959381	5903.333333
1240.142934	5960.000000
1241.326029	5979.000000
1242.508667	5997.000000
1243.690848	6037.666667
1244.872571	5977.000000
1246.053837	5972.333333
1247.234646	5978.666667
1248.414999	5939.666667
1249.594896	5963.333333
1250.774337	5930.333333
1251.953322	5905.000000
1253.131851	5890.666667
1254.309925	5889.666667
1255.487544	5857.333333
1256.664708	5834.000000
1257.841417	5763.333333
1259.017673	5811.000000
1260.193473	5849.000000
1261.368820	5897.333333
1262.543714	5877.666667
1263.718154	5897.333333
1264.892140	5880.000000
1266.065674	5893.000000
1267.238755	5901.000000
1268.411383	5856.333333
1269.583559	5867.333333
1270.755283	5884.333333
1271.926555	5854.000000
1273.097375	5907.000000
1274.267744	5839.000000
1275.437662	5782.000000
1276.607129	5861.000000
1277.776145	5805.000000
1278.944711	5775.333333
1280.112827	5749.333333
1281.280492	5719.333333
1282.447708	5665.000000
1283.614474	5671.333333
1284.780791	5646.666667
1285.946659	5658.666667
1287.112078	5605.000000
1288.277048	5569.333333
1289.441570	5491.666667
1290.605644	5562.000000
1291.769270	5480.333333
1292.932448	5466.333333
1294.095178	5430.666667
1295.257461	5444.000000
1296.419298	5409.666667
1297.580687	5362.333333
1298.741630	5386.666667
1299.902126	5360.333333
1301.062177	5318.333333
1302.221781	5348.333333
1303.380940	5387.333333
1304.539653	5363.000000
1305.697921	5350.333333
1306.855744	5334.000000
1308.013123	5335.666667
1309.170056	5334.666667
1310.326546	5350.000000
1311.482591	5381.000000
1312.638193	5339.333333
1313.793350	5379.666667
1314.948065	5308.333333
1316.102336	5374.333333
1317.256164	5398.666667
1318.409550	5330.333333
1319.562493	5384.333333
1320.714993	5335.333333
1321.867052	5309.333333
1323.018668	5297.000000
1324.169843	5247.666667
1325.320577	5267.666667
1326.470870	5219.000000
1327.620721	5238.333333
1328.770132	5211.333333
1329.919102	5224.000000
1331.067632	5200.333333
1332.215722	5155.333333
1333.363372	5173.000000
1334.510582	5207.000000
1335.657353	5202.000000
1336.803685	5189.333333
1337.949578	5161.000000
1339.095032	5228.000000
1340.240048	5214.000000
1341.384625	5217.000000
1342.528764	5191.666667
1343.672466	5217.333333
1344.815729	5188.000000
1345.958556	5171.000000
1347.100945	5121.000000
1348.242897	5124.666667
1349.384413	5113.666667
1350.525492	5095.000000
1351.666134	5083.333333
1352.806341	5054.000000
1353.946111	5081.333333
1355.085446	4990.666667
1356.224346	5013.000000
1357.362810	5027.666667
1358.500840	4991.000000
1359.638434	5003.666667
1360.775594	4955.333333
1361.912320	5021.666667
1363.048612	4892.000000
1364.184469	4937.000000
1365.319893	4998.333333
1366.454884	4941.666667
1367.589441	4876.333333
1368.723566	4919.666667
1369.857257	4966.666667
1370.990516	4916.000000
1372.123343	4942.666667
1373.255737	4989.000000
1374.387699	4972.333333
1375.519230	4991.666667
1376.650329	4950.333333
1377.780997	5068.000000
1378.911234	4973.333333
1380.041040	4946.333333
1381.170416	5006.666667
1382.299361	4969.333333
1383.427875	4918.333333
1384.555960	4974.000000
1385.683615	4869.666667
1386.810841	4896.000000
1387.937637	4930.000000
1389.064004	4942.333333
1390.189942	4940.666667
1391.315451	4998.333333
1392.440532	5009.000000
1393.565185	4997.333333
1394.689409	4936.333333
1395.813206	4967.666667
1396.936575	4880.666667
1398.059517	4948.666667
1399.182032	4913.333333
1400.304119	4974.000000
1401.425780	4899.666667
1402.547014	4946.666667
1403.667822	4949.666667
1404.788204	4893.333333
1405.908160	4966.666667
1407.027690	4917.333333
1408.146795	4907.000000
1409.265474	4897.333333
1410.383728	4965.666667
1411.501558	4937.000000
1412.618963	4928.000000
1413.735943	4910.000000
1414.852499	4945.333333
1415.968632	4944.333333
1417.084340	4985.333333
1418.199625	4962.000000
1419.314486	4993.000000
1420.428925	4969.666667
1421.542940	5000.000000
1422.656533	4958.000000
1423.769703	4992.333333
1424.882451	4993.333333
1425.994777	4977.666667
1427.106680	4993.000000
1428.218163	4941.333333
1429.329223	4906.000000
1430.439863	4941.000000
1431.550081	4882.333333
1432.659879	4890.666667
1433.769256	4929.000000
1434.878212	4885.333333
1435.986749	4897.000000
1437.094865	4970.000000
1438.202562	4941.333333
1439.309839	4982.333333
1440.416696	4991.333333
1441.523135	4996.666667
1442.629154	5025.333333
1443.734755	5125.666667
1444.839937	5126.000000
1445.944701	5144.666667
1447.049047	5141.000000
1448.152975	5135.666667
1449.256485	5173.333333
1450.359577	5173.000000
1451.462253	5111.000000
1452.564511	5114.000000
1453.666352	5123.666667
1454.767777	5103.333333
1455.868785	5089.666667
1456.969377	5096.000000
1458.069553	5010.333333
1459.169313	4987.000000
1460.268658	5009.000000
1461.367587	5048.333333
1462.466101	4898.666667
1463.564200	4897.666667
1464.661884	4913.000000
1465.759153	4821.333333
1466.856008	4778.000000
1467.952449	4760.000000
1469.048476	4682.333333
1470.144089	4654.333333
1471.239288	4614.000000
1472.334074	4580.666667
1473.428447	4535.333333
1474.522407	4470.333333
1475.615955	4435.333333
1476.709089	4402.666667
1477.801812	4420.000000
1478.894122	4378.000000
1479.986020	4376.000000
1481.077506	4295.666667
1482.168581	4337.666667
1483.259245	4240.333333
1484.349498	4267.666667
1485.439339	4277.333333
1486.528770	4239.666667
1487.617790	4264.333333
1488.706400	4217.666667
1489.794600	4271.666667
1490.882390	4191.000000
1491.969771	4240.333333
1493.056742	4157.666667
1494.143303	4179.000000
1495.229456	4174.333333
1496.315199	4161.666667
1497.400534	4135.666667
1498.485460	4128.333333
1499.569978	4116.333333
1500.654088	4082.000000
1501.737790	4089.333333
1502.821085	4143.333333
1503.903972	4069.333333
1504.986451	4090.666667
1506.068524	4090.333333
1507.150189	4134.333333
1508.231448	4035.666667
1509.312301	4051.333333
1510.392747	4050.666667
1511.472787	4038.333333
1512.552422	4102.666667
1513.631650	4045.333333
1514.710473	4010.666667
1515.788891	4103.666667
1516.866904	4034.666667
1517.944512	4013.333333
1519.021715	4068.666667
1520.098513	4048.333333
1521.174908	4103.000000
1522.250898	4004.333333
1523.326485	4050.333333
1524.401667	4102.666667
1525.476447	4052.333333
1526.550823	4050.333333
1527.624796	4045.333333
1528.698365	4070.333333
1529.771533	4085.666667
1530.844298	4117.666667
1531.916660	4067.000000
1532.988620	4043.000000
1534.060179	4036.666667
1535.131336	4048.333333
1536.202091	4054.333333
1537.272445	4068.333333
1538.342398	4046.333333
1539.411950	3979.666667
1540.481101	3974.000000
1541.549851	3982.000000
1542.618202	3985.666667
1543.686152	3970.000000
1544.753702	3962.666667
1545.820853	3956.000000
1546.887604	3967.000000
1547.953955	3963.000000
1549.019908	3969.666667
1550.085461	3948.666667
1551.150616	3964.333333
1552.215372	3938.333333
1553.279730	3945.000000
1554.343690	3931.000000
1555.407252	3922.333333
1556.470415	3923.000000
1557.533182	3918.000000
1558.595551	3849.333333
1559.657522	3886.666667
1560.719097	3842.666667
1561.780275	3873.666667
1562.841056	3861.666667
1563.901441	3848.000000
1564.961429	3847.333333
1566.021022	3832.333333
1567.080219	3807.666667
1568.139020	3821.333333
1569.197425	3797.333333
1570.255436	3803.333333
1571.313051	3828.000000
1572.370271	3757.666667
1573.427097	3808.333333
1574.483528	3820.333333
1575.539565	3779.333333
1576.595208	3787.333333
1577.650457	3762.333333
1578.705312	3793.666667
1579.759774	3771.000000
1580.813842	3723.333333
1581.867517	3667.333333
1582.920799	3671.000000
1583.973689	3696.666667
1585.026186	3625.666667
1586.078290	3674.666667
1587.130002	3681.666667
1588.181323	3729.000000
1589.232251	3715.000000
1590.282788	3696.333333
1591.332933	3666.666667
1592.382688	3637.000000
1593.432051	3698.666667
1594.481023	3664.666667
1595.529605	3692.000000
1596.577796	3700.000000
1597.625597	3714.666667
1598.673007	3720.000000
1599.720028	3742.333333
1600.766660	3737.000000
1601.812901	3729.333333
1602.858753	3755.666667
1603.904217	3784.666667
1604.949291	3756.666667
1605.993976	3784.333333
1607.038273	3772.333333
1608.082182	3752.000000
1609.125702	3757.000000
1610.168834	3723.666667
1611.211579	3686.333333
1612.253935	3682.333333
1613.295905	3632.000000
1614.337487	3648.333333
1615.378682	3654.000000
1616.419490	3669.666667
1617.459912	3611.666667
1618.499946	3682.000000
1619.539595	3723.666667
1620.578858	3742.000000
1621.617734	3761.000000
1622.656225	3758.666667
1623.694330	3803.000000
1624.732050	3748.000000
1625.769385	3758.000000
1626.806334	3739.666667
1627.842899	3741.333333
1628.879079	3698.333333
1629.914875	3736.666667
1630.950286	3747.333333
1631.985314	3753.666667
1633.019957	3767.666667
1634.054217	3785.333333
1635.088093	3762.333333
1636.121586	3756.000000
1637.154696	3785.000000
1638.187423	3793.000000
1639.219767	3778.000000
1640.251728	3798.000000
1641.283307	3788.333333
1642.314504	3821.666667
1643.345319	3789.000000
1644.375751	3800.666667
1645.405803	3793.666667
1646.435472	3821.000000
1647.464761	3766.000000
1648.493668	3839.666667
1649.522194	3813.000000
1650.550340	3826.333333
1651.578105	3811.333333
1652.605490	3807.000000
1653.632494	3828.666667
1654.659119	3786.333333
1655.685363	3741.000000
1656.711228	3761.333333
1657.736714	3790.666667
1658.761820	3747.666667
1659.786547	3755.333333
1660.810895	3753.000000
1661.834865	3780.666667
1662.858456	3746.000000
1663.881668	3780.666667
1664.904503	3777.000000
1665.926959	3725.000000
1666.949038	3727.666667
1667.970739	3726.666667
1668.992062	3758.333333
1670.013008	3689.666667
1671.033577	3729.333333
1672.053770	3696.333333
1673.073585	3734.000000
1674.093024	3675.000000
1675.112086	3669.000000
1676.130773	3668.666667
1677.149083	3625.333333
1678.167017	3581.333333
1679.184576	3592.666667
1680.201760	3631.666667
1681.218568	3588.666667
1682.235001	3610.666667
1683.251059	3565.333333
1684.266742	3589.666667
1685.282051	3508.666667
1686.296985	3512.000000
1687.311546	3544.333333
1688.325732	3481.333333
1689.339544	3438.333333
1690.352983	3398.000000
1691.366048	3387.000000
1692.378740	3376.333333
1693.391058	3347.666667
1694.403004	3307.333333
1695.414577	3328.000000
1696.425778	3305.666667
1697.436606	3253.333333
1698.447061	3261.333333
1699.457145	3263.000000
1700.466857	3161.333333
1701.476197	3195.666667
1702.485166	3170.000000
1703.493763	3141.000000
1704.501989	3136.333333
1705.509844	3137.333333
1706.517328	3120.333333
1707.524442	3079.333333
1708.531185	3116.000000
1709.537558	3139.000000
1710.543561	3087.333333
1711.549194	3099.000000
1712.554457	3020.333333
1713.559351	3053.666667
1714.563875	3044.333333
1715.568030	3089.333333
1716.571816	3063.333333
1717.575233	3101.666667
1718.578282	3103.333333
1719.580962	3102.666667
1720.583273	3140.666667
1721.585217	3128.666667
1722.586792	3086.000000
1723.588000	3081.333333
1724.588840	3116.666667
1725.589312	3094.000000
1726.589418	3024.333333
1727.589156	3102.000000
1728.588527	3136.666667
1729.587532	3148.000000
1730.586170	3133.000000
1731.584441	3111.666667
1732.582346	3053.666667
1733.579886	3046.333333
1734.577059	3077.333333
1735.573867	3049.666667
1736.570309	3099.000000
1737.566386	3126.333333
1738.562097	3064.666667
1739.557444	3032.666667
1740.552426	3036.333333
1741.547043	3066.000000
1742.541295	3026.333333
1743.535184	2972.666667
1744.528708	3012.666667
1745.521868	2990.333333
1746.514664	2990.666667
1747.507097	2952.000000
1748.499166	2967.000000
1749.490873	2954.666667
1750.482216	2962.333333
1751.473196	2959.000000
1752.463813	2988.000000
1753.454068	2970.666667
1754.443960	2924.000000
1755.433490	2963.666667
1756.422658	2916.666667
1757.411464	2902.666667
1758.399908	2947.333333
1759.387991	2977.666667
1760.375713	2898.333333
1761.363073	2913.333333
1762.350072	2921.000000
1763.336711	2926.000000
1764.322988	2932.333333
1765.308905	2892.666667
1766.294462	2922.666667
1767.279659	2901.333333
1768.264496	2898.333333
1769.248972	2887.333333
1770.233089	2832.666667
1771.216847	2814.666667
1772.200245	2838.000000
1773.183284	2817.333333
1774.165965	2831.333333
1775.148286	2817.000000
1776.130249	2798.333333
1777.111853	2795.000000
1778.093099	2814.666667
1779.073987	2784.000000
1780.054517	2810.000000
1781.034689	2756.666667
1782.014503	2719.000000
1782.993960	2672.666667
1783.973060	2694.333333
1784.951802	2638.333333
1785.930188	2663.000000
1786.908217	2602.666667
1787.885889	2667.666667
1788.863205	2659.333333
1789.840164	2601.000000
1790.816768	2601.000000
1791.793015	2598.333333
1792.768907	2582.666667
1793.744443	2650.666667
1794.719624	2631.333333
1795.694449	2643.333333
1796.668919	2608.333333
1797.643035	2648.333333
1798.616795	2648.666667
1799.590201	2622.666667
1800.563253	2616.333333
1801.535950	2647.000000
1802.508294	2668.000000
1803.480283	2613.333333
1804.451919	2694.333333
1805.423201	2663.000000
1806.394129	2684.000000
1807.364705	2653.333333
1808.334927	2661.666667
1809.304796	2617.000000
1810.274313	2654.000000
1811.243477	2611.000000
1812.212288	2643.333333
1813.180747	2623.666667
1814.148855	2615.666667
1815.116610	2615.333333
1816.084013	2677.000000
1817.051065	2657.000000
1818.017766	2665.666667
1818.984115	2667.333333
1819.950113	2647.666667
1820.915760	2637.666667
1821.881057	2628.333333
1822.846003	2639.333333
1823.810598	2638.666667
1824.774843	2661.000000
1825.738738	2649.333333
1826.702283	2631.666667
1827.665479	2681.333333
1828.628324	2689.333333
1829.590821	2647.000000
1830.552968	2622.333333
1831.514765	2612.333333
1832.476214	2622.333333
1833.437314	2640.666667
1834.398066	2592.000000
1835.358469	2579.333333
1836.318524	2593.666667
1837.278230	2572.000000
1838.237589	2522.333333
1839.196600	2573.333333
1840.155263	2516.333333
1841.113578	2572.333333
1842.071547	2572.666667
1843.029168	2625.333333
1843.986442	2590.666667
1844.943369	2634.000000
1845.899950	2617.666667
1846.856184	2566.666667
1847.812072	2583.000000
1848.767614	2588.333333
1849.722809	2576.666667
1850.677659	2551.000000
1851.632163	2609.333333
1852.586322	2559.666667
1853.540135	2558.666667
1854.493603	2579.666667
1855.446726	2531.333333
1856.399504	2522.000000
1857.351937	2541.666667
1858.304026	2520.000000
1859.255770	2504.666667
1860.207170	2523.000000
1861.158227	2516.000000
1862.108939	2487.666667
1863.059307	2417.666667
1864.009332	2407.333333
1864.959013	2425.666667
1865.908351	2438.000000
1866.857346	2438.000000
1867.805998	2426.333333
1868.754307	2407.000000
1869.702274	2413.666667
1870.649898	2406.000000
1871.597180	2432.666667
1872.544119	2415.666667
1873.490717	2386.000000
1874.436973	2382.000000
1875.382887	2383.333333
1876.328459	2362.000000
1877.273691	2375.666667
1878.218581	2331.333333
1879.163130	2357.333333
1880.107338	2350.000000
1881.051205	2397.666667
1881.994732	2397.000000
1882.937919	2383.000000
1883.880765	2431.000000
1884.823271	2323.000000
1885.765437	2373.666667
1886.707264	2393.666667
1887.648750	2405.666667
1888.589898	2406.333333
1889.530706	2403.666667
1890.471175	2435.333333
1891.411305	2452.333333
1892.351096	2424.666667
1893.290548	2428.000000
1894.229662	2404.333333
1895.168438	2425.666667
1896.106876	2405.333333
1897.044975	2410.333333
1897.982737	2459.333333
1898.920160	2399.333333
1899.857247	2396.000000
1900.793996	2408.000000
1901.730407	2411.333333
1902.666482	2413.000000
1903.602219	2388.000000
1904.537620	2366.000000
1905.472685	2380.333333
1906.407412	2357.666667
1907.341804	2351.333333
1908.275859	2353.000000
1909.209579	2326.666667
1910.142962	2301.666667
1911.076010	2289.666667
1912.008722	2274.000000
1912.941099	2274.333333
1913.873141	2251.666667
1914.804848	2272.000000
1915.736219	2262.333333
1916.667256	2233.000000
1917.597959	2255.666667
1918.528327	2267.333333
1919.458360	2246.333333
1920.388060	2249.000000
1921.317426	2229.000000
1922.246457	2246.333333
1923.175156	2199.666667
1924.103520	2197.333333
1925.031552	2235.000000
1925.959250	2227.000000
1926.886615	2254.666667
1927.813647	2251.333333
1928.740346	2222.666667
1929.666713	2207.333333
1930.592748	2208.666667
1931.518450	2201.666667
1932.443820	2175.333333
1933.368858	2221.666667
1934.293564	2213.666667
1935.217939	2171.666667
1936.141982	2207.000000
1937.065694	2199.666667
1937.989074	2191.000000
1938.912124	2193.000000
1939.834842	2169.333333
1940.757230	2141.666667
1941.679287	2190.000000
1942.601014	2163.333333
1943.522411	2145.333333
1944.443477	2166.000000
1945.364214	2154.000000
1946.284621	2162.000000
1947.204698	2115.333333
1948.124445	2143.666667
1949.043863	2149.000000
1949.962952	2114.333333
1950.881712	2093.333333
1951.800143	2079.333333
1952.718245	2071.333333
1953.636019	2049.000000
1954.553464	2099.666667
1955.470581	2077.666667
1956.387369	2069.666667
1957.303830	2055.000000
1958.219963	2077.666667
1959.135768	2039.000000
1960.051246	2055.000000
1960.966396	2060.666667
1961.881219	2037.000000
1962.795715	2066.666667
1963.709883	2080.333333
1964.623726	2096.000000
1965.537241	2092.333333
1966.450430	2060.333333
1967.363293	2064.666667
1968.275829	2099.333333
1969.188040	2074.000000
1970.099924	2055.333333
1971.011483	2098.666667
1971.922716	2079.666667
1972.833624	2095.000000
1973.744206	2080.333333
1974.654464	2119.666667
1975.564396	2116.666667
1976.474004	2131.333333
1977.383286	2102.333333
1978.292245	2066.333333
1979.200878	2024.000000
1980.109188	2046.333333
1981.017174	2056.333333
1981.924835	2041.666667
1982.832173	2052.333333
1983.739187	2030.333333
1984.645878	2030.666667
1985.552245	2011.666667
1986.458289	2002.333333
1987.364010	1998.333333
1988.269408	1998.666667
1989.174484	1979.666667
1990.079236	1971.666667
1990.983667	1968.666667
1991.887775	1951.666667
1992.791561	1971.666667
1993.695024	1980.000000
1994.598166	1932.666667
1995.500986	1927.666667
1996.403485	1908.333333
1997.305662	1896.666667
1998.207518	1899.000000
1999.109053	1900.333333
