200.151048	14382.000000
201.758777	14190.333333
203.365815	14244.333333
204.972162	14179.666667
206.577820	14095.000000
208.182787	14061.333333
209.787065	14063.666667
211.390653	13911.333333
212.993553	13866.333333
214.595765	13871.333333
216.197289	13804.000000
217.798125	13685.000000
219.398274	13826.666667
220.997737	13678.666667
222.596513	13704.333333
224.194603	13620.333333
225.792008	13603.333333
227.388728	13661.666667
228.984763	13492.000000
230.580114	13594.333333
232.174781	13312.000000
233.768765	13310.666667
235.362065	13301.333333
236.954683	13311.666667
238.546619	13211.333333
240.137872	13056.666667
241.728445	13174.666667
243.318336	13188.333333
244.907546	13034.000000
246.496076	13072.666667
248.083926	13007.333333
249.671097	12995.333333
251.257589	12931.000000
252.843402	12815.333333
254.428536	12831.000000
256.012993	12766.666667
257.596772	12646.333333
259.179874	12620.333333
260.762300	12604.333333
262.344049	12575.000000
263.925122	12564.666667
265.505519	12638.333333
267.085241	12608.333333
268.664289	12597.333333
270.242662	12468.666667
271.820361	12434.000000
273.397387	12384.000000
274.973740	12359.666667
276.549419	12380.666667
278.124426	12278.333333
279.698762	12323.666667
281.272425	12332.333333
282.845417	12359.000000
284.417739	12327.000000
285.989390	12279.000000
287.560371	12307.333333
289.130682	12370.333333
290.700324	12319.000000
292.269297	12337.000000
293.837602	12189.666667
295.405238	12196.666667
296.972207	12290.666667
298.538508	12246.333333
300.104142	12164.000000
301.669110	12168.000000
303.233411	12048.333333
304.797047	12025.000000
306.360017	11908.666667
307.922322	11844.666667
309.483963	11748.333333
311.044939	11817.666667
312.605252	11816.000000
314.164900	11673.666667
315.723886	11702.000000
317.282209	11673.000000
318.839870	11625.000000
320.396868	11652.333333
321.953205	11529.666667
323.508881	11478.666667
325.063896	11488.000000
326.618251	11442.333333
328.171945	11397.333333
329.724980	11447.666667
331.277356	11394.666667
332.829072	11377.333333
334.380131	11319.666667
335.930530	11352.333333
337.480273	11315.000000
339.029357	11281.666667
340.577785	11236.666667
342.125556	11260.333333
343.672671	11135.000000
345.219130	11193.333333
346.764933	11132.333333
348.310081	11099.666667
349.854575	10947.000000
351.398414	11019.666667
352.941599	11061.000000
354.484130	11073.000000
356.026008	10944.000000
357.567234	10899.000000
359.107807	10897.666667
360.647727	10904.333333
362.186996	10963.333333
363.725614	10817.333333
365.263580	10814.000000
366.800896	10844.666667
368.337562	10722.000000
369.873578	10793.666667
371.408944	10795.666667
372.943661	10791.666667
374.477730	10770.666667
376.011150	10796.333333
377.543922	10866.666667
379.076046	10766.333333
380.607523	10810.333333
382.138353	10865.333333
383.668537	10820.666667
385.198075	10808.666667
386.726966	10901.333333
388.255213	10818.000000
389.782814	10901.333333
391.309770	10967.666667
392.836083	10905.000000
394.361751	10902.000000
395.886776	11012.000000
397.411157	11069.666667
398.934896	11031.666667
400.457992	11065.333333
401.980446	11130.666667
403.502258	11113.666667
405.023429	11183.000000
406.543959	11187.333333
408.063849	11157.666667
409.583098	11220.333333
411.101707	11230.333333
412.619677	11366.666667
414.137007	11502.333333
415.653699	11521.000000
417.169752	11650.333333
418.685167	11855.000000
420.199945	12032.333333
421.714085	12125.333333
423.227588	12251.666667
424.740454	12402.333333
426.252684	12496.000000
427.764279	12593.666667
429.275238	12635.000000
430.785561	12614.000000
432.295250	12516.000000
433.804304	12352.000000
435.312725	12169.666667
436.820511	12089.666667
438.327664	12027.333333
439.834185	11863.000000
441.340072	11704.333333
442.845327	11575.666667
444.349951	11510.333333
445.853942	11487.333333
447.357303	11487.666667
448.860033	11390.666667
450.362132	11425.000000
451.863601	11252.666667
453.364440	11276.666667
454.864650	11156.666667
456.364231	11021.333333
457.863183	10843.666667
459.361507	10679.666667
460.859203	10629.000000
462.356271	10441.000000
463.852712	10340.666667
465.348526	10247.333333
466.843714	10094.333333
468.338275	10056.333333
469.832210	10064.000000
471.325520	10000.000000
472.818205	9914.333333
474.310265	9836.333333
475.801700	9805.333333
477.292512	9819.333333
478.782700	9815.000000
480.272264	9722.000000
481.761205	9780.333333
483.249524	9694.666667
484.737221	9598.000000
486.224295	9452.666667
487.710748	9456.000000
489.196579	9341.666667
490.681790	9360.666667
492.166380	9348.000000
493.650350	9513.333333
495.133700	9477.333333
496.616431	9433.333333
498.098542	9337.666667
499.580035	9390.000000
501.060909	9376.666667
502.541165	9461.000000
504.020804	9510.333333
505.499825	9590.000000
506.978228	9390.666667
508.456016	9374.666667
509.933186	9210.000000
511.409741	9145.333333
512.885680	9229.333333
514.361004	9179.666667
515.835713	9220.000000
517.309807	9250.666667
518.783287	9328.333333
520.256153	9336.000000
521.728406	9408.333333
523.200045	9406.333333
524.671071	9387.666667
526.141485	9427.333333
527.611287	9328.000000
529.080476	9404.000000
530.549054	9326.000000
532.017021	9413.333333
533.484378	9481.666667
534.951123	9407.000000
536.417259	9401.333333
537.882785	9369.333333
539.347701	9250.333333
540.812008	9331.666667
542.275707	9271.666667
543.738797	9294.333333
545.201279	9319.333333
546.663153	9466.000000
548.124420	9471.333333
549.585080	9644.666667
551.045133	9658.666667
552.504579	9713.000000
553.963420	9714.333333
555.421655	9732.333333
556.879285	9820.333333
558.336309	9723.666667
559.792729	9727.000000
561.248545	9746.333333
562.703756	9810.666667
564.158364	9741.000000
565.612369	9805.000000
567.065770	9943.333333
568.518569	9990.666667
569.970766	10037.666667
571.422361	10068.666667
572.873354	10079.000000
574.323745	10165.333333
575.773536	10304.333333
577.222726	10340.333333
578.671316	10392.666667
580.119306	10463.666667
581.566696	10340.000000
583.013487	10261.000000
584.459679	10120.333333
585.905273	10062.333333
587.350268	9990.333333
588.794665	9985.000000
590.238465	10009.666667
591.681667	10041.333333
593.124272	10036.666667
594.566281	10113.666667
596.007694	9951.000000
597.448510	9873.666667
598.888731	9829.333333
600.328357	9741.333333
601.767388	9656.333333
603.205824	9641.666667
604.643666	9671.333333
606.080914	9672.666667
607.517568	9500.666667
608.953629	9554.000000
610.389097	9584.000000
611.823972	9538.333333
613.258255	9482.000000
614.691946	9488.666667
616.125046	9459.000000
617.557554	9440.666667
618.989471	9386.000000
620.420798	9211.666667
621.851534	9135.333333
623.281680	9065.666667
624.711237	8952.666667
626.140204	8765.666667
627.568582	8740.333333
628.996372	8661.333333
630.423573	8632.666667
631.850186	8581.333333
633.276211	8574.666667
634.701650	8611.333333
636.126501	8504.000000
637.550765	8608.666667
638.974443	8620.000000
640.397535	8689.666667
641.820041	8664.333333
643.241961	8652.000000
644.663297	8630.666667
646.084048	8726.333333
647.504214	8663.000000
648.923796	8507.666667
650.342795	8529.000000
651.761210	8360.000000
653.179041	8342.000000
654.596290	8159.333333
656.012957	8235.666667
657.429041	8271.000000
658.844543	8288.000000
660.259464	8322.666667
661.673804	8364.666667
663.087563	8282.666667
664.500741	8297.000000
665.913339	8407.000000
667.325357	8345.000000
668.736795	8447.000000
670.147654	8426.666667
671.557934	8319.666667
672.967636	8279.333333
674.376759	8194.333333
675.785304	8174.666667
677.193271	8269.000000
678.600661	8317.333333
680.007474	8260.666667
681.413711	8215.333333
682.819370	8326.000000
684.224454	8217.333333
685.628962	8224.000000
687.032895	8332.666667
688.436252	8317.666667
689.839034	8336.666667
691.241242	8301.333333
692.642876	8252.333333
694.043936	8352.666667
695.444422	8262.666667
696.844336	8111.333333
698.243676	8235.333333
699.642443	8174.333333
701.040639	8179.000000
702.438262	8180.000000
703.835313	8302.333333
705.231794	8218.333333
706.627703	8265.333333
708.023041	8177.000000
709.417810	8271.666667
710.812008	8145.666667
712.205636	8192.000000
713.598694	8107.333333
714.991184	8204.333333
716.383105	8120.333333
717.774457	8128.000000
719.165241	8075.666667
720.555457	8015.333333
721.945105	8077.000000
723.334187	8079.333333
724.722701	8096.666667
726.110648	8124.000000
727.498030	8101.333333
728.884845	8188.666667
730.271094	8134.666667
731.656778	8117.000000
733.041897	8020.333333
734.426451	8039.000000
735.810441	8024.666667
737.193866	7970.666667
738.576728	7982.333333
739.959026	7982.000000
741.340760	7992.333333
742.721932	7992.333333
744.102541	7990.666667
745.482588	8021.000000
746.862073	7947.333333
748.240996	8019.333333
749.619358	8000.666667
750.997158	8044.333333
752.374398	8110.666667
753.751077	8095.000000
755.127197	8107.000000
756.502756	8216.000000
757.877756	8033.333333
759.252196	8028.666667
760.626078	8067.000000
761.999400	8029.666667
763.372165	8056.000000
764.744371	7971.333333
766.116020	7970.666667
767.487111	8001.333333
768.857646	7920.666667
770.227623	7927.000000
771.597044	7913.000000
772.965908	7867.666667
774.334217	7861.666667
775.701970	7864.000000
777.069168	7897.333333
778.435811	7911.000000
779.801899	7885.000000
781.167433	7819.666667
782.532412	7898.333333
783.896838	7885.000000
785.260710	7793.333333
786.624029	7829.000000
787.986796	7821.000000
789.349009	7802.333333
790.710671	7776.333333
792.071780	7894.333333
793.432338	7843.666667
794.792344	7751.666667
796.151799	7687.000000
797.510704	7717.000000
798.869058	7768.333333
800.226862	7703.666667
801.584116	7693.666667
802.940820	7725.000000
804.296975	7756.000000
805.652581	7717.000000
807.007638	7699.000000
808.362147	7832.333333
809.716108	7833.000000
811.069521	7868.666667
812.422387	7793.333333
813.774705	7771.000000
815.126476	7804.000000
816.477701	7741.666667
817.828380	7754.000000
819.178512	7807.333333
820.528099	7778.333333
821.877140	7781.000000
823.225637	7755.333333
824.573588	7741.333333
825.920995	7685.333333
827.267857	7635.000000
828.614176	7717.333333
829.959951	7624.333333
831.305183	7722.666667
832.649871	7681.333333
833.994017	7657.666667
835.337620	7777.666667
836.680681	7686.666667
838.023201	7724.333333
839.365178	7725.666667
840.706614	7699.666667
842.047510	7732.333333
843.387864	7793.666667
844.727678	7764.666667
846.066952	7823.666667
847.405687	7882.666667
848.743881	7943.666667
850.081537	7963.000000
851.418653	7952.666667
852.755231	8059.333333
854.091270	7987.000000
855.426771	8008.000000
856.761735	7942.000000
858.096160	7945.000000
859.430049	7974.000000
860.763401	7959.000000
862.096216	7885.333333
863.428495	7812.333333
864.760237	7892.666667
866.091444	7785.333333
867.422115	7890.666667
868.752252	7827.000000
870.081853	7765.333333
871.410919	7796.333333
872.739452	7777.333333
874.067450	7772.000000
875.394914	7807.333333
876.721845	7775.666667
878.048243	7821.666667
879.374108	7776.000000
880.699440	7718.000000
882.024240	7747.000000
883.348508	7695.666667
884.672244	7631.666667
885.995449	7592.333333
887.318122	7608.333333
888.640265	7590.333333
889.961877	7631.333333
891.282959	7522.333333
892.603510	7529.000000
893.923532	7553.666667
895.243024	7570.666667
896.561987	7427.333333
897.880422	7488.333333
899.198327	7530.333333
900.515705	7390.666667
901.832554	7444.000000
903.148875	7459.333333
904.464669	7533.666667
905.779936	7455.000000
907.094676	7480.666667
908.408889	7458.000000
909.722576	7486.666667
911.035737	7590.666667
912.348371	7624.000000
913.660481	7615.000000
914.972065	7689.666667
916.283124	7797.666667
917.593659	7739.666667
918.903669	7801.000000
920.213155	7928.333333
921.522117	7872.333333
922.830556	7887.333333
924.138471	7938.333333
925.445864	7918.000000
926.752733	7912.000000
928.059081	7851.666667
929.364906	7981.666667
930.670209	7986.333333
931.974991	8081.333333
933.279251	8101.333333
934.582990	8251.333333
935.886209	8399.666667
937.188907	8521.333333
938.491085	8691.333333
939.792743	8833.000000
941.093881	8993.000000
942.394500	9241.333333
943.694600	9648.666667
944.994181	9855.666667
946.293243	10233.666667
947.591787	10632.000000
948.889813	11117.000000
950.187322	11749.666667
951.484313	12620.000000
952.780787	13221.000000
954.076744	14132.666667
955.372184	14882.000000
956.667108	15517.333333
957.961516	15957.333333
959.255409	16053.000000
960.548785	15833.666667
961.841647	15398.000000
963.133993	14565.666667
964.425825	13908.000000
965.717142	12767.666667
967.007946	11803.333333
968.298235	10990.000000
969.588011	10222.333333
970.877273	9616.000000
972.166023	9020.333333
973.454259	8538.666667
974.741984	8239.666667
976.029196	7968.000000
977.315895	7858.333333
978.602084	7625.000000
979.887761	7518.666667
981.172926	7452.000000
982.457581	7332.333333
983.741725	7267.333333
985.025359	7195.000000
986.308483	7150.000000
987.591097	7141.666667
988.873202	7104.000000
990.154797	7049.666667
991.435883	7109.666667
992.716461	7035.000000
993.996530	7004.666667
995.276091	7064.000000
996.555144	7036.666667
997.833690	7093.666667
999.111728	7188.333333
1000.389259	7218.000000
1001.666283	7257.666667
1002.942800	7318.000000
1004.218812	7255.333333
1005.494317	7208.333333
1006.769317	7250.666667
1008.043811	7237.333333
1009.317799	7159.000000
1010.591283	7178.666667
1011.864263	7117.333333
1013.136737	7125.666667
1014.408708	7214.000000
1015.680175	7234.666667
1016.951138	7227.333333
1018.221598	7185.333333
1019.491554	7199.666667
1020.761008	7183.000000
1022.029959	7257.666667
1023.298408	7216.666667
1024.566355	7260.000000
1025.833800	7245.333333
1027.100744	7203.333333
1028.367187	7239.333333
1029.633128	7254.666667
1030.898569	7149.000000
1032.163509	7138.666667
1033.427949	7154.000000
1034.691890	7170.333333
1035.955330	7303.333333
1037.218271	7307.333333
1038.480714	7383.666667
1039.742657	7361.666667
1041.004101	7426.333333
1042.265048	7421.333333
1043.525496	7445.000000
1044.785446	7417.000000
1046.044899	7418.333333
1047.303855	7382.666667
1048.562313	7415.000000
1049.820275	7335.666667
1051.077740	7325.666667
1052.334709	7311.000000
1053.591182	7283.666667
1054.847160	7250.000000
1056.102641	7311.000000
1057.357628	7320.333333
1058.612120	7391.333333
1059.866117	7417.666667
1061.119619	7460.000000
1062.372628	7563.000000
1063.625142	7517.000000
1064.877163	7723.333333
1066.128691	7721.000000
1067.379725	7799.000000
1068.630267	7747.666667
1069.880316	7712.000000
1071.129872	7700.000000
1072.378937	7642.666667
1073.627509	7635.666667
1074.875590	7469.666667
1076.123180	7528.000000
1077.370279	7332.333333
1078.616887	7308.000000
1079.863004	7229.666667
1081.108631	7017.666667
1082.353768	7059.333333
1083.598415	6915.333333
1084.842573	6766.333333
1086.086241	6799.666667
1087.329421	6727.333333
1088.572111	6704.333333
1089.814314	6630.333333
1091.056028	6617.333333
1092.297253	6549.333333
1093.537992	6525.000000
1094.778242	6540.000000
1096.018006	6458.333333
1097.257282	6460.333333
1098.496072	6394.333333
1099.734376	6485.000000
1100.972193	6373.666667
1102.209524	6387.333333
1103.446370	6382.333333
1104.682730	6361.333333
1105.918604	6274.000000
1107.153994	6254.333333
1108.388900	6204.000000
1109.623320	6181.333333
1110.857257	6212.333333
1112.090710	6133.000000
1113.323679	6128.333333
1114.556164	6078.333333
1115.788167	6044.666667
1117.019686	6029.666667
1118.250723	6021.333333
1119.481278	6016.333333
1120.711350	6029.666667
1121.940940	5967.333333
1123.170049	6019.666667
1124.398676	5916.666667
1125.626823	5989.000000
1126.854488	5961.333333
1128.081672	5901.666667
1129.308376	5916.000000
1130.534600	5909.666667
1131.760345	5942.000000
1132.985609	5787.666667
1134.210394	5868.333333
1135.434700	5797.333333
1136.658527	5901.333333
1137.881875	5891.000000
1139.104745	5813.333333
1140.327136	5840.333333
1141.549050	5852.666667
1142.770486	5916.000000
1143.991445	5791.333333
1145.211926	5850.333333
1146.431931	5869.666667
1147.651459	5779.333333
1148.870510	5845.333333
1150.089086	5818.333333
1151.307185	5816.333333
1152.524808	5803.000000
1153.741957	5796.000000
1154.958630	5882.333333
1156.174828	5874.666667
1157.390551	5791.000000
1158.605800	5835.000000
1159.820574	5884.666667
1161.034875	5834.333333
1162.248702	5806.000000
1163.462055	5870.000000
1164.674936	5827.666667
1165.887343	5737.000000
1167.099277	5792.333333
1168.310739	5815.000000
1169.521729	5796.666667
1170.732247	5821.666667
1171.942293	5819.666667
1173.151867	5735.666667
1174.360970	5727.000000
1175.569602	5722.333333
1176.777764	5737.333333
1177.985454	5718.666667
1179.192675	5707.333333
1180.399425	5719.333333
1181.605706	5707.000000
1182.811517	5682.333333
1184.016859	5674.666667
1185.221731	5627.333333
1186.426135	5613.666667
1187.630070	5613.333333
1188.833537	5643.000000
1190.036535	5561.333333
1191.239066	5530.000000
1192.441129	5486.000000
1193.642725	5416.000000
1194.843853	5457.666667
1196.044515	5438.333333
1197.244710	5538.000000
1198.444438	5500.000000
1199.643701	5559.333333
1200.842497	5556.000000
1202.040827	5653.000000
1203.238693	5553.000000
1204.436092	5541.666667
1205.633027	5575.000000
1206.829497	5585.333333
1208.025503	5522.333333
1209.221044	5501.666667
1210.416122	5505.000000
1211.610735	5514.666667
1212.804885	5467.666667
1213.998572	5464.666667
1215.191795	5446.666667
1216.384556	5472.666667
1217.576854	5440.666667
1218.768689	5457.666667
1219.960063	5439.000000
1221.150974	5486.333333
1222.341424	5470.000000
1223.531413	5464.333333
1224.720940	5499.333333
1225.910006	5500.000000
1227.098612	5552.000000
1228.286757	5532.333333
1229.474442	5632.000000
1230.661667	5652.333333
1231.848432	5601.666667
1233.034738	5685.666667
1234.220584	5712.666667
1235.405971	5762.666667
1236.590900	5764.666667
1237.775369	5828.333333
1238.959381	5837.333333
1240.142934	5807.666667
1241.326029	5874.666667
1242.508667	5913.333333
1243.690848	5902.666667
1244.872571	5913.000000
1246.053837	5849.333333
1247.234646	5879.000000
1248.414999	5844.333333
1249.594896	5812.000000
1250.774337	5787.666667
1251.953322	5697.666667
1253.131851	5712.333333
1254.309925	5790.333333
1255.487544	5757.333333
1256.664708	5716.666667
1257.841417	5793.333333
1259.017673	5743.000000
1260.193473	5702.333333
1261.368820	5710.666667
1262.543714	5719.000000
1263.718154	5717.333333
1264.892140	5781.333333
1266.065674	5659.333333
1267.238755	5742.000000
1268.411383	5740.000000
1269.583559	5681.666667
1270.755283	5745.666667
1271.926555	5745.000000
1273.097375	5736.000000
1274.267744	5661.333333
1275.437662	5665.000000
1276.607129	5679.000000
1277.776145	5665.666667
1278.944711	5623.333333
1280.112827	5591.333333
1281.280492	5565.333333
1282.447708	5569.666667
1283.614474	5431.666667
1284.780791	5586.000000
1285.946659	5514.333333
1287.112078	5433.666667
1288.277048	5453.000000
1289.441570	5444.666667
1290.605644	5286.333333
1291.769270	5320.000000
1292.932448	5335.666667
1294.095178	5262.666667
1295.257461	5286.666667
1296.419298	5282.333333
1297.580687	5280.666667
1298.741630	5300.000000
1299.902126	5233.333333
1301.062177	5227.666667
1302.221781	5199.333333
1303.380940	5208.333333
1304.539653	5173.000000
1305.697921	5224.333333
1306.855744	5267.333333
1308.013123	5250.333333
1309.170056	5217.333333
1310.326546	5214.666667
1311.482591	5186.333333
1312.638193	5205.666667
1313.793350	5215.333333
1314.948065	5268.666667
1316.102336	5185.666667
1317.256164	5215.666667
1318.409550	5238.666667
1319.562493	5195.666667
1320.714993	5194.000000
1321.867052	5225.666667
1323.018668	5227.000000
1324.169843	5157.333333
1325.320577	5188.666667
1326.470870	5130.666667
1327.620721	5134.666667
1328.770132	5115.666667
1329.919102	5092.000000
1331.067632	5111.666667
1332.215722	5106.000000
1333.363372	5101.333333
1334.510582	5090.333333
1335.657353	5072.000000
1336.803685	5083.333333
1337.949578	5138.000000
1339.095032	5154.333333
1340.240048	5085.333333
1341.384625	5113.333333
1342.528764	5089.000000
1343.672466	5051.333333
1344.815729	5126.666667
1345.958556	5095.333333
1347.100945	5081.000000
1348.242897	5055.333333
1349.384413	5095.333333
1350.525492	4997.333333
1351.666134	4978.666667
1352.806341	5028.000000
1353.946111	4955.000000
1355.085446	4911.333333
1356.224346	4930.333333
1357.362810	4955.333333
1358.500840	4917.000000
1359.638434	4862.666667
1360.775594	4860.000000
1361.912320	4810.333333
1363.048612	4829.000000
1364.184469	4854.000000
1365.319893	4829.666667
1366.454884	4835.333333
1367.589441	4783.666667
1368.723566	4867.666667
1369.857257	4819.333333
1370.990516	4859.666667
1372.123343	4831.333333
1373.255737	4853.000000
1374.387699	4915.333333
1375.519230	4917.333333
1376.650329	4903.666667
1377.780997	4895.333333
1378.911234	4919.666667
1380.041040	4912.666667
1381.170416	4821.666667
1382.299361	4845.333333
1383.427875	4839.666667
1384.555960	4859.333333
1385.683615	4871.333333
1386.810841	4877.666667
1387.937637	4861.333333
1389.064004	4795.666667
1390.189942	4846.000000
1391.315451	4835.333333
1392.440532	4822.333333
1393.565185	4889.666667
1394.689409	4836.000000
1395.813206	4830.333333
1396.936575	4853.000000
1398.059517	4865.666667
1399.182032	4807.000000
1400.304119	4877.333333
1401.425780	4832.333333
1402.547014	4786.666667
1403.667822	4810.666667
1404.788204	4815.666667
1405.908160	4832.666667
1407.027690	4901.666667
1408.146795	4839.666667
1409.265474	4864.333333
1410.383728	4868.333333
1411.501558	4884.000000
1412.618963	4878.000000
1413.735943	4779.333333
1414.852499	4811.000000
1415.968632	4858.666667
1417.084340	4983.333333
1418.199625	4848.000000
1419.314486	4892.666667
1420.428925	4913.000000
1421.542940	4880.666667
1422.656533	4974.666667
1423.769703	4890.000000
1424.882451	4933.000000
1425.994777	4855.000000
1427.106680	4920.000000
1428.218163	4890.333333
1429.329223	4880.000000
1430.439863	4820.666667
1431.550081	4875.000000
1432.659879	4831.666667
1433.769256	4801.333333
1434.878212	4850.333333
1435.986749	4850.666667
1437.094865	4826.000000
1438.202562	4840.666667
1439.309839	4861.666667
1440.416696	4908.000000
1441.523135	4935.666667
1442.629154	4964.666667
1443.734755	5007.333333
1444.839937	5011.333333
1445.944701	5052.000000
1447.049047	5097.666667
1448.152975	5080.333333
1449.256485	5044.000000
1450.359577	5109.666667
1451.462253	5076.000000
1452.564511	5046.000000
1453.666352	4991.666667
1454.767777	5040.333333
1455.868785	5018.666667
1456.969377	5000.666667
1458.069553	4967.000000
1459.169313	4889.000000
1460.268658	4895.000000
1461.367587	4859.000000
1462.466101	4804.333333
1463.564200	4807.333333
1464.661884	4761.666667
1465.759153	4724.000000
1466.856008	4748.333333
1467.952449	4618.333333
1469.048476	4644.000000
1470.144089	4605.666667
1471.239288	4573.666667
1472.334074	4492.666667
1473.428447	4467.666667
1474.522407	4397.333333
1475.615955	4368.333333
1476.709089	4349.333333
1477.801812	4342.666667
1478.894122	4277.666667
1479.986020	4346.333333
1481.077506	4288.666667
1482.168581	4241.666667
1483.259245	4210.333333
1484.349498	4265.333333
1485.439339	4213.666667
1486.528770	4211.000000
1487.617790	4156.000000
1488.706400	4187.666667
1489.794600	4140.000000
1490.882390	4139.666667
1491.969771	4150.666667
1493.056742	4147.666667
1494.143303	4088.000000
1495.229456	4086.333333
1496.315199	4125.666667
1497.400534	4092.000000
1498.485460	4077.000000
1499.569978	4101.000000
1500.654088	4054.333333
1501.737790	4078.000000
1502.821085	4039.666667
1503.903972	4081.000000
1504.986451	4015.333333
1506.068524	4032.666667
1507.150189	4037.666667
1508.231448	4024.333333
1509.312301	3952.666667
1510.392747	3989.666667
1511.472787	3997.666667
1512.552422	3982.666667
1513.631650	4021.000000
1514.710473	3983.000000
1515.788891	4020.666667
1516.866904	3964.000000
1517.944512	3948.666667
1519.021715	4015.666667
1520.098513	4016.333333
1521.174908	4011.333333
1522.250898	3960.666667
1523.326485	4008.000000
1524.401667	3991.333333
1525.476447	3991.666667
1526.550823	4033.000000
1527.624796	4029.333333
1528.698365	4068.000000
1529.771533	4003.000000
1530.844298	4088.333333
1531.916660	4002.000000
1532.988620	4006.333333
1534.060179	4025.666667
1535.131336	4036.666667
1536.202091	4004.666667
1537.272445	3999.000000
1538.342398	3948.000000
1539.411950	3950.666667
1540.481101	3946.333333
1541.549851	3935.333333
1542.618202	3954.000000
1543.686152	3950.333333
1544.753702	3926.000000
1545.820853	3925.333333
1546.887604	3927.000000
1547.953955	3915.000000
1549.019908	3939.666667
1550.085461	3968.000000
1551.150616	3866.666667
1552.215372	3871.333333
1553.279730	3889.000000
1554.343690	3843.666667
1555.407252	3894.666667
1556.470415	3861.333333
1557.533182	3849.000000
1558.595551	3805.000000
1559.657522	3778.333333
1560.719097	3784.000000
1561.780275	3758.000000
1562.841056	3784.000000
1563.901441	3778.666667
1564.961429	3813.333333
1566.021022	3731.666667
1567.080219	3720.333333
1568.139020	3742.000000
1569.197425	3712.666667
1570.255436	3703.333333
1571.313051	3704.000000
1572.370271	3741.000000
1573.427097	3745.666667
1574.483528	3686.000000
1575.539565	3715.000000
1576.595208	3732.333333
1577.650457	3702.666667
1578.705312	3672.000000
1579.759774	3622.000000
1580.813842	3631.666667
1581.867517	3574.333333
1582.920799	3552.333333
1583.973689	3598.333333
1585.026186	3583.000000
1586.078290	3615.666667
1587.130002	3653.000000
1588.181323	3605.333333
1589.232251	3636.333333
1590.282788	3622.666667
1591.332933	3543.666667
1592.382688	3545.000000
1593.432051	3556.000000
1594.481023	3567.333333
1595.529605	3559.333333
1596.577796	3630.666667
1597.625597	3678.333333
1598.673007	3654.000000
1599.720028	3688.333333
1600.766660	3678.000000
1601.812901	3684.000000
1602.858753	3685.000000
1603.904217	3650.000000
1604.949291	3675.666667
1605.993976	3727.333333
1607.038273	3678.333333
1608.082182	3752.000000
1609.125702	3689.666667
1610.168834	3687.000000
1611.211579	3614.666667
1612.253935	3563.000000
1613.295905	3560.333333
1614.337487	3552.000000
1615.378682	3509.333333
1616.419490	3559.666667
1617.459912	3566.666667
1618.499946	3597.666667
1619.539595	3644.333333
1620.578858	3689.333333
1621.617734	3727.333333
1622.656225	3743.666667
1623.694330	3739.000000
1624.732050	3674.666667
1625.769385	3678.666667
1626.806334	3635.000000
1627.842899	3678.333333
1628.879079	3634.000000
1629.914875	3643.000000
1630.950286	3621.333333
1631.985314	3704.000000
1633.019957	3654.000000
1634.054217	3679.333333
1635.088093	3673.666667
1636.121586	3694.000000
1637.154696	3725.666667
1638.187423	3723.666667
1639.219767	3714.000000
1640.251728	3748.666667
1641.283307	3735.666667
1642.314504	3725.333333
1643.345319	3770.000000
1644.375751	3792.333333
1645.405803	3747.000000
1646.435472	3698.666667
1647.464761	3691.666667
1648.493668	3696.000000
1649.522194	3691.000000
1650.550340	3782.000000
1651.578105	3761.333333
1652.605490	3768.000000
1653.632494	3755.666667
1654.659119	3745.666667
1655.685363	3696.333333
1656.711228	3687.333333
1657.736714	3663.000000
1658.761820	3648.000000
1659.786547	3661.000000
1660.810895	3723.666667
1661.834865	3713.000000
1662.858456	3683.666667
1663.881668	3666.333333
1664.904503	3678.666667
1665.926959	3715.666667
1666.949038	3670.333333
1667.970739	3639.000000
1668.992062	3683.333333
1670.013008	3673.333333
1671.033577	3643.000000
1672.053770	3680.000000
1673.073585	3662.333333
1674.093024	3648.666667
1675.112086	3605.000000
1676.130773	3569.000000
1677.149083	3525.666667
1678.167017	3531.666667
1679.184576	3580.666667
1680.201760	3548.666667
1681.218568	3567.000000
1682.235001	3518.000000
1683.251059	3528.333333
1684.266742	3537.000000
1685.282051	3534.666667
1686.296985	3484.333333
1687.311546	3447.000000
1688.325732	3434.666667
1689.339544	3408.333333
1690.352983	3413.000000
1691.366048	3353.000000
1692.378740	3317.000000
1693.391058	3323.666667
1694.403004	3297.333333
1695.414577	3275.333333
1696.425778	3273.000000
1697.436606	3250.333333
1698.447061	3206.333333
1699.457145	3172.333333
1700.466857	3211.333333
1701.476197	3118.333333
1702.485166	3118.333333
1703.493763	3069.000000
1704.501989	3136.666667
1705.509844	3082.666667
1706.517328	3076.333333
1707.524442	3106.000000
1708.531185	3092.000000
1709.537558	3054.333333
1710.543561	3040.000000
1711.549194	3008.000000
1712.554457	3021.666667
1713.559351	3016.333333
1714.563875	3004.666667
1715.568030	2995.000000
1716.571816	2982.666667
1717.575233	3095.666667
1718.578282	3081.000000
1719.580962	3118.000000
1720.583273	3149.000000
1721.585217	3141.333333
1722.586792	3098.333333
1723.588000	3110.666667
1724.588840	3084.000000
1725.589312	3059.000000
1726.589418	3058.333333
1727.589156	3077.000000
1728.588527	3106.333333
1729.587532	3104.666667
1730.586170	3146.000000
1731.584441	3080.666667
1732.582346	3040.666667
1733.579886	3106.000000
1734.577059	3074.666667
1735.573867	3097.000000
1736.570309	3051.000000
1737.566386	3052.333333
1738.562097	3076.666667
1739.557444	3058.000000
1740.552426	3035.666667
1741.547043	3004.333333
1742.541295	3009.000000
1743.535184	3019.000000
1744.528708	3020.666667
1745.521868	3047.666667
1746.514664	2985.000000
1747.507097	2972.333333
1748.499166	2951.666667
1749.490873	2922.000000
1750.482216	2944.666667
1751.473196	2955.333333
1752.463813	2992.000000
1753.454068	2990.000000
1754.443960	3001.333333
1755.433490	2963.333333
1756.422658	2928.666667
1757.411464	2909.333333
1758.399908	2901.333333
1759.387991	2861.666667
1760.375713	2947.000000
1761.363073	2929.666667
1762.350072	2918.000000
1763.336711	2940.333333
1764.322988	2931.333333
1765.308905	2957.000000
1766.294462	2894.666667
1767.279659	2952.000000
1768.264496	2853.666667
1769.248972	2827.666667
1770.233089	2818.000000
1771.216847	2807.333333
1772.200245	2786.666667
1773.183284	2809.333333
1774.165965	2795.000000
1775.148286	2839.666667
1776.130249	2815.333333
1777.111853	2821.666667
1778.093099	2842.666667
1779.073987	2759.333333
1780.054517	2721.000000
1781.034689	2747.000000
1782.014503	2730.333333
1782.993960	2703.000000
1783.973060	2660.000000
1784.951802	2583.333333
1785.930188	2624.333333
1786.908217	2594.333333
1787.885889	2608.000000
1788.863205	2605.333333
1789.840164	2571.000000
1790.816768	2588.000000
1791.793015	2580.333333
1792.768907	2560.000000
1793.744443	2567.000000
1794.719624	2602.000000
1795.694449	2567.000000
1796.668919	2602.666667
1797.643035	2628.333333
1798.616795	2633.000000
1799.590201	2626.666667
1800.563253	2652.000000
1801.535950	2584.000000
1802.508294	2608.000000
1803.480283	2677.666667
1804.451919	2685.333333
1805.423201	2674.000000
1806.394129	2610.333333
1807.364705	2705.000000
1808.334927	2688.333333
1809.304796	2634.000000
1810.274313	2608.000000
1811.243477	2623.333333
1812.212288	2619.000000
1813.180747	2594.333333
1814.148855	2602.000000
1815.116610	2636.666667
1816.084013	2621.000000
1817.051065	2630.333333
1818.017766	2678.000000
1818.984115	2695.000000
1819.950113	2667.666667
1820.915760	2709.000000
1821.881057	2675.333333
1822.846003	2675.666667
1823.810598	2679.333333
1824.774843	2642.000000
1825.738738	2657.333333
1826.702283	2702.333333
1827.665479	2686.000000
1828.628324	2678.666667
1829.590821	2631.666667
1830.552968	2671.000000
1831.514765	2655.000000
1832.476214	2621.000000
1833.437314	2608.333333
1834.398066	2627.666667
1835.358469	2599.000000
1836.318524	2615.333333
1837.278230	2555.666667
1838.237589	2572.000000
1839.196600	2569.666667
1840.155263	2593.333333
1841.113578	2601.000000
1842.071547	2581.000000
1843.029168	2594.666667
1843.986442	2634.666667
1844.943369	2619.666667
1845.899950	2638.000000
1846.856184	2639.666667
1847.812072	2579.333333
1848.767614	2591.333333
1849.722809	2591.666667
1850.677659	2545.000000
1851.632163	2584.666667
1852.586322	2574.666667
1853.540135	2579.666667
1854.493603	2614.666667
1855.446726	2551.333333
1856.399504	2549.000000
1857.351937	2526.666667
1858.304026	2506.666667
1859.255770	2511.666667
1860.207170	2506.666667
1861.158227	2491.000000
1862.108939	2448.333333
1863.059307	2478.666667
1864.009332	2447.333333
1864.959013	2460.666667
1865.908351	2447.000000
1866.857346	2434.333333
1867.805998	2452.666667
1868.754307	2457.333333
1869.702274	2448.000000
1870.649898	2437.333333
1871.597180	2415.666667
1872.544119	2406.333333
1873.490717	2402.333333
1874.436973	2421.666667
1875.382887	2382.666667
1876.328459	2391.333333
1877.273691	2370.666667
1878.218581	2346.333333
1879.163130	2354.000000
1880.107338	2376.333333
1881.051205	2431.333333
1881.994732	2422.333333
1882.937919	2404.000000
1883.880765	2403.333333
1884.823271	2354.666667
1885.765437	2374.666667
1886.707264	2356.333333
1887.648750	2422.666667
1888.589898	2386.000000
1889.530706	2431.000000
1890.471175	2437.000000
1891.411305	2431.333333
1892.351096	2440.333333
1893.290548	2447.000000
1894.229662	2488.666667
1895.168438	2455.666667
1896.106876	2408.333333
1897.044975	2441.666667
1897.982737	2502.666667
1898.920160	2465.333333
1899.857247	2452.666667
1900.793996	2432.000000
1901.730407	2425.666667
1902.666482	2456.333333
1903.602219	2436.000000
1904.537620	2401.333333
1905.472685	2437.000000
1906.407412	2393.666667
1907.341804	2383.000000
1908.275859	2358.666667
1909.209579	2404.666667
1910.142962	2363.333333
1911.076010	2337.666667
1912.008722	2354.000000
1912.941099	2303.666667
1913.873141	2298.000000
1914.804848	2312.666667
1915.736219	2254.000000
1916.667256	2282.333333
1917.597959	2321.000000
1918.528327	2287.333333
1919.458360	2259.333333
1920.388060	2272.000000
1921.317426	2257.333333
1922.246457	2241.666667
1923.175156	2262.666667
1924.103520	2263.000000
1925.031552	2205.000000
1925.959250	2258.333333
1926.886615	2251.000000
1927.813647	2221.000000
1928.740346	2209.666667
1929.666713	2228.000000
1930.592748	2224.000000
1931.518450	2201.333333
1932.443820	2218.666667
1933.368858	2206.333333
1934.293564	2206.000000
1935.217939	2233.000000
1936.141982	2217.333333
1937.065694	2219.000000
1937.989074	2181.333333
1938.912124	2180.000000
1939.834842	2173.666667
1940.757230	2156.333333
1941.679287	2194.000000
1942.601014	2150.000000
1943.522411	2185.666667
1944.443477	2196.333333
1945.364214	2145.333333
1946.284621	2133.000000
1947.204698	2143.000000
1948.124445	2131.666667
1949.043863	2191.000000
1949.962952	2154.000000
1950.881712	2137.000000
1951.800143	2151.000000
1952.718245	2131.000000
1953.636019	2115.666667
1954.553464	2098.000000
1955.470581	2072.666667
1956.387369	2101.333333
1957.303830	2104.333333
1958.219963	2111.000000
1959.135768	2084.333333
1960.051246	2108.333333
1960.966396	2067.000000
1961.881219	2072.666667
1962.795715	2088.333333
1963.709883	2111.000000
1964.623726	2103.666667
1965.537241	2118.666667
1966.450430	2147.000000
1967.363293	2169.000000
1968.275829	2127.666667
1969.188040	2135.333333
1970.099924	2082.333333
1971.011483	2104.666667
1971.922716	2138.333333
1972.833624	2105.333333
1973.744206	2131.666667
1974.654464	2145.000000
1975.564396	2099.000000
1976.474004	2125.000000
1977.383286	2101.666667
1978.292245	2119.000000
1979.200878	2059.666667
1980.109188	2048.666667
1981.017174	2060.000000
1981.924835	2033.333333
1982.832173	2025.000000
1983.739187	2040.000000
1984.645878	2017.666667
1985.552245	2034.666667
1986.458289	2037.333333
1987.364010	1984.333333
1988.269408	2019.333333
1989.174484	1963.666667
1990.079236	1997.666667
1990.983667	1975.000000
1991.887775	1956.333333
1992.791561	1948.000000
1993.695024	1967.000000
1994.598166	1946.000000
1995.500986	1938.666667
1996.403485	1896.333333
1997.305662	1899.000000
1998.207518	1896.333333
1999.109053	1901.666667
