200.151048	49247.000000
201.758777	49277.333333
203.365815	49242.000000
204.972162	49232.333333
206.577820	49110.333333
208.182787	49030.666667
209.787065	49118.000000
211.390653	48786.666667
212.993553	48744.000000
214.595765	48794.000000
216.197289	48856.333333
217.798125	48629.000000
219.398274	48883.000000
220.997737	48829.333333
222.596513	48888.000000
224.194603	48923.000000
225.792008	48870.000000
227.388728	48787.333333
228.984763	48793.666667
230.580114	48731.333333
232.174781	48742.333333
233.768765	48819.000000
235.362065	48728.666667
236.954683	48822.000000
238.546619	48773.333333
240.137872	48455.333333
241.728445	48538.000000
243.318336	48388.666667
244.907546	48518.000000
246.496076	48426.333333
248.083926	48108.666667
249.671097	47962.666667
251.257589	48040.666667
252.843402	47776.000000
254.428536	47990.333333
256.012993	47780.666667
257.596772	47836.000000
259.179874	47326.666667
260.762300	47606.333333
262.344049	47648.666667
263.925122	47564.333333
265.505519	47448.000000
267.085241	47649.333333
268.664289	47392.333333
270.242662	47374.000000
271.820361	47502.666667
273.397387	47636.000000
274.973740	47757.000000
276.549419	47706.000000
278.124426	47576.666667
279.698762	47996.333333
281.272425	47920.000000
282.845417	47804.666667
284.417739	47673.666667
285.989390	47859.333333
287.560371	47991.000000
289.130682	48088.000000
290.700324	47970.333333
292.269297	48117.000000
293.837602	48080.000000
295.405238	47849.666667
296.972207	47892.333333
298.538508	48006.000000
300.104142	47687.666667
301.669110	47846.000000
303.233411	47691.333333
304.797047	47481.666667
306.360017	47450.000000
307.922322	47223.333333
309.483963	47320.333333
311.044939	47231.333333
312.605252	47138.666667
314.164900	46983.333333
315.723886	47071.333333
317.282209	46924.000000
318.839870	46816.000000
320.396868	46982.333333
321.953205	46703.333333
323.508881	46863.333333
325.063896	46665.000000
326.618251	46856.000000
328.171945	46764.000000
329.724980	46901.333333
331.277356	46651.000000
332.829072	46644.333333
334.380131	46843.666667
335.930530	46766.666667
337.480273	46696.000000
339.029357	46814.000000
340.577785	46675.000000
342.125556	46843.000000
343.672671	46873.333333
345.219130	46763.333333
346.764933	46819.000000
348.310081	46819.000000
349.854575	46906.333333
351.398414	46861.000000
352.941599	46710.000000
354.484130	46767.666667
356.026008	46624.666667
357.567234	46918.000000
359.107807	46602.666667
360.647727	46691.333333
362.186996	46583.000000
363.725614	46449.000000
365.263580	46308.666667
366.800896	46631.666667
368.337562	46111.000000
369.873578	46506.000000
371.408944	46319.000000
372.943661	46211.666667
374.477730	46347.000000
376.011150	46163.333333
377.543922	46169.000000
379.076046	46306.000000
380.607523	45966.000000
382.138353	46322.666667
383.668537	46369.666667
385.198075	46282.333333
386.726966	46179.666667
388.255213	46415.333333
389.782814	46051.000000
391.309770	46371.333333
392.836083	46340.000000
394.361751	46244.333333
395.886776	46331.000000
397.411157	46312.666667
398.934896	46402.666667
400.457992	46312.000000
401.980446	46352.666667
403.502258	46559.666667
405.023429	46445.000000
406.543959	46470.333333
408.063849	46575.333333
409.583098	46569.000000
411.101707	46684.000000
412.619677	46807.333333
414.137007	46657.666667
415.653699	46908.333333
417.169752	46869.666667
418.685167	47029.333333
420.199945	47360.000000
421.714085	47435.000000
423.227588	47371.333333
424.740454	47866.666667
426.252684	47650.666667
427.764279	47574.333333
429.275238	47769.000000
430.785561	47449.333333
432.295250	47257.000000
433.804304	47233.333333
435.312725	47121.666667
436.820511	46767.666667
438.327664	46646.333333
439.834185	46730.666667
441.340072	46539.666667
442.845327	46260.666667
444.349951	46439.000000
445.853942	46018.333333
447.357303	46272.666667
448.860033	45882.333333
450.362132	45846.666667
451.863601	45640.000000
453.364440	45735.333333
454.864650	45487.666667
456.364231	45314.666667
457.863183	45295.666667
459.361507	44946.000000
460.859203	45086.666667
462.356271	44835.333333
463.852712	45003.666667
465.348526	44678.000000
466.843714	44571.000000
468.338275	44537.000000
469.832210	44626.000000
471.325520	44433.000000
472.818205	44334.333333
474.310265	44258.000000
475.801700	44226.333333
477.292512	44312.000000
478.782700	44201.333333
480.272264	44127.000000
481.761205	44227.000000
483.249524	44032.666667
484.737221	44106.333333
486.224295	43851.333333
487.710748	43784.666667
489.196579	43783.666667
490.681790	43806.000000
492.166380	43704.000000
493.650350	43752.000000
495.133700	43692.000000
496.616431	43393.333333
498.098542	43666.333333
499.580035	43518.333333
501.060909	43502.666667
502.541165	43572.000000
504.020804	43484.000000
505.499825	43405.333333
506.978228	43475.333333
508.456016	43236.666667
509.933186	43139.333333
511.409741	42921.000000
512.885680	43144.000000
514.361004	42905.666667
515.835713	43026.333333
517.309807	43022.000000
518.783287	43016.666667
520.256153	42982.333333
521.728406	42902.333333
523.200045	42845.000000
524.671071	42811.333333
526.141485	42754.000000
527.611287	42718.333333
529.080476	42645.000000
530.549054	42553.666667
532.017021	42589.333333
533.484378	42407.333333
534.951123	42578.000000
536.417259	42437.666667
537.882785	42434.000000
539.347701	42269.000000
540.812008	42528.333333
542.275707	42291.333333
543.738797	42363.666667
545.201279	42326.666667
546.663153	42447.000000
548.124420	42240.666667
549.585080	42354.000000
551.045133	42454.000000
552.504579	42335.666667
553.963420	42442.000000
555.421655	42437.666667
556.879285	42300.333333
558.336309	42505.333333
559.792729	42555.666667
561.248545	42560.666667
562.703756	42582.333333
564.158364	42526.666667
565.612369	42612.000000
567.065770	42609.333333
568.518569	42663.000000
569.970766	42739.666667
571.422361	42730.333333
572.873354	42816.333333
574.323745	42815.666667
575.773536	42928.666667
577.222726	42902.666667
578.671316	42930.333333
580.119306	43044.333333
581.566696	43142.000000
583.013487	42812.000000
584.459679	42925.666667
585.905273	42636.666667
587.350268	42688.666667
588.794665	42599.333333
590.238465	42479.000000
591.681667	42398.666667
593.124272	42280.000000
594.566281	42255.333333
596.007694	41962.333333
597.448510	41928.333333
598.888731	41662.666667
600.328357	41736.333333
601.767388	41525.000000
603.205824	41578.000000
604.643666	41615.666667
606.080914	41496.666667
607.517568	41307.333333
608.953629	41325.333333
610.389097	41238.333333
611.823972	41395.666667
613.258255	41177.000000
614.691946	41100.666667
616.125046	41118.000000
617.557554	40717.333333
618.989471	40703.333333
620.420798	40529.666667
621.851534	40377.333333
623.281680	40238.000000
624.711237	40165.333333
626.140204	40008.666667
627.568582	40021.000000
628.996372	39957.333333
630.423573	39885.666667
631.850186	39843.000000
633.276211	39773.000000
634.701650	39774.666667
636.126501	39684.333333
637.550765	39447.000000
638.974443	39708.000000
640.397535	39515.333333
641.820041	39430.333333
643.241961	39591.333333
644.663297	39500.000000
646.084048	39570.000000
647.504214	39237.000000
648.923796	39266.000000
650.342795	39164.000000
651.761210	39201.333333
653.179041	39288.666667
654.596290	39006.666667
656.012957	39342.333333
657.429041	38744.666667
658.844543	39050.333333
660.259464	38857.333333
661.673804	38921.333333
663.087563	38807.333333
664.500741	38782.000000
665.913339	38722.000000
667.325357	38742.666667
668.736795	38723.333333
670.147654	38624.666667
671.557934	38661.666667
672.967636	38627.000000
674.376759	38461.333333
675.785304	38445.666667
677.193271	38472.333333
678.600661	38394.666667
680.007474	38443.666667
681.413711	38227.666667
682.819370	38291.666667
684.224454	38218.000000
685.628962	38075.000000
687.032895	38097.000000
688.436252	37965.000000
689.839034	38082.333333
691.241242	37967.000000
692.642876	38077.666667
694.043936	37919.000000
695.444422	37777.666667
696.844336	37647.000000
698.243676	37770.000000
699.642443	37719.666667
701.040639	37721.666667
702.438262	37995.333333
703.835313	37671.333333
705.231794	37550.666667
706.627703	37522.000000
708.023041	37568.666667
709.417810	37494.333333
710.812008	37519.333333
712.205636	37367.000000
713.598694	37228.000000
714.991184	37373.000000
716.383105	37093.666667
717.774457	37306.666667
719.165241	37239.666667
720.555457	37259.333333
721.945105	37035.000000
723.334187	37131.666667
724.722701	37136.666667
726.110648	37032.333333
727.498030	37153.666667
728.884845	36984.000000
730.271094	37083.000000
731.656778	36988.666667
733.041897	37092.000000
734.426451	36878.000000
735.810441	36962.666667
737.193866	36997.333333
738.576728	36808.000000
739.959026	36855.000000
741.340760	36590.000000
742.721932	36863.666667
744.102541	36838.333333
745.482588	36652.000000
746.862073	36661.666667
748.240996	36636.333333
749.619358	36672.000000
750.997158	36502.333333
752.374398	36511.000000
753.751077	36512.333333
755.127197	36446.333333
756.502756	36385.333333
757.877756	36336.333333
759.252196	36334.333333
760.626078	36037.666667
761.999400	36405.000000
763.372165	36223.333333
764.744371	36179.666667
766.116020	36033.333333
767.487111	36193.333333
768.857646	35964.333333
770.227623	35907.666667
771.597044	35893.000000
772.965908	35799.000000
774.334217	35896.333333
775.701970	35785.000000
777.069168	35659.000000
778.435811	35602.000000
779.801899	35601.666667
781.167433	35559.333333
782.532412	35616.000000
783.896838	35447.000000
785.260710	35569.666667
786.624029	35434.666667
787.986796	35299.000000
789.349009	35310.000000
790.710671	35258.000000
792.071780	35487.333333
793.432338	35216.666667
794.792344	35252.333333
796.151799	35217.333333
797.510704	35107.666667
798.869058	35043.000000
800.226862	34977.666667
801.584116	35014.333333
802.940820	34991.333333
804.296975	34936.000000
805.652581	34857.666667
807.007638	34842.333333
808.362147	34884.000000
809.716108	34725.333333
811.069521	34790.000000
812.422387	34805.000000
813.774705	34796.333333
815.126476	34682.333333
816.477701	34708.000000
817.828380	34706.666667
819.178512	34596.000000
820.528099	34675.333333
821.877140	34583.333333
823.225637	34383.333333
824.573588	34544.666667
825.920995	34478.000000
827.267857	34542.333333
828.614176	34245.666667
829.959951	34315.666667
831.305183	34353.000000
832.649871	34202.666667
833.994017	34230.333333
835.337620	34162.000000
836.680681	34070.000000
838.023201	34229.000000
839.365178	34022.333333
840.706614	34211.333333
842.047510	34109.000000
843.387864	34184.666667
844.727678	34040.000000
846.066952	34184.000000
847.405687	34164.000000
848.743881	34234.666667
850.081537	34265.000000
851.418653	34231.666667
852.755231	34215.666667
854.091270	34196.000000
855.426771	34039.000000
856.761735	34168.000000
858.096160	33741.666667
859.430049	33953.000000
860.763401	33653.333333
862.096216	33696.666667
863.428495	33602.000000
864.760237	33644.666667
866.091444	33601.333333
867.422115	33479.000000
868.752252	33329.000000
870.081853	33413.333333
871.410919	33384.333333
872.739452	33342.000000
874.067450	33388.333333
875.394914	33265.333333
876.721845	33181.333333
878.048243	33133.666667
879.374108	33150.000000
880.699440	33028.333333
882.024240	32967.333333
883.348508	33030.333333
884.672244	32850.333333
885.995449	32860.666667
887.318122	32812.000000
888.640265	32704.000000
889.961877	32622.000000
891.282959	32532.333333
892.603510	32469.666667
893.923532	32465.333333
895.243024	32452.000000
896.561987	32453.000000
897.880422	32433.666667
899.198327	32435.666667
900.515705	32331.333333
901.832554	32177.333333
903.148875	32214.333333
904.464669	32274.666667
905.779936	32056.333333
907.094676	32173.666667
908.408889	32254.333333
909.722576	32225.000000
911.035737	32225.000000
912.348371	32277.333333
913.660481	32206.333333
914.972065	32212.000000
916.283124	32237.333333
917.593659	32182.000000
918.903669	32345.000000
920.213155	32257.333333
921.522117	32230.666667
922.830556	32320.666667
924.138471	32068.333333
925.445864	32166.333333
926.752733	32091.333333
928.059081	32309.000000
929.364906	32086.000000
930.670209	32167.666667
931.974991	32179.333333
933.279251	32218.333333
934.582990	32525.666667
935.886209	32510.333333
937.188907	32512.666667
938.491085	32627.000000
939.792743	32744.666667
941.093881	33034.000000
942.394500	33224.333333
943.694600	33467.000000
944.994181	33933.666667
946.293243	33998.000000
947.591787	34417.666667
948.889813	34978.666667
950.187322	35658.666667
951.484313	36293.666667
952.780787	37194.666667
954.076744	37812.000000
955.372184	38438.000000
956.667108	39072.666667
957.961516	39563.333333
959.255409	39430.333333
960.548785	39059.333333
961.841647	38506.333333
963.133993	37667.333333
964.425825	36508.666667
965.717142	35814.333333
967.007946	34731.000000
968.298235	33905.666667
969.588011	33256.000000
970.877273	32506.333333
972.166023	32154.333333
973.454259	31509.333333
974.741984	31334.000000
976.029196	30937.666667
977.315895	30880.000000
978.602084	30689.333333
979.887761	30431.000000
981.172926	30376.000000
982.457581	30155.666667
983.741725	30232.666667
985.025359	30247.000000
986.308483	29927.000000
987.591097	29971.666667
988.873202	29911.000000
990.154797	29816.000000
991.435883	29814.333333
992.716461	29700.000000
993.996530	29762.666667
995.276091	29741.666667
996.555144	29704.666667
997.833690	29832.000000
999.111728	29749.333333
1000.389259	29990.666667
1001.666283	29803.666667
1002.942800	29803.333333
1004.218812	29902.000000
1005.494317	29842.666667
1006.769317	29726.666667
1008.043811	29640.333333
1009.317799	29700.333333
1010.591283	29578.000000
1011.864263	29753.666667
1013.136737	29651.666667
1014.408708	29496.333333
1015.680175	29578.666667
1016.951138	29616.000000
1018.221598	29455.333333
1019.491554	29607.666667
1020.761008	29518.666667
1022.029959	29601.000000
1023.298408	29514.333333
1024.566355	29438.000000
1025.833800	29378.666667
1027.100744	29432.000000
1028.367187	29510.333333
1029.633128	29484.000000
1030.898569	29484.333333
1032.163509	29408.333333
1033.427949	29435.666667
1034.691890	29442.000000
1035.955330	29378.666667
1037.218271	29418.333333
1038.480714	29409.000000
1039.742657	29350.000000
1041.004101	29448.000000
1042.265048	29265.333333
1043.525496	29654.333333
1044.785446	29427.666667
1046.044899	29239.666667
1047.303855	29390.333333
1048.562313	29324.333333
1049.820275	29306.666667
1051.077740	29180.666667
1052.334709	29122.333333
1053.591182	29108.000000
1054.847160	29114.333333
1056.102641	29045.333333
1057.357628	29086.333333
1058.612120	29048.000000
1059.866117	28991.000000
1061.119619	29074.000000
1062.372628	29001.333333
1063.625142	29152.000000
1064.877163	29194.666667
1066.128691	29183.000000
1067.379725	28986.333333
1068.630267	28930.666667
1069.880316	29016.333333
1071.129872	29171.333333
1072.378937	28911.333333
1073.627509	28798.000000
1074.875590	28833.666667
1076.123180	28613.666667
1077.370279	28666.666667
1078.616887	28326.666667
1079.863004	28329.666667
1081.108631	28320.000000
1082.353768	28104.333333
1083.598415	28005.333333
1084.842573	27758.333333
1086.086241	27738.333333
1087.329421	27645.666667
1088.572111	27525.666667
1089.814314	27541.666667
1091.056028	27333.666667
1092.297253	27374.333333
1093.537992	27227.333333
1094.778242	27253.000000
1096.018006	27407.666667
1097.257282	27268.000000
1098.496072	26994.666667
1099.734376	27061.000000
1100.972193	27072.333333
1102.209524	27094.000000
1103.446370	27005.333333
1104.682730	27062.666667
1105.918604	26955.666667
1107.153994	26920.000000
1108.388900	26845.333333
1109.623320	26673.666667
1110.857257	26703.666667
1112.090710	26656.666667
1113.323679	26797.666667
1114.556164	26657.000000
1115.788167	26487.000000
1117.019686	26417.333333
1118.250723	26408.333333
1119.481278	26392.666667
1120.711350	26418.000000
1121.940940	26276.666667
1123.170049	26374.333333
1124.398676	26331.000000
1125.626823	26220.000000
1126.854488	26159.666667
1128.081672	26251.333333
1129.308376	26232.333333
1130.534600	26119.333333
1131.760345	26230.333333
1132.985609	26257.000000
1134.210394	26100.000000
1135.434700	26005.666667
1136.658527	26015.333333
1137.881875	26070.000000
1139.104745	26040.666667
1140.327136	26136.333333
1141.549050	25976.666667
1142.770486	25974.666667
1143.991445	26032.666667
1145.211926	25953.333333
1146.431931	25972.333333
1147.651459	25907.666667
1148.870510	26145.666667
1150.089086	25993.333333
1151.307185	25825.666667
1152.524808	25750.000000
1153.741957	25887.666667
1154.958630	25629.000000
1156.174828	25659.333333
1157.390551	25666.000000
1158.605800	25643.000000
1159.820574	25727.000000
1161.034875	25674.000000
1162.248702	25545.000000
1163.462055	25581.000000
1164.674936	25645.000000
1165.887343	25499.000000
1167.099277	25603.666667
1168.310739	25428.666667
1169.521729	25673.333333
1170.732247	25552.333333
1171.942293	25521.000000
1173.151867	25592.000000
1174.360970	25534.666667
1175.569602	25443.000000
1176.777764	25307.666667
1177.985454	25472.666667
1179.192675	25211.666667
1180.399425	25199.666667
1181.605706	25259.000000
1182.811517	25231.000000
1184.016859	24996.000000
1185.221731	24904.333333
1186.426135	25017.000000
1187.630070	24855.666667
1188.833537	24987.666667
1190.036535	24984.333333
1191.239066	24644.000000
1192.441129	24818.666667
1193.642725	24738.333333
1194.843853	24792.666667
1196.044515	24720.333333
1197.244710	24703.666667
1198.444438	24685.333333
1199.643701	24691.000000
1200.842497	24672.000000
1202.040827	24834.333333
1203.238693	24667.333333
1204.436092	24584.000000
1205.633027	24745.000000
1206.829497	24564.333333
1208.025503	24627.000000
1209.221044	24502.000000
1210.416122	24579.000000
1211.610735	24418.666667
1212.804885	24371.333333
1213.998572	24387.333333
1215.191795	24310.333333
1216.384556	24133.333333
1217.576854	24227.666667
1218.768689	24111.666667
1219.960063	24137.333333
1221.150974	24079.000000
1222.341424	24055.333333
1223.531413	23937.000000
1224.720940	24071.666667
1225.910006	24067.000000
1227.098612	24315.333333
1228.286757	24151.666667
1229.474442	24018.333333
1230.661667	24153.000000
1231.848432	24133.333333
1233.034738	24173.333333
1234.220584	24398.333333
1235.405971	24201.000000
1236.590900	24416.666667
1237.775369	24294.000000
1238.959381	24256.666667
1240.142934	24220.000000
1241.326029	24272.333333
1242.508667	24367.000000
1243.690848	24297.000000
1244.872571	24352.333333
1246.053837	24141.333333
1247.234646	24269.666667
1248.414999	24165.666667
1249.594896	24030.000000
1250.774337	24045.666667
1251.953322	24028.666667
1253.131851	23917.333333
1254.309925	23873.000000
1255.487544	23730.333333
1256.664708	23728.666667
1257.841417	23851.000000
1259.017673	23754.666667
1260.193473	23744.666667
1261.368820	23832.666667
1262.543714	23814.666667
1263.718154	23781.000000
1264.892140	23901.666667
1266.065674	23812.666667
1267.238755	23926.666667
1268.411383	23805.000000
1269.583559	23894.333333
1270.755283	23862.333333
1271.926555	23788.666667
1273.097375	23723.000000
1274.267744	23859.333333
1275.437662	23770.000000
1276.607129	23643.000000
1277.776145	23631.333333
1278.944711	23734.333333
1280.112827	23601.000000
1281.280492	23587.000000
1282.447708	23508.000000
1283.614474	23474.000000
1284.780791	23347.333333
1285.946659	23289.000000
1287.112078	23217.000000
1288.277048	23202.000000
1289.441570	23139.666667
1290.605644	23116.333333
1291.769270	23049.000000
1292.932448	23086.666667
1294.095178	22915.666667
1295.257461	22968.333333
1296.419298	22838.666667
1297.580687	22831.666667
1298.741630	22746.333333
1299.902126	22646.000000
1301.062177	22700.000000
1302.221781	22873.666667
1303.380940	22764.333333
1304.539653	22747.333333
1305.697921	22774.666667
1306.855744	22602.333333
1308.013123	22687.333333
1309.170056	22683.666667
1310.326546	22636.666667
1311.482591	22660.000000
1312.638193	22588.000000
1313.793350	22670.666667
1314.948065	22586.333333
1316.102336	22593.000000
1317.256164	22413.333333
1318.409550	22533.666667
1319.562493	22499.000000
1320.714993	22477.666667
1321.867052	22436.333333
1323.018668	22286.000000
1324.169843	22223.666667
1325.320577	22096.666667
1326.470870	22045.000000
1327.620721	22128.333333
1328.770132	22100.333333
1329.919102	22017.333333
1331.067632	21968.333333
1332.215722	21976.666667
1333.363372	21927.333333
1334.510582	21999.333333
1335.657353	21961.000000
1336.803685	22139.000000
1337.949578	21987.333333
1339.095032	21966.666667
1340.240048	22059.000000
1341.384625	22061.666667
1342.528764	21937.000000
1343.672466	22035.000000
1344.815729	21877.666667
1345.958556	21943.000000
1347.100945	21942.333333
1348.242897	21880.000000
1349.384413	21846.333333
1350.525492	21782.000000
1351.666134	21767.000000
1352.806341	21737.666667
1353.946111	21733.000000
1355.085446	21713.000000
1356.224346	21660.666667
1357.362810	21522.333333
1358.500840	21388.000000
1359.638434	21520.000000
1360.775594	21467.000000
1361.912320	21544.000000
1363.048612	21432.666667
1364.184469	21330.333333
1365.319893	21331.000000
1366.454884	21268.333333
1367.589441	21291.333333
1368.723566	21247.000000
1369.857257	21443.333333
1370.990516	21373.333333
1372.123343	21233.000000
1373.255737	21275.333333
1374.387699	21245.000000
1375.519230	21340.333333
1376.650329	21269.333333
1377.780997	21262.333333
1378.911234	21391.333333
1380.041040	21331.000000
1381.170416	21297.666667
1382.299361	21322.333333
1383.427875	21245.000000
1384.555960	21414.666667
1385.683615	21205.000000
1386.810841	21186.333333
1387.937637	21052.666667
1389.064004	21257.333333
1390.189942	21157.000000
1391.315451	21000.333333
1392.440532	21090.000000
1393.565185	20885.666667
1394.689409	20943.666667
1395.813206	20734.000000
1396.936575	20736.333333
1398.059517	20704.666667
1399.182032	20877.666667
1400.304119	20835.666667
1401.425780	20630.333333
1402.547014	20772.333333
1403.667822	20752.000000
1404.788204	20602.000000
1405.908160	20523.666667
1407.027690	20612.333333
1408.146795	20538.666667
1409.265474	20681.000000
1410.383728	20576.000000
1411.501558	20582.000000
1412.618963	20481.333333
1413.735943	20568.666667
1414.852499	20604.000000
1415.968632	20650.333333
1417.084340	20677.000000
1418.199625	20588.000000
1419.314486	20526.666667
1420.428925	20546.666667
1421.542940	20736.000000
1422.656533	20473.666667
1423.769703	20572.333333
1424.882451	20350.666667
1425.994777	20404.333333
1427.106680	20368.333333
1428.218163	20264.000000
1429.329223	20298.000000
1430.439863	20185.333333
1431.550081	20161.000000
1432.659879	20212.666667
1433.769256	20118.666667
1434.878212	20121.333333
1435.986749	20101.000000
1437.094865	20150.000000
1438.202562	20032.000000
1439.309839	20031.333333
1440.416696	20066.666667
1441.523135	20034.333333
1442.629154	20108.000000
1443.734755	20194.333333
1444.839937	20211.333333
1445.944701	20155.333333
1447.049047	20136.333333
1448.152975	20144.666667
1449.256485	20177.333333
1450.359577	20161.666667
1451.462253	20169.666667
1452.564511	20060.666667
1453.666352	20096.666667
1454.767777	20071.666667
1455.868785	20125.666667
1456.969377	20020.000000
1458.069553	19843.666667
1459.169313	19878.666667
1460.268658	19930.333333
1461.367587	19897.000000
1462.466101	19842.333333
1463.564200	19741.333333
1464.661884	19698.666667
1465.759153	19637.000000
1466.856008	19449.000000
1467.952449	19411.666667
1469.048476	19394.666667
1470.144089	19276.333333
1471.239288	19279.000000
1472.334074	19101.333333
1473.428447	19095.666667
1474.522407	18921.333333
1475.615955	19007.666667
1476.709089	18841.000000
1477.801812	18808.333333
1478.894122	18826.666667
1479.986020	18675.000000
1481.077506	18725.000000
1482.168581	18779.000000
1483.259245	18776.000000
1484.349498	18714.666667
1485.439339	18600.333333
1486.528770	18839.000000
1487.617790	18761.666667
1488.706400	18752.666667
1489.794600	18751.000000
1490.882390	18741.666667
1491.969771	18794.666667
1493.056742	18660.000000
1494.143303	18666.000000
1495.229456	18601.000000
1496.315199	18446.333333
1497.400534	18508.000000
1498.485460	18496.333333
1499.569978	18520.333333
1500.654088	18370.666667
1501.737790	18369.666667
1502.821085	18329.666667
1503.903972	18181.333333
1504.986451	18325.333333
1506.068524	18251.000000
1507.150189	18196.000000
1508.231448	18127.666667
1509.312301	17989.333333
1510.392747	17999.666667
1511.472787	17933.666667
1512.552422	17900.000000
1513.631650	17902.000000
1514.710473	17943.000000
1515.788891	17814.333333
1516.866904	17989.000000
1517.944512	17851.333333
1519.021715	17959.000000
1520.098513	17804.666667
1521.174908	17860.333333
1522.250898	17814.000000
1523.326485	17866.333333
1524.401667	17890.333333
1525.476447	17836.333333
1526.550823	17858.666667
1527.624796	17917.333333
1528.698365	17839.333333
1529.771533	17804.333333
1530.844298	17882.333333
1531.916660	17746.000000
1532.988620	17824.666667
1534.060179	17784.666667
1535.131336	17666.666667
1536.202091	17695.333333
1537.272445	17651.333333
1538.342398	17593.000000
1539.411950	17408.000000
1540.481101	17460.666667
1541.549851	17402.000000
1542.618202	17482.000000
1543.686152	17388.666667
1544.753702	17263.000000
1545.820853	17248.666667
1546.887604	17132.000000
1547.953955	17214.333333
1549.019908	17249.333333
1550.085461	17140.666667
1551.150616	17054.333333
1552.215372	16988.333333
1553.279730	17125.666667
1554.343690	16912.333333
1555.407252	16885.000000
1556.470415	16980.333333
1557.533182	16998.333333
1558.595551	16933.000000
1559.657522	16981.333333
1560.719097	16928.000000
1561.780275	16895.333333
1562.841056	17000.000000
1563.901441	16968.666667
1564.961429	16960.333333
1566.021022	16907.666667
1567.080219	16923.333333
1568.139020	16901.000000
1569.197425	16768.333333
1570.255436	16860.333333
1571.313051	16797.333333
1572.370271	16772.000000
1573.427097	16764.666667
1574.483528	16780.000000
1575.539565	16677.666667
1576.595208	16725.333333
1577.650457	16523.333333
1578.705312	16536.000000
1579.759774	16582.333333
1580.813842	16403.666667
1581.867517	16450.666667
1582.920799	16369.666667
1583.973689	16414.666667
1585.026186	16295.666667
1586.078290	16349.000000
1587.130002	16229.333333
1588.181323	16100.333333
1589.232251	16108.000000
1590.282788	16124.666667
1591.332933	16216.666667
1592.382688	16100.000000
1593.432051	16195.000000
1594.481023	16065.000000
1595.529605	16144.666667
1596.577796	16136.333333
1597.625597	16119.333333
1598.673007	16183.000000
1599.720028	16167.666667
1600.766660	16229.000000
1601.812901	16168.333333
1602.858753	16116.666667
1603.904217	16246.666667
1604.949291	16148.333333
1605.993976	16104.666667
1607.038273	16133.333333
1608.082182	16030.333333
1609.125702	16068.666667
1610.168834	16106.333333
1611.211579	16026.666667
1612.253935	16016.333333
1613.295905	15968.666667
1614.337487	15849.000000
1615.378682	15876.333333
1616.419490	15866.000000
1617.459912	15834.333333
1618.499946	15786.333333
1619.539595	15641.000000
1620.578858	15773.000000
1621.617734	15668.666667
1622.656225	15543.333333
1623.694330	15560.333333
1624.732050	15520.000000
1625.769385	15492.333333
1626.806334	15439.000000
1627.842899	15440.333333
1628.879079	15488.666667
1629.914875	15490.333333
1630.950286	15313.000000
1631.985314	15415.333333
1633.019957	15461.000000
1634.054217	15324.666667
1635.088093	15384.333333
1636.121586	15365.666667
1637.154696	15486.000000
1638.187423	15372.000000
1639.219767	15286.666667
1640.251728	15407.000000
1641.283307	15367.333333
1642.314504	15417.333333
1643.345319	15315.666667
1644.375751	15307.333333
1645.405803	15355.666667
1646.435472	15380.666667
1647.464761	15324.666667
1648.493668	15322.333333
1649.522194	15233.000000
1650.550340	15175.333333
1651.578105	15232.666667
1652.605490	15226.666667
1653.632494	15095.666667
1654.659119	15234.000000
1655.685363	15002.000000
1656.711228	15037.333333
1657.736714	14996.666667
1658.761820	14886.333333
1659.786547	14861.333333
1660.810895	14754.333333
1661.834865	14887.666667
1662.858456	14830.333333
1663.881668	14713.333333
1664.904503	14703.666667
1665.926959	14666.000000
1666.949038	14590.000000
1667.970739	14624.333333
1668.992062	14504.000000
1670.013008	14420.000000
1671.033577	14472.333333
1672.053770	14507.333333
1673.073585	14371.333333
1674.093024	14292.000000
1675.112086	14293.000000
1676.130773	14374.333333
1677.149083	14315.333333
1678.167017	14258.666667
1679.184576	14422.666667
1680.201760	14319.666667
1681.218568	14325.333333
1682.235001	14278.000000
1683.251059	14203.333333
1684.266742	14262.333333
1685.282051	14241.000000
1686.296985	14267.333333
1687.311546	14246.333333
1688.325732	14139.666667
1689.339544	14096.666667
1690.352983	14028.666667
1691.366048	13993.333333
1692.378740	14069.333333
1693.391058	13861.000000
1694.403004	13875.000000
1695.414577	13817.000000
1696.425778	13822.666667
1697.436606	13799.000000
1698.447061	13733.666667
1699.457145	13610.333333
1700.466857	13512.333333
1701.476197	13483.000000
1702.485166	13398.000000
1703.493763	13493.666667
1704.501989	13320.666667
1705.509844	13284.333333
1706.517328	13249.000000
1707.524442	13284.333333
1708.531185	13150.000000
1709.537558	13177.666667
1710.543561	13201.000000
1711.549194	13124.000000
1712.554457	13163.666667
1713.559351	13210.000000
1714.563875	13247.666667
1715.568030	13053.666667
1716.571816	13183.000000
1717.575233	13217.666667
1718.578282	13234.000000
1719.580962	13303.000000
1720.583273	13312.000000
1721.585217	13284.000000
1722.586792	13297.666667
1723.588000	13241.333333
1724.588840	13393.666667
1725.589312	13291.000000
1726.589418	13195.333333
1727.589156	13283.333333
1728.588527	13324.666667
1729.587532	13247.666667
1730.586170	13307.666667
1731.584441	13113.000000
1732.582346	13126.000000
1733.579886	13127.666667
1734.577059	12971.666667
1735.573867	13108.000000
1736.570309	12966.000000
1737.566386	12959.000000
1738.562097	12816.333333
1739.557444	12853.666667
1740.552426	12721.666667
1741.547043	12741.333333
1742.541295	12711.666667
1743.535184	12689.666667
1744.528708	12574.666667
1745.521868	12528.666667
1746.514664	12458.666667
1747.507097	12503.333333
1748.499166	12321.000000
1749.490873	12370.666667
1750.482216	12483.000000
1751.473196	12427.666667
1752.463813	12486.666667
1753.454068	12436.000000
1754.443960	12282.333333
1755.433490	12292.333333
1756.422658	12416.333333
1757.411464	12407.333333
1758.399908	12431.000000
1759.387991	12332.000000
1760.375713	12285.333333
1761.363073	12371.000000
1762.350072	12253.333333
1763.336711	12373.333333
1764.322988	12276.666667
1765.308905	12243.333333
1766.294462	12170.000000
1767.279659	12173.666667
1768.264496	12091.333333
1769.248972	12194.333333
1770.233089	12083.000000
1771.216847	11957.000000
1772.200245	11953.666667
1773.183284	11989.666667
1774.165965	11960.000000
1775.148286	11881.333333
1776.130249	11928.333333
1777.111853	11848.000000
1778.093099	11747.333333
1779.073987	11680.333333
1780.054517	11616.000000
1781.034689	11617.333333
1782.014503	11549.000000
1782.993960	11439.000000
1783.973060	11406.333333
1784.951802	11393.333333
1785.930188	11280.000000
1786.908217	11272.000000
1787.885889	11221.666667
1788.863205	11172.333333
1789.840164	11168.333333
1790.816768	11075.666667
1791.793015	11171.666667
1792.768907	11041.000000
1793.744443	11055.000000
1794.719624	11100.666667
1795.694449	11004.000000
1796.668919	11057.333333
1797.643035	11031.666667
1798.616795	11101.666667
1799.590201	11128.333333
1800.563253	11530.666667
1801.535950	11630.000000
1802.508294	14658.333333
1803.480283	12860.000000
1804.451919	11171.333333
1805.423201	11130.000000
1806.394129	11129.666667
1807.364705	11193.333333
1808.334927	11240.000000
1809.304796	11081.666667
1810.274313	11132.333333
1811.243477	11134.333333
1812.212288	11176.666667
1813.180747	11156.333333
1814.148855	11029.333333
1815.116610	10982.000000
1816.084013	10878.666667
1817.051065	11012.333333
1818.017766	10943.000000
1818.984115	10961.000000
1819.950113	10975.333333
1820.915760	10828.000000
1821.881057	10799.000000
1822.846003	10825.333333
1823.810598	10729.333333
1824.774843	10859.333333
1825.738738	10675.333333
1826.702283	10723.333333
1827.665479	10629.000000
1828.628324	10620.666667
1829.590821	10620.333333
1830.552968	10582.666667
1831.514765	10480.333333
1832.476214	10576.000000
1833.437314	10564.333333
1834.398066	10564.333333
1835.358469	10450.666667
1836.318524	10468.333333
1837.278230	10471.000000
1838.237589	10451.333333
1839.196600	10520.333333
1840.155263	10537.333333
1841.113578	10419.000000
1842.071547	10569.333333
1843.029168	10423.000000
1843.986442	10587.333333
1844.943369	10482.666667
1845.899950	10520.000000
1846.856184	10494.000000
1847.812072	10529.000000
1848.767614	10449.000000
1849.722809	10484.000000
1850.677659	10473.000000
1851.632163	10462.333333
1852.586322	10493.666667
1853.540135	10362.333333
1854.493603	10424.000000
1855.446726	10358.333333
1856.399504	10312.000000
1857.351937	10280.333333
1858.304026	10266.666667
1859.255770	10289.666667
1860.207170	10212.666667
1861.158227	10166.000000
1862.108939	10061.333333
1863.059307	10033.333333
1864.009332	10015.333333
1864.959013	9941.000000
1865.908351	9945.000000
1866.857346	9832.666667
1867.805998	9876.666667
1868.754307	9773.333333
1869.702274	9796.666667
1870.649898	9787.333333
1871.597180	9755.000000
1872.544119	9670.666667
1873.490717	9687.333333
1874.436973	9613.000000
1875.382887	9646.666667
1876.328459	9672.000000
1877.273691	9553.666667
1878.218581	9599.000000
1879.163130	9655.333333
1880.107338	9632.333333
1881.051205	9599.000000
1881.994732	9575.333333
1882.937919	9608.000000
1883.880765	9660.000000
1884.823271	9680.333333
1885.765437	9508.000000
1886.707264	9599.000000
1887.648750	9586.000000
1888.589898	9614.333333
1889.530706	9636.666667
1890.471175	9731.666667
1891.411305	9590.333333
1892.351096	9643.333333
1893.290548	9656.000000
1894.229662	9737.333333
1895.168438	9544.666667
1896.106876	9597.333333
1897.044975	9577.333333
1897.982737	9542.333333
1898.920160	9587.000000
1899.857247	9508.666667
1900.793996	9508.000000
1901.730407	9489.000000
1902.666482	9421.000000
1903.602219	9427.000000
1904.537620	9332.333333
1905.472685	9312.333333
1906.407412	9215.666667
1907.341804	9181.333333
1908.275859	9175.666667
1909.209579	9076.666667
1910.142962	9067.666667
1911.076010	9061.000000
1912.008722	8940.333333
1912.941099	8944.333333
1913.873141	8840.000000
1914.804848	8855.333333
1915.736219	8808.333333
1916.667256	8768.666667
1917.597959	8767.000000
1918.528327	8749.666667
1919.458360	8771.666667
1920.388060	8700.000000
1921.317426	8781.000000
1922.246457	8762.333333
1923.175156	8760.000000
1924.103520	8731.666667
1925.031552	8767.333333
1925.959250	8766.000000
1926.886615	8754.000000
1927.813647	8741.666667
1928.740346	8757.000000
1929.666713	8756.333333
1930.592748	8764.666667
1931.518450	8775.333333
1932.443820	8744.333333
1933.368858	8743.666667
1934.293564	8634.333333
1935.217939	8681.333333
1936.141982	8668.000000
1937.065694	8652.666667
1937.989074	8644.666667
1938.912124	8672.666667
1939.834842	8568.333333
1940.757230	8548.666667
1941.679287	8512.666667
1942.601014	8548.000000
1943.522411	8477.333333
1944.443477	8517.333333
1945.364214	8380.333333
1946.284621	8387.000000
1947.204698	8373.666667
1948.124445	8284.000000
1949.043863	8217.666667
1949.962952	8232.000000
1950.881712	8250.666667
1951.800143	8192.000000
1952.718245	8107.000000
1953.636019	8065.666667
1954.553464	8103.333333
1955.470581	7996.333333
1956.387369	7933.666667
1957.303830	8014.666667
1958.219963	7968.000000
1959.135768	8053.666667
1960.051246	7963.333333
1960.966396	7997.000000
1961.881219	7923.666667
1962.795715	7992.000000
1963.709883	8042.333333
1964.623726	8017.333333
1965.537241	7992.000000
1966.450430	8095.333333
1967.363293	8035.666667
1968.275829	8094.333333
1969.188040	9617.666667
1970.099924	9646.666667
1971.011483	8155.333333
1971.922716	8039.000000
1972.833624	8115.000000
1973.744206	8068.333333
1974.654464	8042.666667
1975.564396	8042.666667
1976.474004	8020.666667
1977.383286	8104.666667
1978.292245	8044.000000
1979.200878	8026.333333
1980.109188	8000.333333
1981.017174	8009.333333
1981.924835	7864.333333
1982.832173	7935.000000
1983.739187	7882.000000
1984.645878	7816.333333
1985.552245	7789.666667
1986.458289	7691.333333
1987.364010	7738.333333
1988.269408	7633.000000
1989.174484	7644.333333
1990.079236	7603.333333
1990.983667	7575.666667
1991.887775	7592.666667
1992.791561	7509.000000
1993.695024	7514.666667
1994.598166	7550.000000
1995.500986	7437.666667
1996.403485	7434.000000
1997.305662	7448.666667
1998.207518	7402.333333
1999.109053	7385.000000
