200.151048	45187.000000
201.758777	45089.666667
203.365815	44919.333333
204.972162	44948.666667
206.577820	44727.666667
208.182787	44864.000000
209.787065	44872.666667
211.390653	44768.666667
212.993553	44577.666667
214.595765	44710.666667
216.197289	44778.666667
217.798125	44603.000000
219.398274	44320.666667
220.997737	44433.333333
222.596513	44476.333333
224.194603	44287.333333
225.792008	44512.666667
227.388728	44393.000000
228.984763	44453.333333
230.580114	44229.333333
232.174781	44405.666667
233.768765	44339.333333
235.362065	44204.333333
236.954683	44200.333333
238.546619	44117.000000
240.137872	43969.666667
241.728445	44050.333333
243.318336	43803.333333
244.907546	43958.666667
246.496076	43767.666667
248.083926	43816.000000
249.671097	43530.000000
251.257589	43656.333333
252.843402	43605.000000
254.428536	43459.666667
256.012993	43201.333333
257.596772	43285.000000
259.179874	43101.000000
260.762300	43030.000000
262.344049	43114.000000
263.925122	43004.666667
265.505519	42938.333333
267.085241	42741.000000
268.664289	42816.333333
270.242662	43079.666667
271.820361	43070.666667
273.397387	43085.666667
274.973740	43060.333333
276.549419	43176.666667
278.124426	43203.666667
279.698762	43027.666667
281.272425	43174.333333
282.845417	43357.333333
284.417739	43182.333333
285.989390	43351.333333
287.560371	43303.666667
289.130682	43050.000000
290.700324	43152.666667
292.269297	43222.333333
293.837602	43235.333333
295.405238	43285.000000
296.972207	43166.000000
298.538508	43257.666667
300.104142	43115.666667
301.669110	43203.000000
303.233411	42938.000000
304.797047	42858.666667
306.360017	42693.000000
307.922322	42637.666667
309.483963	42536.666667
311.044939	42433.666667
312.605252	42367.666667
314.164900	42306.000000
315.723886	42162.333333
317.282209	42281.000000
318.839870	41977.000000
320.396868	42157.666667
321.953205	41865.666667
323.508881	41790.333333
325.063896	41764.666667
326.618251	42005.333333
328.171945	41848.666667
329.724980	41824.666667
331.277356	41884.666667
332.829072	41914.666667
334.380131	41818.333333
335.930530	41937.666667
337.480273	41835.000000
339.029357	42023.000000
340.577785	41686.000000
342.125556	41809.000000
343.672671	41900.333333
345.219130	41933.000000
346.764933	41815.333333
348.310081	41954.666667
349.854575	41848.000000
351.398414	41894.666667
352.941599	41747.333333
354.484130	41800.666667
356.026008	41887.333333
357.567234	41874.000000
359.107807	41712.000000
360.647727	41612.666667
362.186996	41754.666667
363.725614	41578.000000
365.263580	41397.333333
366.800896	41361.333333
368.337562	41091.333333
369.873578	41329.666667
371.408944	41388.000000
372.943661	41361.000000
374.477730	41295.000000
376.011150	41395.666667
377.543922	41092.666667
379.076046	41307.000000
380.607523	41059.000000
382.138353	41215.333333
383.668537	41093.666667
385.198075	41326.333333
386.726966	41214.000000
388.255213	41335.666667
389.782814	41165.666667
391.309770	41279.333333
392.836083	41107.333333
394.361751	41174.000000
395.886776	41031.333333
397.411157	41319.333333
398.934896	41281.000000
400.457992	41416.666667
401.980446	41298.333333
403.502258	41431.000000
405.023429	41377.666667
406.543959	41736.000000
408.063849	41521.000000
409.583098	41584.000000
411.101707	41498.666667
412.619677	41690.000000
414.137007	41628.666667
415.653699	41910.000000
417.169752	42117.666667
418.685167	42128.666667
420.199945	42252.333333
421.714085	42414.333333
423.227588	42566.666667
424.740454	42580.000000
426.252684	42845.333333
427.764279	42617.666667
429.275238	42635.333333
430.785561	42479.333333
432.295250	42545.333333
433.804304	42319.000000
435.312725	42115.666667
436.820511	42019.333333
438.327664	41796.666667
439.834185	41654.333333
441.340072	41523.666667
442.845327	41508.666667
444.349951	41445.666667
445.853942	41199.000000
447.357303	41358.000000
448.860033	41180.000000
450.362132	40977.666667
451.863601	40819.333333
453.364440	40822.666667
454.864650	40456.666667
456.364231	40567.333333
457.863183	40299.333333
459.361507	40237.666667
460.859203	39861.666667
462.356271	39914.000000
463.852712	39933.000000
465.348526	39955.333333
466.843714	39672.000000
468.338275	39499.333333
469.832210	39527.333333
471.325520	39573.333333
472.818205	39403.333333
474.310265	39430.000000
475.801700	39362.000000
477.292512	39206.333333
478.782700	39305.666667
480.272264	39091.333333
481.761205	39183.666667
483.249524	39012.333333
484.737221	39058.666667
486.224295	38966.333333
487.710748	39194.666667
489.196579	38670.666667
490.681790	38738.666667
492.166380	38696.000000
493.650350	38672.333333
495.133700	38725.333333
496.616431	38632.333333
498.098542	38589.000000
499.580035	38490.000000
501.060909	38605.333333
502.541165	38524.666667
504.020804	38600.333333
505.499825	38440.000000
506.978228	38447.000000
508.456016	38385.666667
509.933186	38207.333333
511.409741	38087.333333
512.885680	38273.666667
514.361004	38129.000000
515.835713	38124.333333
517.309807	38048.666667
518.783287	38176.333333
520.256153	38033.666667
521.728406	37839.000000
523.200045	38024.000000
524.671071	37865.666667
526.141485	37966.333333
527.611287	37868.333333
529.080476	37692.333333
530.549054	37749.666667
532.017021	37896.333333
533.484378	37821.333333
534.951123	37778.000000
536.417259	37556.666667
537.882785	37766.333333
539.347701	37634.000000
540.812008	37794.666667
542.275707	37433.000000
543.738797	37584.000000
545.201279	37499.000000
546.663153	37564.333333
548.124420	37465.333333
549.585080	37702.333333
551.045133	37496.666667
552.504579	37633.333333
553.963420	37654.666667
555.421655	37531.000000
556.879285	37719.666667
558.336309	37651.000000
559.792729	37705.666667
561.248545	37606.000000
562.703756	37688.000000
564.158364	37656.333333
565.612369	37788.000000
567.065770	37560.666667
568.518569	37819.000000
569.970766	37992.333333
571.422361	37954.333333
572.873354	37959.666667
574.323745	38145.666667
575.773536	38273.000000
577.222726	38282.000000
578.671316	38503.333333
580.119306	38377.666667
581.566696	38185.666667
583.013487	38127.666667
584.459679	38244.666667
585.905273	37946.333333
587.350268	38063.666667
588.794665	38103.666667
590.238465	37946.333333
591.681667	37796.333333
593.124272	37676.333333
594.566281	37562.333333
596.007694	37455.333333
597.448510	37213.000000
598.888731	37093.666667
600.328357	36947.666667
601.767388	36870.666667
603.205824	36827.333333
604.643666	36647.000000
606.080914	36728.333333
607.517568	36681.000000
608.953629	36666.000000
610.389097	36548.000000
611.823972	36503.000000
613.258255	36434.666667
614.691946	36190.333333
616.125046	36262.333333
617.557554	36173.666667
618.989471	36104.666667
620.420798	35844.666667
621.851534	35938.666667
623.281680	35557.666667
624.711237	35535.000000
626.140204	35327.333333
627.568582	35360.666667
628.996372	35153.666667
630.423573	35257.666667
631.850186	35193.000000
633.276211	35234.000000
634.701650	35149.000000
636.126501	34986.333333
637.550765	35126.333333
638.974443	34859.000000
640.397535	35072.333333
641.820041	35020.000000
643.241961	34944.000000
644.663297	34977.333333
646.084048	34617.333333
647.504214	34661.666667
648.923796	34793.000000
650.342795	34729.333333
651.761210	34625.000000
653.179041	34632.666667
654.596290	34354.333333
656.012957	34593.000000
657.429041	34429.666667
658.844543	34430.000000
660.259464	34433.333333
661.673804	34265.000000
663.087563	34253.666667
664.500741	34332.333333
665.913339	34356.666667
667.325357	34334.666667
668.736795	34146.666667
670.147654	34221.333333
671.557934	34316.333333
672.967636	34101.000000
674.376759	34152.333333
675.785304	34115.666667
677.193271	33949.666667
678.600661	33919.666667
680.007474	33817.333333
681.413711	33824.000000
682.819370	33732.666667
684.224454	33680.666667
685.628962	33645.666667
687.032895	33814.666667
688.436252	33661.333333
689.839034	33602.666667
691.241242	33341.000000
692.642876	33500.000000
694.043936	33401.000000
695.444422	33301.666667
696.844336	33198.666667
698.243676	33383.333333
699.642443	33332.000000
701.040639	33149.666667
702.438262	33208.666667
703.835313	33312.333333
705.231794	33297.666667
706.627703	33266.666667
708.023041	33134.666667
709.417810	33176.000000
710.812008	33131.000000
712.205636	33116.666667
713.598694	32793.333333
714.991184	33002.333333
716.383105	32902.000000
717.774457	32916.333333
719.165241	32927.666667
720.555457	32698.333333
721.945105	32711.333333
723.334187	32759.333333
724.722701	32883.000000
726.110648	32763.333333
727.498030	32729.666667
728.884845	32668.666667
730.271094	32591.666667
731.656778	32623.666667
733.041897	32595.666667
734.426451	32641.333333
735.810441	32440.333333
737.193866	32415.666667
738.576728	32501.666667
739.959026	32559.333333
741.340760	32518.666667
742.721932	32561.666667
744.102541	32451.666667
745.482588	32550.333333
746.862073	32364.000000
748.240996	32368.333333
749.619358	32149.666667
750.997158	32158.000000
752.374398	32469.000000
753.751077	32234.666667
755.127197	32308.333333
756.502756	32133.000000
757.877756	32082.666667
759.252196	32088.666667
760.626078	32197.000000
761.999400	32098.333333
763.372165	31899.333333
764.744371	32064.000000
766.116020	31936.000000
767.487111	31864.333333
768.857646	31888.666667
770.227623	31734.666667
771.597044	31732.333333
772.965908	31740.000000
774.334217	31748.666667
775.701970	31497.333333
777.069168	31445.000000
778.435811	31435.000000
779.801899	31590.333333
781.167433	31447.666667
782.532412	31460.000000
783.896838	31267.666667
785.260710	31451.666667
786.624029	31096.333333
787.986796	31180.666667
789.349009	31055.000000
790.710671	31143.000000
792.071780	31055.000000
793.432338	30963.666667
794.792344	31044.666667
796.151799	30969.666667
797.510704	30918.333333
798.869058	30808.333333
800.226862	30885.333333
801.584116	30928.000000
802.940820	30846.666667
804.296975	30750.333333
805.652581	30761.000000
807.007638	30844.333333
808.362147	30836.333333
809.716108	30808.333333
811.069521	30735.000000
812.422387	30771.666667
813.774705	30734.000000
815.126476	30579.000000
816.477701	30733.000000
817.828380	30571.333333
819.178512	30533.333333
820.528099	30549.666667
821.877140	30477.666667
823.225637	30402.666667
824.573588	30431.000000
825.920995	30493.000000
827.267857	30242.666667
828.614176	30371.666667
829.959951	30384.333333
831.305183	30312.333333
832.649871	30369.666667
833.994017	30210.333333
835.337620	30412.666667
836.680681	30279.333333
838.023201	30238.666667
839.365178	30044.666667
840.706614	30118.333333
842.047510	30136.000000
843.387864	30070.666667
844.727678	30203.666667
846.066952	30155.666667
847.405687	30138.666667
848.743881	30129.000000
850.081537	30094.333333
851.418653	30322.000000
852.755231	30069.000000
854.091270	30126.333333
855.426771	30045.666667
856.761735	30084.333333
858.096160	29994.333333
859.430049	29795.666667
860.763401	29903.333333
862.096216	29793.000000
863.428495	29833.333333
864.760237	29763.333333
866.091444	29551.666667
867.422115	29670.333333
868.752252	29615.666667
870.081853	29605.333333
871.410919	29637.333333
872.739452	29545.333333
874.067450	29460.666667
875.394914	29371.000000
876.721845	29382.333333
878.048243	29209.000000
879.374108	29362.666667
880.699440	29196.666667
882.024240	29155.000000
883.348508	29061.333333
884.672244	29157.333333
885.995449	29130.000000
887.318122	29022.666667
888.640265	28951.000000
889.961877	28948.333333
891.282959	28863.666667
892.603510	28694.000000
893.923532	28825.333333
895.243024	28606.666667
896.561987	28497.000000
897.880422	28664.000000
899.198327	28584.333333
900.515705	28539.000000
901.832554	28581.666667
903.148875	28427.000000
904.464669	28310.000000
905.779936	28307.666667
907.094676	28476.000000
908.408889	28284.000000
909.722576	28451.000000
911.035737	28368.666667
912.348371	28368.000000
913.660481	28585.000000
914.972065	28528.666667
916.283124	28635.333333
917.593659	28533.000000
918.903669	28677.333333
920.213155	28510.666667
921.522117	28626.666667
922.830556	28560.666667
924.138471	28352.000000
925.445864	28468.000000
926.752733	28460.666667
928.059081	28499.000000
929.364906	28381.000000
930.670209	28473.666667
931.974991	28650.333333
933.279251	28669.000000
934.582990	28788.333333
935.886209	28804.333333
937.188907	28885.333333
938.491085	29066.333333
939.792743	29152.666667
941.093881	29402.000000
942.394500	29596.666667
943.694600	30091.333333
944.994181	30092.000000
946.293243	30594.666667
947.591787	31129.000000
948.889813	31556.666667
950.187322	32209.666667
951.484313	33029.333333
952.780787	33694.666667
954.076744	34640.000000
955.372184	35307.000000
956.667108	36017.333333
957.961516	36334.000000
959.255409	36455.333333
960.548785	35966.666667
961.841647	35319.333333
963.133993	34466.333333
964.425825	33495.000000
965.717142	32439.000000
967.007946	31304.666667
968.298235	30397.333333
969.588011	29618.666667
970.877273	29055.000000
972.166023	28596.666667
973.454259	27964.000000
974.741984	27714.666667
976.029196	27631.333333
977.315895	27310.333333
978.602084	27188.666667
979.887761	26991.333333
981.172926	26851.666667
982.457581	26803.000000
983.741725	26799.333333
985.025359	26622.000000
986.308483	26532.000000
987.591097	26540.000000
988.873202	26254.333333
990.154797	26315.333333
991.435883	26308.666667
992.716461	26304.666667
993.996530	26407.000000
995.276091	26336.333333
996.555144	26357.666667
997.833690	26319.000000
999.111728	26311.333333
1000.389259	26420.000000
1001.666283	26253.333333
1002.942800	26449.666667
1004.218812	26437.333333
1005.494317	26243.666667
1006.769317	26169.666667
1008.043811	26324.666667
1009.317799	26198.666667
1010.591283	26124.000000
1011.864263	26165.000000
1013.136737	26205.666667
1014.408708	26057.333333
1015.680175	26190.333333
1016.951138	26027.000000
1018.221598	26280.666667
1019.491554	26106.333333
1020.761008	26124.666667
1022.029959	26126.000000
1023.298408	26162.000000
1024.566355	26156.666667
1025.833800	26126.333333
1027.100744	26095.000000
1028.367187	26196.666667
1029.633128	26074.666667
1030.898569	26090.000000
1032.163509	26022.000000
1033.427949	26129.666667
1034.691890	25977.000000
1035.955330	26053.000000
1037.218271	26077.666667
1038.480714	26070.333333
1039.742657	26087.333333
1041.004101	26032.000000
1042.265048	25938.000000
1043.525496	26071.333333
1044.785446	26066.666667
1046.044899	26134.000000
1047.303855	26041.333333
1048.562313	25981.000000
1049.820275	25851.333333
1051.077740	25846.333333
1052.334709	25775.666667
1053.591182	25806.333333
1054.847160	25665.000000
1056.102641	25759.333333
1057.357628	25603.333333
1058.612120	25575.333333
1059.866117	25630.666667
1061.119619	25741.333333
1062.372628	25634.333333
1063.625142	25786.000000
1064.877163	25790.333333
1066.128691	25753.666667
1067.379725	25703.666667
1068.630267	25752.333333
1069.880316	25782.333333
1071.129872	25853.666667
1072.378937	25682.000000
1073.627509	25448.000000
1074.875590	25464.666667
1076.123180	25312.000000
1077.370279	25143.666667
1078.616887	24987.000000
1079.863004	24966.000000
1081.108631	24807.000000
1082.353768	24711.666667
1083.598415	24709.000000
1084.842573	24454.333333
1086.086241	24473.333333
1087.329421	24366.333333
1088.572111	24231.333333
1089.814314	24243.666667
1091.056028	24146.333333
1092.297253	23953.000000
1093.537992	24019.000000
1094.778242	23894.666667
1096.018006	24010.666667
1097.257282	23893.000000
1098.496072	23881.000000
1099.734376	23820.000000
1100.972193	23709.666667
1102.209524	23718.000000
1103.446370	23717.333333
1104.682730	23722.333333
1105.918604	23674.000000
1107.153994	23584.333333
1108.388900	23495.666667
1109.623320	23421.333333
1110.857257	23401.333333
1112.090710	23376.666667
1113.323679	23357.000000
1114.556164	23258.666667
1115.788167	23208.666667
1117.019686	23115.333333
1118.250723	23147.000000
1119.481278	22976.000000
1120.711350	23208.000000
1121.940940	23180.000000
1123.170049	23029.333333
1124.398676	23033.333333
1125.626823	22834.000000
1126.854488	23074.333333
1128.081672	22943.333333
1129.308376	22895.333333
1130.534600	22901.000000
1131.760345	22781.000000
1132.985609	22870.333333
1134.210394	22870.666667
1135.434700	22780.333333
1136.658527	22773.333333
1137.881875	22814.333333
1139.104745	22766.000000
1140.327136	22695.333333
1141.549050	22692.333333
1142.770486	22785.000000
1143.991445	22652.333333
1145.211926	22696.333333
1146.431931	22683.666667
1147.651459	22551.666667
1148.870510	22571.333333
1150.089086	22571.333333
1151.307185	22524.666667
1152.524808	22536.666667
1153.741957	22429.333333
1154.958630	22424.333333
1156.174828	22349.666667
1157.390551	22327.333333
1158.605800	22442.333333
1159.820574	22298.666667
1161.034875	22329.333333
1162.248702	22380.666667
1163.462055	22276.000000
1164.674936	22279.666667
1165.887343	22254.666667
1167.099277	22285.333333
1168.310739	22183.000000
1169.521729	22126.666667
1170.732247	22239.666667
1171.942293	22148.666667
1173.151867	22193.333333
1174.360970	22306.333333
1175.569602	21983.333333
1176.777764	22173.666667
1177.985454	22167.000000
1179.192675	22092.000000
1180.399425	21892.000000
1181.605706	21936.000000
1182.811517	21850.666667
1184.016859	23283.666667
1185.221731	21873.000000
1186.426135	21661.333333
1187.630070	21676.666667
1188.833537	21672.000000
1190.036535	21687.000000
1191.239066	21530.333333
1192.441129	21489.666667
1193.642725	21416.666667
1194.843853	21535.666667
1196.044515	21498.666667
1197.244710	21529.666667
1198.444438	21563.666667
1199.643701	21502.000000
1200.842497	21451.333333
1202.040827	21572.000000
1203.238693	21477.333333
1204.436092	21446.666667
1205.633027	21327.666667
1206.829497	21180.666667
1208.025503	21352.333333
1209.221044	21273.000000
1210.416122	21274.666667
1211.610735	21217.666667
1212.804885	21205.333333
1213.998572	21054.333333
1215.191795	21006.666667
1216.384556	21111.000000
1217.576854	20990.333333
1218.768689	20980.000000
1219.960063	20905.666667
1221.150974	20781.666667
1222.341424	20797.666667
1223.531413	20866.000000
1224.720940	20823.666667
1225.910006	20854.666667
1227.098612	20915.000000
1228.286757	20822.000000
1229.474442	20918.666667
1230.661667	20759.666667
1231.848432	20911.333333
1233.034738	20949.000000
1234.220584	20957.000000
1235.405971	21039.666667
1236.590900	20920.666667
1237.775369	21000.000000
1238.959381	21098.333333
1240.142934	21001.666667
1241.326029	21239.333333
1242.508667	20910.333333
1243.690848	21020.000000
1244.872571	21168.333333
1246.053837	21136.333333
1247.234646	20812.333333
1248.414999	21015.666667
1249.594896	20858.666667
1250.774337	20747.333333
1251.953322	20819.000000
1253.131851	20792.666667
1254.309925	20677.666667
1255.487544	20612.000000
1256.664708	20599.000000
1257.841417	20539.333333
1259.017673	20596.000000
1260.193473	20607.000000
1261.368820	20573.666667
1262.543714	20536.000000
1263.718154	20642.333333
1264.892140	20602.666667
1266.065674	20650.333333
1267.238755	20634.333333
1268.411383	20496.333333
1269.583559	20674.333333
1270.755283	20631.333333
1271.926555	20645.666667
1273.097375	20587.333333
1274.267744	20597.666667
1275.437662	20468.666667
1276.607129	20520.333333
1277.776145	20370.333333
1278.944711	20419.666667
1280.112827	20313.000000
1281.280492	20376.000000
1282.447708	20312.000000
1283.614474	20288.000000
1284.780791	20138.000000
1285.946659	20106.666667
1287.112078	20088.000000
1288.277048	20058.333333
1289.441570	19972.666667
1290.605644	19958.666667
1291.769270	19897.333333
1292.932448	19836.666667
1294.095178	19808.666667
1295.257461	19745.333333
1296.419298	19625.666667
1297.580687	19690.000000
1298.741630	19489.333333
1299.902126	19526.333333
1301.062177	19610.666667
1302.221781	19512.333333
1303.380940	19612.666667
1304.539653	19672.666667
1305.697921	19479.000000
1306.855744	19482.666667
1308.013123	19460.333333
1309.170056	19529.333333
1310.326546	19497.000000
1311.482591	19516.000000
1312.638193	19499.333333
1313.793350	19562.000000
1314.948065	19421.000000
1316.102336	19391.666667
1317.256164	19492.333333
1318.409550	19329.000000
1319.562493	19348.333333
1320.714993	19296.666667
1321.867052	19225.666667
1323.018668	19059.666667
1324.169843	19032.333333
1325.320577	19006.333333
1326.470870	18888.000000
1327.620721	18848.666667
1328.770132	18914.333333
1329.919102	18826.666667
1331.067632	18939.333333
1332.215722	18852.000000
1333.363372	18708.666667
1334.510582	18854.666667
1335.657353	18791.000000
1336.803685	18911.000000
1337.949578	18815.666667
1339.095032	18887.666667
1340.240048	18777.666667
1341.384625	18824.000000
1342.528764	18697.333333
1343.672466	18850.000000
1344.815729	18883.666667
1345.958556	18691.000000
1347.100945	18813.333333
1348.242897	18736.666667
1349.384413	18675.666667
1350.525492	18679.000000
1351.666134	18605.666667
1352.806341	18472.000000
1353.946111	18489.000000
1355.085446	18497.666667
1356.224346	18501.333333
1357.362810	18430.333333
1358.500840	18463.333333
1359.638434	18354.666667
1360.775594	18316.000000
1361.912320	18282.000000
1363.048612	18335.333333
1364.184469	18123.666667
1365.319893	18154.000000
1366.454884	18217.666667
1367.589441	18221.666667
1368.723566	18038.666667
1369.857257	18141.000000
1370.990516	18025.666667
1372.123343	18245.000000
1373.255737	18240.000000
1374.387699	18065.333333
1375.519230	18206.333333
1376.650329	18197.000000
1377.780997	18124.666667
1378.911234	18118.000000
1380.041040	18039.666667
1381.170416	18187.333333
1382.299361	18156.666667
1383.427875	18038.000000
1384.555960	18144.000000
1385.683615	17961.666667
1386.810841	17971.666667
1387.937637	17945.000000
1389.064004	17981.666667
1390.189942	18024.666667
1391.315451	17867.666667
1392.440532	17822.666667
1393.565185	17755.666667
1394.689409	17794.333333
1395.813206	17773.333333
1396.936575	17795.666667
1398.059517	17671.666667
1399.182032	17722.666667
1400.304119	17699.666667
1401.425780	17628.000000
1402.547014	17560.000000
1403.667822	17567.000000
1404.788204	17602.333333
1405.908160	17588.333333
1407.027690	17602.000000
1408.146795	17618.000000
1409.265474	17445.333333
1410.383728	17531.666667
1411.501558	17606.333333
1412.618963	17503.333333
1413.735943	17545.333333
1414.852499	17484.000000
1415.968632	17496.000000
1417.084340	17451.333333
1418.199625	17672.000000
1419.314486	17484.333333
1420.428925	17512.333333
1421.542940	17521.333333
1422.656533	17429.333333
1423.769703	17297.333333
1424.882451	17431.333333
1425.994777	17436.333333
1427.106680	17334.333333
1428.218163	17199.333333
1429.329223	17266.333333
1430.439863	17198.333333
1431.550081	17085.666667
1432.659879	17104.000000
1433.769256	17229.000000
1434.878212	17135.333333
1435.986749	17094.000000
1437.094865	17096.666667
1438.202562	17085.666667
1439.309839	16956.666667
1440.416696	16995.000000
1441.523135	17082.333333
1442.629154	17044.000000
1443.734755	17142.333333
1444.839937	17066.000000
1445.944701	17199.666667
1447.049047	17161.000000
1448.152975	17232.000000
1449.256485	17145.000000
1450.359577	17185.666667
1451.462253	17205.000000
1452.564511	17154.000000
1453.666352	17153.000000
1454.767777	17082.333333
1455.868785	17067.000000
1456.969377	16994.000000
1458.069553	16964.000000
1459.169313	16929.000000
1460.268658	16869.000000
1461.367587	16877.000000
1462.466101	16650.000000
1463.564200	16684.000000
1464.661884	16688.666667
1465.759153	16613.666667
1466.856008	16593.333333
1467.952449	16438.666667
1469.048476	16414.333333
1470.144089	16309.333333
1471.239288	16258.333333
1472.334074	16128.666667
1473.428447	16004.000000
1474.522407	15972.000000
1475.615955	16066.000000
1476.709089	15972.000000
1477.801812	16012.666667
1478.894122	15937.666667
1479.986020	15960.666667
1481.077506	15875.666667
1482.168581	15781.666667
1483.259245	15789.000000
1484.349498	15858.666667
1485.439339	15770.666667
1486.528770	15892.000000
1487.617790	15757.666667
1488.706400	15656.000000
1489.794600	15692.666667
1490.882390	15826.000000
1491.969771	15697.333333
1493.056742	15769.333333
1494.143303	15712.666667
1495.229456	15685.666667
1496.315199	15741.333333
1497.400534	15568.333333
1498.485460	15529.333333
1499.569978	15512.333333
1500.654088	15462.666667
1501.737790	15404.666667
1502.821085	15465.000000
1503.903972	15287.666667
1504.986451	15251.666667
1506.068524	15381.333333
1507.150189	15225.666667
1508.231448	15115.666667
1509.312301	15177.333333
1510.392747	15211.666667
1511.472787	15094.000000
1512.552422	14975.333333
1513.631650	15001.666667
1514.710473	15016.333333
1515.788891	15101.333333
1516.866904	15045.666667
1517.944512	15031.333333
1519.021715	15007.666667
1520.098513	14978.000000
1521.174908	15003.000000
1522.250898	14959.333333
1523.326485	15028.666667
1524.401667	15045.666667
1525.476447	14893.333333
1526.550823	14973.666667
1527.624796	15023.666667
1528.698365	14936.333333
1529.771533	14961.000000
1530.844298	14963.000000
1531.916660	14865.666667
1532.988620	14985.000000
1534.060179	14917.333333
1535.131336	14902.000000
1536.202091	14901.666667
1537.272445	14867.666667
1538.342398	14832.000000
1539.411950	14751.666667
1540.481101	14598.333333
1541.549851	14546.000000
1542.618202	14666.333333
1543.686152	14583.333333
1544.753702	14572.000000
1545.820853	14580.333333
1546.887604	14470.000000
1547.953955	14367.000000
1549.019908	14428.333333
1550.085461	14279.333333
1551.150616	14358.666667
1552.215372	14259.666667
1553.279730	14299.666667
1554.343690	14298.666667
1555.407252	14190.666667
1556.470415	14262.000000
1557.533182	14317.666667
1558.595551	14174.333333
1559.657522	14168.333333
1560.719097	14148.000000
1561.780275	14184.333333
1562.841056	14173.666667
1563.901441	14196.666667
1564.961429	14214.000000
1566.021022	14193.000000
1567.080219	14173.000000
1568.139020	14180.333333
1569.197425	14165.666667
1570.255436	14007.666667
1571.313051	14128.333333
1572.370271	14074.333333
1573.427097	14129.333333
1574.483528	14060.333333
1575.539565	13994.000000
1576.595208	13994.666667
1577.650457	13924.000000
1578.705312	13905.333333
1579.759774	13786.333333
1580.813842	13880.666667
1581.867517	13774.000000
1582.920799	13721.333333
1583.973689	13695.333333
1585.026186	13575.666667
1586.078290	13663.666667
1587.130002	13661.000000
1588.181323	13572.333333
1589.232251	13595.333333
1590.282788	13522.000000
1591.332933	13462.333333
1592.382688	13475.666667
1593.432051	13466.000000
1594.481023	13510.666667
1595.529605	13433.333333
1596.577796	13498.666667
1597.625597	13413.666667
1598.673007	13539.333333
1599.720028	13524.000000
1600.766660	13486.666667
1601.812901	13538.333333
1602.858753	13404.666667
1603.904217	13475.666667
1604.949291	13549.000000
1605.993976	13553.666667
1607.038273	13468.666667
1608.082182	13494.333333
1609.125702	13450.333333
1610.168834	13496.000000
1611.211579	13446.000000
1612.253935	13313.000000
1613.295905	13326.666667
1614.337487	13364.000000
1615.378682	13233.000000
1616.419490	13215.333333
1617.459912	13173.000000
1618.499946	13175.000000
1619.539595	13140.000000
1620.578858	13219.666667
1621.617734	13051.333333
1622.656225	13116.333333
1623.694330	13016.000000
1624.732050	12935.000000
1625.769385	12946.000000
1626.806334	12996.666667
1627.842899	12917.000000
1628.879079	12893.666667
1629.914875	12988.000000
1630.950286	12836.666667
1631.985314	12798.666667
1633.019957	12853.666667
1634.054217	12874.666667
1635.088093	12919.000000
1636.121586	12921.333333
1637.154696	12985.666667
1638.187423	12878.333333
1639.219767	13034.333333
1640.251728	12939.666667
1641.283307	13017.333333
1642.314504	12871.000000
1643.345319	12955.000000
1644.375751	12901.333333
1645.405803	12941.333333
1646.435472	12861.666667
1647.464761	12925.333333
1648.493668	12835.666667
1649.522194	12838.000000
1650.550340	12744.333333
1651.578105	12757.666667
1652.605490	12691.000000
1653.632494	12765.666667
1654.659119	12671.333333
1655.685363	12687.000000
1656.711228	12629.000000
1657.736714	12628.666667
1658.761820	12470.666667
1659.786547	12478.666667
1660.810895	12384.000000
1661.834865	12430.666667
1662.858456	12352.666667
1663.881668	12348.333333
1664.904503	12390.666667
1665.926959	12250.333333
1666.949038	12266.333333
1667.970739	12172.333333
1668.992062	12112.666667
1670.013008	12126.333333
1671.033577	12086.000000
1672.053770	12018.000000
1673.073585	12110.333333
1674.093024	12033.000000
1675.112086	12104.333333
1676.130773	12077.333333
1677.149083	11977.333333
1678.167017	12042.333333
1679.184576	11997.000000
1680.201760	12092.333333
1681.218568	12036.000000
1682.235001	11994.333333
1683.251059	12000.333333
1684.266742	11941.333333
1685.282051	12025.000000
1686.296985	11968.000000
1687.311546	11981.000000
1688.325732	11863.000000
1689.339544	11879.000000
1690.352983	11791.666667
1691.366048	11701.333333
1692.378740	11696.666667
1693.391058	11610.333333
1694.403004	11506.000000
1695.414577	11600.666667
1696.425778	11441.333333
1697.436606	11484.333333
1698.447061	11397.000000
1699.457145	11371.000000
1700.466857	11272.000000
1701.476197	11280.666667
1702.485166	11289.333333
1703.493763	11239.666667
1704.501989	11150.333333
1705.509844	11095.333333
1706.517328	11071.333333
1707.524442	11140.666667
1708.531185	11010.666667
1709.537558	11067.666667
1710.543561	10982.000000
1711.549194	11033.666667
1712.554457	10906.666667
1713.559351	11025.333333
1714.563875	11004.333333
1715.568030	10968.000000
1716.571816	10882.333333
1717.575233	10985.333333
1718.578282	11005.333333
1719.580962	10946.666667
1720.583273	11101.000000
1721.585217	10985.666667
1722.586792	11064.666667
1723.588000	11015.333333
1724.588840	11019.666667
1725.589312	11062.666667
1726.589418	11082.333333
1727.589156	10996.000000
1728.588527	11022.666667
1729.587532	10992.000000
1730.586170	11003.000000
1731.584441	11039.666667
1732.582346	11009.333333
1733.579886	10915.000000
1734.577059	10942.333333
1735.573867	10919.333333
1736.570309	10796.333333
1737.566386	10788.333333
1738.562097	10744.333333
1739.557444	10686.333333
1740.552426	10670.333333
1741.547043	10619.000000
1742.541295	10559.666667
1743.535184	10500.000000
1744.528708	10529.666667
1745.521868	10450.666667
1746.514664	10479.333333
1747.507097	10382.666667
1748.499166	10467.333333
1749.490873	10323.000000
1750.482216	10359.666667
1751.473196	10357.333333
1752.463813	10305.000000
1753.454068	10348.666667
1754.443960	10312.000000
1755.433490	10274.000000
1756.422658	10227.000000
1757.411464	10289.333333
1758.399908	10265.333333
1759.387991	10254.000000
1760.375713	10259.333333
1761.363073	10207.666667
1762.350072	10232.666667
1763.336711	10157.000000
1764.322988	10216.666667
1765.308905	10131.666667
1766.294462	10225.000000
1767.279659	10093.000000
1768.264496	10106.666667
1769.248972	10051.000000
1770.233089	10137.666667
1771.216847	10041.000000
1772.200245	9979.000000
1773.183284	9967.666667
1774.165965	9935.000000
1775.148286	9911.000000
1776.130249	9971.000000
1777.111853	9819.333333
1778.093099	9742.666667
1779.073987	9751.333333
1780.054517	9666.333333
1781.034689	9547.000000
1782.014503	9592.000000
1782.993960	9566.666667
1783.973060	9412.666667
1784.951802	9424.000000
1785.930188	9369.000000
1786.908217	9375.000000
1787.885889	9365.333333
1788.863205	9310.666667
1789.840164	9347.333333
1790.816768	9174.666667
1791.793015	9244.666667
1792.768907	9183.666667
1793.744443	9217.666667
1794.719624	9157.333333
1795.694449	9273.666667
1796.668919	9236.000000
1797.643035	9199.666667
1798.616795	9296.000000
1799.590201	9262.000000
1800.563253	9260.666667
1801.535950	9283.666667
1802.508294	9234.333333
1803.480283	9334.666667
1804.451919	9299.666667
1805.423201	9253.333333
1806.394129	9321.666667
1807.364705	9283.666667
1808.334927	9280.000000
1809.304796	9325.333333
1810.274313	9215.000000
1811.243477	9154.333333
1812.212288	9182.666667
1813.180747	9208.000000
1814.148855	9151.666667
1815.116610	9117.666667
1816.084013	9175.000000
1817.051065	9059.333333
1818.017766	9083.000000
1818.984115	8996.666667
1819.950113	9060.333333
1820.915760	9053.666667
1821.881057	8964.000000
1822.846003	9022.666667
1823.810598	8936.333333
1824.774843	9029.666667
1825.738738	8913.333333
1826.702283	8866.333333
1827.665479	8863.666667
1828.628324	8821.666667
1829.590821	8927.000000
1830.552968	8767.000000
1831.514765	8756.000000
1832.476214	8775.666667
1833.437314	8803.333333
1834.398066	8686.000000
1835.358469	8717.666667
1836.318524	8701.333333
1837.278230	8718.000000
1838.237589	8687.333333
1839.196600	8707.000000
1840.155263	8650.666667
1841.113578	8676.333333
1842.071547	8724.666667
1843.029168	8748.666667
1843.986442	8743.333333
1844.943369	8724.666667
1845.899950	8734.000000
1846.856184	8792.000000
1847.812072	8697.666667
1848.767614	8628.666667
1849.722809	8742.000000
1850.677659	8750.333333
1851.632163	8686.666667
1852.586322	8654.333333
1853.540135	8711.000000
1854.493603	8637.000000
1855.446726	8653.000000
1856.399504	8660.000000
1857.351937	8616.000000
1858.304026	8529.666667
1859.255770	8517.666667
1860.207170	8472.666667
1861.158227	8494.333333
1862.108939	8456.666667
1863.059307	8449.666667
1864.009332	8365.333333
1864.959013	8273.000000
1865.908351	8302.333333
1866.857346	8305.000000
1867.805998	8280.000000
1868.754307	8214.333333
1869.702274	8199.000000
1870.649898	8169.000000
1871.597180	8100.000000
1872.544119	8063.666667
1873.490717	8031.333333
1874.436973	7964.666667
1875.382887	8048.333333
1876.328459	7997.000000
1877.273691	7953.333333
1878.218581	7961.666667
1879.163130	7971.666667
1880.107338	7995.333333
1881.051205	7954.000000
1881.994732	8032.000000
1882.937919	8003.333333
1883.880765	8029.666667
1884.823271	8032.666667
1885.765437	8086.333333
1886.707264	8000.000000
1887.648750	8005.000000
1888.589898	8085.333333
1889.530706	8023.666667
1890.471175	8012.666667
1891.411305	8018.000000
1892.351096	8128.333333
1893.290548	8009.333333
1894.229662	8005.666667
1895.168438	7988.666667
1896.106876	8076.333333
1897.044975	7927.333333
1897.982737	7973.000000
1898.920160	8041.333333
1899.857247	7983.333333
1900.793996	7923.000000
1901.730407	7926.000000
1902.666482	7868.333333
1903.602219	7758.000000
1904.537620	7806.000000
1905.472685	7695.333333
1906.407412	7677.666667
1907.341804	7691.666667
1908.275859	7578.000000
1909.209579	7582.000000
1910.142962	7572.666667
1911.076010	7573.333333
1912.008722	7463.333333
1912.941099	7461.666667
1913.873141	7405.000000
1914.804848	7337.666667
1915.736219	7378.000000
1916.667256	7349.666667
1917.597959	7333.000000
1918.528327	7253.000000
1919.458360	7269.666667
1920.388060	7319.333333
1921.317426	7262.666667
1922.246457	7286.000000
1923.175156	7202.666667
1924.103520	7283.000000
1925.031552	7312.000000
1925.959250	7257.000000
1926.886615	7277.333333
1927.813647	7267.000000
1928.740346	7273.333333
1929.666713	7329.666667
1930.592748	7236.000000
1931.518450	7245.000000
1932.443820	7244.333333
1933.368858	7252.333333
1934.293564	7233.666667
1935.217939	7227.666667
1936.141982	7219.666667
1937.065694	7159.666667
1937.989074	7155.333333
1938.912124	7192.666667
1939.834842	7152.666667
1940.757230	7138.666667
1941.679287	7065.666667
1942.601014	7053.333333
1943.522411	7079.666667
1944.443477	7049.666667
1945.364214	6966.333333
1946.284621	6968.666667
1947.204698	6962.333333
1948.124445	6947.333333
1949.043863	6851.666667
1949.962952	6775.000000
1950.881712	6830.333333
1951.800143	6799.000000
1952.718245	6719.000000
1953.636019	6750.000000
1954.553464	6716.666667
1955.470581	6679.000000
1956.387369	6661.333333
1957.303830	6647.000000
1958.219963	6618.333333
1959.135768	6628.333333
1960.051246	6667.666667
1960.966396	6667.000000
1961.881219	6684.000000
1962.795715	6662.333333
1963.709883	6638.333333
1964.623726	6639.000000
1965.537241	6726.000000
1966.450430	6731.333333
1967.363293	6696.000000
1968.275829	6763.333333
1969.188040	6684.666667
1970.099924	6748.333333
1971.011483	6769.666667
1971.922716	6774.000000
1972.833624	6736.666667
1973.744206	6707.333333
1974.654464	6729.000000
1975.564396	6737.000000
1976.474004	6703.333333
1977.383286	6660.000000
1978.292245	6623.333333
1979.200878	6701.666667
1980.109188	6653.666667
1981.017174	6618.000000
1981.924835	6597.333333
1982.832173	6571.000000
1983.739187	6516.666667
1984.645878	6516.333333
1985.552245	6416.333333
1986.458289	6442.333333
1987.364010	6382.666667
1988.269408	6387.666667
1989.174484	6349.666667
1990.079236	6251.000000
1990.983667	6293.333333
1991.887775	6278.666667
1992.791561	6226.000000
1993.695024	6250.000000
1994.598166	6233.666667
1995.500986	6148.333333
1996.403485	6181.333333
1997.305662	6183.000000
1998.207518	6206.000000
1999.109053	6198.666667
