200.151048	36950.666667
201.758777	37012.000000
203.365815	36915.000000
204.972162	36975.000000
206.577820	36937.333333
208.182787	36929.000000
209.787065	36751.666667
211.390653	36663.000000
212.993553	36686.000000
214.595765	36763.666667
216.197289	36640.666667
217.798125	36535.666667
219.398274	36611.666667
220.997737	36537.333333
222.596513	36579.000000
224.194603	36545.333333
225.792008	36460.666667
227.388728	36698.666667
228.984763	36493.000000
230.580114	36519.666667
232.174781	36612.666667
233.768765	36343.000000
235.362065	36594.666667
236.954683	36383.333333
238.546619	36326.666667
240.137872	36308.666667
241.728445	36222.666667
243.318336	36121.333333
244.907546	36058.666667
246.496076	35968.000000
248.083926	35932.333333
249.671097	35771.666667
251.257589	35804.333333
252.843402	35785.000000
254.428536	35627.666667
256.012993	35511.666667
257.596772	35561.666667
259.179874	35343.000000
260.762300	35586.333333
262.344049	35515.000000
263.925122	35503.666667
265.505519	35348.666667
267.085241	35366.000000
268.664289	35364.000000
270.242662	35319.666667
271.820361	35314.666667
273.397387	35250.333333
274.973740	35291.666667
276.549419	35500.333333
278.124426	35495.333333
279.698762	35571.333333
281.272425	35388.000000
282.845417	35542.000000
284.417739	35535.666667
285.989390	35547.333333
287.560371	35525.000000
289.130682	35755.333333
290.700324	35654.333333
292.269297	35373.333333
293.837602	35500.333333
295.405238	35522.666667
296.972207	35344.333333
298.538508	35407.666667
300.104142	35366.666667
301.669110	35259.666667
303.233411	35297.333333
304.797047	35083.000000
306.360017	35151.000000
307.922322	35061.666667
309.483963	34996.000000
311.044939	34914.333333
312.605252	34806.333333
314.164900	34620.000000
315.723886	34670.333333
317.282209	34424.333333
318.839870	34373.000000
320.396868	34394.000000
321.953205	34439.666667
323.508881	34278.000000
325.063896	34376.000000
326.618251	34393.000000
328.171945	34283.333333
329.724980	34255.666667
331.277356	34323.666667
332.829072	34291.666667
334.380131	34288.333333
335.930530	34254.333333
337.480273	34211.333333
339.029357	34332.000000
340.577785	34179.333333
342.125556	34371.333333
343.672671	34449.333333
345.219130	34295.000000
346.764933	34352.666667
348.310081	34232.000000
349.854575	34297.333333
351.398414	34342.333333
352.941599	34234.000000
354.484130	34218.666667
356.026008	34277.000000
357.567234	34099.000000
359.107807	34089.666667
360.647727	34145.666667
362.186996	33937.666667
363.725614	34183.000000
365.263580	33945.666667
366.800896	34047.000000
368.337562	33839.000000
369.873578	33967.000000
371.408944	33938.333333
372.943661	34002.666667
374.477730	33888.333333
376.011150	34000.333333
377.543922	33835.000000
379.076046	33884.000000
380.607523	33864.000000
382.138353	33682.333333
383.668537	33902.000000
385.198075	33809.666667
386.726966	33778.000000
388.255213	33849.333333
389.782814	33809.000000
391.309770	33717.333333
392.836083	33888.666667
394.361751	33831.666667
395.886776	33945.000000
397.411157	33808.666667
398.934896	33881.666667
400.457992	33940.666667
401.980446	33931.000000
403.502258	33828.000000
405.023429	34073.000000
406.543959	34215.666667
408.063849	34067.333333
409.583098	34091.333333
411.101707	34120.333333
412.619677	34544.000000
414.137007	34122.333333
415.653699	34424.000000
417.169752	34573.000000
418.685167	34654.333333
420.199945	34980.666667
421.714085	35100.000000
423.227588	35210.000000
424.740454	35192.000000
426.252684	35459.000000
427.764279	35529.333333
429.275238	35521.000000
430.785561	35301.666667
432.295250	35216.333333
433.804304	35062.666667
435.312725	34832.000000
436.820511	34837.000000
438.327664	34585.000000
439.834185	34408.000000
441.340072	34492.333333
442.845327	34326.333333
444.349951	34276.000000
445.853942	34186.000000
447.357303	34094.000000
448.860033	34076.666667
450.362132	33981.333333
451.863601	33583.000000
453.364440	33777.000000
454.864650	33379.000000
456.364231	33390.000000
457.863183	33411.333333
459.361507	33104.666667
460.859203	33247.666667
462.356271	32867.000000
463.852712	32844.666667
465.348526	32731.333333
466.843714	32859.000000
468.338275	32474.333333
469.832210	32581.000000
471.325520	32502.666667
472.818205	32439.000000
474.310265	32388.666667
475.801700	32408.666667
477.292512	32186.000000
478.782700	32178.000000
480.272264	32213.666667
481.761205	32307.333333
483.249524	32103.666667
484.737221	32107.333333
486.224295	31975.000000
487.710748	31945.000000
489.196579	31971.666667
490.681790	31658.000000
492.166380	31839.333333
493.650350	31910.666667
495.133700	31796.666667
496.616431	31845.666667
498.098542	31698.333333
499.580035	31690.333333
501.060909	31709.666667
502.541165	31570.000000
504.020804	31698.666667
505.499825	31549.666667
506.978228	31623.333333
508.456016	31375.666667
509.933186	31388.333333
511.409741	31361.333333
512.885680	31481.666667
514.361004	31355.000000
515.835713	31286.000000
517.309807	31247.666667
518.783287	31426.000000
520.256153	31094.333333
521.728406	31374.666667
523.200045	31050.333333
524.671071	31205.666667
526.141485	31236.333333
527.611287	31140.333333
529.080476	31114.000000
530.549054	31015.000000
532.017021	31013.666667
533.484378	31050.666667
534.951123	30942.000000
536.417259	30937.666667
537.882785	31006.333333
539.347701	30965.666667
540.812008	30891.000000
542.275707	30774.333333
543.738797	30763.333333
545.201279	30845.666667
546.663153	30848.666667
548.124420	30839.000000
549.585080	30761.000000
551.045133	31090.000000
552.504579	31046.333333
553.963420	30945.333333
555.421655	30963.333333
556.879285	30982.333333
558.336309	31120.666667
559.792729	31099.666667
561.248545	31145.333333
562.703756	31043.666667
564.158364	31036.666667
565.612369	31185.000000
567.065770	31191.000000
568.518569	31110.666667
569.970766	31312.666667
571.422361	31347.666667
572.873354	31524.333333
574.323745	31502.666667
575.773536	31755.000000
577.222726	31739.000000
578.671316	31727.333333
580.119306	31652.333333
581.566696	31857.000000
583.013487	31751.666667
584.459679	31676.000000
585.905273	31507.000000
587.350268	31463.666667
588.794665	31450.000000
590.238465	31510.333333
591.681667	31254.333333
593.124272	31342.666667
594.566281	31038.333333
596.007694	30892.000000
597.448510	30821.000000
598.888731	30608.666667
600.328357	30482.000000
601.767388	30521.666667
603.205824	30364.000000
604.643666	30335.666667
606.080914	30277.000000
607.517568	30294.000000
608.953629	30286.000000
610.389097	30265.666667
611.823972	29999.000000
613.258255	29989.000000
614.691946	29982.666667
616.125046	29964.333333
617.557554	29847.000000
618.989471	29781.000000
620.420798	29648.000000
621.851534	29589.333333
623.281680	29424.666667
624.711237	29229.000000
626.140204	29291.333333
627.568582	29250.333333
628.996372	29151.666667
630.423573	29076.333333
631.850186	28889.666667
633.276211	28980.333333
634.701650	28930.000000
636.126501	28875.000000
637.550765	28845.000000
638.974443	28837.666667
640.397535	28709.333333
641.820041	28643.333333
643.241961	28703.666667
644.663297	28840.333333
646.084048	28916.333333
647.504214	28697.000000
648.923796	28590.333333
650.342795	28538.000000
651.761210	28592.000000
653.179041	28588.333333
654.596290	28449.666667
656.012957	28376.666667
657.429041	28446.666667
658.844543	28344.333333
660.259464	28327.333333
661.673804	28554.666667
663.087563	28295.666667
664.500741	28407.666667
665.913339	28170.000000
667.325357	28211.666667
668.736795	28232.666667
670.147654	28130.333333
671.557934	28089.000000
672.967636	27931.666667
674.376759	28215.333333
675.785304	27943.666667
677.193271	28106.666667
678.600661	28036.666667
680.007474	27924.666667
681.413711	28022.333333
682.819370	27792.333333
684.224454	27848.000000
685.628962	27784.666667
687.032895	27635.000000
688.436252	27803.333333
689.839034	27806.666667
691.241242	27811.333333
692.642876	27638.333333
694.043936	27655.666667
695.444422	27474.333333
696.844336	27473.000000
698.243676	27615.333333
699.642443	27427.666667
701.040639	27346.666667
702.438262	27398.666667
703.835313	27413.333333
705.231794	27467.000000
706.627703	27288.000000
708.023041	27120.333333
709.417810	27367.333333
710.812008	27204.333333
712.205636	27245.000000
713.598694	27302.000000
714.991184	27329.666667
716.383105	27148.333333
717.774457	27152.000000
719.165241	27043.333333
720.555457	27253.333333
721.945105	27044.333333
723.334187	27128.666667
724.722701	27030.000000
726.110648	27012.333333
727.498030	26938.666667
728.884845	26995.000000
730.271094	27088.000000
731.656778	26926.666667
733.041897	26961.666667
734.426451	26797.000000
735.810441	26997.666667
737.193866	26860.000000
738.576728	26881.000000
739.959026	26860.000000
741.340760	26664.000000
742.721932	26879.000000
744.102541	26704.000000
745.482588	26828.000000
746.862073	26686.333333
748.240996	26809.333333
749.619358	26769.666667
750.997158	26512.000000
752.374398	26550.000000
753.751077	26662.000000
755.127197	26584.666667
756.502756	26553.333333
757.877756	26442.333333
759.252196	26447.000000
760.626078	26477.000000
761.999400	26487.333333
763.372165	26286.000000
764.744371	26354.666667
766.116020	26291.666667
767.487111	26237.000000
768.857646	26273.666667
770.227623	26263.666667
771.597044	26080.666667
772.965908	26017.666667
774.334217	26153.000000
775.701970	25979.666667
777.069168	25985.333333
778.435811	25994.666667
779.801899	25915.666667
781.167433	25922.000000
782.532412	25875.666667
783.896838	25881.333333
785.260710	25701.666667
786.624029	25687.000000
787.986796	25599.000000
789.349009	25751.333333
790.710671	25668.333333
792.071780	25708.666667
793.432338	25662.666667
794.792344	25514.333333
796.151799	25547.333333
797.510704	25434.000000
798.869058	25561.000000
800.226862	25360.000000
801.584116	25542.666667
802.940820	25479.333333
804.296975	25435.666667
805.652581	25250.333333
807.007638	25375.666667
808.362147	25385.333333
809.716108	25376.000000
811.069521	25473.333333
812.422387	25327.666667
813.774705	25221.333333
815.126476	25265.333333
816.477701	25331.666667
817.828380	25313.666667
819.178512	25335.000000
820.528099	25211.000000
821.877140	25227.666667
823.225637	25144.666667
824.573588	25045.333333
825.920995	25144.000000
827.267857	25075.000000
828.614176	25068.000000
829.959951	25078.000000
831.305183	24954.000000
832.649871	25031.333333
833.994017	25077.666667
835.337620	25031.666667
836.680681	24871.000000
838.023201	24924.666667
839.365178	24941.666667
840.706614	24838.000000
842.047510	24906.666667
843.387864	24846.666667
844.727678	24931.000000
846.066952	24891.666667
847.405687	25123.000000
848.743881	25055.333333
850.081537	24889.333333
851.418653	24969.666667
852.755231	24918.000000
854.091270	24965.000000
855.426771	24954.666667
856.761735	24946.666667
858.096160	24774.333333
859.430049	24793.000000
860.763401	24738.666667
862.096216	24595.333333
863.428495	24655.333333
864.760237	24587.666667
866.091444	24586.333333
867.422115	24425.333333
868.752252	24480.666667
870.081853	24360.000000
871.410919	24357.000000
872.739452	24389.666667
874.067450	24293.333333
875.394914	24294.000000
876.721845	24287.000000
878.048243	24168.666667
879.374108	24152.000000
880.699440	24215.000000
882.024240	24088.000000
883.348508	24052.000000
884.672244	23968.666667
885.995449	23999.666667
887.318122	23906.000000
888.640265	23912.000000
889.961877	23869.333333
891.282959	23918.000000
892.603510	23883.333333
893.923532	23694.000000
895.243024	23702.000000
896.561987	23687.333333
897.880422	23595.333333
899.198327	23602.666667
900.515705	23622.333333
901.832554	23440.000000
903.148875	23682.000000
904.464669	23493.000000
905.779936	23508.666667
907.094676	23452.333333
908.408889	23535.666667
909.722576	23404.000000
911.035737	23395.333333
912.348371	23536.666667
913.660481	23565.333333
914.972065	23579.333333
916.283124	23668.666667
917.593659	23464.666667
918.903669	23633.666667
920.213155	23665.000000
921.522117	23706.666667
922.830556	23720.666667
924.138471	23604.333333
925.445864	23771.000000
926.752733	23647.666667
928.059081	23621.666667
929.364906	23723.666667
930.670209	23654.000000
931.974991	23737.000000
933.279251	23731.000000
934.582990	23771.666667
935.886209	24094.333333
937.188907	24022.333333
938.491085	24208.000000
939.792743	24363.333333
941.093881	24617.333333
942.394500	24807.666667
943.694600	25120.666667
944.994181	25259.333333
946.293243	25800.666667
947.591787	26183.666667
948.889813	26592.333333
950.187322	27373.666667
951.484313	28111.333333
952.780787	28816.666667
954.076744	29642.000000
955.372184	30362.666667
956.667108	31071.000000
957.961516	31301.666667
959.255409	31216.000000
960.548785	30964.333333
961.841647	30585.333333
963.133993	29625.666667
964.425825	28588.666667
965.717142	27655.333333
967.007946	26782.333333
968.298235	25916.000000
969.588011	25135.333333
970.877273	24600.666667
972.166023	24012.666667
973.454259	23577.333333
974.741984	23186.666667
976.029196	23012.333333
977.315895	22755.666667
978.602084	22537.666667
979.887761	22368.333333
981.172926	22249.666667
982.457581	22236.000000
983.741725	22064.000000
985.025359	21961.000000
986.308483	21905.333333
987.591097	22034.333333
988.873202	21892.666667
990.154797	21834.333333
991.435883	21792.333333
992.716461	21700.000000
993.996530	21679.333333
995.276091	21660.666667
996.555144	21776.666667
997.833690	21795.666667
999.111728	21838.666667
1000.389259	21840.000000
1001.666283	21924.333333
1002.942800	21972.666667
1004.218812	21791.666667
1005.494317	21839.000000
1006.769317	21792.000000
1008.043811	21759.333333
1009.317799	21733.666667
1010.591283	21649.666667
1011.864263	21733.000000
1013.136737	21654.000000
1014.408708	21656.333333
1015.680175	21681.000000
1016.951138	21640.666667
1018.221598	21664.333333
1019.491554	21669.333333
1020.761008	21762.000000
1022.029959	21742.333333
1023.298408	21716.333333
1024.566355	21762.333333
1025.833800	21588.666667
1027.100744	21655.666667
1028.367187	21586.333333
1029.633128	21739.333333
1030.898569	21662.666667
1032.163509	21555.333333
1033.427949	21581.000000
1034.691890	21420.000000
1035.955330	21641.333333
1037.218271	21619.666667
1038.480714	21559.000000
1039.742657	21578.333333
1041.004101	21634.333333
1042.265048	21628.666667
1043.525496	21642.666667
1044.785446	21530.000000
1046.044899	21579.333333
1047.303855	21439.000000
1048.562313	21483.333333
1049.820275	21437.000000
1051.077740	21393.000000
1052.334709	21370.333333
1053.591182	21261.333333
1054.847160	21327.333333
1056.102641	21307.333333
1057.357628	21250.666667
1058.612120	21267.333333
1059.866117	21312.666667
1061.119619	21342.000000
1062.372628	21372.666667
1063.625142	21474.000000
1064.877163	21561.666667
1066.128691	21374.000000
1067.379725	21491.666667
1068.630267	21493.333333
1069.880316	21571.000000
1071.129872	21320.000000
1072.378937	21420.000000
1073.627509	21222.666667
1074.875590	21111.666667
1076.123180	21027.666667
1077.370279	21098.666667
1078.616887	20914.333333
1079.863004	20764.333333
1081.108631	20780.666667
1082.353768	20526.666667
1083.598415	20440.000000
1084.842573	20272.000000
1086.086241	20388.000000
1087.329421	20121.000000
1088.572111	20058.666667
1089.814314	20019.333333
1091.056028	19909.000000
1092.297253	19903.666667
1093.537992	19861.000000
1094.778242	19748.666667
1096.018006	19745.333333
1097.257282	19645.333333
1098.496072	19664.000000
1099.734376	19706.333333
1100.972193	19667.666667
1102.209524	19551.000000
1103.446370	19570.666667
1104.682730	19597.000000
1105.918604	19691.333333
1107.153994	19452.333333
1108.388900	19436.000000
1109.623320	19390.666667
1110.857257	19302.666667
1112.090710	19322.666667
1113.323679	19249.666667
1114.556164	19138.000000
1115.788167	19091.666667
1117.019686	19060.666667
1118.250723	19090.000000
1119.481278	18910.000000
1120.711350	19025.000000
1121.940940	18909.666667
1123.170049	18975.666667
1124.398676	19009.666667
1125.626823	18901.000000
1126.854488	18870.000000
1128.081672	18850.333333
1129.308376	18784.333333
1130.534600	18692.000000
1131.760345	18798.000000
1132.985609	18876.000000
1134.210394	18737.333333
1135.434700	18819.666667
1136.658527	18812.666667
1137.881875	18822.666667
1139.104745	18814.333333
1140.327136	18687.666667
1141.549050	18649.000000
1142.770486	18734.333333
1143.991445	18804.000000
1145.211926	18745.333333
1146.431931	18558.000000
1147.651459	18571.333333
1148.870510	18682.000000
1150.089086	18505.000000
1151.307185	18568.000000
1152.524808	18617.333333
1153.741957	18460.333333
1154.958630	18529.000000
1156.174828	18347.666667
1157.390551	18443.666667
1158.605800	18539.333333
1159.820574	18374.000000
1161.034875	18386.333333
1162.248702	18297.333333
1163.462055	18314.333333
1164.674936	18446.666667
1165.887343	18275.000000
1167.099277	18117.666667
1168.310739	18224.000000
1169.521729	18311.333333
1170.732247	18169.666667
1171.942293	18215.333333
1173.151867	18199.000000
1174.360970	18104.333333
1175.569602	18220.000000
1176.777764	18226.333333
1177.985454	18044.000000
1179.192675	18154.000000
1180.399425	18074.333333
1181.605706	18006.333333
1182.811517	17925.333333
1184.016859	17962.333333
1185.221731	17982.333333
1186.426135	17806.333333
1187.630070	17843.333333
1188.833537	17834.333333
1190.036535	17747.000000
1191.239066	17747.000000
1192.441129	17690.000000
1193.642725	17814.666667
1194.843853	17673.666667
1196.044515	17772.666667
1197.244710	17720.666667
1198.444438	17748.333333
1199.643701	17648.666667
1200.842497	17634.333333
1202.040827	17658.333333
1203.238693	17476.333333
1204.436092	17453.000000
1205.633027	17575.000000
1206.829497	17615.333333
1208.025503	17459.666667
1209.221044	17391.000000
1210.416122	17393.333333
1211.610735	17455.333333
1212.804885	17253.666667
1213.998572	17215.333333
1215.191795	17277.000000
1216.384556	17181.000000
1217.576854	17279.333333
1218.768689	17216.666667
1219.960063	17197.666667
1221.150974	17076.666667
1222.341424	16967.333333
1223.531413	17076.000000
1224.720940	17080.333333
1225.910006	17080.333333
1227.098612	17127.333333
1228.286757	17223.333333
1229.474442	17225.000000
1230.661667	17113.000000
1231.848432	17230.666667
1233.034738	17194.666667
1234.220584	17334.666667
1235.405971	17178.333333
1236.590900	17272.333333
1237.775369	17225.666667
1238.959381	17233.666667
1240.142934	17219.666667
1241.326029	17292.666667
1242.508667	17319.000000
1243.690848	17289.666667
1244.872571	17152.000000
1246.053837	17230.333333
1247.234646	17242.333333
1248.414999	17234.333333
1249.594896	17028.333333
1250.774337	17157.000000
1251.953322	16925.666667
1253.131851	17037.333333
1254.309925	16908.000000
1255.487544	16997.333333
1256.664708	16923.666667
1257.841417	16978.000000
1259.017673	16782.000000
1260.193473	16992.000000
1261.368820	16781.333333
1262.543714	16863.666667
1263.718154	16865.333333
1264.892140	16929.666667
1266.065674	16849.000000
1267.238755	17103.000000
1268.411383	16905.666667
1269.583559	16836.333333
1270.755283	16812.333333
1271.926555	16807.333333
1273.097375	17135.333333
1274.267744	16851.000000
1275.437662	16844.333333
1276.607129	16794.333333
1277.776145	16640.666667
1278.944711	16843.333333
1280.112827	16651.666667
1281.280492	16633.666667
1282.447708	16562.333333
1283.614474	16641.666667
1284.780791	16609.666667
1285.946659	16508.666667
1287.112078	16431.333333
1288.277048	16499.333333
1289.441570	16367.333333
1290.605644	16299.000000
1291.769270	16233.666667
1292.932448	16150.000000
1294.095178	16179.666667
1295.257461	16125.333333
1296.419298	16150.666667
1297.580687	16193.666667
1298.741630	15980.666667
1299.902126	15985.000000
1301.062177	16000.333333
1302.221781	16022.333333
1303.380940	15965.000000
1304.539653	16046.333333
1305.697921	15874.333333
1306.855744	15963.333333
1308.013123	15942.666667
1309.170056	16062.000000
1310.326546	15974.333333
1311.482591	15840.000000
1312.638193	15907.333333
1313.793350	15922.333333
1314.948065	15789.333333
1316.102336	15861.000000
1317.256164	15856.333333
1318.409550	15743.666667
1319.562493	15795.333333
1320.714993	15664.666667
1321.867052	15624.333333
1323.018668	15688.000000
1324.169843	15561.000000
1325.320577	15574.666667
1326.470870	15492.000000
1327.620721	15573.333333
1328.770132	15443.000000
1329.919102	15310.666667
1331.067632	15434.000000
1332.215722	15453.333333
1333.363372	15318.000000
1334.510582	15388.666667
1335.657353	15345.333333
1336.803685	15367.333333
1337.949578	15385.000000
1339.095032	15397.666667
1340.240048	15351.666667
1341.384625	15355.333333
1342.528764	15423.000000
1343.672466	15325.666667
1344.815729	15355.333333
1345.958556	15404.000000
1347.100945	15238.000000
1348.242897	15248.000000
1349.384413	15187.000000
1350.525492	15239.000000
1351.666134	15172.000000
1352.806341	15148.666667
1353.946111	15051.666667
1355.085446	15034.333333
1356.224346	15038.333333
1357.362810	14973.666667
1358.500840	14938.666667
1359.638434	15075.666667
1360.775594	14875.000000
1361.912320	14801.000000
1363.048612	14800.000000
1364.184469	14819.666667
1365.319893	14786.666667
1366.454884	14835.333333
1367.589441	14765.000000
1368.723566	14753.000000
1369.857257	14777.666667
1370.990516	14830.333333
1372.123343	14774.666667
1373.255737	14735.666667
1374.387699	14846.666667
1375.519230	14799.666667
1376.650329	14726.333333
1377.780997	14748.333333
1378.911234	14781.000000
1380.041040	14786.666667
1381.170416	14767.666667
1382.299361	14730.666667
1383.427875	14756.000000
1384.555960	14769.333333
1385.683615	14729.666667
1386.810841	14782.666667
1387.937637	14771.333333
1389.064004	14646.333333
1390.189942	14567.333333
1391.315451	14543.333333
1392.440532	14487.333333
1393.565185	14561.000000
1394.689409	14487.000000
1395.813206	14424.333333
1396.936575	14430.000000
1398.059517	14384.666667
1399.182032	14382.333333
1400.304119	14306.000000
1401.425780	14352.666667
1402.547014	14333.333333
1403.667822	14325.333333
1404.788204	14214.000000
1405.908160	14231.666667
1407.027690	14304.666667
1408.146795	14269.666667
1409.265474	14205.333333
1410.383728	14239.333333
1411.501558	14327.333333
1412.618963	14299.000000
1413.735943	14255.000000
1414.852499	14189.666667
1415.968632	14302.333333
1417.084340	14310.000000
1418.199625	14285.333333
1419.314486	14271.000000
1420.428925	14339.000000
1421.542940	14166.000000
1422.656533	14277.666667
1423.769703	14107.333333
1424.882451	14233.000000
1425.994777	14156.666667
1427.106680	14056.333333
1428.218163	14039.000000
1429.329223	14013.333333
1430.439863	13933.666667
1431.550081	13867.666667
1432.659879	13956.333333
1433.769256	13933.000000
1434.878212	13947.666667
1435.986749	13961.666667
1437.094865	13911.000000
1438.202562	13844.333333
1439.309839	13817.666667
1440.416696	13838.333333
1441.523135	13910.000000
1442.629154	13953.666667
1443.734755	13949.000000
1444.839937	13982.333333
1445.944701	13909.666667
1447.049047	13934.333333
1448.152975	14015.666667
1449.256485	13986.333333
1450.359577	13935.000000
1451.462253	13987.333333
1452.564511	13928.000000
1453.666352	13953.000000
1454.767777	13932.333333
1455.868785	13912.000000
1456.969377	13862.333333
1458.069553	13953.000000
1459.169313	13743.666667
1460.268658	13740.000000
1461.367587	13717.666667
1462.466101	13580.000000
1463.564200	13635.000000
1464.661884	13430.333333
1465.759153	13582.000000
1466.856008	13377.666667
1467.952449	13389.666667
1469.048476	13309.333333
1470.144089	13172.666667
1471.239288	13137.666667
1472.334074	13114.333333
1473.428447	13138.333333
1474.522407	13065.000000
1475.615955	12935.333333
1476.709089	12874.333333
1477.801812	12862.000000
1478.894122	12933.000000
1479.986020	12882.666667
1481.077506	12808.000000
1482.168581	12869.666667
1483.259245	12872.666667
1484.349498	12780.000000
1485.439339	12811.666667
1486.528770	12874.000000
1487.617790	12729.666667
1488.706400	12684.666667
1489.794600	12684.666667
1490.882390	12874.666667
1491.969771	12675.333333
1493.056742	12693.666667
1494.143303	12619.000000
1495.229456	12661.333333
1496.315199	12631.000000
1497.400534	12617.000000
1498.485460	12560.333333
1499.569978	12585.000000
1500.654088	12507.000000
1501.737790	12522.000000
1502.821085	12495.666667
1503.903972	12334.666667
1504.986451	12337.333333
1506.068524	12347.000000
1507.150189	12303.666667
1508.231448	12288.666667
1509.312301	12160.000000
1510.392747	12247.333333
1511.472787	12157.333333
1512.552422	12289.666667
1513.631650	11977.333333
1514.710473	12133.000000
1515.788891	12156.666667
1516.866904	12115.666667
1517.944512	12131.333333
1519.021715	12073.333333
1520.098513	12083.333333
1521.174908	12128.666667
1522.250898	12173.666667
1523.326485	12135.333333
1524.401667	12173.000000
1525.476447	12065.666667
1526.550823	12136.000000
1527.624796	12113.666667
1528.698365	12107.000000
1529.771533	12108.333333
1530.844298	12042.666667
1531.916660	12062.000000
1532.988620	11972.666667
1534.060179	12068.333333
1535.131336	12007.000000
1536.202091	11979.000000
1537.272445	11947.000000
1538.342398	11936.666667
1539.411950	11909.333333
1540.481101	11924.333333
1541.549851	11844.666667
1542.618202	11735.666667
1543.686152	11713.000000
1544.753702	11706.333333
1545.820853	11609.000000
1546.887604	11617.333333
1547.953955	11631.333333
1549.019908	11610.333333
1550.085461	11611.666667
1551.150616	11527.000000
1552.215372	11560.666667
1553.279730	11514.000000
1554.343690	11542.666667
1555.407252	11495.000000
1556.470415	11486.000000
1557.533182	11452.666667
1558.595551	11476.000000
1559.657522	11473.333333
1560.719097	11428.333333
1561.780275	11396.333333
1562.841056	11511.666667
1563.901441	11488.333333
1564.961429	11482.000000
1566.021022	11329.666667
1567.080219	11454.000000
1568.139020	11433.000000
1569.197425	11452.000000
1570.255436	11384.666667
1571.313051	11332.666667
1572.370271	11251.333333
1573.427097	11267.333333
1574.483528	11296.000000
1575.539565	11247.000000
1576.595208	11251.000000
1577.650457	11178.666667
1578.705312	11145.666667
1579.759774	11178.000000
1580.813842	11113.666667
1581.867517	11029.333333
1582.920799	10996.000000
1583.973689	11026.666667
1585.026186	11101.333333
1586.078290	10919.000000
1587.130002	10926.000000
1588.181323	10855.000000
1589.232251	10935.000000
1590.282788	10830.666667
1591.332933	10820.000000
1592.382688	10804.333333
1593.432051	10781.000000
1594.481023	10734.333333
1595.529605	10897.666667
1596.577796	10835.333333
1597.625597	10876.333333
1598.673007	10915.333333
1599.720028	10870.666667
1600.766660	10899.333333
1601.812901	10830.333333
1602.858753	10824.666667
1603.904217	10966.000000
1604.949291	10928.333333
1605.993976	10843.000000
1607.038273	10878.333333
1608.082182	10872.333333
1609.125702	10905.000000
1610.168834	10718.666667
1611.211579	10713.666667
1612.253935	10715.000000
1613.295905	10770.333333
1614.337487	10720.000000
1615.378682	10580.333333
1616.419490	10679.333333
1617.459912	10634.666667
1618.499946	10572.333333
1619.539595	10561.333333
1620.578858	10507.000000
1621.617734	10582.666667
1622.656225	10445.333333
1623.694330	10377.333333
1624.732050	10404.000000
1625.769385	10461.333333
1626.806334	10386.333333
1627.842899	10439.000000
1628.879079	10376.666667
1629.914875	10412.666667
1630.950286	10383.333333
1631.985314	10377.333333
1633.019957	10358.333333
1634.054217	10385.666667
1635.088093	10421.333333
1636.121586	10385.666667
1637.154696	10430.000000
1638.187423	10323.333333
1639.219767	10471.333333
1640.251728	10434.666667
1641.283307	10341.333333
1642.314504	10284.000000
1643.345319	10351.333333
1644.375751	10398.666667
1645.405803	10317.666667
1646.435472	10332.000000
1647.464761	10275.666667
1648.493668	10305.666667
1649.522194	10269.000000
1650.550340	10284.000000
1651.578105	10274.333333
1652.605490	10226.666667
1653.632494	10171.333333
1654.659119	10156.666667
1655.685363	10157.333333
1656.711228	10118.000000
1657.736714	10148.000000
1658.761820	10077.666667
1659.786547	9961.666667
1660.810895	9991.666667
1661.834865	10015.000000
1662.858456	9933.333333
1663.881668	9924.666667
1664.904503	9831.333333
1665.926959	9848.000000
1666.949038	9788.666667
1667.970739	9729.333333
1668.992062	9746.000000
1670.013008	9790.333333
1671.033577	9722.666667
1672.053770	9713.000000
1673.073585	9732.333333
1674.093024	9643.666667
1675.112086	9674.666667
1676.130773	9643.333333
1677.149083	9748.333333
1678.167017	9639.000000
1679.184576	9634.333333
1680.201760	9605.333333
1681.218568	9509.333333
1682.235001	9535.000000
1683.251059	9663.000000
1684.266742	9511.333333
1685.282051	9586.666667
1686.296985	9542.333333
1687.311546	9565.333333
1688.325732	9508.333333
1689.339544	9447.000000
1690.352983	9394.333333
1691.366048	9371.000000
1692.378740	9316.000000
1693.391058	9315.666667
1694.403004	9199.000000
1695.414577	9301.000000
1696.425778	9140.333333
1697.436606	9087.333333
1698.447061	9049.333333
1699.457145	9111.000000
1700.466857	8988.666667
1701.476197	8945.000000
1702.485166	8937.666667
1703.493763	8824.000000
1704.501989	8926.666667
1705.509844	8844.333333
1706.517328	8859.333333
1707.524442	8844.000000
1708.531185	8794.666667
1709.537558	8811.000000
1710.543561	8794.333333
1711.549194	8808.666667
1712.554457	8740.666667
1713.559351	8732.333333
1714.563875	8845.333333
1715.568030	8687.333333
1716.571816	8743.000000
1717.575233	8784.666667
1718.578282	8798.333333
1719.580962	8738.333333
1720.583273	8848.000000
1721.585217	8804.666667
1722.586792	8784.333333
1723.588000	8815.666667
1724.588840	8788.000000
1725.589312	8705.666667
1726.589418	8769.333333
1727.589156	8803.333333
1728.588527	8865.666667
1729.587532	8807.666667
1730.586170	8788.333333
1731.584441	8755.000000
1732.582346	8698.333333
1733.579886	8662.666667
1734.577059	8675.333333
1735.573867	8595.666667
1736.570309	8676.333333
1737.566386	8586.000000
1738.562097	8525.000000
1739.557444	8490.000000
1740.552426	8508.666667
1741.547043	8491.000000
1742.541295	8413.000000
1743.535184	8395.000000
1744.528708	8376.333333
1745.521868	8353.333333
1746.514664	8256.333333
1747.507097	8237.666667
1748.499166	8219.333333
1749.490873	8201.666667
1750.482216	8232.333333
1751.473196	8258.333333
1752.463813	8189.333333
1753.454068	8195.333333
1754.443960	8250.333333
1755.433490	8215.333333
1756.422658	8138.000000
1757.411464	8168.666667
1758.399908	8135.666667
1759.387991	8188.666667
1760.375713	8056.666667
1761.363073	8148.000000
1762.350072	8053.000000
1763.336711	8161.666667
1764.322988	8040.666667
1765.308905	8028.000000
1766.294462	8036.333333
1767.279659	8119.333333
1768.264496	8024.000000
1769.248972	7982.000000
1770.233089	7991.000000
1771.216847	7923.333333
1772.200245	7855.333333
1773.183284	7895.000000
1774.165965	7773.000000
1775.148286	7768.000000
1776.130249	7791.000000
1777.111853	7874.666667
1778.093099	7770.000000
1779.073987	7748.000000
1780.054517	7669.000000
1781.034689	7644.333333
1782.014503	7598.333333
1782.993960	7582.000000
1783.973060	7483.333333
1784.951802	7515.333333
1785.930188	7503.333333
1786.908217	7400.333333
1787.885889	7356.333333
1788.863205	7442.000000
1789.840164	7333.666667
1790.816768	7368.000000
1791.793015	7267.333333
1792.768907	7250.000000
1793.744443	7293.333333
1794.719624	7279.666667
1795.694449	7315.333333
1796.668919	7274.000000
1797.643035	7335.333333
1798.616795	7329.000000
1799.590201	7271.333333
1800.563253	7298.000000
1801.535950	7337.333333
1802.508294	7338.333333
1803.480283	7300.000000
1804.451919	7394.666667
1805.423201	7366.000000
1806.394129	7288.333333
1807.364705	7370.333333
1808.334927	7364.000000
1809.304796	7329.333333
1810.274313	7317.666667
1811.243477	7287.333333
1812.212288	7324.000000
1813.180747	7269.666667
1814.148855	7184.666667
1815.116610	7208.333333
1816.084013	7158.000000
1817.051065	7193.666667
1818.017766	7269.666667
1818.984115	7223.666667
1819.950113	7206.000000
1820.915760	7164.666667
1821.881057	7059.666667
1822.846003	7156.666667
1823.810598	7055.666667
1824.774843	6990.333333
1825.738738	7029.666667
1826.702283	7031.333333
1827.665479	6957.000000
1828.628324	6979.333333
1829.590821	6995.333333
1830.552968	6952.000000
1831.514765	6993.333333
1832.476214	6963.666667
1833.437314	6942.333333
1834.398066	6876.000000
1835.358469	6885.333333
1836.318524	6916.000000
1837.278230	6843.333333
1838.237589	6881.333333
1839.196600	6835.666667
1840.155263	6856.666667
1841.113578	6837.666667
1842.071547	6927.000000
1843.029168	6897.333333
1843.986442	6903.000000
1844.943369	6875.000000
1845.899950	6927.333333
1846.856184	6860.666667
1847.812072	6821.333333
1848.767614	6902.000000
1849.722809	6903.666667
1850.677659	6930.666667
1851.632163	6853.000000
1852.586322	6807.333333
1853.540135	6789.666667
1854.493603	6787.000000
1855.446726	6784.000000
1856.399504	6837.333333
1857.351937	6788.000000
1858.304026	6743.000000
1859.255770	6689.333333
1860.207170	6666.666667
1861.158227	6546.333333
1862.108939	6649.000000
1863.059307	6591.000000
1864.009332	6616.000000
1864.959013	6508.333333
1865.908351	6557.666667
1866.857346	6481.000000
1867.805998	6472.000000
1868.754307	6461.333333
1869.702274	6421.000000
1870.649898	6355.000000
1871.597180	6411.333333
1872.544119	6408.333333
1873.490717	6341.333333
1874.436973	6341.000000
1875.382887	6300.666667
1876.328459	6309.000000
1877.273691	6273.333333
1878.218581	6270.000000
1879.163130	6341.333333
1880.107338	6292.333333
1881.051205	6314.666667
1881.994732	6267.666667
1882.937919	6316.000000
1883.880765	6300.666667
1884.823271	6227.000000
1885.765437	6289.333333
1886.707264	6245.000000
1887.648750	6322.333333
1888.589898	6346.666667
1889.530706	6327.000000
1890.471175	6320.666667
1891.411305	6348.333333
1892.351096	6294.666667
1893.290548	6340.000000
1894.229662	6351.666667
1895.168438	6330.333333
1896.106876	6311.333333
1897.044975	6286.666667
1897.982737	6250.666667
1898.920160	6210.333333
1899.857247	6224.000000
1900.793996	6153.000000
1901.730407	6157.333333
1902.666482	6160.333333
1903.602219	6085.000000
1904.537620	6099.666667
1905.472685	6112.000000
1906.407412	6010.000000
1907.341804	6047.333333
1908.275859	6011.000000
1909.209579	5945.333333
1910.142962	5969.333333
1911.076010	5949.000000
1912.008722	5882.666667
1912.941099	5888.666667
1913.873141	5837.333333
1914.804848	5821.000000
1915.736219	5773.333333
1916.667256	5759.333333
1917.597959	5759.666667
1918.528327	5712.000000
1919.458360	5741.666667
1920.388060	5701.000000
1921.317426	5663.333333
1922.246457	5703.333333
1923.175156	5776.666667
1924.103520	5692.333333
1925.031552	5696.666667
1925.959250	5710.000000
1926.886615	5704.000000
1927.813647	5682.333333
1928.740346	5690.000000
1929.666713	5753.333333
1930.592748	5649.000000
1931.518450	5725.666667
1932.443820	5744.666667
1933.368858	5661.666667
1934.293564	5665.333333
1935.217939	5662.666667
1936.141982	5695.666667
1937.065694	5614.666667
1937.989074	5612.333333
1938.912124	5681.000000
1939.834842	5557.000000
1940.757230	5610.666667
1941.679287	5615.333333
1942.601014	5556.333333
1943.522411	5509.666667
1944.443477	5482.000000
1945.364214	5456.333333
1946.284621	5473.000000
1947.204698	5412.666667
1948.124445	5393.000000
1949.043863	5399.666667
1949.962952	5363.666667
1950.881712	5390.666667
1951.800143	5338.666667
1952.718245	5259.000000
1953.636019	5236.000000
1954.553464	5318.666667
1955.470581	5243.000000
1956.387369	5199.000000
1957.303830	5258.000000
1958.219963	5272.666667
1959.135768	5183.333333
1960.051246	5259.666667
1960.966396	5242.333333
1961.881219	5211.000000
1962.795715	5262.333333
1963.709883	5269.666667
1964.623726	5248.000000
1965.537241	5223.666667
1966.450430	5289.666667
1967.363293	5276.666667
1968.275829	5267.666667
1969.188040	5229.333333
1970.099924	5276.000000
1971.011483	5250.000000
1971.922716	5252.000000
1972.833624	5324.666667
1973.744206	5325.333333
1974.654464	5320.000000
1975.564396	5297.666667
1976.474004	5294.000000
1977.383286	5264.000000
1978.292245	5234.333333
1979.200878	5244.666667
1980.109188	5214.666667
1981.017174	5167.666667
1981.924835	5212.000000
1982.832173	5183.000000
1983.739187	5083.000000
1984.645878	5082.333333
1985.552245	5074.666667
1986.458289	5073.000000
1987.364010	4986.000000
1988.269408	5038.666667
1989.174484	5023.333333
1990.079236	4959.000000
1990.983667	4995.666667
1991.887775	4945.000000
1992.791561	4890.666667
1993.695024	4925.666667
1994.598166	4912.666667
1995.500986	4866.000000
1996.403485	4864.333333
1997.305662	4837.333333
1998.207518	4866.666667
1999.109053	4816.666667
