200.151048	17594.000000
201.758777	17432.000000
203.365815	17485.333333
204.972162	17438.000000
206.577820	17194.333333
208.182787	17311.000000
209.787065	17228.333333
211.390653	17320.333333
212.993553	17157.000000
214.595765	17243.000000
216.197289	17162.000000
217.798125	17060.333333
219.398274	16841.666667
220.997737	16983.000000
222.596513	16942.000000
224.194603	17001.000000
225.792008	16876.000000
227.388728	16921.333333
228.984763	16729.666667
230.580114	16813.333333
232.174781	16798.000000
233.768765	16736.000000
235.362065	16622.666667
236.954683	16715.000000
238.546619	16539.333333
240.137872	16511.333333
241.728445	16540.666667
243.318336	16530.333333
244.907546	16503.000000
246.496076	16372.000000
248.083926	16414.666667
249.671097	16302.000000
251.257589	16188.000000
252.843402	16173.666667
254.428536	16211.666667
256.012993	16084.666667
257.596772	16175.333333
259.179874	16070.666667
260.762300	16036.333333
262.344049	15891.666667
263.925122	15912.333333
265.505519	15867.333333
267.085241	15770.333333
268.664289	15733.333333
270.242662	15984.666667
271.820361	15826.666667
273.397387	15843.000000
274.973740	15916.666667
276.549419	15810.666667
278.124426	15773.333333
279.698762	15774.000000
281.272425	15776.333333
282.845417	15681.333333
284.417739	15833.000000
285.989390	15859.000000
287.560371	15786.000000
289.130682	15793.666667
290.700324	15692.333333
292.269297	15765.666667
293.837602	15736.333333
295.405238	15718.666667
296.972207	15687.333333
298.538508	15639.000000
300.104142	15756.666667
301.669110	15635.333333
303.233411	15644.000000
304.797047	15556.666667
306.360017	15479.333333
307.922322	15471.333333
309.483963	15337.000000
311.044939	15351.000000
312.605252	15331.000000
314.164900	15130.333333
315.723886	15131.000000
317.282209	15116.666667
318.839870	14943.333333
320.396868	15000.666667
321.953205	14938.666667
323.508881	14936.666667
325.063896	14906.666667
326.618251	14921.333333
328.171945	14804.333333
329.724980	14821.666667
331.277356	14759.333333
332.829072	14726.333333
334.380131	14720.000000
335.930530	14656.666667
337.480273	14715.333333
339.029357	14748.666667
340.577785	14541.333333
342.125556	14598.000000
343.672671	14644.000000
345.219130	14599.000000
346.764933	14579.000000
348.310081	14474.000000
349.854575	14596.666667
351.398414	14491.333333
352.941599	14521.666667
354.484130	14401.000000
356.026008	14436.333333
357.567234	14503.666667
359.107807	14329.000000
360.647727	14315.000000
362.186996	14314.666667
363.725614	14335.333333
365.263580	14201.000000
366.800896	14205.333333
368.337562	14276.666667
369.873578	14180.333333
371.408944	14155.666667
372.943661	14152.666667
374.477730	14246.000000
376.011150	14185.666667
377.543922	14250.000000
379.076046	14056.333333
380.607523	14082.666667
382.138353	14085.333333
383.668537	14206.666667
385.198075	14066.666667
386.726966	14229.333333
388.255213	14329.000000
389.782814	14237.666667
391.309770	14164.666667
392.836083	14358.333333
394.361751	14295.333333
395.886776	14349.333333
397.411157	14297.333333
398.934896	14311.333333
400.457992	14296.000000
401.980446	14256.333333
403.502258	14292.666667
405.023429	14249.333333
406.543959	14355.666667
408.063849	14440.666667
409.583098	14480.666667
411.101707	14517.333333
412.619677	14525.000000
414.137007	14698.000000
415.653699	14768.333333
417.169752	14790.666667
418.685167	14843.000000
420.199945	15063.666667
421.714085	15206.000000
423.227588	15351.333333
424.740454	15524.333333
426.252684	15621.000000
427.764279	15648.333333
429.275238	15666.666667
430.785561	15590.333333
432.295250	15490.000000
433.804304	15335.000000
435.312725	15162.000000
436.820511	15255.000000
438.327664	15038.666667
439.834185	15016.333333
441.340072	14976.666667
442.845327	14918.333333
444.349951	14833.333333
445.853942	14639.666667
447.357303	14638.000000
448.860033	14574.333333
450.362132	14394.000000
451.863601	14390.333333
453.364440	14315.000000
454.864650	14166.666667
456.364231	14124.000000
457.863183	14019.000000
459.361507	13939.666667
460.859203	13910.000000
462.356271	13702.333333
463.852712	13710.666667
465.348526	13537.666667
466.843714	13425.666667
468.338275	13429.333333
469.832210	13347.666667
471.325520	13409.000000
472.818205	13241.000000
474.310265	13212.666667
475.801700	13213.000000
477.292512	13146.000000
478.782700	13162.333333
480.272264	13088.333333
481.761205	13026.333333
483.249524	13026.666667
484.737221	12925.333333
486.224295	12923.333333
487.710748	12874.000000
489.196579	12876.666667
490.681790	12861.666667
492.166380	12792.000000
493.650350	12842.000000
495.133700	12768.000000
496.616431	12850.000000
498.098542	12812.000000
499.580035	12765.000000
501.060909	12683.000000
502.541165	12665.666667
504.020804	12684.666667
505.499825	12648.000000
506.978228	12668.333333
508.456016	12594.333333
509.933186	12702.000000
511.409741	12566.666667
512.885680	12578.666667
514.361004	12615.333333
515.835713	12506.333333
517.309807	12549.333333
518.783287	12558.666667
520.256153	12591.666667
521.728406	12514.000000
523.200045	12560.000000
524.671071	12502.333333
526.141485	12539.333333
527.611287	12579.333333
529.080476	12560.000000
530.549054	12550.000000
532.017021	12535.000000
533.484378	12528.666667
534.951123	12518.000000
536.417259	12435.000000
537.882785	12512.333333
539.347701	12437.000000
540.812008	12519.666667
542.275707	12334.333333
543.738797	12388.333333
545.201279	12478.666667
546.663153	12390.333333
548.124420	12456.333333
549.585080	12436.666667
551.045133	12464.666667
552.504579	12494.000000
553.963420	12468.666667
555.421655	12588.666667
556.879285	12529.333333
558.336309	12540.666667
559.792729	12601.000000
561.248545	12607.000000
562.703756	12641.666667
564.158364	12686.000000
565.612369	12684.666667
567.065770	12708.333333
568.518569	12717.000000
569.970766	12752.000000
571.422361	12859.000000
572.873354	12918.666667
574.323745	13099.666667
575.773536	13142.666667
577.222726	13184.666667
578.671316	13265.000000
580.119306	13335.666667
581.566696	13261.333333
583.013487	13157.333333
584.459679	13234.000000
585.905273	13176.333333
587.350268	13204.333333
588.794665	13206.333333
590.238465	13172.666667
591.681667	13125.000000
593.124272	13081.333333
594.566281	12871.333333
596.007694	12749.333333
597.448510	12616.000000
598.888731	12572.000000
600.328357	12392.333333
601.767388	12397.000000
603.205824	12290.000000
604.643666	12383.333333
606.080914	12311.333333
607.517568	12293.000000
608.953629	12378.000000
610.389097	12343.333333
611.823972	12264.333333
613.258255	12169.666667
614.691946	12089.333333
616.125046	12058.666667
617.557554	12053.666667
618.989471	11877.000000
620.420798	11799.333333
621.851534	11774.000000
623.281680	11717.333333
624.711237	11584.666667
626.140204	11534.333333
627.568582	11476.666667
628.996372	11363.000000
630.423573	11354.666667
631.850186	11438.666667
633.276211	11316.666667
634.701650	11358.666667
636.126501	11292.666667
637.550765	11289.000000
638.974443	11284.666667
640.397535	11309.000000
641.820041	11277.666667
643.241961	11221.666667
644.663297	11263.666667
646.084048	11179.666667
647.504214	11264.666667
648.923796	11157.000000
650.342795	11208.000000
651.761210	11101.333333
653.179041	11097.000000
654.596290	11020.000000
656.012957	11127.666667
657.429041	11055.333333
658.844543	11034.333333
660.259464	11041.000000
661.673804	11058.000000
663.087563	10988.666667
664.500741	11113.000000
665.913339	10981.000000
667.325357	11042.333333
668.736795	11038.333333
670.147654	11032.333333
671.557934	10984.333333
672.967636	11038.333333
674.376759	10889.000000
675.785304	10894.333333
677.193271	10955.666667
678.600661	10912.333333
680.007474	10910.333333
681.413711	10851.333333
682.819370	10753.333333
684.224454	10797.333333
685.628962	10799.000000
687.032895	10889.666667
688.436252	10795.666667
689.839034	10847.666667
691.241242	10798.333333
692.642876	10795.666667
694.043936	10809.666667
695.444422	10701.000000
696.844336	10739.333333
698.243676	10712.333333
699.642443	10683.666667
701.040639	10676.666667
702.438262	10753.000000
703.835313	10638.000000
705.231794	10759.666667
706.627703	10667.666667
708.023041	10706.000000
709.417810	10721.000000
710.812008	10800.000000
712.205636	10689.333333
713.598694	10665.666667
714.991184	10615.333333
716.383105	10554.000000
717.774457	10685.000000
719.165241	10462.666667
720.555457	10550.333333
721.945105	10576.000000
723.334187	10524.333333
724.722701	10577.000000
726.110648	10599.333333
727.498030	10464.000000
728.884845	10457.333333
730.271094	10484.666667
731.656778	10522.000000
733.041897	10454.333333
734.426451	10452.000000
735.810441	10366.333333
737.193866	10473.666667
738.576728	10447.666667
739.959026	10444.000000
741.340760	10406.000000
742.721932	10353.666667
744.102541	10457.333333
745.482588	10377.000000
746.862073	10342.666667
748.240996	10354.666667
749.619358	10437.000000
750.997158	10412.333333
752.374398	10389.666667
753.751077	10348.666667
755.127197	10273.333333
756.502756	10364.000000
757.877756	10351.000000
759.252196	10332.666667
760.626078	10377.666667
761.999400	10262.333333
763.372165	10201.666667
764.744371	10237.666667
766.116020	10289.666667
767.487111	10284.666667
768.857646	10219.000000
770.227623	10206.333333
771.597044	10101.000000
772.965908	10144.666667
774.334217	10093.666667
775.701970	10141.333333
777.069168	10083.000000
778.435811	10105.666667
779.801899	10117.666667
781.167433	10078.666667
782.532412	10038.000000
783.896838	10044.000000
785.260710	10045.666667
786.624029	9995.666667
787.986796	10048.000000
789.349009	9986.333333
790.710671	9943.000000
792.071780	9962.000000
793.432338	9851.666667
794.792344	9921.000000
796.151799	9961.333333
797.510704	9894.000000
798.869058	9849.000000
800.226862	9845.000000
801.584116	9865.666667
802.940820	9839.666667
804.296975	9890.000000
805.652581	9840.000000
807.007638	9901.666667
808.362147	9920.666667
809.716108	9911.333333
811.069521	9956.666667
812.422387	9869.000000
813.774705	9824.000000
815.126476	9907.666667
816.477701	9890.666667
817.828380	9941.333333
819.178512	9854.666667
820.528099	9752.000000
821.877140	9753.000000
823.225637	9755.333333
824.573588	9765.666667
825.920995	9627.666667
827.267857	9691.666667
828.614176	9704.000000
829.959951	9722.000000
831.305183	9717.000000
832.649871	9731.000000
833.994017	9740.333333
835.337620	9680.333333
836.680681	9717.333333
838.023201	9689.666667
839.365178	9784.666667
840.706614	9657.000000
842.047510	9740.000000
843.387864	9792.000000
844.727678	9728.333333
846.066952	9815.000000
847.405687	9848.333333
848.743881	9959.333333
850.081537	9924.666667
851.418653	9950.000000
852.755231	9976.666667
854.091270	9931.666667
855.426771	9934.000000
856.761735	9892.666667
858.096160	9943.666667
859.430049	9810.000000
860.763401	9796.666667
862.096216	9798.666667
863.428495	9858.000000
864.760237	9710.333333
866.091444	9684.333333
867.422115	9713.666667
868.752252	9689.000000
870.081853	9744.666667
871.410919	9675.333333
872.739452	9694.000000
874.067450	9680.000000
875.394914	9644.333333
876.721845	9623.666667
878.048243	9621.666667
879.374108	9569.000000
880.699440	9559.333333
882.024240	9553.666667
883.348508	9464.000000
884.672244	9478.666667
885.995449	9443.000000
887.318122	9374.000000
888.640265	9442.333333
889.961877	9396.000000
891.282959	9386.333333
892.603510	9266.000000
893.923532	9337.666667
895.243024	9308.000000
896.561987	9309.000000
897.880422	9301.666667
899.198327	9228.333333
900.515705	9204.333333
901.832554	9220.666667
903.148875	9201.666667
904.464669	9185.333333
905.779936	9185.333333
907.094676	9157.666667
908.408889	9289.000000
909.722576	9245.666667
911.035737	9240.000000
912.348371	9301.000000
913.660481	9287.333333
914.972065	9369.666667
916.283124	9362.000000
917.593659	9485.333333
918.903669	9376.666667
920.213155	9460.333333
921.522117	9380.000000
922.830556	9450.666667
924.138471	9503.666667
925.445864	9482.000000
926.752733	9521.666667
928.059081	9475.666667
929.364906	9535.000000
930.670209	9583.666667
931.974991	9661.666667
933.279251	9729.666667
934.582990	9762.000000
935.886209	9937.333333
937.188907	9987.666667
938.491085	10146.333333
939.792743	10252.000000
941.093881	10375.000000
942.394500	10600.000000
943.694600	10771.333333
944.994181	11117.000000
946.293243	11479.000000
947.591787	11849.666667
948.889813	12313.666667
950.187322	12944.333333
951.484313	13680.000000
952.780787	14522.000000
954.076744	15296.666667
955.372184	15968.000000
956.667108	16775.333333
957.961516	17480.333333
959.255409	17426.333333
960.548785	17323.666667
961.841647	16748.000000
963.133993	16033.000000
964.425825	14980.000000
965.717142	14174.000000
967.007946	13080.000000
968.298235	12327.000000
969.588011	11554.666667
970.877273	10855.000000
972.166023	10471.000000
973.454259	10073.333333
974.741984	9699.000000
976.029196	9401.666667
977.315895	9195.000000
978.602084	9101.333333
979.887761	8904.333333
981.172926	8796.000000
982.457581	8764.666667
983.741725	8610.333333
985.025359	8670.000000
986.308483	8594.333333
987.591097	8557.666667
988.873202	8609.333333
990.154797	8593.666667
991.435883	8525.666667
992.716461	8534.666667
993.996530	8537.333333
995.276091	8482.000000
996.555144	8545.333333
997.833690	8619.333333
999.111728	8649.000000
1000.389259	8734.000000
1001.666283	8732.000000
1002.942800	8776.333333
1004.218812	8670.000000
1005.494317	8706.000000
1006.769317	8666.000000
1008.043811	8625.666667
1009.317799	8626.333333
1010.591283	8638.666667
1011.864263	8562.666667
1013.136737	8564.333333
1014.408708	8605.333333
1015.680175	8595.000000
1016.951138	8663.333333
1018.221598	8648.333333
1019.491554	8667.666667
1020.761008	8630.000000
1022.029959	8661.666667
1023.298408	8683.666667
1024.566355	8650.333333
1025.833800	8705.666667
1027.100744	8783.333333
1028.367187	8818.666667
1029.633128	8788.333333
1030.898569	8723.333333
1032.163509	8819.333333
1033.427949	8808.000000
1034.691890	8843.333333
1035.955330	8821.333333
1037.218271	8767.666667
1038.480714	8756.666667
1039.742657	8872.333333
1041.004101	8831.666667
1042.265048	8835.333333
1043.525496	8764.666667
1044.785446	8900.333333
1046.044899	8680.666667
1047.303855	8781.333333
1048.562313	8728.000000
1049.820275	8681.333333
1051.077740	8633.333333
1052.334709	8610.666667
1053.591182	8691.000000
1054.847160	8572.000000
1056.102641	8681.000000
1057.357628	8710.333333
1058.612120	8664.000000
1059.866117	8711.333333
1061.119619	8713.333333
1062.372628	8828.000000
1063.625142	8814.333333
1064.877163	8874.333333
1066.128691	8970.333333
1067.379725	8907.000000
1068.630267	9002.000000
1069.880316	8890.666667
1071.129872	8873.333333
1072.378937	8863.666667
1073.627509	8823.666667
1074.875590	8786.333333
1076.123180	8684.666667
1077.370279	8579.666667
1078.616887	8484.333333
1079.863004	8315.000000
1081.108631	8295.666667
1082.353768	8229.000000
1083.598415	8172.000000
1084.842573	8190.000000
1086.086241	8078.333333
1087.329421	7937.333333
1088.572111	7970.666667
1089.814314	7827.666667
1091.056028	7921.666667
1092.297253	7809.333333
1093.537992	7796.666667
1094.778242	7773.000000
1096.018006	7823.333333
1097.257282	7780.333333
1098.496072	7750.000000
1099.734376	7771.333333
1100.972193	7734.333333
1102.209524	7662.333333
1103.446370	7715.333333
1104.682730	7669.333333
1105.918604	7657.666667
1107.153994	7663.333333
1108.388900	7569.666667
1109.623320	7488.000000
1110.857257	7570.333333
1112.090710	7499.333333
1113.323679	7447.000000
1114.556164	7332.000000
1115.788167	7381.000000
1117.019686	7354.666667
1118.250723	7330.333333
1119.481278	7360.333333
1120.711350	7303.000000
1121.940940	7318.000000
1123.170049	7277.666667
1124.398676	7298.666667
1125.626823	7260.333333
1126.854488	7246.000000
1128.081672	7262.666667
1129.308376	7195.000000
1130.534600	7222.333333
1131.760345	7261.666667
1132.985609	7173.666667
1134.210394	7172.000000
1135.434700	7168.000000
1136.658527	7089.000000
1137.881875	7184.000000
1139.104745	7133.000000
1140.327136	7179.333333
1141.549050	7151.333333
1142.770486	7166.666667
1143.991445	7137.000000
1145.211926	7073.000000
1146.431931	7082.333333
1147.651459	7041.666667
1148.870510	7098.333333
1150.089086	7108.333333
1151.307185	7104.333333
1152.524808	7144.333333
1153.741957	7085.000000
1154.958630	7157.666667
1156.174828	7056.666667
1157.390551	7118.000000
1158.605800	7116.333333
1159.820574	7065.000000
1161.034875	7075.333333
1162.248702	7044.000000
1163.462055	7119.666667
1164.674936	7099.000000
1165.887343	7075.666667
1167.099277	7023.666667
1168.310739	7066.000000
1169.521729	6949.000000
1170.732247	7065.333333
1171.942293	6970.000000
1173.151867	7046.000000
1174.360970	7070.666667
1175.569602	7033.000000
1176.777764	7056.666667
1177.985454	7037.333333
1179.192675	6908.666667
1180.399425	7018.666667
1181.605706	6911.666667
1182.811517	6851.333333
1184.016859	6865.666667
1185.221731	6862.000000
1186.426135	6926.666667
1187.630070	6870.000000
1188.833537	6873.666667
1190.036535	6865.666667
1191.239066	6796.000000
1192.441129	6759.666667
1193.642725	6819.333333
1194.843853	6783.000000
1196.044515	6805.333333
1197.244710	6776.666667
1198.444438	6857.666667
1199.643701	6826.333333
1200.842497	6867.666667
1202.040827	6783.666667
1203.238693	6872.666667
1204.436092	6793.333333
1205.633027	6815.666667
1206.829497	6763.666667
1208.025503	6804.333333
1209.221044	6725.333333
1210.416122	6755.333333
1211.610735	6762.000000
1212.804885	6678.000000
1213.998572	6696.333333
1215.191795	6674.666667
1216.384556	6648.666667
1217.576854	6635.000000
1218.768689	6616.666667
1219.960063	6605.333333
1221.150974	6642.333333
1222.341424	6697.333333
1223.531413	6671.333333
1224.720940	6710.666667
1225.910006	6663.333333
1227.098612	6729.000000
1228.286757	6717.666667
1229.474442	6759.666667
1230.661667	6772.666667
1231.848432	6824.666667
1233.034738	6887.333333
1234.220584	6889.333333
1235.405971	6880.333333
1236.590900	6845.666667
1237.775369	6959.666667
1238.959381	6906.000000
1240.142934	6883.666667
1241.326029	6907.333333
1242.508667	6962.666667
1243.690848	6986.000000
1244.872571	6917.333333
1246.053837	6966.333333
1247.234646	6866.666667
1248.414999	7001.333333
1249.594896	6868.000000
1250.774337	6879.000000
1251.953322	6818.333333
1253.131851	6786.000000
1254.309925	6750.666667
1255.487544	6763.666667
1256.664708	6712.000000
1257.841417	6803.333333
1259.017673	6746.333333
1260.193473	6744.666667
1261.368820	6819.666667
1262.543714	6793.000000
1263.718154	6816.000000
1264.892140	6791.666667
1266.065674	6861.333333
1267.238755	6786.666667
1268.411383	6801.000000
1269.583559	6795.666667
1270.755283	6817.666667
1271.926555	6845.333333
1273.097375	6804.000000
1274.267744	6760.000000
1275.437662	6765.333333
1276.607129	6773.333333
1277.776145	6714.666667
1278.944711	6723.333333
1280.112827	6720.333333
1281.280492	6649.333333
1282.447708	6631.666667
1283.614474	6599.666667
1284.780791	6607.666667
1285.946659	6576.000000
1287.112078	6536.666667
1288.277048	6562.333333
1289.441570	6441.000000
1290.605644	6494.333333
1291.769270	6431.333333
1292.932448	6438.000000
1294.095178	6437.000000
1295.257461	6358.333333
1296.419298	6413.666667
1297.580687	6369.000000
1298.741630	6323.000000
1299.902126	6376.000000
1301.062177	6297.000000
1302.221781	6269.666667
1303.380940	6235.333333
1304.539653	6305.666667
1305.697921	6295.333333
1306.855744	6790.000000
1308.013123	6780.333333
1309.170056	6280.000000
1310.326546	6256.000000
1311.482591	6322.333333
1312.638193	6299.333333
1313.793350	6313.666667
1314.948065	6267.666667
1316.102336	6297.000000
1317.256164	6274.666667
1318.409550	6299.000000
1319.562493	6274.333333
1320.714993	6253.666667
1321.867052	6271.333333
1323.018668	6214.000000
1324.169843	6095.666667
1325.320577	6129.666667
1326.470870	6136.333333
1327.620721	6121.666667
1328.770132	6185.000000
1329.919102	6095.666667
1331.067632	6061.666667
1332.215722	6064.666667
1333.363372	6065.666667
1334.510582	6118.666667
1335.657353	6067.333333
1336.803685	6099.666667
1337.949578	6196.666667
1339.095032	6125.333333
1340.240048	6055.000000
1341.384625	6051.666667
1342.528764	6089.666667
1343.672466	6067.000000
1344.815729	6116.000000
1345.958556	6069.666667
1347.100945	6046.000000
1348.242897	5995.333333
1349.384413	6001.333333
1350.525492	6009.000000
1351.666134	6060.666667
1352.806341	5919.666667
1353.946111	6002.666667
1355.085446	5941.666667
1356.224346	5872.666667
1357.362810	5918.000000
1358.500840	5899.000000
1359.638434	5889.000000
1360.775594	5833.000000
1361.912320	5837.333333
1363.048612	5834.333333
1364.184469	5868.333333
1365.319893	5862.333333
1366.454884	5851.000000
1367.589441	5857.333333
1368.723566	5850.000000
1369.857257	5899.000000
1370.990516	5826.666667
1372.123343	5896.666667
1373.255737	5883.333333
1374.387699	5834.666667
1375.519230	5900.333333
1376.650329	5947.666667
1377.780997	5867.666667
1378.911234	5913.000000
1380.041040	5900.666667
1381.170416	5875.000000
1382.299361	5905.666667
1383.427875	5830.000000
1384.555960	5868.666667
1385.683615	5874.666667
1386.810841	5893.000000
1387.937637	5844.000000
1389.064004	5872.666667
1390.189942	5741.333333
1391.315451	5852.000000
1392.440532	5827.333333
1393.565185	5831.000000
1394.689409	5839.333333
1395.813206	5814.000000
1396.936575	5781.000000
1398.059517	5729.666667
1399.182032	5762.333333
1400.304119	5762.666667
1401.425780	5702.666667
1402.547014	5759.333333
1403.667822	5731.666667
1404.788204	5722.666667
1405.908160	5687.666667
1407.027690	5665.333333
1408.146795	5707.333333
1409.265474	5700.000000
1410.383728	5720.333333
1411.501558	5656.666667
1412.618963	5728.666667
1413.735943	5759.000000
1414.852499	5746.666667
1415.968632	5792.333333
1417.084340	5726.666667
1418.199625	5714.333333
1419.314486	5786.666667
1420.428925	5763.333333
1421.542940	5764.000000
1422.656533	5827.666667
1423.769703	5843.666667
1424.882451	5680.333333
1425.994777	5741.666667
1427.106680	5709.666667
1428.218163	5670.666667
1429.329223	5704.333333
1430.439863	5669.000000
1431.550081	5624.333333
1432.659879	5664.000000
1433.769256	5629.666667
1434.878212	5669.666667
1435.986749	5638.000000
1437.094865	5713.666667
1438.202562	5672.666667
1439.309839	5682.333333
1440.416696	5728.666667
1441.523135	5673.000000
1442.629154	5717.000000
1443.734755	5797.000000
1444.839937	5775.000000
1445.944701	5731.333333
1447.049047	5870.333333
1448.152975	5880.666667
1449.256485	5799.333333
1450.359577	5841.333333
1451.462253	5801.000000
1452.564511	5732.000000
1453.666352	5798.333333
1454.767777	5797.000000
1455.868785	5784.333333
1456.969377	5717.666667
1458.069553	5716.666667
1459.169313	5706.000000
1460.268658	5669.666667
1461.367587	5649.333333
1462.466101	5594.000000
1463.564200	5582.000000
1464.661884	5545.000000
1465.759153	5526.666667
1466.856008	5430.333333
1467.952449	5436.000000
1469.048476	5397.000000
1470.144089	5372.333333
1471.239288	5315.000000
1472.334074	5289.333333
1473.428447	5258.666667
1474.522407	5222.333333
1475.615955	5212.666667
1476.709089	5123.000000
1477.801812	5103.333333
1478.894122	5142.333333
1479.986020	5146.333333
1481.077506	5127.666667
1482.168581	5048.000000
1483.259245	5051.666667
1484.349498	5096.666667
1485.439339	5099.333333
1486.528770	5025.666667
1487.617790	5038.333333
1488.706400	5007.333333
1489.794600	5019.666667
1490.882390	5004.333333
1491.969771	5002.333333
1493.056742	4998.333333
1494.143303	4948.666667
1495.229456	4993.000000
1496.315199	4927.000000
1497.400534	4949.666667
1498.485460	4918.333333
1499.569978	4970.666667
1500.654088	4948.666667
1501.737790	4860.000000
1502.821085	4838.333333
1503.903972	4891.666667
1504.986451	4865.333333
1506.068524	4854.000000
1507.150189	4893.666667
1508.231448	4764.000000
1509.312301	4783.666667
1510.392747	4784.000000
1511.472787	4842.333333
1512.552422	4737.000000
1513.631650	4772.000000
1514.710473	4804.000000
1515.788891	4805.000000
1516.866904	4727.666667
1517.944512	4760.666667
1519.021715	4754.666667
1520.098513	4761.333333
1521.174908	4709.333333
1522.250898	4740.666667
1523.326485	4735.000000
1524.401667	4759.000000
1525.476447	4743.000000
1526.550823	4721.000000
1527.624796	4746.666667
1528.698365	4740.333333
1529.771533	4755.333333
1530.844298	4736.333333
1531.916660	4738.666667
1532.988620	4722.333333
1534.060179	4686.000000
1535.131336	4744.000000
1536.202091	4663.000000
1537.272445	4719.666667
1538.342398	4694.666667
1539.411950	4652.000000
1540.481101	4659.666667
1541.549851	4639.000000
1542.618202	4638.666667
1543.686152	4622.666667
1544.753702	4638.666667
1545.820853	4624.000000
1546.887604	4660.333333
1547.953955	4600.333333
1549.019908	4585.000000
1550.085461	4607.000000
1551.150616	4648.666667
1552.215372	4633.000000
1553.279730	4583.000000
1554.343690	4629.000000
1555.407252	4579.333333
1556.470415	4542.000000
1557.533182	4520.333333
1558.595551	4523.000000
1559.657522	4558.666667
1560.719097	4572.000000
1561.780275	4553.333333
1562.841056	4514.666667
1563.901441	4519.333333
1564.961429	4496.666667
1566.021022	4541.666667
1567.080219	4528.000000
1568.139020	4506.666667
1569.197425	4437.666667
1570.255436	4522.333333
1571.313051	4510.000000
1572.370271	4549.000000
1573.427097	4499.333333
1574.483528	4527.000000
1575.539565	4439.000000
1576.595208	4474.000000
1577.650457	4477.666667
1578.705312	4479.666667
1579.759774	4442.000000
1580.813842	4436.666667
1581.867517	4432.000000
1582.920799	4373.666667
1583.973689	4386.000000
1585.026186	4422.666667
1586.078290	4349.333333
1587.130002	4382.333333
1588.181323	4321.000000
1589.232251	4342.333333
1590.282788	4361.000000
1591.332933	4337.333333
1592.382688	4264.333333
1593.432051	4372.666667
1594.481023	4316.666667
1595.529605	4278.000000
1596.577796	4316.666667
1597.625597	4318.000000
1598.673007	4366.000000
1599.720028	4395.000000
1600.766660	4336.666667
1601.812901	4393.000000
1602.858753	4411.666667
1603.904217	4299.666667
1604.949291	4372.000000
1605.993976	4405.666667
1607.038273	4379.333333
1608.082182	4354.333333
1609.125702	4353.666667
1610.168834	4292.000000
1611.211579	4303.333333
1612.253935	4322.333333
1613.295905	4317.666667
1614.337487	4298.333333
1615.378682	4268.000000
1616.419490	4311.000000
1617.459912	4257.000000
1618.499946	4302.333333
1619.539595	4253.333333
1620.578858	4297.666667
1621.617734	4274.000000
1622.656225	4328.666667
1623.694330	4343.333333
1624.732050	4277.000000
1625.769385	4287.666667
1626.806334	4296.000000
1627.842899	4269.333333
1628.879079	4271.666667
1629.914875	4277.000000
1630.950286	4257.333333
1631.985314	4279.000000
1633.019957	4341.666667
1634.054217	4275.333333
1635.088093	4346.666667
1636.121586	4290.666667
1637.154696	4263.333333
1638.187423	4273.333333
1639.219767	4314.666667
1640.251728	4311.666667
1641.283307	4323.666667
1642.314504	4304.000000
1643.345319	4342.666667
1644.375751	4268.000000
1645.405803	4316.666667
1646.435472	4304.666667
1647.464761	4240.000000
1648.493668	4278.666667
1649.522194	4277.333333
1650.550340	4315.666667
1651.578105	4303.000000
1652.605490	4312.666667
1653.632494	4318.000000
1654.659119	4292.000000
1655.685363	4231.666667
1656.711228	4188.000000
1657.736714	4282.333333
1658.761820	4171.666667
1659.786547	4224.000000
1660.810895	4238.000000
1661.834865	4227.333333
1662.858456	4205.666667
1663.881668	4217.333333
1664.904503	4227.666667
1665.926959	4226.666667
1666.949038	4180.333333
1667.970739	4162.666667
1668.992062	4137.000000
1670.013008	4101.000000
1671.033577	4153.666667
1672.053770	4122.666667
1673.073585	4076.000000
1674.093024	4070.000000
1675.112086	4114.666667
1676.130773	4064.333333
1677.149083	4068.666667
1678.167017	4078.333333
1679.184576	4009.333333
1680.201760	4074.000000
1681.218568	4026.000000
1682.235001	4017.000000
1683.251059	4013.333333
1684.266742	3984.333333
1685.282051	3993.666667
1686.296985	4017.333333
1687.311546	3957.666667
1688.325732	3950.333333
1689.339544	3901.666667
1690.352983	3860.333333
1691.366048	3848.333333
1692.378740	3898.000000
1693.391058	3763.000000
1694.403004	3860.666667
1695.414577	3849.000000
1696.425778	3791.666667
1697.436606	3784.000000
1698.447061	3778.000000
1699.457145	3661.333333
1700.466857	3712.333333
1701.476197	3613.333333
1702.485166	3640.000000
1703.493763	3668.666667
1704.501989	3621.333333
1705.509844	3644.000000
1706.517328	3608.000000
1707.524442	3597.000000
1708.531185	3636.666667
1709.537558	3553.666667
1710.543561	3571.666667
1711.549194	3543.333333
1712.554457	3555.666667
1713.559351	3570.333333
1714.563875	3540.000000
1715.568030	3577.000000
1716.571816	3513.666667
1717.575233	3529.000000
1718.578282	3541.666667
1719.580962	3553.333333
1720.583273	3537.333333
1721.585217	3584.000000
1722.586792	3545.000000
1723.588000	3606.333333
1724.588840	3542.666667
1725.589312	3552.333333
1726.589418	3550.666667
1727.589156	3583.333333
1728.588527	3765.000000
1729.587532	3890.333333
1730.586170	3825.333333
1731.584441	3999.000000
1732.582346	3743.666667
1733.579886	3856.666667
1734.577059	4103.000000
1735.573867	3756.666667
1736.570309	4026.333333
1737.566386	3903.666667
1738.562097	3950.666667
1739.557444	3663.333333
1740.552426	3442.000000
1741.547043	3424.000000
1742.541295	3410.666667
1743.535184	3457.000000
1744.528708	3409.333333
1745.521868	3388.333333
1746.514664	3398.333333
1747.507097	3411.333333
1748.499166	3378.000000
1749.490873	3382.666667
1750.482216	3355.333333
1751.473196	3331.000000
1752.463813	3338.333333
1753.454068	3347.666667
1754.443960	3349.333333
1755.433490	3366.000000
1756.422658	3348.333333
1757.411464	3307.333333
1758.399908	3333.000000
1759.387991	3351.000000
1760.375713	3333.666667
1761.363073	3338.666667
1762.350072	3371.000000
1763.336711	3334.000000
1764.322988	3317.666667
1765.308905	3335.000000
1766.294462	3322.000000
1767.279659	3289.000000
1768.264496	3264.000000
1769.248972	3292.000000
1770.233089	3233.666667
1771.216847	3324.333333
1772.200245	3217.000000
1773.183284	3250.000000
1774.165965	3188.000000
1775.148286	3239.333333
1776.130249	3226.333333
1777.111853	3218.000000
1778.093099	3218.000000
1779.073987	3215.000000
1780.054517	3185.333333
1781.034689	3171.000000
1782.014503	3187.000000
1782.993960	3175.333333
1783.973060	3115.666667
1784.951802	3116.666667
1785.930188	3127.666667
1786.908217	3052.333333
1787.885889	3059.333333
1788.863205	3077.000000
1789.840164	3085.000000
1790.816768	3065.000000
1791.793015	3099.000000
1792.768907	3044.000000
1793.744443	3083.666667
1794.719624	3049.333333
1795.694449	3068.000000
1796.668919	3056.333333
1797.643035	3072.666667
1798.616795	3073.666667
1799.590201	3058.666667
1800.563253	3043.666667
1801.535950	3094.000000
1802.508294	3038.666667
1803.480283	3045.333333
1804.451919	3061.666667
1805.423201	3051.666667
1806.394129	3034.666667
1807.364705	3041.000000
1808.334927	3015.000000
1809.304796	3050.666667
1810.274313	3060.666667
1811.243477	3058.000000
1812.212288	3037.666667
1813.180747	2982.333333
1814.148855	3081.333333
1815.116610	3064.333333
1816.084013	3041.000000
1817.051065	3037.666667
1818.017766	2997.000000
1818.984115	3047.666667
1819.950113	2956.333333
1820.915760	3039.000000
1821.881057	3006.000000
1822.846003	3009.000000
1823.810598	2959.000000
1824.774843	2993.333333
1825.738738	2960.000000
1826.702283	2916.666667
1827.665479	2938.666667
1828.628324	2887.000000
1829.590821	2895.000000
1830.552968	2929.666667
1831.514765	2913.333333
1832.476214	2934.666667
1833.437314	2910.000000
1834.398066	2900.666667
1835.358469	2948.333333
1836.318524	2860.333333
1837.278230	2816.000000
1838.237589	2853.666667
1839.196600	2876.000000
1840.155263	2903.333333
1841.113578	2914.333333
1842.071547	2906.333333
1843.029168	2866.666667
1843.986442	2918.000000
1844.943369	2916.333333
1845.899950	2907.000000
1846.856184	2891.666667
1847.812072	2933.000000
1848.767614	2914.000000
1849.722809	2897.333333
1850.677659	2928.333333
1851.632163	2916.666667
1852.586322	2921.333333
1853.540135	2882.000000
1854.493603	2915.333333
1855.446726	2882.000000
1856.399504	2892.333333
1857.351937	2919.000000
1858.304026	2888.000000
1859.255770	2853.333333
1860.207170	2821.333333
1861.158227	2825.333333
1862.108939	2847.666667
1863.059307	2793.333333
1864.009332	2807.333333
1864.959013	2824.666667
1865.908351	2800.666667
1866.857346	2801.000000
1867.805998	2764.000000
1868.754307	2778.333333
1869.702274	2806.333333
1870.649898	2767.000000
1871.597180	2719.000000
1872.544119	2733.000000
1873.490717	2729.666667
1874.436973	2713.333333
1875.382887	2743.000000
1876.328459	2727.666667
1877.273691	2688.333333
1878.218581	2748.666667
1879.163130	2734.000000
1880.107338	2698.000000
1881.051205	2713.666667
1881.994732	2692.000000
1882.937919	2702.666667
1883.880765	2724.666667
1884.823271	2724.000000
1885.765437	2728.000000
1886.707264	2711.000000
1887.648750	2716.333333
1888.589898	2700.000000
1889.530706	2744.333333
1890.471175	2769.000000
1891.411305	2736.666667
1892.351096	2686.333333
1893.290548	2738.000000
1894.229662	2738.333333
1895.168438	2687.000000
1896.106876	2731.666667
1897.044975	2698.666667
1897.982737	2720.000000
1898.920160	2699.666667
1899.857247	2680.666667
1900.793996	2710.333333
1901.730407	2711.666667
1902.666482	2659.333333
1903.602219	2642.333333
1904.537620	2666.666667
1905.472685	2637.000000
1906.407412	2624.333333
1907.341804	2590.333333
1908.275859	2580.333333
1909.209579	2576.333333
1910.142962	2589.666667
1911.076010	2564.000000
1912.008722	2543.000000
1912.941099	2547.333333
1913.873141	2508.666667
1914.804848	2522.000000
1915.736219	2530.666667
1916.667256	2507.333333
1917.597959	2497.333333
1918.528327	2477.333333
1919.458360	2487.000000
1920.388060	2512.000000
1921.317426	2455.000000
1922.246457	2488.000000
1923.175156	2493.666667
1924.103520	2483.000000
1925.031552	2458.000000
1925.959250	2514.333333
1926.886615	2490.666667
1927.813647	2494.000000
1928.740346	2503.000000
1929.666713	2569.000000
1930.592748	2508.666667
1931.518450	2497.333333
1932.443820	2484.666667
1933.368858	2490.666667
1934.293564	2499.000000
1935.217939	2482.666667
1936.141982	2485.000000
1937.065694	2465.000000
1937.989074	2476.666667
1938.912124	2490.000000
1939.834842	2509.666667
1940.757230	2493.000000
1941.679287	2431.666667
1942.601014	2473.333333
1943.522411	2432.000000
1944.443477	2445.666667
1945.364214	2434.666667
1946.284621	2390.666667
1947.204698	2419.000000
1948.124445	2412.666667
1949.043863	2410.333333
1949.962952	2373.000000
1950.881712	2365.666667
1951.800143	2378.333333
1952.718245	2385.000000
1953.636019	2352.666667
1954.553464	2343.666667
1955.470581	2315.333333
1956.387369	2299.666667
1957.303830	2333.666667
1958.219963	2354.000000
1959.135768	2310.000000
1960.051246	2301.000000
1960.966396	2321.333333
1961.881219	2306.000000
1962.795715	2322.000000
1963.709883	2297.333333
1964.623726	2320.333333
1965.537241	2302.666667
1966.450430	2326.666667
1967.363293	2344.333333
1968.275829	2324.333333
1969.188040	2324.000000
1970.099924	2361.000000
1971.011483	2336.000000
1971.922716	2344.000000
1972.833624	2349.333333
1973.744206	2344.000000
1974.654464	2356.333333
1975.564396	2350.666667
1976.474004	2325.333333
1977.383286	2338.000000
1978.292245	2324.666667
1979.200878	2353.666667
1980.109188	2320.666667
1981.017174	2297.333333
1981.924835	2279.666667
1982.832173	2292.666667
1983.739187	2268.333333
1984.645878	2284.000000
1985.552245	2270.000000
1986.458289	2286.666667
1987.364010	2228.333333
1988.269408	2249.000000
1989.174484	2270.000000
1990.079236	2203.000000
1990.983667	2219.666667
1991.887775	2171.000000
1992.791561	2233.000000
1993.695024	2217.333333
1994.598166	2196.000000
1995.500986	2161.666667
1996.403485	2190.333333
1997.305662	2204.000000
1998.207518	2180.000000
1999.109053	2182.666667
