200.151048	26158.000000
201.758777	26034.000000
203.365815	25879.666667
204.972162	25781.000000
206.577820	25823.333333
208.182787	25701.666667
209.787065	25584.000000
211.390653	25437.333333
212.993553	25633.000000
214.595765	25292.333333
216.197289	25496.333333
217.798125	25434.333333
219.398274	25255.666667
220.997737	25262.333333
222.596513	25280.666667
224.194603	25480.666667
225.792008	25279.333333
227.388728	25279.666667
228.984763	25173.000000
230.580114	25125.000000
232.174781	25097.333333
233.768765	24990.000000
235.362065	25062.000000
236.954683	25021.000000
238.546619	24851.666667
240.137872	24731.000000
241.728445	24759.333333
243.318336	24707.333333
244.907546	24659.333333
246.496076	24599.666667
248.083926	24540.666667
249.671097	24443.000000
251.257589	24430.000000
252.843402	24247.333333
254.428536	24302.000000
256.012993	24166.000000
257.596772	24175.666667
259.179874	24094.333333
260.762300	24036.666667
262.344049	24046.666667
263.925122	24068.000000
265.505519	23916.333333
267.085241	24080.333333
268.664289	24013.000000
270.242662	23892.666667
271.820361	23956.000000
273.397387	23768.000000
274.973740	23832.333333
276.549419	23938.000000
278.124426	23850.666667
279.698762	23846.333333
281.272425	23978.000000
282.845417	23875.000000
284.417739	23859.000000
285.989390	24060.000000
287.560371	24003.333333
289.130682	24010.000000
290.700324	24032.333333
292.269297	23995.333333
293.837602	23894.333333
295.405238	23885.333333
296.972207	23818.666667
298.538508	23927.666667
300.104142	23931.333333
301.669110	23756.000000
303.233411	23690.333333
304.797047	23571.333333
306.360017	23519.333333
307.922322	23609.666667
309.483963	23491.333333
311.044939	23422.666667
312.605252	23250.333333
314.164900	23353.666667
315.723886	23184.333333
317.282209	23093.000000
318.839870	23102.666667
320.396868	22988.000000
321.953205	22986.333333
323.508881	22990.000000
325.063896	23038.666667
326.618251	22929.333333
328.171945	22777.333333
329.724980	22865.666667
331.277356	22806.333333
332.829072	22874.000000
334.380131	22826.000000
335.930530	22760.333333
337.480273	22745.666667
339.029357	22833.666667
340.577785	22751.666667
342.125556	22749.333333
343.672671	22888.000000
345.219130	22667.333333
346.764933	22691.000000
348.310081	22695.000000
349.854575	22650.333333
351.398414	22634.666667
352.941599	22580.666667
354.484130	22480.666667
356.026008	22571.666667
357.567234	22616.333333
359.107807	22452.666667
360.647727	22337.666667
362.186996	22382.333333
363.725614	22248.666667
365.263580	22257.000000
366.800896	22368.666667
368.337562	22243.666667
369.873578	22328.666667
371.408944	22143.000000
372.943661	22277.666667
374.477730	22255.000000
376.011150	22316.000000
377.543922	22320.000000
379.076046	22300.000000
380.607523	22277.333333
382.138353	22399.666667
383.668537	22202.000000
385.198075	22389.666667
386.726966	22319.000000
388.255213	22371.333333
389.782814	22398.666667
391.309770	22383.333333
392.836083	22591.000000
394.361751	22368.333333
395.886776	22604.666667
397.411157	22422.666667
398.934896	22433.333333
400.457992	22682.000000
401.980446	22592.333333
403.502258	22550.333333
405.023429	22584.333333
406.543959	22606.000000
408.063849	22720.666667
409.583098	22674.333333
411.101707	22728.000000
412.619677	22886.000000
414.137007	22878.000000
415.653699	23155.333333
417.169752	23129.000000
418.685167	23325.000000
420.199945	23394.000000
421.714085	23573.666667
423.227588	23659.333333
424.740454	23636.333333
426.252684	23844.666667
427.764279	23765.000000
429.275238	23909.333333
430.785561	23776.333333
432.295250	23637.000000
433.804304	23490.666667
435.312725	23318.000000
436.820511	23257.333333
438.327664	23094.666667
439.834185	22914.333333
441.340072	22771.000000
442.845327	22753.666667
444.349951	22623.666667
445.853942	22548.666667
447.357303	22518.333333
448.860033	22453.000000
450.362132	22419.000000
451.863601	22264.666667
453.364440	22150.666667
454.864650	22084.000000
456.364231	22004.333333
457.863183	21650.666667
459.361507	21741.666667
460.859203	21601.666667
462.356271	21508.666667
463.852712	21401.666667
465.348526	21297.000000
466.843714	21235.666667
468.338275	21165.000000
469.832210	21140.666667
471.325520	21041.333333
472.818205	20934.666667
474.310265	20951.000000
475.801700	20886.666667
477.292512	20924.333333
478.782700	20866.000000
480.272264	20896.000000
481.761205	20845.666667
483.249524	20850.333333
484.737221	20653.000000
486.224295	20638.333333
487.710748	20560.000000
489.196579	20535.333333
490.681790	20463.666667
492.166380	20446.333333
493.650350	20573.000000
495.133700	20465.333333
496.616431	20502.000000
498.098542	20524.333333
499.580035	20473.666667
501.060909	20477.000000
502.541165	20499.333333
504.020804	20582.000000
505.499825	20467.333333
506.978228	20279.333333
508.456016	20291.666667
509.933186	20304.666667
511.409741	20088.666667
512.885680	20091.666667
514.361004	20206.000000
515.835713	20224.000000
517.309807	20272.333333
518.783287	20279.000000
520.256153	20149.000000
521.728406	20298.000000
523.200045	20206.000000
524.671071	20324.000000
526.141485	20215.666667
527.611287	20217.666667
529.080476	20285.333333
530.549054	20314.333333
532.017021	20276.000000
533.484378	20242.000000
534.951123	20282.000000
536.417259	20233.000000
537.882785	20194.333333
539.347701	20148.000000
540.812008	20126.000000
542.275707	20056.333333
543.738797	20047.333333
545.201279	20169.666667
546.663153	20289.000000
548.124420	20110.000000
549.585080	20394.666667
551.045133	20498.000000
552.504579	20428.333333
553.963420	20412.333333
555.421655	20572.666667
556.879285	20382.333333
558.336309	20402.666667
559.792729	20435.333333
561.248545	20578.000000
562.703756	20481.000000
564.158364	20507.333333
565.612369	20627.000000
567.065770	20676.000000
568.518569	20716.333333
569.970766	20785.000000
571.422361	20817.666667
572.873354	20827.666667
574.323745	20946.666667
575.773536	21041.666667
577.222726	21025.000000
578.671316	21007.333333
580.119306	21110.000000
581.566696	20972.666667
583.013487	20898.000000
584.459679	20730.666667
585.905273	20808.666667
587.350268	20590.000000
588.794665	20530.666667
590.238465	20721.000000
591.681667	20810.666667
593.124272	20644.000000
594.566281	20471.000000
596.007694	20467.333333
597.448510	20376.333333
598.888731	20194.000000
600.328357	20245.666667
601.767388	20180.333333
603.205824	20163.666667
604.643666	20114.000000
606.080914	20013.333333
607.517568	19978.333333
608.953629	20030.000000
610.389097	20103.666667
611.823972	20022.666667
613.258255	19965.333333
614.691946	19987.000000
616.125046	19834.333333
617.557554	19840.333333
618.989471	19564.333333
620.420798	19590.000000
621.851534	19500.333333
623.281680	19258.666667
624.711237	19183.666667
626.140204	18959.333333
627.568582	19065.333333
628.996372	18822.333333
630.423573	18972.333333
631.850186	18862.333333
633.276211	18863.333333
634.701650	18856.000000
636.126501	18855.000000
637.550765	18888.666667
638.974443	18822.000000
640.397535	18955.000000
641.820041	18837.000000
643.241961	18852.333333
644.663297	18903.666667
646.084048	18839.666667
647.504214	18698.000000
648.923796	18720.666667
650.342795	18661.666667
651.761210	18463.333333
653.179041	18579.000000
654.596290	18523.666667
656.012957	18459.333333
657.429041	18446.666667
658.844543	18380.000000
660.259464	18396.666667
661.673804	18536.000000
663.087563	18360.333333
664.500741	18441.000000
665.913339	18374.333333
667.325357	18349.333333
668.736795	18483.000000
670.147654	18437.000000
671.557934	18465.000000
672.967636	18255.666667
674.376759	18272.000000
675.785304	18258.000000
677.193271	18332.000000
678.600661	18164.000000
680.007474	18231.000000
681.413711	18210.666667
682.819370	18144.666667
684.224454	18236.000000
685.628962	18248.000000
687.032895	18262.333333
688.436252	18208.333333
689.839034	18365.333333
691.241242	18210.666667
692.642876	18185.000000
694.043936	18212.000000
695.444422	18151.000000
696.844336	18035.000000
698.243676	17946.666667
699.642443	17991.333333
701.040639	18041.666667
702.438262	18022.333333
703.835313	17951.666667
705.231794	18067.333333
706.627703	18046.000000
708.023041	18116.000000
709.417810	18001.666667
710.812008	17990.333333
712.205636	17993.666667
713.598694	17870.000000
714.991184	17992.333333
716.383105	17843.000000
717.774457	17923.666667
719.165241	17895.333333
720.555457	17921.333333
721.945105	17975.000000
723.334187	17715.666667
724.722701	17976.000000
726.110648	17909.666667
727.498030	17993.666667
728.884845	17792.666667
730.271094	17861.000000
731.656778	17792.000000
733.041897	17888.333333
734.426451	17826.666667
735.810441	17720.333333
737.193866	17706.000000
738.576728	17702.000000
739.959026	17734.333333
741.340760	17772.000000
742.721932	17839.666667
744.102541	17621.333333
745.482588	17765.333333
746.862073	17670.666667
748.240996	17714.333333
749.619358	17716.666667
750.997158	17658.333333
752.374398	17808.333333
753.751077	17822.666667
755.127197	17702.000000
756.502756	17761.333333
757.877756	17669.666667
759.252196	17747.333333
760.626078	17805.333333
761.999400	17614.666667
763.372165	17436.000000
764.744371	17638.666667
766.116020	17544.000000
767.487111	17598.333333
768.857646	17524.333333
770.227623	17419.666667
771.597044	17487.666667
772.965908	17391.000000
774.334217	17334.000000
775.701970	17499.666667
777.069168	17332.333333
778.435811	17341.000000
779.801899	17333.666667
781.167433	17328.666667
782.532412	17395.000000
783.896838	17291.000000
785.260710	17211.666667
786.624029	17292.333333
787.986796	17239.666667
789.349009	17174.666667
790.710671	17202.333333
792.071780	17138.000000
793.432338	17162.333333
794.792344	17155.000000
796.151799	17102.000000
797.510704	17078.000000
798.869058	17024.333333
800.226862	17049.666667
801.584116	16996.000000
802.940820	17129.333333
804.296975	17024.000000
805.652581	17085.333333
807.007638	17145.666667
808.362147	17213.000000
809.716108	17167.000000
811.069521	17175.000000
812.422387	17209.000000
813.774705	17178.333333
815.126476	17101.333333
816.477701	17145.666667
817.828380	17140.333333
819.178512	17106.666667
820.528099	17106.000000
821.877140	17114.000000
823.225637	16796.666667
824.573588	17043.333333
825.920995	16883.000000
827.267857	16923.333333
828.614176	16938.000000
829.959951	16886.666667
831.305183	16953.666667
832.649871	16850.000000
833.994017	16837.666667
835.337620	16890.333333
836.680681	16828.333333
838.023201	16876.333333
839.365178	16793.000000
840.706614	16880.000000
842.047510	17028.333333
843.387864	16994.333333
844.727678	17034.333333
846.066952	16983.666667
847.405687	17108.333333
848.743881	17052.666667
850.081537	17198.333333
851.418653	17257.000000
852.755231	17148.000000
854.091270	17176.666667
855.426771	17224.666667
856.761735	17121.666667
858.096160	17060.666667
859.430049	16985.000000
860.763401	17047.333333
862.096216	16853.666667
863.428495	16843.333333
864.760237	17005.000000
866.091444	16805.333333
867.422115	16949.333333
868.752252	16915.333333
870.081853	16922.666667
871.410919	16750.666667
872.739452	16784.000000
874.067450	16756.666667
875.394914	16739.000000
876.721845	16811.333333
878.048243	16620.000000
879.374108	16701.333333
880.699440	16508.333333
882.024240	16611.666667
883.348508	16444.000000
884.672244	16402.666667
885.995449	16462.000000
887.318122	16312.000000
888.640265	16401.666667
889.961877	16407.666667
891.282959	16257.666667
892.603510	16247.333333
893.923532	16248.333333
895.243024	16198.666667
896.561987	16232.666667
897.880422	16213.666667
899.198327	16174.333333
900.515705	16075.666667
901.832554	16134.000000
903.148875	16093.000000
904.464669	16159.000000
905.779936	16060.333333
907.094676	16260.666667
908.408889	16170.000000
909.722576	16125.000000
911.035737	16251.333333
912.348371	16244.000000
913.660481	16302.666667
914.972065	16401.666667
916.283124	16424.333333
917.593659	16432.000000
918.903669	16496.333333
920.213155	16443.333333
921.522117	16434.666667
922.830556	16416.666667
924.138471	16446.000000
925.445864	16404.000000
926.752733	16486.000000
928.059081	16513.666667
929.364906	16496.666667
930.670209	16589.333333
931.974991	16617.000000
933.279251	16713.666667
934.582990	16831.333333
935.886209	16879.666667
937.188907	17002.333333
938.491085	17262.666667
939.792743	17360.666667
941.093881	17657.000000
942.394500	17749.666667
943.694600	18057.000000
944.994181	18462.666667
946.293243	18766.666667
947.591787	19317.666667
948.889813	19758.666667
950.187322	20399.333333
951.484313	20994.333333
952.780787	21990.666667
954.076744	22729.000000
955.372184	23433.666667
956.667108	23984.333333
957.961516	24386.000000
959.255409	24561.333333
960.548785	24190.333333
961.841647	23602.000000
963.133993	22740.666667
964.425825	21666.666667
965.717142	20835.666667
967.007946	19913.666667
968.298235	18893.333333
969.588011	18068.000000
970.877273	17505.000000
972.166023	17081.333333
973.454259	16572.333333
974.741984	16389.333333
976.029196	16088.000000
977.315895	15884.666667
978.602084	15682.333333
979.887761	15553.333333
981.172926	15476.000000
982.457581	15313.666667
983.741725	15355.333333
985.025359	15178.000000
986.308483	15185.000000
987.591097	15127.333333
988.873202	14924.000000
990.154797	15111.000000
991.435883	15010.333333
992.716461	15005.333333
993.996530	15025.000000
995.276091	14962.000000
996.555144	15098.666667
997.833690	15142.666667
999.111728	15170.000000
1000.389259	15318.333333
1001.666283	15361.000000
1002.942800	15406.333333
1004.218812	15171.333333
1005.494317	15188.000000
1006.769317	15194.666667
1008.043811	15056.333333
1009.317799	15073.666667
1010.591283	15042.000000
1011.864263	15056.333333
1013.136737	15021.000000
1014.408708	15033.000000
1015.680175	15054.666667
1016.951138	15050.666667
1018.221598	15123.666667
1019.491554	14962.666667
1020.761008	15205.666667
1022.029959	15130.333333
1023.298408	15117.666667
1024.566355	15148.333333
1025.833800	15162.666667
1027.100744	15154.333333
1028.367187	15091.333333
1029.633128	15039.666667
1030.898569	15138.333333
1032.163509	15070.666667
1033.427949	15088.333333
1034.691890	15211.666667
1035.955330	15164.333333
1037.218271	15184.666667
1038.480714	15218.666667
1039.742657	15211.333333
1041.004101	15223.333333
1042.265048	15318.666667
1043.525496	15260.666667
1044.785446	15293.666667
1046.044899	15189.000000
1047.303855	15184.666667
1048.562313	15172.333333
1049.820275	15077.333333
1051.077740	15051.000000
1052.334709	15135.333333
1053.591182	15091.000000
1054.847160	15076.333333
1056.102641	14995.333333
1057.357628	15088.666667
1058.612120	15065.000000
1059.866117	15108.000000
1061.119619	15172.666667
1062.372628	15114.000000
1063.625142	15264.666667
1064.877163	15305.666667
1066.128691	15266.333333
1067.379725	15302.333333
1068.630267	15480.000000
1069.880316	15352.333333
1071.129872	15261.000000
1072.378937	15130.666667
1073.627509	15142.333333
1074.875590	15014.333333
1076.123180	14947.333333
1077.370279	14814.333333
1078.616887	14731.666667
1079.863004	14728.000000
1081.108631	14515.333333
1082.353768	14541.666667
1083.598415	14412.000000
1084.842573	14169.666667
1086.086241	14187.333333
1087.329421	14203.333333
1088.572111	14132.666667
1089.814314	14026.333333
1091.056028	14088.666667
1092.297253	14037.666667
1093.537992	13950.000000
1094.778242	13807.333333
1096.018006	13900.666667
1097.257282	13869.000000
1098.496072	13915.000000
1099.734376	13838.666667
1100.972193	13805.666667
1102.209524	13782.666667
1103.446370	13720.666667
1104.682730	13758.000000
1105.918604	13647.000000
1107.153994	13580.666667
1108.388900	13580.666667
1109.623320	13449.000000
1110.857257	13471.666667
1112.090710	13473.333333
1113.323679	13348.000000
1114.556164	13378.000000
1115.788167	13287.666667
1117.019686	13289.000000
1118.250723	13247.666667
1119.481278	13191.333333
1120.711350	13277.000000
1121.940940	13247.000000
1123.170049	13134.000000
1124.398676	13180.666667
1125.626823	13170.333333
1126.854488	13131.666667
1128.081672	13083.000000
1129.308376	13092.000000
1130.534600	13133.333333
1131.760345	13055.000000
1132.985609	13037.000000
1134.210394	12921.000000
1135.434700	13094.666667
1136.658527	13035.000000
1137.881875	13059.666667
1139.104745	12970.666667
1140.327136	13094.666667
1141.549050	12979.666667
1142.770486	12914.666667
1143.991445	12948.666667
1145.211926	13003.333333
1146.431931	12940.666667
1147.651459	12944.333333
1148.870510	12877.333333
1150.089086	12939.000000
1151.307185	12920.666667
1152.524808	12979.333333
1153.741957	12874.000000
1154.958630	12905.333333
1156.174828	12880.333333
1157.390551	12817.666667
1158.605800	12967.333333
1159.820574	12874.000000
1161.034875	12878.333333
1162.248702	12824.666667
1163.462055	12941.333333
1164.674936	12889.333333
1165.887343	12802.666667
1167.099277	12898.333333
1168.310739	12859.333333
1169.521729	12793.000000
1170.732247	12856.000000
1171.942293	12851.666667
1173.151867	12784.000000
1174.360970	12906.333333
1175.569602	12776.666667
1176.777764	12787.000000
1177.985454	12710.000000
1179.192675	12680.333333
1180.399425	12693.333333
1181.605706	12613.333333
1182.811517	12635.333333
1184.016859	12553.333333
1185.221731	12563.000000
1186.426135	12617.000000
1187.630070	12524.333333
1188.833537	12493.666667
1190.036535	12383.666667
1191.239066	12407.000000
1192.441129	12289.666667
1193.642725	12276.666667
1194.843853	12360.000000
1196.044515	12340.666667
1197.244710	12337.666667
1198.444438	12358.333333
1199.643701	12398.666667
1200.842497	12452.000000
1202.040827	12511.000000
1203.238693	12347.333333
1204.436092	12377.000000
1205.633027	12432.000000
1206.829497	12285.666667
1208.025503	12281.666667
1209.221044	12339.000000
1210.416122	12301.000000
1211.610735	12211.000000
1212.804885	12178.000000
1213.998572	12264.666667
1215.191795	12128.000000
1216.384556	12048.333333
1217.576854	12054.666667
1218.768689	12074.000000
1219.960063	12094.666667
1221.150974	12095.333333
1222.341424	12060.666667
1223.531413	12084.666667
1224.720940	12138.666667
1225.910006	12163.000000
1227.098612	12207.000000
1228.286757	12148.000000
1229.474442	12381.333333
1230.661667	12333.333333
1231.848432	12317.000000
1233.034738	12284.000000
1234.220584	12397.333333
1235.405971	12507.333333
1236.590900	12536.666667
1237.775369	12531.000000
1238.959381	12549.666667
1240.142934	12613.666667
1241.326029	12630.666667
1242.508667	12524.333333
1243.690848	12574.000000
1244.872571	12555.000000
1246.053837	12546.000000
1247.234646	12473.666667
1248.414999	12431.333333
1249.594896	12409.666667
1250.774337	12525.333333
1251.953322	12279.333333
1253.131851	12384.333333
1254.309925	12348.333333
1255.487544	12247.000000
1256.664708	12174.000000
1257.841417	12099.666667
1259.017673	12198.000000
1260.193473	12207.000000
1261.368820	12328.333333
1262.543714	12329.000000
1263.718154	12275.000000
1264.892140	12361.000000
1266.065674	12300.333333
1267.238755	12405.000000
1268.411383	12274.333333
1269.583559	12269.000000
1270.755283	12276.666667
1271.926555	12245.666667
1273.097375	12390.000000
1274.267744	12294.333333
1275.437662	12257.333333
1276.607129	12268.666667
1277.776145	12235.333333
1278.944711	12159.333333
1280.112827	12161.333333
1281.280492	11964.666667
1282.447708	12072.333333
1283.614474	12078.333333
1284.780791	11881.666667
1285.946659	11965.000000
1287.112078	11849.000000
1288.277048	11859.333333
1289.441570	11673.666667
1290.605644	11817.666667
1291.769270	11662.333333
1292.932448	11538.666667
1294.095178	11663.333333
1295.257461	11675.666667
1296.419298	11522.666667
1297.580687	11587.000000
1298.741630	11575.000000
1299.902126	11432.000000
1301.062177	11466.666667
1302.221781	11545.666667
1303.380940	11457.333333
1304.539653	11470.666667
1305.697921	11366.666667
1306.855744	11531.333333
1308.013123	11522.333333
1309.170056	11465.000000
1310.326546	11462.666667
1311.482591	11481.000000
1312.638193	11510.000000
1313.793350	11507.333333
1314.948065	11308.333333
1316.102336	11488.000000
1317.256164	11381.666667
1318.409550	11444.666667
1319.562493	11369.333333
1320.714993	11349.666667
1321.867052	11273.666667
1323.018668	11298.000000
1324.169843	11265.666667
1325.320577	11263.333333
1326.470870	11216.666667
1327.620721	11240.666667
1328.770132	11130.666667
1329.919102	11205.666667
1331.067632	11052.666667
1332.215722	11075.000000
1333.363372	11081.333333
1334.510582	11061.666667
1335.657353	11049.000000
1336.803685	11141.000000
1337.949578	11167.000000
1339.095032	11172.333333
1340.240048	11177.000000
1341.384625	11150.666667
1342.528764	11066.000000
1343.672466	11097.333333
1344.815729	11049.333333
1345.958556	11079.333333
1347.100945	11066.333333
1348.242897	10998.333333
1349.384413	11004.000000
1350.525492	10949.333333
1351.666134	10920.333333
1352.806341	10936.333333
1353.946111	10858.666667
1355.085446	10858.666667
1356.224346	10881.666667
1357.362810	10723.333333
1358.500840	10776.000000
1359.638434	10722.666667
1360.775594	10761.666667
1361.912320	10765.333333
1363.048612	10617.666667
1364.184469	10686.333333
1365.319893	10695.000000
1366.454884	10711.666667
1367.589441	10661.000000
1368.723566	10818.000000
1369.857257	10767.333333
1370.990516	10685.333333
1372.123343	10666.000000
1373.255737	10712.333333
1374.387699	10742.333333
1375.519230	10730.666667
1376.650329	10734.666667
1377.780997	10624.000000
1378.911234	10708.333333
1380.041040	10773.666667
1381.170416	10822.000000
1382.299361	10700.666667
1383.427875	10737.000000
1384.555960	10700.000000
1385.683615	10634.333333
1386.810841	10646.666667
1387.937637	10706.333333
1389.064004	10583.000000
1390.189942	10618.666667
1391.315451	10578.333333
1392.440532	10546.666667
1393.565185	10615.333333
1394.689409	10550.333333
1395.813206	10559.000000
1396.936575	10506.000000
1398.059517	10476.000000
1399.182032	10397.666667
1400.304119	10400.333333
1401.425780	10437.666667
1402.547014	10407.000000
1403.667822	10385.333333
1404.788204	10349.333333
1405.908160	10348.333333
1407.027690	10335.666667
1408.146795	10273.666667
1409.265474	10357.000000
1410.383728	10343.000000
1411.501558	10276.333333
1412.618963	10311.000000
1413.735943	10288.000000
1414.852499	10301.000000
1415.968632	10376.333333
1417.084340	10318.333333
1418.199625	10386.333333
1419.314486	10389.333333
1420.428925	10376.333333
1421.542940	10492.000000
1422.656533	10423.666667
1423.769703	10307.333333
1424.882451	10324.333333
1425.994777	10259.666667
1427.106680	10303.333333
1428.218163	10307.333333
1429.329223	10234.000000
1430.439863	10226.666667
1431.550081	10171.666667
1432.659879	10179.000000
1433.769256	10204.000000
1434.878212	10112.000000
1435.986749	10198.000000
1437.094865	10201.000000
1438.202562	10257.333333
1439.309839	10221.333333
1440.416696	10232.000000
1441.523135	10257.666667
1442.629154	10278.666667
1443.734755	10362.000000
1444.839937	10322.666667
1445.944701	10421.666667
1447.049047	10365.333333
1448.152975	10430.666667
1449.256485	10486.666667
1450.359577	10390.000000
1451.462253	10376.666667
1452.564511	10297.666667
1453.666352	10303.333333
1454.767777	10311.333333
1455.868785	10386.000000
1456.969377	10261.000000
1458.069553	10159.666667
1459.169313	10192.333333
1460.268658	10162.333333
1461.367587	10220.333333
1462.466101	9959.666667
1463.564200	10062.000000
1464.661884	10032.666667
1465.759153	9980.666667
1466.856008	9828.666667
1467.952449	9774.333333
1469.048476	9713.666667
1470.144089	9712.000000
1471.239288	9642.000000
1472.334074	9574.666667
1473.428447	9479.000000
1474.522407	9475.333333
1475.615955	9361.333333
1476.709089	9292.000000
1477.801812	9270.666667
1478.894122	9237.666667
1479.986020	9216.000000
1481.077506	9288.666667
1482.168581	9193.000000
1483.259245	9166.000000
1484.349498	9297.000000
1485.439339	9142.000000
1486.528770	9136.333333
1487.617790	9096.000000
1488.706400	9095.666667
1489.794600	9101.666667
1490.882390	9056.666667
1491.969771	9079.000000
1493.056742	9090.333333
1494.143303	9008.333333
1495.229456	9008.000000
1496.315199	9016.666667
1497.400534	9000.000000
1498.485460	8983.666667
1499.569978	8900.000000
1500.654088	8870.000000
1501.737790	8915.666667
1502.821085	8917.666667
1503.903972	8852.666667
1504.986451	8831.666667
1506.068524	8903.000000
1507.150189	8761.333333
1508.231448	8789.000000
1509.312301	8715.666667
1510.392747	8661.666667
1511.472787	8716.666667
1512.552422	8738.000000
1513.631650	8608.000000
1514.710473	8610.666667
1515.788891	8746.000000
1516.866904	8663.333333
1517.944512	8683.333333
1519.021715	8745.666667
1520.098513	8621.666667
1521.174908	8676.000000
1522.250898	8605.333333
1523.326485	8587.666667
1524.401667	8631.666667
1525.476447	8540.666667
1526.550823	8660.333333
1527.624796	8659.000000
1528.698365	8646.333333
1529.771533	8627.000000
1530.844298	8606.333333
1531.916660	8554.666667
1532.988620	8576.666667
1534.060179	8631.000000
1535.131336	8479.333333
1536.202091	8485.000000
1537.272445	8521.666667
1538.342398	8457.666667
1539.411950	8455.666667
1540.481101	8364.666667
1541.549851	8467.333333
1542.618202	8350.666667
1543.686152	8484.333333
1544.753702	8348.666667
1545.820853	8368.333333
1546.887604	8350.000000
1547.953955	8318.333333
1549.019908	8301.000000
1550.085461	8269.333333
1551.150616	8314.000000
1552.215372	8238.333333
1553.279730	8297.666667
1554.343690	8245.666667
1555.407252	8310.333333
1556.470415	8210.333333
1557.533182	8222.666667
1558.595551	8150.333333
1559.657522	8147.000000
1560.719097	8150.666667
1561.780275	8124.000000
1562.841056	8040.333333
1563.901441	8189.333333
1564.961429	8171.666667
1566.021022	8120.333333
1567.080219	8211.666667
1568.139020	8178.666667
1569.197425	8181.333333
1570.255436	8083.333333
1571.313051	8118.333333
1572.370271	8061.333333
1573.427097	8201.000000
1574.483528	8054.333333
1575.539565	7986.666667
1576.595208	8054.000000
1577.650457	7959.666667
1578.705312	8006.000000
1579.759774	7963.666667
1580.813842	7920.666667
1581.867517	7834.666667
1582.920799	7818.333333
1583.973689	7898.000000
1585.026186	7836.333333
1586.078290	7787.666667
1587.130002	7792.000000
1588.181323	7829.000000
1589.232251	7766.000000
1590.282788	7726.000000
1591.332933	7719.333333
1592.382688	7806.000000
1593.432051	7716.666667
1594.481023	7761.000000
1595.529605	7752.333333
1596.577796	7693.666667
1597.625597	7738.000000
1598.673007	7747.666667
1599.720028	7809.333333
1600.766660	7836.000000
1601.812901	7810.000000
1602.858753	7761.666667
1603.904217	7879.333333
1604.949291	7826.666667
1605.993976	7829.666667
1607.038273	7804.333333
1608.082182	7828.333333
1609.125702	7795.666667
1610.168834	7730.333333
1611.211579	7591.000000
1612.253935	7655.000000
1613.295905	7660.000000
1614.337487	7578.666667
1615.378682	7610.000000
1616.419490	7634.000000
1617.459912	7560.000000
1618.499946	7592.666667
1619.539595	7545.666667
1620.578858	7592.333333
1621.617734	7666.333333
1622.656225	7600.666667
1623.694330	7571.000000
1624.732050	7637.000000
1625.769385	7579.000000
1626.806334	7577.333333
1627.842899	7513.333333
1628.879079	7597.666667
1629.914875	7517.000000
1630.950286	7576.000000
1631.985314	7507.666667
1633.019957	7600.000000
1634.054217	7536.666667
1635.088093	7565.333333
1636.121586	7579.333333
1637.154696	7579.333333
1638.187423	7583.000000
1639.219767	7573.333333
1640.251728	7599.666667
1641.283307	7547.666667
1642.314504	7539.333333
1643.345319	7570.000000
1644.375751	7584.000000
1645.405803	7611.666667
1646.435472	7567.000000
1647.464761	7526.000000
1648.493668	7532.000000
1649.522194	7517.333333
1650.550340	7578.666667
1651.578105	7538.333333
1652.605490	7511.000000
1653.632494	7517.666667
1654.659119	7423.666667
1655.685363	7444.333333
1656.711228	7396.333333
1657.736714	7393.666667
1658.761820	7432.666667
1659.786547	7436.000000
1660.810895	7366.666667
1661.834865	7329.333333
1662.858456	7342.666667
1663.881668	7261.666667
1664.904503	7319.666667
1665.926959	7294.333333
1666.949038	7324.666667
1667.970739	7249.000000
1668.992062	7237.333333
1670.013008	7228.666667
1671.033577	7175.333333
1672.053770	7195.000000
1673.073585	7211.333333
1674.093024	7127.666667
1675.112086	7103.666667
1676.130773	7159.666667
1677.149083	7096.000000
1678.167017	7116.000000
1679.184576	7061.666667
1680.201760	7046.000000
1681.218568	7046.333333
1682.235001	7113.333333
1683.251059	6995.666667
1684.266742	7033.666667
1685.282051	6993.666667
1686.296985	6955.666667
1687.311546	6973.666667
1688.325732	6900.000000
1689.339544	6912.000000
1690.352983	6906.000000
1691.366048	6828.666667
1692.378740	6781.333333
1693.391058	6805.666667
1694.403004	6755.000000
1695.414577	6725.666667
1696.425778	6657.000000
1697.436606	6611.333333
1698.447061	6574.666667
1699.457145	6576.000000
1700.466857	6500.000000
1701.476197	6425.000000
1702.485166	6422.000000
1703.493763	6395.000000
1704.501989	6348.000000
1705.509844	6315.333333
1706.517328	6333.333333
1707.524442	6354.333333
1708.531185	6242.333333
1709.537558	6266.333333
1710.543561	6254.666667
1711.549194	6249.333333
1712.554457	6181.333333
1713.559351	6218.000000
1714.563875	6286.000000
1715.568030	6168.000000
1716.571816	6216.333333
1717.575233	6333.333333
1718.578282	6212.000000
1719.580962	6258.333333
1720.583273	6325.333333
1721.585217	6275.000000
1722.586792	6252.666667
1723.588000	6236.666667
1724.588840	6260.000000
1725.589312	6303.666667
1726.589418	6236.666667
1727.589156	6324.666667
1728.588527	6261.333333
1729.587532	6254.000000
1730.586170	6233.333333
1731.584441	6270.000000
1732.582346	6256.000000
1733.579886	6203.666667
1734.577059	6203.666667
1735.573867	6188.666667
1736.570309	6133.666667
1737.566386	6192.333333
1738.562097	6084.666667
1739.557444	6043.666667
1740.552426	6068.333333
1741.547043	6036.000000
1742.541295	6036.000000
1743.535184	6018.333333
1744.528708	6019.000000
1745.521868	5992.333333
1746.514664	5915.000000
1747.507097	5998.333333
1748.499166	5967.666667
1749.490873	5846.000000
1750.482216	5942.333333
1751.473196	5909.333333
1752.463813	5880.666667
1753.454068	5917.333333
1754.443960	5897.666667
1755.433490	5850.000000
1756.422658	5771.333333
1757.411464	5877.333333
1758.399908	5758.666667
1759.387991	5867.000000
1760.375713	5834.333333
1761.363073	5840.333333
1762.350072	5790.333333
1763.336711	5860.000000
1764.322988	5861.333333
1765.308905	5798.666667
1766.294462	5818.666667
1767.279659	5821.666667
1768.264496	5665.666667
1769.248972	5686.666667
1770.233089	5716.666667
1771.216847	5683.666667
1772.200245	5667.333333
1773.183284	5686.000000
1774.165965	5664.333333
1775.148286	5602.000000
1776.130249	5650.666667
1777.111853	5614.666667
1778.093099	5612.000000
1779.073987	5557.333333
1780.054517	5550.000000
1781.034689	5482.666667
1782.014503	5444.666667
1782.993960	5430.000000
1783.973060	5371.333333
1784.951802	5337.666667
1785.930188	5367.000000
1786.908217	5368.666667
1787.885889	5315.333333
1788.863205	5337.666667
1789.840164	5282.666667
1790.816768	5251.333333
1791.793015	5273.333333
1792.768907	5192.000000
1793.744443	5205.333333
1794.719624	5212.333333
1795.694449	5291.666667
1796.668919	5293.333333
1797.643035	5328.666667
1798.616795	5276.000000
1799.590201	5291.000000
1800.563253	5307.333333
1801.535950	5332.000000
1802.508294	5278.000000
1803.480283	5294.000000
1804.451919	5378.000000
1805.423201	5373.000000
1806.394129	5221.333333
1807.364705	5330.000000
1808.334927	5327.000000
1809.304796	5285.666667
1810.274313	5318.666667
1811.243477	5219.666667
1812.212288	5306.000000
1813.180747	5218.000000
1814.148855	5194.333333
1815.116610	5238.666667
1816.084013	5225.666667
1817.051065	5153.333333
1818.017766	5217.666667
1818.984115	5261.000000
1819.950113	5210.666667
1820.915760	5188.666667
1821.881057	5199.000000
1822.846003	5174.666667
1823.810598	5188.666667
1824.774843	5148.000000
1825.738738	5167.666667
1826.702283	5147.666667
1827.665479	5097.666667
1828.628324	5115.000000
1829.590821	5132.333333
1830.552968	5055.000000
1831.514765	5140.000000
1832.476214	5095.333333
1833.437314	5055.333333
1834.398066	5045.666667
1835.358469	5062.000000
1836.318524	5000.333333
1837.278230	4973.666667
1838.237589	5018.000000
1839.196600	5050.000000
1840.155263	5041.666667
1841.113578	5039.000000
1842.071547	5023.000000
1843.029168	5094.000000
1843.986442	5055.000000
1844.943369	5027.666667
1845.899950	5066.333333
1846.856184	5026.000000
1847.812072	5078.333333
1848.767614	5030.333333
1849.722809	5072.666667
1850.677659	5021.666667
1851.632163	4998.333333
1852.586322	5023.333333
1853.540135	5086.666667
1854.493603	4969.333333
1855.446726	5048.666667
1856.399504	5015.666667
1857.351937	4913.000000
1858.304026	4905.000000
1859.255770	4922.000000
1860.207170	4873.333333
1861.158227	4968.333333
1862.108939	4898.333333
1863.059307	4833.000000
1864.009332	4808.000000
1864.959013	4759.000000
1865.908351	4832.333333
1866.857346	4758.000000
1867.805998	4813.666667
1868.754307	4748.666667
1869.702274	4806.666667
1870.649898	4726.666667
1871.597180	4767.000000
1872.544119	4704.333333
1873.490717	4724.666667
1874.436973	4650.000000
1875.382887	4659.666667
1876.328459	4621.000000
1877.273691	4658.333333
1878.218581	4618.666667
1879.163130	4654.000000
1880.107338	4668.333333
1881.051205	4626.666667
1881.994732	4662.000000
1882.937919	4673.666667
1883.880765	4655.333333
1884.823271	4667.666667
1885.765437	4618.333333
1886.707264	4688.333333
1887.648750	4708.000000
1888.589898	4652.333333
1889.530706	4675.333333
1890.471175	4677.666667
1891.411305	4732.333333
1892.351096	4697.333333
1893.290548	4733.000000
1894.229662	4674.000000
1895.168438	4674.666667
1896.106876	4703.666667
1897.044975	4672.666667
1897.982737	4647.333333
1898.920160	4657.000000
1899.857247	4643.000000
1900.793996	4649.000000
1901.730407	4598.333333
1902.666482	4607.333333
1903.602219	4550.666667
1904.537620	4592.000000
1905.472685	4531.333333
1906.407412	4493.666667
1907.341804	4496.000000
1908.275859	4427.333333
1909.209579	4365.666667
1910.142962	4486.000000
1911.076010	4381.333333
1912.008722	4362.666667
1912.941099	4328.333333
1913.873141	4334.333333
1914.804848	4338.666667
1915.736219	4305.666667
1916.667256	4280.666667
1917.597959	4348.333333
1918.528327	4314.666667
1919.458360	4325.666667
1920.388060	4262.333333
1921.317426	4237.333333
1922.246457	4268.000000
1923.175156	4231.666667
1924.103520	4295.333333
1925.031552	4275.000000
1925.959250	4262.000000
1926.886615	4265.666667
1927.813647	4244.666667
1928.740346	4262.333333
1929.666713	4246.000000
1930.592748	4197.666667
1931.518450	4295.666667
1932.443820	4255.000000
1933.368858	4280.666667
1934.293564	4265.000000
1935.217939	4247.000000
1936.141982	4262.333333
1937.065694	4253.666667
1937.989074	4194.333333
1938.912124	4237.666667
1939.834842	4230.333333
1940.757230	4157.000000
1941.679287	4180.333333
1942.601014	4176.666667
1943.522411	4174.333333
1944.443477	4116.666667
1945.364214	4152.000000
1946.284621	4139.000000
1947.204698	4072.000000
1948.124445	4085.000000
1949.043863	4069.000000
1949.962952	4053.333333
1950.881712	4041.666667
1951.800143	3992.000000
1952.718245	3935.000000
1953.636019	3983.666667
1954.553464	3965.000000
1955.470581	3958.333333
1956.387369	3937.333333
1957.303830	3925.666667
1958.219963	3927.000000
1959.135768	3905.666667
1960.051246	3903.666667
1960.966396	3914.333333
1961.881219	3898.666667
1962.795715	3905.333333
1963.709883	3908.000000
1964.623726	3904.333333
1965.537241	3938.000000
1966.450430	3933.000000
1967.363293	3996.333333
1968.275829	3997.000000
1969.188040	3928.000000
1970.099924	3912.666667
1971.011483	3969.000000
1971.922716	3994.666667
1972.833624	3962.333333
1973.744206	3992.333333
1974.654464	3981.333333
1975.564396	3977.666667
1976.474004	4003.000000
1977.383286	3897.666667
1978.292245	3899.333333
1979.200878	3874.333333
1980.109188	3928.333333
1981.017174	3868.666667
1981.924835	3875.333333
1982.832173	3848.333333
1983.739187	3851.666667
1984.645878	3812.000000
1985.552245	3807.000000
1986.458289	3825.666667
1987.364010	3768.000000
1988.269408	3776.333333
1989.174484	3731.333333
1990.079236	3701.000000
1990.983667	3720.666667
1991.887775	3728.333333
1992.791561	3712.333333
1993.695024	3644.000000
1994.598166	3640.333333
1995.500986	3645.333333
1996.403485	3649.666667
1997.305662	3624.333333
1998.207518	3629.666667
1999.109053	3652.666667
