200.151048	22220.666667
201.758777	21984.666667
203.365815	21979.000000
204.972162	21867.333333
206.577820	21817.666667
208.182787	21739.333333
209.787065	21827.333333
211.390653	21706.000000
212.993553	21628.333333
214.595765	21652.000000
216.197289	21684.000000
217.798125	21590.333333
219.398274	21503.333333
220.997737	21496.333333
222.596513	21572.666667
224.194603	21468.666667
225.792008	21519.333333
227.388728	21375.000000
228.984763	21478.000000
230.580114	21338.666667
232.174781	21281.666667
233.768765	21221.666667
235.362065	21238.333333
236.954683	21180.666667
238.546619	21065.000000
240.137872	21067.000000
241.728445	20979.333333
243.318336	20944.000000
244.907546	20889.333333
246.496076	20842.666667
248.083926	20778.666667
249.671097	20711.333333
251.257589	20611.666667
252.843402	20525.000000
254.428536	20499.666667
256.012993	20674.666667
257.596772	20486.000000
259.179874	20335.333333
260.762300	20294.333333
262.344049	20378.666667
263.925122	20302.666667
265.505519	20317.333333
267.085241	20223.000000
268.664289	20137.333333
270.242662	20314.000000
271.820361	20263.333333
273.397387	20102.666667
274.973740	20207.000000
276.549419	20170.000000
278.124426	20102.666667
279.698762	20077.333333
281.272425	20385.333333
282.845417	20175.666667
284.417739	20057.000000
285.989390	20242.000000
287.560371	20167.000000
289.130682	20211.333333
290.700324	20172.000000
292.269297	20138.666667
293.837602	20142.333333
295.405238	20110.666667
296.972207	19984.000000
298.538508	19965.000000
300.104142	19973.333333
301.669110	19897.000000
303.233411	19816.000000
304.797047	19591.666667
306.360017	19732.666667
307.922322	19519.000000
309.483963	19510.333333
311.044939	19447.333333
312.605252	19459.333333
314.164900	19410.666667
315.723886	19231.000000
317.282209	19190.000000
318.839870	19203.333333
320.396868	19170.666667
321.953205	19085.000000
323.508881	19070.000000
325.063896	19074.333333
326.618251	19056.000000
328.171945	19040.000000
329.724980	18927.666667
331.277356	18891.000000
332.829072	18941.333333
334.380131	18872.333333
335.930530	18892.666667
337.480273	18968.666667
339.029357	18830.333333
340.577785	18913.333333
342.125556	18786.000000
343.672671	18845.000000
345.219130	18716.333333
346.764933	18756.333333
348.310081	18683.666667
349.854575	18723.666667
351.398414	18672.333333
352.941599	18688.333333
354.484130	18660.666667
356.026008	18681.333333
357.567234	18507.333333
359.107807	18522.000000
360.647727	18445.333333
362.186996	18404.333333
363.725614	18401.333333
365.263580	18181.000000
366.800896	18390.333333
368.337562	18317.333333
369.873578	18294.666667
371.408944	18115.000000
372.943661	18295.333333
374.477730	18337.333333
376.011150	18288.333333
377.543922	18132.000000
379.076046	18142.666667
380.607523	18188.666667
382.138353	18270.333333
383.668537	18251.000000
385.198075	18307.666667
386.726966	18416.666667
388.255213	18255.333333
389.782814	18273.000000
391.309770	18394.333333
392.836083	18306.333333
394.361751	18314.666667
395.886776	18444.000000
397.411157	18439.000000
398.934896	18324.333333
400.457992	18493.333333
401.980446	18525.666667
403.502258	18547.333333
405.023429	18543.000000
406.543959	18546.333333
408.063849	18667.000000
409.583098	18686.333333
411.101707	18763.000000
412.619677	18847.333333
414.137007	18894.000000
415.653699	18979.333333
417.169752	19055.333333
418.685167	19311.666667
420.199945	19399.666667
421.714085	19682.000000
423.227588	19877.333333
424.740454	19897.000000
426.252684	20097.333333
427.764279	20087.666667
429.275238	20045.666667
430.785561	19973.666667
432.295250	19796.666667
433.804304	19803.666667
435.312725	19581.333333
436.820511	19456.666667
438.327664	19344.333333
439.834185	19130.333333
441.340072	19065.333333
442.845327	19119.333333
444.349951	19072.666667
445.853942	18807.000000
447.357303	18851.000000
448.860033	18653.333333
450.362132	18667.000000
451.863601	18647.666667
453.364440	18500.000000
454.864650	18351.666667
456.364231	18128.333333
457.863183	18029.333333
459.361507	17967.333333
460.859203	17825.000000
462.356271	17698.333333
463.852712	17636.333333
465.348526	17613.000000
466.843714	17403.666667
468.338275	17326.000000
469.832210	17203.333333
471.325520	17282.666667
472.818205	17253.333333
474.310265	17007.000000
475.801700	17111.666667
477.292512	16975.000000
478.782700	17048.000000
480.272264	16899.666667
481.761205	16971.666667
483.249524	16748.000000
484.737221	16687.000000
486.224295	16733.333333
487.710748	16668.000000
489.196579	16699.333333
490.681790	16759.000000
492.166380	16593.333333
493.650350	16589.666667
495.133700	16474.666667
496.616431	16580.000000
498.098542	16475.333333
499.580035	16505.000000
501.060909	16527.666667
502.541165	16512.333333
504.020804	16585.000000
505.499825	16478.000000
506.978228	16277.666667
508.456016	16372.666667
509.933186	16326.000000
511.409741	16234.333333
512.885680	16276.666667
514.361004	16176.333333
515.835713	16213.666667
517.309807	16240.666667
518.783287	16288.333333
520.256153	16223.000000
521.728406	16236.666667
523.200045	16262.666667
524.671071	16183.333333
526.141485	16186.666667
527.611287	16265.333333
529.080476	16262.333333
530.549054	16230.666667
532.017021	16236.000000
533.484378	16231.000000
534.951123	16207.000000
536.417259	16151.666667
537.882785	16044.000000
539.347701	16117.333333
540.812008	16143.666667
542.275707	16183.000000
543.738797	16042.000000
545.201279	16130.000000
546.663153	16180.333333
548.124420	16210.666667
549.585080	16169.333333
551.045133	16217.000000
552.504579	16331.000000
553.963420	16288.333333
555.421655	16202.666667
556.879285	16270.666667
558.336309	16297.333333
559.792729	16401.333333
561.248545	16406.000000
562.703756	16317.333333
564.158364	16390.666667
565.612369	16523.666667
567.065770	16490.333333
568.518569	16642.333333
569.970766	16657.666667
571.422361	16633.666667
572.873354	16692.000000
574.323745	16915.333333
575.773536	17041.666667
577.222726	17171.333333
578.671316	17193.333333
580.119306	17132.000000
581.566696	17234.333333
583.013487	17002.333333
584.459679	17032.000000
585.905273	16994.666667
587.350268	17044.333333
588.794665	16865.000000
590.238465	16926.000000
591.681667	16826.000000
593.124272	16753.333333
594.566281	16660.000000
596.007694	16423.666667
597.448510	16290.000000
598.888731	16212.333333
600.328357	16184.333333
601.767388	15993.666667
603.205824	16098.666667
604.643666	16055.333333
606.080914	16040.333333
607.517568	16038.000000
608.953629	16015.666667
610.389097	15996.000000
611.823972	15869.333333
613.258255	15892.000000
614.691946	15683.333333
616.125046	15738.333333
617.557554	15550.000000
618.989471	15454.000000
620.420798	15473.666667
621.851534	15309.333333
623.281680	15103.000000
624.711237	15167.000000
626.140204	14893.333333
627.568582	14983.000000
628.996372	14873.000000
630.423573	14831.333333
631.850186	14743.333333
633.276211	14850.666667
634.701650	14720.000000
636.126501	14711.000000
637.550765	14687.666667
638.974443	14711.333333
640.397535	14697.333333
641.820041	14686.000000
643.241961	14785.666667
644.663297	14663.666667
646.084048	14744.666667
647.504214	14536.666667
648.923796	14592.333333
650.342795	14439.333333
651.761210	14421.333333
653.179041	14400.666667
654.596290	14451.000000
656.012957	14447.000000
657.429041	14384.333333
658.844543	14360.000000
660.259464	14413.333333
661.673804	14322.333333
663.087563	14283.666667
664.500741	14380.666667
665.913339	14373.333333
667.325357	14333.000000
668.736795	14397.333333
670.147654	14420.000000
671.557934	14285.666667
672.967636	14178.333333
674.376759	14314.333333
675.785304	14188.333333
677.193271	14262.666667
678.600661	14327.333333
680.007474	14189.333333
681.413711	14097.666667
682.819370	14172.666667
684.224454	14148.666667
685.628962	14230.000000
687.032895	14161.666667
688.436252	14101.666667
689.839034	14128.000000
691.241242	14131.666667
692.642876	13967.666667
694.043936	13976.000000
695.444422	14226.000000
696.844336	14035.000000
698.243676	14017.333333
699.642443	13875.000000
701.040639	14009.000000
702.438262	13912.000000
703.835313	13939.000000
705.231794	13891.333333
706.627703	13891.333333
708.023041	13925.333333
709.417810	13967.666667
710.812008	13928.666667
712.205636	13857.000000
713.598694	13866.333333
714.991184	13927.666667
716.383105	13842.000000
717.774457	13741.000000
719.165241	13777.333333
720.555457	13734.666667
721.945105	13702.000000
723.334187	13848.666667
724.722701	13754.666667
726.110648	13662.000000
727.498030	13659.333333
728.884845	13773.333333
730.271094	13661.333333
731.656778	13725.666667
733.041897	13552.000000
734.426451	13639.000000
735.810441	13539.666667
737.193866	13652.333333
738.576728	13528.666667
739.959026	13561.666667
741.340760	13581.333333
742.721932	13485.333333
744.102541	13591.666667
745.482588	13495.666667
746.862073	13510.333333
748.240996	13579.000000
749.619358	13541.666667
750.997158	13575.333333
752.374398	13588.666667
753.751077	13563.666667
755.127197	13397.333333
756.502756	13517.000000
757.877756	13601.333333
759.252196	13438.666667
760.626078	13438.000000
761.999400	13493.666667
763.372165	13408.666667
764.744371	13367.333333
766.116020	13387.000000
767.487111	13348.666667
768.857646	13229.333333
770.227623	13347.000000
771.597044	13187.333333
772.965908	13220.666667
774.334217	13187.333333
775.701970	13159.000000
777.069168	13089.000000
778.435811	13180.666667
779.801899	13076.000000
781.167433	13219.333333
782.532412	13080.000000
783.896838	13038.666667
785.260710	13082.000000
786.624029	13001.333333
787.986796	13058.333333
789.349009	12996.333333
790.710671	12994.666667
792.071780	12971.666667
793.432338	12926.333333
794.792344	12988.000000
796.151799	12927.000000
797.510704	12945.666667
798.869058	12819.666667
800.226862	12882.666667
801.584116	12767.333333
802.940820	12910.666667
804.296975	12885.666667
805.652581	12843.000000
807.007638	12890.000000
808.362147	12830.333333
809.716108	12931.000000
811.069521	12917.000000
812.422387	12878.666667
813.774705	12909.666667
815.126476	12884.333333
816.477701	12854.000000
817.828380	12812.000000
819.178512	12959.333333
820.528099	12783.000000
821.877140	12744.333333
823.225637	12761.333333
824.573588	12779.666667
825.920995	12739.333333
827.267857	12637.000000
828.614176	12710.000000
829.959951	12676.333333
831.305183	12635.000000
832.649871	12648.333333
833.994017	12724.666667
835.337620	12605.000000
836.680681	12517.666667
838.023201	12721.333333
839.365178	12598.000000
840.706614	12713.666667
842.047510	12671.333333
843.387864	12692.333333
844.727678	12714.000000
846.066952	12727.000000
847.405687	12760.333333
848.743881	12831.333333
850.081537	12851.333333
851.418653	12875.000000
852.755231	12882.333333
854.091270	12926.666667
855.426771	12822.333333
856.761735	12887.000000
858.096160	12670.666667
859.430049	12769.000000
860.763401	12726.000000
862.096216	12649.666667
863.428495	12632.666667
864.760237	12496.000000
866.091444	12537.333333
867.422115	12656.333333
868.752252	12626.333333
870.081853	12515.666667
871.410919	12568.000000
872.739452	12494.666667
874.067450	12428.666667
875.394914	12541.333333
876.721845	12479.666667
878.048243	12408.333333
879.374108	12365.000000
880.699440	12378.333333
882.024240	12298.000000
883.348508	12320.333333
884.672244	12248.000000
885.995449	12311.666667
887.318122	12233.000000
888.640265	12306.000000
889.961877	12203.000000
891.282959	12103.333333
892.603510	12217.333333
893.923532	12056.666667
895.243024	12125.333333
896.561987	12030.000000
897.880422	12048.000000
899.198327	11966.000000
900.515705	12047.000000
901.832554	11964.333333
903.148875	11973.666667
904.464669	11940.666667
905.779936	11997.000000
907.094676	12005.333333
908.408889	12060.333333
909.722576	12039.666667
911.035737	12092.000000
912.348371	12141.666667
913.660481	12226.333333
914.972065	12138.666667
916.283124	12253.000000
917.593659	12226.666667
918.903669	12167.666667
920.213155	12301.000000
921.522117	12223.000000
922.830556	12261.000000
924.138471	12288.000000
925.445864	12263.666667
926.752733	12298.666667
928.059081	12332.333333
929.364906	12366.333333
930.670209	12379.000000
931.974991	12565.666667
933.279251	12522.333333
934.582990	12719.000000
935.886209	12818.333333
937.188907	13129.000000
938.491085	13051.000000
939.792743	13390.666667
941.093881	13496.000000
942.394500	13856.666667
943.694600	14213.000000
944.994181	14487.333333
946.293243	14919.333333
947.591787	15482.333333
948.889813	16141.000000
950.187322	16790.000000
951.484313	17549.000000
952.780787	18547.333333
954.076744	19364.333333
955.372184	20415.000000
956.667108	20922.666667
957.961516	21293.333333
959.255409	21541.333333
960.548785	21247.333333
961.841647	20525.333333
963.133993	19450.666667
964.425825	18409.000000
965.717142	17330.333333
967.007946	16172.333333
968.298235	15341.000000
969.588011	14500.000000
970.877273	13714.000000
972.166023	13252.333333
973.454259	12730.333333
974.741984	12366.000000
976.029196	12098.000000
977.315895	11947.000000
978.602084	11711.000000
979.887761	11535.000000
981.172926	11577.000000
982.457581	11369.333333
983.741725	11358.666667
985.025359	11258.000000
986.308483	11139.000000
987.591097	11188.333333
988.873202	11193.333333
990.154797	11185.333333
991.435883	11156.666667
992.716461	11060.666667
993.996530	11153.000000
995.276091	11074.000000
996.555144	11152.333333
997.833690	11176.000000
999.111728	11167.000000
1000.389259	11298.666667
1001.666283	11315.000000
1002.942800	11368.000000
1004.218812	11258.666667
1005.494317	11269.666667
1006.769317	11212.666667
1008.043811	11268.000000
1009.317799	11229.000000
1010.591283	11224.333333
1011.864263	11162.000000
1013.136737	11166.666667
1014.408708	11183.000000
1015.680175	11258.666667
1016.951138	11214.000000
1018.221598	11207.000000
1019.491554	11266.333333
1020.761008	11306.333333
1022.029959	11170.000000
1023.298408	11291.333333
1024.566355	11256.666667
1025.833800	11232.666667
1027.100744	11287.666667
1028.367187	11276.333333
1029.633128	11311.666667
1030.898569	11333.000000
1032.163509	11273.333333
1033.427949	11335.000000
1034.691890	11388.000000
1035.955330	11423.666667
1037.218271	11416.666667
1038.480714	11404.666667
1039.742657	11463.666667
1041.004101	11330.333333
1042.265048	11372.333333
1043.525496	11457.000000
1044.785446	11380.666667
1046.044899	11407.666667
1047.303855	11306.333333
1048.562313	11284.666667
1049.820275	11378.666667
1051.077740	11230.666667
1052.334709	11244.333333
1053.591182	11192.333333
1054.847160	11215.666667
1056.102641	11155.000000
1057.357628	11376.666667
1058.612120	11310.000000
1059.866117	11347.333333
1061.119619	11414.333333
1062.372628	11541.000000
1063.625142	11524.000000
1064.877163	11573.666667
1066.128691	11629.333333
1067.379725	11582.333333
1068.630267	11655.333333
1069.880316	11693.666667
1071.129872	11640.000000
1072.378937	11537.333333
1073.627509	11496.000000
1074.875590	11309.666667
1076.123180	11249.000000
1077.370279	11165.333333
1078.616887	11001.333333
1079.863004	10975.333333
1081.108631	10828.000000
1082.353768	10705.666667
1083.598415	10646.333333
1084.842573	10558.666667
1086.086241	10456.666667
1087.329421	10435.333333
1088.572111	10229.000000
1089.814314	10281.666667
1091.056028	10225.000000
1092.297253	10156.000000
1093.537992	10126.000000
1094.778242	10111.000000
1096.018006	10097.000000
1097.257282	9969.666667
1098.496072	10003.333333
1099.734376	9925.333333
1100.972193	10057.666667
1102.209524	9922.666667
1103.446370	9917.000000
1104.682730	9886.000000
1105.918604	9834.666667
1107.153994	9966.666667
1108.388900	9828.666667
1109.623320	9753.333333
1110.857257	9680.666667
1112.090710	9644.333333
1113.323679	9628.333333
1114.556164	9613.666667
1115.788167	9580.333333
1117.019686	9561.333333
1118.250723	9508.000000
1119.481278	9534.000000
1120.711350	9520.000000
1121.940940	9495.333333
1123.170049	9512.000000
1124.398676	9523.666667
1125.626823	9385.333333
1126.854488	9515.333333
1128.081672	9448.000000
1129.308376	9445.333333
1130.534600	9395.000000
1131.760345	9381.000000
1132.985609	9340.666667
1134.210394	9313.666667
1135.434700	9297.000000
1136.658527	9366.333333
1137.881875	9355.333333
1139.104745	9168.333333
1140.327136	9338.000000
1141.549050	9259.666667
1142.770486	9266.333333
1143.991445	9316.333333
1145.211926	9264.000000
1146.431931	9224.000000
1147.651459	9268.666667
1148.870510	9210.333333
1150.089086	9183.000000
1151.307185	9170.000000
1152.524808	9244.333333
1153.741957	9180.333333
1154.958630	9139.000000
1156.174828	9208.000000
1157.390551	9207.333333
1158.605800	9209.666667
1159.820574	9235.333333
1161.034875	9148.000000
1162.248702	9164.000000
1163.462055	9172.333333
1164.674936	9187.000000
1165.887343	9120.333333
1167.099277	9057.666667
1168.310739	9102.000000
1169.521729	9191.333333
1170.732247	9036.000000
1171.942293	9174.666667
1173.151867	9069.333333
1174.360970	9090.333333
1175.569602	9097.000000
1176.777764	9073.333333
1177.985454	8974.666667
1179.192675	9044.333333
1180.399425	9036.666667
1181.605706	8945.000000
1182.811517	8905.000000
1184.016859	8905.666667
1185.221731	8879.666667
1186.426135	8903.000000
1187.630070	8821.666667
1188.833537	8813.333333
1190.036535	8779.000000
1191.239066	8828.000000
1192.441129	8779.333333
1193.642725	8747.666667
1194.843853	8766.333333
1196.044515	8691.666667
1197.244710	8814.000000
1198.444438	8779.000000
1199.643701	8668.000000
1200.842497	8812.666667
1202.040827	8800.333333
1203.238693	8832.333333
1204.436092	8773.333333
1205.633027	8840.000000
1206.829497	8707.666667
1208.025503	8742.000000
1209.221044	8649.333333
1210.416122	8706.000000
1211.610735	8677.666667
1212.804885	8627.333333
1213.998572	8634.333333
1215.191795	8518.666667
1216.384556	8565.666667
1217.576854	8521.666667
1218.768689	8616.000000
1219.960063	8467.333333
1221.150974	8551.333333
1222.341424	8539.333333
1223.531413	8471.666667
1224.720940	8545.666667
1225.910006	8556.333333
1227.098612	8541.666667
1228.286757	8620.333333
1229.474442	8629.000000
1230.661667	8663.666667
1231.848432	8665.000000
1233.034738	8744.666667
1234.220584	8703.333333
1235.405971	8814.000000
1236.590900	8769.000000
1237.775369	8797.666667
1238.959381	8793.666667
1240.142934	8799.666667
1241.326029	8845.333333
1242.508667	8809.000000
1243.690848	8834.000000
1244.872571	8760.666667
1246.053837	8848.333333
1247.234646	8816.000000
1248.414999	8769.333333
1249.594896	8765.666667
1250.774337	8734.000000
1251.953322	8711.000000
1253.131851	8693.333333
1254.309925	8700.333333
1255.487544	8722.666667
1256.664708	8667.666667
1257.841417	8620.000000
1259.017673	8640.333333
1260.193473	8577.333333
1261.368820	8585.333333
1262.543714	8545.000000
1263.718154	8635.333333
1264.892140	8684.333333
1266.065674	8600.000000
1267.238755	8644.666667
1268.411383	8624.333333
1269.583559	8667.666667
1270.755283	8636.333333
1271.926555	8595.333333
1273.097375	8601.000000
1274.267744	8533.000000
1275.437662	8596.333333
1276.607129	8583.000000
1277.776145	8543.000000
1278.944711	8520.666667
1280.112827	8484.666667
1281.280492	8517.000000
1282.447708	8438.333333
1283.614474	8399.333333
1284.780791	8426.333333
1285.946659	8322.333333
1287.112078	8350.666667
1288.277048	8345.333333
1289.441570	8277.666667
1290.605644	8249.333333
1291.769270	8183.666667
1292.932448	8128.666667
1294.095178	8177.333333
1295.257461	8109.333333
1296.419298	8047.666667
1297.580687	8099.666667
1298.741630	8024.000000
1299.902126	7997.000000
1301.062177	8103.333333
1302.221781	8032.333333
1303.380940	8009.000000
1304.539653	8022.333333
1305.697921	7989.666667
1306.855744	8072.666667
1308.013123	8000.666667
1309.170056	8106.000000
1310.326546	7972.333333
1311.482591	7917.333333
1312.638193	8051.333333
1313.793350	8053.333333
1314.948065	8002.666667
1316.102336	7917.333333
1317.256164	7994.333333
1318.409550	8036.666667
1319.562493	7993.666667
1320.714993	7838.333333
1321.867052	7888.333333
1323.018668	7835.333333
1324.169843	7812.000000
1325.320577	7808.000000
1326.470870	7745.000000
1327.620721	7759.666667
1328.770132	7827.000000
1329.919102	7775.000000
1331.067632	7756.333333
1332.215722	7674.333333
1333.363372	7773.333333
1334.510582	7721.666667
1335.657353	7689.000000
1336.803685	7681.333333
1337.949578	7781.000000
1339.095032	7767.333333
1340.240048	7729.333333
1341.384625	7721.000000
1342.528764	7727.666667
1343.672466	7679.333333
1344.815729	7695.666667
1345.958556	7624.666667
1347.100945	7673.000000
1348.242897	7657.333333
1349.384413	7674.666667
1350.525492	7629.000000
1351.666134	7534.333333
1352.806341	7623.333333
1353.946111	7498.666667
1355.085446	7550.000000
1356.224346	7500.666667
1357.362810	7456.333333
1358.500840	7412.000000
1359.638434	7399.333333
1360.775594	7435.333333
1361.912320	7371.666667
1363.048612	7270.000000
1364.184469	7358.000000
1365.319893	7365.000000
1366.454884	7450.666667
1367.589441	7334.333333
1368.723566	7369.666667
1369.857257	7370.666667
1370.990516	7453.000000
1372.123343	7322.666667
1373.255737	7416.666667
1374.387699	7377.666667
1375.519230	7472.333333
1376.650329	7396.666667
1377.780997	7433.333333
1378.911234	7361.666667
1380.041040	7470.333333
1381.170416	7445.000000
1382.299361	7334.666667
1383.427875	7407.666667
1384.555960	7360.000000
1385.683615	7399.666667
1386.810841	7329.333333
1387.937637	7440.000000
1389.064004	7367.666667
1390.189942	7286.333333
1391.315451	7351.666667
1392.440532	7343.333333
1393.565185	7268.666667
1394.689409	7262.000000
1395.813206	7318.333333
1396.936575	7238.666667
1398.059517	7207.000000
1399.182032	7244.666667
1400.304119	7257.666667
1401.425780	7263.666667
1402.547014	7230.000000
1403.667822	7207.666667
1404.788204	7223.666667
1405.908160	7253.333333
1407.027690	7170.666667
1408.146795	7216.333333
1409.265474	7199.333333
1410.383728	7110.000000
1411.501558	7176.000000
1412.618963	7253.333333
1413.735943	7243.000000
1414.852499	7207.000000
1415.968632	7213.333333
1417.084340	7290.000000
1418.199625	7253.000000
1419.314486	7218.666667
1420.428925	7245.666667
1421.542940	7273.333333
1422.656533	7335.000000
1423.769703	7235.666667
1424.882451	7176.666667
1425.994777	7230.666667
1427.106680	7192.666667
1428.218163	7124.666667
1429.329223	7151.000000
1430.439863	7188.666667
1431.550081	7093.666667
1432.659879	7148.333333
1433.769256	7081.333333
1434.878212	7106.333333
1435.986749	7058.666667
1437.094865	7092.666667
1438.202562	7099.333333
1439.309839	7147.333333
1440.416696	7155.333333
1441.523135	7157.333333
1442.629154	7220.000000
1443.734755	7247.333333
1444.839937	7218.000000
1445.944701	7229.000000
1447.049047	7262.333333
1448.152975	7300.666667
1449.256485	7279.000000
1450.359577	7226.666667
1451.462253	7275.000000
1452.564511	7186.333333
1453.666352	7239.666667
1454.767777	7177.666667
1455.868785	7185.666667
1456.969377	7108.000000
1458.069553	7171.000000
1459.169313	7100.666667
1460.268658	7063.333333
1461.367587	7024.000000
1462.466101	6918.000000
1463.564200	7012.000000
1464.661884	6941.000000
1465.759153	6832.000000
1466.856008	6828.666667
1467.952449	6824.666667
1469.048476	6798.000000
1470.144089	6741.666667
1471.239288	6673.000000
1472.334074	6687.000000
1473.428447	6600.666667
1474.522407	6557.000000
1475.615955	6506.333333
1476.709089	6451.000000
1477.801812	6466.000000
1478.894122	6437.333333
1479.986020	6423.000000
1481.077506	6403.666667
1482.168581	6377.666667
1483.259245	6347.000000
1484.349498	6386.666667
1485.439339	6290.333333
1486.528770	6315.333333
1487.617790	6374.000000
1488.706400	6324.666667
1489.794600	6289.000000
1490.882390	6278.666667
1491.969771	6288.333333
1493.056742	6235.000000
1494.143303	6228.333333
1495.229456	6202.000000
1496.315199	6232.666667
1497.400534	6206.666667
1498.485460	6206.666667
1499.569978	6185.333333
1500.654088	6131.666667
1501.737790	6154.000000
1502.821085	6122.666667
1503.903972	6093.000000
1504.986451	6057.333333
1506.068524	6099.333333
1507.150189	6072.333333
1508.231448	8462.000000
1509.312301	7467.000000
1510.392747	6135.666667
1511.472787	6023.333333
1512.552422	5979.333333
1513.631650	5944.000000
1514.710473	5994.666667
1515.788891	5952.666667
1516.866904	5989.333333
1517.944512	5923.333333
1519.021715	5987.000000
1520.098513	5893.000000
1521.174908	5992.000000
1522.250898	6038.333333
1523.326485	5944.000000
1524.401667	5979.666667
1525.476447	5965.333333
1526.550823	5938.666667
1527.624796	5946.000000
1528.698365	5949.000000
1529.771533	5991.333333
1530.844298	5953.333333
1531.916660	5908.000000
1532.988620	5943.333333
1534.060179	5893.666667
1535.131336	5908.666667
1536.202091	5870.333333
1537.272445	5832.000000
1538.342398	5859.333333
1539.411950	5840.666667
1540.481101	5844.000000
1541.549851	5796.333333
1542.618202	5815.333333
1543.686152	5757.333333
1544.753702	5759.333333
1545.820853	5703.000000
1546.887604	5746.666667
1547.953955	5775.000000
1549.019908	5782.333333
1550.085461	5757.333333
1551.150616	5732.000000
1552.215372	5766.333333
1553.279730	5804.333333
1554.343690	5688.333333
1555.407252	5695.333333
1556.470415	5683.333333
1557.533182	5700.666667
1558.595551	5636.000000
1559.657522	5616.000000
1560.719097	5685.333333
1561.780275	5650.000000
1562.841056	5623.666667
1563.901441	5651.000000
1564.961429	5613.333333
1566.021022	5698.000000
1567.080219	5613.333333
1568.139020	5620.666667
1569.197425	5625.000000
1570.255436	5577.000000
1571.313051	5589.000000
1572.370271	5587.666667
1573.427097	5584.333333
1574.483528	5584.000000
1575.539565	5540.333333
1576.595208	5581.333333
1577.650457	5496.000000
1578.705312	5489.333333
1579.759774	5534.666667
1580.813842	5527.333333
1581.867517	5422.333333
1582.920799	5430.333333
1583.973689	5443.000000
1585.026186	5405.333333
1586.078290	5442.000000
1587.130002	5362.000000
1588.181323	5348.000000
1589.232251	5377.000000
1590.282788	5379.000000
1591.332933	5388.333333
1592.382688	5396.000000
1593.432051	5352.333333
1594.481023	5424.000000
1595.529605	5386.000000
1596.577796	5404.333333
1597.625597	5416.000000
1598.673007	5419.666667
1599.720028	5402.000000
1600.766660	5377.666667
1601.812901	5400.333333
1602.858753	5399.333333
1603.904217	5425.000000
1604.949291	5376.333333
1605.993976	5382.333333
1607.038273	5497.666667
1608.082182	5464.000000
1609.125702	5344.666667
1610.168834	5334.000000
1611.211579	5346.333333
1612.253935	5351.000000
1613.295905	5305.333333
1614.337487	5298.666667
1615.378682	5286.333333
1616.419490	5357.333333
1617.459912	5353.333333
1618.499946	5297.000000
1619.539595	5350.666667
1620.578858	5234.333333
1621.617734	5311.666667
1622.656225	5324.666667
1623.694330	5262.000000
1624.732050	5292.333333
1625.769385	5303.666667
1626.806334	5262.000000
1627.842899	5191.666667
1628.879079	5313.666667
1629.914875	5250.666667
1630.950286	5242.666667
1631.985314	5278.333333
1633.019957	5235.333333
1634.054217	5263.333333
1635.088093	5285.000000
1636.121586	5257.333333
1637.154696	5252.666667
1638.187423	5299.666667
1639.219767	5276.000000
1640.251728	5319.666667
1641.283307	5255.333333
1642.314504	5330.666667
1643.345319	5299.000000
1644.375751	5234.333333
1645.405803	5252.000000
1646.435472	5314.333333
1647.464761	5259.666667
1648.493668	5301.000000
1649.522194	5236.333333
1650.550340	5214.666667
1651.578105	5298.333333
1652.605490	5239.666667
1653.632494	5227.666667
1654.659119	5230.000000
1655.685363	5174.666667
1656.711228	5214.000000
1657.736714	5158.333333
1658.761820	5181.666667
1659.786547	5188.333333
1660.810895	5135.000000
1661.834865	5107.000000
1662.858456	5154.666667
1663.881668	5070.333333
1664.904503	5105.000000
1665.926959	5134.000000
1666.949038	5082.666667
1667.970739	5065.333333
1668.992062	5034.000000
1670.013008	5005.333333
1671.033577	4984.000000
1672.053770	5029.666667
1673.073585	4960.666667
1674.093024	5007.000000
1675.112086	4971.000000
1676.130773	4947.666667
1677.149083	4956.666667
1678.167017	4973.000000
1679.184576	4985.666667
1680.201760	4973.666667
1681.218568	4872.000000
1682.235001	4905.000000
1683.251059	4887.333333
1684.266742	4875.333333
1685.282051	4918.000000
1686.296985	4859.333333
1687.311546	4871.000000
1688.325732	4850.666667
1689.339544	4776.000000
1690.352983	4784.000000
1691.366048	4741.000000
1692.378740	4695.333333
1693.391058	4744.333333
1694.403004	4707.666667
1695.414577	4627.666667
1696.425778	4563.666667
1697.436606	4606.000000
1698.447061	4619.000000
1699.457145	4517.000000
1700.466857	4526.333333
1701.476197	4434.666667
1702.485166	4452.333333
1703.493763	4511.000000
1704.501989	4443.666667
1705.509844	4470.333333
1706.517328	4457.666667
1707.524442	4395.000000
1708.531185	4371.000000
1709.537558	4418.000000
1710.543561	4344.333333
1711.549194	4359.000000
1712.554457	4352.000000
1713.559351	4378.333333
1714.563875	4354.333333
1715.568030	4308.000000
1716.571816	4336.333333
1717.575233	4315.000000
1718.578282	4357.000000
1719.580962	4335.666667
1720.583273	4400.666667
1721.585217	4399.000000
1722.586792	4418.666667
1723.588000	4367.666667
1724.588840	4363.000000
1725.589312	4384.000000
1726.589418	4385.333333
1727.589156	4341.000000
1728.588527	4421.333333
1729.587532	4350.000000
1730.586170	4308.000000
1731.584441	4403.000000
1732.582346	4365.666667
1733.579886	4296.666667
1734.577059	4298.333333
1735.573867	4327.000000
1736.570309	4274.000000
1737.566386	4278.000000
1738.562097	4264.333333
1739.557444	4214.333333
1740.552426	4224.000000
1741.547043	4190.000000
1742.541295	4195.000000
1743.535184	4173.000000
1744.528708	4146.666667
1745.521868	4154.000000
1746.514664	4141.666667
1747.507097	4105.000000
1748.499166	4115.000000
1749.490873	4101.333333
1750.482216	4126.000000
1751.473196	4057.666667
1752.463813	4142.666667
1753.454068	4075.666667
1754.443960	4094.666667
1755.433490	4086.333333
1756.422658	4048.666667
1757.411464	4094.333333
1758.399908	4066.000000
1759.387991	4061.333333
1760.375713	4084.000000
1761.363073	4052.666667
1762.350072	4035.333333
1763.336711	4005.666667
1764.322988	4016.000000
1765.308905	4026.666667
1766.294462	3992.000000
1767.279659	4010.666667
1768.264496	4002.333333
1769.248972	3993.666667
1770.233089	3933.000000
1771.216847	3959.000000
1772.200245	3980.333333
1773.183284	4001.000000
1774.165965	3970.333333
1775.148286	3940.666667
1776.130249	3917.333333
1777.111853	3911.666667
1778.093099	3859.666667
1779.073987	3860.666667
1780.054517	3844.000000
1781.034689	3819.000000
1782.014503	3787.000000
1782.993960	3736.333333
1783.973060	3810.333333
1784.951802	3739.000000
1785.930188	3703.666667
1786.908217	3727.000000
1787.885889	3756.333333
1788.863205	3694.666667
1789.840164	3720.000000
1790.816768	3705.000000
1791.793015	3658.333333
1792.768907	3684.666667
1793.744443	3668.333333
1794.719624	3651.666667
1795.694449	3646.666667
1796.668919	3662.000000
1797.643035	3704.666667
1798.616795	3687.666667
1799.590201	3660.333333
1800.563253	3654.333333
1801.535950	3769.333333
1802.508294	3698.666667
1803.480283	3668.666667
1804.451919	3719.666667
1805.423201	3740.666667
1806.394129	3722.333333
1807.364705	3675.666667
1808.334927	3703.666667
1809.304796	3721.000000
1810.274313	3688.000000
1811.243477	3651.000000
1812.212288	3610.000000
1813.180747	3662.000000
1814.148855	3590.000000
1815.116610	3628.000000
1816.084013	3640.666667
1817.051065	3630.333333
1818.017766	3656.666667
1818.984115	3631.666667
1819.950113	3627.333333
1820.915760	3589.333333
1821.881057	3563.333333
1822.846003	3570.000000
1823.810598	3580.666667
1824.774843	3556.666667
1825.738738	3566.333333
1826.702283	3567.000000
1827.665479	3564.000000
1828.628324	3510.000000
1829.590821	3549.000000
1830.552968	3517.666667
1831.514765	3524.000000
1832.476214	3454.000000
1833.437314	3439.333333
1834.398066	3510.000000
1835.358469	3492.666667
1836.318524	3478.666667
1837.278230	3458.333333
1838.237589	3476.333333
1839.196600	3478.000000
1840.155263	3443.666667
1841.113578	3455.333333
1842.071547	3465.000000
1843.029168	3510.666667
1843.986442	3469.000000
1844.943369	3468.666667
1845.899950	3523.666667
1846.856184	3487.666667
1847.812072	3501.000000
1848.767614	3501.333333
1849.722809	3454.000000
1850.677659	3489.666667
1851.632163	3539.000000
1852.586322	3449.333333
1853.540135	3478.333333
1854.493603	3441.666667
1855.446726	3514.333333
1856.399504	3460.000000
1857.351937	3476.666667
1858.304026	3473.000000
1859.255770	3375.000000
1860.207170	3487.000000
1861.158227	3362.333333
1862.108939	3398.333333
1863.059307	3390.333333
1864.009332	3344.333333
1864.959013	3334.666667
1865.908351	3317.000000
1866.857346	3356.666667
1867.805998	3302.666667
1868.754307	3283.666667
1869.702274	3294.666667
1870.649898	3284.333333
1871.597180	3291.000000
1872.544119	3311.666667
1873.490717	3276.333333
1874.436973	3253.666667
1875.382887	3262.666667
1876.328459	3276.666667
1877.273691	3218.000000
1878.218581	3265.000000
1879.163130	3235.666667
1880.107338	3277.000000
1881.051205	3218.333333
1881.994732	3216.333333
1882.937919	3256.000000
1883.880765	3250.000000
1884.823271	3241.333333
1885.765437	3258.333333
1886.707264	3237.000000
1887.648750	3278.000000
1888.589898	3272.000000
1889.530706	3217.666667
1890.471175	3284.666667
1891.411305	3216.000000
1892.351096	3255.000000
1893.290548	3248.666667
1894.229662	3238.000000
1895.168438	3235.333333
1896.106876	3239.666667
1897.044975	3239.333333
1897.982737	3235.666667
1898.920160	3247.333333
1899.857247	3225.666667
1900.793996	3192.333333
1901.730407	3122.666667
1902.666482	3181.666667
1903.602219	3169.666667
1904.537620	3153.333333
1905.472685	3162.000000
1906.407412	3137.666667
1907.341804	3106.333333
1908.275859	3164.000000
1909.209579	3050.000000
1910.142962	3052.333333
1911.076010	3025.666667
1912.008722	3037.333333
1912.941099	3046.000000
1913.873141	2967.333333
1914.804848	3009.000000
1915.736219	3007.333333
1916.667256	3000.333333
1917.597959	2961.000000
1918.528327	2962.666667
1919.458360	2955.666667
1920.388060	2965.000000
1921.317426	2970.333333
1922.246457	2969.000000
1923.175156	2945.000000
1924.103520	2972.333333
1925.031552	2965.666667
1925.959250	2974.666667
1926.886615	2929.333333
1927.813647	2946.666667
1928.740346	2957.000000
1929.666713	2958.333333
1930.592748	2971.333333
1931.518450	2953.333333
1932.443820	2972.000000
1933.368858	2948.000000
1934.293564	2972.000000
1935.217939	2938.666667
1936.141982	2944.666667
1937.065694	2925.000000
1937.989074	2948.333333
1938.912124	2957.333333
1939.834842	2918.333333
1940.757230	2923.333333
1941.679287	2879.000000
1942.601014	2887.000000
1943.522411	2861.000000
1944.443477	2883.666667
1945.364214	2852.666667
1946.284621	2875.333333
1947.204698	2842.000000
1948.124445	2795.000000
1949.043863	2821.666667
1949.962952	2799.666667
1950.881712	2820.666667
1951.800143	2763.333333
1952.718245	2808.666667
1953.636019	2807.000000
1954.553464	2774.000000
1955.470581	2762.333333
1956.387369	2746.000000
1957.303830	2743.666667
1958.219963	2749.000000
1959.135768	2728.666667
1960.051246	2750.000000
1960.966396	2739.333333
1961.881219	2735.666667
1962.795715	2723.333333
1963.709883	2717.666667
1964.623726	2775.666667
1965.537241	2706.333333
1966.450430	2765.666667
1967.363293	2731.333333
1968.275829	2724.000000
1969.188040	2753.000000
1970.099924	2824.333333
1971.011483	2774.666667
1971.922716	2812.666667
1972.833624	2754.666667
1973.744206	2758.666667
1974.654464	2739.000000
1975.564396	2781.000000
1976.474004	2779.000000
1977.383286	2698.000000
1978.292245	2710.333333
1979.200878	2753.333333
1980.109188	2711.000000
1981.017174	2709.333333
1981.924835	2670.333333
1982.832173	2667.333333
1983.739187	2661.000000
1984.645878	2665.666667
1985.552245	2643.000000
1986.458289	2676.666667
1987.364010	2642.666667
1988.269408	2611.000000
1989.174484	2625.666667
1990.079236	2580.000000
1990.983667	2616.000000
1991.887775	2578.333333
1992.791561	2549.000000
1993.695024	2526.666667
1994.598166	2545.333333
1995.500986	2541.666667
1996.403485	2569.000000
1997.305662	2542.333333
1998.207518	2533.000000
1999.109053	2537.666667
