200.151048	21290.666667
201.758777	21313.000000
203.365815	21028.333333
204.972162	21067.333333
206.577820	20970.666667
208.182787	21032.000000
209.787065	20912.000000
211.390653	20841.000000
212.993553	20761.666667
214.595765	20740.000000
216.197289	20789.666667
217.798125	20678.666667
219.398274	20719.666667
220.997737	20722.666667
222.596513	20604.333333
224.194603	20527.666667
225.792008	20545.333333
227.388728	20538.333333
228.984763	20560.000000
230.580114	20460.333333
232.174781	20444.000000
233.768765	20316.000000
235.362065	20328.000000
236.954683	20261.666667
238.546619	20198.333333
240.137872	20198.666667
241.728445	20113.333333
243.318336	20067.000000
244.907546	19948.666667
246.496076	19901.000000
248.083926	19858.666667
249.671097	19804.000000
251.257589	19704.666667
252.843402	19737.666667
254.428536	19675.333333
256.012993	19547.666667
257.596772	19499.000000
259.179874	19474.333333
260.762300	19319.333333
262.344049	19432.000000
263.925122	19372.333333
265.505519	19389.000000
267.085241	19359.000000
268.664289	19219.666667
270.242662	19258.666667
271.820361	19322.666667
273.397387	19252.333333
274.973740	19301.000000
276.549419	19166.000000
278.124426	19244.000000
279.698762	19266.333333
281.272425	19324.333333
282.845417	19300.000000
284.417739	19161.000000
285.989390	19286.000000
287.560371	19320.666667
289.130682	19173.666667
290.700324	19237.666667
292.269297	19139.333333
293.837602	19143.000000
295.405238	19054.666667
296.972207	19005.666667
298.538508	19032.000000
300.104142	18997.333333
301.669110	18950.666667
303.233411	18878.333333
304.797047	18770.333333
306.360017	18649.000000
307.922322	18681.000000
309.483963	18510.333333
311.044939	18509.333333
312.605252	18530.666667
314.164900	18349.333333
315.723886	18321.333333
317.282209	18367.666667
318.839870	18300.333333
320.396868	18146.000000
321.953205	18158.333333
323.508881	18136.666667
325.063896	18115.000000
326.618251	17938.666667
328.171945	18003.333333
329.724980	18090.666667
331.277356	18046.000000
332.829072	17936.000000
334.380131	17975.000000
335.930530	17861.000000
337.480273	17905.000000
339.029357	17902.333333
340.577785	17924.666667
342.125556	17772.000000
343.672671	17741.000000
345.219130	17701.666667
346.764933	17773.666667
348.310081	17582.666667
349.854575	17674.000000
351.398414	17616.000000
352.941599	17699.333333
354.484130	17630.000000
356.026008	17575.333333
357.567234	17516.333333
359.107807	17469.000000
360.647727	17522.333333
362.186996	17398.666667
363.725614	17387.666667
365.263580	17375.333333
366.800896	17286.333333
368.337562	17284.000000
369.873578	17296.000000
371.408944	17255.666667
372.943661	17216.666667
374.477730	17228.666667
376.011150	17104.000000
377.543922	17363.000000
379.076046	17278.666667
380.607523	17261.666667
382.138353	17267.000000
383.668537	17308.000000
385.198075	17415.000000
386.726966	17288.000000
388.255213	17273.666667
389.782814	17353.333333
391.309770	17423.333333
392.836083	17388.333333
394.361751	17496.666667
395.886776	17330.000000
397.411157	17385.333333
398.934896	17531.666667
400.457992	17442.000000
401.980446	17492.666667
403.502258	17655.666667
405.023429	17524.666667
406.543959	17595.000000
408.063849	17596.000000
409.583098	17651.000000
411.101707	17817.666667
412.619677	17716.666667
414.137007	17958.333333
415.653699	18058.666667
417.169752	18148.333333
418.685167	18262.333333
420.199945	18557.000000
421.714085	18771.000000
423.227588	18759.666667
424.740454	19093.666667
426.252684	19028.333333
427.764279	19247.666667
429.275238	19265.333333
430.785561	19138.333333
432.295250	18967.333333
433.804304	18821.666667
435.312725	18663.000000
436.820511	18476.666667
438.327664	18341.333333
439.834185	18175.333333
441.340072	18220.000000
442.845327	18150.666667
444.349951	18058.333333
445.853942	17937.000000
447.357303	17900.000000
448.860033	17868.333333
450.362132	17778.333333
451.863601	17693.000000
453.364440	17442.666667
454.864650	17301.333333
456.364231	17218.333333
457.863183	17056.666667
459.361507	16896.666667
460.859203	16824.333333
462.356271	16828.333333
463.852712	16565.666667
465.348526	16551.333333
466.843714	16528.000000
468.338275	16376.000000
469.832210	16264.666667
471.325520	16331.333333
472.818205	16244.666667
474.310265	16096.333333
475.801700	16029.000000
477.292512	15943.666667
478.782700	16018.000000
480.272264	15995.666667
481.761205	15895.333333
483.249524	15783.333333
484.737221	15886.333333
486.224295	15723.000000
487.710748	15653.333333
489.196579	15548.666667
490.681790	15674.666667
492.166380	15669.666667
493.650350	15583.000000
495.133700	15551.000000
496.616431	15556.666667
498.098542	15591.666667
499.580035	15512.333333
501.060909	15450.333333
502.541165	15460.000000
504.020804	15506.000000
505.499825	15458.666667
506.978228	15462.000000
508.456016	15370.666667
509.933186	15240.000000
511.409741	15290.000000
512.885680	15262.666667
514.361004	15260.000000
515.835713	15369.666667
517.309807	15247.333333
518.783287	15269.000000
520.256153	15240.000000
521.728406	15322.000000
523.200045	15356.666667
524.671071	15359.000000
526.141485	15165.333333
527.611287	15233.333333
529.080476	15309.333333
530.549054	15237.000000
532.017021	15258.000000
533.484378	15242.666667
534.951123	15184.000000
536.417259	15327.666667
537.882785	15134.666667
539.347701	15121.000000
540.812008	15081.000000
542.275707	15199.333333
543.738797	15113.666667
545.201279	15212.666667
546.663153	15193.333333
548.124420	15226.333333
549.585080	15240.333333
551.045133	15177.333333
552.504579	15285.666667
553.963420	15295.666667
555.421655	15368.666667
556.879285	15362.333333
558.336309	15328.000000
559.792729	15315.333333
561.248545	15330.333333
562.703756	15443.000000
564.158364	15397.000000
565.612369	15587.666667
567.065770	15559.000000
568.518569	15737.333333
569.970766	15772.666667
571.422361	15792.333333
572.873354	15764.000000
574.323745	16000.000000
575.773536	16048.666667
577.222726	16164.333333
578.671316	16230.333333
580.119306	16377.666667
581.566696	16304.666667
583.013487	16212.666667
584.459679	16137.666667
585.905273	16122.000000
587.350268	16029.000000
588.794665	16103.666667
590.238465	16040.333333
591.681667	15994.666667
593.124272	15856.333333
594.566281	15665.333333
596.007694	15591.000000
597.448510	15397.666667
598.888731	15349.000000
600.328357	15181.333333
601.767388	15152.000000
603.205824	15117.333333
604.643666	15079.333333
606.080914	15069.666667
607.517568	14963.666667
608.953629	14989.666667
610.389097	15049.666667
611.823972	14964.333333
613.258255	14930.000000
614.691946	14809.333333
616.125046	14670.333333
617.557554	14655.666667
618.989471	14412.333333
620.420798	14342.666667
621.851534	14295.000000
623.281680	14249.000000
624.711237	14107.666667
626.140204	14077.666667
627.568582	14065.000000
628.996372	13932.333333
630.423573	13887.666667
631.850186	13942.333333
633.276211	13881.333333
634.701650	13804.000000
636.126501	13862.000000
637.550765	13858.000000
638.974443	13775.666667
640.397535	13757.333333
641.820041	13810.333333
643.241961	13765.666667
644.663297	13727.666667
646.084048	13739.000000
647.504214	13730.666667
648.923796	13614.000000
650.342795	13578.000000
651.761210	13643.666667
653.179041	13474.333333
654.596290	13460.333333
656.012957	13502.000000
657.429041	13485.666667
658.844543	13469.333333
660.259464	13440.000000
661.673804	13506.000000
663.087563	13359.000000
664.500741	13482.666667
665.913339	13410.666667
667.325357	13492.000000
668.736795	13451.666667
670.147654	13414.333333
671.557934	13351.000000
672.967636	13471.000000
674.376759	13323.666667
675.785304	13296.000000
677.193271	13369.000000
678.600661	13262.666667
680.007474	13306.333333
681.413711	13219.666667
682.819370	13283.666667
684.224454	13247.666667
685.628962	13191.666667
687.032895	13349.666667
688.436252	13185.666667
689.839034	13151.333333
691.241242	13185.000000
692.642876	13149.000000
694.043936	13131.000000
695.444422	13032.666667
696.844336	13107.666667
698.243676	13155.333333
699.642443	13109.666667
701.040639	13098.000000
702.438262	13068.666667
703.835313	13055.000000
705.231794	12986.333333
706.627703	12943.000000
708.023041	12991.333333
709.417810	12991.333333
710.812008	12956.666667
712.205636	12952.000000
713.598694	12963.666667
714.991184	12942.666667
716.383105	12979.333333
717.774457	12915.666667
719.165241	12821.666667
720.555457	12838.333333
721.945105	12905.666667
723.334187	12913.000000
724.722701	12769.000000
726.110648	12875.666667
727.498030	12802.666667
728.884845	12790.666667
730.271094	12774.333333
731.656778	12822.000000
733.041897	12671.333333
734.426451	12615.000000
735.810441	12703.666667
737.193866	12668.666667
738.576728	12707.333333
739.959026	12621.333333
741.340760	12636.000000
742.721932	12706.666667
744.102541	12675.000000
745.482588	12647.000000
746.862073	12668.333333
748.240996	12683.666667
749.619358	12574.666667
750.997158	12639.333333
752.374398	12693.333333
753.751077	12600.666667
755.127197	12683.666667
756.502756	12572.000000
757.877756	12578.333333
759.252196	12570.666667
760.626078	12577.333333
761.999400	12575.666667
763.372165	12478.333333
764.744371	12531.000000
766.116020	12446.666667
767.487111	12496.000000
768.857646	12436.666667
770.227623	12322.000000
771.597044	12396.000000
772.965908	12301.666667
774.334217	12393.333333
775.701970	12233.333333
777.069168	12269.333333
778.435811	12233.333333
779.801899	12264.000000
781.167433	12225.333333
782.532412	12246.666667
783.896838	12232.666667
785.260710	12190.333333
786.624029	12106.333333
787.986796	12164.000000
789.349009	12183.000000
790.710671	12152.000000
792.071780	12105.333333
793.432338	12088.000000
794.792344	12123.000000
796.151799	12031.666667
797.510704	12053.000000
798.869058	11967.000000
800.226862	12004.333333
801.584116	11981.666667
802.940820	12022.000000
804.296975	12038.000000
805.652581	11969.000000
807.007638	11958.666667
808.362147	12045.666667
809.716108	12040.000000
811.069521	11967.333333
812.422387	12039.000000
813.774705	12064.000000
815.126476	11953.333333
816.477701	11954.666667
817.828380	11913.333333
819.178512	12034.333333
820.528099	11942.000000
821.877140	11852.333333
823.225637	11907.000000
824.573588	11854.666667
825.920995	11795.000000
827.267857	11842.000000
828.614176	11762.333333
829.959951	11764.000000
831.305183	11829.333333
832.649871	11786.666667
833.994017	11739.333333
835.337620	11792.666667
836.680681	11772.666667
838.023201	11844.666667
839.365178	11877.666667
840.706614	11744.333333
842.047510	11811.333333
843.387864	11834.000000
844.727678	11912.000000
846.066952	11986.333333
847.405687	11912.000000
848.743881	12018.000000
850.081537	12027.666667
851.418653	12045.666667
852.755231	12079.666667
854.091270	12070.333333
855.426771	12019.000000
856.761735	11905.000000
858.096160	11962.666667
859.430049	11861.666667
860.763401	11974.666667
862.096216	11807.666667
863.428495	11772.666667
864.760237	11824.333333
866.091444	11787.333333
867.422115	11854.666667
868.752252	11759.000000
870.081853	11754.666667
871.410919	11666.000000
872.739452	11660.333333
874.067450	11736.333333
875.394914	11586.666667
876.721845	11568.333333
878.048243	11547.333333
879.374108	11564.666667
880.699440	11583.333333
882.024240	11531.000000
883.348508	11535.000000
884.672244	11449.666667
885.995449	11532.666667
887.318122	11380.333333
888.640265	11420.666667
889.961877	11396.333333
891.282959	11344.666667
892.603510	11291.333333
893.923532	11278.000000
895.243024	11307.000000
896.561987	11264.666667
897.880422	11188.666667
899.198327	11215.000000
900.515705	11181.333333
901.832554	11172.666667
903.148875	11225.333333
904.464669	11150.666667
905.779936	11192.000000
907.094676	11102.666667
908.408889	11229.666667
909.722576	11248.000000
911.035737	11262.666667
912.348371	11372.333333
913.660481	11334.666667
914.972065	11388.666667
916.283124	11568.000000
917.593659	11498.666667
918.903669	11490.333333
920.213155	11532.666667
921.522117	11442.000000
922.830556	11542.666667
924.138471	11528.333333
925.445864	11441.666667
926.752733	11445.666667
928.059081	11519.666667
929.364906	11600.000000
930.670209	11635.666667
931.974991	11682.666667
933.279251	11788.666667
934.582990	11930.666667
935.886209	11917.333333
937.188907	12205.666667
938.491085	12301.000000
939.792743	12453.000000
941.093881	12723.666667
942.394500	12915.000000
943.694600	13248.666667
944.994181	13546.000000
946.293243	14117.000000
947.591787	14632.666667
948.889813	15199.000000
950.187322	15879.000000
951.484313	16684.333333
952.780787	17552.333333
954.076744	18601.000000
955.372184	19404.000000
956.667108	20078.666667
957.961516	20674.000000
959.255409	20648.333333
960.548785	20276.666667
961.841647	19741.000000
963.133993	18662.000000
964.425825	17598.000000
965.717142	16626.333333
967.007946	15372.000000
968.298235	14489.666667
969.588011	13694.666667
970.877273	12950.666667
972.166023	12435.666667
973.454259	11934.333333
974.741984	11614.000000
976.029196	11362.333333
977.315895	11207.333333
978.602084	11051.000000
979.887761	10843.000000
981.172926	10798.333333
982.457581	10637.000000
983.741725	10539.333333
985.025359	10598.000000
986.308483	10483.666667
987.591097	10422.333333
988.873202	10400.333333
990.154797	10444.666667
991.435883	10382.333333
992.716461	10327.333333
993.996530	10438.333333
995.276091	10340.000000
996.555144	10489.333333
997.833690	10515.333333
999.111728	10464.333333
1000.389259	10549.333333
1001.666283	10556.333333
1002.942800	10664.000000
1004.218812	10570.666667
1005.494317	10589.333333
1006.769317	10533.666667
1008.043811	10478.666667
1009.317799	10481.666667
1010.591283	10371.666667
1011.864263	10392.000000
1013.136737	10443.333333
1014.408708	10590.666667
1015.680175	10561.000000
1016.951138	10523.333333
1018.221598	10572.666667
1019.491554	10561.333333
1020.761008	10580.000000
1022.029959	10552.666667
1023.298408	10577.333333
1024.566355	10668.333333
1025.833800	10563.000000
1027.100744	10620.333333
1028.367187	10714.666667
1029.633128	10656.666667
1030.898569	10632.333333
1032.163509	10642.000000
1033.427949	10661.666667
1034.691890	10655.333333
1035.955330	10727.000000
1037.218271	10703.333333
1038.480714	10714.000000
1039.742657	10709.000000
1041.004101	10716.333333
1042.265048	10776.333333
1043.525496	10788.333333
1044.785446	10759.333333
1046.044899	10646.000000
1047.303855	10683.333333
1048.562313	10613.333333
1049.820275	10613.000000
1051.077740	10609.000000
1052.334709	10575.333333
1053.591182	10572.666667
1054.847160	10553.333333
1056.102641	10574.666667
1057.357628	10551.000000
1058.612120	10578.666667
1059.866117	10671.000000
1061.119619	10760.000000
1062.372628	10822.333333
1063.625142	10828.666667
1064.877163	10910.666667
1066.128691	10937.666667
1067.379725	11063.666667
1068.630267	11023.333333
1069.880316	10945.000000
1071.129872	10877.666667
1072.378937	10815.000000
1073.627509	10757.000000
1074.875590	10603.000000
1076.123180	10498.000000
1077.370279	10551.333333
1078.616887	10382.000000
1079.863004	10295.000000
1081.108631	10164.000000
1082.353768	9988.333333
1083.598415	9967.666667
1084.842573	9793.666667
1086.086241	9835.666667
1087.329421	9682.666667
1088.572111	9590.333333
1089.814314	9621.666667
1091.056028	9595.000000
1092.297253	9525.333333
1093.537992	9530.666667
1094.778242	9429.000000
1096.018006	9456.666667
1097.257282	9416.333333
1098.496072	9451.666667
1099.734376	9321.666667
1100.972193	9360.000000
1102.209524	9350.333333
1103.446370	9333.000000
1104.682730	9280.333333
1105.918604	9207.000000
1107.153994	9233.333333
1108.388900	9235.666667
1109.623320	9163.000000
1110.857257	9167.333333
1112.090710	9131.333333
1113.323679	8988.333333
1114.556164	8998.333333
1115.788167	8895.666667
1117.019686	8997.333333
1118.250723	8918.666667
1119.481278	8868.000000
1120.711350	8794.666667
1121.940940	8895.333333
1123.170049	8906.000000
1124.398676	8849.000000
1125.626823	8840.666667
1126.854488	8844.333333
1128.081672	8842.000000
1129.308376	8817.333333
1130.534600	8750.333333
1131.760345	8827.000000
1132.985609	8811.000000
1134.210394	8758.333333
1135.434700	8722.666667
1136.658527	8673.666667
1137.881875	8721.000000
1139.104745	8694.333333
1140.327136	8689.666667
1141.549050	8742.666667
1142.770486	8619.666667
1143.991445	8602.000000
1145.211926	8660.666667
1146.431931	8604.666667
1147.651459	8594.000000
1148.870510	8634.000000
1150.089086	8639.000000
1151.307185	8591.000000
1152.524808	8541.333333
1153.741957	8602.666667
1154.958630	8494.000000
1156.174828	8593.000000
1157.390551	8564.666667
1158.605800	8617.000000
1159.820574	8584.333333
1161.034875	8605.000000
1162.248702	8579.666667
1163.462055	8498.333333
1164.674936	8574.666667
1165.887343	8535.666667
1167.099277	8540.333333
1168.310739	8520.333333
1169.521729	8528.000000
1170.732247	8489.666667
1171.942293	8569.000000
1173.151867	8491.333333
1174.360970	8551.666667
1175.569602	8460.666667
1176.777764	8440.666667
1177.985454	8479.666667
1179.192675	8529.000000
1180.399425	8438.000000
1181.605706	8428.000000
1182.811517	8433.000000
1184.016859	8276.666667
1185.221731	8383.666667
1186.426135	8342.000000
1187.630070	8344.000000
1188.833537	8232.666667
1190.036535	8249.666667
1191.239066	8261.333333
1192.441129	8181.333333
1193.642725	8251.000000
1194.843853	8226.000000
1196.044515	8240.333333
1197.244710	8208.333333
1198.444438	8182.333333
1199.643701	8268.666667
1200.842497	8216.333333
1202.040827	8255.333333
1203.238693	8256.333333
1204.436092	8245.666667
1205.633027	8163.666667
1206.829497	8190.333333
1208.025503	8259.666667
1209.221044	8070.000000
1210.416122	8186.333333
1211.610735	8136.666667
1212.804885	8065.333333
1213.998572	7986.333333
1215.191795	8067.333333
1216.384556	7973.000000
1217.576854	8006.666667
1218.768689	7990.333333
1219.960063	7946.000000
1221.150974	7953.333333
1222.341424	8059.333333
1223.531413	8044.666667
1224.720940	8061.333333
1225.910006	8047.000000
1227.098612	8120.666667
1228.286757	8053.333333
1229.474442	8056.666667
1230.661667	8199.333333
1231.848432	8250.666667
1233.034738	8152.666667
1234.220584	8230.000000
1235.405971	8199.000000
1236.590900	8223.666667
1237.775369	8288.333333
1238.959381	8366.000000
1240.142934	8286.666667
1241.326029	8311.666667
1242.508667	8289.000000
1243.690848	8377.000000
1244.872571	8301.666667
1246.053837	8290.666667
1247.234646	8294.333333
1248.414999	8341.000000
1249.594896	8272.666667
1250.774337	8187.666667
1251.953322	8195.333333
1253.131851	8124.666667
1254.309925	8194.000000
1255.487544	8104.000000
1256.664708	8171.000000
1257.841417	8077.666667
1259.017673	8142.333333
1260.193473	8042.333333
1261.368820	8098.333333
1262.543714	8080.333333
1263.718154	8155.666667
1264.892140	8146.000000
1266.065674	8167.000000
1267.238755	8126.000000
1268.411383	8139.666667
1269.583559	8181.000000
1270.755283	8088.333333
1271.926555	8113.000000
1273.097375	8119.333333
1274.267744	8062.666667
1275.437662	8030.000000
1276.607129	7981.666667
1277.776145	8086.000000
1278.944711	7996.333333
1280.112827	7984.333333
1281.280492	8003.333333
1282.447708	7922.333333
1283.614474	7977.333333
1284.780791	7916.666667
1285.946659	7826.333333
1287.112078	7772.333333
1288.277048	7863.333333
1289.441570	7701.000000
1290.605644	7810.000000
1291.769270	7740.000000
1292.932448	7656.333333
1294.095178	7684.000000
1295.257461	7645.000000
1296.419298	7623.666667
1297.580687	7620.666667
1298.741630	7614.666667
1299.902126	7501.333333
1301.062177	7576.000000
1302.221781	7592.000000
1303.380940	7607.666667
1304.539653	7598.666667
1305.697921	7613.000000
1306.855744	7575.333333
1308.013123	7567.333333
1309.170056	7560.666667
1310.326546	7473.333333
1311.482591	7557.000000
1312.638193	7554.000000
1313.793350	7550.666667
1314.948065	7517.333333
1316.102336	7550.333333
1317.256164	7487.666667
1318.409550	7538.666667
1319.562493	7448.666667
1320.714993	7445.333333
1321.867052	7437.000000
1323.018668	7383.000000
1324.169843	7395.000000
1325.320577	7371.000000
1326.470870	7311.333333
1327.620721	7319.333333
1328.770132	7346.000000
1329.919102	7298.000000
1331.067632	7292.000000
1332.215722	7292.666667
1333.363372	7250.333333
1334.510582	7231.333333
1335.657353	7271.000000
1336.803685	7262.000000
1337.949578	7333.000000
1339.095032	7322.666667
1340.240048	7216.333333
1341.384625	7279.000000
1342.528764	7303.333333
1343.672466	7251.333333
1344.815729	7227.666667
1345.958556	7289.666667
1347.100945	7220.666667
1348.242897	7225.333333
1349.384413	7242.666667
1350.525492	7209.666667
1351.666134	7090.666667
1352.806341	7060.666667
1353.946111	7129.000000
1355.085446	7054.000000
1356.224346	7071.000000
1357.362810	6999.666667
1358.500840	7062.000000
1359.638434	7011.666667
1360.775594	6964.333333
1361.912320	6972.333333
1363.048612	7020.666667
1364.184469	6919.000000
1365.319893	7018.000000
1366.454884	6936.666667
1367.589441	6954.666667
1368.723566	6956.333333
1369.857257	6951.333333
1370.990516	6943.666667
1372.123343	6989.333333
1373.255737	6957.333333
1374.387699	6992.666667
1375.519230	6989.666667
1376.650329	7010.666667
1377.780997	7041.666667
1378.911234	6993.333333
1380.041040	6968.333333
1381.170416	7033.666667
1382.299361	6996.333333
1383.427875	6975.000000
1384.555960	6921.666667
1385.683615	6996.333333
1386.810841	6956.333333
1387.937637	6939.666667
1389.064004	6931.333333
1390.189942	6957.666667
1391.315451	6877.333333
1392.440532	6957.333333
1393.565185	6890.000000
1394.689409	6857.666667
1395.813206	6870.000000
1396.936575	6812.333333
1398.059517	6852.000000
1399.182032	6839.000000
1400.304119	6799.000000
1401.425780	6794.666667
1402.547014	6775.333333
1403.667822	6788.000000
1404.788204	6749.666667
1405.908160	6785.000000
1407.027690	6773.000000
1408.146795	6794.000000
1409.265474	6761.000000
1410.383728	6813.666667
1411.501558	6785.000000
1412.618963	6823.333333
1413.735943	6804.666667
1414.852499	6840.333333
1415.968632	6861.333333
1417.084340	6924.000000
1418.199625	6884.666667
1419.314486	6839.666667
1420.428925	6820.333333
1421.542940	6812.000000
1422.656533	6904.333333
1423.769703	6897.333333
1424.882451	6845.000000
1425.994777	6798.666667
1427.106680	6774.333333
1428.218163	6729.666667
1429.329223	6738.333333
1430.439863	6790.000000
1431.550081	6734.333333
1432.659879	6733.000000
1433.769256	6744.666667
1434.878212	6724.000000
1435.986749	6656.333333
1437.094865	6727.666667
1438.202562	6680.666667
1439.309839	6714.000000
1440.416696	6750.333333
1441.523135	6699.000000
1442.629154	6774.333333
1443.734755	6819.333333
1444.839937	6854.333333
1445.944701	6894.333333
1447.049047	6922.333333
1448.152975	6959.333333
1449.256485	6862.666667
1450.359577	6874.666667
1451.462253	6886.666667
1452.564511	6865.666667
1453.666352	6892.333333
1454.767777	6828.666667
1455.868785	6853.666667
1456.969377	6784.000000
1458.069553	6795.333333
1459.169313	6704.666667
1460.268658	6711.000000
1461.367587	6705.000000
1462.466101	6597.333333
1463.564200	6657.000000
1464.661884	6591.666667
1465.759153	6483.000000
1466.856008	6499.666667
1467.952449	6428.000000
1469.048476	6393.000000
1470.144089	6380.333333
1471.239288	6388.000000
1472.334074	6231.666667
1473.428447	6229.666667
1474.522407	6270.333333
1475.615955	6142.333333
1476.709089	6080.666667
1477.801812	6107.000000
1478.894122	6134.666667
1479.986020	6104.666667
1481.077506	6052.666667
1482.168581	6011.666667
1483.259245	5942.666667
1484.349498	6004.333333
1485.439339	6013.000000
1486.528770	5978.333333
1487.617790	6043.000000
1488.706400	5968.666667
1489.794600	5950.000000
1490.882390	5944.333333
1491.969771	5938.000000
1493.056742	5951.666667
1494.143303	5864.333333
1495.229456	5894.000000
1496.315199	5909.666667
1497.400534	5804.333333
1498.485460	5826.333333
1499.569978	5838.666667
1500.654088	5825.333333
1501.737790	5862.666667
1502.821085	5829.333333
1503.903972	5770.333333
1504.986451	5814.333333
1506.068524	5723.000000
1507.150189	5766.333333
1508.231448	5767.000000
1509.312301	5660.000000
1510.392747	5701.000000
1511.472787	5630.000000
1512.552422	5685.666667
1513.631650	5704.333333
1514.710473	5605.666667
1515.788891	5646.333333
1516.866904	5583.666667
1517.944512	5600.000000
1519.021715	5596.333333
1520.098513	5600.666667
1521.174908	5573.000000
1522.250898	5588.666667
1523.326485	5660.333333
1524.401667	5621.000000
1525.476447	5648.000000
1526.550823	5620.666667
1527.624796	5585.666667
1528.698365	5651.000000
1529.771533	5575.333333
1530.844298	5639.333333
1531.916660	5641.333333
1532.988620	5619.333333
1534.060179	5624.333333
1535.131336	5599.333333
1536.202091	5612.000000
1537.272445	5539.666667
1538.342398	5520.000000
1539.411950	5508.000000
1540.481101	5536.000000
1541.549851	5470.000000
1542.618202	5449.666667
1543.686152	5507.000000
1544.753702	5478.333333
1545.820853	5451.333333
1546.887604	5469.000000
1547.953955	5444.333333
1549.019908	5397.000000
1550.085461	5480.666667
1551.150616	5384.666667
1552.215372	5397.000000
1553.279730	5419.666667
1554.343690	5389.666667
1555.407252	5369.666667
1556.470415	5388.000000
1557.533182	5332.666667
1558.595551	5381.333333
1559.657522	5342.000000
1560.719097	5338.666667
1561.780275	5296.333333
1562.841056	5312.333333
1563.901441	5395.666667
1564.961429	5363.666667
1566.021022	5346.000000
1567.080219	5390.666667
1568.139020	5284.000000
1569.197425	5342.333333
1570.255436	5290.666667
1571.313051	5268.000000
1572.370271	5287.333333
1573.427097	5330.333333
1574.483528	5294.666667
1575.539565	5237.666667
1576.595208	5249.333333
1577.650457	5237.000000
1578.705312	5212.333333
1579.759774	5220.333333
1580.813842	5156.666667
1581.867517	5224.000000
1582.920799	5173.000000
1583.973689	5206.666667
1585.026186	5184.666667
1586.078290	5103.333333
1587.130002	5143.333333
1588.181323	5104.666667
1589.232251	5132.666667
1590.282788	5110.000000
1591.332933	5081.000000
1592.382688	5090.333333
1593.432051	5099.333333
1594.481023	5103.333333
1595.529605	5128.666667
1596.577796	5085.333333
1597.625597	5068.000000
1598.673007	5089.666667
1599.720028	5107.333333
1600.766660	5119.000000
1601.812901	5169.333333
1602.858753	5109.333333
1603.904217	5141.000000
1604.949291	5161.000000
1605.993976	5211.333333
1607.038273	5150.666667
1608.082182	5099.000000
1609.125702	5136.666667
1610.168834	5081.333333
1611.211579	4995.666667
1612.253935	5079.333333
1613.295905	5024.666667
1614.337487	5015.333333
1615.378682	5048.666667
1616.419490	5043.666667
1617.459912	5056.666667
1618.499946	5047.666667
1619.539595	5046.666667
1620.578858	5034.000000
1621.617734	5058.000000
1622.656225	4998.000000
1623.694330	5033.333333
1624.732050	5036.000000
1625.769385	5019.333333
1626.806334	5004.666667
1627.842899	4970.000000
1628.879079	5014.666667
1629.914875	5024.666667
1630.950286	5025.333333
1631.985314	5036.333333
1633.019957	5028.666667
1634.054217	5000.333333
1635.088093	5003.333333
1636.121586	5021.000000
1637.154696	5025.000000
1638.187423	5045.000000
1639.219767	5040.666667
1640.251728	4993.000000
1641.283307	5057.666667
1642.314504	5049.333333
1643.345319	5056.333333
1644.375751	5023.000000
1645.405803	5074.000000
1646.435472	5031.000000
1647.464761	4998.666667
1648.493668	5057.333333
1649.522194	5071.000000
1650.550340	5010.000000
1651.578105	5066.666667
1652.605490	4998.666667
1653.632494	4964.666667
1654.659119	5004.333333
1655.685363	4927.000000
1656.711228	4952.000000
1657.736714	5018.333333
1658.761820	4932.666667
1659.786547	4944.000000
1660.810895	4900.000000
1661.834865	4865.333333
1662.858456	4936.000000
1663.881668	4865.666667
1664.904503	4890.666667
1665.926959	4786.666667
1666.949038	4837.000000
1667.970739	4813.333333
1668.992062	4831.000000
1670.013008	4847.000000
1671.033577	4772.333333
1672.053770	4778.666667
1673.073585	4728.333333
1674.093024	4745.333333
1675.112086	4690.333333
1676.130773	4733.333333
1677.149083	4691.333333
1678.167017	4716.333333
1679.184576	4734.000000
1680.201760	4718.000000
1681.218568	4712.333333
1682.235001	4664.333333
1683.251059	4686.333333
1684.266742	4639.666667
1685.282051	4641.666667
1686.296985	4614.000000
1687.311546	4626.000000
1688.325732	4588.666667
1689.339544	4554.666667
1690.352983	4524.000000
1691.366048	4454.666667
1692.378740	4477.000000
1693.391058	4420.666667
1694.403004	4428.333333
1695.414577	4453.666667
1696.425778	4344.666667
1697.436606	4369.666667
1698.447061	4379.333333
1699.457145	4300.000000
1700.466857	4328.333333
1701.476197	4309.666667
1702.485166	4204.666667
1703.493763	4223.666667
1704.501989	4181.000000
1705.509844	4225.333333
1706.517328	4230.666667
1707.524442	4204.333333
1708.531185	4139.000000
1709.537558	4135.000000
1710.543561	4142.000000
1711.549194	4077.000000
1712.554457	4154.666667
1713.559351	4101.666667
1714.563875	4141.000000
1715.568030	4100.333333
1716.571816	4124.333333
1717.575233	4176.000000
1718.578282	4111.666667
1719.580962	4140.333333
1720.583273	4149.666667
1721.585217	4159.333333
1722.586792	4175.666667
1723.588000	4163.666667
1724.588840	4094.333333
1725.589312	4113.000000
1726.589418	4089.000000
1727.589156	4149.333333
1728.588527	4143.000000
1729.587532	4097.000000
1730.586170	4094.666667
1731.584441	4085.333333
1732.582346	4088.000000
1733.579886	4056.666667
1734.577059	4091.333333
1735.573867	4061.333333
1736.570309	4044.333333
1737.566386	4011.333333
1738.562097	4010.333333
1739.557444	4037.666667
1740.552426	3965.666667
1741.547043	4040.333333
1742.541295	4000.333333
1743.535184	3991.000000
1744.528708	3943.666667
1745.521868	3919.333333
1746.514664	3916.333333
1747.507097	3917.333333
1748.499166	3884.666667
1749.490873	3866.000000
1750.482216	3863.666667
1751.473196	3887.333333
1752.463813	3886.333333
1753.454068	3911.333333
1754.443960	3845.000000
1755.433490	3880.333333
1756.422658	3847.000000
1757.411464	3882.666667
1758.399908	3907.000000
1759.387991	3798.000000
1760.375713	3853.000000
1761.363073	3836.666667
1762.350072	3851.000000
1763.336711	3869.333333
1764.322988	3835.333333
1765.308905	3845.000000
1766.294462	3821.666667
1767.279659	3794.333333
1768.264496	3830.666667
1769.248972	3745.666667
1770.233089	3758.333333
1771.216847	3737.666667
1772.200245	3739.333333
1773.183284	3715.333333
1774.165965	3750.000000
1775.148286	3740.000000
1776.130249	3740.666667
1777.111853	3698.666667
1778.093099	3681.000000
1779.073987	3673.000000
1780.054517	3617.666667
1781.034689	3643.333333
1782.014503	3629.666667
1782.993960	3576.666667
1783.973060	3597.000000
1784.951802	3507.666667
1785.930188	3527.000000
1786.908217	3543.000000
1787.885889	3510.000000
1788.863205	3513.000000
1789.840164	3489.000000
1790.816768	3472.333333
1791.793015	3483.000000
1792.768907	3437.000000
1793.744443	3450.666667
1794.719624	3485.333333
1795.694449	3468.333333
1796.668919	3511.666667
1797.643035	3513.333333
1798.616795	3476.666667
1799.590201	3544.333333
1800.563253	3485.666667
1801.535950	3498.333333
1802.508294	3541.333333
1803.480283	3528.000000
1804.451919	3500.333333
1805.423201	3520.666667
1806.394129	3540.333333
1807.364705	3509.000000
1808.334927	3533.000000
1809.304796	3499.666667
1810.274313	3453.666667
1811.243477	3488.000000
1812.212288	3438.000000
1813.180747	3480.333333
1814.148855	3432.000000
1815.116610	3403.666667
1816.084013	3468.000000
1817.051065	3454.666667
1818.017766	3466.666667
1818.984115	3496.333333
1819.950113	3467.666667
1820.915760	3452.666667
1821.881057	3380.000000
1822.846003	3413.666667
1823.810598	3424.000000
1824.774843	3362.666667
1825.738738	3355.666667
1826.702283	3400.333333
1827.665479	3344.666667
1828.628324	3351.333333
1829.590821	3331.666667
1830.552968	3364.000000
1831.514765	3298.000000
1832.476214	3387.333333
1833.437314	3332.333333
1834.398066	3302.666667
1835.358469	3277.666667
1836.318524	3292.000000
1837.278230	3303.666667
1838.237589	3306.666667
1839.196600	3259.333333
1840.155263	3345.333333
1841.113578	3315.666667
1842.071547	3282.000000
1843.029168	3272.333333
1843.986442	3348.666667
1844.943369	3260.666667
1845.899950	3344.666667
1846.856184	3314.000000
1847.812072	3324.333333
1848.767614	3287.333333
1849.722809	3320.000000
1850.677659	3317.666667
1851.632163	3277.666667
1852.586322	3315.000000
1853.540135	3317.333333
1854.493603	3285.000000
1855.446726	3283.000000
1856.399504	3275.000000
1857.351937	3251.333333
1858.304026	3286.333333
1859.255770	3232.000000
1860.207170	3237.000000
1861.158227	3229.000000
1862.108939	3219.666667
1863.059307	3221.000000
1864.009332	3192.333333
1864.959013	3192.666667
1865.908351	3201.000000
1866.857346	3180.333333
1867.805998	3157.000000
1868.754307	3137.666667
1869.702274	3123.000000
1870.649898	3082.666667
1871.597180	3169.333333
1872.544119	3114.333333
1873.490717	3093.000000
1874.436973	3139.333333
1875.382887	3046.333333
1876.328459	3074.666667
1877.273691	3088.000000
1878.218581	3053.000000
1879.163130	3108.000000
1880.107338	3055.000000
1881.051205	3074.000000
1881.994732	3105.333333
1882.937919	3118.000000
1883.880765	3097.666667
1884.823271	3122.333333
1885.765437	3078.333333
1886.707264	3093.000000
1887.648750	3086.333333
1888.589898	3086.333333
1889.530706	3081.333333
1890.471175	3070.000000
1891.411305	3097.000000
1892.351096	3098.666667
1893.290548	3068.333333
1894.229662	3055.666667
1895.168438	3045.000000
1896.106876	3117.666667
1897.044975	3067.666667
1897.982737	3042.000000
1898.920160	3051.000000
1899.857247	3064.666667
1900.793996	3046.000000
1901.730407	3042.000000
1902.666482	3038.666667
1903.602219	3031.666667
1904.537620	2978.666667
1905.472685	2990.000000
1906.407412	2975.333333
1907.341804	2939.333333
1908.275859	2944.666667
1909.209579	2928.000000
1910.142962	2931.333333
1911.076010	2936.333333
1912.008722	2897.333333
1912.941099	2908.333333
1913.873141	2858.333333
1914.804848	2839.333333
1915.736219	2843.000000
1916.667256	2845.333333
1917.597959	2853.000000
1918.528327	2855.333333
1919.458360	2869.333333
1920.388060	2788.666667
1921.317426	2790.666667
1922.246457	2812.333333
1923.175156	2866.333333
1924.103520	2791.666667
1925.031552	2844.666667
1925.959250	2786.666667
1926.886615	2808.000000
1927.813647	2826.000000
1928.740346	2831.333333
1929.666713	2851.666667
1930.592748	2856.666667
1931.518450	2832.000000
1932.443820	2837.333333
1933.368858	2841.666667
1934.293564	2800.666667
1935.217939	2826.333333
1936.141982	2846.666667
1937.065694	2813.666667
1937.989074	2811.666667
1938.912124	2771.333333
1939.834842	2757.666667
1940.757230	2752.666667
1941.679287	2811.333333
1942.601014	2780.000000
1943.522411	2790.333333
1944.443477	2809.000000
1945.364214	2726.333333
1946.284621	2750.333333
1947.204698	2700.666667
1948.124445	2713.333333
1949.043863	2700.000000
1949.962952	2690.000000
1950.881712	2687.000000
1951.800143	2614.000000
1952.718245	2628.666667
1953.636019	2628.333333
1954.553464	2601.333333
1955.470581	2601.000000
1956.387369	2615.666667
1957.303830	2617.333333
1958.219963	2646.000000
1959.135768	2599.333333
1960.051246	2606.000000
1960.966396	2609.333333
1961.881219	2577.000000
1962.795715	2568.333333
1963.709883	2606.000000
1964.623726	2648.333333
1965.537241	2598.333333
1966.450430	2630.000000
1967.363293	2649.666667
1968.275829	2643.333333
1969.188040	2622.000000
1970.099924	2621.333333
1971.011483	2621.000000
1971.922716	2645.666667
1972.833624	2676.000000
1973.744206	2664.333333
1974.654464	2622.333333
1975.564396	2655.000000
1976.474004	2630.000000
1977.383286	2617.666667
1978.292245	2597.333333
1979.200878	2616.666667
1980.109188	2566.000000
1981.017174	2585.333333
1981.924835	2564.333333
1982.832173	2588.000000
1983.739187	2571.666667
1984.645878	2571.000000
1985.552245	2531.666667
1986.458289	2521.333333
1987.364010	2504.333333
1988.269408	2542.666667
1989.174484	2460.000000
1990.079236	2473.666667
1990.983667	2474.000000
1991.887775	2484.666667
1992.791561	2461.000000
1993.695024	2463.333333
1994.598166	2456.333333
1995.500986	2434.000000
1996.403485	2450.333333
1997.305662	2405.666667
1998.207518	2431.333333
1999.109053	2464.000000
