200.151048	17314.666667
201.758777	17288.666667
203.365815	17158.666667
204.972162	17176.000000
206.577820	17099.000000
208.182787	16967.333333
209.787065	16946.666667
211.390653	16885.333333
212.993553	16839.333333
214.595765	16927.000000
216.197289	16869.000000
217.798125	16794.333333
219.398274	16840.333333
220.997737	16752.666667
222.596513	16655.000000
224.194603	16608.333333
225.792008	16648.000000
227.388728	16608.666667
228.984763	16630.333333
230.580114	16566.666667
232.174781	16572.000000
233.768765	16412.666667
235.362065	16469.666667
236.954683	16378.666667
238.546619	16335.333333
240.137872	16282.333333
241.728445	16115.333333
243.318336	16193.333333
244.907546	16096.666667
246.496076	16032.000000
248.083926	16007.000000
249.671097	15995.666667
251.257589	15947.000000
252.843402	15908.000000
254.428536	15795.000000
256.012993	15797.666667
257.596772	15745.666667
259.179874	15663.666667
260.762300	15561.000000
262.344049	15717.333333
263.925122	15717.666667
265.505519	15599.333333
267.085241	15528.333333
268.664289	15492.666667
270.242662	15530.666667
271.820361	15511.666667
273.397387	15532.333333
274.973740	15435.666667
276.549419	15407.000000
278.124426	15457.666667
279.698762	15489.000000
281.272425	15520.666667
282.845417	15526.666667
284.417739	15440.000000
285.989390	15479.333333
287.560371	15590.666667
289.130682	15350.333333
290.700324	15454.333333
292.269297	15357.666667
293.837602	15356.666667
295.405238	15336.666667
296.972207	15235.333333
298.538508	15237.333333
300.104142	15206.000000
301.669110	15214.333333
303.233411	15157.333333
304.797047	15064.666667
306.360017	15060.666667
307.922322	14867.333333
309.483963	14896.333333
311.044939	14954.000000
312.605252	14913.666667
314.164900	14783.333333
315.723886	14697.333333
317.282209	14822.666667
318.839870	14594.333333
320.396868	14511.333333
321.953205	14537.000000
323.508881	14499.000000
325.063896	14502.000000
326.618251	14502.333333
328.171945	14440.666667
329.724980	14299.000000
331.277356	14483.666667
332.829072	14303.666667
334.380131	14354.666667
335.930530	14385.666667
337.480273	14295.666667
339.029357	14334.333333
340.577785	14237.333333
342.125556	14318.000000
343.672671	14254.333333
345.219130	14176.333333
346.764933	14111.666667
348.310081	14094.666667
349.854575	14072.000000
351.398414	14075.000000
352.941599	13944.333333
354.484130	14032.000000
356.026008	13954.000000
357.567234	13934.666667
359.107807	13958.333333
360.647727	13904.333333
362.186996	13890.666667
363.725614	13857.000000
365.263580	13901.000000
366.800896	13665.333333
368.337562	13843.333333
369.873578	13732.333333
371.408944	13637.000000
372.943661	13910.333333
374.477730	13766.666667
376.011150	13739.333333
377.543922	13792.666667
379.076046	13676.333333
380.607523	13816.333333
382.138353	13886.666667
383.668537	13837.000000
385.198075	13844.000000
386.726966	13844.000000
388.255213	13937.666667
389.782814	13800.000000
391.309770	13886.666667
392.836083	13988.333333
394.361751	13897.666667
395.886776	14050.333333
397.411157	13950.666667
398.934896	14013.333333
400.457992	14009.333333
401.980446	14012.333333
403.502258	14099.333333
405.023429	14085.333333
406.543959	14102.000000
408.063849	14169.333333
409.583098	14234.000000
411.101707	14359.666667
412.619677	14323.666667
414.137007	14476.666667
415.653699	14636.666667
417.169752	14722.333333
418.685167	14848.666667
420.199945	15026.666667
421.714085	15301.666667
423.227588	15395.000000
424.740454	15477.666667
426.252684	15589.000000
427.764279	15630.333333
429.275238	15612.666667
430.785561	15574.666667
432.295250	15409.666667
433.804304	15263.333333
435.312725	15208.666667
436.820511	15165.333333
438.327664	14835.000000
439.834185	14748.666667
441.340072	14812.666667
442.845327	14549.000000
444.349951	14655.666667
445.853942	14550.666667
447.357303	14605.000000
448.860033	14492.333333
450.362132	14276.666667
451.863601	14266.000000
453.364440	14082.000000
454.864650	14027.333333
456.364231	13907.000000
457.863183	13754.333333
459.361507	13671.333333
460.859203	13553.000000
462.356271	13522.000000
463.852712	13392.000000
465.348526	13217.666667
466.843714	13177.666667
468.338275	13200.666667
469.832210	13120.000000
471.325520	13039.333333
472.818205	12967.333333
474.310265	12999.333333
475.801700	12868.666667
477.292512	12769.666667
478.782700	12763.333333
480.272264	12695.333333
481.761205	12703.000000
483.249524	12629.000000
484.737221	12645.000000
486.224295	12572.666667
487.710748	12527.666667
489.196579	12501.666667
490.681790	12456.000000
492.166380	12453.333333
493.650350	12465.333333
495.133700	12485.000000
496.616431	12476.666667
498.098542	12347.000000
499.580035	12335.333333
501.060909	12387.000000
502.541165	12416.000000
504.020804	12379.666667
505.499825	12400.333333
506.978228	12325.000000
508.456016	12326.666667
509.933186	12199.000000
511.409741	12222.333333
512.885680	12194.666667
514.361004	12277.333333
515.835713	12121.000000
517.309807	12299.333333
518.783287	12198.000000
520.256153	12250.333333
521.728406	12367.333333
523.200045	12244.666667
524.671071	12280.666667
526.141485	12274.666667
527.611287	12239.666667
529.080476	12217.666667
530.549054	12203.000000
532.017021	12265.666667
533.484378	12155.000000
534.951123	12257.333333
536.417259	12197.666667
537.882785	12215.000000
539.347701	12239.333333
540.812008	12147.000000
542.275707	12010.666667
543.738797	12088.000000
545.201279	12105.333333
546.663153	12202.666667
548.124420	12230.000000
549.585080	12295.000000
551.045133	12311.666667
552.504579	12401.333333
553.963420	12322.000000
555.421655	12365.666667
556.879285	12448.333333
558.336309	12388.666667
559.792729	12379.000000
561.248545	12482.000000
562.703756	12511.000000
564.158364	12469.666667
565.612369	12546.333333
567.065770	12605.333333
568.518569	12675.333333
569.970766	12708.666667
571.422361	12859.666667
572.873354	12935.666667
574.323745	12963.000000
575.773536	13094.333333
577.222726	13199.333333
578.671316	13222.666667
580.119306	13284.666667
581.566696	13213.333333
583.013487	13081.333333
584.459679	13177.333333
585.905273	13043.333333
587.350268	13111.666667
588.794665	13067.666667
590.238465	13032.333333
591.681667	12910.000000
593.124272	12882.333333
594.566281	12792.333333
596.007694	12596.333333
597.448510	12504.333333
598.888731	12460.333333
600.328357	12263.000000
601.767388	12199.666667
603.205824	12241.000000
604.643666	12217.000000
606.080914	12258.000000
607.517568	12056.000000
608.953629	12219.666667
610.389097	12078.000000
611.823972	12057.000000
613.258255	11999.666667
614.691946	12001.666667
616.125046	11960.333333
617.557554	11817.000000
618.989471	11784.000000
620.420798	11655.000000
621.851534	11499.333333
623.281680	11437.333333
624.711237	11429.000000
626.140204	11279.000000
627.568582	11217.333333
628.996372	11163.000000
630.423573	11179.666667
631.850186	11114.000000
633.276211	11136.666667
634.701650	11015.333333
636.126501	11108.333333
637.550765	11093.666667
638.974443	11039.666667
640.397535	11106.333333
641.820041	11074.000000
643.241961	11111.333333
644.663297	11003.000000
646.084048	11002.000000
647.504214	11003.666667
648.923796	10912.000000
650.342795	10854.666667
651.761210	10730.000000
653.179041	10933.333333
654.596290	10807.333333
656.012957	10795.666667
657.429041	10736.333333
658.844543	10844.000000
660.259464	10769.333333
661.673804	10802.333333
663.087563	10776.000000
664.500741	10841.666667
665.913339	10741.000000
667.325357	10851.666667
668.736795	10838.333333
670.147654	10801.333333
671.557934	10809.000000
672.967636	10687.666667
674.376759	10731.333333
675.785304	10755.000000
677.193271	10690.666667
678.600661	10680.333333
680.007474	10772.000000
681.413711	10651.000000
682.819370	10709.000000
684.224454	10711.666667
685.628962	10650.333333
687.032895	10669.000000
688.436252	10615.333333
689.839034	10661.000000
691.241242	10672.333333
692.642876	10638.000000
694.043936	10542.666667
695.444422	10645.666667
696.844336	10567.666667
698.243676	10534.666667
699.642443	10535.666667
701.040639	10485.000000
702.438262	10502.666667
703.835313	10491.333333
705.231794	10536.333333
706.627703	10496.666667
708.023041	10462.333333
709.417810	10457.666667
710.812008	10445.000000
712.205636	10437.666667
713.598694	10479.666667
714.991184	10408.000000
716.383105	10423.000000
717.774457	10359.666667
719.165241	10413.666667
720.555457	10418.000000
721.945105	10376.666667
723.334187	10394.000000
724.722701	10356.000000
726.110648	10489.000000
727.498030	10311.000000
728.884845	10349.666667
730.271094	10379.000000
731.656778	10391.666667
733.041897	10372.666667
734.426451	10279.666667
735.810441	10209.666667
737.193866	10241.333333
738.576728	10351.666667
739.959026	10246.000000
741.340760	10266.333333
742.721932	10246.333333
744.102541	10231.000000
745.482588	10205.000000
746.862073	10212.000000
748.240996	10250.000000
749.619358	10164.666667
750.997158	10287.333333
752.374398	10234.666667
753.751077	10287.666667
755.127197	10210.000000
756.502756	10213.666667
757.877756	10203.333333
759.252196	10197.333333
760.626078	10127.000000
761.999400	10081.666667
763.372165	10193.333333
764.744371	10102.333333
766.116020	10073.666667
767.487111	10060.666667
768.857646	10049.333333
770.227623	9973.666667
771.597044	10004.333333
772.965908	10056.666667
774.334217	10003.666667
775.701970	9997.000000
777.069168	9972.333333
778.435811	9943.000000
779.801899	10008.333333
781.167433	9982.333333
782.532412	9953.000000
783.896838	9828.666667
785.260710	9924.333333
786.624029	9818.333333
787.986796	9897.333333
789.349009	9870.666667
790.710671	9818.333333
792.071780	9814.000000
793.432338	9939.333333
794.792344	9764.666667
796.151799	9691.666667
797.510704	9771.333333
798.869058	9690.666667
800.226862	9737.000000
801.584116	9701.666667
802.940820	9772.000000
804.296975	9828.000000
805.652581	9710.333333
807.007638	9753.666667
808.362147	9794.000000
809.716108	9852.333333
811.069521	9735.333333
812.422387	9849.666667
813.774705	9777.333333
815.126476	9737.333333
816.477701	9856.666667
817.828380	9726.666667
819.178512	9778.666667
820.528099	9769.666667
821.877140	9717.000000
823.225637	9604.333333
824.573588	9614.000000
825.920995	9610.333333
827.267857	9662.666667
828.614176	9660.666667
829.959951	9635.666667
831.305183	9573.666667
832.649871	9562.333333
833.994017	9622.000000
835.337620	9674.000000
836.680681	9596.000000
838.023201	9660.333333
839.365178	9581.666667
840.706614	9604.666667
842.047510	9636.000000
843.387864	9721.666667
844.727678	9697.666667
846.066952	9821.000000
847.405687	9793.666667
848.743881	9913.333333
850.081537	9907.000000
851.418653	9918.000000
852.755231	9950.333333
854.091270	9939.000000
855.426771	9923.000000
856.761735	9958.333333
858.096160	9817.000000
859.430049	9831.333333
860.763401	9774.000000
862.096216	9713.000000
863.428495	9681.000000
864.760237	9760.666667
866.091444	9639.666667
867.422115	9663.666667
868.752252	9659.000000
870.081853	9567.666667
871.410919	9583.333333
872.739452	9548.333333
874.067450	9648.333333
875.394914	9666.666667
876.721845	9588.666667
878.048243	9555.000000
879.374108	9586.333333
880.699440	9523.000000
882.024240	9481.000000
883.348508	9487.666667
884.672244	9457.000000
885.995449	9478.666667
887.318122	9328.333333
888.640265	9425.000000
889.961877	9316.333333
891.282959	9284.333333
892.603510	9331.000000
893.923532	9201.333333
895.243024	9257.000000
896.561987	9259.000000
897.880422	9222.000000
899.198327	9240.000000
900.515705	9253.000000
901.832554	9263.666667
903.148875	9161.000000
904.464669	9215.333333
905.779936	9194.000000
907.094676	9226.666667
908.408889	9278.333333
909.722576	9319.333333
911.035737	9310.000000
912.348371	9346.000000
913.660481	9361.000000
914.972065	9395.666667
916.283124	9473.000000
917.593659	9555.666667
918.903669	9516.000000
920.213155	9521.333333
921.522117	9555.333333
922.830556	9536.666667
924.138471	9562.333333
925.445864	9547.000000
926.752733	9493.666667
928.059081	9505.000000
929.364906	9695.333333
930.670209	9722.666667
931.974991	9802.666667
933.279251	9801.000000
934.582990	9989.333333
935.886209	10190.000000
937.188907	10271.666667
938.491085	10421.000000
939.792743	10615.000000
941.093881	10860.666667
942.394500	11085.666667
943.694600	11453.333333
944.994181	11797.333333
946.293243	12133.666667
947.591787	12682.000000
948.889813	13350.000000
950.187322	13852.333333
951.484313	14754.000000
952.780787	15549.000000
954.076744	16480.000000
955.372184	17232.666667
956.667108	17975.333333
957.961516	18490.666667
959.255409	18519.000000
960.548785	18108.666667
961.841647	17456.666667
963.133993	16586.000000
964.425825	15564.333333
965.717142	14517.333333
967.007946	13410.333333
968.298235	12561.000000
969.588011	11674.000000
970.877273	11079.000000
972.166023	10508.000000
973.454259	10129.333333
974.741984	9716.666667
976.029196	9471.333333
977.315895	9284.333333
978.602084	9050.000000
979.887761	9034.333333
981.172926	8896.333333
982.457581	8819.666667
983.741725	8781.000000
985.025359	8707.333333
986.308483	8607.000000
987.591097	8635.666667
988.873202	8579.000000
990.154797	8594.333333
991.435883	8589.666667
992.716461	8578.666667
993.996530	8679.333333
995.276091	8609.666667
996.555144	8706.333333
997.833690	8690.666667
999.111728	8774.666667
1000.389259	8886.333333
1001.666283	8892.000000
1002.942800	8786.666667
1004.218812	8767.333333
1005.494317	8818.666667
1006.769317	8776.666667
1008.043811	8680.000000
1009.317799	8675.000000
1010.591283	8728.333333
1011.864263	8685.666667
1013.136737	8710.000000
1014.408708	8783.000000
1015.680175	8715.333333
1016.951138	8725.000000
1018.221598	8793.333333
1019.491554	8762.666667
1020.761008	8732.000000
1022.029959	8841.000000
1023.298408	8787.333333
1024.566355	8809.666667
1025.833800	8873.000000
1027.100744	8956.333333
1028.367187	8932.000000
1029.633128	8938.666667
1030.898569	8926.333333
1032.163509	8978.333333
1033.427949	8922.333333
1034.691890	8962.000000
1035.955330	8981.333333
1037.218271	8922.333333
1038.480714	9020.666667
1039.742657	9003.000000
1041.004101	9001.000000
1042.265048	8924.666667
1043.525496	9029.000000
1044.785446	8987.666667
1046.044899	9001.333333
1047.303855	8959.666667
1048.562313	8968.333333
1049.820275	8869.000000
1051.077740	8962.333333
1052.334709	8893.333333
1053.591182	8832.666667
1054.847160	8893.000000
1056.102641	8871.666667
1057.357628	8914.333333
1058.612120	8973.333333
1059.866117	9055.666667
1061.119619	9079.333333
1062.372628	9093.666667
1063.625142	9261.000000
1064.877163	9240.666667
1066.128691	9233.666667
1067.379725	9324.666667
1068.630267	9367.333333
1069.880316	9341.000000
1071.129872	9353.666667
1072.378937	9289.333333
1073.627509	9137.666667
1074.875590	9065.666667
1076.123180	8957.333333
1077.370279	8801.666667
1078.616887	8679.666667
1079.863004	8676.000000
1081.108631	8548.000000
1082.353768	8414.666667
1083.598415	8393.666667
1084.842573	8320.000000
1086.086241	8227.000000
1087.329421	8060.333333
1088.572111	8121.000000
1089.814314	8104.666667
1091.056028	8001.666667
1092.297253	7944.333333
1093.537992	7950.000000
1094.778242	7961.000000
1096.018006	7877.333333
1097.257282	7922.000000
1098.496072	7836.666667
1099.734376	7831.333333
1100.972193	7817.666667
1102.209524	7751.000000
1103.446370	7744.000000
1104.682730	7837.666667
1105.918604	7697.000000
1107.153994	7623.000000
1108.388900	7627.333333
1109.623320	7611.333333
1110.857257	7583.666667
1112.090710	7551.333333
1113.323679	7438.000000
1114.556164	7444.333333
1115.788167	7450.000000
1117.019686	7387.000000
1118.250723	7343.333333
1119.481278	7384.000000
1120.711350	7379.333333
1121.940940	7370.666667
1123.170049	7357.333333
1124.398676	7311.000000
1125.626823	7296.000000
1126.854488	7417.000000
1128.081672	7259.666667
1129.308376	7224.333333
1130.534600	7273.333333
1131.760345	7289.333333
1132.985609	7250.000000
1134.210394	7234.333333
1135.434700	7267.333333
1136.658527	7231.666667
1137.881875	7177.333333
1139.104745	7117.666667
1140.327136	7167.000000
1141.549050	7116.333333
1142.770486	7189.666667
1143.991445	7166.000000
1145.211926	7193.666667
1146.431931	7104.666667
1147.651459	7067.666667
1148.870510	7118.333333
1150.089086	7096.666667
1151.307185	7148.333333
1152.524808	7194.666667
1153.741957	7121.333333
1154.958630	7175.333333
1156.174828	7135.000000
1157.390551	7198.666667
1158.605800	7202.000000
1159.820574	7247.000000
1161.034875	7121.000000
1162.248702	7080.333333
1163.462055	7139.000000
1164.674936	7094.000000
1165.887343	7094.666667
1167.099277	7179.000000
1168.310739	7093.333333
1169.521729	7113.333333
1170.732247	7091.666667
1171.942293	7152.000000
1173.151867	6993.333333
1174.360970	7088.666667
1175.569602	7051.333333
1176.777764	7082.666667
1177.985454	6960.333333
1179.192675	6977.333333
1180.399425	7069.333333
1181.605706	6998.666667
1182.811517	6990.000000
1184.016859	6955.666667
1185.221731	6949.000000
1186.426135	6981.333333
1187.630070	6895.000000
1188.833537	6917.666667
1190.036535	6855.333333
1191.239066	6848.333333
1192.441129	6902.000000
1193.642725	6874.666667
1194.843853	6856.666667
1196.044515	6853.000000
1197.244710	6902.333333
1198.444438	6856.666667
1199.643701	6811.000000
1200.842497	6912.000000
1202.040827	6866.666667
1203.238693	6869.000000
1204.436092	6841.666667
1205.633027	6813.000000
1206.829497	6831.666667
1208.025503	6858.333333
1209.221044	6837.333333
1210.416122	6776.666667
1211.610735	6794.666667
1212.804885	6708.000000
1213.998572	6745.666667
1215.191795	6677.000000
1216.384556	6763.333333
1217.576854	6666.000000
1218.768689	6664.666667
1219.960063	6616.333333
1221.150974	6684.000000
1222.341424	6732.000000
1223.531413	6688.000000
1224.720940	6723.000000
1225.910006	6741.000000
1227.098612	6789.666667
1228.286757	6817.333333
1229.474442	6838.666667
1230.661667	6848.666667
1231.848432	6883.000000
1233.034738	6922.666667
1234.220584	7001.666667
1235.405971	6944.666667
1236.590900	6995.000000
1237.775369	7076.666667
1238.959381	7048.666667
1240.142934	6996.666667
1241.326029	7118.333333
1242.508667	7006.000000
1243.690848	7080.333333
1244.872571	7085.000000
1246.053837	7074.666667
1247.234646	7029.666667
1248.414999	7028.333333
1249.594896	7012.000000
1250.774337	6880.000000
1251.953322	6935.333333
1253.131851	6964.333333
1254.309925	6919.666667
1255.487544	6903.666667
1256.664708	6860.666667
1257.841417	6893.333333
1259.017673	6867.333333
1260.193473	6907.000000
1261.368820	6885.666667
1262.543714	6894.000000
1263.718154	6900.333333
1264.892140	6961.666667
1266.065674	6930.000000
1267.238755	6992.666667
1268.411383	6956.333333
1269.583559	6925.000000
1270.755283	6914.666667
1271.926555	6956.000000
1273.097375	6841.666667
1274.267744	6893.666667
1275.437662	6832.333333
1276.607129	6846.666667
1277.776145	6870.000000
1278.944711	6888.333333
1280.112827	6855.000000
1281.280492	6761.000000
1282.447708	6709.000000
1283.614474	6702.666667
1284.780791	6682.666667
1285.946659	6655.000000
1287.112078	6650.000000
1288.277048	6600.000000
1289.441570	6616.666667
1290.605644	6630.000000
1291.769270	6558.666667
1292.932448	6543.666667
1294.095178	6447.333333
1295.257461	6436.333333
1296.419298	6422.333333
1297.580687	6414.000000
1298.741630	6397.333333
1299.902126	6419.000000
1301.062177	6365.000000
1302.221781	6404.000000
1303.380940	6376.333333
1304.539653	6366.000000
1305.697921	6376.333333
1306.855744	6391.666667
1308.013123	6381.000000
1309.170056	6407.333333
1310.326546	6399.333333
1311.482591	6431.666667
1312.638193	6425.333333
1313.793350	6381.000000
1314.948065	6401.333333
1316.102336	6372.666667
1317.256164	6319.666667
1318.409550	6377.666667
1319.562493	6315.000000
1320.714993	6352.000000
1321.867052	6342.666667
1323.018668	6307.666667
1324.169843	6295.000000
1325.320577	6212.666667
1326.470870	6177.666667
1327.620721	6198.666667
1328.770132	6202.666667
1329.919102	6168.000000
1331.067632	6160.333333
1332.215722	6132.000000
1333.363372	6162.000000
1334.510582	6183.000000
1335.657353	6101.000000
1336.803685	6162.666667
1337.949578	6199.000000
1339.095032	6174.000000
1340.240048	6150.333333
1341.384625	6164.666667
1342.528764	6196.333333
1343.672466	6166.666667
1344.815729	6157.333333
1345.958556	6123.000000
1347.100945	6140.333333
1348.242897	6126.666667
1349.384413	6062.666667
1350.525492	6088.333333
1351.666134	6066.333333
1352.806341	6023.333333
1353.946111	5976.000000
1355.085446	5974.666667
1356.224346	6004.333333
1357.362810	6061.333333
1358.500840	5939.000000
1359.638434	5898.333333
1360.775594	5929.000000
1361.912320	5965.666667
1363.048612	5856.333333
1364.184469	5905.333333
1365.319893	5829.000000
1366.454884	5872.333333
1367.589441	5927.000000
1368.723566	5944.333333
1369.857257	5889.000000
1370.990516	5949.666667
1372.123343	5948.333333
1373.255737	5948.333333
1374.387699	5931.000000
1375.519230	5958.000000
1376.650329	5919.666667
1377.780997	5952.666667
1378.911234	5968.666667
1380.041040	5935.666667
1381.170416	5974.000000
1382.299361	5895.666667
1383.427875	5907.000000
1384.555960	5948.000000
1385.683615	5942.333333
1386.810841	5904.666667
1387.937637	5866.000000
1389.064004	5948.666667
1390.189942	5861.000000
1391.315451	5904.666667
1392.440532	5945.666667
1393.565185	5851.333333
1394.689409	5881.000000
1395.813206	5883.666667
1396.936575	5824.666667
1398.059517	5867.000000
1399.182032	5847.666667
1400.304119	5845.333333
1401.425780	5802.666667
1402.547014	5792.333333
1403.667822	5778.666667
1404.788204	5836.666667
1405.908160	5795.666667
1407.027690	5743.000000
1408.146795	5891.666667
1409.265474	5789.000000
1410.383728	5812.333333
1411.501558	5820.000000
1412.618963	5859.000000
1413.735943	5815.666667
1414.852499	5954.000000
1415.968632	5815.333333
1417.084340	5900.000000
1418.199625	5908.666667
1419.314486	5828.666667
1420.428925	5877.333333
1421.542940	5818.333333
1422.656533	5834.333333
1423.769703	5910.333333
1424.882451	5847.000000
1425.994777	5796.333333
1427.106680	5868.000000
1428.218163	5793.666667
1429.329223	5815.333333
1430.439863	5744.333333
1431.550081	5757.000000
1432.659879	5763.000000
1433.769256	5734.000000
1434.878212	5753.666667
1435.986749	5745.333333
1437.094865	5792.666667
1438.202562	5804.666667
1439.309839	5805.666667
1440.416696	5839.666667
1441.523135	5821.000000
1442.629154	5870.333333
1443.734755	5925.000000
1444.839937	5914.666667
1445.944701	6009.000000
1447.049047	5992.666667
1448.152975	5995.666667
1449.256485	6031.333333
1450.359577	5977.666667
1451.462253	6009.333333
1452.564511	5958.666667
1453.666352	5899.666667
1454.767777	5912.666667
1455.868785	5922.000000
1456.969377	5866.000000
1458.069553	5892.666667
1459.169313	5842.666667
1460.268658	5761.333333
1461.367587	5767.666667
1462.466101	5674.666667
1463.564200	5749.666667
1464.661884	5638.000000
1465.759153	5627.666667
1466.856008	5543.000000
1467.952449	5631.000000
1469.048476	5518.000000
1470.144089	5458.000000
1471.239288	5413.333333
1472.334074	5360.000000
1473.428447	5323.000000
1474.522407	5310.666667
1475.615955	5267.000000
1476.709089	5188.333333
1477.801812	5240.333333
1478.894122	5165.333333
1479.986020	5155.666667
1481.077506	5171.333333
1482.168581	5168.333333
1483.259245	5129.666667
1484.349498	5086.666667
1485.439339	5089.666667
1486.528770	5103.666667
1487.617790	5088.000000
1488.706400	5098.000000
1489.794600	5063.000000
1490.882390	5058.333333
1491.969771	5012.666667
1493.056742	5038.333333
1494.143303	4992.000000
1495.229456	5050.666667
1496.315199	4969.666667
1497.400534	4965.666667
1498.485460	4987.333333
1499.569978	4952.666667
1500.654088	4914.000000
1501.737790	4923.000000
1502.821085	4902.000000
1503.903972	4897.000000
1504.986451	4857.333333
1506.068524	4871.666667
1507.150189	4862.000000
1508.231448	4849.000000
1509.312301	4798.000000
1510.392747	4868.333333
1511.472787	4813.333333
1512.552422	4823.000000
1513.631650	4898.333333
1514.710473	4790.666667
1515.788891	4815.000000
1516.866904	4824.000000
1517.944512	4808.333333
1519.021715	4835.333333
1520.098513	4788.333333
1521.174908	4844.000000
1522.250898	4778.666667
1523.326485	4832.666667
1524.401667	4757.333333
1525.476447	4813.333333
1526.550823	4792.666667
1527.624796	4849.666667
1528.698365	4759.666667
1529.771533	4824.333333
1530.844298	4782.000000
1531.916660	4783.000000
1532.988620	4715.666667
1534.060179	4762.000000
1535.131336	4754.000000
1536.202091	4800.000000
1537.272445	4738.000000
1538.342398	4747.000000
1539.411950	4683.333333
1540.481101	4684.000000
1541.549851	4670.000000
1542.618202	4715.333333
1543.686152	4629.333333
1544.753702	4701.000000
1545.820853	4647.000000
1546.887604	4610.666667
1547.953955	4579.333333
1549.019908	4606.333333
1550.085461	4725.666667
1551.150616	4653.333333
1552.215372	4635.333333
1553.279730	4606.000000
1554.343690	4640.333333
1555.407252	4646.333333
1556.470415	4594.333333
1557.533182	4512.333333
1558.595551	4548.000000
1559.657522	4572.666667
1560.719097	4556.333333
1561.780275	4578.000000
1562.841056	4554.666667
1563.901441	4605.666667
1564.961429	4570.666667
1566.021022	4580.666667
1567.080219	4531.666667
1568.139020	4585.000000
1569.197425	4580.666667
1570.255436	4511.333333
1571.313051	4550.666667
1572.370271	4538.000000
1573.427097	4522.666667
1574.483528	4527.000000
1575.539565	4507.333333
1576.595208	4495.666667
1577.650457	4492.333333
1578.705312	4489.000000
1579.759774	4498.333333
1580.813842	4464.000000
1581.867517	4442.666667
1582.920799	4434.333333
1583.973689	4376.333333
1585.026186	4398.666667
1586.078290	4373.000000
1587.130002	4422.666667
1588.181323	4359.000000
1589.232251	4401.333333
1590.282788	4419.333333
1591.332933	4335.333333
1592.382688	4349.000000
1593.432051	4316.000000
1594.481023	4360.666667
1595.529605	4368.000000
1596.577796	4378.000000
1597.625597	4424.333333
1598.673007	4445.333333
1599.720028	4446.333333
1600.766660	4425.000000
1601.812901	4405.000000
1602.858753	4446.666667
1603.904217	4444.333333
1604.949291	4416.666667
1605.993976	4405.333333
1607.038273	4434.000000
1608.082182	4342.333333
1609.125702	4438.333333
1610.168834	4369.666667
1611.211579	4342.000000
1612.253935	4343.666667
1613.295905	4280.666667
1614.337487	4295.666667
1615.378682	4349.333333
1616.419490	4356.333333
1617.459912	4324.000000
1618.499946	4378.666667
1619.539595	4336.000000
1620.578858	4373.666667
1621.617734	4305.000000
1622.656225	4302.333333
1623.694330	4366.000000
1624.732050	4337.666667
1625.769385	4325.000000
1626.806334	4392.000000
1627.842899	4363.666667
1628.879079	4325.333333
1629.914875	4369.666667
1630.950286	4331.333333
1631.985314	4376.333333
1633.019957	4327.333333
1634.054217	4398.666667
1635.088093	4335.666667
1636.121586	4367.000000
1637.154696	4372.666667
1638.187423	4402.666667
1639.219767	4361.666667
1640.251728	4405.000000
1641.283307	4398.333333
1642.314504	4376.000000
1643.345319	4412.333333
1644.375751	4290.666667
1645.405803	4376.000000
1646.435472	4365.333333
1647.464761	4374.000000
1648.493668	4384.000000
1649.522194	4352.000000
1650.550340	4301.666667
1651.578105	4428.666667
1652.605490	4319.000000
1653.632494	4367.333333
1654.659119	4366.666667
1655.685363	4371.666667
1656.711228	4357.666667
1657.736714	4335.666667
1658.761820	4314.333333
1659.786547	4354.666667
1660.810895	4350.333333
1661.834865	4343.333333
1662.858456	4332.000000
1663.881668	4280.666667
1664.904503	4246.666667
1665.926959	4291.000000
1666.949038	4280.000000
1667.970739	4251.000000
1668.992062	4227.666667
1670.013008	4261.000000
1671.033577	4157.333333
1672.053770	4186.000000
1673.073585	4189.333333
1674.093024	4160.666667
1675.112086	4148.666667
1676.130773	4130.333333
1677.149083	4119.666667
1678.167017	4174.666667
1679.184576	4089.666667
1680.201760	4106.000000
1681.218568	4080.333333
1682.235001	4064.666667
1683.251059	4108.000000
1684.266742	4047.666667
1685.282051	4069.333333
1686.296985	4052.333333
1687.311546	4036.333333
1688.325732	3959.000000
1689.339544	3993.666667
1690.352983	3921.333333
1691.366048	3920.666667
1692.378740	3936.000000
1693.391058	3888.666667
1694.403004	3850.333333
1695.414577	3842.000000
1696.425778	3803.666667
1697.436606	3806.333333
1698.447061	3790.666667
1699.457145	3696.000000
1700.466857	3676.333333
1701.476197	3665.000000
1702.485166	3650.333333
1703.493763	3655.666667
1704.501989	3647.666667
1705.509844	3587.666667
1706.517328	3658.000000
1707.524442	3632.000000
1708.531185	3579.666667
1709.537558	3586.333333
1710.543561	3529.000000
1711.549194	3551.000000
1712.554457	3546.333333
1713.559351	3578.666667
1714.563875	3563.000000
1715.568030	3516.333333
1716.571816	3574.000000
1717.575233	3554.000000
1718.578282	3612.000000
1719.580962	3569.666667
1720.583273	3591.333333
1721.585217	3598.666667
1722.586792	3522.666667
1723.588000	3553.000000
1724.588840	3542.000000
1725.589312	3588.000000
1726.589418	3529.666667
1727.589156	3533.666667
1728.588527	3544.666667
1729.587532	3544.666667
1730.586170	3543.000000
1731.584441	3537.333333
1732.582346	3482.666667
1733.579886	3560.000000
1734.577059	3521.666667
1735.573867	3536.666667
1736.570309	3444.666667
1737.566386	3502.666667
1738.562097	3477.666667
1739.557444	3484.666667
1740.552426	3462.666667
1741.547043	3434.666667
1742.541295	3441.000000
1743.535184	3459.000000
1744.528708	3426.666667
1745.521868	3400.000000
1746.514664	3354.666667
1747.507097	3355.666667
1748.499166	3341.000000
1749.490873	3326.333333
1750.482216	3333.333333
1751.473196	3358.666667
1752.463813	3353.000000
1753.454068	3388.000000
1754.443960	3322.000000
1755.433490	3342.000000
1756.422658	3362.333333
1757.411464	3329.666667
1758.399908	3361.333333
1759.387991	3352.333333
1760.375713	3326.333333
1761.363073	3317.000000
1762.350072	3345.666667
1763.336711	3293.000000
1764.322988	3348.333333
1765.308905	3306.333333
1766.294462	3324.666667
1767.279659	3287.333333
1768.264496	3270.000000
1769.248972	3260.000000
1770.233089	3251.333333
1771.216847	3275.666667
1772.200245	3230.666667
1773.183284	3236.333333
1774.165965	3258.666667
1775.148286	3203.000000
1776.130249	3256.000000
1777.111853	3226.000000
1778.093099	3154.666667
1779.073987	3116.333333
1780.054517	3166.000000
1781.034689	3161.666667
1782.014503	3094.333333
1782.993960	3107.333333
1783.973060	3123.000000
1784.951802	3107.000000
1785.930188	3088.000000
1786.908217	3061.666667
1787.885889	3052.333333
1788.863205	3020.000000
1789.840164	3013.333333
1790.816768	3057.666667
1791.793015	3034.666667
1792.768907	3020.666667
1793.744443	3017.000000
1794.719624	3039.666667
1795.694449	3034.333333
1796.668919	3014.666667
1797.643035	3038.000000
1798.616795	3057.000000
1799.590201	2995.333333
1800.563253	3033.000000
1801.535950	3049.333333
1802.508294	3060.666667
1803.480283	3071.333333
1804.451919	3099.333333
1805.423201	3034.000000
1806.394129	3030.666667
1807.364705	3073.333333
1808.334927	3006.333333
1809.304796	3053.000000
1810.274313	3011.666667
1811.243477	3021.333333
1812.212288	3026.666667
1813.180747	3018.333333
1814.148855	2995.666667
1815.116610	2994.000000
1816.084013	3007.000000
1817.051065	2989.000000
1818.017766	2987.666667
1818.984115	2985.666667
1819.950113	3013.000000
1820.915760	2997.000000
1821.881057	2974.000000
1822.846003	2937.333333
1823.810598	2991.000000
1824.774843	2982.000000
1825.738738	2957.000000
1826.702283	2933.333333
1827.665479	2920.666667
1828.628324	2937.666667
1829.590821	2921.000000
1830.552968	2958.666667
1831.514765	2921.000000
1832.476214	2909.333333
1833.437314	2905.000000
1834.398066	2857.666667
1835.358469	2892.666667
1836.318524	2876.000000
1837.278230	2881.666667
1838.237589	2880.333333
1839.196600	2866.000000
1840.155263	2897.000000
1841.113578	2918.666667
1842.071547	2848.333333
1843.029168	2903.666667
1843.986442	2890.666667
1844.943369	2911.000000
1845.899950	2920.666667
1846.856184	2885.333333
1847.812072	2914.000000
1848.767614	2851.000000
1849.722809	2873.000000
1850.677659	2907.333333
1851.632163	2893.000000
1852.586322	2892.000000
1853.540135	2886.333333
1854.493603	2879.333333
1855.446726	2897.333333
1856.399504	2865.333333
1857.351937	2875.666667
1858.304026	2852.666667
1859.255770	2838.000000
1860.207170	2829.333333
1861.158227	2812.000000
1862.108939	2815.666667
1863.059307	2782.333333
1864.009332	2788.333333
1864.959013	2765.666667
1865.908351	2725.666667
1866.857346	2785.333333
1867.805998	2783.666667
1868.754307	2710.333333
1869.702274	2768.333333
1870.649898	2742.666667
1871.597180	2726.000000
1872.544119	2682.666667
1873.490717	2687.666667
1874.436973	2701.000000
1875.382887	2692.333333
1876.328459	2684.666667
1877.273691	2711.666667
1878.218581	2677.000000
1879.163130	2689.000000
1880.107338	2732.000000
1881.051205	2681.333333
1881.994732	2687.333333
1882.937919	2698.000000
1883.880765	2721.666667
1884.823271	2699.000000
1885.765437	2680.666667
1886.707264	2692.666667
1887.648750	2673.333333
1888.589898	2709.666667
1889.530706	2706.000000
1890.471175	2738.666667
1891.411305	2695.000000
1892.351096	2660.000000
1893.290548	2707.333333
1894.229662	2723.333333
1895.168438	2694.333333
1896.106876	2682.666667
1897.044975	2689.666667
1897.982737	2699.000000
1898.920160	2679.000000
1899.857247	2692.666667
1900.793996	2675.666667
1901.730407	2663.333333
1902.666482	2612.000000
1903.602219	2633.333333
1904.537620	2640.000000
1905.472685	2634.000000
1906.407412	2622.666667
1907.341804	2627.000000
1908.275859	2565.333333
1909.209579	2547.666667
1910.142962	2589.333333
1911.076010	2554.000000
1912.008722	2548.666667
1912.941099	2549.666667
1913.873141	2482.666667
1914.804848	2511.666667
1915.736219	2491.666667
1916.667256	2505.000000
1917.597959	2537.666667
1918.528327	2513.333333
1919.458360	2486.666667
1920.388060	2454.666667
1921.317426	2478.333333
1922.246457	2474.000000
1923.175156	2510.000000
1924.103520	2508.666667
1925.031552	2467.000000
1925.959250	2475.333333
1926.886615	2482.333333
1927.813647	2493.000000
1928.740346	2491.333333
1929.666713	2478.333333
1930.592748	2477.000000
1931.518450	2489.333333
1932.443820	2473.000000
1933.368858	2457.000000
1934.293564	2458.666667
1935.217939	2480.666667
1936.141982	2452.666667
1937.065694	2462.666667
1937.989074	2458.333333
1938.912124	2410.333333
1939.834842	2461.333333
1940.757230	2446.000000
1941.679287	2394.000000
1942.601014	2396.000000
1943.522411	2462.000000
1944.443477	2409.666667
1945.364214	2411.666667
1946.284621	2379.000000
1947.204698	2422.333333
1948.124445	2355.666667
1949.043863	2365.333333
1949.962952	2383.666667
1950.881712	2346.666667
1951.800143	2334.000000
1952.718245	2338.333333
1953.636019	2332.000000
1954.553464	2311.333333
1955.470581	2287.666667
1956.387369	2326.000000
1957.303830	2262.666667
1958.219963	2269.333333
1959.135768	2322.666667
1960.051246	2306.000000
1960.966396	2314.666667
1961.881219	2296.666667
1962.795715	2287.666667
1963.709883	2329.333333
1964.623726	2320.666667
1965.537241	2303.000000
1966.450430	2326.000000
1967.363293	2318.666667
1968.275829	2303.666667
1969.188040	2316.333333
1970.099924	2320.666667
1971.011483	2307.666667
1971.922716	2345.666667
1972.833624	2308.666667
1973.744206	2318.666667
1974.654464	2293.000000
1975.564396	2337.333333
1976.474004	2284.333333
1977.383286	2316.666667
1978.292245	2323.000000
1979.200878	2284.000000
1980.109188	2275.333333
1981.017174	2274.333333
1981.924835	2274.000000
1982.832173	2259.333333
1983.739187	2237.666667
1984.645878	2231.000000
1985.552245	2242.333333
1986.458289	2229.333333
1987.364010	2213.666667
1988.269408	2207.333333
1989.174484	2213.333333
1990.079236	2187.666667
1990.983667	2204.000000
1991.887775	2158.000000
1992.791561	2197.666667
1993.695024	2164.000000
1994.598166	2118.333333
1995.500986	2159.000000
1996.403485	2138.666667
1997.305662	2144.666667
1998.207518	2123.666667
1999.109053	2145.333333
