200.151048	52402.333333
201.758777	52022.333333
203.365815	52231.666667
204.972162	51975.333333
206.577820	51808.000000
208.182787	51729.666667
209.787065	51533.666667
211.390653	51323.000000
212.993553	51244.000000
214.595765	51081.333333
216.197289	50991.333333
217.798125	50677.000000
219.398274	50708.666667
220.997737	50586.333333
222.596513	50573.333333
224.194603	50464.333333
225.792008	50123.333333
227.388728	50322.333333
228.984763	50081.666667
230.580114	50016.666667
232.174781	49769.333333
233.768765	49591.000000
235.362065	49443.000000
236.954683	49474.000000
238.546619	49314.333333
240.137872	49102.333333
241.728445	48958.333333
243.318336	48833.000000
244.907546	48638.000000
246.496076	48464.333333
248.083926	48392.000000
249.671097	48202.666667
251.257589	48094.000000
252.843402	47843.666667
254.428536	47789.000000
256.012993	47630.666667
257.596772	47374.666667
259.179874	47207.666667
260.762300	47295.666667
262.344049	46935.000000
263.925122	46944.000000
265.505519	46741.000000
267.085241	46915.333333
268.664289	46601.000000
270.242662	46681.666667
271.820361	46495.333333
273.397387	46655.000000
274.973740	46493.666667
276.549419	46402.666667
278.124426	46628.666667
279.698762	46482.666667
281.272425	46468.666667
282.845417	46687.666667
284.417739	46335.333333
285.989390	46507.000000
287.560371	46580.333333
289.130682	46452.333333
290.700324	46336.666667
292.269297	46244.666667
293.837602	46122.333333
295.405238	46234.666667
296.972207	46070.000000
298.538508	45813.666667
300.104142	45695.333333
301.669110	45892.666667
303.233411	45577.333333
304.797047	45321.000000
306.360017	45243.666667
307.922322	45075.666667
309.483963	44810.666667
311.044939	44925.333333
312.605252	44673.666667
314.164900	44522.333333
315.723886	44430.000000
317.282209	44356.333333
318.839870	44044.666667
320.396868	44240.000000
321.953205	44033.000000
323.508881	44126.000000
325.063896	43862.666667
326.618251	43986.666667
328.171945	43827.666667
329.724980	43947.000000
331.277356	43699.000000
332.829072	43617.000000
334.380131	43683.666667
335.930530	43522.666667
337.480273	43686.000000
339.029357	43580.000000
340.577785	43520.333333
342.125556	43526.333333
343.672671	43551.666667
345.219130	43487.666667
346.764933	43281.000000
348.310081	43301.666667
349.854575	43134.666667
351.398414	43408.000000
352.941599	43296.666667
354.484130	43147.333333
356.026008	43003.000000
357.567234	43062.333333
359.107807	43044.000000
360.647727	42869.333333
362.186996	42906.333333
363.725614	42880.333333
365.263580	42741.666667
366.800896	42708.000000
368.337562	42581.333333
369.873578	42520.333333
371.408944	42470.333333
372.943661	42421.333333
374.477730	42430.333333
376.011150	42304.333333
377.543922	42254.333333
379.076046	42369.666667
380.607523	42219.666667
382.138353	42288.000000
383.668537	42031.333333
385.198075	42263.666667
386.726966	41943.000000
388.255213	42018.333333
389.782814	42063.666667
391.309770	41949.000000
392.836083	41845.000000
394.361751	42000.000000
395.886776	42051.666667
397.411157	42184.666667
398.934896	41979.000000
400.457992	42045.000000
401.980446	42007.000000
403.502258	41893.666667
405.023429	42023.333333
406.543959	42004.333333
408.063849	42007.666667
409.583098	42024.000000
411.101707	42082.666667
412.619677	42258.333333
414.137007	42008.333333
415.653699	42286.000000
417.169752	42458.000000
418.685167	42475.666667
420.199945	42728.000000
421.714085	42763.666667
423.227588	42812.666667
424.740454	42692.000000
426.252684	43074.666667
427.764279	42828.333333
429.275238	42775.666667
430.785561	42581.000000
432.295250	42483.666667
433.804304	42366.666667
435.312725	42153.666667
436.820511	41879.333333
438.327664	41811.666667
439.834185	41713.666667
441.340072	41368.333333
442.845327	41460.666667
444.349951	41240.333333
445.853942	41036.000000
447.357303	41118.000000
448.860033	40966.666667
450.362132	40757.333333
451.863601	40594.666667
453.364440	40533.333333
454.864650	40332.000000
456.364231	40152.666667
457.863183	40013.000000
459.361507	39986.000000
460.859203	39848.000000
462.356271	39705.000000
463.852712	39531.000000
465.348526	39499.000000
466.843714	39346.333333
468.338275	39280.666667
469.832210	39160.666667
471.325520	39000.666667
472.818205	39124.333333
474.310265	39110.666667
475.801700	38903.666667
477.292512	38874.333333
478.782700	38922.333333
480.272264	38799.333333
481.761205	38875.000000
483.249524	38633.666667
484.737221	38616.666667
486.224295	38372.000000
487.710748	38502.666667
489.196579	38394.666667
490.681790	38127.333333
492.166380	38276.000000
493.650350	38252.666667
495.133700	38367.666667
496.616431	38217.666667
498.098542	38092.000000
499.580035	38072.333333
501.060909	38291.666667
502.541165	37964.000000
504.020804	37971.666667
505.499825	37839.666667
506.978228	37678.333333
508.456016	37815.666667
509.933186	37552.000000
511.409741	37445.333333
512.885680	37623.333333
514.361004	37380.666667
515.835713	37598.333333
517.309807	37362.333333
518.783287	37338.333333
520.256153	37222.000000
521.728406	37231.666667
523.200045	37350.000000
524.671071	37397.333333
526.141485	37200.666667
527.611287	37114.000000
529.080476	37243.000000
530.549054	37003.000000
532.017021	37165.000000
533.484378	36951.000000
534.951123	36938.333333
536.417259	36850.000000
537.882785	36694.333333
539.347701	36815.333333
540.812008	36904.000000
542.275707	36618.000000
543.738797	36586.666667
545.201279	36671.666667
546.663153	36680.333333
548.124420	36829.333333
549.585080	36763.000000
551.045133	36718.666667
552.504579	36932.333333
553.963420	37011.666667
555.421655	36984.333333
556.879285	36897.000000
558.336309	36810.333333
559.792729	36759.333333
561.248545	36926.666667
562.703756	36972.666667
564.158364	36838.333333
565.612369	36953.666667
567.065770	36809.000000
568.518569	36996.000000
569.970766	36911.000000
571.422361	37019.666667
572.873354	37010.666667
574.323745	37055.666667
575.773536	37056.666667
577.222726	37072.666667
578.671316	37122.333333
580.119306	37001.666667
581.566696	37003.666667
583.013487	36808.000000
584.459679	36800.666667
585.905273	36494.000000
587.350268	36605.666667
588.794665	36415.666667
590.238465	36566.333333
591.681667	36448.333333
593.124272	36425.666667
594.566281	36288.666667
596.007694	36041.000000
597.448510	36014.333333
598.888731	35755.333333
600.328357	35821.000000
601.767388	35575.333333
603.205824	35616.666667
604.643666	35711.666667
606.080914	35536.000000
607.517568	35266.000000
608.953629	35450.000000
610.389097	35200.333333
611.823972	35362.333333
613.258255	35225.000000
614.691946	35179.000000
616.125046	35241.333333
617.557554	34882.666667
618.989471	34781.333333
620.420798	34689.666667
621.851534	34541.000000
623.281680	34308.333333
624.711237	34352.666667
626.140204	34105.333333
627.568582	33986.000000
628.996372	34018.000000
630.423573	33944.666667
631.850186	33929.666667
633.276211	33958.333333
634.701650	33860.666667
636.126501	33647.666667
637.550765	33736.000000
638.974443	33621.000000
640.397535	33560.666667
641.820041	33539.000000
643.241961	33463.666667
644.663297	33592.333333
646.084048	33500.000000
647.504214	33573.666667
648.923796	33326.666667
650.342795	33199.000000
651.761210	33236.000000
653.179041	33237.000000
654.596290	32917.666667
656.012957	32884.333333
657.429041	33026.666667
658.844543	32950.666667
660.259464	32946.333333
661.673804	32893.666667
663.087563	32856.000000
664.500741	32798.666667
665.913339	32810.000000
667.325357	32641.333333
668.736795	32615.000000
670.147654	32489.666667
671.557934	32717.333333
672.967636	32552.000000
674.376759	32406.333333
675.785304	32389.666667
677.193271	32349.666667
678.600661	32482.333333
680.007474	32353.333333
681.413711	32139.333333
682.819370	31998.000000
684.224454	32300.333333
685.628962	32188.666667
687.032895	32049.666667
688.436252	32033.000000
689.839034	32122.333333
691.241242	31865.666667
692.642876	31977.000000
694.043936	31813.333333
695.444422	31793.666667
696.844336	31629.333333
698.243676	31582.333333
699.642443	31771.000000
701.040639	31503.666667
702.438262	31731.333333
703.835313	31611.333333
705.231794	31752.333333
706.627703	31549.666667
708.023041	31545.666667
709.417810	31511.666667
710.812008	31373.333333
712.205636	31351.000000
713.598694	31280.333333
714.991184	31177.333333
716.383105	31208.333333
717.774457	31173.666667
719.165241	31107.666667
720.555457	31140.666667
721.945105	31013.000000
723.334187	31140.000000
724.722701	30929.333333
726.110648	31032.666667
727.498030	30972.666667
728.884845	31017.333333
730.271094	31028.333333
731.656778	30874.666667
733.041897	30966.333333
734.426451	30711.333333
735.810441	30665.333333
737.193866	30725.000000
738.576728	30758.000000
739.959026	30564.000000
741.340760	30661.666667
742.721932	30711.666667
744.102541	30605.000000
745.482588	30648.000000
746.862073	30626.333333
748.240996	30522.000000
749.619358	30512.666667
750.997158	30372.000000
752.374398	30344.666667
753.751077	30445.333333
755.127197	30270.666667
756.502756	30422.666667
757.877756	30218.333333
759.252196	30245.333333
760.626078	30153.000000
761.999400	30109.000000
763.372165	29994.666667
764.744371	30011.666667
766.116020	29811.000000
767.487111	29997.000000
768.857646	29873.000000
770.227623	29709.000000
771.597044	29629.000000
772.965908	29703.000000
774.334217	29500.666667
775.701970	29423.000000
777.069168	29441.666667
778.435811	29345.666667
779.801899	29557.333333
781.167433	29485.666667
782.532412	29465.000000
783.896838	29409.000000
785.260710	29410.333333
786.624029	29291.666667
787.986796	29197.000000
789.349009	29050.333333
790.710671	29184.000000
792.071780	29105.666667
793.432338	28903.333333
794.792344	29022.000000
796.151799	28899.333333
797.510704	28938.666667
798.869058	28846.000000
800.226862	28857.666667
801.584116	28764.000000
802.940820	28632.000000
804.296975	28837.666667
805.652581	28753.333333
807.007638	28707.000000
808.362147	28705.000000
809.716108	28659.000000
811.069521	28560.333333
812.422387	28544.333333
813.774705	28690.333333
815.126476	28449.333333
816.477701	28612.000000
817.828380	28486.333333
819.178512	28512.000000
820.528099	28319.333333
821.877140	28444.333333
823.225637	28417.000000
824.573588	28395.000000
825.920995	28349.333333
827.267857	28017.666667
828.614176	28016.666667
829.959951	28173.666667
831.305183	28146.666667
832.649871	28166.666667
833.994017	28011.666667
835.337620	28043.333333
836.680681	28135.000000
838.023201	28059.000000
839.365178	27986.666667
840.706614	27891.666667
842.047510	28023.333333
843.387864	27942.666667
844.727678	27991.000000
846.066952	27905.000000
847.405687	27861.000000
848.743881	27911.666667
850.081537	27988.000000
851.418653	28052.333333
852.755231	27986.333333
854.091270	28038.666667
855.426771	27968.000000
856.761735	27846.333333
858.096160	27748.000000
859.430049	27679.666667
860.763401	27669.666667
862.096216	27467.333333
863.428495	27695.000000
864.760237	27633.666667
866.091444	27581.333333
867.422115	27483.000000
868.752252	27308.666667
870.081853	27447.000000
871.410919	27311.000000
872.739452	27188.333333
874.067450	27107.333333
875.394914	27261.000000
876.721845	26975.666667
878.048243	27059.000000
879.374108	26947.333333
880.699440	26833.666667
882.024240	26911.333333
883.348508	26802.666667
884.672244	26803.333333
885.995449	26732.333333
887.318122	26695.333333
888.640265	26624.666667
889.961877	26647.666667
891.282959	26631.000000
892.603510	26395.666667
893.923532	26437.000000
895.243024	26440.333333
896.561987	26245.333333
897.880422	26296.666667
899.198327	26311.666667
900.515705	26055.666667
901.832554	26067.666667
903.148875	26093.666667
904.464669	26108.000000
905.779936	26026.666667
907.094676	26166.333333
908.408889	25888.333333
909.722576	26084.666667
911.035737	26159.333333
912.348371	26047.000000
913.660481	26323.333333
914.972065	26223.000000
916.283124	26161.000000
917.593659	26312.000000
918.903669	26302.666667
920.213155	26243.000000
921.522117	26262.333333
922.830556	26261.333333
924.138471	26182.666667
925.445864	26081.333333
926.752733	26192.666667
928.059081	26280.000000
929.364906	26081.333333
930.670209	26236.000000
931.974991	26145.333333
933.279251	26346.000000
934.582990	26293.333333
935.886209	26565.000000
937.188907	26588.666667
938.491085	26709.666667
939.792743	26978.333333
941.093881	27078.666667
942.394500	27453.000000
943.694600	27616.666667
944.994181	28109.000000
946.293243	28377.000000
947.591787	28857.333333
948.889813	29394.666667
950.187322	29925.333333
951.484313	30719.000000
952.780787	31423.666667
954.076744	32347.333333
955.372184	32951.333333
956.667108	33574.333333
957.961516	33786.000000
959.255409	33862.000000
960.548785	33434.333333
961.841647	32774.000000
963.133993	31986.333333
964.425825	30894.666667
965.717142	30046.000000
967.007946	28854.333333
968.298235	28154.333333
969.588011	27348.000000
970.877273	26596.666667
972.166023	26205.333333
973.454259	25695.666667
974.741984	25333.000000
976.029196	25225.000000
977.315895	24994.666667
978.602084	24705.666667
979.887761	24554.666667
981.172926	24516.333333
982.457581	24291.333333
983.741725	24262.333333
985.025359	24238.000000
986.308483	24041.000000
987.591097	24126.000000
988.873202	24088.333333
990.154797	23956.666667
991.435883	23923.666667
992.716461	23844.666667
993.996530	23829.333333
995.276091	23720.333333
996.555144	23961.666667
997.833690	23975.666667
999.111728	23793.000000
1000.389259	23926.666667
1001.666283	23990.333333
1002.942800	23951.666667
1004.218812	23898.000000
1005.494317	24007.666667
1006.769317	23715.333333
1008.043811	23627.666667
1009.317799	23935.666667
1010.591283	23615.333333
1011.864263	23728.666667
1013.136737	23783.333333
1014.408708	23565.666667
1015.680175	23677.333333
1016.951138	23561.000000
1018.221598	23663.333333
1019.491554	23481.000000
1020.761008	23671.666667
1022.029959	23552.000000
1023.298408	23497.000000
1024.566355	23613.333333
1025.833800	23581.000000
1027.100744	23706.666667
1028.367187	23424.000000
1029.633128	23403.333333
1030.898569	23452.666667
1032.163509	23328.000000
1033.427949	23505.333333
1034.691890	23408.333333
1035.955330	23322.000000
1037.218271	23353.666667
1038.480714	23422.000000
1039.742657	23369.000000
1041.004101	23384.333333
1042.265048	23452.333333
1043.525496	23495.333333
1044.785446	23438.666667
1046.044899	23475.000000
1047.303855	23281.666667
1048.562313	23227.333333
1049.820275	23361.000000
1051.077740	23238.333333
1052.334709	23136.000000
1053.591182	23144.333333
1054.847160	23029.333333
1056.102641	23148.000000
1057.357628	23049.000000
1058.612120	22989.333333
1059.866117	23007.000000
1061.119619	23155.333333
1062.372628	22981.333333
1063.625142	23315.333333
1064.877163	23184.000000
1066.128691	23205.333333
1067.379725	23164.000000
1068.630267	23322.000000
1069.880316	23227.333333
1071.129872	23174.666667
1072.378937	23238.333333
1073.627509	22966.000000
1074.875590	22761.000000
1076.123180	22735.666667
1077.370279	22618.666667
1078.616887	22616.333333
1079.863004	22594.666667
1081.108631	22337.000000
1082.353768	22068.666667
1083.598415	22108.666667
1084.842573	22062.000000
1086.086241	21946.000000
1087.329421	21881.666667
1088.572111	21716.333333
1089.814314	21668.333333
1091.056028	21648.333333
1092.297253	21418.000000
1093.537992	21533.333333
1094.778242	21367.666667
1096.018006	21427.000000
1097.257282	21369.666667
1098.496072	21431.000000
1099.734376	21210.000000
1100.972193	21137.000000
1102.209524	21304.333333
1103.446370	21096.000000
1104.682730	21141.666667
1105.918604	21023.333333
1107.153994	21060.666667
1108.388900	21043.000000
1109.623320	20922.666667
1110.857257	20829.000000
1112.090710	20913.000000
1113.323679	20881.000000
1114.556164	20674.000000
1115.788167	20680.666667
1117.019686	20584.666667
1118.250723	20676.000000
1119.481278	20659.333333
1120.711350	20665.666667
1121.940940	20557.333333
1123.170049	20377.666667
1124.398676	20510.666667
1125.626823	20491.333333
1126.854488	20317.000000
1128.081672	20470.000000
1129.308376	20334.333333
1130.534600	20344.333333
1131.760345	20308.000000
1132.985609	20258.000000
1134.210394	20232.666667
1135.434700	20268.666667
1136.658527	20247.333333
1137.881875	20222.333333
1139.104745	20136.333333
1140.327136	20226.333333
1141.549050	20201.000000
1142.770486	20188.333333
1143.991445	20224.333333
1145.211926	20160.000000
1146.431931	20070.666667
1147.651459	20052.666667
1148.870510	20000.333333
1150.089086	19938.666667
1151.307185	20029.666667
1152.524808	20087.000000
1153.741957	19900.000000
1154.958630	20016.333333
1156.174828	19806.000000
1157.390551	19913.333333
1158.605800	19992.000000
1159.820574	19838.000000
1161.034875	19767.333333
1162.248702	19723.000000
1163.462055	19634.000000
1164.674936	19672.666667
1165.887343	19737.333333
1167.099277	19744.000000
1168.310739	19648.333333
1169.521729	19644.666667
1170.732247	19684.000000
1171.942293	19788.333333
1173.151867	19664.666667
1174.360970	19441.333333
1175.569602	19383.000000
1176.777764	19613.333333
1177.985454	19504.666667
1179.192675	19590.000000
1180.399425	19425.000000
1181.605706	19376.666667
1182.811517	19456.000000
1184.016859	19195.666667
1185.221731	19197.333333
1186.426135	19247.666667
1187.630070	19095.333333
1188.833537	19056.000000
1190.036535	19037.000000
1191.239066	19010.666667
1192.441129	18933.333333
1193.642725	18876.000000
1194.843853	18820.666667
1196.044515	18817.333333
1197.244710	18902.666667
1198.444438	18921.666667
1199.643701	18787.000000
1200.842497	18777.000000
1202.040827	18823.000000
1203.238693	18959.000000
1204.436092	18832.000000
1205.633027	18740.666667
1206.829497	18767.666667
1208.025503	18832.000000
1209.221044	18695.666667
1210.416122	18679.000000
1211.610735	18548.333333
1212.804885	18550.333333
1213.998572	18576.333333
1215.191795	18488.000000
1216.384556	18483.000000
1217.576854	18520.000000
1218.768689	18278.000000
1219.960063	18280.000000
1221.150974	18290.666667
1222.341424	18200.666667
1223.531413	18225.333333
1224.720940	18278.666667
1225.910006	18362.000000
1227.098612	18345.333333
1228.286757	18304.000000
1229.474442	18410.666667
1230.661667	18498.333333
1231.848432	18356.333333
1233.034738	18461.666667
1234.220584	18391.000000
1235.405971	18309.333333
1236.590900	18475.333333
1237.775369	18517.333333
1238.959381	18553.666667
1240.142934	18422.000000
1241.326029	18640.666667
1242.508667	18594.666667
1243.690848	18450.333333
1244.872571	18528.000000
1246.053837	18417.000000
1247.234646	18404.666667
1248.414999	18392.000000
1249.594896	18315.000000
1250.774337	18198.333333
1251.953322	18168.333333
1253.131851	18193.000000
1254.309925	18269.000000
1255.487544	18113.333333
1256.664708	18059.000000
1257.841417	18038.666667
1259.017673	18030.000000
1260.193473	17918.333333
1261.368820	18091.000000
1262.543714	17976.333333
1263.718154	18026.666667
1264.892140	18108.000000
1266.065674	18055.000000
1267.238755	18044.333333
1268.411383	18165.666667
1269.583559	17947.333333
1270.755283	18056.333333
1271.926555	17920.666667
1273.097375	17992.333333
1274.267744	18040.333333
1275.437662	17847.333333
1276.607129	17949.000000
1277.776145	17898.000000
1278.944711	17927.333333
1280.112827	17699.000000
1281.280492	17727.333333
1282.447708	17660.666667
1283.614474	17597.666667
1284.780791	17653.666667
1285.946659	17571.666667
1287.112078	17476.333333
1288.277048	17468.000000
1289.441570	17289.333333
1290.605644	17269.333333
1291.769270	17395.333333
1292.932448	17205.000000
1294.095178	17253.333333
1295.257461	17077.333333
1296.419298	17050.666667
1297.580687	16971.000000
1298.741630	17032.333333
1299.902126	16978.333333
1301.062177	17048.333333
1302.221781	16901.666667
1303.380940	16962.000000
1304.539653	17058.000000
1305.697921	17052.333333
1306.855744	16972.000000
1308.013123	16915.000000
1309.170056	16959.333333
1310.326546	16920.333333
1311.482591	16886.333333
1312.638193	16888.666667
1313.793350	16922.666667
1314.948065	16798.666667
1316.102336	16814.333333
1317.256164	16827.666667
1318.409550	16721.666667
1319.562493	16671.000000
1320.714993	16746.333333
1321.867052	16651.333333
1323.018668	16541.000000
1324.169843	16469.333333
1325.320577	16631.666667
1326.470870	16409.333333
1327.620721	16466.666667
1328.770132	16337.333333
1329.919102	16310.666667
1331.067632	16251.333333
1332.215722	16394.000000
1333.363372	16241.666667
1334.510582	16238.333333
1335.657353	16170.000000
1336.803685	16321.000000
1337.949578	16346.333333
1339.095032	16322.000000
1340.240048	16252.666667
1341.384625	16221.666667
1342.528764	16297.000000
1343.672466	16207.000000
1344.815729	16190.666667
1345.958556	16159.333333
1347.100945	16191.000000
1348.242897	16168.000000
1349.384413	16061.000000
1350.525492	16025.000000
1351.666134	16030.333333
1352.806341	15985.333333
1353.946111	16031.333333
1355.085446	15941.666667
1356.224346	15802.333333
1357.362810	15845.666667
1358.500840	15691.000000
1359.638434	15714.333333
1360.775594	15753.000000
1361.912320	15744.000000
1363.048612	15579.666667
1364.184469	15508.000000
1365.319893	15655.666667
1366.454884	15706.666667
1367.589441	15538.000000
1368.723566	15648.666667
1369.857257	15690.333333
1370.990516	15633.000000
1372.123343	15644.000000
1373.255737	15620.666667
1374.387699	15554.666667
1375.519230	15665.000000
1376.650329	15513.666667
1377.780997	15619.333333
1378.911234	15552.666667
1380.041040	15448.000000
1381.170416	15540.333333
1382.299361	15537.000000
1383.427875	15449.333333
1384.555960	15429.666667
1385.683615	15442.000000
1386.810841	15465.333333
1387.937637	15454.333333
1389.064004	15321.333333
1390.189942	15479.000000
1391.315451	15339.000000
1392.440532	15306.666667
1393.565185	15370.333333
1394.689409	15265.333333
1395.813206	15248.666667
1396.936575	15232.000000
1398.059517	15117.333333
1399.182032	15128.000000
1400.304119	15075.000000
1401.425780	15011.333333
1402.547014	15111.666667
1403.667822	15016.000000
1404.788204	15023.666667
1405.908160	14993.333333
1407.027690	15053.666667
1408.146795	14934.000000
1409.265474	15064.666667
1410.383728	15028.000000
1411.501558	14917.666667
1412.618963	14957.333333
1413.735943	15036.666667
1414.852499	15013.000000
1415.968632	15040.666667
1417.084340	15033.000000
1418.199625	15033.666667
1419.314486	15054.333333
1420.428925	14920.666667
1421.542940	14958.666667
1422.656533	14888.666667
1423.769703	14883.666667
1424.882451	14889.666667
1425.994777	14895.000000
1427.106680	14836.000000
1428.218163	14756.000000
1429.329223	14751.000000
1430.439863	14638.666667
1431.550081	14712.000000
1432.659879	14522.666667
1433.769256	14568.666667
1434.878212	14566.666667
1435.986749	14509.000000
1437.094865	14588.666667
1438.202562	14493.333333
1439.309839	14522.333333
1440.416696	14603.666667
1441.523135	14534.333333
1442.629154	14576.666667
1443.734755	14535.000000
1444.839937	14654.000000
1445.944701	14534.333333
1447.049047	14737.666667
1448.152975	14641.666667
1449.256485	14633.333333
1450.359577	14620.333333
1451.462253	14634.666667
1452.564511	14598.666667
1453.666352	14516.000000
1454.767777	14507.333333
1455.868785	14492.666667
1456.969377	14465.000000
1458.069553	14429.666667
1459.169313	14485.333333
1460.268658	14423.000000
1461.367587	14412.333333
1462.466101	14386.000000
1463.564200	14250.000000
1464.661884	14154.000000
1465.759153	14129.000000
1466.856008	13982.666667
1467.952449	13985.333333
1469.048476	13955.000000
1470.144089	13826.666667
1471.239288	13892.000000
1472.334074	13660.000000
1473.428447	13681.000000
1474.522407	13674.000000
1475.615955	13567.666667
1476.709089	13479.333333
1477.801812	13455.333333
1478.894122	13406.000000
1479.986020	13425.333333
1481.077506	13383.000000
1482.168581	13328.666667
1483.259245	13363.000000
1484.349498	13325.333333
1485.439339	13301.000000
1486.528770	13401.333333
1487.617790	13258.333333
1488.706400	13308.333333
1489.794600	13301.666667
1490.882390	13329.666667
1491.969771	13251.333333
1493.056742	13315.000000
1494.143303	13237.666667
1495.229456	13160.000000
1496.315199	13149.333333
1497.400534	13215.333333
1498.485460	13096.000000
1499.569978	13035.666667
1500.654088	12966.666667
1501.737790	13007.666667
1502.821085	12969.333333
1503.903972	12943.000000
1504.986451	12889.000000
1506.068524	12825.333333
1507.150189	12922.666667
1508.231448	12769.333333
1509.312301	12776.333333
1510.392747	12757.666667
1511.472787	12697.666667
1512.552422	12752.666667
1513.631650	12610.333333
1514.710473	12567.000000
1515.788891	12629.666667
1516.866904	12568.333333
1517.944512	12511.000000
1519.021715	12585.666667
1520.098513	12576.000000
1521.174908	12590.333333
1522.250898	12568.666667
1523.326485	12443.333333
1524.401667	12651.333333
1525.476447	12558.333333
1526.550823	12646.000000
1527.624796	12628.000000
1528.698365	12551.333333
1529.771533	12597.666667
1530.844298	12632.333333
1531.916660	12430.000000
1532.988620	12513.000000
1534.060179	12452.333333
1535.131336	12468.666667
1536.202091	12387.333333
1537.272445	12466.666667
1538.342398	12435.000000
1539.411950	12325.000000
1540.481101	12354.000000
1541.549851	12185.333333
1542.618202	12299.333333
1543.686152	12247.000000
1544.753702	12209.000000
1545.820853	12123.333333
1546.887604	12174.000000
1547.953955	12072.333333
1549.019908	12082.000000
1550.085461	12015.666667
1551.150616	11998.000000
1552.215372	11967.000000
1553.279730	11979.666667
1554.343690	11904.333333
1555.407252	11924.333333
1556.470415	11840.333333
1557.533182	11840.333333
1558.595551	11875.333333
1559.657522	11807.666667
1560.719097	11836.666667
1561.780275	11778.333333
1562.841056	11797.333333
1563.901441	11775.000000
1564.961429	11845.333333
1566.021022	11825.666667
1567.080219	11844.333333
1568.139020	11711.333333
1569.197425	11706.333333
1570.255436	11728.333333
1571.313051	11747.333333
1572.370271	11727.666667
1573.427097	11692.666667
1574.483528	11687.000000
1575.539565	11614.333333
1576.595208	11625.333333
1577.650457	11455.666667
1578.705312	11597.666667
1579.759774	11505.000000
1580.813842	11379.666667
1581.867517	11386.000000
1582.920799	11327.333333
1583.973689	11261.333333
1585.026186	11268.000000
1586.078290	11353.000000
1587.130002	11279.333333
1588.181323	11273.333333
1589.232251	11199.666667
1590.282788	11122.666667
1591.332933	11186.666667
1592.382688	11210.333333
1593.432051	11136.000000
1594.481023	11144.000000
1595.529605	11119.000000
1596.577796	11182.333333
1597.625597	11174.666667
1598.673007	11209.333333
1599.720028	11227.333333
1600.766660	11112.666667
1601.812901	11277.000000
1602.858753	11181.666667
1603.904217	11156.666667
1604.949291	11200.333333
1605.993976	11155.333333
1607.038273	11209.333333
1608.082182	11230.000000
1609.125702	11245.666667
1610.168834	11164.666667
1611.211579	11089.333333
1612.253935	11022.000000
1613.295905	10989.666667
1614.337487	10931.333333
1615.378682	10875.333333
1616.419490	10851.000000
1617.459912	10876.666667
1618.499946	10905.333333
1619.539595	10841.000000
1620.578858	10975.666667
1621.617734	10830.333333
1622.656225	10749.000000
1623.694330	10736.333333
1624.732050	10820.666667
1625.769385	10707.000000
1626.806334	10729.000000
1627.842899	10650.333333
1628.879079	10520.333333
1629.914875	10695.666667
1630.950286	10643.333333
1631.985314	10643.666667
1633.019957	10676.000000
1634.054217	10613.000000
1635.088093	10632.000000
1636.121586	10725.333333
1637.154696	10703.333333
1638.187423	10573.000000
1639.219767	10644.333333
1640.251728	10654.333333
1641.283307	10581.666667
1642.314504	10625.333333
1643.345319	10585.000000
1644.375751	10605.333333
1645.405803	10713.333333
1646.435472	10638.000000
1647.464761	10594.666667
1648.493668	10529.333333
1649.522194	10635.333333
1650.550340	10541.000000
1651.578105	10553.333333
1652.605490	10432.666667
1653.632494	10476.333333
1654.659119	10474.333333
1655.685363	10433.666667
1656.711228	10381.666667
1657.736714	10337.000000
1658.761820	10325.666667
1659.786547	10285.000000
1660.810895	10342.000000
1661.834865	10219.000000
1662.858456	10263.666667
1663.881668	10176.333333
1664.904503	10120.666667
1665.926959	10073.000000
1666.949038	10061.666667
1667.970739	10048.000000
1668.992062	10025.333333
1670.013008	9947.000000
1671.033577	10036.666667
1672.053770	9983.666667
1673.073585	9927.333333
1674.093024	9889.000000
1675.112086	9985.666667
1676.130773	9890.333333
1677.149083	9908.000000
1678.167017	9887.000000
1679.184576	9942.333333
1680.201760	9935.333333
1681.218568	9868.333333
1682.235001	9854.000000
1683.251059	9904.333333
1684.266742	9808.333333
1685.282051	9938.000000
1686.296985	9841.666667
1687.311546	9867.000000
1688.325732	9757.333333
1689.339544	9648.000000
1690.352983	9611.333333
1691.366048	9603.666667
1692.378740	9518.666667
1693.391058	9534.666667
1694.403004	9491.333333
1695.414577	9494.666667
1696.425778	9351.333333
1697.436606	9415.000000
1698.447061	9373.000000
1699.457145	9260.000000
1700.466857	9284.000000
1701.476197	9186.666667
1702.485166	9115.666667
1703.493763	9167.000000
1704.501989	9084.000000
1705.509844	9023.000000
1706.517328	9058.333333
1707.524442	9039.000000
1708.531185	9058.333333
1709.537558	8955.000000
1710.543561	9055.666667
1711.549194	8855.666667
1712.554457	8930.666667
1713.559351	8929.333333
1714.563875	8801.000000
1715.568030	8796.000000
1716.571816	8930.000000
1717.575233	8919.666667
1718.578282	8924.666667
1719.580962	8948.333333
1720.583273	9008.666667
1721.585217	8890.666667
1722.586792	9014.333333
1723.588000	8979.333333
1724.588840	8908.333333
1725.589312	8919.333333
1726.589418	8991.666667
1727.589156	8906.333333
1728.588527	8992.666667
1729.587532	9035.333333
1730.586170	8952.666667
1731.584441	8874.000000
1732.582346	8918.333333
1733.579886	8896.000000
1734.577059	8851.333333
1735.573867	8861.000000
1736.570309	8854.666667
1737.566386	8769.666667
1738.562097	8813.333333
1739.557444	8750.666667
1740.552426	8685.666667
1741.547043	8672.000000
1742.541295	8566.000000
1743.535184	8541.666667
1744.528708	8526.000000
1745.521868	8577.000000
1746.514664	8484.000000
1747.507097	8486.000000
1748.499166	8427.666667
1749.490873	8347.000000
1750.482216	8402.333333
1751.473196	8393.666667
1752.463813	8343.333333
1753.454068	8405.333333
1754.443960	8420.000000
1755.433490	8262.000000
1756.422658	8296.666667
1757.411464	8362.666667
1758.399908	8297.333333
1759.387991	8308.666667
1760.375713	8327.000000
1761.363073	8354.333333
1762.350072	8321.000000
1763.336711	8334.333333
1764.322988	8237.666667
1765.308905	8279.000000
1766.294462	8258.666667
1767.279659	8118.333333
1768.264496	8257.666667
1769.248972	8120.000000
1770.233089	8131.333333
1771.216847	8068.666667
1772.200245	8127.333333
1773.183284	8051.666667
1774.165965	8104.000000
1775.148286	8078.000000
1776.130249	7959.666667
1777.111853	7969.000000
1778.093099	7987.666667
1779.073987	7906.333333
1780.054517	7854.000000
1781.034689	7795.333333
1782.014503	7762.333333
1782.993960	7676.333333
1783.973060	7657.000000
1784.951802	7666.000000
1785.930188	7596.666667
1786.908217	7521.666667
1787.885889	7522.000000
1788.863205	7538.000000
1789.840164	7513.000000
1790.816768	7413.666667
1791.793015	7447.333333
1792.768907	7425.000000
1793.744443	7449.333333
1794.719624	7453.333333
1795.694449	7499.000000
1796.668919	7429.666667
1797.643035	7525.666667
1798.616795	7468.333333
1799.590201	7496.666667
1800.563253	7480.333333
1801.535950	7423.333333
1802.508294	7479.000000
1803.480283	7450.333333
1804.451919	7532.666667
1805.423201	7497.666667
1806.394129	7475.666667
1807.364705	7511.333333
1808.334927	7459.666667
1809.304796	7466.333333
1810.274313	7566.333333
1811.243477	7448.333333
1812.212288	7405.000000
1813.180747	7393.000000
1814.148855	7429.333333
1815.116610	7376.000000
1816.084013	7348.000000
1817.051065	7440.666667
1818.017766	7344.333333
1818.984115	7329.000000
1819.950113	7305.000000
1820.915760	7307.333333
1821.881057	7358.666667
1822.846003	7319.666667
1823.810598	7313.666667
1824.774843	7200.000000
1825.738738	7272.000000
1826.702283	7183.000000
1827.665479	7264.666667
1828.628324	7238.333333
1829.590821	7145.333333
1830.552968	7175.333333
1831.514765	7096.666667
1832.476214	7071.666667
1833.437314	7091.000000
1834.398066	7151.666667
1835.358469	7042.666667
1836.318524	7096.333333
1837.278230	7083.333333
1838.237589	7004.666667
1839.196600	6994.666667
1840.155263	7077.333333
1841.113578	7094.666667
1842.071547	7013.333333
1843.029168	6997.666667
1843.986442	7107.000000
1844.943369	7059.666667
1845.899950	7038.000000
1846.856184	7103.333333
1847.812072	7065.666667
1848.767614	7095.000000
1849.722809	6970.333333
1850.677659	7044.666667
1851.632163	7037.333333
1852.586322	6994.000000
1853.540135	7006.000000
1854.493603	7010.666667
1855.446726	7018.666667
1856.399504	6948.000000
1857.351937	6966.666667
1858.304026	6898.000000
1859.255770	6852.666667
1860.207170	6851.000000
1861.158227	6814.666667
1862.108939	6752.666667
1863.059307	6743.000000
1864.009332	6746.666667
1864.959013	6685.666667
1865.908351	6729.333333
1866.857346	6693.000000
1867.805998	6562.000000
1868.754307	6640.000000
1869.702274	6545.666667
1870.649898	6627.333333
1871.597180	6486.000000
1872.544119	6545.666667
1873.490717	6466.666667
1874.436973	6559.666667
1875.382887	6450.666667
1876.328459	6517.333333
1877.273691	6408.666667
1878.218581	6434.333333
1879.163130	6404.000000
1880.107338	6448.000000
1881.051205	6386.666667
1881.994732	6428.000000
1882.937919	6507.333333
1883.880765	6474.333333
1884.823271	6468.000000
1885.765437	6558.666667
1886.707264	6392.666667
1887.648750	6509.666667
1888.589898	6475.000000
1889.530706	6541.333333
1890.471175	6458.666667
1891.411305	6515.000000
1892.351096	6474.333333
1893.290548	6449.333333
1894.229662	6480.666667
1895.168438	6434.666667
1896.106876	6530.666667
1897.044975	6435.000000
1897.982737	6525.666667
1898.920160	6378.333333
1899.857247	6343.000000
1900.793996	6401.333333
1901.730407	6352.333333
1902.666482	6378.000000
1903.602219	6335.666667
1904.537620	6292.000000
1905.472685	6260.000000
1906.407412	6254.666667
1907.341804	6209.000000
1908.275859	6240.333333
1909.209579	6192.666667
1910.142962	6115.333333
1911.076010	6111.000000
1912.008722	6039.333333
1912.941099	5997.666667
1913.873141	5989.333333
1914.804848	5977.666667
1915.736219	5919.000000
1916.667256	5967.666667
1917.597959	5913.666667
1918.528327	5859.333333
1919.458360	5959.000000
1920.388060	5887.333333
1921.317426	5822.333333
1922.246457	5834.666667
1923.175156	5841.666667
1924.103520	5888.000000
1925.031552	5908.000000
1925.959250	5893.666667
1926.886615	5843.333333
1927.813647	5803.666667
1928.740346	5844.333333
1929.666713	5882.000000
1930.592748	5799.000000
1931.518450	5891.333333
1932.443820	5849.333333
1933.368858	5898.333333
1934.293564	5835.333333
1935.217939	5849.666667
1936.141982	5822.000000
1937.065694	5854.333333
1937.989074	5797.333333
1938.912124	5792.000000
1939.834842	5735.666667
1940.757230	5755.666667
1941.679287	5799.333333
1942.601014	5719.666667
1943.522411	5674.333333
1944.443477	5710.000000
1945.364214	5667.666667
1946.284621	5583.333333
1947.204698	5611.000000
1948.124445	5608.000000
1949.043863	5550.000000
1949.962952	5569.000000
1950.881712	5520.666667
1951.800143	5435.333333
1952.718245	5405.000000
1953.636019	5506.000000
1954.553464	5389.000000
1955.470581	5394.666667
1956.387369	5355.666667
1957.303830	5373.666667
1958.219963	5386.666667
1959.135768	5378.333333
1960.051246	5353.666667
1960.966396	5351.666667
1961.881219	5315.333333
1962.795715	5320.000000
1963.709883	5362.000000
1964.623726	5383.000000
1965.537241	5377.000000
1966.450430	5429.333333
1967.363293	5367.666667
1968.275829	5393.666667
1969.188040	5402.666667
1970.099924	5448.000000
1971.011483	5407.666667
1971.922716	5388.666667
1972.833624	5460.000000
1973.744206	5426.666667
1974.654464	5406.666667
1975.564396	5374.666667
1976.474004	5457.666667
1977.383286	5448.666667
1978.292245	5468.666667
1979.200878	5352.000000
1980.109188	5367.000000
1981.017174	5277.000000
1981.924835	5306.666667
1982.832173	5277.333333
1983.739187	5222.000000
1984.645878	5208.666667
1985.552245	5288.000000
1986.458289	5197.000000
1987.364010	5118.000000
1988.269408	5122.333333
1989.174484	5108.333333
1990.079236	5076.000000
1990.983667	5035.666667
1991.887775	5079.666667
1992.791561	5048.666667
1993.695024	4975.333333
1994.598166	5025.000000
1995.500986	4995.333333
1996.403485	4998.666667
1997.305662	4951.333333
1998.207518	4914.333333
1999.109053	4915.666667
