200.151048	21631.333333
201.758777	21529.666667
203.365815	21631.333333
204.972162	21401.666667
206.577820	21394.333333
208.182787	21423.666667
209.787065	21343.666667
211.390653	21131.666667
212.993553	21208.000000
214.595765	21064.333333
216.197289	21104.000000
217.798125	21131.666667
219.398274	21055.333333
220.997737	20832.333333
222.596513	20952.666667
224.194603	20897.000000
225.792008	20841.000000
227.388728	20736.000000
228.984763	20756.666667
230.580114	20709.000000
232.174781	20665.333333
233.768765	20682.000000
235.362065	20647.000000
236.954683	20566.333333
238.546619	20402.333333
240.137872	20408.666667
241.728445	20403.000000
243.318336	20300.666667
244.907546	20296.666667
246.496076	20346.000000
248.083926	20259.666667
249.671097	20056.666667
251.257589	20164.333333
252.843402	19894.333333
254.428536	19947.000000
256.012993	19824.333333
257.596772	19729.666667
259.179874	19790.000000
260.762300	19685.666667
262.344049	19651.000000
263.925122	19738.666667
265.505519	19572.000000
267.085241	19536.333333
268.664289	19515.666667
270.242662	19424.666667
271.820361	19493.333333
273.397387	19488.666667
274.973740	19419.000000
276.549419	19467.000000
278.124426	19456.333333
279.698762	19366.666667
281.272425	19490.333333
282.845417	19392.000000
284.417739	19374.000000
285.989390	19365.666667
287.560371	19356.000000
289.130682	19530.333333
290.700324	19429.000000
292.269297	19328.000000
293.837602	19459.666667
295.405238	19256.000000
296.972207	19238.333333
298.538508	19201.000000
300.104142	19258.000000
301.669110	19059.333333
303.233411	19008.666667
304.797047	19029.333333
306.360017	18890.000000
307.922322	18982.000000
309.483963	18837.333333
311.044939	18670.333333
312.605252	18732.000000
314.164900	18596.666667
315.723886	18595.333333
317.282209	18544.333333
318.839870	18460.000000
320.396868	18423.333333
321.953205	18330.666667
323.508881	18300.333333
325.063896	18293.000000
326.618251	18213.666667
328.171945	18162.333333
329.724980	18128.666667
331.277356	18115.666667
332.829072	18272.333333
334.380131	18183.000000
335.930530	17993.333333
337.480273	18086.333333
339.029357	18100.000000
340.577785	18083.000000
342.125556	17989.000000
343.672671	18035.000000
345.219130	17968.000000
346.764933	17943.333333
348.310081	17859.000000
349.854575	17843.000000
351.398414	17878.666667
352.941599	17822.000000
354.484130	17874.000000
356.026008	17669.333333
357.567234	17698.666667
359.107807	17702.333333
360.647727	17667.666667
362.186996	17767.333333
363.725614	17647.333333
365.263580	17507.000000
366.800896	17552.000000
368.337562	17512.000000
369.873578	17506.000000
371.408944	17429.666667
372.943661	17481.666667
374.477730	17501.000000
376.011150	17424.666667
377.543922	17416.666667
379.076046	17500.333333
380.607523	17390.333333
382.138353	17492.333333
383.668537	17425.666667
385.198075	17349.000000
386.726966	17555.333333
388.255213	17477.666667
389.782814	17423.333333
391.309770	17352.333333
392.836083	17419.333333
394.361751	17381.666667
395.886776	17494.666667
397.411157	17358.333333
398.934896	17469.666667
400.457992	17435.666667
401.980446	17395.666667
403.502258	17435.000000
405.023429	17462.000000
406.543959	17504.666667
408.063849	17358.000000
409.583098	17590.000000
411.101707	17506.666667
412.619677	17574.000000
414.137007	17680.666667
415.653699	17858.333333
417.169752	17869.666667
418.685167	17723.666667
420.199945	18040.666667
421.714085	18010.666667
423.227588	18235.666667
424.740454	18342.666667
426.252684	18294.666667
427.764279	18342.666667
429.275238	18281.666667
430.785561	18318.000000
432.295250	18086.000000
433.804304	18070.333333
435.312725	18031.000000
436.820511	17924.000000
438.327664	17771.000000
439.834185	17655.000000
441.340072	17708.666667
442.845327	17587.666667
444.349951	17474.000000
445.853942	17488.666667
447.357303	17342.666667
448.860033	17324.333333
450.362132	17277.666667
451.863601	17262.333333
453.364440	17047.000000
454.864650	17058.333333
456.364231	16918.333333
457.863183	16854.000000
459.361507	16626.000000
460.859203	16699.000000
462.356271	16596.000000
463.852712	16471.666667
465.348526	16419.333333
466.843714	16385.666667
468.338275	16395.333333
469.832210	16251.333333
471.325520	16238.666667
472.818205	16247.666667
474.310265	16100.666667
475.801700	16092.333333
477.292512	16036.000000
478.782700	16037.000000
480.272264	15921.000000
481.761205	15952.666667
483.249524	15948.666667
484.737221	15876.333333
486.224295	15831.000000
487.710748	15805.666667
489.196579	15782.333333
490.681790	15677.000000
492.166380	15815.666667
493.650350	15589.666667
495.133700	15659.000000
496.616431	15736.666667
498.098542	15505.000000
499.580035	15683.000000
501.060909	15555.333333
502.541165	15512.000000
504.020804	15594.000000
505.499825	15491.000000
506.978228	15525.000000
508.456016	15454.666667
509.933186	15339.333333
511.409741	15373.000000
512.885680	15254.333333
514.361004	15415.000000
515.835713	15326.333333
517.309807	15374.333333
518.783287	15356.000000
520.256153	15289.000000
521.728406	15347.000000
523.200045	15287.333333
524.671071	15333.666667
526.141485	15403.333333
527.611287	15254.333333
529.080476	15243.000000
530.549054	15271.666667
532.017021	15260.000000
533.484378	15148.333333
534.951123	15184.666667
536.417259	15120.333333
537.882785	15196.000000
539.347701	15252.333333
540.812008	15185.666667
542.275707	15084.000000
543.738797	15049.666667
545.201279	15127.000000
546.663153	15156.666667
548.124420	15073.000000
549.585080	15060.333333
551.045133	15147.000000
552.504579	15120.333333
553.963420	15108.000000
555.421655	15200.666667
556.879285	15181.333333
558.336309	15041.000000
559.792729	15130.333333
561.248545	15163.666667
562.703756	15313.666667
564.158364	15258.666667
565.612369	15239.666667
567.065770	15251.666667
568.518569	15219.000000
569.970766	15411.666667
571.422361	15394.666667
572.873354	15460.333333
574.323745	15512.000000
575.773536	15589.000000
577.222726	15667.666667
578.671316	15630.333333
580.119306	15753.000000
581.566696	15743.000000
583.013487	15638.666667
584.459679	15762.666667
585.905273	15583.000000
587.350268	15536.333333
588.794665	15487.333333
590.238465	15469.000000
591.681667	15384.333333
593.124272	15389.333333
594.566281	15304.333333
596.007694	15199.000000
597.448510	15169.666667
598.888731	14963.666667
600.328357	14882.333333
601.767388	14928.666667
603.205824	14848.666667
604.643666	14786.666667
606.080914	14789.333333
607.517568	14757.666667
608.953629	14627.000000
610.389097	14711.000000
611.823972	14649.666667
613.258255	14607.666667
614.691946	14563.000000
616.125046	14516.666667
617.557554	14305.666667
618.989471	14380.333333
620.420798	14204.666667
621.851534	14309.333333
623.281680	14114.666667
624.711237	14008.000000
626.140204	13940.666667
627.568582	13957.333333
628.996372	13946.333333
630.423573	13847.666667
631.850186	13951.666667
633.276211	13805.000000
634.701650	13814.333333
636.126501	13818.000000
637.550765	13749.666667
638.974443	13738.000000
640.397535	13809.666667
641.820041	13710.000000
643.241961	13723.000000
644.663297	13736.333333
646.084048	13628.666667
647.504214	13651.333333
648.923796	13632.666667
650.342795	13640.333333
651.761210	13600.000000
653.179041	13665.666667
654.596290	13630.666667
656.012957	13594.333333
657.429041	13571.333333
658.844543	13535.000000
660.259464	13611.333333
661.673804	13484.333333
663.087563	13545.333333
664.500741	13604.666667
665.913339	13394.666667
667.325357	13506.333333
668.736795	13491.666667
670.147654	13463.333333
671.557934	13409.333333
672.967636	13450.000000
674.376759	13352.000000
675.785304	13502.000000
677.193271	13519.666667
678.600661	13346.000000
680.007474	13358.000000
681.413711	13350.333333
682.819370	13302.000000
684.224454	13383.333333
685.628962	13302.666667
687.032895	13165.666667
688.436252	13250.000000
689.839034	13167.333333
691.241242	13248.000000
692.642876	13131.000000
694.043936	13309.333333
695.444422	13177.666667
696.844336	13088.666667
698.243676	13071.333333
699.642443	13027.666667
701.040639	13052.666667
702.438262	13065.000000
703.835313	13035.666667
705.231794	13050.000000
706.627703	13088.333333
708.023041	13092.666667
709.417810	13108.000000
710.812008	13005.333333
712.205636	13013.000000
713.598694	12977.333333
714.991184	13020.666667
716.383105	13054.000000
717.774457	12879.333333
719.165241	12937.000000
720.555457	12905.000000
721.945105	12937.666667
723.334187	12980.000000
724.722701	13027.333333
726.110648	13019.666667
727.498030	12817.000000
728.884845	12870.666667
730.271094	12945.000000
731.656778	12794.666667
733.041897	12832.666667
734.426451	12830.666667
735.810441	12835.000000
737.193866	12823.000000
738.576728	12854.666667
739.959026	12842.666667
741.340760	12804.666667
742.721932	12743.333333
744.102541	12694.666667
745.482588	12713.333333
746.862073	12804.000000
748.240996	12652.000000
749.619358	12731.666667
750.997158	12711.666667
752.374398	12644.666667
753.751077	12712.000000
755.127197	12606.000000
756.502756	12747.000000
757.877756	12619.666667
759.252196	12625.333333
760.626078	12668.666667
761.999400	12674.000000
763.372165	12585.666667
764.744371	12655.000000
766.116020	12643.000000
767.487111	12608.666667
768.857646	12600.000000
770.227623	12646.333333
771.597044	12496.000000
772.965908	12510.000000
774.334217	12495.666667
775.701970	12523.333333
777.069168	12446.666667
778.435811	12460.333333
779.801899	12514.333333
781.167433	12388.666667
782.532412	12393.666667
783.896838	12387.000000
785.260710	12380.666667
786.624029	12299.000000
787.986796	12316.333333
789.349009	12364.000000
790.710671	12394.666667
792.071780	12365.000000
793.432338	12262.000000
794.792344	12256.666667
796.151799	12170.333333
797.510704	12263.000000
798.869058	12344.000000
800.226862	12271.000000
801.584116	12230.000000
802.940820	12244.666667
804.296975	12165.000000
805.652581	12278.333333
807.007638	12231.333333
808.362147	12238.666667
809.716108	12246.666667
811.069521	12256.000000
812.422387	12215.333333
813.774705	12337.000000
815.126476	12234.000000
816.477701	12268.000000
817.828380	12265.666667
819.178512	12166.000000
820.528099	12195.000000
821.877140	12227.333333
823.225637	12229.666667
824.573588	12236.333333
825.920995	12110.666667
827.267857	12127.666667
828.614176	12164.666667
829.959951	12146.000000
831.305183	12095.000000
832.649871	12117.000000
833.994017	12114.000000
835.337620	12128.000000
836.680681	12108.000000
838.023201	12017.333333
839.365178	12155.333333
840.706614	12178.333333
842.047510	12178.000000
843.387864	12187.333333
844.727678	12230.333333
846.066952	12287.000000
847.405687	12266.666667
848.743881	12184.333333
850.081537	12291.333333
851.418653	12293.000000
852.755231	12380.333333
854.091270	12404.333333
855.426771	12446.000000
856.761735	12284.666667
858.096160	12295.000000
859.430049	12368.000000
860.763401	12245.000000
862.096216	12312.666667
863.428495	12205.000000
864.760237	12238.666667
866.091444	12150.000000
867.422115	12158.000000
868.752252	12170.333333
870.081853	12044.333333
871.410919	12191.333333
872.739452	12166.333333
874.067450	12142.666667
875.394914	12126.666667
876.721845	12127.666667
878.048243	12078.333333
879.374108	12038.000000
880.699440	12026.666667
882.024240	12071.666667
883.348508	11944.333333
884.672244	11983.000000
885.995449	11970.333333
887.318122	11962.000000
888.640265	11965.666667
889.961877	11893.000000
891.282959	11888.000000
892.603510	11901.333333
893.923532	11755.000000
895.243024	11743.666667
896.561987	11798.000000
897.880422	11824.333333
899.198327	11816.666667
900.515705	11790.000000
901.832554	11826.333333
903.148875	11823.666667
904.464669	11761.000000
905.779936	11750.666667
907.094676	11761.333333
908.408889	11792.333333
909.722576	11788.333333
911.035737	11804.666667
912.348371	11923.666667
913.660481	11887.666667
914.972065	11924.000000
916.283124	12050.333333
917.593659	12092.000000
918.903669	12061.666667
920.213155	12168.000000
921.522117	12099.000000
922.830556	12027.000000
924.138471	12136.333333
925.445864	12126.333333
926.752733	11994.333333
928.059081	12230.333333
929.364906	12155.333333
930.670209	12175.666667
931.974991	12260.333333
933.279251	12294.333333
934.582990	12401.333333
935.886209	12590.000000
937.188907	12602.666667
938.491085	12597.333333
939.792743	12930.000000
941.093881	13018.666667
942.394500	13176.000000
943.694600	13448.666667
944.994181	13667.666667
946.293243	13905.333333
947.591787	14178.000000
948.889813	14571.666667
950.187322	14979.000000
951.484313	15523.000000
952.780787	16008.666667
954.076744	16689.666667
955.372184	17217.333333
956.667108	17623.333333
957.961516	17828.666667
959.255409	17901.000000
960.548785	17684.666667
961.841647	17352.333333
963.133993	16751.333333
964.425825	16089.666667
965.717142	15364.333333
967.007946	14825.666667
968.298235	14186.000000
969.588011	13633.666667
970.877273	13182.000000
972.166023	12830.666667
973.454259	12461.666667
974.741984	12337.666667
976.029196	12185.333333
977.315895	12028.000000
978.602084	11886.333333
979.887761	11816.333333
981.172926	11666.333333
982.457581	11645.333333
983.741725	11666.000000
985.025359	11632.666667
986.308483	11508.666667
987.591097	11494.666667
988.873202	11456.666667
990.154797	11530.333333
991.435883	11426.666667
992.716461	11478.333333
993.996530	11444.666667
995.276091	11479.666667
996.555144	11524.666667
997.833690	11492.666667
999.111728	11577.000000
1000.389259	11588.666667
1001.666283	11609.666667
1002.942800	11786.000000
1004.218812	11683.333333
1005.494317	11592.000000
1006.769317	11560.000000
1008.043811	11585.000000
1009.317799	11590.333333
1010.591283	11535.333333
1011.864263	11570.666667
1013.136737	11600.333333
1014.408708	11596.000000
1015.680175	11539.666667
1016.951138	11584.666667
1018.221598	11648.666667
1019.491554	11634.333333
1020.761008	11653.666667
1022.029959	11688.666667
1023.298408	11634.333333
1024.566355	11726.666667
1025.833800	11755.666667
1027.100744	11732.666667
1028.367187	11774.666667
1029.633128	11798.333333
1030.898569	11789.000000
1032.163509	11863.666667
1033.427949	11797.333333
1034.691890	11726.333333
1035.955330	11860.666667
1037.218271	11806.666667
1038.480714	11821.000000
1039.742657	11834.000000
1041.004101	11817.333333
1042.265048	11835.333333
1043.525496	11887.000000
1044.785446	11785.666667
1046.044899	11874.666667
1047.303855	11868.666667
1048.562313	11794.000000
1049.820275	11725.666667
1051.077740	11759.666667
1052.334709	11790.000000
1053.591182	11784.000000
1054.847160	11661.666667
1056.102641	11693.000000
1057.357628	11798.666667
1058.612120	11794.000000
1059.866117	11844.333333
1061.119619	11927.333333
1062.372628	11861.333333
1063.625142	12007.000000
1064.877163	11873.000000
1066.128691	12012.000000
1067.379725	12001.666667
1068.630267	12009.333333
1069.880316	11925.666667
1071.129872	11940.000000
1072.378937	11950.000000
1073.627509	11879.666667
1074.875590	11871.000000
1076.123180	11767.333333
1077.370279	11702.333333
1078.616887	11673.000000
1079.863004	11535.000000
1081.108631	11509.333333
1082.353768	11352.000000
1083.598415	11359.333333
1084.842573	11282.333333
1086.086241	11261.666667
1087.329421	11169.666667
1088.572111	11139.666667
1089.814314	11169.000000
1091.056028	11014.000000
1092.297253	11050.333333
1093.537992	10936.333333
1094.778242	10983.666667
1096.018006	10902.000000
1097.257282	10967.666667
1098.496072	11015.666667
1099.734376	10900.666667
1100.972193	10912.666667
1102.209524	10975.666667
1103.446370	10955.000000
1104.682730	10891.333333
1105.918604	10881.666667
1107.153994	10851.000000
1108.388900	10853.000000
1109.623320	10765.000000
1110.857257	10759.333333
1112.090710	10681.333333
1113.323679	10747.000000
1114.556164	10693.000000
1115.788167	10658.333333
1117.019686	10606.000000
1118.250723	10616.000000
1119.481278	10569.333333
1120.711350	10623.333333
1121.940940	10609.000000
1123.170049	10546.666667
1124.398676	10575.333333
1125.626823	10562.000000
1126.854488	10569.000000
1128.081672	10536.333333
1129.308376	10425.000000
1130.534600	10464.333333
1131.760345	10443.000000
1132.985609	10457.333333
1134.210394	10427.333333
1135.434700	10482.333333
1136.658527	10478.333333
1137.881875	10426.333333
1139.104745	10390.000000
1140.327136	10427.666667
1141.549050	10455.333333
1142.770486	10376.000000
1143.991445	10440.666667
1145.211926	10380.333333
1146.431931	10379.000000
1147.651459	10377.333333
1148.870510	10393.666667
1150.089086	10456.000000
1151.307185	10441.666667
1152.524808	10480.666667
1153.741957	10427.666667
1154.958630	10410.333333
1156.174828	10366.333333
1157.390551	10390.666667
1158.605800	10399.333333
1159.820574	10439.666667
1161.034875	10287.666667
1162.248702	10367.333333
1163.462055	10385.333333
1164.674936	10387.333333
1165.887343	10406.333333
1167.099277	10341.333333
1168.310739	10282.666667
1169.521729	10290.666667
1170.732247	10345.666667
1171.942293	10270.666667
1173.151867	10342.666667
1174.360970	10341.666667
1175.569602	10243.333333
1176.777764	10399.333333
1177.985454	10305.666667
1179.192675	10260.666667
1180.399425	10270.666667
1181.605706	10226.000000
1182.811517	10206.000000
1184.016859	10199.000000
1185.221731	10179.333333
1186.426135	10194.000000
1187.630070	10192.666667
1188.833537	10161.333333
1190.036535	10095.666667
1191.239066	10081.000000
1192.441129	10072.000000
1193.642725	10163.333333
1194.843853	10032.666667
1196.044515	10065.333333
1197.244710	10114.000000
1198.444438	10107.333333
1199.643701	10070.666667
1200.842497	10078.666667
1202.040827	10056.333333
1203.238693	10105.333333
1204.436092	10085.000000
1205.633027	10057.333333
1206.829497	10006.000000
1208.025503	10028.333333
1209.221044	10001.000000
1210.416122	9966.666667
1211.610735	9899.333333
1212.804885	9937.666667
1213.998572	9979.666667
1215.191795	9921.000000
1216.384556	9797.000000
1217.576854	9873.000000
1218.768689	9910.000000
1219.960063	9820.666667
1221.150974	9846.333333
1222.341424	9810.000000
1223.531413	9941.000000
1224.720940	9892.333333
1225.910006	9879.000000
1227.098612	9900.000000
1228.286757	9886.333333
1229.474442	9852.000000
1230.661667	9958.666667
1231.848432	10014.666667
1233.034738	10006.333333
1234.220584	10016.000000
1235.405971	10059.333333
1236.590900	10062.666667
1237.775369	10110.333333
1238.959381	10046.333333
1240.142934	10188.666667
1241.326029	10066.666667
1242.508667	10071.000000
1243.690848	10115.333333
1244.872571	10103.000000
1246.053837	10090.333333
1247.234646	10021.666667
1248.414999	10088.666667
1249.594896	10023.000000
1250.774337	10032.333333
1251.953322	10045.666667
1253.131851	9990.666667
1254.309925	9953.000000
1255.487544	9973.666667
1256.664708	9900.666667
1257.841417	9977.000000
1259.017673	9939.666667
1260.193473	9884.333333
1261.368820	9937.666667
1262.543714	9861.666667
1263.718154	9916.000000
1264.892140	9968.000000
1266.065674	9898.000000
1267.238755	9963.666667
1268.411383	9909.000000
1269.583559	10049.333333
1270.755283	9874.000000
1271.926555	10028.333333
1273.097375	9980.333333
1274.267744	9987.666667
1275.437662	9835.000000
1276.607129	9983.333333
1277.776145	9927.000000
1278.944711	9883.666667
1280.112827	9817.333333
1281.280492	9783.666667
1282.447708	9791.666667
1283.614474	9816.000000
1284.780791	9760.000000
1285.946659	9725.666667
1287.112078	9643.000000
1288.277048	9589.666667
1289.441570	9656.000000
1290.605644	9605.333333
1291.769270	9565.333333
1292.932448	9503.333333
1294.095178	9504.000000
1295.257461	9503.666667
1296.419298	9531.666667
1297.580687	9452.000000
1298.741630	9449.000000
1299.902126	9508.333333
1301.062177	9475.000000
1302.221781	9421.000000
1303.380940	9364.333333
1304.539653	9419.000000
1305.697921	9418.666667
1306.855744	9319.000000
1308.013123	9429.000000
1309.170056	9337.000000
1310.326546	9438.666667
1311.482591	9388.333333
1312.638193	9421.666667
1313.793350	9355.000000
1314.948065	9437.000000
1316.102336	9306.000000
1317.256164	9255.666667
1318.409550	9301.333333
1319.562493	9303.000000
1320.714993	9283.333333
1321.867052	9234.666667
1323.018668	9230.666667
1324.169843	9162.000000
1325.320577	9160.666667
1326.470870	9172.000000
1327.620721	9167.000000
1328.770132	9116.000000
1329.919102	9034.333333
1331.067632	9134.333333
1332.215722	9141.666667
1333.363372	9078.333333
1334.510582	9041.666667
1335.657353	9045.000000
1336.803685	9084.666667
1337.949578	9058.333333
1339.095032	9164.000000
1340.240048	9044.666667
1341.384625	9122.333333
1342.528764	9048.000000
1343.672466	9072.666667
1344.815729	9003.333333
1345.958556	8981.000000
1347.100945	9016.000000
1348.242897	9003.000000
1349.384413	9009.333333
1350.525492	8947.666667
1351.666134	8938.666667
1352.806341	8913.333333
1353.946111	8935.000000
1355.085446	8909.666667
1356.224346	8837.000000
1357.362810	8758.000000
1358.500840	8827.000000
1359.638434	8852.333333
1360.775594	8844.333333
1361.912320	8794.000000
1363.048612	8748.000000
1364.184469	8797.333333
1365.319893	8732.000000
1366.454884	8663.000000
1367.589441	8731.000000
1368.723566	8752.000000
1369.857257	8693.333333
1370.990516	8764.000000
1372.123343	8720.333333
1373.255737	8743.666667
1374.387699	8829.333333
1375.519230	8825.333333
1376.650329	8715.333333
1377.780997	8835.000000
1378.911234	8724.000000
1380.041040	8766.333333
1381.170416	8773.000000
1382.299361	8860.333333
1383.427875	8733.000000
1384.555960	8724.666667
1385.683615	8733.333333
1386.810841	8734.333333
1387.937637	8674.000000
1389.064004	8678.666667
1390.189942	8708.666667
1391.315451	8668.333333
1392.440532	8595.666667
1393.565185	8603.333333
1394.689409	8592.000000
1395.813206	8519.666667
1396.936575	8626.000000
1398.059517	8597.333333
1399.182032	8569.333333
1400.304119	8517.000000
1401.425780	8448.333333
1402.547014	8533.000000
1403.667822	8486.000000
1404.788204	8553.666667
1405.908160	8507.000000
1407.027690	8551.000000
1408.146795	8460.333333
1409.265474	8488.000000
1410.383728	8490.666667
1411.501558	8504.333333
1412.618963	8467.000000
1413.735943	8519.333333
1414.852499	8518.666667
1415.968632	8408.333333
1417.084340	8493.666667
1418.199625	8489.000000
1419.314486	8527.333333
1420.428925	8519.000000
1421.542940	8540.666667
1422.656533	8513.666667
1423.769703	8476.000000
1424.882451	8437.000000
1425.994777	8418.333333
1427.106680	8430.333333
1428.218163	8396.333333
1429.329223	8358.666667
1430.439863	8363.333333
1431.550081	8311.000000
1432.659879	8312.000000
1433.769256	8344.000000
1434.878212	8338.666667
1435.986749	8334.333333
1437.094865	8238.333333
1438.202562	8277.666667
1439.309839	8303.000000
1440.416696	8306.333333
1441.523135	8330.000000
1442.629154	8366.000000
1443.734755	8405.000000
1444.839937	8356.000000
1445.944701	8381.000000
1447.049047	8446.333333
1448.152975	8462.333333
1449.256485	8403.333333
1450.359577	8431.000000
1451.462253	8390.666667
1452.564511	8362.000000
1453.666352	8447.333333
1454.767777	8348.000000
1455.868785	8280.000000
1456.969377	8345.333333
1458.069553	8328.666667
1459.169313	8207.000000
1460.268658	8244.666667
1461.367587	8169.000000
1462.466101	8168.000000
1463.564200	8183.000000
1464.661884	8069.333333
1465.759153	8089.000000
1466.856008	7996.666667
1467.952449	7973.333333
1469.048476	7922.333333
1470.144089	7848.333333
1471.239288	7822.333333
1472.334074	7832.666667
1473.428447	7689.333333
1474.522407	7632.333333
1475.615955	7684.000000
1476.709089	7684.000000
1477.801812	7654.000000
1478.894122	7628.333333
1479.986020	7577.666667
1481.077506	7586.666667
1482.168581	7508.000000
1483.259245	7538.666667
1484.349498	7556.000000
1485.439339	7515.666667
1486.528770	7441.000000
1487.617790	7461.666667
1488.706400	7457.000000
1489.794600	7503.666667
1490.882390	7487.000000
1491.969771	7515.000000
1493.056742	7423.000000
1494.143303	7382.666667
1495.229456	7446.666667
1496.315199	7358.333333
1497.400534	7385.666667
1498.485460	7338.666667
1499.569978	7304.333333
1500.654088	7326.666667
1501.737790	7303.666667
1502.821085	7254.333333
1503.903972	7393.000000
1504.986451	7207.666667
1506.068524	7267.666667
1507.150189	7242.666667
1508.231448	7173.666667
1509.312301	7169.333333
1510.392747	7073.333333
1511.472787	7048.666667
1512.552422	7068.333333
1513.631650	7085.333333
1514.710473	7054.333333
1515.788891	7089.333333
1516.866904	7039.333333
1517.944512	7028.000000
1519.021715	7082.000000
1520.098513	7018.666667
1521.174908	7029.666667
1522.250898	7002.666667
1523.326485	7015.333333
1524.401667	7051.000000
1525.476447	7034.333333
1526.550823	6991.333333
1527.624796	7030.333333
1528.698365	6982.000000
1529.771533	6926.666667
1530.844298	7010.666667
1531.916660	6966.666667
1532.988620	6941.000000
1534.060179	6916.666667
1535.131336	6978.666667
1536.202091	7000.000000
1537.272445	6951.333333
1538.342398	6878.000000
1539.411950	6795.000000
1540.481101	6835.000000
1541.549851	6834.000000
1542.618202	6801.333333
1543.686152	6763.333333
1544.753702	6762.666667
1545.820853	6724.666667
1546.887604	6737.000000
1547.953955	6638.333333
1549.019908	6731.666667
1550.085461	6705.333333
1551.150616	6701.000000
1552.215372	6766.000000
1553.279730	6768.000000
1554.343690	6705.666667
1555.407252	6682.333333
1556.470415	6586.000000
1557.533182	6692.666667
1558.595551	6595.000000
1559.657522	6733.666667
1560.719097	6600.000000
1561.780275	6615.666667
1562.841056	6649.333333
1563.901441	6644.333333
1564.961429	6556.666667
1566.021022	6607.333333
1567.080219	6631.666667
1568.139020	6603.666667
1569.197425	6599.000000
1570.255436	6542.333333
1571.313051	6588.000000
1572.370271	6557.666667
1573.427097	6547.000000
1574.483528	6552.666667
1575.539565	6478.000000
1576.595208	6496.666667
1577.650457	6437.000000
1578.705312	6362.000000
1579.759774	6394.000000
1580.813842	6382.666667
1581.867517	6341.666667
1582.920799	6385.000000
1583.973689	6373.000000
1585.026186	6370.000000
1586.078290	6348.666667
1587.130002	6309.333333
1588.181323	6234.666667
1589.232251	6255.000000
1590.282788	6243.666667
1591.332933	6275.000000
1592.382688	6203.333333
1593.432051	6252.333333
1594.481023	6233.333333
1595.529605	6213.333333
1596.577796	6192.000000
1597.625597	6237.000000
1598.673007	6252.333333
1599.720028	6231.333333
1600.766660	6289.333333
1601.812901	6220.333333
1602.858753	6232.333333
1603.904217	6274.666667
1604.949291	6216.000000
1605.993976	6262.333333
1607.038273	6196.000000
1608.082182	6259.333333
1609.125702	6201.666667
1610.168834	6203.333333
1611.211579	6149.000000
1612.253935	6128.333333
1613.295905	6117.333333
1614.337487	6154.000000
1615.378682	6099.333333
1616.419490	6141.666667
1617.459912	6057.000000
1618.499946	6024.000000
1619.539595	6079.666667
1620.578858	6095.666667
1621.617734	5976.000000
1622.656225	6023.666667
1623.694330	6025.333333
1624.732050	5975.666667
1625.769385	5946.666667
1626.806334	5944.000000
1627.842899	5957.000000
1628.879079	5912.666667
1629.914875	5979.000000
1630.950286	5995.666667
1631.985314	5983.666667
1633.019957	6020.666667
1634.054217	5965.666667
1635.088093	6009.000000
1636.121586	5921.333333
1637.154696	5985.333333
1638.187423	5935.333333
1639.219767	5967.000000
1640.251728	5920.666667
1641.283307	5966.000000
1642.314504	5916.000000
1643.345319	5931.333333
1644.375751	5957.333333
1645.405803	5936.000000
1646.435472	5842.666667
1647.464761	5909.000000
1648.493668	5831.666667
1649.522194	5885.333333
1650.550340	5908.333333
1651.578105	5821.000000
1652.605490	5844.000000
1653.632494	5833.333333
1654.659119	5836.000000
1655.685363	5821.333333
1656.711228	5830.333333
1657.736714	5751.000000
1658.761820	5754.333333
1659.786547	5744.000000
1660.810895	5719.000000
1661.834865	5663.000000
1662.858456	5711.333333
1663.881668	5685.333333
1664.904503	5688.000000
1665.926959	5584.333333
1666.949038	5577.333333
1667.970739	5629.000000
1668.992062	5555.000000
1670.013008	5486.333333
1671.033577	5586.333333
1672.053770	5512.666667
1673.073585	5538.333333
1674.093024	5560.666667
1675.112086	5532.000000
1676.130773	5482.666667
1677.149083	5488.333333
1678.167017	5444.000000
1679.184576	5416.000000
1680.201760	5480.000000
1681.218568	5491.000000
1682.235001	5399.000000
1683.251059	5413.000000
1684.266742	5399.333333
1685.282051	5371.666667
1686.296985	5405.000000
1687.311546	5399.000000
1688.325732	5330.666667
1689.339544	5349.000000
1690.352983	5256.666667
1691.366048	5253.666667
1692.378740	5265.000000
1693.391058	5185.333333
1694.403004	5185.000000
1695.414577	5097.333333
1696.425778	5142.666667
1697.436606	5091.333333
1698.447061	5092.000000
1699.457145	5032.666667
1700.466857	5025.000000
1701.476197	5003.000000
1702.485166	4977.666667
1703.493763	4946.000000
1704.501989	4896.666667
1705.509844	4902.333333
1706.517328	4924.000000
1707.524442	4904.333333
1708.531185	4872.000000
1709.537558	4879.333333
1710.543561	4901.333333
1711.549194	4797.333333
1712.554457	4834.000000
1713.559351	4827.333333
1714.563875	4885.000000
1715.568030	4865.333333
1716.571816	4845.000000
1717.575233	4818.333333
1718.578282	4807.000000
1719.580962	4831.666667
1720.583273	4821.666667
1721.585217	4850.666667
1722.586792	4857.666667
1723.588000	4820.000000
1724.588840	4819.666667
1725.589312	4853.666667
1726.589418	4854.666667
1727.589156	4818.000000
1728.588527	4851.666667
1729.587532	4801.000000
1730.586170	4837.000000
1731.584441	4750.333333
1732.582346	4764.666667
1733.579886	4762.333333
1734.577059	4731.666667
1735.573867	4736.333333
1736.570309	4728.000000
1737.566386	4704.000000
1738.562097	4662.333333
1739.557444	4683.666667
1740.552426	4582.000000
1741.547043	4598.333333
1742.541295	4629.666667
1743.535184	4541.000000
1744.528708	4567.666667
1745.521868	4565.666667
1746.514664	4571.000000
1747.507097	4495.333333
1748.499166	4478.666667
1749.490873	4501.666667
1750.482216	4519.000000
1751.473196	4443.000000
1752.463813	4472.000000
1753.454068	4481.666667
1754.443960	4426.000000
1755.433490	4471.333333
1756.422658	4404.666667
1757.411464	4469.666667
1758.399908	4472.666667
1759.387991	4432.333333
1760.375713	4424.333333
1761.363073	4420.000000
1762.350072	4393.000000
1763.336711	4398.000000
1764.322988	4391.333333
1765.308905	4369.000000
1766.294462	4433.333333
1767.279659	4380.333333
1768.264496	4344.333333
1769.248972	4302.000000
1770.233089	4315.666667
1771.216847	4369.000000
1772.200245	4323.333333
1773.183284	4280.666667
1774.165965	4293.666667
1775.148286	4244.000000
1776.130249	4268.666667
1777.111853	4230.666667
1778.093099	4217.666667
1779.073987	4204.333333
1780.054517	4180.666667
1781.034689	4124.333333
1782.014503	4146.666667
1782.993960	4096.333333
1783.973060	4118.000000
1784.951802	4069.666667
1785.930188	4080.000000
1786.908217	4074.666667
1787.885889	4005.333333
1788.863205	4026.666667
1789.840164	4071.666667
1790.816768	3983.333333
1791.793015	3973.666667
1792.768907	3970.666667
1793.744443	4015.666667
1794.719624	3962.000000
1795.694449	3958.666667
1796.668919	3915.000000
1797.643035	3974.666667
1798.616795	3991.666667
1799.590201	3970.666667
1800.563253	3951.666667
1801.535950	3993.666667
1802.508294	3978.333333
1803.480283	3921.000000
1804.451919	3950.666667
1805.423201	3970.333333
1806.394129	3986.333333
1807.364705	3951.666667
1808.334927	3973.666667
1809.304796	3946.000000
1810.274313	3973.000000
1811.243477	3923.666667
1812.212288	3967.000000
1813.180747	3938.333333
1814.148855	3950.333333
1815.116610	3916.666667
1816.084013	3892.000000
1817.051065	3910.666667
1818.017766	3870.666667
1818.984115	3896.333333
1819.950113	3842.666667
1820.915760	3905.000000
1821.881057	3836.333333
1822.846003	3870.333333
1823.810598	3807.666667
1824.774843	3819.666667
1825.738738	3835.333333
1826.702283	3827.333333
1827.665479	3783.333333
1828.628324	3737.666667
1829.590821	3750.333333
1830.552968	3765.000000
1831.514765	3719.666667
1832.476214	3719.000000
1833.437314	3718.666667
1834.398066	3776.000000
1835.358469	3634.000000
1836.318524	3722.666667
1837.278230	3679.333333
1838.237589	3728.333333
1839.196600	3690.000000
1840.155263	3698.000000
1841.113578	3638.666667
1842.071547	3709.333333
1843.029168	3697.333333
1843.986442	3762.666667
1844.943369	3675.333333
1845.899950	3711.000000
1846.856184	3671.333333
1847.812072	3746.666667
1848.767614	3705.000000
1849.722809	3700.666667
1850.677659	3671.000000
1851.632163	3677.000000
1852.586322	3691.666667
1853.540135	3714.333333
1854.493603	3671.333333
1855.446726	3709.666667
1856.399504	3626.000000
1857.351937	3644.666667
1858.304026	3653.333333
1859.255770	3625.333333
1860.207170	3611.333333
1861.158227	3566.666667
1862.108939	3564.666667
1863.059307	3562.666667
1864.009332	3550.333333
1864.959013	3589.666667
1865.908351	3509.000000
1866.857346	3490.666667
1867.805998	3504.000000
1868.754307	3474.333333
1869.702274	3460.333333
1870.649898	3446.000000
1871.597180	3466.666667
1872.544119	3420.000000
1873.490717	3408.000000
1874.436973	3407.000000
1875.382887	3381.000000
1876.328459	3415.333333
1877.273691	3392.666667
1878.218581	3407.666667
1879.163130	3388.333333
1880.107338	3382.333333
1881.051205	3381.333333
1881.994732	3381.666667
1882.937919	3391.000000
1883.880765	3378.666667
1884.823271	3365.666667
1885.765437	3409.000000
1886.707264	3383.000000
1887.648750	3408.333333
1888.589898	3345.000000
1889.530706	3391.666667
1890.471175	3365.666667
1891.411305	3348.000000
1892.351096	3429.666667
1893.290548	3385.000000
1894.229662	3356.666667
1895.168438	3341.000000
1896.106876	3278.666667
1897.044975	3344.000000
1897.982737	3354.000000
1898.920160	3311.000000
1899.857247	3360.666667
1900.793996	3294.333333
1901.730407	3284.000000
1902.666482	3304.333333
1903.602219	3282.333333
1904.537620	3269.333333
1905.472685	3226.333333
1906.407412	3240.333333
1907.341804	3270.333333
1908.275859	3207.000000
1909.209579	3166.000000
1910.142962	3162.666667
1911.076010	3175.000000
1912.008722	3124.000000
1912.941099	3170.666667
1913.873141	3136.000000
1914.804848	3110.333333
1915.736219	3089.000000
1916.667256	3076.666667
1917.597959	3033.666667
1918.528327	3070.666667
1919.458360	3096.000000
1920.388060	3080.000000
1921.317426	3069.000000
1922.246457	3056.333333
1923.175156	3059.666667
1924.103520	3058.000000
1925.031552	3016.333333
1925.959250	3062.000000
1926.886615	3042.000000
1927.813647	2995.666667
1928.740346	3065.000000
1929.666713	3028.666667
1930.592748	3077.666667
1931.518450	3088.666667
1932.443820	3050.666667
1933.368858	3058.666667
1934.293564	3054.666667
1935.217939	3039.333333
1936.141982	2999.000000
1937.065694	3003.000000
1937.989074	3042.333333
1938.912124	3001.333333
1939.834842	3031.666667
1940.757230	2976.666667
1941.679287	2967.000000
1942.601014	2997.000000
1943.522411	2965.666667
1944.443477	2913.000000
1945.364214	2957.666667
1946.284621	2953.666667
1947.204698	2908.000000
1948.124445	2884.666667
1949.043863	2891.666667
1949.962952	2823.666667
1950.881712	2845.666667
1951.800143	2887.666667
1952.718245	2854.000000
1953.636019	2831.666667
1954.553464	2812.000000
1955.470581	2816.333333
1956.387369	2779.000000
1957.303830	2809.666667
1958.219963	2840.000000
1959.135768	2789.000000
1960.051246	2785.333333
1960.966396	2771.000000
1961.881219	2778.666667
1962.795715	2820.666667
1963.709883	2791.000000
1964.623726	2824.666667
1965.537241	2822.000000
1966.450430	2815.333333
1967.363293	2787.666667
1968.275829	2804.000000
1969.188040	2794.666667
1970.099924	2853.666667
1971.011483	2832.666667
1971.922716	2824.333333
1972.833624	2765.000000
1973.744206	2799.666667
1974.654464	2814.000000
1975.564396	2802.666667
1976.474004	2830.333333
1977.383286	2778.000000
1978.292245	2780.333333
1979.200878	2780.666667
1980.109188	2748.666667
1981.017174	2777.666667
1981.924835	2806.333333
1982.832173	2756.666667
1983.739187	2750.000000
1984.645878	2741.000000
1985.552245	2747.333333
1986.458289	2709.666667
1987.364010	2699.000000
1988.269408	2712.333333
1989.174484	2645.333333
1990.079236	2648.666667
1990.983667	2650.333333
1991.887775	2632.333333
1992.791561	2639.000000
1993.695024	2620.333333
1994.598166	2616.333333
1995.500986	2603.333333
1996.403485	2585.000000
1997.305662	2621.000000
1998.207518	2603.333333
1999.109053	2619.000000
