200.151048	20631.000000
201.758777	20525.333333
203.365815	20604.666667
204.972162	20491.000000
206.577820	20583.333333
208.182787	20356.666667
209.787065	20458.666667
211.390653	20374.666667
212.993553	20338.666667
214.595765	20375.666667
216.197289	20338.000000
217.798125	20186.666667
219.398274	20121.000000
220.997737	20106.333333
222.596513	20080.000000
224.194603	19992.666667
225.792008	20167.333333
227.388728	20049.666667
228.984763	19972.666667
230.580114	19916.666667
232.174781	19957.666667
233.768765	19910.333333
235.362065	19944.333333
236.954683	19760.000000
238.546619	19661.000000
240.137872	19702.000000
241.728445	19783.666667
243.318336	19651.333333
244.907546	19833.333333
246.496076	19640.666667
248.083926	19554.666667
249.671097	19429.666667
251.257589	19343.000000
252.843402	19302.000000
254.428536	19397.666667
256.012993	19309.000000
257.596772	19220.666667
259.179874	19137.333333
260.762300	19116.000000
262.344049	19059.000000
263.925122	19129.000000
265.505519	19152.333333
267.085241	19162.666667
268.664289	19131.333333
270.242662	18875.666667
271.820361	19020.333333
273.397387	18926.000000
274.973740	19047.666667
276.549419	18975.666667
278.124426	18933.666667
279.698762	19016.333333
281.272425	18961.333333
282.845417	18996.333333
284.417739	19054.000000
285.989390	19047.000000
287.560371	19020.333333
289.130682	18945.666667
290.700324	18952.000000
292.269297	18975.333333
293.837602	18925.333333
295.405238	18964.333333
296.972207	18938.000000
298.538508	18850.333333
300.104142	18869.000000
301.669110	18892.000000
303.233411	18785.666667
304.797047	18719.333333
306.360017	18651.333333
307.922322	18568.333333
309.483963	18558.000000
311.044939	18469.333333
312.605252	18489.000000
314.164900	18425.000000
315.723886	18315.000000
317.282209	18267.000000
318.839870	18378.000000
320.396868	18122.000000
321.953205	18113.000000
323.508881	18199.000000
325.063896	18169.666667
326.618251	18028.666667
328.171945	18092.333333
329.724980	18123.666667
331.277356	17946.333333
332.829072	18016.000000
334.380131	17984.666667
335.930530	17953.000000
337.480273	18005.000000
339.029357	18005.000000
340.577785	17956.000000
342.125556	18051.666667
343.672671	17972.333333
345.219130	17826.000000
346.764933	17971.666667
348.310081	17935.333333
349.854575	17940.000000
351.398414	17869.333333
352.941599	17971.000000
354.484130	17826.333333
356.026008	17730.000000
357.567234	17831.666667
359.107807	17726.000000
360.647727	17702.333333
362.186996	17592.333333
363.725614	17702.000000
365.263580	17582.333333
366.800896	17589.000000
368.337562	17509.666667
369.873578	17490.666667
371.408944	17498.000000
372.943661	17374.333333
374.477730	17384.666667
376.011150	17570.000000
377.543922	17489.666667
379.076046	17530.333333
380.607523	17492.000000
382.138353	17463.666667
383.668537	17393.000000
385.198075	17452.666667
386.726966	17509.000000
388.255213	17462.666667
389.782814	17451.666667
391.309770	17555.333333
392.836083	17541.666667
394.361751	17512.000000
395.886776	17480.000000
397.411157	17705.666667
398.934896	17546.666667
400.457992	17607.000000
401.980446	17693.333333
403.502258	17536.333333
405.023429	17683.666667
406.543959	17646.000000
408.063849	17725.666667
409.583098	17819.333333
411.101707	17810.000000
412.619677	17872.000000
414.137007	17880.000000
415.653699	17987.000000
417.169752	18171.000000
418.685167	18334.666667
420.199945	18341.333333
421.714085	18555.333333
423.227588	18649.666667
424.740454	18865.333333
426.252684	18832.333333
427.764279	18916.666667
429.275238	18941.000000
430.785561	18815.000000
432.295250	18832.666667
433.804304	18619.666667
435.312725	18536.666667
436.820511	18226.333333
438.327664	18295.666667
439.834185	18123.666667
441.340072	18008.666667
442.845327	17988.333333
444.349951	17713.666667
445.853942	17869.000000
447.357303	17713.000000
448.860033	17711.666667
450.362132	17715.333333
451.863601	17468.666667
453.364440	17438.333333
454.864650	17282.333333
456.364231	17170.666667
457.863183	17061.666667
459.361507	16931.000000
460.859203	16895.000000
462.356271	16797.000000
463.852712	16622.666667
465.348526	16556.333333
466.843714	16521.000000
468.338275	16526.000000
469.832210	16476.666667
471.325520	16436.000000
472.818205	16260.000000
474.310265	16229.333333
475.801700	16143.000000
477.292512	16317.000000
478.782700	16076.333333
480.272264	16128.000000
481.761205	16176.333333
483.249524	16115.000000
484.737221	15934.666667
486.224295	15921.000000
487.710748	15942.333333
489.196579	15829.333333
490.681790	15870.000000
492.166380	15768.666667
493.650350	15893.333333
495.133700	15833.666667
496.616431	15745.000000
498.098542	15757.333333
499.580035	15827.000000
501.060909	15905.666667
502.541165	15909.000000
504.020804	15800.666667
505.499825	15740.333333
506.978228	15729.000000
508.456016	15750.000000
509.933186	15510.333333
511.409741	15375.333333
512.885680	15502.666667
514.361004	15488.666667
515.835713	15663.000000
517.309807	15572.000000
518.783287	15670.000000
520.256153	15646.000000
521.728406	15639.000000
523.200045	15584.000000
524.671071	15525.333333
526.141485	15568.000000
527.611287	15573.666667
529.080476	15602.333333
530.549054	15521.666667
532.017021	15599.666667
533.484378	15662.666667
534.951123	15569.666667
536.417259	15598.333333
537.882785	15509.000000
539.347701	15574.000000
540.812008	15403.333333
542.275707	15424.333333
543.738797	15427.000000
545.201279	15494.333333
546.663153	15490.666667
548.124420	15511.333333
549.585080	15650.000000
551.045133	15678.666667
552.504579	15698.333333
553.963420	15798.000000
555.421655	15733.666667
556.879285	15759.333333
558.336309	15752.000000
559.792729	15555.666667
561.248545	15735.333333
562.703756	15770.333333
564.158364	15801.000000
565.612369	15904.000000
567.065770	15899.333333
568.518569	16069.000000
569.970766	15964.000000
571.422361	15915.666667
572.873354	16043.333333
574.323745	16160.333333
575.773536	16264.666667
577.222726	16271.333333
578.671316	16348.333333
580.119306	16339.000000
581.566696	16053.333333
583.013487	16144.000000
584.459679	16052.333333
585.905273	16036.000000
587.350268	16030.666667
588.794665	15908.666667
590.238465	16005.000000
591.681667	15997.000000
593.124272	16040.000000
594.566281	15846.333333
596.007694	15666.333333
597.448510	15633.666667
598.888731	15587.000000
600.328357	15501.333333
601.767388	15444.333333
603.205824	15405.000000
604.643666	15505.000000
606.080914	15396.666667
607.517568	15260.000000
608.953629	15352.666667
610.389097	15342.000000
611.823972	15297.666667
613.258255	15331.666667
614.691946	15254.333333
616.125046	15245.000000
617.557554	15086.000000
618.989471	15040.333333
620.420798	14956.666667
621.851534	14851.333333
623.281680	14678.333333
624.711237	14619.333333
626.140204	14552.000000
627.568582	14441.333333
628.996372	14423.000000
630.423573	14372.666667
631.850186	14421.333333
633.276211	14397.000000
634.701650	14293.000000
636.126501	14356.000000
637.550765	14393.000000
638.974443	14357.666667
640.397535	14301.666667
641.820041	14443.333333
643.241961	14403.000000
644.663297	14315.666667
646.084048	14370.333333
647.504214	14328.000000
648.923796	14235.666667
650.342795	14178.666667
651.761210	14072.666667
653.179041	14055.000000
654.596290	14001.333333
656.012957	14027.333333
657.429041	13957.333333
658.844543	13981.666667
660.259464	13883.333333
661.673804	14097.000000
663.087563	14060.000000
664.500741	14046.000000
665.913339	13970.000000
667.325357	14192.333333
668.736795	13982.000000
670.147654	14149.666667
671.557934	13933.333333
672.967636	13834.333333
674.376759	13997.666667
675.785304	13730.000000
677.193271	13843.000000
678.600661	13911.666667
680.007474	13964.333333
681.413711	13946.000000
682.819370	13877.333333
684.224454	13863.333333
685.628962	13834.666667
687.032895	13855.333333
688.436252	13843.000000
689.839034	13876.000000
691.241242	13798.333333
692.642876	13780.666667
694.043936	13695.000000
695.444422	13637.000000
696.844336	13681.333333
698.243676	13690.333333
699.642443	13618.333333
701.040639	13790.000000
702.438262	13630.666667
703.835313	13729.333333
705.231794	13591.000000
706.627703	13594.333333
708.023041	13628.666667
709.417810	13627.666667
710.812008	13569.000000
712.205636	13527.333333
713.598694	13622.333333
714.991184	13494.666667
716.383105	13452.333333
717.774457	13575.666667
719.165241	13455.666667
720.555457	13479.333333
721.945105	13422.000000
723.334187	13578.000000
724.722701	13627.000000
726.110648	13567.666667
727.498030	13507.666667
728.884845	13526.666667
730.271094	13463.333333
731.656778	13312.333333
733.041897	13361.333333
734.426451	13414.666667
735.810441	13319.666667
737.193866	13337.000000
738.576728	13354.000000
739.959026	13308.666667
741.340760	13255.666667
742.721932	13424.666667
744.102541	13298.666667
745.482588	13345.666667
746.862073	13354.000000
748.240996	13296.666667
749.619358	13370.000000
750.997158	13293.333333
752.374398	13358.333333
753.751077	13389.000000
755.127197	13439.666667
756.502756	13316.333333
757.877756	13362.666667
759.252196	13368.333333
760.626078	13280.666667
761.999400	13286.000000
763.372165	13219.000000
764.744371	13115.666667
766.116020	13193.333333
767.487111	13220.333333
768.857646	13188.000000
770.227623	13107.666667
771.597044	13092.666667
772.965908	12989.333333
774.334217	13059.000000
775.701970	13039.000000
777.069168	12982.000000
778.435811	12949.666667
779.801899	12906.333333
781.167433	12965.666667
782.532412	12869.333333
783.896838	12939.333333
785.260710	12934.666667
786.624029	12885.333333
787.986796	12856.666667
789.349009	12815.666667
790.710671	12838.666667
792.071780	12883.333333
793.432338	12824.333333
794.792344	12835.000000
796.151799	12851.000000
797.510704	12839.000000
798.869058	12719.000000
800.226862	12662.666667
801.584116	12676.000000
802.940820	12673.666667
804.296975	12749.000000
805.652581	12802.333333
807.007638	12707.333333
808.362147	12778.000000
809.716108	12701.000000
811.069521	12837.333333
812.422387	12795.666667
813.774705	12774.333333
815.126476	12722.000000
816.477701	12751.666667
817.828380	12775.666667
819.178512	12680.666667
820.528099	12720.333333
821.877140	12692.666667
823.225637	12723.000000
824.573588	12651.333333
825.920995	12569.333333
827.267857	12596.333333
828.614176	12570.000000
829.959951	12557.000000
831.305183	12533.000000
832.649871	12566.000000
833.994017	12540.000000
835.337620	12498.000000
836.680681	12499.000000
838.023201	12536.666667
839.365178	12558.333333
840.706614	12657.333333
842.047510	12562.333333
843.387864	12584.666667
844.727678	12635.000000
846.066952	12684.666667
847.405687	12740.666667
848.743881	12714.000000
850.081537	12731.000000
851.418653	12773.333333
852.755231	12717.666667
854.091270	12793.666667
855.426771	12820.000000
856.761735	12623.333333
858.096160	12671.000000
859.430049	12671.333333
860.763401	12633.333333
862.096216	12612.333333
863.428495	12474.333333
864.760237	12532.666667
866.091444	12507.333333
867.422115	12480.333333
868.752252	12436.666667
870.081853	12488.333333
871.410919	12435.000000
872.739452	12504.666667
874.067450	12400.333333
875.394914	12375.000000
876.721845	12349.666667
878.048243	12282.666667
879.374108	12333.333333
880.699440	12214.000000
882.024240	12223.666667
883.348508	12204.333333
884.672244	12199.000000
885.995449	12172.666667
887.318122	12154.000000
888.640265	12100.000000
889.961877	11979.333333
891.282959	12030.333333
892.603510	12099.333333
893.923532	11996.000000
895.243024	11950.666667
896.561987	11941.000000
897.880422	11932.666667
899.198327	12038.333333
900.515705	11909.333333
901.832554	11913.666667
903.148875	11914.666667
904.464669	11868.000000
905.779936	11878.333333
907.094676	12006.333333
908.408889	11907.666667
909.722576	11883.666667
911.035737	12011.333333
912.348371	12090.333333
913.660481	12114.000000
914.972065	12217.000000
916.283124	12124.333333
917.593659	12209.333333
918.903669	12198.000000
920.213155	12115.666667
921.522117	12112.000000
922.830556	12137.333333
924.138471	12181.666667
925.445864	12243.666667
926.752733	12173.000000
928.059081	12177.000000
929.364906	12212.333333
930.670209	12257.333333
931.974991	12285.666667
933.279251	12289.000000
934.582990	12410.000000
935.886209	12481.666667
937.188907	12687.666667
938.491085	12880.333333
939.792743	12916.000000
941.093881	13045.333333
942.394500	13335.666667
943.694600	13455.000000
944.994181	13841.000000
946.293243	14052.666667
947.591787	14535.333333
948.889813	14974.666667
950.187322	15550.666667
951.484313	16170.666667
952.780787	16901.666667
954.076744	17796.333333
955.372184	18422.333333
956.667108	18871.000000
957.961516	19263.000000
959.255409	19269.000000
960.548785	19106.666667
961.841647	18453.333333
963.133993	17670.000000
964.425825	16771.666667
965.717142	15832.666667
967.007946	15184.666667
968.298235	14259.333333
969.588011	13712.333333
970.877273	13058.333333
972.166023	12627.666667
973.454259	12308.666667
974.741984	12156.000000
976.029196	11874.333333
977.315895	11702.666667
978.602084	11576.666667
979.887761	11460.333333
981.172926	11245.666667
982.457581	11381.333333
983.741725	11281.333333
985.025359	11134.333333
986.308483	11172.333333
987.591097	11171.666667
988.873202	11099.000000
990.154797	11035.333333
991.435883	10993.333333
992.716461	11002.666667
993.996530	10962.666667
995.276091	11060.666667
996.555144	11104.000000
997.833690	11120.333333
999.111728	11037.000000
1000.389259	11137.000000
1001.666283	11208.000000
1002.942800	11202.333333
1004.218812	11181.666667
1005.494317	11126.333333
1006.769317	11107.333333
1008.043811	11117.666667
1009.317799	11017.666667
1010.591283	11082.000000
1011.864263	11028.333333
1013.136737	11137.666667
1014.408708	11109.333333
1015.680175	11087.000000
1016.951138	11020.000000
1018.221598	11134.666667
1019.491554	11068.666667
1020.761008	11022.333333
1022.029959	11160.666667
1023.298408	11171.333333
1024.566355	11089.333333
1025.833800	11079.666667
1027.100744	11043.333333
1028.367187	11080.666667
1029.633128	11040.000000
1030.898569	11044.333333
1032.163509	11071.000000
1033.427949	11065.666667
1034.691890	11078.000000
1035.955330	11097.333333
1037.218271	11056.666667
1038.480714	11186.000000
1039.742657	11174.333333
1041.004101	11222.000000
1042.265048	11316.333333
1043.525496	11288.333333
1044.785446	11235.666667
1046.044899	11183.000000
1047.303855	11204.000000
1048.562313	11166.000000
1049.820275	11221.333333
1051.077740	11041.666667
1052.334709	11008.333333
1053.591182	11009.666667
1054.847160	11051.000000
1056.102641	11099.333333
1057.357628	11085.000000
1058.612120	11047.666667
1059.866117	11152.000000
1061.119619	11227.666667
1062.372628	11240.000000
1063.625142	11315.000000
1064.877163	11324.333333
1066.128691	11406.000000
1067.379725	11322.000000
1068.630267	11354.000000
1069.880316	11375.333333
1071.129872	11301.333333
1072.378937	11246.333333
1073.627509	11127.666667
1074.875590	11106.333333
1076.123180	11018.000000
1077.370279	10880.333333
1078.616887	10855.333333
1079.863004	10783.333333
1081.108631	10624.000000
1082.353768	10466.000000
1083.598415	10531.666667
1084.842573	10379.333333
1086.086241	10363.333333
1087.329421	10203.000000
1088.572111	10225.000000
1089.814314	10158.666667
1091.056028	10195.666667
1092.297253	10227.666667
1093.537992	10089.333333
1094.778242	10153.000000
1096.018006	10011.666667
1097.257282	10103.000000
1098.496072	10012.333333
1099.734376	10038.000000
1100.972193	10010.666667
1102.209524	9984.000000
1103.446370	9958.333333
1104.682730	9900.333333
1105.918604	9894.000000
1107.153994	9877.000000
1108.388900	9764.666667
1109.623320	9784.333333
1110.857257	9681.333333
1112.090710	9708.666667
1113.323679	9658.666667
1114.556164	9654.666667
1115.788167	9609.333333
1117.019686	9524.000000
1118.250723	9605.333333
1119.481278	9616.666667
1120.711350	9550.000000
1121.940940	9535.333333
1123.170049	9568.666667
1124.398676	9482.666667
1125.626823	9500.000000
1126.854488	9507.666667
1128.081672	9425.666667
1129.308376	9412.333333
1130.534600	9489.333333
1131.760345	9439.000000
1132.985609	9387.333333
1134.210394	9351.000000
1135.434700	9329.000000
1136.658527	9346.333333
1137.881875	9360.666667
1139.104745	9396.666667
1140.327136	9305.333333
1141.549050	9279.000000
1142.770486	9344.333333
1143.991445	9257.333333
1145.211926	9186.333333
1146.431931	9306.666667
1147.651459	9356.000000
1148.870510	9244.333333
1150.089086	9237.666667
1151.307185	9219.666667
1152.524808	9284.333333
1153.741957	9234.666667
1154.958630	9279.333333
1156.174828	9281.000000
1157.390551	9269.333333
1158.605800	9265.000000
1159.820574	9225.000000
1161.034875	9287.666667
1162.248702	9218.000000
1163.462055	9198.666667
1164.674936	9253.666667
1165.887343	9206.666667
1167.099277	9207.000000
1168.310739	9147.666667
1169.521729	9138.666667
1170.732247	9281.333333
1171.942293	9240.666667
1173.151867	9147.666667
1174.360970	9149.333333
1175.569602	9199.666667
1176.777764	9079.333333
1177.985454	9132.333333
1179.192675	9090.000000
1180.399425	8971.333333
1181.605706	8925.333333
1182.811517	9032.000000
1184.016859	8898.333333
1185.221731	8986.333333
1186.426135	8872.666667
1187.630070	8910.333333
1188.833537	8847.666667
1190.036535	8856.000000
1191.239066	8818.000000
1192.441129	8815.000000
1193.642725	8751.000000
1194.843853	8784.333333
1196.044515	8772.000000
1197.244710	8756.000000
1198.444438	8822.666667
1199.643701	8854.333333
1200.842497	8854.333333
1202.040827	8887.666667
1203.238693	8796.666667
1204.436092	8826.333333
1205.633027	8795.333333
1206.829497	8790.666667
1208.025503	8768.333333
1209.221044	8684.666667
1210.416122	8804.000000
1211.610735	8674.333333
1212.804885	8702.333333
1213.998572	8682.000000
1215.191795	8692.333333
1216.384556	8582.666667
1217.576854	8564.666667
1218.768689	8519.666667
1219.960063	8514.000000
1221.150974	8587.000000
1222.341424	8586.333333
1223.531413	8559.333333
1224.720940	8609.333333
1225.910006	8626.333333
1227.098612	8610.666667
1228.286757	8686.000000
1229.474442	8694.666667
1230.661667	8710.000000
1231.848432	8725.333333
1233.034738	8808.333333
1234.220584	8807.333333
1235.405971	8818.666667
1236.590900	8865.666667
1237.775369	8867.000000
1238.959381	8832.666667
1240.142934	8851.000000
1241.326029	8915.333333
1242.508667	8843.666667
1243.690848	8986.666667
1244.872571	8870.666667
1246.053837	8921.000000
1247.234646	8822.000000
1248.414999	8826.333333
1249.594896	8851.666667
1250.774337	8831.666667
1251.953322	8719.666667
1253.131851	8783.000000
1254.309925	8748.666667
1255.487544	8764.000000
1256.664708	8663.666667
1257.841417	8711.000000
1259.017673	8693.000000
1260.193473	8682.333333
1261.368820	8675.333333
1262.543714	8695.333333
1263.718154	8729.333333
1264.892140	8802.666667
1266.065674	8677.333333
1267.238755	8794.666667
1268.411383	8719.333333
1269.583559	8656.000000
1270.755283	8670.333333
1271.926555	8698.000000
1273.097375	8665.666667
1274.267744	8668.333333
1275.437662	8621.666667
1276.607129	8661.000000
1277.776145	8604.333333
1278.944711	8521.000000
1280.112827	8556.333333
1281.280492	8547.000000
1282.447708	8477.000000
1283.614474	8466.666667
1284.780791	8420.333333
1285.946659	8390.000000
1287.112078	8432.000000
1288.277048	8313.000000
1289.441570	8332.666667
1290.605644	8240.666667
1291.769270	8222.333333
1292.932448	8308.666667
1294.095178	8214.333333
1295.257461	8233.666667
1296.419298	8153.000000
1297.580687	8237.333333
1298.741630	8128.000000
1299.902126	8111.000000
1301.062177	8150.000000
1302.221781	8092.333333
1303.380940	8103.000000
1304.539653	8076.000000
1305.697921	8018.666667
1306.855744	8195.333333
1308.013123	8095.333333
1309.170056	8126.000000
1310.326546	8081.666667
1311.482591	8097.333333
1312.638193	8016.000000
1313.793350	8108.000000
1314.948065	8034.666667
1316.102336	8071.333333
1317.256164	8082.000000
1318.409550	8029.333333
1319.562493	7991.666667
1320.714993	7948.333333
1321.867052	7897.333333
1323.018668	7916.333333
1324.169843	7942.000000
1325.320577	7876.666667
1326.470870	7856.666667
1327.620721	7785.333333
1328.770132	7771.000000
1329.919102	7818.666667
1331.067632	7745.000000
1332.215722	7769.000000
1333.363372	7709.000000
1334.510582	7779.666667
1335.657353	7737.666667
1336.803685	7758.666667
1337.949578	7846.000000
1339.095032	7785.000000
1340.240048	7778.000000
1341.384625	7750.666667
1342.528764	7787.000000
1343.672466	7758.000000
1344.815729	7699.000000
1345.958556	7700.333333
1347.100945	7738.333333
1348.242897	7635.000000
1349.384413	7655.000000
1350.525492	7595.666667
1351.666134	7587.666667
1352.806341	7588.333333
1353.946111	7623.000000
1355.085446	7555.333333
1356.224346	7525.000000
1357.362810	7544.000000
1358.500840	7466.000000
1359.638434	7492.666667
1360.775594	7469.666667
1361.912320	7460.666667
1363.048612	7497.000000
1364.184469	7381.666667
1365.319893	7442.666667
1366.454884	7440.333333
1367.589441	7425.666667
1368.723566	7455.666667
1369.857257	7471.333333
1370.990516	7440.000000
1372.123343	7424.666667
1373.255737	7442.000000
1374.387699	7480.000000
1375.519230	7489.333333
1376.650329	7391.333333
1377.780997	7532.000000
1378.911234	7494.000000
1380.041040	7458.000000
1381.170416	7424.333333
1382.299361	7448.333333
1383.427875	7381.333333
1384.555960	7421.333333
1385.683615	7397.333333
1386.810841	7440.666667
1387.937637	7395.333333
1389.064004	7375.666667
1390.189942	7395.333333
1391.315451	7346.666667
1392.440532	7412.000000
1393.565185	7375.000000
1394.689409	7393.666667
1395.813206	7380.666667
1396.936575	7289.666667
1398.059517	7245.666667
1399.182032	7262.666667
1400.304119	7284.333333
1401.425780	7296.666667
1402.547014	7283.666667
1403.667822	7289.666667
1404.788204	7221.666667
1405.908160	7293.666667
1407.027690	7202.333333
1408.146795	7276.666667
1409.265474	7319.666667
1410.383728	7247.333333
1411.501558	7207.000000
1412.618963	7219.000000
1413.735943	7259.666667
1414.852499	7254.333333
1415.968632	7250.333333
1417.084340	7306.333333
1418.199625	7271.000000
1419.314486	7294.333333
1420.428925	7294.666667
1421.542940	7298.000000
1422.656533	7313.000000
1423.769703	7272.000000
1424.882451	7218.333333
1425.994777	7208.333333
1427.106680	7158.333333
1428.218163	7269.000000
1429.329223	7171.333333
1430.439863	7126.000000
1431.550081	7103.333333
1432.659879	7163.333333
1433.769256	7100.333333
1434.878212	7107.666667
1435.986749	7098.333333
1437.094865	7142.333333
1438.202562	7106.666667
1439.309839	7076.000000
1440.416696	7136.333333
1441.523135	7136.333333
1442.629154	7170.333333
1443.734755	7208.333333
1444.839937	7253.000000
1445.944701	7321.666667
1447.049047	7225.000000
1448.152975	7285.666667
1449.256485	7271.333333
1450.359577	7339.000000
1451.462253	7233.000000
1452.564511	7264.000000
1453.666352	7250.000000
1454.767777	7181.333333
1455.868785	7278.000000
1456.969377	7258.666667
1458.069553	7226.000000
1459.169313	7178.333333
1460.268658	7055.666667
1461.367587	7058.333333
1462.466101	7019.000000
1463.564200	6987.666667
1464.661884	6982.333333
1465.759153	6894.666667
1466.856008	6960.666667
1467.952449	6800.333333
1469.048476	6851.666667
1470.144089	6687.000000
1471.239288	6653.333333
1472.334074	6653.000000
1473.428447	6601.333333
1474.522407	6599.000000
1475.615955	6503.000000
1476.709089	6521.666667
1477.801812	6506.000000
1478.894122	6516.000000
1479.986020	6477.666667
1481.077506	6428.333333
1482.168581	6428.000000
1483.259245	6390.000000
1484.349498	6351.666667
1485.439339	6402.666667
1486.528770	6415.000000
1487.617790	6368.333333
1488.706400	6369.333333
1489.794600	6392.666667
1490.882390	6339.666667
1491.969771	6269.333333
1493.056742	6348.666667
1494.143303	6324.666667
1495.229456	6303.333333
1496.315199	6295.666667
1497.400534	6211.000000
1498.485460	6249.666667
1499.569978	6254.666667
1500.654088	6203.666667
1501.737790	6234.333333
1502.821085	6189.000000
1503.903972	6204.666667
1504.986451	6147.000000
1506.068524	6118.000000
1507.150189	6139.000000
1508.231448	6100.000000
1509.312301	6136.000000
1510.392747	6109.000000
1511.472787	6106.000000
1512.552422	5986.000000
1513.631650	5944.000000
1514.710473	6003.666667
1515.788891	6047.333333
1516.866904	6010.000000
1517.944512	6005.666667
1519.021715	6038.666667
1520.098513	6014.000000
1521.174908	6020.333333
1522.250898	6006.666667
1523.326485	5974.000000
1524.401667	5958.666667
1525.476447	6021.000000
1526.550823	6006.000000
1527.624796	6032.000000
1528.698365	6020.666667
1529.771533	6075.000000
1530.844298	5961.000000
1531.916660	5950.333333
1532.988620	5994.666667
1534.060179	5953.333333
1535.131336	5940.333333
1536.202091	5912.333333
1537.272445	5940.666667
1538.342398	5893.333333
1539.411950	5889.333333
1540.481101	5830.000000
1541.549851	5868.666667
1542.618202	5804.666667
1543.686152	5785.333333
1544.753702	5798.333333
1545.820853	5779.666667
1546.887604	5819.000000
1547.953955	5770.000000
1549.019908	5729.666667
1550.085461	5793.000000
1551.150616	5729.000000
1552.215372	5731.666667
1553.279730	5728.666667
1554.343690	5732.000000
1555.407252	5692.666667
1556.470415	5670.666667
1557.533182	5720.000000
1558.595551	5646.333333
1559.657522	5684.000000
1560.719097	5613.333333
1561.780275	5682.000000
1562.841056	5682.000000
1563.901441	5683.333333
1564.961429	5644.333333
1566.021022	5584.000000
1567.080219	5602.666667
1568.139020	5599.333333
1569.197425	5594.000000
1570.255436	5568.333333
1571.313051	5581.000000
1572.370271	5574.333333
1573.427097	5575.000000
1574.483528	5561.000000
1575.539565	5598.000000
1576.595208	5545.333333
1577.650457	5558.333333
1578.705312	5490.333333
1579.759774	5539.333333
1580.813842	5458.333333
1581.867517	5372.000000
1582.920799	5453.000000
1583.973689	5392.000000
1585.026186	5447.000000
1586.078290	5448.000000
1587.130002	5449.000000
1588.181323	5432.666667
1589.232251	5426.333333
1590.282788	5388.000000
1591.332933	5377.000000
1592.382688	5362.666667
1593.432051	5330.000000
1594.481023	5330.000000
1595.529605	5365.000000
1596.577796	5384.333333
1597.625597	5355.333333
1598.673007	5412.333333
1599.720028	5466.666667
1600.766660	5375.000000
1601.812901	5403.333333
1602.858753	5423.333333
1603.904217	5418.000000
1604.949291	5415.666667
1605.993976	5421.666667
1607.038273	5421.333333
1608.082182	5420.666667
1609.125702	5480.666667
1610.168834	5368.333333
1611.211579	5335.000000
1612.253935	5258.333333
1613.295905	5256.666667
1614.337487	5252.333333
1615.378682	5225.000000
1616.419490	5227.333333
1617.459912	5268.000000
1618.499946	5310.666667
1619.539595	5297.000000
1620.578858	5297.333333
1621.617734	5311.666667
1622.656225	5290.666667
1623.694330	5362.333333
1624.732050	5306.000000
1625.769385	5218.333333
1626.806334	5242.000000
1627.842899	5179.333333
1628.879079	5158.000000
1629.914875	5174.333333
1630.950286	5221.333333
1631.985314	5254.333333
1633.019957	5241.666667
1634.054217	5242.666667
1635.088093	5243.000000
1636.121586	5253.000000
1637.154696	5250.666667
1638.187423	5240.000000
1639.219767	5251.333333
1640.251728	5243.000000
1641.283307	5284.333333
1642.314504	5272.000000
1643.345319	5259.000000
1644.375751	5200.333333
1645.405803	5283.666667
1646.435472	5220.333333
1647.464761	5232.333333
1648.493668	5275.000000
1649.522194	5218.666667
1650.550340	5241.333333
1651.578105	5279.333333
1652.605490	5208.000000
1653.632494	5151.333333
1654.659119	5136.333333
1655.685363	5173.333333
1656.711228	5155.333333
1657.736714	5158.666667
1658.761820	5113.666667
1659.786547	5138.000000
1660.810895	5142.000000
1661.834865	5088.666667
1662.858456	5154.666667
1663.881668	5080.000000
1664.904503	5130.000000
1665.926959	5042.000000
1666.949038	5160.000000
1667.970739	5047.666667
1668.992062	5081.333333
1670.013008	5082.666667
1671.033577	5042.666667
1672.053770	5001.000000
1673.073585	4993.666667
1674.093024	5036.666667
1675.112086	4992.000000
1676.130773	4985.333333
1677.149083	4953.333333
1678.167017	4969.000000
1679.184576	4877.666667
1680.201760	4906.333333
1681.218568	4877.000000
1682.235001	4945.333333
1683.251059	4920.000000
1684.266742	4890.000000
1685.282051	4897.000000
1686.296985	4855.000000
1687.311546	4878.000000
1688.325732	4822.000000
1689.339544	4796.333333
1690.352983	4787.666667
1691.366048	4711.000000
1692.378740	4693.333333
1693.391058	4699.333333
1694.403004	4712.333333
1695.414577	4696.000000
1696.425778	4589.000000
1697.436606	4579.333333
1698.447061	4597.000000
1699.457145	4546.333333
1700.466857	4519.666667
1701.476197	4481.333333
1702.485166	4479.666667
1703.493763	4420.333333
1704.501989	4429.333333
1705.509844	4388.666667
1706.517328	4355.000000
1707.524442	4411.666667
1708.531185	4381.666667
1709.537558	4325.666667
1710.543561	4324.333333
1711.549194	4328.666667
1712.554457	4277.666667
1713.559351	4301.000000
1714.563875	4257.000000
1715.568030	4301.333333
1716.571816	4377.000000
1717.575233	4328.333333
1718.578282	4318.000000
1719.580962	4390.000000
1720.583273	4401.333333
1721.585217	4438.333333
1722.586792	4353.666667
1723.588000	4381.666667
1724.588840	4313.000000
1725.589312	4367.000000
1726.589418	4376.000000
1727.589156	4337.333333
1728.588527	4340.000000
1729.587532	4370.000000
1730.586170	4358.333333
1731.584441	4415.333333
1732.582346	4304.000000
1733.579886	4274.000000
1734.577059	4250.000000
1735.573867	4297.000000
1736.570309	4271.666667
1737.566386	4229.666667
1738.562097	4257.666667
1739.557444	4260.333333
1740.552426	4222.000000
1741.547043	4192.666667
1742.541295	4165.000000
1743.535184	4188.666667
1744.528708	4184.333333
1745.521868	4133.666667
1746.514664	4101.333333
1747.507097	4120.000000
1748.499166	4083.666667
1749.490873	4096.000000
1750.482216	4114.333333
1751.473196	4096.000000
1752.463813	4102.666667
1753.454068	4102.000000
1754.443960	4104.666667
1755.433490	4063.000000
1756.422658	4073.666667
1757.411464	4003.666667
1758.399908	4063.333333
1759.387991	4033.333333
1760.375713	4082.000000
1761.363073	4109.000000
1762.350072	4058.000000
1763.336711	4059.000000
1764.322988	4033.333333
1765.308905	4034.666667
1766.294462	4063.333333
1767.279659	4070.333333
1768.264496	3988.000000
1769.248972	3970.666667
1770.233089	3951.666667
1771.216847	3952.000000
1772.200245	3944.666667
1773.183284	3902.000000
1774.165965	3958.000000
1775.148286	3963.000000
1776.130249	3952.000000
1777.111853	3909.666667
1778.093099	3954.000000
1779.073987	3901.666667
1780.054517	3837.666667
1781.034689	3867.333333
1782.014503	3789.333333
1782.993960	3796.333333
1783.973060	3731.666667
1784.951802	3730.000000
1785.930188	3702.666667
1786.908217	3668.000000
1787.885889	3648.333333
1788.863205	3684.000000
1789.840164	3752.333333
1790.816768	3618.000000
1791.793015	3633.333333
1792.768907	3718.666667
1793.744443	3639.666667
1794.719624	3602.666667
1795.694449	3711.000000
1796.668919	3708.000000
1797.643035	3708.000000
1798.616795	3669.333333
1799.590201	3684.666667
1800.563253	3657.666667
1801.535950	3675.666667
1802.508294	3720.000000
1803.480283	3725.000000
1804.451919	3682.333333
1805.423201	3726.666667
1806.394129	3712.000000
1807.364705	3733.333333
1808.334927	3704.333333
1809.304796	3691.000000
1810.274313	3656.666667
1811.243477	3655.333333
1812.212288	3618.666667
1813.180747	3654.333333
1814.148855	3654.333333
1815.116610	3656.000000
1816.084013	3633.333333
1817.051065	3631.000000
1818.017766	3679.666667
1818.984115	3635.333333
1819.950113	3624.000000
1820.915760	3663.333333
1821.881057	3582.333333
1822.846003	3605.666667
1823.810598	3578.666667
1824.774843	3564.000000
1825.738738	3641.666667
1826.702283	3546.666667
1827.665479	3627.666667
1828.628324	3637.666667
1829.590821	3536.666667
1830.552968	3559.000000
1831.514765	3558.666667
1832.476214	3488.666667
1833.437314	3519.333333
1834.398066	3496.666667
1835.358469	3487.333333
1836.318524	3476.666667
1837.278230	3490.666667
1838.237589	3502.666667
1839.196600	3499.666667
1840.155263	3480.666667
1841.113578	3449.000000
1842.071547	3517.666667
1843.029168	3526.333333
1843.986442	3517.333333
1844.943369	3455.333333
1845.899950	3508.333333
1846.856184	3516.333333
1847.812072	3494.333333
1848.767614	3502.666667
1849.722809	3502.000000
1850.677659	3469.000000
1851.632163	3501.333333
1852.586322	3495.666667
1853.540135	3496.333333
1854.493603	3517.333333
1855.446726	3523.333333
1856.399504	3488.666667
1857.351937	3427.666667
1858.304026	3433.000000
1859.255770	3476.333333
1860.207170	3438.000000
1861.158227	3425.666667
1862.108939	3419.000000
1863.059307	3347.666667
1864.009332	3361.333333
1864.959013	3333.333333
1865.908351	3356.666667
1866.857346	3384.000000
1867.805998	3328.333333
1868.754307	3384.333333
1869.702274	3305.333333
1870.649898	3363.333333
1871.597180	3340.333333
1872.544119	3293.333333
1873.490717	3338.333333
1874.436973	3248.666667
1875.382887	3240.666667
1876.328459	3231.000000
1877.273691	3253.333333
1878.218581	3224.333333
1879.163130	3236.000000
1880.107338	3251.333333
1881.051205	3308.666667
1881.994732	3259.666667
1882.937919	3315.666667
1883.880765	3258.333333
1884.823271	3252.000000
1885.765437	3250.666667
1886.707264	3286.333333
1887.648750	3277.666667
1888.589898	3272.000000
1889.530706	3271.333333
1890.471175	3240.333333
1891.411305	3325.666667
1892.351096	3288.666667
1893.290548	3290.333333
1894.229662	3279.666667
1895.168438	3280.333333
1896.106876	3329.666667
1897.044975	3292.666667
1897.982737	3270.333333
1898.920160	3236.000000
1899.857247	3253.000000
1900.793996	3266.666667
1901.730407	3238.000000
1902.666482	3170.000000
1903.602219	3160.333333
1904.537620	3174.333333
1905.472685	3181.000000
1906.407412	3130.000000
1907.341804	3142.000000
1908.275859	3155.000000
1909.209579	3108.000000
1910.142962	3101.333333
1911.076010	3101.333333
1912.008722	3071.000000
1912.941099	3053.666667
1913.873141	3028.666667
1914.804848	3040.333333
1915.736219	3017.000000
1916.667256	3031.000000
1917.597959	2987.666667
1918.528327	3004.333333
1919.458360	2992.333333
1920.388060	2973.666667
1921.317426	2968.666667
1922.246457	2971.000000
1923.175156	2972.333333
1924.103520	2997.000000
1925.031552	3014.000000
1925.959250	2958.333333
1926.886615	3003.333333
1927.813647	2976.333333
1928.740346	2979.666667
1929.666713	3006.666667
1930.592748	2969.333333
1931.518450	3016.666667
1932.443820	2985.666667
1933.368858	2971.333333
1934.293564	2993.666667
1935.217939	3003.000000
1936.141982	3027.333333
1937.065694	2977.000000
1937.989074	2969.333333
1938.912124	2946.333333
1939.834842	2968.000000
1940.757230	2866.333333
1941.679287	2879.666667
1942.601014	2939.000000
1943.522411	2902.333333
1944.443477	2920.333333
1945.364214	2919.666667
1946.284621	2896.666667
1947.204698	2856.000000
1948.124445	2886.000000
1949.043863	2836.000000
1949.962952	2818.333333
1950.881712	2801.666667
1951.800143	2833.333333
1952.718245	2830.666667
1953.636019	2782.666667
1954.553464	2773.000000
1955.470581	2757.000000
1956.387369	2809.333333
1957.303830	2727.000000
1958.219963	2739.333333
1959.135768	2712.000000
1960.051246	2756.333333
1960.966396	2715.666667
1961.881219	2745.000000
1962.795715	2760.666667
1963.709883	2734.666667
1964.623726	2764.000000
1965.537241	2728.333333
1966.450430	2766.000000
1967.363293	2792.000000
1968.275829	2755.666667
1969.188040	2744.333333
1970.099924	2807.000000
1971.011483	2825.000000
1971.922716	2775.333333
1972.833624	2782.000000
1973.744206	2762.000000
1974.654464	2776.000000
1975.564396	2771.666667
1976.474004	2790.333333
1977.383286	2747.333333
1978.292245	2733.666667
1979.200878	2754.666667
1980.109188	2701.666667
1981.017174	2730.000000
1981.924835	2711.000000
1982.832173	2688.000000
1983.739187	2702.666667
1984.645878	2689.666667
1985.552245	2696.333333
1986.458289	2659.000000
1987.364010	2656.666667
1988.269408	2661.000000
1989.174484	2616.000000
1990.079236	2627.333333
1990.983667	2633.000000
1991.887775	2593.333333
1992.791561	2630.000000
1993.695024	2548.666667
1994.598166	2565.000000
1995.500986	2549.333333
1996.403485	2555.333333
1997.305662	2573.333333
1998.207518	2562.666667
1999.109053	2555.333333
