200.151048	21932.000000
201.758777	21881.333333
203.365815	21795.666667
204.972162	21777.333333
206.577820	21725.333333
208.182787	21750.000000
209.787065	21677.666667
211.390653	21509.333333
212.993553	21502.666667
214.595765	21432.333333
216.197289	21496.666667
217.798125	21365.666667
219.398274	21576.333333
220.997737	21339.333333
222.596513	21280.666667
224.194603	21363.666667
225.792008	21302.666667
227.388728	21408.666667
228.984763	21236.000000
230.580114	21198.333333
232.174781	21159.666667
233.768765	21234.333333
235.362065	21235.333333
236.954683	21152.666667
238.546619	20959.666667
240.137872	21078.333333
241.728445	21037.333333
243.318336	20911.666667
244.907546	20891.333333
246.496076	20785.000000
248.083926	20747.333333
249.671097	20682.000000
251.257589	20730.333333
252.843402	20651.000000
254.428536	20610.333333
256.012993	20637.000000
257.596772	20495.333333
259.179874	20479.333333
260.762300	20507.666667
262.344049	20387.000000
263.925122	20383.333333
265.505519	20386.666667
267.085241	20484.000000
268.664289	20292.333333
270.242662	20469.333333
271.820361	20279.666667
273.397387	20339.333333
274.973740	20333.333333
276.549419	20318.333333
278.124426	20352.000000
279.698762	20373.333333
281.272425	20202.000000
282.845417	20374.666667
284.417739	20339.666667
285.989390	20459.666667
287.560371	20348.666667
289.130682	20265.333333
290.700324	20507.666667
292.269297	20433.666667
293.837602	20351.000000
295.405238	20369.333333
296.972207	20394.333333
298.538508	20234.000000
300.104142	20340.333333
301.669110	20340.666667
303.233411	20250.333333
304.797047	20108.000000
306.360017	20145.666667
307.922322	20000.666667
309.483963	19813.000000
311.044939	19950.333333
312.605252	19933.666667
314.164900	19746.666667
315.723886	19685.666667
317.282209	19773.000000
318.839870	19733.666667
320.396868	19660.000000
321.953205	19549.333333
323.508881	19620.333333
325.063896	19464.666667
326.618251	19633.666667
328.171945	19518.333333
329.724980	19610.000000
331.277356	19482.000000
332.829072	19480.333333
334.380131	19435.333333
335.930530	19475.333333
337.480273	19441.000000
339.029357	19551.666667
340.577785	19447.000000
342.125556	19457.333333
343.672671	19442.666667
345.219130	19413.333333
346.764933	19365.000000
348.310081	19311.666667
349.854575	19270.333333
351.398414	19481.000000
352.941599	19305.666667
354.484130	19243.333333
356.026008	19254.333333
357.567234	19321.666667
359.107807	19256.666667
360.647727	19163.000000
362.186996	19155.333333
363.725614	19079.333333
365.263580	19146.000000
366.800896	19118.666667
368.337562	18920.000000
369.873578	19031.333333
371.408944	19007.666667
372.943661	19000.666667
374.477730	18892.000000
376.011150	19057.666667
377.543922	19067.000000
379.076046	19092.333333
380.607523	19023.333333
382.138353	19066.666667
383.668537	19037.666667
385.198075	19136.666667
386.726966	19047.666667
388.255213	19031.666667
389.782814	19159.000000
391.309770	19084.333333
392.836083	19197.666667
394.361751	19154.000000
395.886776	19112.000000
397.411157	19220.333333
398.934896	19240.666667
400.457992	19285.666667
401.980446	19342.333333
403.502258	19210.000000
405.023429	19348.000000
406.543959	19338.000000
408.063849	19414.666667
409.583098	19337.000000
411.101707	19554.333333
412.619677	19647.666667
414.137007	19598.333333
415.653699	19630.000000
417.169752	19736.333333
418.685167	19973.666667
420.199945	20090.000000
421.714085	20176.333333
423.227588	20328.000000
424.740454	20453.333333
426.252684	20515.333333
427.764279	20570.666667
429.275238	20449.333333
430.785561	20435.333333
432.295250	20424.333333
433.804304	20287.333333
435.312725	20101.333333
436.820511	20055.333333
438.327664	19847.666667
439.834185	19784.333333
441.340072	19624.333333
442.845327	19642.000000
444.349951	19533.000000
445.853942	19510.666667
447.357303	19395.000000
448.860033	19467.333333
450.362132	19356.000000
451.863601	19185.666667
453.364440	19096.333333
454.864650	19010.000000
456.364231	18871.000000
457.863183	18835.333333
459.361507	18762.666667
460.859203	18608.000000
462.356271	18458.666667
463.852712	18471.666667
465.348526	18362.666667
466.843714	18339.333333
468.338275	18151.666667
469.832210	18268.000000
471.325520	18180.333333
472.818205	18115.000000
474.310265	18019.333333
475.801700	18041.666667
477.292512	17990.666667
478.782700	17944.333333
480.272264	17930.333333
481.761205	17962.000000
483.249524	17770.666667
484.737221	17792.666667
486.224295	17854.000000
487.710748	17752.666667
489.196579	17671.666667
490.681790	17750.666667
492.166380	17612.666667
493.650350	17697.000000
495.133700	17733.333333
496.616431	17749.333333
498.098542	17535.666667
499.580035	17595.333333
501.060909	17501.333333
502.541165	17629.000000
504.020804	17569.666667
505.499825	17589.333333
506.978228	17485.666667
508.456016	17462.666667
509.933186	17451.333333
511.409741	17338.000000
512.885680	17394.333333
514.361004	17512.666667
515.835713	17409.000000
517.309807	17241.333333
518.783287	17440.333333
520.256153	17415.000000
521.728406	17392.666667
523.200045	17391.000000
524.671071	17428.333333
526.141485	17428.000000
527.611287	17339.333333
529.080476	17402.333333
530.549054	17385.666667
532.017021	17213.333333
533.484378	17406.666667
534.951123	17388.666667
536.417259	17313.000000
537.882785	17375.666667
539.347701	17178.333333
540.812008	17409.333333
542.275707	17177.000000
543.738797	17277.666667
545.201279	17206.000000
546.663153	17365.000000
548.124420	17377.000000
549.585080	17437.333333
551.045133	17302.333333
552.504579	17483.333333
553.963420	17473.333333
555.421655	17547.000000
556.879285	17517.666667
558.336309	17367.666667
559.792729	17543.000000
561.248545	17408.666667
562.703756	17503.000000
564.158364	17496.333333
565.612369	17597.333333
567.065770	17716.000000
568.518569	17779.666667
569.970766	17741.000000
571.422361	17860.666667
572.873354	17959.333333
574.323745	17936.333333
575.773536	18038.666667
577.222726	18176.333333
578.671316	18151.000000
580.119306	18017.666667
581.566696	18052.000000
583.013487	18064.666667
584.459679	17936.000000
585.905273	17941.666667
587.350268	17965.000000
588.794665	17824.333333
590.238465	17841.666667
591.681667	17784.000000
593.124272	17765.000000
594.566281	17671.666667
596.007694	17542.333333
597.448510	17464.000000
598.888731	17431.000000
600.328357	17274.000000
601.767388	17187.333333
603.205824	17367.333333
604.643666	17209.000000
606.080914	17254.000000
607.517568	17114.666667
608.953629	17256.333333
610.389097	17073.333333
611.823972	17077.666667
613.258255	17067.333333
614.691946	16972.000000
616.125046	16897.333333
617.557554	16885.666667
618.989471	16770.000000
620.420798	16757.666667
621.851534	16706.666667
623.281680	16586.333333
624.711237	16399.333333
626.140204	16332.666667
627.568582	16407.000000
628.996372	16196.000000
630.423573	16158.333333
631.850186	16230.666667
633.276211	16142.000000
634.701650	16236.333333
636.126501	16173.000000
637.550765	16311.666667
638.974443	16245.666667
640.397535	16137.000000
641.820041	16156.333333
643.241961	16233.000000
644.663297	16086.000000
646.084048	16131.000000
647.504214	15949.333333
648.923796	16102.000000
650.342795	15942.666667
651.761210	15949.333333
653.179041	15928.666667
654.596290	15818.666667
656.012957	15726.000000
657.429041	15819.000000
658.844543	15819.000000
660.259464	15905.333333
661.673804	15814.666667
663.087563	15930.666667
664.500741	15887.000000
665.913339	15884.666667
667.325357	15847.000000
668.736795	15941.333333
670.147654	15891.333333
671.557934	15708.000000
672.967636	15792.333333
674.376759	15705.666667
675.785304	15646.333333
677.193271	15763.333333
678.600661	15712.333333
680.007474	15717.333333
681.413711	15557.333333
682.819370	15701.333333
684.224454	15640.666667
685.628962	15658.333333
687.032895	15613.666667
688.436252	15711.666667
689.839034	15653.333333
691.241242	15629.000000
692.642876	15677.000000
694.043936	15461.666667
695.444422	15470.666667
696.844336	15538.333333
698.243676	15465.000000
699.642443	15580.666667
701.040639	15457.333333
702.438262	15488.000000
703.835313	15517.666667
705.231794	15443.333333
706.627703	15403.666667
708.023041	15428.000000
709.417810	15530.666667
710.812008	15416.000000
712.205636	15426.333333
713.598694	15443.000000
714.991184	15438.666667
716.383105	15346.000000
717.774457	15311.666667
719.165241	15225.000000
720.555457	15343.000000
721.945105	15308.333333
723.334187	15292.000000
724.722701	15412.000000
726.110648	15371.000000
727.498030	15307.000000
728.884845	15251.333333
730.271094	15244.333333
731.656778	15236.333333
733.041897	15221.000000
734.426451	15142.333333
735.810441	15305.333333
737.193866	15130.666667
738.576728	15194.000000
739.959026	15147.666667
741.340760	15089.000000
742.721932	15202.000000
744.102541	15132.333333
745.482588	15162.333333
746.862073	15044.333333
748.240996	15127.333333
749.619358	15147.666667
750.997158	15249.666667
752.374398	15078.000000
753.751077	15195.000000
755.127197	15145.000000
756.502756	15097.666667
757.877756	15111.000000
759.252196	15110.333333
760.626078	14950.000000
761.999400	15056.666667
763.372165	15141.666667
764.744371	14949.666667
766.116020	14996.000000
767.487111	14931.666667
768.857646	14949.000000
770.227623	14947.000000
771.597044	14860.666667
772.965908	14744.333333
774.334217	14864.666667
775.701970	14735.000000
777.069168	14745.000000
778.435811	14806.666667
779.801899	14750.000000
781.167433	14707.666667
782.532412	14785.333333
783.896838	14762.000000
785.260710	14665.666667
786.624029	14751.333333
787.986796	14591.666667
789.349009	14584.333333
790.710671	14552.666667
792.071780	14645.000000
793.432338	14560.333333
794.792344	14620.333333
796.151799	14543.000000
797.510704	14503.666667
798.869058	14531.000000
800.226862	14423.666667
801.584116	14476.666667
802.940820	14510.333333
804.296975	14429.333333
805.652581	14476.000000
807.007638	14455.666667
808.362147	14494.000000
809.716108	14451.666667
811.069521	14605.666667
812.422387	14527.000000
813.774705	14498.000000
815.126476	14556.666667
816.477701	14541.000000
817.828380	14457.333333
819.178512	14431.666667
820.528099	14535.000000
821.877140	14413.000000
823.225637	14507.666667
824.573588	14391.666667
825.920995	14381.333333
827.267857	14313.666667
828.614176	14286.666667
829.959951	14231.666667
831.305183	14308.000000
832.649871	14229.666667
833.994017	14324.666667
835.337620	14241.000000
836.680681	14297.333333
838.023201	14289.333333
839.365178	14314.000000
840.706614	14379.666667
842.047510	14240.666667
843.387864	14424.000000
844.727678	14395.333333
846.066952	14343.333333
847.405687	14432.333333
848.743881	14440.000000
850.081537	14480.333333
851.418653	14552.333333
852.755231	14411.333333
854.091270	14607.666667
855.426771	14457.000000
856.761735	14485.000000
858.096160	14344.666667
859.430049	14431.333333
860.763401	14442.333333
862.096216	14339.333333
863.428495	14332.000000
864.760237	14215.666667
866.091444	14249.000000
867.422115	14236.333333
868.752252	14174.666667
870.081853	14238.666667
871.410919	14155.000000
872.739452	14204.333333
874.067450	14109.333333
875.394914	14138.666667
876.721845	14088.666667
878.048243	14102.333333
879.374108	14078.333333
880.699440	13969.333333
882.024240	13965.666667
883.348508	14089.333333
884.672244	13837.666667
885.995449	13889.666667
887.318122	13819.000000
888.640265	13870.666667
889.961877	13716.666667
891.282959	13884.666667
892.603510	13755.666667
893.923532	13811.000000
895.243024	13751.333333
896.561987	13640.333333
897.880422	13716.333333
899.198327	13669.000000
900.515705	13695.333333
901.832554	13589.000000
903.148875	13617.666667
904.464669	13564.666667
905.779936	13580.333333
907.094676	13661.333333
908.408889	13550.000000
909.722576	13731.000000
911.035737	13583.666667
912.348371	13761.333333
913.660481	13768.666667
914.972065	13834.333333
916.283124	13898.666667
917.593659	13910.666667
918.903669	13871.000000
920.213155	13935.666667
921.522117	13960.333333
922.830556	13828.000000
924.138471	13898.666667
925.445864	13846.666667
926.752733	13902.666667
928.059081	13960.333333
929.364906	13867.333333
930.670209	13891.000000
931.974991	14017.333333
933.279251	14027.000000
934.582990	14116.000000
935.886209	14185.333333
937.188907	14371.333333
938.491085	14520.333333
939.792743	14573.000000
941.093881	14820.333333
942.394500	14955.333333
943.694600	15214.666667
944.994181	15465.000000
946.293243	15722.000000
947.591787	16204.333333
948.889813	16598.666667
950.187322	17118.000000
951.484313	17805.666667
952.780787	18458.666667
954.076744	19295.666667
955.372184	19797.000000
956.667108	20331.000000
957.961516	20656.666667
959.255409	20658.333333
960.548785	20401.666667
961.841647	19886.333333
963.133993	19145.666667
964.425825	18194.666667
965.717142	17399.000000
967.007946	16646.666667
968.298235	15862.333333
969.588011	15233.000000
970.877273	14706.333333
972.166023	14391.333333
973.454259	13885.666667
974.741984	13718.000000
976.029196	13509.000000
977.315895	13279.666667
978.602084	13221.666667
979.887761	13066.000000
981.172926	12926.666667
982.457581	12989.000000
983.741725	12892.666667
985.025359	12801.000000
986.308483	12761.666667
987.591097	12671.666667
988.873202	12681.000000
990.154797	12645.000000
991.435883	12616.666667
992.716461	12754.666667
993.996530	12643.000000
995.276091	12655.666667
996.555144	12684.333333
997.833690	12752.333333
999.111728	12721.000000
1000.389259	12764.000000
1001.666283	12815.666667
1002.942800	12820.666667
1004.218812	12834.666667
1005.494317	12771.333333
1006.769317	12746.666667
1008.043811	12698.000000
1009.317799	12677.333333
1010.591283	12610.333333
1011.864263	12653.333333
1013.136737	12750.666667
1014.408708	12625.000000
1015.680175	12638.333333
1016.951138	12710.333333
1018.221598	12701.666667
1019.491554	12665.000000
1020.761008	12789.666667
1022.029959	12757.000000
1023.298408	12710.000000
1024.566355	12735.666667
1025.833800	12777.666667
1027.100744	12842.666667
1028.367187	12868.000000
1029.633128	12702.666667
1030.898569	12808.666667
1032.163509	12695.666667
1033.427949	12771.666667
1034.691890	12828.000000
1035.955330	12855.000000
1037.218271	12765.333333
1038.480714	12815.666667
1039.742657	12799.333333
1041.004101	12804.666667
1042.265048	12836.000000
1043.525496	12900.000000
1044.785446	12826.666667
1046.044899	12890.000000
1047.303855	12733.666667
1048.562313	12832.333333
1049.820275	12716.333333
1051.077740	12790.333333
1052.334709	12622.666667
1053.591182	12653.666667
1054.847160	12596.000000
1056.102641	12659.000000
1057.357628	12569.000000
1058.612120	12727.666667
1059.866117	12641.000000
1061.119619	12749.666667
1062.372628	12745.000000
1063.625142	12858.333333
1064.877163	12794.666667
1066.128691	12851.666667
1067.379725	12901.000000
1068.630267	12840.333333
1069.880316	12784.333333
1071.129872	12791.666667
1072.378937	12690.333333
1073.627509	12710.666667
1074.875590	12610.666667
1076.123180	12533.666667
1077.370279	12441.000000
1078.616887	12289.333333
1079.863004	12311.000000
1081.108631	12044.333333
1082.353768	12193.000000
1083.598415	12100.333333
1084.842573	11957.666667
1086.086241	11941.000000
1087.329421	11845.333333
1088.572111	11778.333333
1089.814314	11742.666667
1091.056028	11659.666667
1092.297253	11746.333333
1093.537992	11592.000000
1094.778242	11575.000000
1096.018006	11600.666667
1097.257282	11595.000000
1098.496072	11591.333333
1099.734376	11460.000000
1100.972193	11489.333333
1102.209524	11426.333333
1103.446370	11405.000000
1104.682730	11486.666667
1105.918604	11493.000000
1107.153994	11331.666667
1108.388900	11362.333333
1109.623320	11341.666667
1110.857257	11303.333333
1112.090710	11243.000000
1113.323679	11124.666667
1114.556164	11142.333333
1115.788167	11134.333333
1117.019686	11051.000000
1118.250723	11073.666667
1119.481278	10984.666667
1120.711350	10993.666667
1121.940940	10960.333333
1123.170049	11044.000000
1124.398676	10916.000000
1125.626823	10910.000000
1126.854488	10936.000000
1128.081672	10863.666667
1129.308376	10848.666667
1130.534600	10955.333333
1131.760345	10794.000000
1132.985609	10955.666667
1134.210394	10914.333333
1135.434700	10827.333333
1136.658527	10852.000000
1137.881875	10858.000000
1139.104745	10803.333333
1140.327136	10810.000000
1141.549050	10794.333333
1142.770486	10811.666667
1143.991445	10719.000000
1145.211926	10725.666667
1146.431931	10777.000000
1147.651459	10739.666667
1148.870510	10787.666667
1150.089086	10726.333333
1151.307185	10680.000000
1152.524808	10843.000000
1153.741957	10675.666667
1154.958630	10784.000000
1156.174828	10706.000000
1157.390551	10653.000000
1158.605800	10724.333333
1159.820574	10667.000000
1161.034875	10647.666667
1162.248702	10666.666667
1163.462055	10599.000000
1164.674936	10689.333333
1165.887343	10579.000000
1167.099277	10688.666667
1168.310739	10679.000000
1169.521729	10673.000000
1170.732247	10584.000000
1171.942293	10541.333333
1173.151867	10651.666667
1174.360970	10555.333333
1175.569602	10483.333333
1176.777764	10553.666667
1177.985454	10579.333333
1179.192675	10402.000000
1180.399425	10500.000000
1181.605706	10492.000000
1182.811517	10401.666667
1184.016859	10410.666667
1185.221731	10371.666667
1186.426135	10413.333333
1187.630070	10339.000000
1188.833537	10235.666667
1190.036535	10400.333333
1191.239066	10280.000000
1192.441129	10227.333333
1193.642725	10194.000000
1194.843853	10229.666667
1196.044515	10222.666667
1197.244710	10186.666667
1198.444438	10262.333333
1199.643701	10313.333333
1200.842497	10289.000000
1202.040827	10259.666667
1203.238693	10352.000000
1204.436092	10181.000000
1205.633027	10112.000000
1206.829497	10137.666667
1208.025503	10129.333333
1209.221044	10099.666667
1210.416122	10112.000000
1211.610735	10130.333333
1212.804885	9975.333333
1213.998572	10015.666667
1215.191795	9966.000000
1216.384556	9920.333333
1217.576854	9968.000000
1218.768689	9900.000000
1219.960063	9937.333333
1221.150974	9924.000000
1222.341424	9821.333333
1223.531413	9938.666667
1224.720940	10021.666667
1225.910006	9960.666667
1227.098612	9981.333333
1228.286757	9959.666667
1229.474442	10025.000000
1230.661667	10053.000000
1231.848432	10115.666667
1233.034738	10136.666667
1234.220584	10192.000000
1235.405971	10147.000000
1236.590900	10246.000000
1237.775369	10254.000000
1238.959381	10254.666667
1240.142934	10246.666667
1241.326029	10337.333333
1242.508667	10294.000000
1243.690848	10207.666667
1244.872571	10161.333333
1246.053837	10197.000000
1247.234646	10205.000000
1248.414999	10113.000000
1249.594896	10099.000000
1250.774337	10176.333333
1251.953322	10110.000000
1253.131851	10119.000000
1254.309925	9980.333333
1255.487544	10007.666667
1256.664708	10027.000000
1257.841417	9965.000000
1259.017673	9924.000000
1260.193473	9937.666667
1261.368820	10001.000000
1262.543714	9953.666667
1263.718154	10102.000000
1264.892140	10001.666667
1266.065674	9988.666667
1267.238755	10044.333333
1268.411383	10078.666667
1269.583559	10058.666667
1270.755283	10004.000000
1271.926555	9979.000000
1273.097375	9998.333333
1274.267744	9932.000000
1275.437662	9895.000000
1276.607129	9928.666667
1277.776145	9899.666667
1278.944711	9857.666667
1280.112827	9851.333333
1281.280492	9851.333333
1282.447708	9783.000000
1283.614474	9696.000000
1284.780791	9727.666667
1285.946659	9711.000000
1287.112078	9624.666667
1288.277048	9675.666667
1289.441570	9608.000000
1290.605644	9537.333333
1291.769270	9526.666667
1292.932448	9530.000000
1294.095178	9412.000000
1295.257461	9348.333333
1296.419298	9405.000000
1297.580687	9361.000000
1298.741630	9408.000000
1299.902126	9418.333333
1301.062177	9364.000000
1302.221781	9305.666667
1303.380940	9338.666667
1304.539653	9275.000000
1305.697921	9297.333333
1306.855744	9257.666667
1308.013123	9250.000000
1309.170056	9319.333333
1310.326546	9341.666667
1311.482591	9296.333333
1312.638193	9252.333333
1313.793350	9287.333333
1314.948065	9417.333333
1316.102336	9347.666667
1317.256164	9232.666667
1318.409550	9300.333333
1319.562493	9234.333333
1320.714993	9176.666667
1321.867052	9099.333333
1323.018668	9055.333333
1324.169843	9020.666667
1325.320577	9025.666667
1326.470870	9064.000000
1327.620721	8986.666667
1328.770132	8972.000000
1329.919102	8933.000000
1331.067632	8990.000000
1332.215722	8925.000000
1333.363372	8954.000000
1334.510582	8943.333333
1335.657353	8969.666667
1336.803685	8941.000000
1337.949578	8952.333333
1339.095032	8939.666667
1340.240048	8953.333333
1341.384625	8970.000000
1342.528764	8874.000000
1343.672466	8946.666667
1344.815729	8894.000000
1345.958556	8905.666667
1347.100945	8950.666667
1348.242897	8847.666667
1349.384413	8836.333333
1350.525492	8862.333333
1351.666134	8775.666667
1352.806341	8729.000000
1353.946111	8752.333333
1355.085446	8664.333333
1356.224346	8607.666667
1357.362810	8655.333333
1358.500840	8661.333333
1359.638434	8652.666667
1360.775594	8642.000000
1361.912320	8566.333333
1363.048612	8561.666667
1364.184469	8508.333333
1365.319893	8589.333333
1366.454884	8518.333333
1367.589441	8524.333333
1368.723566	8574.666667
1369.857257	8580.333333
1370.990516	8489.000000
1372.123343	8679.666667
1373.255737	8532.000000
1374.387699	8517.666667
1375.519230	8583.000000
1376.650329	8565.666667
1377.780997	8594.333333
1378.911234	8574.333333
1380.041040	8578.333333
1381.170416	8528.333333
1382.299361	8560.666667
1383.427875	8610.666667
1384.555960	8504.000000
1385.683615	8554.666667
1386.810841	8501.333333
1387.937637	8529.666667
1389.064004	8500.666667
1390.189942	8496.333333
1391.315451	8464.666667
1392.440532	8356.666667
1393.565185	8480.666667
1394.689409	8380.333333
1395.813206	8423.000000
1396.936575	8386.000000
1398.059517	8370.000000
1399.182032	8380.333333
1400.304119	8324.666667
1401.425780	8268.666667
1402.547014	8302.000000
1403.667822	8343.666667
1404.788204	8321.666667
1405.908160	8421.666667
1407.027690	8249.333333
1408.146795	8234.000000
1409.265474	8285.666667
1410.383728	8266.666667
1411.501558	8289.000000
1412.618963	8346.666667
1413.735943	8266.666667
1414.852499	8324.666667
1415.968632	8319.666667
1417.084340	8256.000000
1418.199625	8365.333333
1419.314486	8295.666667
1420.428925	8284.666667
1421.542940	8388.000000
1422.656533	8386.333333
1423.769703	8350.333333
1424.882451	8369.000000
1425.994777	8268.333333
1427.106680	8239.333333
1428.218163	8251.333333
1429.329223	8117.333333
1430.439863	8195.000000
1431.550081	8135.333333
1432.659879	8186.000000
1433.769256	8150.666667
1434.878212	8143.000000
1435.986749	8085.000000
1437.094865	8151.333333
1438.202562	8174.666667
1439.309839	8169.666667
1440.416696	8205.000000
1441.523135	8182.666667
1442.629154	8237.333333
1443.734755	8294.000000
1444.839937	8332.000000
1445.944701	8292.666667
1447.049047	8410.333333
1448.152975	8280.333333
1449.256485	8295.000000
1450.359577	8269.666667
1451.462253	8321.000000
1452.564511	8258.666667
1453.666352	8262.666667
1454.767777	8189.666667
1455.868785	8169.000000
1456.969377	8165.333333
1458.069553	8177.333333
1459.169313	8138.666667
1460.268658	8105.000000
1461.367587	8119.000000
1462.466101	8047.333333
1463.564200	8068.333333
1464.661884	7920.666667
1465.759153	7860.000000
1466.856008	7876.333333
1467.952449	7789.000000
1469.048476	7789.666667
1470.144089	7686.666667
1471.239288	7617.000000
1472.334074	7709.666667
1473.428447	7529.333333
1474.522407	7550.000000
1475.615955	7541.333333
1476.709089	7483.333333
1477.801812	7373.666667
1478.894122	7423.666667
1479.986020	7338.333333
1481.077506	7346.333333
1482.168581	7285.666667
1483.259245	7343.666667
1484.349498	7332.666667
1485.439339	7244.666667
1486.528770	7280.333333
1487.617790	7297.000000
1488.706400	7318.000000
1489.794600	7298.666667
1490.882390	7220.000000
1491.969771	7266.333333
1493.056742	7308.000000
1494.143303	7228.000000
1495.229456	7222.333333
1496.315199	7151.000000
1497.400534	7272.333333
1498.485460	7136.666667
1499.569978	7154.000000
1500.654088	7088.000000
1501.737790	7061.000000
1502.821085	7153.666667
1503.903972	7038.333333
1504.986451	7000.000000
1506.068524	7071.000000
1507.150189	6999.000000
1508.231448	6938.333333
1509.312301	6900.666667
1510.392747	6981.666667
1511.472787	6908.666667
1512.552422	6902.666667
1513.631650	6828.000000
1514.710473	6824.333333
1515.788891	6899.000000
1516.866904	6876.000000
1517.944512	6915.333333
1519.021715	6863.333333
1520.098513	6885.000000
1521.174908	6842.666667
1522.250898	6935.333333
1523.326485	6895.333333
1524.401667	6919.333333
1525.476447	6870.666667
1526.550823	6835.666667
1527.624796	6892.666667
1528.698365	6816.333333
1529.771533	6862.333333
1530.844298	6849.666667
1531.916660	6801.333333
1532.988620	6801.333333
1534.060179	6801.333333
1535.131336	6833.333333
1536.202091	6766.000000
1537.272445	6755.666667
1538.342398	6763.333333
1539.411950	6637.333333
1540.481101	6703.333333
1541.549851	6623.000000
1542.618202	6639.000000
1543.686152	6617.000000
1544.753702	6615.000000
1545.820853	6629.666667
1546.887604	6613.000000
1547.953955	6644.000000
1549.019908	6657.666667
1550.085461	6574.333333
1551.150616	6607.333333
1552.215372	6582.333333
1553.279730	6560.000000
1554.343690	6541.333333
1555.407252	6590.000000
1556.470415	6494.666667
1557.533182	6516.000000
1558.595551	6530.666667
1559.657522	6470.333333
1560.719097	6479.666667
1561.780275	6413.666667
1562.841056	6511.666667
1563.901441	6535.333333
1564.961429	6475.666667
1566.021022	6469.666667
1567.080219	6530.666667
1568.139020	6425.000000
1569.197425	6433.333333
1570.255436	6452.666667
1571.313051	6395.333333
1572.370271	6381.000000
1573.427097	6443.666667
1574.483528	6409.000000
1575.539565	6378.333333
1576.595208	6382.333333
1577.650457	6364.666667
1578.705312	6349.333333
1579.759774	6323.333333
1580.813842	6301.000000
1581.867517	6243.333333
1582.920799	6254.666667
1583.973689	6217.333333
1585.026186	6118.000000
1586.078290	6137.333333
1587.130002	6213.000000
1588.181323	6184.333333
1589.232251	6164.000000
1590.282788	6116.000000
1591.332933	6082.333333
1592.382688	6129.000000
1593.432051	6140.000000
1594.481023	6176.333333
1595.529605	6112.000000
1596.577796	6152.333333
1597.625597	6134.666667
1598.673007	6113.666667
1599.720028	6180.666667
1600.766660	6167.000000
1601.812901	6194.666667
1602.858753	6161.333333
1603.904217	6199.333333
1604.949291	6206.333333
1605.993976	6155.666667
1607.038273	6204.000000
1608.082182	6193.333333
1609.125702	6190.000000
1610.168834	6121.666667
1611.211579	6120.000000
1612.253935	6113.000000
1613.295905	6040.666667
1614.337487	5946.666667
1615.378682	6020.666667
1616.419490	5990.000000
1617.459912	6006.666667
1618.499946	5976.000000
1619.539595	6055.000000
1620.578858	6081.000000
1621.617734	6070.666667
1622.656225	5997.333333
1623.694330	6000.000000
1624.732050	5924.000000
1625.769385	5969.000000
1626.806334	5985.000000
1627.842899	5965.666667
1628.879079	5962.000000
1629.914875	5926.666667
1630.950286	5920.666667
1631.985314	5945.333333
1633.019957	5973.000000
1634.054217	5938.333333
1635.088093	5934.666667
1636.121586	5951.000000
1637.154696	5950.000000
1638.187423	5996.000000
1639.219767	5949.666667
1640.251728	5967.333333
1641.283307	5895.666667
1642.314504	5970.666667
1643.345319	5985.333333
1644.375751	5981.333333
1645.405803	5935.666667
1646.435472	5972.333333
1647.464761	5952.333333
1648.493668	5909.000000
1649.522194	5928.333333
1650.550340	5982.333333
1651.578105	5915.000000
1652.605490	5990.666667
1653.632494	5911.666667
1654.659119	5944.333333
1655.685363	5855.666667
1656.711228	5811.000000
1657.736714	5841.000000
1658.761820	5887.000000
1659.786547	5827.333333
1660.810895	5836.000000
1661.834865	5810.666667
1662.858456	5801.666667
1663.881668	5733.666667
1664.904503	5770.333333
1665.926959	5710.333333
1666.949038	5719.333333
1667.970739	5705.666667
1668.992062	5683.000000
1670.013008	5655.333333
1671.033577	5696.333333
1672.053770	5586.333333
1673.073585	5633.000000
1674.093024	5609.666667
1675.112086	5631.666667
1676.130773	5614.333333
1677.149083	5587.666667
1678.167017	5601.666667
1679.184576	5594.000000
1680.201760	5584.000000
1681.218568	5626.333333
1682.235001	5547.333333
1683.251059	5477.666667
1684.266742	5562.666667
1685.282051	5610.333333
1686.296985	5512.666667
1687.311546	5497.333333
1688.325732	5418.666667
1689.339544	5402.333333
1690.352983	5424.000000
1691.366048	5397.666667
1692.378740	5306.000000
1693.391058	5347.666667
1694.403004	5214.333333
1695.414577	5303.000000
1696.425778	5288.000000
1697.436606	5173.000000
1698.447061	5116.666667
1699.457145	5140.000000
1700.466857	5085.666667
1701.476197	5045.333333
1702.485166	5097.666667
1703.493763	5023.000000
1704.501989	5051.666667
1705.509844	4987.000000
1706.517328	4945.666667
1707.524442	5060.000000
1708.531185	4988.666667
1709.537558	5015.333333
1710.543561	4976.000000
1711.549194	4893.000000
1712.554457	4917.666667
1713.559351	4898.333333
1714.563875	4913.666667
1715.568030	4949.000000
1716.571816	4884.333333
1717.575233	4882.666667
1718.578282	4922.666667
1719.580962	4941.000000
1720.583273	4969.333333
1721.585217	4953.000000
1722.586792	4891.333333
1723.588000	4908.666667
1724.588840	4897.000000
1725.589312	4919.333333
1726.589418	4969.333333
1727.589156	4945.000000
1728.588527	4967.666667
1729.587532	4924.666667
1730.586170	4925.000000
1731.584441	4936.333333
1732.582346	4857.666667
1733.579886	4821.666667
1734.577059	4872.000000
1735.573867	4837.666667
1736.570309	4813.000000
1737.566386	4734.333333
1738.562097	4776.000000
1739.557444	4747.333333
1740.552426	4709.666667
1741.547043	4732.333333
1742.541295	4697.000000
1743.535184	4702.000000
1744.528708	4681.333333
1745.521868	4623.000000
1746.514664	4673.333333
1747.507097	4606.000000
1748.499166	4648.333333
1749.490873	4623.333333
1750.482216	4627.000000
1751.473196	4579.000000
1752.463813	4613.000000
1753.454068	4610.333333
1754.443960	4610.333333
1755.433490	4629.666667
1756.422658	4588.000000
1757.411464	4576.000000
1758.399908	4585.333333
1759.387991	4640.000000
1760.375713	4585.333333
1761.363073	4524.000000
1762.350072	4613.333333
1763.336711	4574.666667
1764.322988	4597.666667
1765.308905	4536.666667
1766.294462	4548.333333
1767.279659	4508.000000
1768.264496	4541.333333
1769.248972	4514.333333
1770.233089	4421.000000
1771.216847	4426.000000
1772.200245	4431.666667
1773.183284	4428.333333
1774.165965	4478.666667
1775.148286	4463.666667
1776.130249	4451.000000
1777.111853	4404.000000
1778.093099	4375.333333
1779.073987	4397.333333
1780.054517	4278.666667
1781.034689	4311.000000
1782.014503	4306.333333
1782.993960	4228.000000
1783.973060	4232.333333
1784.951802	4185.000000
1785.930188	4226.333333
1786.908217	4175.666667
1787.885889	4205.000000
1788.863205	4176.333333
1789.840164	4158.000000
1790.816768	4116.666667
1791.793015	4122.000000
1792.768907	4122.000000
1793.744443	4091.000000
1794.719624	4156.000000
1795.694449	4152.000000
1796.668919	4198.333333
1797.643035	4169.666667
1798.616795	4184.000000
1799.590201	4132.666667
1800.563253	4146.333333
1801.535950	4197.333333
1802.508294	4210.333333
1803.480283	4176.000000
1804.451919	4131.000000
1805.423201	4198.000000
1806.394129	4181.666667
1807.364705	4144.666667
1808.334927	4148.000000
1809.304796	4132.000000
1810.274313	4136.666667
1811.243477	4137.000000
1812.212288	4107.000000
1813.180747	4107.000000
1814.148855	4137.000000
1815.116610	4084.666667
1816.084013	4103.666667
1817.051065	4122.000000
1818.017766	4060.333333
1818.984115	4039.333333
1819.950113	4084.333333
1820.915760	4064.333333
1821.881057	4028.666667
1822.846003	3991.000000
1823.810598	4016.333333
1824.774843	4014.333333
1825.738738	4006.333333
1826.702283	4042.666667
1827.665479	3985.666667
1828.628324	3960.333333
1829.590821	3985.666667
1830.552968	3931.666667
1831.514765	3925.333333
1832.476214	3902.666667
1833.437314	3924.333333
1834.398066	3873.000000
1835.358469	3949.333333
1836.318524	3830.666667
1837.278230	3891.333333
1838.237589	3910.000000
1839.196600	3852.666667
1840.155263	3900.333333
1841.113578	3926.000000
1842.071547	3899.333333
1843.029168	3930.666667
1843.986442	3915.666667
1844.943369	3937.000000
1845.899950	3933.666667
1846.856184	3919.666667
1847.812072	3880.666667
1848.767614	3888.333333
1849.722809	3882.333333
1850.677659	3906.000000
1851.632163	3878.666667
1852.586322	3938.333333
1853.540135	3911.000000
1854.493603	3929.000000
1855.446726	3826.000000
1856.399504	3884.666667
1857.351937	3883.333333
1858.304026	3880.000000
1859.255770	3857.666667
1860.207170	3831.000000
1861.158227	3807.000000
1862.108939	3741.666667
1863.059307	3747.333333
1864.009332	3766.000000
1864.959013	3729.666667
1865.908351	3754.666667
1866.857346	3721.000000
1867.805998	3728.333333
1868.754307	3674.000000
1869.702274	3678.333333
1870.649898	3604.000000
1871.597180	3642.666667
1872.544119	3676.333333
1873.490717	3677.666667
1874.436973	3628.333333
1875.382887	3637.000000
1876.328459	3623.666667
1877.273691	3614.666667
1878.218581	3640.333333
1879.163130	3565.666667
1880.107338	3650.333333
1881.051205	3591.333333
1881.994732	3623.000000
1882.937919	3629.333333
1883.880765	3606.333333
1884.823271	3623.333333
1885.765437	3600.000000
1886.707264	3606.000000
1887.648750	3628.666667
1888.589898	3589.000000
1889.530706	3617.000000
1890.471175	3602.666667
1891.411305	3646.333333
1892.351096	3654.666667
1893.290548	3666.333333
1894.229662	3610.000000
1895.168438	3599.000000
1896.106876	3627.000000
1897.044975	3600.333333
1897.982737	3571.000000
1898.920160	3560.333333
1899.857247	3585.000000
1900.793996	3566.333333
1901.730407	3535.333333
1902.666482	3583.333333
1903.602219	3538.333333
1904.537620	3488.666667
1905.472685	3489.333333
1906.407412	3467.666667
1907.341804	3498.666667
1908.275859	3451.333333
1909.209579	3450.000000
1910.142962	3451.666667
1911.076010	3417.000000
1912.008722	3395.666667
1912.941099	3318.666667
1913.873141	3352.666667
1914.804848	3337.000000
1915.736219	3318.666667
1916.667256	3399.000000
1917.597959	3341.666667
1918.528327	3319.666667
1919.458360	3298.666667
1920.388060	3281.000000
1921.317426	3249.333333
1922.246457	3318.000000
1923.175156	3280.666667
1924.103520	3222.666667
1925.031552	3283.333333
1925.959250	3332.666667
1926.886615	3277.000000
1927.813647	3300.333333
1928.740346	3261.333333
1929.666713	3313.000000
1930.592748	3264.333333
1931.518450	3287.666667
1932.443820	3270.333333
1933.368858	3304.333333
1934.293564	3302.333333
1935.217939	3282.000000
1936.141982	3262.666667
1937.065694	3279.000000
1937.989074	3273.333333
1938.912124	3244.333333
1939.834842	3223.333333
1940.757230	3223.000000
1941.679287	3312.000000
1942.601014	3196.000000
1943.522411	3225.000000
1944.443477	3237.666667
1945.364214	3232.666667
1946.284621	3188.333333
1947.204698	3167.000000
1948.124445	3151.000000
1949.043863	3132.000000
1949.962952	3145.333333
1950.881712	3075.333333
1951.800143	3089.666667
1952.718245	3095.666667
1953.636019	3089.333333
1954.553464	3031.666667
1955.470581	3029.666667
1956.387369	3028.000000
1957.303830	3064.333333
1958.219963	3013.000000
1959.135768	3075.333333
1960.051246	3046.000000
1960.966396	2995.333333
1961.881219	3032.000000
1962.795715	3050.666667
1963.709883	3027.666667
1964.623726	3052.666667
1965.537241	3062.000000
1966.450430	3030.333333
1967.363293	3056.666667
1968.275829	3022.666667
1969.188040	3023.666667
1970.099924	3055.333333
1971.011483	3066.000000
1971.922716	3078.666667
1972.833624	3051.333333
1973.744206	3066.666667
1974.654464	3079.333333
1975.564396	3063.666667
1976.474004	3049.666667
1977.383286	3005.333333
1978.292245	2993.666667
1979.200878	3023.666667
1980.109188	2998.000000
1981.017174	3013.000000
1981.924835	3007.333333
1982.832173	2999.000000
1983.739187	2974.666667
1984.645878	2954.666667
1985.552245	2948.666667
1986.458289	2954.000000
1987.364010	2925.333333
1988.269408	2930.666667
1989.174484	2911.333333
1990.079236	2882.000000
1990.983667	2864.333333
1991.887775	2882.333333
1992.791561	2824.000000
1993.695024	2812.000000
1994.598166	2889.666667
1995.500986	2823.333333
1996.403485	2839.333333
1997.305662	2803.000000
1998.207518	2819.000000
1999.109053	2844.333333
