200.151048	62976.000000
201.758777	63055.000000
203.365815	63058.333333
204.972162	62920.000000
206.577820	62878.333333
208.182787	63072.333333
209.787065	62838.666667
211.390653	62881.333333
212.993553	62634.333333
214.595765	62510.000000
216.197289	62646.666667
217.798125	62770.000000
219.398274	62311.666667
220.997737	62651.666667
222.596513	62503.666667
224.194603	62412.333333
225.792008	62518.666667
227.388728	62644.333333
228.984763	62524.333333
230.580114	62574.666667
232.174781	62448.666667
233.768765	62510.666667
235.362065	62244.000000
236.954683	62404.000000
238.546619	62152.666667
240.137872	62382.333333
241.728445	62154.000000
243.318336	62043.000000
244.907546	61914.333333
246.496076	61821.333333
248.083926	61844.333333
249.671097	61778.333333
251.257589	61507.333333
252.843402	61582.000000
254.428536	60930.333333
256.012993	61086.000000
257.596772	60788.333333
259.179874	60935.333333
260.762300	60649.333333
262.344049	60952.666667
263.925122	60899.333333
265.505519	60818.666667
267.085241	60828.666667
268.664289	60552.666667
270.242662	60696.666667
271.820361	60716.000000
273.397387	60772.000000
274.973740	60969.333333
276.549419	60907.666667
278.124426	60915.333333
279.698762	61071.666667
281.272425	61051.000000
282.845417	61210.000000
284.417739	61411.666667
285.989390	61128.333333
287.560371	61553.000000
289.130682	61407.000000
290.700324	61329.333333
292.269297	61438.666667
293.837602	61483.000000
295.405238	61336.666667
296.972207	61397.666667
298.538508	61227.333333
300.104142	61043.000000
301.669110	61185.333333
303.233411	60944.333333
304.797047	60973.666667
306.360017	60727.333333
307.922322	60545.000000
309.483963	60562.333333
311.044939	60571.333333
312.605252	60238.333333
314.164900	60236.000000
315.723886	60075.000000
317.282209	60230.333333
318.839870	59990.333333
320.396868	59812.666667
321.953205	59732.666667
323.508881	59748.000000
325.063896	59664.666667
326.618251	59680.666667
328.171945	59754.333333
329.724980	59775.666667
331.277356	59650.333333
332.829072	59720.000000
334.380131	59753.000000
335.930530	59652.000000
337.480273	59694.333333
339.029357	59893.000000
340.577785	59612.666667
342.125556	59848.333333
343.672671	59960.000000
345.219130	60028.000000
346.764933	59682.666667
348.310081	59670.000000
349.854575	59774.000000
351.398414	59952.666667
352.941599	59647.000000
354.484130	60013.333333
356.026008	59580.000000
357.567234	59668.666667
359.107807	59553.333333
360.647727	59461.666667
362.186996	59592.000000
363.725614	59412.666667
365.263580	59252.000000
366.800896	59353.000000
368.337562	59066.333333
369.873578	59161.000000
371.408944	59018.000000
372.943661	59222.666667
374.477730	59204.000000
376.011150	59238.000000
377.543922	59163.666667
379.076046	59106.000000
380.607523	58806.666667
382.138353	58725.000000
383.668537	58901.333333
385.198075	58724.000000
386.726966	58910.000000
388.255213	58983.000000
389.782814	58818.000000
391.309770	58738.666667
392.836083	58670.333333
394.361751	58667.333333
395.886776	58854.666667
397.411157	58833.000000
398.934896	58747.000000
400.457992	59003.666667
401.980446	58981.000000
403.502258	58811.666667
405.023429	58878.666667
406.543959	58977.000000
408.063849	58831.000000
409.583098	58796.333333
411.101707	58820.666667
412.619677	58873.000000
414.137007	59037.666667
415.653699	59498.333333
417.169752	59454.000000
418.685167	59660.666667
420.199945	60035.666667
421.714085	59839.000000
423.227588	60011.666667
424.740454	60341.000000
426.252684	60302.000000
427.764279	60384.666667
429.275238	60172.666667
430.785561	60266.666667
432.295250	60137.000000
433.804304	59912.000000
435.312725	59759.666667
436.820511	59550.666667
438.327664	59135.666667
439.834185	59110.333333
441.340072	58700.000000
442.845327	58589.000000
444.349951	58485.000000
445.853942	58231.666667
447.357303	58205.333333
448.860033	58110.333333
450.362132	57846.333333
451.863601	57862.666667
453.364440	57636.000000
454.864650	57390.000000
456.364231	57123.666667
457.863183	56863.000000
459.361507	56816.000000
460.859203	56609.666667
462.356271	56419.333333
463.852712	56329.666667
465.348526	56006.000000
466.843714	55989.000000
468.338275	55901.000000
469.832210	55939.000000
471.325520	55816.666667
472.818205	55573.666667
474.310265	55611.000000
475.801700	55644.333333
477.292512	55490.000000
478.782700	55428.666667
480.272264	55267.666667
481.761205	55328.000000
483.249524	55104.333333
484.737221	55138.666667
486.224295	54957.000000
487.710748	54743.000000
489.196579	54933.333333
490.681790	54906.333333
492.166380	54725.666667
493.650350	54596.333333
495.133700	54815.000000
496.616431	54687.333333
498.098542	54845.000000
499.580035	54514.333333
501.060909	54520.333333
502.541165	54437.666667
504.020804	54623.666667
505.499825	54459.666667
506.978228	54342.333333
508.456016	54093.000000
509.933186	53999.666667
511.409741	53813.666667
512.885680	53648.666667
514.361004	53809.666667
515.835713	53827.000000
517.309807	53745.000000
518.783287	53978.333333
520.256153	53696.000000
521.728406	53689.000000
523.200045	53617.000000
524.671071	53452.000000
526.141485	53520.666667
527.611287	53386.333333
529.080476	53434.666667
530.549054	53389.666667
532.017021	53308.000000
533.484378	53199.666667
534.951123	53153.000000
536.417259	53049.000000
537.882785	52979.666667
539.347701	53133.000000
540.812008	53028.333333
542.275707	52997.000000
543.738797	52837.000000
545.201279	52743.666667
546.663153	52986.000000
548.124420	52944.333333
549.585080	53141.666667
551.045133	53080.666667
552.504579	52933.333333
553.963420	53215.333333
555.421655	53076.000000
556.879285	53107.666667
558.336309	52870.333333
559.792729	53002.666667
561.248545	52929.000000
562.703756	53166.000000
564.158364	53134.000000
565.612369	53166.666667
567.065770	53182.333333
568.518569	53134.000000
569.970766	53217.333333
571.422361	53213.666667
572.873354	53241.666667
574.323745	53297.000000
575.773536	53380.666667
577.222726	53344.666667
578.671316	53603.000000
580.119306	53487.000000
581.566696	53225.000000
583.013487	53291.666667
584.459679	53125.666667
585.905273	52976.000000
587.350268	52973.000000
588.794665	52696.333333
590.238465	52890.333333
591.681667	52693.333333
593.124272	52684.666667
594.566281	52553.000000
596.007694	52177.666667
597.448510	51793.000000
598.888731	51821.666667
600.328357	51770.666667
601.767388	51629.000000
603.205824	51419.666667
604.643666	51401.000000
606.080914	51266.666667
607.517568	51363.333333
608.953629	51184.333333
610.389097	51303.000000
611.823972	51169.000000
613.258255	51066.666667
614.691946	50875.666667
616.125046	50790.000000
617.557554	50606.666667
618.989471	50591.000000
620.420798	50440.333333
621.851534	50088.000000
623.281680	49848.000000
624.711237	49625.666667
626.140204	49421.666667
627.568582	49551.000000
628.996372	49409.000000
630.423573	49003.666667
631.850186	49232.333333
633.276211	49008.666667
634.701650	49223.000000
636.126501	48876.000000
637.550765	49212.000000
638.974443	48912.000000
640.397535	48948.333333
641.820041	48835.000000
643.241961	48830.000000
644.663297	48916.666667
646.084048	48717.000000
647.504214	48440.666667
648.923796	48510.666667
650.342795	48587.666667
651.761210	48215.666667
653.179041	48144.666667
654.596290	47954.000000
656.012957	48025.333333
657.429041	47737.666667
658.844543	47876.000000
660.259464	47771.666667
661.673804	47668.000000
663.087563	47807.666667
664.500741	47678.000000
665.913339	47590.000000
667.325357	47594.666667
668.736795	47716.000000
670.147654	47514.333333
671.557934	47475.000000
672.967636	47381.666667
674.376759	47122.666667
675.785304	47181.000000
677.193271	47066.000000
678.600661	47069.000000
680.007474	46928.000000
681.413711	46828.000000
682.819370	46785.000000
684.224454	46995.666667
685.628962	46744.000000
687.032895	46684.666667
688.436252	46717.333333
689.839034	46600.333333
691.241242	46614.333333
692.642876	46443.000000
694.043936	46344.666667
695.444422	46393.000000
696.844336	46195.666667
698.243676	46032.333333
699.642443	46082.333333
701.040639	46072.666667
702.438262	46066.000000
703.835313	46069.333333
705.231794	45989.666667
706.627703	46142.333333
708.023041	45739.666667
709.417810	45611.666667
710.812008	45467.333333
712.205636	45610.666667
713.598694	45524.333333
714.991184	45667.333333
716.383105	45431.000000
717.774457	45386.333333
719.165241	45275.000000
720.555457	45241.333333
721.945105	45289.333333
723.334187	45290.000000
724.722701	45236.666667
726.110648	45140.333333
727.498030	45295.666667
728.884845	45347.333333
730.271094	45047.000000
731.656778	44984.333333
733.041897	44942.333333
734.426451	44958.666667
735.810441	44792.666667
737.193866	44950.666667
738.576728	44708.000000
739.959026	44548.333333
741.340760	44619.666667
742.721932	44503.666667
744.102541	44444.666667
745.482588	44557.333333
746.862073	44446.000000
748.240996	44525.666667
749.619358	44333.333333
750.997158	44496.666667
752.374398	44502.666667
753.751077	44162.333333
755.127197	44379.666667
756.502756	44255.000000
757.877756	44247.000000
759.252196	44004.333333
760.626078	44093.000000
761.999400	43930.000000
763.372165	44029.666667
764.744371	44046.000000
766.116020	43734.000000
767.487111	43465.666667
768.857646	43487.666667
770.227623	43375.666667
771.597044	43600.666667
772.965908	43251.666667
774.334217	43279.666667
775.701970	43145.666667
777.069168	43177.000000
778.435811	43067.000000
779.801899	42913.666667
781.167433	42749.333333
782.532412	42925.666667
783.896838	43000.666667
785.260710	42686.666667
786.624029	42732.000000
787.986796	42366.666667
789.349009	42615.666667
790.710671	42427.333333
792.071780	42517.666667
793.432338	42377.000000
794.792344	42442.000000
796.151799	42479.333333
797.510704	41951.000000
798.869058	42175.000000
800.226862	42221.000000
801.584116	42046.000000
802.940820	41896.000000
804.296975	42008.666667
805.652581	41945.333333
807.007638	41762.000000
808.362147	41920.000000
809.716108	41940.666667
811.069521	41771.000000
812.422387	41747.333333
813.774705	41568.000000
815.126476	41659.666667
816.477701	41542.000000
817.828380	41552.000000
819.178512	41504.666667
820.528099	41750.666667
821.877140	41548.666667
823.225637	41404.000000
824.573588	41406.666667
825.920995	41294.333333
827.267857	41174.333333
828.614176	40994.666667
829.959951	41121.333333
831.305183	40898.333333
832.649871	41047.000000
833.994017	41107.000000
835.337620	40985.666667
836.680681	41031.000000
838.023201	40808.000000
839.365178	40790.333333
840.706614	40627.333333
842.047510	40752.666667
843.387864	40702.000000
844.727678	40657.666667
846.066952	40693.333333
847.405687	40770.000000
848.743881	40745.333333
850.081537	40599.000000
851.418653	40840.333333
852.755231	40694.333333
854.091270	40532.333333
855.426771	40630.666667
856.761735	40465.666667
858.096160	40318.000000
859.430049	40296.666667
860.763401	40252.333333
862.096216	40186.000000
863.428495	40191.666667
864.760237	39997.000000
866.091444	39840.666667
867.422115	39990.666667
868.752252	39767.000000
870.081853	39821.666667
871.410919	39662.333333
872.739452	39539.666667
874.067450	39544.666667
875.394914	39476.000000
876.721845	39564.333333
878.048243	39125.333333
879.374108	39192.666667
880.699440	39307.000000
882.024240	39114.000000
883.348508	38953.000000
884.672244	39006.333333
885.995449	39036.333333
887.318122	38590.000000
888.640265	38885.000000
889.961877	38773.666667
891.282959	38794.000000
892.603510	38377.666667
893.923532	38458.333333
895.243024	38481.666667
896.561987	38329.333333
897.880422	38546.333333
899.198327	38345.333333
900.515705	38155.666667
901.832554	38031.000000
903.148875	38046.000000
904.464669	38088.000000
905.779936	38066.000000
907.094676	38048.333333
908.408889	38012.333333
909.722576	38069.333333
911.035737	38046.666667
912.348371	38014.000000
913.660481	37985.666667
914.972065	38268.333333
916.283124	38057.666667
917.593659	38041.000000
918.903669	38021.333333
920.213155	38156.666667
921.522117	37861.333333
922.830556	38080.333333
924.138471	37834.666667
925.445864	37995.000000
926.752733	37949.666667
928.059081	37725.666667
929.364906	37806.333333
930.670209	37861.666667
931.974991	38019.666667
933.279251	37882.000000
934.582990	38006.666667
935.886209	38145.000000
937.188907	38314.000000
938.491085	38318.000000
939.792743	38486.333333
941.093881	38590.333333
942.394500	38936.333333
943.694600	39189.000000
944.994181	39495.000000
946.293243	39857.666667
947.591787	40484.333333
948.889813	41065.333333
950.187322	41794.000000
951.484313	42960.333333
952.780787	43959.000000
954.076744	44914.000000
955.372184	45982.000000
956.667108	47337.000000
957.961516	47769.333333
959.255409	47618.666667
960.548785	47268.333333
961.841647	46479.666667
963.133993	45530.333333
964.425825	44001.666667
965.717142	42849.000000
967.007946	41521.333333
968.298235	40206.666667
969.588011	39241.000000
970.877273	38507.666667
972.166023	37542.333333
973.454259	37048.000000
974.741984	36483.333333
976.029196	36291.333333
977.315895	36054.666667
978.602084	35706.000000
979.887761	35658.333333
981.172926	35607.000000
982.457581	35482.666667
983.741725	35330.666667
985.025359	35442.666667
986.308483	35127.666667
987.591097	34940.333333
988.873202	34781.666667
990.154797	34929.666667
991.435883	34752.333333
992.716461	34741.000000
993.996530	34573.333333
995.276091	34817.666667
996.555144	34641.333333
997.833690	34721.333333
999.111728	34616.000000
1000.389259	34702.333333
1001.666283	34914.333333
1002.942800	34725.000000
1004.218812	34686.666667
1005.494317	34522.666667
1006.769317	34725.000000
1008.043811	34657.000000
1009.317799	34563.000000
1010.591283	34513.333333
1011.864263	34410.333333
1013.136737	34335.666667
1014.408708	34374.666667
1015.680175	34449.333333
1016.951138	34387.333333
1018.221598	34421.666667
1019.491554	34319.333333
1020.761008	34242.000000
1022.029959	34342.666667
1023.298408	34340.666667
1024.566355	34141.333333
1025.833800	34172.000000
1027.100744	34242.666667
1028.367187	34292.666667
1029.633128	34140.333333
1030.898569	34122.333333
1032.163509	34046.000000
1033.427949	34122.000000
1034.691890	34084.666667
1035.955330	34101.333333
1037.218271	34283.000000
1038.480714	34080.666667
1039.742657	34075.333333
1041.004101	34268.333333
1042.265048	34230.000000
1043.525496	34183.000000
1044.785446	34207.000000
1046.044899	34047.666667
1047.303855	34136.333333
1048.562313	33982.666667
1049.820275	33998.333333
1051.077740	33770.666667
1052.334709	33676.333333
1053.591182	33816.333333
1054.847160	33682.666667
1056.102641	33547.666667
1057.357628	33570.666667
1058.612120	33532.000000
1059.866117	33595.666667
1061.119619	33617.000000
1062.372628	33563.666667
1063.625142	33765.333333
1064.877163	33852.333333
1066.128691	33724.666667
1067.379725	33579.333333
1068.630267	33773.666667
1069.880316	33586.000000
1071.129872	33559.000000
1072.378937	33578.333333
1073.627509	33303.000000
1074.875590	33494.000000
1076.123180	33125.333333
1077.370279	32782.000000
1078.616887	32823.333333
1079.863004	32622.333333
1081.108631	32364.000000
1082.353768	32331.666667
1083.598415	32219.333333
1084.842573	31985.666667
1086.086241	31931.666667
1087.329421	31823.666667
1088.572111	31640.000000
1089.814314	31591.000000
1091.056028	31425.333333
1092.297253	31406.666667
1093.537992	31402.666667
1094.778242	31468.000000
1096.018006	31360.666667
1097.257282	31288.000000
1098.496072	31230.000000
1099.734376	31235.000000
1100.972193	31221.333333
1102.209524	31100.000000
1103.446370	31040.000000
1104.682730	30990.666667
1105.918604	30979.000000
1107.153994	30853.000000
1108.388900	30831.333333
1109.623320	30838.000000
1110.857257	30681.000000
1112.090710	30703.000000
1113.323679	30618.666667
1114.556164	30440.333333
1115.788167	30420.333333
1117.019686	30349.000000
1118.250723	30311.666667
1119.481278	30440.333333
1120.711350	30273.000000
1121.940940	30238.000000
1123.170049	30189.333333
1124.398676	30148.000000
1125.626823	30258.000000
1126.854488	29990.666667
1128.081672	30094.333333
1129.308376	30057.000000
1130.534600	30090.333333
1131.760345	29898.333333
1132.985609	29910.666667
1134.210394	29823.333333
1135.434700	29778.333333
1136.658527	29997.666667
1137.881875	29854.666667
1139.104745	29691.333333
1140.327136	29945.333333
1141.549050	29677.333333
1142.770486	29785.000000
1143.991445	29696.000000
1145.211926	29814.333333
1146.431931	29792.666667
1147.651459	29655.666667
1148.870510	29508.000000
1150.089086	29563.333333
1151.307185	29466.000000
1152.524808	29465.000000
1153.741957	29455.666667
1154.958630	29367.333333
1156.174828	29226.000000
1157.390551	29542.000000
1158.605800	29362.666667
1159.820574	29454.333333
1161.034875	29318.333333
1162.248702	29203.000000
1163.462055	29343.333333
1164.674936	29240.000000
1165.887343	29271.333333
1167.099277	29007.333333
1168.310739	29097.000000
1169.521729	29156.000000
1170.732247	29146.666667
1171.942293	29161.666667
1173.151867	29106.000000
1174.360970	28979.000000
1175.569602	29041.333333
1176.777764	28995.666667
1177.985454	29002.000000
1179.192675	28792.666667
1180.399425	28838.000000
1181.605706	28663.333333
1182.811517	28652.666667
1184.016859	28668.000000
1185.221731	28497.666667
1186.426135	28569.666667
1187.630070	28476.333333
1188.833537	28398.000000
1190.036535	28309.000000
1191.239066	28234.333333
1192.441129	28256.666667
1193.642725	28167.666667
1194.843853	27934.333333
1196.044515	28017.333333
1197.244710	28128.666667
1198.444438	28204.666667
1199.643701	28112.000000
1200.842497	28076.333333
1202.040827	28107.333333
1203.238693	28068.000000
1204.436092	27984.000000
1205.633027	27896.000000
1206.829497	27946.666667
1208.025503	27873.333333
1209.221044	27874.000000
1210.416122	27917.333333
1211.610735	27914.333333
1212.804885	27726.333333
1213.998572	27630.666667
1215.191795	27578.666667
1216.384556	27478.666667
1217.576854	27401.666667
1218.768689	27353.666667
1219.960063	27386.333333
1221.150974	27279.666667
1222.341424	27233.666667
1223.531413	27324.666667
1224.720940	27110.666667
1225.910006	27401.666667
1227.098612	27275.666667
1228.286757	27199.333333
1229.474442	27228.333333
1230.661667	27262.666667
1231.848432	27276.333333
1233.034738	27303.000000
1234.220584	27333.333333
1235.405971	27387.666667
1236.590900	27362.666667
1237.775369	27431.000000
1238.959381	27477.666667
1240.142934	27490.666667
1241.326029	27580.000000
1242.508667	27603.333333
1243.690848	27627.000000
1244.872571	27439.000000
1246.053837	27474.666667
1247.234646	27270.333333
1248.414999	27214.000000
1249.594896	27195.333333
1250.774337	27261.000000
1251.953322	27210.333333
1253.131851	27006.000000
1254.309925	27009.666667
1255.487544	27058.333333
1256.664708	26841.000000
1257.841417	26750.333333
1259.017673	26883.333333
1260.193473	26819.000000
1261.368820	26868.333333
1262.543714	26999.333333
1263.718154	26907.000000
1264.892140	26834.000000
1266.065674	26903.666667
1267.238755	27024.666667
1268.411383	26947.333333
1269.583559	27048.000000
1270.755283	26834.666667
1271.926555	26804.333333
1273.097375	26887.333333
1274.267744	26950.666667
1275.437662	26629.333333
1276.607129	26848.666667
1277.776145	26757.333333
1278.944711	26790.000000
1280.112827	26694.333333
1281.280492	26633.000000
1282.447708	26637.000000
1283.614474	26506.333333
1284.780791	26377.333333
1285.946659	26470.666667
1287.112078	26203.333333
1288.277048	26242.666667
1289.441570	26285.000000
1290.605644	26108.333333
1291.769270	26019.000000
1292.932448	25955.666667
1294.095178	25909.333333
1295.257461	25943.000000
1296.419298	25749.666667
1297.580687	25605.333333
1298.741630	25730.333333
1299.902126	25569.666667
1301.062177	25532.666667
1302.221781	25874.666667
1303.380940	25570.333333
1304.539653	25702.333333
1305.697921	25571.333333
1306.855744	25708.666667
1308.013123	25623.333333
1309.170056	25540.333333
1310.326546	25579.666667
1311.482591	25549.333333
1312.638193	25385.000000
1313.793350	25592.333333
1314.948065	25438.333333
1316.102336	25377.333333
1317.256164	25387.333333
1318.409550	25404.333333
1319.562493	25254.333333
1320.714993	25312.333333
1321.867052	25213.000000
1323.018668	25252.333333
1324.169843	24916.333333
1325.320577	25142.333333
1326.470870	24865.666667
1327.620721	24845.000000
1328.770132	24788.333333
1329.919102	24648.666667
1331.067632	24706.000000
1332.215722	24658.666667
1333.363372	24728.000000
1334.510582	24639.000000
1335.657353	24625.666667
1336.803685	24735.666667
1337.949578	24620.000000
1339.095032	24628.000000
1340.240048	24697.666667
1341.384625	24630.000000
1342.528764	24715.333333
1343.672466	24662.000000
1344.815729	24757.000000
1345.958556	24574.666667
1347.100945	24639.666667
1348.242897	24546.333333
1349.384413	24522.666667
1350.525492	24480.666667
1351.666134	24479.666667
1352.806341	24522.666667
1353.946111	24344.333333
1355.085446	24328.666667
1356.224346	24221.333333
1357.362810	24306.333333
1358.500840	24242.333333
1359.638434	24160.666667
1360.775594	24081.000000
1361.912320	23938.000000
1363.048612	23995.333333
1364.184469	23914.333333
1365.319893	23798.333333
1366.454884	23918.000000
1367.589441	23789.333333
1368.723566	23971.000000
1369.857257	23988.666667
1370.990516	24012.666667
1372.123343	23891.000000
1373.255737	23906.333333
1374.387699	23805.666667
1375.519230	23973.666667
1376.650329	23946.333333
1377.780997	23906.666667
1378.911234	23936.000000
1380.041040	23870.333333
1381.170416	23914.000000
1382.299361	23817.000000
1383.427875	23714.000000
1384.555960	23894.000000
1385.683615	23841.666667
1386.810841	23788.000000
1387.937637	23879.666667
1389.064004	23552.333333
1390.189942	23618.000000
1391.315451	23653.000000
1392.440532	23613.000000
1393.565185	23537.666667
1394.689409	23560.000000
1395.813206	23537.666667
1396.936575	23271.333333
1398.059517	23235.666667
1399.182032	23237.000000
1400.304119	23232.333333
1401.425780	23143.333333
1402.547014	23181.000000
1403.667822	23111.666667
1404.788204	22986.333333
1405.908160	23144.000000
1407.027690	23188.000000
1408.146795	23065.333333
1409.265474	23114.666667
1410.383728	23123.000000
1411.501558	23112.666667
1412.618963	23004.000000
1413.735943	23058.666667
1414.852499	23128.000000
1415.968632	23071.333333
1417.084340	23137.333333
1418.199625	23015.000000
1419.314486	23003.000000
1420.428925	23031.333333
1421.542940	23027.000000
1422.656533	23113.000000
1423.769703	23028.666667
1424.882451	22952.000000
1425.994777	22893.666667
1427.106680	22934.666667
1428.218163	22826.333333
1429.329223	22768.666667
1430.439863	22585.666667
1431.550081	22688.333333
1432.659879	22635.000000
1433.769256	22572.000000
1434.878212	22546.000000
1435.986749	22594.000000
1437.094865	22450.666667
1438.202562	22441.333333
1439.309839	22418.333333
1440.416696	22408.333333
1441.523135	22539.000000
1442.629154	22349.000000
1443.734755	22508.666667
1444.839937	22557.666667
1445.944701	22601.666667
1447.049047	22686.333333
1448.152975	22658.000000
1449.256485	22561.666667
1450.359577	22583.666667
1451.462253	22571.000000
1452.564511	22515.333333
1453.666352	22493.000000
1454.767777	22431.000000
1455.868785	22538.333333
1456.969377	22498.000000
1458.069553	22449.000000
1459.169313	22326.000000
1460.268658	22517.333333
1461.367587	22176.333333
1462.466101	22219.333333
1463.564200	22249.333333
1464.661884	22013.333333
1465.759153	22046.333333
1466.856008	21877.000000
1467.952449	21901.333333
1469.048476	21846.000000
1470.144089	21671.333333
1471.239288	21522.000000
1472.334074	21408.000000
1473.428447	21249.666667
1474.522407	21263.666667
1475.615955	21198.000000
1476.709089	21076.666667
1477.801812	21134.000000
1478.894122	21256.000000
1479.986020	20999.000000
1481.077506	21022.666667
1482.168581	21178.666667
1483.259245	21117.666667
1484.349498	21106.333333
1485.439339	21042.666667
1486.528770	21023.000000
1487.617790	21094.000000
1488.706400	21083.000000
1489.794600	20995.666667
1490.882390	20981.666667
1491.969771	20930.333333
1493.056742	20847.333333
1494.143303	20980.333333
1495.229456	20914.666667
1496.315199	20866.000000
1497.400534	20799.000000
1498.485460	20847.333333
1499.569978	20713.666667
1500.654088	20767.333333
1501.737790	20595.666667
1502.821085	20601.000000
1503.903972	20544.666667
1504.986451	20495.666667
1506.068524	20441.666667
1507.150189	20388.666667
1508.231448	20229.000000
1509.312301	20216.000000
1510.392747	20228.333333
1511.472787	20008.666667
1512.552422	20106.000000
1513.631650	20178.666667
1514.710473	20135.000000
1515.788891	20107.666667
1516.866904	20119.333333
1517.944512	20023.333333
1519.021715	20033.333333
1520.098513	19954.333333
1521.174908	20055.666667
1522.250898	19859.333333
1523.326485	20035.333333
1524.401667	19988.333333
1525.476447	19978.666667
1526.550823	19887.000000
1527.624796	19874.333333
1528.698365	20076.333333
1529.771533	19990.333333
1530.844298	20110.333333
1531.916660	19865.000000
1532.988620	19749.666667
1534.060179	19789.666667
1535.131336	19775.333333
1536.202091	19685.666667
1537.272445	19693.666667
1538.342398	19712.000000
1539.411950	19656.000000
1540.481101	19642.666667
1541.549851	19418.333333
1542.618202	19434.333333
1543.686152	19397.000000
1544.753702	19296.333333
1545.820853	19242.333333
1546.887604	19335.000000
1547.953955	19146.666667
1549.019908	19245.666667
1550.085461	19102.333333
1551.150616	19122.000000
1552.215372	19091.666667
1553.279730	19000.666667
1554.343690	18960.000000
1555.407252	18908.333333
1556.470415	19002.666667
1557.533182	18952.333333
1558.595551	18973.333333
1559.657522	18946.000000
1560.719097	18998.333333
1561.780275	18951.333333
1562.841056	18899.666667
1563.901441	18919.333333
1564.961429	19032.333333
1566.021022	18981.333333
1567.080219	18782.000000
1568.139020	18930.666667
1569.197425	18808.000000
1570.255436	18771.666667
1571.313051	18846.666667
1572.370271	18747.333333
1573.427097	18740.666667
1574.483528	18717.666667
1575.539565	18746.000000
1576.595208	18576.666667
1577.650457	18612.666667
1578.705312	18412.000000
1579.759774	18476.333333
1580.813842	18337.000000
1581.867517	18304.333333
1582.920799	18221.666667
1583.973689	18242.000000
1585.026186	18143.666667
1586.078290	18157.666667
1587.130002	18238.666667
1588.181323	18089.666667
1589.232251	18040.333333
1590.282788	18012.333333
1591.332933	17941.666667
1592.382688	17931.333333
1593.432051	17918.666667
1594.481023	17913.000000
1595.529605	17913.666667
1596.577796	18045.000000
1597.625597	17917.333333
1598.673007	18043.000000
1599.720028	18088.000000
1600.766660	17960.666667
1601.812901	18059.000000
1602.858753	18033.333333
1603.904217	17976.666667
1604.949291	18077.000000
1605.993976	18025.333333
1607.038273	18145.000000
1608.082182	18088.666667
1609.125702	17976.666667
1610.168834	17883.333333
1611.211579	17751.666667
1612.253935	17712.333333
1613.295905	17729.000000
1614.337487	17697.000000
1615.378682	17598.666667
1616.419490	17479.333333
1617.459912	17463.666667
1618.499946	17456.333333
1619.539595	17367.000000
1620.578858	17542.666667
1621.617734	17383.666667
1622.656225	17417.333333
1623.694330	17408.000000
1624.732050	17303.000000
1625.769385	17256.666667
1626.806334	17180.666667
1627.842899	17218.333333
1628.879079	17134.000000
1629.914875	17124.666667
1630.950286	17036.000000
1631.985314	17208.000000
1633.019957	17080.666667
1634.054217	17096.666667
1635.088093	17163.000000
1636.121586	17073.666667
1637.154696	17102.000000
1638.187423	17093.000000
1639.219767	16939.666667
1640.251728	17245.000000
1641.283307	17159.666667
1642.314504	17181.000000
1643.345319	17229.333333
1644.375751	16993.333333
1645.405803	17135.000000
1646.435472	17058.333333
1647.464761	17090.666667
1648.493668	17094.333333
1649.522194	16965.333333
1650.550340	16949.333333
1651.578105	17046.333333
1652.605490	16880.000000
1653.632494	16907.000000
1654.659119	16828.000000
1655.685363	16851.000000
1656.711228	16720.333333
1657.736714	16663.000000
1658.761820	16657.666667
1659.786547	16631.333333
1660.810895	16437.666667
1661.834865	16554.666667
1662.858456	16400.333333
1663.881668	16346.333333
1664.904503	16288.666667
1665.926959	16239.333333
1666.949038	16275.000000
1667.970739	16294.333333
1668.992062	16125.666667
1670.013008	16175.000000
1671.033577	16150.000000
1672.053770	16209.666667
1673.073585	16200.666667
1674.093024	16084.000000
1675.112086	15994.333333
1676.130773	16014.000000
1677.149083	16069.333333
1678.167017	16046.000000
1679.184576	15954.333333
1680.201760	16043.666667
1681.218568	16027.000000
1682.235001	16078.333333
1683.251059	16036.666667
1684.266742	16026.333333
1685.282051	16034.333333
1686.296985	16087.333333
1687.311546	15861.333333
1688.325732	15968.333333
1689.339544	15931.666667
1690.352983	15850.000000
1691.366048	15734.000000
1692.378740	15592.000000
1693.391058	15669.666667
1694.403004	15555.000000
1695.414577	15454.000000
1696.425778	15528.000000
1697.436606	15395.333333
1698.447061	15315.333333
1699.457145	15273.333333
1700.466857	15129.666667
1701.476197	15145.333333
1702.485166	15102.000000
1703.493763	14912.666667
1704.501989	14932.000000
1705.509844	14988.666667
1706.517328	14762.666667
1707.524442	14832.333333
1708.531185	14892.666667
1709.537558	14753.000000
1710.543561	14733.000000
1711.549194	14730.000000
1712.554457	14755.666667
1713.559351	14696.333333
1714.563875	14628.333333
1715.568030	14714.333333
1716.571816	14733.000000
1717.575233	14709.000000
1718.578282	14738.666667
1719.580962	14792.666667
1720.583273	14809.666667
1721.585217	14808.333333
1722.586792	14824.666667
1723.588000	14855.000000
1724.588840	14718.666667
1725.589312	14825.666667
1726.589418	14841.000000
1727.589156	14860.000000
1728.588527	14801.333333
1729.587532	14875.000000
1730.586170	14829.666667
1731.584441	14751.333333
1732.582346	14731.666667
1733.579886	14722.333333
1734.577059	14619.666667
1735.573867	14538.666667
1736.570309	14539.333333
1737.566386	14461.000000
1738.562097	14326.333333
1739.557444	14315.333333
1740.552426	14291.000000
1741.547043	14245.000000
1742.541295	14123.000000
1743.535184	14128.666667
1744.528708	14103.333333
1745.521868	14116.333333
1746.514664	14050.000000
1747.507097	14075.666667
1748.499166	13916.666667
1749.490873	13897.000000
1750.482216	13801.666667
1751.473196	13968.000000
1752.463813	13920.000000
1753.454068	13879.666667
1754.443960	13912.333333
1755.433490	13708.000000
1756.422658	13817.000000
1757.411464	13857.666667
1758.399908	13813.666667
1759.387991	13726.666667
1760.375713	13908.666667
1761.363073	13764.666667
1762.350072	13785.666667
1763.336711	13818.000000
1764.322988	13739.666667
1765.308905	13763.333333
1766.294462	13734.000000
1767.279659	13719.333333
1768.264496	13683.333333
1769.248972	13636.666667
1770.233089	13554.666667
1771.216847	13559.666667
1772.200245	13470.666667
1773.183284	13525.666667
1774.165965	13457.333333
1775.148286	13385.000000
1776.130249	13486.000000
1777.111853	13342.333333
1778.093099	13235.333333
1779.073987	13192.000000
1780.054517	13090.666667
1781.034689	13109.666667
1782.014503	12916.000000
1782.993960	12892.666667
1783.973060	12819.333333
1784.951802	12773.666667
1785.930188	12633.666667
1786.908217	12717.000000
1787.885889	12497.000000
1788.863205	12567.666667
1789.840164	12555.666667
1790.816768	12552.666667
1791.793015	12460.666667
1792.768907	12476.000000
1793.744443	12444.666667
1794.719624	12491.333333
1795.694449	12528.000000
1796.668919	12500.000000
1797.643035	12531.666667
1798.616795	12421.333333
1799.590201	12576.666667
1800.563253	12509.333333
1801.535950	12647.000000
1802.508294	12631.333333
1803.480283	12497.000000
1804.451919	12547.000000
1805.423201	12620.000000
1806.394129	12505.000000
1807.364705	12595.333333
1808.334927	12626.666667
1809.304796	12564.333333
1810.274313	12569.000000
1811.243477	12528.000000
1812.212288	12492.000000
1813.180747	12484.333333
1814.148855	12447.333333
1815.116610	12265.333333
1816.084013	12393.000000
1817.051065	12357.333333
1818.017766	12302.666667
1818.984115	12415.333333
1819.950113	12283.000000
1820.915760	12329.666667
1821.881057	12175.000000
1822.846003	12149.666667
1823.810598	12150.333333
1824.774843	12047.000000
1825.738738	12002.666667
1826.702283	12072.666667
1827.665479	11908.666667
1828.628324	11970.666667
1829.590821	11952.333333
1830.552968	11895.666667
1831.514765	11860.666667
1832.476214	11866.666667
1833.437314	11828.666667
1834.398066	11817.666667
1835.358469	11766.666667
1836.318524	11700.666667
1837.278230	11691.000000
1838.237589	11804.666667
1839.196600	11723.333333
1840.155263	11704.000000
1841.113578	11760.333333
1842.071547	11787.666667
1843.029168	11834.000000
1843.986442	11809.333333
1844.943369	11946.333333
1845.899950	11796.666667
1846.856184	11862.000000
1847.812072	11819.333333
1848.767614	11880.333333
1849.722809	11784.666667
1850.677659	11822.666667
1851.632163	11822.333333
1852.586322	11925.000000
1853.540135	11793.666667
1854.493603	11870.333333
1855.446726	11846.000000
1856.399504	11763.666667
1857.351937	11758.333333
1858.304026	11686.000000
1859.255770	11606.000000
1860.207170	11551.333333
1861.158227	11496.333333
1862.108939	11496.333333
1863.059307	11370.333333
1864.009332	11401.333333
1864.959013	11363.000000
1865.908351	11301.333333
1866.857346	11364.000000
1867.805998	11296.666667
1868.754307	11181.333333
1869.702274	11138.000000
1870.649898	11133.000000
1871.597180	11149.000000
1872.544119	11147.000000
1873.490717	11000.000000
1874.436973	10981.666667
1875.382887	10997.666667
1876.328459	10876.333333
1877.273691	10905.333333
1878.218581	10856.000000
1879.163130	10950.000000
1880.107338	10856.333333
1881.051205	10975.333333
1881.994732	10961.333333
1882.937919	11000.000000
1883.880765	10876.333333
1884.823271	10850.666667
1885.765437	11008.000000
1886.707264	11002.000000
1887.648750	10884.000000
1888.589898	10920.666667
1889.530706	10949.000000
1890.471175	10965.000000
1891.411305	10939.333333
1892.351096	11015.000000
1893.290548	10985.333333
1894.229662	11047.000000
1895.168438	10895.333333
1896.106876	10839.000000
1897.044975	10940.666667
1897.982737	10981.333333
1898.920160	10911.333333
1899.857247	10828.666667
1900.793996	10771.333333
1901.730407	10750.333333
1902.666482	10702.000000
1903.602219	10613.000000
1904.537620	10559.666667
1905.472685	10528.000000
1906.407412	10494.000000
1907.341804	10444.666667
1908.275859	10477.666667
1909.209579	10322.000000
1910.142962	10335.666667
1911.076010	10269.666667
1912.008722	10132.000000
1912.941099	10222.000000
1913.873141	10085.000000
1914.804848	10076.666667
1915.736219	10077.333333
1916.667256	10042.333333
1917.597959	10048.333333
1918.528327	9972.000000
1919.458360	9900.000000
1920.388060	9952.000000
1921.317426	9884.666667
1922.246457	9891.333333
1923.175156	9896.666667
1924.103520	9958.333333
1925.031552	9913.333333
1925.959250	9910.000000
1926.886615	9964.000000
1927.813647	9919.333333
1928.740346	10008.666667
1929.666713	9923.666667
1930.592748	9884.000000
1931.518450	9997.000000
1932.443820	10042.000000
1933.368858	10015.000000
1934.293564	9890.000000
1935.217939	9905.000000
1936.141982	9869.666667
1937.065694	9931.333333
1937.989074	9853.333333
1938.912124	9813.666667
1939.834842	9910.333333
1940.757230	9748.333333
1941.679287	9799.000000
1942.601014	9807.666667
1943.522411	9695.333333
1944.443477	9690.000000
1945.364214	9590.666667
1946.284621	9542.000000
1947.204698	9445.333333
1948.124445	9490.333333
1949.043863	9507.000000
1949.962952	9306.000000
1950.881712	9399.666667
1951.800143	9291.666667
1952.718245	9323.000000
1953.636019	9288.333333
1954.553464	9165.000000
1955.470581	9090.000000
1956.387369	9081.333333
1957.303830	9148.000000
1958.219963	9099.666667
1959.135768	9095.000000
1960.051246	9132.666667
1960.966396	9170.000000
1961.881219	9006.333333
1962.795715	9063.000000
1963.709883	9184.000000
1964.623726	9068.333333
1965.537241	9151.333333
1966.450430	9147.000000
1967.363293	9124.666667
1968.275829	9180.000000
1969.188040	9189.000000
1970.099924	9165.333333
1971.011483	9118.666667
1971.922716	9102.333333
1972.833624	9190.000000
1973.744206	9184.000000
1974.654464	9160.666667
1975.564396	9123.000000
1976.474004	9187.333333
1977.383286	9085.666667
1978.292245	9092.000000
1979.200878	9227.333333
1980.109188	9117.000000
1981.017174	8952.000000
1981.924835	8998.333333
1982.832173	9017.000000
1983.739187	8919.000000
1984.645878	8948.333333
1985.552245	8782.000000
1986.458289	8799.000000
1987.364010	8725.333333
1988.269408	8780.000000
1989.174484	8672.666667
1990.079236	8624.666667
1990.983667	8708.000000
1991.887775	8540.333333
1992.791561	8498.666667
1993.695024	8527.333333
1994.598166	8426.333333
1995.500986	8438.333333
1996.403485	8453.666667
1997.305662	8405.000000
1998.207518	8455.666667
1999.109053	8414.666667
2000.010267	8483.666667
2000.911160	8476.666667
2001.811732	8516.666667
2002.711984	8433.666667
2003.611915	8444.333333
2004.511526	8485.000000
2005.410817	8456.000000
2006.309788	8471.333333
2007.208439	8532.333333
2008.106771	8417.333333
2009.004783	8506.333333
2009.902475	8525.666667
2010.799849	8535.333333
2011.696903	8586.000000
2012.593638	8548.666667
2013.490055	8564.333333
2014.386153	8491.333333
2015.281932	8480.666667
2016.177394	8456.333333
2017.072536	8455.666667
2017.967361	8400.000000
2018.861868	8410.666667
2019.756057	8376.333333
2020.649929	8372.333333
2021.543483	8344.000000
2022.436720	8267.666667
2023.329639	8337.666667
2024.222241	8196.333333
2025.114527	8212.000000
2026.006496	8132.000000
2026.898148	8078.666667
2027.789484	8057.000000
2028.680503	8069.333333
2029.571206	7976.666667
2030.461594	7961.333333
2031.351665	7910.333333
2032.241420	7851.333333
2033.130860	7869.666667
2034.019985	7716.333333
2034.908794	7753.666667
2035.797288	7734.666667
2036.685467	7651.333333
2037.573331	7696.666667
2038.460880	7622.000000
2039.348115	7695.000000
2040.235035	7701.333333
2041.121641	7713.666667
2042.007933	7688.666667
2042.893911	7757.666667
2043.779575	7834.333333
2044.664925	7753.666667
2045.549961	7708.666667
2046.434685	7715.333333
2047.319094	7729.333333
2048.203191	7766.333333
2049.086975	7734.000000
2049.970445	7743.666667
2050.853603	7720.333333
2051.736449	7767.000000
2052.618982	7765.000000
2053.501202	7756.000000
2054.383111	7717.666667
2055.264707	7794.666667
2056.145991	7678.000000
2057.026964	7727.000000
2057.907625	7736.000000
2058.787975	7724.333333
2059.668013	7649.000000
2060.547741	7762.333333
2061.427157	7631.000000
2062.306262	7551.000000
2063.185056	7510.666667
2064.063540	7472.333333
2064.941714	7417.000000
2065.819577	7420.333333
2066.697130	7308.333333
2067.574372	7271.000000
2068.451305	7297.000000
2069.327928	7161.666667
2070.204242	7282.000000
2071.080246	7168.000000
2071.955940	7119.333333
2072.831326	7141.333333
2073.706402	7097.333333
2074.581170	7066.666667
2075.455628	7090.000000
2076.329778	7071.333333
2077.203620	7091.000000
2078.077153	7038.000000
2078.950378	7057.333333
2079.823294	7031.000000
2080.695903	7077.333333
2081.568204	7026.000000
2082.440197	7101.000000
2083.311883	7051.333333
2084.183261	7060.000000
2085.054333	7056.333333
2085.925097	7071.000000
2086.795554	7147.666667
2087.665704	7114.333333
2088.535547	7176.666667
2089.405084	7169.000000
2090.274315	7236.000000
2091.143239	7121.666667
2092.011857	7144.666667
2092.880169	7146.666667
2093.748175	7225.000000
2094.615875	7109.333333
2095.483270	7056.666667
2096.350360	7099.000000
2097.217144	6986.333333
2098.083622	6994.666667
2098.949796	7045.333333
2099.815665	6988.666667
2100.681229	6928.333333
2101.546489	6912.333333
2102.411444	6843.000000
2103.276094	6759.666667
2104.140441	6728.333333
2105.004483	6744.000000
2105.868222	6741.666667
2106.731656	6675.000000
2107.594787	6677.000000
2108.457614	6673.333333
2109.320138	6608.000000
2110.182359	6652.333333
2111.044277	6672.333333
2111.905891	6658.000000
2112.767203	6655.000000
2113.628212	6631.666667
2114.488919	6652.000000
2115.349323	6599.333333
2116.209424	6693.666667
2117.069224	6673.666667
2117.928721	6726.000000
2118.787917	6700.666667
2119.646811	6672.333333
2120.505403	6691.666667
2121.363694	6627.333333
2122.221683	6721.000000
2123.079371	6638.000000
2123.936758	6802.666667
2124.793844	6765.000000
2125.650630	6653.666667
2126.507114	6696.666667
2127.363298	6640.000000
2128.219182	6653.000000
2129.074765	6666.000000
2129.930048	6639.666667
2130.785032	6556.666667
2131.639715	6526.000000
2132.494099	6487.666667
2133.348183	6507.666667
2134.201967	6456.000000
2135.055452	6500.333333
2135.908638	6406.666667
2136.761525	6406.333333
2137.614113	6421.000000
2138.466403	6330.000000
2139.318393	6290.333333
2140.170085	6321.000000
2141.021479	6181.000000
2141.872574	6284.666667
2142.723371	6214.000000
2143.573871	6156.000000
2144.424072	6134.666667
2145.273976	6139.333333
2146.123582	6111.000000
2146.972891	6113.333333
2147.821902	6095.333333
2148.670616	6075.000000
2149.519033	6137.333333
2150.367153	6140.333333
2151.214976	6193.000000
2152.062503	6155.666667
2152.909733	6166.666667
2153.756667	6153.666667
2154.603304	6220.666667
2155.449646	6203.000000
2156.295691	6231.000000
2157.141441	6163.333333
2157.986894	6200.000000
2158.832052	6226.000000
2159.676915	6176.666667
2160.521482	6213.666667
2161.365755	6166.333333
2162.209732	6199.333333
2163.053414	6176.666667
2163.896801	6196.000000
2164.739894	6215.000000
2165.582692	6080.000000
2166.425196	6052.000000
2167.267405	6064.333333
2168.109320	6082.666667
2168.950941	5966.666667
2169.792269	5949.666667
2170.633302	5924.000000
2171.474042	5967.666667
2172.314489	5900.666667
2173.154642	5806.666667
2173.994502	5869.333333
2174.834068	5799.333333
2175.673342	5767.000000
2176.512323	5752.000000
2177.351011	5762.666667
2178.189407	5701.000000
2179.027510	5758.333333
2179.865321	5653.000000
2180.702840	5692.000000
2181.540066	5695.666667
2182.377001	5716.333333
2183.213644	5643.666667
2184.049995	5693.000000
2184.886055	5622.666667
2185.721823	5660.666667
2186.557300	5694.000000
2187.392486	5667.666667
2188.227381	5699.000000
2189.061985	5702.666667
2189.896298	5745.333333
2190.730320	5767.333333
2191.564052	5719.666667
2192.397494	5748.333333
2193.230646	5751.000000
2194.063507	5741.333333
2194.896078	5759.000000
2195.728360	5737.333333
2196.560351	5723.000000
2197.392053	5766.666667
2198.223466	5650.666667
2199.054589	5728.333333
2199.885424	5728.333333
