200.151048	62180.000000
201.758777	62082.333333
203.365815	62093.666667
204.972162	62222.333333
206.577820	61969.000000
208.182787	62041.000000
209.787065	62002.333333
211.390653	61972.000000
212.993553	61946.333333
214.595765	61861.666667
216.197289	61822.333333
217.798125	61563.666667
219.398274	61523.666667
220.997737	61675.666667
222.596513	61628.666667
224.194603	61488.333333
225.792008	61403.666667
227.388728	61623.666667
228.984763	61442.000000
230.580114	61587.000000
232.174781	61356.666667
233.768765	61488.000000
235.362065	61473.333333
236.954683	61548.000000
238.546619	61212.333333
240.137872	61021.333333
241.728445	61239.666667
243.318336	60886.333333
244.907546	60789.000000
246.496076	60882.666667
248.083926	60867.666667
249.671097	60708.000000
251.257589	60485.666667
252.843402	60268.333333
254.428536	60283.000000
256.012993	60310.333333
257.596772	59863.333333
259.179874	59882.666667
260.762300	59844.666667
262.344049	59765.666667
263.925122	59631.333333
265.505519	59705.000000
267.085241	59872.333333
268.664289	59652.000000
270.242662	59802.333333
271.820361	59957.666667
273.397387	59870.000000
274.973740	59736.000000
276.549419	60175.666667
278.124426	59944.666667
279.698762	60117.333333
281.272425	59960.000000
282.845417	60181.000000
284.417739	60047.333333
285.989390	60418.666667
287.560371	60374.666667
289.130682	60369.666667
290.700324	60352.333333
292.269297	60193.000000
293.837602	60061.666667
295.405238	60184.666667
296.972207	59952.000000
298.538508	60221.333333
300.104142	60118.000000
301.669110	59994.666667
303.233411	59743.333333
304.797047	59825.666667
306.360017	59507.666667
307.922322	59639.000000
309.483963	59104.333333
311.044939	59365.333333
312.605252	59084.333333
314.164900	59149.666667
315.723886	58913.000000
317.282209	58701.000000
318.839870	58708.666667
320.396868	58603.333333
321.953205	58664.333333
323.508881	58725.000000
325.063896	58479.333333
326.618251	58724.000000
328.171945	58528.000000
329.724980	58557.000000
331.277356	58414.666667
332.829072	58746.333333
334.380131	58387.333333
335.930530	58516.000000
337.480273	58679.666667
339.029357	58826.000000
340.577785	58635.333333
342.125556	58590.000000
343.672671	58562.666667
345.219130	58791.666667
346.764933	58647.333333
348.310081	58649.666667
349.854575	58755.333333
351.398414	58600.000000
352.941599	58507.666667
354.484130	58758.666667
356.026008	58369.333333
357.567234	58623.333333
359.107807	58263.666667
360.647727	58343.666667
362.186996	58345.333333
363.725614	58403.333333
365.263580	58133.333333
366.800896	58085.000000
368.337562	58062.000000
369.873578	58156.666667
371.408944	57945.000000
372.943661	57980.666667
374.477730	58017.000000
376.011150	57930.333333
377.543922	57788.666667
379.076046	57989.666667
380.607523	57627.666667
382.138353	57675.333333
383.668537	57784.333333
385.198075	57840.000000
386.726966	57812.666667
388.255213	57579.666667
389.782814	57638.000000
391.309770	57576.000000
392.836083	57628.666667
394.361751	57751.666667
395.886776	57758.666667
397.411157	57678.333333
398.934896	57642.333333
400.457992	57588.333333
401.980446	57717.333333
403.502258	57848.333333
405.023429	57864.666667
406.543959	57942.000000
408.063849	57735.333333
409.583098	57862.000000
411.101707	57994.333333
412.619677	57928.333333
414.137007	58341.000000
415.653699	58307.666667
417.169752	58362.000000
418.685167	58600.666667
420.199945	58789.666667
421.714085	58960.666667
423.227588	58860.666667
424.740454	59049.000000
426.252684	58994.333333
427.764279	59108.333333
429.275238	58888.333333
430.785561	59034.000000
432.295250	58795.000000
433.804304	58623.666667
435.312725	58487.666667
436.820511	58334.000000
438.327664	57923.333333
439.834185	57630.666667
441.340072	57784.666667
442.845327	57472.000000
444.349951	57452.000000
445.853942	57098.666667
447.357303	56989.666667
448.860033	56900.333333
450.362132	56901.333333
451.863601	56814.666667
453.364440	56204.000000
454.864650	56538.333333
456.364231	56137.666667
457.863183	55979.333333
459.361507	55842.333333
460.859203	55686.333333
462.356271	55509.000000
463.852712	55460.666667
465.348526	55233.000000
466.843714	54907.000000
468.338275	54965.000000
469.832210	54988.666667
471.325520	54889.666667
472.818205	54656.666667
474.310265	54624.333333
475.801700	54650.000000
477.292512	54476.333333
478.782700	54531.666667
480.272264	54481.333333
481.761205	54248.333333
483.249524	54213.000000
484.737221	54175.333333
486.224295	54072.666667
487.710748	54083.333333
489.196579	53982.666667
490.681790	54000.000000
492.166380	54027.333333
493.650350	53850.666667
495.133700	53741.333333
496.616431	53834.666667
498.098542	54050.000000
499.580035	53581.000000
501.060909	53706.000000
502.541165	53583.333333
504.020804	53533.333333
505.499825	53461.000000
506.978228	53460.000000
508.456016	53387.000000
509.933186	53070.000000
511.409741	52955.666667
512.885680	53113.666667
514.361004	53041.666667
515.835713	52957.666667
517.309807	52875.666667
518.783287	52767.666667
520.256153	52748.666667
521.728406	52541.000000
523.200045	52854.000000
524.671071	52619.333333
526.141485	52509.000000
527.611287	52438.000000
529.080476	52551.666667
530.549054	52219.333333
532.017021	52346.333333
533.484378	52086.666667
534.951123	52129.666667
536.417259	52158.000000
537.882785	51926.666667
539.347701	52009.333333
540.812008	52018.000000
542.275707	52032.666667
543.738797	51874.666667
545.201279	51856.666667
546.663153	51994.000000
548.124420	52061.333333
549.585080	52052.333333
551.045133	51998.000000
552.504579	52049.333333
553.963420	52114.666667
555.421655	51920.333333
556.879285	52090.333333
558.336309	52112.333333
559.792729	51906.333333
561.248545	51964.333333
562.703756	51959.000000
564.158364	51766.333333
565.612369	52139.333333
567.065770	52059.333333
568.518569	52255.666667
569.970766	52286.333333
571.422361	52039.333333
572.873354	52095.666667
574.323745	52342.000000
575.773536	52451.333333
577.222726	52156.666667
578.671316	52549.333333
580.119306	52452.666667
581.566696	52280.333333
583.013487	52243.666667
584.459679	52142.666667
585.905273	51895.333333
587.350268	52075.666667
588.794665	51789.000000
590.238465	51619.000000
591.681667	51613.333333
593.124272	51417.666667
594.566281	51352.666667
596.007694	51228.666667
597.448510	50724.000000
598.888731	50689.666667
600.328357	50599.666667
601.767388	50427.666667
603.205824	50408.333333
604.643666	50397.666667
606.080914	50277.000000
607.517568	50023.666667
608.953629	50207.666667
610.389097	50072.000000
611.823972	50093.000000
613.258255	49973.000000
614.691946	49556.666667
616.125046	49691.666667
617.557554	49195.000000
618.989471	49215.666667
620.420798	49210.333333
621.851534	48976.333333
623.281680	48767.333333
624.711237	48726.666667
626.140204	48477.333333
627.568582	48359.666667
628.996372	48359.666667
630.423573	48171.333333
631.850186	48125.333333
633.276211	47917.333333
634.701650	48090.333333
636.126501	47959.000000
637.550765	47894.000000
638.974443	47725.000000
640.397535	47739.666667
641.820041	47771.666667
643.241961	47886.666667
644.663297	47625.000000
646.084048	47479.333333
647.504214	47556.000000
648.923796	47597.333333
650.342795	47569.333333
651.761210	47192.666667
653.179041	47154.333333
654.596290	47017.000000
656.012957	47009.333333
657.429041	46924.000000
658.844543	47066.666667
660.259464	46902.666667
661.673804	46890.666667
663.087563	46787.000000
664.500741	46960.333333
665.913339	46717.000000
667.325357	46788.666667
668.736795	46634.333333
670.147654	46573.000000
671.557934	46427.333333
672.967636	46419.666667
674.376759	46545.000000
675.785304	46175.000000
677.193271	46266.666667
678.600661	46218.333333
680.007474	45977.333333
681.413711	45948.000000
682.819370	45795.333333
684.224454	45903.333333
685.628962	45696.333333
687.032895	45697.000000
688.436252	45565.000000
689.839034	45430.333333
691.241242	45330.666667
692.642876	45265.666667
694.043936	45472.333333
695.444422	45454.000000
696.844336	45065.000000
698.243676	45181.000000
699.642443	45227.333333
701.040639	45000.333333
702.438262	45316.333333
703.835313	44952.333333
705.231794	44953.666667
706.627703	44945.333333
708.023041	44911.000000
709.417810	44772.666667
710.812008	44741.000000
712.205636	44774.000000
713.598694	44517.000000
714.991184	44453.000000
716.383105	44621.666667
717.774457	44322.666667
719.165241	44518.333333
720.555457	44250.333333
721.945105	44146.000000
723.334187	44285.333333
724.722701	44294.666667
726.110648	44194.000000
727.498030	44062.666667
728.884845	44237.333333
730.271094	43884.333333
731.656778	44077.000000
733.041897	43946.000000
734.426451	44012.333333
735.810441	43759.333333
737.193866	43821.666667
738.576728	43631.000000
739.959026	43529.000000
741.340760	43829.333333
742.721932	43676.000000
744.102541	43510.000000
745.482588	43359.666667
746.862073	43374.666667
748.240996	43447.666667
749.619358	43430.666667
750.997158	43230.333333
752.374398	43441.333333
753.751077	43179.666667
755.127197	43277.333333
756.502756	43165.000000
757.877756	43250.000000
759.252196	43053.333333
760.626078	42946.000000
761.999400	43019.000000
763.372165	42886.000000
764.744371	42789.666667
766.116020	42607.000000
767.487111	42774.000000
768.857646	42478.333333
770.227623	42453.333333
771.597044	42256.000000
772.965908	42173.666667
774.334217	42174.333333
775.701970	42066.333333
777.069168	42048.666667
778.435811	42049.000000
779.801899	41898.000000
781.167433	41987.666667
782.532412	41914.333333
783.896838	41918.000000
785.260710	41630.666667
786.624029	41677.000000
787.986796	41610.333333
789.349009	41665.333333
790.710671	41497.333333
792.071780	41360.666667
793.432338	41218.666667
794.792344	41419.666667
796.151799	41091.333333
797.510704	41392.666667
798.869058	41184.666667
800.226862	41000.000000
801.584116	40924.666667
802.940820	41025.000000
804.296975	40812.333333
805.652581	41010.333333
807.007638	40842.000000
808.362147	41082.333333
809.716108	40825.666667
811.069521	40727.666667
812.422387	40745.333333
813.774705	40731.333333
815.126476	40714.000000
816.477701	40588.666667
817.828380	40471.000000
819.178512	40447.000000
820.528099	40473.333333
821.877140	40473.666667
823.225637	40333.333333
824.573588	40207.000000
825.920995	40317.333333
827.267857	40408.666667
828.614176	40062.666667
829.959951	40253.000000
831.305183	40055.666667
832.649871	40016.333333
833.994017	39775.000000
835.337620	39861.000000
836.680681	40029.333333
838.023201	39872.000000
839.365178	39914.333333
840.706614	39802.000000
842.047510	39740.000000
843.387864	39600.666667
844.727678	39806.333333
846.066952	39751.000000
847.405687	39729.000000
848.743881	39623.000000
850.081537	39785.333333
851.418653	39606.333333
852.755231	39619.000000
854.091270	39672.666667
855.426771	39627.000000
856.761735	39628.666667
858.096160	39460.333333
859.430049	39189.333333
860.763401	39204.666667
862.096216	39182.000000
863.428495	38895.333333
864.760237	38978.000000
866.091444	38853.333333
867.422115	38899.000000
868.752252	38772.000000
870.081853	38769.333333
871.410919	38854.000000
872.739452	38769.666667
874.067450	38513.000000
875.394914	38402.666667
876.721845	38427.333333
878.048243	38298.000000
879.374108	38117.333333
880.699440	38354.000000
882.024240	38029.000000
883.348508	38028.666667
884.672244	38098.333333
885.995449	38073.333333
887.318122	37949.666667
888.640265	37793.666667
889.961877	37800.666667
891.282959	37788.666667
892.603510	37650.666667
893.923532	37610.000000
895.243024	37642.666667
896.561987	37354.000000
897.880422	37265.000000
899.198327	37335.000000
900.515705	37190.333333
901.832554	37036.333333
903.148875	37229.000000
904.464669	37160.000000
905.779936	36988.000000
907.094676	36932.000000
908.408889	37034.666667
909.722576	36902.333333
911.035737	37060.000000
912.348371	36926.000000
913.660481	37047.333333
914.972065	36953.000000
916.283124	37315.000000
917.593659	37211.666667
918.903669	37147.666667
920.213155	36981.000000
921.522117	36997.666667
922.830556	37054.666667
924.138471	36918.666667
925.445864	36924.000000
926.752733	36831.333333
928.059081	36900.000000
929.364906	36948.666667
930.670209	36805.666667
931.974991	36965.666667
933.279251	36983.000000
934.582990	36857.333333
935.886209	37264.666667
937.188907	37342.000000
938.491085	37367.666667
939.792743	37567.666667
941.093881	37787.000000
942.394500	38106.666667
943.694600	38356.666667
944.994181	38659.333333
946.293243	39130.333333
947.591787	39465.666667
948.889813	40312.000000
950.187322	40939.333333
951.484313	41894.333333
952.780787	42709.000000
954.076744	43817.333333
955.372184	44618.333333
956.667108	45309.666667
957.961516	45712.000000
959.255409	45645.666667
960.548785	45189.000000
961.841647	44385.333333
963.133993	43416.000000
964.425825	42144.666667
965.717142	40863.000000
967.007946	40010.666667
968.298235	38706.000000
969.588011	37983.666667
970.877273	37061.666667
972.166023	36525.333333
973.454259	35939.666667
974.741984	35749.333333
976.029196	35296.000000
977.315895	35036.666667
978.602084	34951.333333
979.887761	34743.000000
981.172926	34556.666667
982.457581	34490.000000
983.741725	34453.000000
985.025359	34320.333333
986.308483	34187.333333
987.591097	33939.666667
988.873202	33944.333333
990.154797	33742.333333
991.435883	33813.333333
992.716461	33808.000000
993.996530	33771.666667
995.276091	33878.666667
996.555144	33627.000000
997.833690	33849.000000
999.111728	33666.000000
1000.389259	33935.000000
1001.666283	33776.000000
1002.942800	33767.666667
1004.218812	33737.000000
1005.494317	33666.666667
1006.769317	33606.000000
1008.043811	33543.666667
1009.317799	33495.000000
1010.591283	33484.333333
1011.864263	33420.333333
1013.136737	33420.000000
1014.408708	33154.000000
1015.680175	33635.000000
1016.951138	33514.666667
1018.221598	33405.000000
1019.491554	33356.333333
1020.761008	33229.666667
1022.029959	33274.000000
1023.298408	33199.333333
1024.566355	33224.333333
1025.833800	33194.333333
1027.100744	33305.333333
1028.367187	33306.666667
1029.633128	33186.000000
1030.898569	33207.000000
1032.163509	33118.333333
1033.427949	33210.000000
1034.691890	33267.000000
1035.955330	33112.666667
1037.218271	33283.333333
1038.480714	33169.333333
1039.742657	33094.333333
1041.004101	33253.666667
1042.265048	33204.333333
1043.525496	33230.000000
1044.785446	33195.666667
1046.044899	32892.000000
1047.303855	33242.666667
1048.562313	32972.666667
1049.820275	32684.666667
1051.077740	32773.000000
1052.334709	32757.666667
1053.591182	32755.000000
1054.847160	32608.333333
1056.102641	32659.000000
1057.357628	32581.000000
1058.612120	32588.666667
1059.866117	32596.000000
1061.119619	32558.333333
1062.372628	32561.666667
1063.625142	32560.333333
1064.877163	32738.333333
1066.128691	32578.666667
1067.379725	32757.000000
1068.630267	32753.000000
1069.880316	32703.333333
1071.129872	32542.333333
1072.378937	32295.000000
1073.627509	32302.666667
1074.875590	32157.666667
1076.123180	32086.666667
1077.370279	31996.333333
1078.616887	31791.666667
1079.863004	31770.000000
1081.108631	31503.000000
1082.353768	31395.666667
1083.598415	31104.000000
1084.842573	31099.000000
1086.086241	30845.000000
1087.329421	30940.000000
1088.572111	30723.333333
1089.814314	30596.000000
1091.056028	30459.000000
1092.297253	30539.333333
1093.537992	30639.666667
1094.778242	30414.666667
1096.018006	30208.333333
1097.257282	30242.000000
1098.496072	30241.000000
1099.734376	30276.000000
1100.972193	30165.666667
1102.209524	30241.000000
1103.446370	30222.000000
1104.682730	30139.000000
1105.918604	30082.333333
1107.153994	29802.000000
1108.388900	29927.333333
1109.623320	29819.000000
1110.857257	29761.333333
1112.090710	29634.000000
1113.323679	29598.000000
1114.556164	29567.666667
1115.788167	29509.333333
1117.019686	29447.000000
1118.250723	29373.333333
1119.481278	29299.000000
1120.711350	29262.666667
1121.940940	29409.666667
1123.170049	29157.000000
1124.398676	29160.333333
1125.626823	29150.000000
1126.854488	29231.000000
1128.081672	29080.333333
1129.308376	29131.000000
1130.534600	28893.333333
1131.760345	28983.000000
1132.985609	29078.333333
1134.210394	28939.000000
1135.434700	28983.666667
1136.658527	28818.666667
1137.881875	28841.000000
1139.104745	28823.333333
1140.327136	28791.333333
1141.549050	28714.666667
1142.770486	28741.000000
1143.991445	28772.000000
1145.211926	28608.333333
1146.431931	28673.000000
1147.651459	28737.666667
1148.870510	28635.000000
1150.089086	28552.333333
1151.307185	28465.666667
1152.524808	28582.333333
1153.741957	28440.666667
1154.958630	28481.000000
1156.174828	28429.666667
1157.390551	28285.000000
1158.605800	28288.333333
1159.820574	28391.666667
1161.034875	28226.000000
1162.248702	28300.333333
1163.462055	28204.333333
1164.674936	28237.000000
1165.887343	28181.666667
1167.099277	28202.000000
1168.310739	28247.666667
1169.521729	28124.666667
1170.732247	28115.000000
1171.942293	27969.000000
1173.151867	28068.333333
1174.360970	28106.333333
1175.569602	27992.666667
1176.777764	27973.333333
1177.985454	27909.666667
1179.192675	27824.333333
1180.399425	27738.000000
1181.605706	27834.666667
1182.811517	27694.666667
1184.016859	27550.666667
1185.221731	27395.666667
1186.426135	27461.666667
1187.630070	27500.666667
1188.833537	27336.666667
1190.036535	27149.333333
1191.239066	27345.666667
1192.441129	27161.666667
1193.642725	27045.333333
1194.843853	27075.333333
1196.044515	27209.666667
1197.244710	27138.333333
1198.444438	27112.333333
1199.643701	26966.000000
1200.842497	27038.000000
1202.040827	27086.666667
1203.238693	27119.666667
1204.436092	26897.000000
1205.633027	26974.000000
1206.829497	26964.000000
1208.025503	26988.333333
1209.221044	26914.000000
1210.416122	26764.333333
1211.610735	26654.333333
1212.804885	26832.000000
1213.998572	26689.000000
1215.191795	26622.000000
1216.384556	26448.000000
1217.576854	26390.333333
1218.768689	26388.333333
1219.960063	26392.666667
1221.150974	26299.333333
1222.341424	26330.666667
1223.531413	26374.333333
1224.720940	26313.666667
1225.910006	26061.000000
1227.098612	26279.333333
1228.286757	26279.333333
1229.474442	26292.666667
1230.661667	26224.333333
1231.848432	26359.666667
1233.034738	26312.666667
1234.220584	26476.000000
1235.405971	26345.333333
1236.590900	26394.000000
1237.775369	26595.333333
1238.959381	26522.333333
1240.142934	26495.000000
1241.326029	26575.666667
1242.508667	26465.333333
1243.690848	26542.666667
1244.872571	26349.666667
1246.053837	26346.666667
1247.234646	26209.666667
1248.414999	26318.000000
1249.594896	26178.333333
1250.774337	26129.333333
1251.953322	26099.000000
1253.131851	26138.333333
1254.309925	26028.666667
1255.487544	25861.000000
1256.664708	25893.333333
1257.841417	25890.666667
1259.017673	25775.333333
1260.193473	25804.333333
1261.368820	25897.333333
1262.543714	25865.333333
1263.718154	25966.333333
1264.892140	25964.000000
1266.065674	25892.000000
1267.238755	25968.666667
1268.411383	26011.666667
1269.583559	25867.000000
1270.755283	25907.000000
1271.926555	25989.666667
1273.097375	26045.333333
1274.267744	25806.666667
1275.437662	25887.000000
1276.607129	25833.000000
1277.776145	25783.666667
1278.944711	25683.333333
1280.112827	25714.666667
1281.280492	25620.333333
1282.447708	25421.333333
1283.614474	25481.000000
1284.780791	25213.666667
1285.946659	25270.666667
1287.112078	25220.000000
1288.277048	25246.333333
1289.441570	25064.333333
1290.605644	25098.333333
1291.769270	24933.666667
1292.932448	24847.333333
1294.095178	24884.333333
1295.257461	24867.333333
1296.419298	24750.666667
1297.580687	24661.666667
1298.741630	24669.666667
1299.902126	24594.333333
1301.062177	24620.666667
1302.221781	24679.333333
1303.380940	24479.666667
1304.539653	24721.666667
1305.697921	24658.000000
1306.855744	24434.666667
1308.013123	24670.000000
1309.170056	24524.666667
1310.326546	24415.666667
1311.482591	24452.666667
1312.638193	24544.333333
1313.793350	24492.000000
1314.948065	24423.333333
1316.102336	24329.000000
1317.256164	24392.000000
1318.409550	24314.666667
1319.562493	24215.333333
1320.714993	24110.333333
1321.867052	23956.666667
1323.018668	23977.666667
1324.169843	23979.666667
1325.320577	23948.333333
1326.470870	23906.000000
1327.620721	23731.666667
1328.770132	23740.333333
1329.919102	23611.666667
1331.067632	23580.666667
1332.215722	23620.666667
1333.363372	23587.000000
1334.510582	23579.666667
1335.657353	23607.666667
1336.803685	23626.666667
1337.949578	23594.000000
1339.095032	23782.333333
1340.240048	23667.333333
1341.384625	23608.000000
1342.528764	23660.666667
1343.672466	23597.666667
1344.815729	23565.333333
1345.958556	23603.666667
1347.100945	23552.333333
1348.242897	23605.666667
1349.384413	23329.333333
1350.525492	23422.000000
1351.666134	23239.000000
1352.806341	23353.333333
1353.946111	23202.333333
1355.085446	23231.333333
1356.224346	23106.000000
1357.362810	23104.333333
1358.500840	22975.000000
1359.638434	22923.666667
1360.775594	22978.000000
1361.912320	22800.666667
1363.048612	22828.333333
1364.184469	22872.000000
1365.319893	22852.666667
1366.454884	22764.666667
1367.589441	22805.666667
1368.723566	22810.666667
1369.857257	22828.333333
1370.990516	22698.333333
1372.123343	22748.666667
1373.255737	22826.666667
1374.387699	22795.333333
1375.519230	22825.000000
1376.650329	22786.000000
1377.780997	22657.666667
1378.911234	22842.000000
1380.041040	22758.000000
1381.170416	22854.333333
1382.299361	22663.333333
1383.427875	22671.666667
1384.555960	22527.333333
1385.683615	22576.000000
1386.810841	22551.666667
1387.937637	22591.000000
1389.064004	22457.666667
1390.189942	22517.333333
1391.315451	22426.666667
1392.440532	22286.666667
1393.565185	22206.000000
1394.689409	22231.666667
1395.813206	22233.666667
1396.936575	22113.000000
1398.059517	22180.333333
1399.182032	22064.000000
1400.304119	22105.333333
1401.425780	22096.000000
1402.547014	22064.333333
1403.667822	21919.333333
1404.788204	21976.333333
1405.908160	22023.666667
1407.027690	21956.000000
1408.146795	21965.000000
1409.265474	21906.333333
1410.383728	21929.333333
1411.501558	22134.333333
1412.618963	21982.666667
1413.735943	21906.000000
1414.852499	21926.000000
1415.968632	22031.666667
1417.084340	21970.000000
1418.199625	21918.666667
1419.314486	21943.000000
1420.428925	21901.666667
1421.542940	21869.666667
1422.656533	21888.666667
1423.769703	21836.666667
1424.882451	21815.333333
1425.994777	21801.333333
1427.106680	21674.666667
1428.218163	21672.000000
1429.329223	21478.333333
1430.439863	21535.333333
1431.550081	21537.666667
1432.659879	21322.666667
1433.769256	21477.666667
1434.878212	21368.666667
1435.986749	21346.000000
1437.094865	21213.000000
1438.202562	21304.666667
1439.309839	21447.333333
1440.416696	21215.000000
1441.523135	21365.000000
1442.629154	21289.000000
1443.734755	21461.666667
1444.839937	21497.333333
1445.944701	21500.000000
1447.049047	21437.666667
1448.152975	21466.666667
1449.256485	21411.666667
1450.359577	21555.000000
1451.462253	21303.000000
1452.564511	21288.000000
1453.666352	21412.666667
1454.767777	21339.666667
1455.868785	21436.333333
1456.969377	21279.000000
1458.069553	21155.666667
1459.169313	21096.333333
1460.268658	21036.000000
1461.367587	21036.000000
1462.466101	20980.333333
1463.564200	20868.333333
1464.661884	20796.333333
1465.759153	20678.666667
1466.856008	20736.666667
1467.952449	20530.000000
1469.048476	20541.666667
1470.144089	20407.666667
1471.239288	20401.333333
1472.334074	20404.666667
1473.428447	20191.666667
1474.522407	20082.000000
1475.615955	20009.333333
1476.709089	20061.000000
1477.801812	19951.666667
1478.894122	19899.666667
1479.986020	19832.000000
1481.077506	19952.000000
1482.168581	19834.000000
1483.259245	19892.333333
1484.349498	19895.666667
1485.439339	19803.666667
1486.528770	19900.000000
1487.617790	19899.666667
1488.706400	19704.333333
1489.794600	19712.666667
1490.882390	19763.000000
1491.969771	19666.666667
1493.056742	19725.333333
1494.143303	19773.333333
1495.229456	19672.666667
1496.315199	19683.333333
1497.400534	19569.000000
1498.485460	19431.666667
1499.569978	19471.666667
1500.654088	19366.666667
1501.737790	19446.000000
1502.821085	19356.333333
1503.903972	19233.000000
1504.986451	19090.333333
1506.068524	19185.000000
1507.150189	19185.666667
1508.231448	19062.666667
1509.312301	18938.666667
1510.392747	18953.333333
1511.472787	18880.666667
1512.552422	18939.666667
1513.631650	18838.000000
1514.710473	18822.333333
1515.788891	18851.000000
1516.866904	18709.000000
1517.944512	18808.666667
1519.021715	18793.666667
1520.098513	18904.333333
1521.174908	18687.333333
1522.250898	18693.666667
1523.326485	18719.333333
1524.401667	18786.333333
1525.476447	18765.666667
1526.550823	18727.000000
1527.624796	18761.333333
1528.698365	18731.000000
1529.771533	18669.333333
1530.844298	18679.333333
1531.916660	18583.666667
1532.988620	18607.333333
1534.060179	18583.333333
1535.131336	18540.333333
1536.202091	18508.333333
1537.272445	18452.666667
1538.342398	18382.666667
1539.411950	18262.666667
1540.481101	18301.666667
1541.549851	18252.333333
1542.618202	18050.000000
1543.686152	18107.333333
1544.753702	18160.666667
1545.820853	18052.000000
1546.887604	17956.666667
1547.953955	17985.333333
1549.019908	17868.333333
1550.085461	18055.333333
1551.150616	17903.333333
1552.215372	17909.666667
1553.279730	17724.666667
1554.343690	17839.000000
1555.407252	17801.666667
1556.470415	17839.000000
1557.533182	17859.666667
1558.595551	17650.000000
1559.657522	17778.000000
1560.719097	17722.666667
1561.780275	17702.333333
1562.841056	17696.666667
1563.901441	17683.333333
1564.961429	17771.333333
1566.021022	17739.333333
1567.080219	17650.000000
1568.139020	17640.333333
1569.197425	17813.666667
1570.255436	17603.000000
1571.313051	17634.000000
1572.370271	17618.333333
1573.427097	17518.666667
1574.483528	17583.333333
1575.539565	17439.000000
1576.595208	17469.666667
1577.650457	17487.333333
1578.705312	17392.666667
1579.759774	17235.333333
1580.813842	17295.000000
1581.867517	17132.333333
1582.920799	17047.666667
1583.973689	17059.000000
1585.026186	17043.666667
1586.078290	16971.000000
1587.130002	17027.000000
1588.181323	16952.000000
1589.232251	16908.333333
1590.282788	16745.333333
1591.332933	16833.333333
1592.382688	16828.666667
1593.432051	16741.333333
1594.481023	16831.000000
1595.529605	16858.333333
1596.577796	16783.000000
1597.625597	16685.666667
1598.673007	16913.333333
1599.720028	16855.000000
1600.766660	16815.333333
1601.812901	16793.333333
1602.858753	16830.333333
1603.904217	16925.333333
1604.949291	16939.333333
1605.993976	16880.333333
1607.038273	16767.333333
1608.082182	16807.333333
1609.125702	16833.333333
1610.168834	16686.000000
1611.211579	16610.000000
1612.253935	16680.333333
1613.295905	16613.333333
1614.337487	16555.666667
1615.378682	16505.000000
1616.419490	16394.000000
1617.459912	16357.666667
1618.499946	16538.000000
1619.539595	16345.666667
1620.578858	16283.666667
1621.617734	16392.333333
1622.656225	16256.666667
1623.694330	16158.666667
1624.732050	16118.000000
1625.769385	16172.666667
1626.806334	16060.666667
1627.842899	16106.333333
1628.879079	15924.000000
1629.914875	15970.333333
1630.950286	15982.666667
1631.985314	16042.333333
1633.019957	15923.666667
1634.054217	15923.333333
1635.088093	16007.333333
1636.121586	15968.000000
1637.154696	16061.333333
1638.187423	15998.333333
1639.219767	15972.333333
1640.251728	15974.666667
1641.283307	15998.000000
1642.314504	15921.000000
1643.345319	16086.000000
1644.375751	15970.000000
1645.405803	16023.666667
1646.435472	15908.666667
1647.464761	15983.666667
1648.493668	15816.000000
1649.522194	15948.000000
1650.550340	15979.666667
1651.578105	15865.666667
1652.605490	15784.666667
1653.632494	15780.333333
1654.659119	15769.000000
1655.685363	15706.000000
1656.711228	15557.000000
1657.736714	15695.000000
1658.761820	15515.666667
1659.786547	15335.333333
1660.810895	15425.000000
1661.834865	15385.666667
1662.858456	15340.333333
1663.881668	15213.000000
1664.904503	15258.333333
1665.926959	15183.333333
1666.949038	15052.000000
1667.970739	15134.666667
1668.992062	15101.000000
1670.013008	15105.000000
1671.033577	15061.333333
1672.053770	14953.000000
1673.073585	14982.000000
1674.093024	14996.333333
1675.112086	14858.333333
1676.130773	14878.000000
1677.149083	14901.000000
1678.167017	14878.000000
1679.184576	14844.666667
1680.201760	14877.333333
1681.218568	14904.333333
1682.235001	14875.333333
1683.251059	14891.333333
1684.266742	14837.333333
1685.282051	14773.000000
1686.296985	14828.333333
1687.311546	14782.666667
1688.325732	14727.666667
1689.339544	14526.333333
1690.352983	14564.666667
1691.366048	14630.666667
1692.378740	14600.333333
1693.391058	14449.333333
1694.403004	14404.666667
1695.414577	14302.333333
1696.425778	14226.000000
1697.436606	14199.666667
1698.447061	14222.000000
1699.457145	14106.000000
1700.466857	14009.000000
1701.476197	13990.333333
1702.485166	13868.000000
1703.493763	13908.000000
1704.501989	13736.000000
1705.509844	13782.000000
1706.517328	13744.000000
1707.524442	13691.666667
1708.531185	13641.000000
1709.537558	13625.000000
1710.543561	13664.666667
1711.549194	13580.333333
1712.554457	13529.000000
1713.559351	13603.000000
1714.563875	13624.666667
1715.568030	13614.666667
1716.571816	13603.333333
1717.575233	13614.666667
1718.578282	13640.333333
1719.580962	13703.000000
1720.583273	13677.333333
1721.585217	13645.000000
1722.586792	13589.333333
1723.588000	13669.666667
1724.588840	13675.000000
1725.589312	13605.000000
1726.589418	13597.000000
1727.589156	13628.000000
1728.588527	13692.333333
1729.587532	13674.000000
1730.586170	13562.333333
1731.584441	13502.666667
1732.582346	13523.000000
1733.579886	13466.666667
1734.577059	13493.666667
1735.573867	13436.000000
1736.570309	13400.666667
1737.566386	13289.666667
1738.562097	13199.333333
1739.557444	13216.666667
1740.552426	13107.666667
1741.547043	12941.666667
1742.541295	13007.000000
1743.535184	13016.000000
1744.528708	12918.333333
1745.521868	12978.000000
1746.514664	12974.333333
1747.507097	12796.333333
1748.499166	12778.333333
1749.490873	12730.000000
1750.482216	12783.000000
1751.473196	12785.333333
1752.463813	12807.000000
1753.454068	12751.666667
1754.443960	12652.000000
1755.433490	12741.000000
1756.422658	12667.333333
1757.411464	12683.333333
1758.399908	12665.000000
1759.387991	12748.333333
1760.375713	12652.333333
1761.363073	12667.333333
1762.350072	12588.000000
1763.336711	12608.000000
1764.322988	12610.000000
1765.308905	12640.333333
1766.294462	12573.666667
1767.279659	12566.000000
1768.264496	12468.333333
1769.248972	12368.666667
1770.233089	12370.666667
1771.216847	12404.000000
1772.200245	12279.666667
1773.183284	12395.333333
1774.165965	12311.000000
1775.148286	12315.333333
1776.130249	12163.666667
1777.111853	12120.333333
1778.093099	12014.333333
1779.073987	12065.000000
1780.054517	12062.000000
1781.034689	11883.333333
1782.014503	11798.666667
1782.993960	11825.333333
1783.973060	11675.666667
1784.951802	11630.333333
1785.930188	11581.000000
1786.908217	11536.666667
1787.885889	11554.333333
1788.863205	11517.333333
1789.840164	11549.333333
1790.816768	11421.333333
1791.793015	11421.666667
1792.768907	11484.666667
1793.744443	11460.333333
1794.719624	11525.333333
1795.694449	11417.000000
1796.668919	11478.666667
1797.643035	11452.000000
1798.616795	11456.000000
1799.590201	11493.333333
1800.563253	11433.333333
1801.535950	11515.333333
1802.508294	11484.666667
1803.480283	11485.666667
1804.451919	11517.333333
1805.423201	11474.000000
1806.394129	11542.000000
1807.364705	11472.666667
1808.334927	11419.000000
1809.304796	11470.333333
1810.274313	11415.333333
1811.243477	11411.333333
1812.212288	11384.666667
1813.180747	11329.333333
1814.148855	11330.666667
1815.116610	11250.333333
1816.084013	11232.333333
1817.051065	11248.666667
1818.017766	11273.000000
1818.984115	11148.000000
1819.950113	11181.666667
1820.915760	11215.666667
1821.881057	11061.000000
1822.846003	11060.333333
1823.810598	11099.666667
1824.774843	11044.666667
1825.738738	11000.333333
1826.702283	10916.333333
1827.665479	10897.666667
1828.628324	10794.000000
1829.590821	10801.000000
1830.552968	10752.000000
1831.514765	10750.000000
1832.476214	10779.000000
1833.437314	10743.333333
1834.398066	10690.333333
1835.358469	10673.333333
1836.318524	10679.333333
1837.278230	10706.333333
1838.237589	10692.666667
1839.196600	10593.000000
1840.155263	10642.000000
1841.113578	10634.333333
1842.071547	10706.666667
1843.029168	10711.000000
1843.986442	10712.000000
1844.943369	10728.666667
1845.899950	10767.666667
1846.856184	10835.333333
1847.812072	10702.333333
1848.767614	10786.000000
1849.722809	10717.000000
1850.677659	10735.666667
1851.632163	10747.000000
1852.586322	10719.333333
1853.540135	10781.333333
1854.493603	10715.333333
1855.446726	10672.333333
1856.399504	10627.666667
1857.351937	10589.333333
1858.304026	10587.333333
1859.255770	10514.000000
1860.207170	10497.000000
1861.158227	10404.666667
1862.108939	10358.333333
1863.059307	10332.666667
1864.009332	10295.000000
1864.959013	10234.333333
1865.908351	10256.666667
1866.857346	10175.000000
1867.805998	10134.000000
1868.754307	10115.000000
1869.702274	10040.666667
1870.649898	10045.666667
1871.597180	10051.333333
1872.544119	9915.666667
1873.490717	9983.333333
1874.436973	9983.333333
1875.382887	9905.333333
1876.328459	9927.000000
1877.273691	9848.333333
1878.218581	9841.333333
1879.163130	9810.666667
1880.107338	9866.000000
1881.051205	9772.333333
1881.994732	9932.000000
1882.937919	9862.333333
1883.880765	9850.333333
1884.823271	9803.666667
1885.765437	9860.333333
1886.707264	9865.666667
1887.648750	9919.666667
1888.589898	9902.666667
1889.530706	9894.666667
1890.471175	9905.666667
1891.411305	9830.333333
1892.351096	9996.000000
1893.290548	9819.000000
1894.229662	9799.000000
1895.168438	9854.333333
1896.106876	9872.333333
1897.044975	9791.000000
1897.982737	9787.000000
1898.920160	9758.333333
1899.857247	9732.666667
1900.793996	9756.666667
1901.730407	9676.333333
1902.666482	9558.666667
1903.602219	9574.000000
1904.537620	9558.666667
1905.472685	9495.333333
1906.407412	9503.666667
1907.341804	9389.666667
1908.275859	9339.000000
1909.209579	9319.666667
1910.142962	9224.333333
1911.076010	9232.000000
1912.008722	9152.333333
1912.941099	9164.000000
1913.873141	9167.666667
1914.804848	9055.000000
1915.736219	8955.000000
1916.667256	9035.666667
1917.597959	8950.666667
1918.528327	8937.333333
1919.458360	8920.000000
1920.388060	8879.666667
1921.317426	8926.666667
1922.246457	8938.000000
1923.175156	8922.333333
1924.103520	8947.000000
1925.031552	8885.000000
1925.959250	8908.333333
1926.886615	8968.666667
1927.813647	8926.000000
1928.740346	8946.333333
1929.666713	8951.000000
1930.592748	8987.666667
1931.518450	8984.666667
1932.443820	8953.000000
1933.368858	8860.666667
1934.293564	8937.333333
1935.217939	8966.333333
1936.141982	8939.666667
1937.065694	8805.333333
1937.989074	8864.666667
1938.912124	8800.333333
1939.834842	8784.666667
1940.757230	8727.000000
1941.679287	8774.666667
1942.601014	8716.000000
1943.522411	8705.333333
1944.443477	8641.000000
1945.364214	8648.333333
1946.284621	8523.000000
1947.204698	8465.000000
1948.124445	8495.000000
1949.043863	8448.333333
1949.962952	8453.000000
1950.881712	8338.333333
1951.800143	8343.000000
1952.718245	8231.666667
1953.636019	8250.666667
1954.553464	8247.333333
1955.470581	8181.666667
1956.387369	8220.666667
1957.303830	8281.666667
1958.219963	8203.000000
1959.135768	8096.666667
1960.051246	8142.666667
1960.966396	8155.666667
1961.881219	8162.666667
1962.795715	8162.333333
1963.709883	8163.000000
1964.623726	8210.666667
1965.537241	8192.333333
1966.450430	8231.666667
1967.363293	8181.666667
1968.275829	8151.333333
1969.188040	8249.666667
1970.099924	8153.666667
1971.011483	8261.666667
1971.922716	8229.333333
1972.833624	8241.666667
1973.744206	8226.666667
1974.654464	8212.000000
1975.564396	8171.333333
1976.474004	8253.000000
1977.383286	8196.000000
1978.292245	8176.333333
1979.200878	8127.666667
1980.109188	8117.666667
1981.017174	8134.666667
1981.924835	8050.000000
1982.832173	8088.000000
1983.739187	7974.333333
1984.645878	7980.333333
1985.552245	7862.000000
1986.458289	7894.000000
1987.364010	7871.666667
1988.269408	7750.666667
1989.174484	7812.333333
1990.079236	7758.000000
1990.983667	7764.666667
1991.887775	7778.000000
1992.791561	7644.333333
1993.695024	7585.666667
1994.598166	7619.666667
1995.500986	7677.666667
1996.403485	7577.666667
1997.305662	7556.333333
1998.207518	7539.666667
1999.109053	7627.000000
2000.010267	7507.000000
2000.911160	7581.000000
2001.811732	7565.333333
2002.711984	7587.666667
2003.611915	7515.000000
2004.511526	7557.333333
2005.410817	7542.000000
2006.309788	7562.000000
2007.208439	7595.333333
2008.106771	7606.666667
2009.004783	7649.000000
2009.902475	7560.666667
2010.799849	7585.000000
2011.696903	7666.000000
2012.593638	7576.000000
2013.490055	7572.333333
2014.386153	7590.000000
2015.281932	7585.333333
2016.177394	7643.000000
2017.072536	7485.666667
2017.967361	7574.000000
2018.861868	7579.333333
2019.756057	7506.666667
2020.649929	7576.666667
2021.543483	7396.666667
2022.436720	7418.333333
2023.329639	7480.000000
2024.222241	7309.000000
2025.114527	7243.666667
2026.006496	7300.666667
2026.898148	7268.666667
2027.789484	7203.333333
2028.680503	7213.666667
2029.571206	7155.666667
2030.461594	7195.333333
2031.351665	7075.000000
2032.241420	7065.666667
2033.130860	6999.333333
2034.019985	6978.333333
2034.908794	6940.333333
2035.797288	6846.666667
2036.685467	6921.666667
2037.573331	6917.000000
2038.460880	6879.666667
2039.348115	6852.666667
2040.235035	6816.000000
2041.121641	6853.000000
2042.007933	6814.333333
2042.893911	6929.666667
2043.779575	6941.000000
2044.664925	6867.666667
2045.549961	6891.333333
2046.434685	6910.666667
2047.319094	6845.666667
2048.203191	6869.333333
2049.086975	6994.666667
2049.970445	6901.666667
2050.853603	6899.000000
2051.736449	6926.000000
2052.618982	6889.666667
2053.501202	6909.000000
2054.383111	6922.000000
2055.264707	6922.000000
2056.145991	6868.333333
2057.026964	6898.666667
2057.907625	6905.000000
2058.787975	6896.000000
2059.668013	6771.666667
2060.547741	6765.666667
2061.427157	6829.333333
2062.306262	6812.333333
2063.185056	6685.666667
2064.063540	6642.000000
2064.941714	6661.333333
2065.819577	6606.000000
2066.697130	6588.333333
2067.574372	6584.333333
2068.451305	6482.666667
2069.327928	6402.333333
2070.204242	6400.000000
2071.080246	6378.333333
2071.955940	6403.666667
2072.831326	6400.000000
2073.706402	6346.333333
2074.581170	6339.333333
2075.455628	6265.666667
2076.329778	6298.000000
2077.203620	6321.666667
2078.077153	6290.666667
2078.950378	6196.666667
2079.823294	6270.000000
2080.695903	6259.333333
2081.568204	6278.333333
2082.440197	6332.333333
2083.311883	6308.333333
2084.183261	6293.333333
2085.054333	6319.333333
2085.925097	6311.333333
2086.795554	6365.000000
2087.665704	6330.000000
2088.535547	6265.333333
2089.405084	6376.666667
2090.274315	6321.333333
2091.143239	6336.333333
2092.011857	6331.666667
2092.880169	6330.000000
2093.748175	6284.000000
2094.615875	6272.333333
2095.483270	6316.333333
2096.350360	6280.666667
2097.217144	6224.000000
2098.083622	6241.333333
2098.949796	6172.000000
2099.815665	6209.666667
2100.681229	6130.333333
2101.546489	6081.666667
2102.411444	6057.333333
2103.276094	6020.666667
2104.140441	6039.333333
2105.004483	6000.000000
2105.868222	5976.000000
2106.731656	5992.666667
2107.594787	5864.666667
2108.457614	5871.666667
2109.320138	5917.000000
2110.182359	5880.000000
2111.044277	5909.666667
2111.905891	5921.333333
2112.767203	5881.333333
2113.628212	5880.666667
2114.488919	5938.000000
2115.349323	5864.000000
2116.209424	5938.333333
2117.069224	5906.333333
2117.928721	5933.000000
2118.787917	5906.000000
2119.646811	5903.666667
2120.505403	5975.666667
2121.363694	5954.333333
2122.221683	6002.333333
2123.079371	5910.000000
2123.936758	5977.666667
2124.793844	5959.666667
2125.650630	6020.000000
2126.507114	6009.333333
2127.363298	5889.000000
2128.219182	5897.333333
2129.074765	5931.333333
2129.930048	5945.000000
2130.785032	5768.333333
2131.639715	5780.333333
2132.494099	5797.666667
2133.348183	5717.333333
2134.201967	5667.000000
2135.055452	5653.000000
2135.908638	5710.666667
2136.761525	5654.000000
2137.614113	5582.666667
2138.466403	5623.666667
2139.318393	5611.000000
2140.170085	5566.666667
2141.021479	5504.333333
2141.872574	5527.666667
2142.723371	5491.333333
2143.573871	5542.666667
2144.424072	5480.000000
2145.273976	5411.000000
2146.123582	5451.666667
2146.972891	5458.666667
2147.821902	5415.666667
2148.670616	5442.333333
2149.519033	5383.666667
2150.367153	5422.000000
2151.214976	5415.333333
2152.062503	5460.333333
2152.909733	5389.000000
2153.756667	5486.666667
2154.603304	5439.333333
2155.449646	5495.000000
2156.295691	5504.666667
2157.141441	5496.333333
2157.986894	5508.666667
2158.832052	5498.666667
2159.676915	5476.666667
2160.521482	5538.666667
2161.365755	5472.000000
2162.209732	5472.000000
2163.053414	5503.333333
2163.896801	5417.333333
2164.739894	5376.000000
2165.582692	5459.666667
2166.425196	5371.000000
2167.267405	5409.000000
2168.109320	5342.333333
2168.950941	5302.333333
2169.792269	5289.333333
2170.633302	5299.000000
2171.474042	5221.666667
2172.314489	5172.666667
2173.154642	5181.666667
2173.994502	5163.000000
2174.834068	5148.333333
2175.673342	5110.333333
2176.512323	5106.666667
2177.351011	5049.666667
2178.189407	5071.000000
2179.027510	4951.666667
2179.865321	4966.333333
2180.702840	4976.666667
2181.540066	5013.000000
2182.377001	5000.666667
2183.213644	4952.000000
2184.049995	4948.000000
2184.886055	4946.333333
2185.721823	4981.666667
2186.557300	4974.000000
2187.392486	4992.000000
2188.227381	5054.333333
2189.061985	4962.666667
2189.896298	4957.666667
2190.730320	5012.000000
2191.564052	5031.000000
2192.397494	5059.666667
2193.230646	5042.333333
2194.063507	5063.333333
2194.896078	5053.333333
2195.728360	5019.666667
2196.560351	5089.666667
2197.392053	5075.333333
2198.223466	5019.333333
2199.054589	4998.333333
2199.885424	4940.000000
