200.151048	21694.666667
201.758777	21765.333333
203.365815	21772.000000
204.972162	21624.666667
206.577820	21622.000000
208.182787	21541.000000
209.787065	21544.666667
211.390653	21465.666667
212.993553	21380.666667
214.595765	21468.000000
216.197289	21385.666667
217.798125	21374.000000
219.398274	21246.000000
220.997737	21278.666667
222.596513	21173.333333
224.194603	21117.000000
225.792008	21243.666667
227.388728	21256.666667
228.984763	21085.000000
230.580114	21190.666667
232.174781	21178.000000
233.768765	21112.333333
235.362065	21077.666667
236.954683	20977.333333
238.546619	21039.666667
240.137872	20891.666667
241.728445	20783.666667
243.318336	20802.333333
244.907546	20841.000000
246.496076	20681.666667
248.083926	20518.000000
249.671097	20665.333333
251.257589	20534.333333
252.843402	20517.000000
254.428536	20403.000000
256.012993	20451.666667
257.596772	20342.000000
259.179874	20297.000000
260.762300	20282.000000
262.344049	20158.333333
263.925122	20188.666667
265.505519	20193.333333
267.085241	20174.666667
268.664289	20001.000000
270.242662	20006.333333
271.820361	20210.666667
273.397387	20153.666667
274.973740	20108.666667
276.549419	20124.000000
278.124426	20226.000000
279.698762	20122.333333
281.272425	20128.333333
282.845417	20218.333333
284.417739	20184.666667
285.989390	20162.000000
287.560371	20161.666667
289.130682	20175.666667
290.700324	20120.000000
292.269297	20195.666667
293.837602	19990.000000
295.405238	20114.666667
296.972207	20034.000000
298.538508	20020.333333
300.104142	19901.000000
301.669110	19981.333333
303.233411	19757.000000
304.797047	19836.333333
306.360017	19761.000000
307.922322	19761.000000
309.483963	19643.000000
311.044939	19609.333333
312.605252	19576.666667
314.164900	19525.666667
315.723886	19310.666667
317.282209	19426.333333
318.839870	19256.000000
320.396868	19269.333333
321.953205	19197.333333
323.508881	19199.333333
325.063896	19022.000000
326.618251	19166.666667
328.171945	19171.000000
329.724980	19072.333333
331.277356	19065.000000
332.829072	19158.000000
334.380131	19044.000000
335.930530	19001.666667
337.480273	19021.666667
339.029357	18930.000000
340.577785	18937.666667
342.125556	18984.666667
343.672671	19000.333333
345.219130	18976.333333
346.764933	18840.000000
348.310081	18947.000000
349.854575	18833.666667
351.398414	18768.333333
352.941599	18737.000000
354.484130	18715.666667
356.026008	18831.000000
357.567234	18792.333333
359.107807	18635.666667
360.647727	18741.666667
362.186996	18774.333333
363.725614	18645.333333
365.263580	18649.000000
366.800896	18599.000000
368.337562	18538.333333
369.873578	18580.666667
371.408944	18416.666667
372.943661	18479.000000
374.477730	18507.666667
376.011150	18574.333333
377.543922	18544.333333
379.076046	18613.333333
380.607523	18557.000000
382.138353	18465.000000
383.668537	18522.333333
385.198075	18543.000000
386.726966	18669.666667
388.255213	18539.000000
389.782814	18654.333333
391.309770	18642.000000
392.836083	18624.000000
394.361751	18604.666667
395.886776	18719.333333
397.411157	18675.000000
398.934896	18748.000000
400.457992	18669.333333
401.980446	18719.333333
403.502258	18664.000000
405.023429	18804.666667
406.543959	18869.666667
408.063849	18890.666667
409.583098	18974.666667
411.101707	18984.000000
412.619677	19089.333333
414.137007	19137.333333
415.653699	19398.333333
417.169752	19300.000000
418.685167	19421.000000
420.199945	19641.000000
421.714085	19852.666667
423.227588	19953.666667
424.740454	20171.000000
426.252684	20236.333333
427.764279	20316.666667
429.275238	20190.666667
430.785561	20067.000000
432.295250	20062.333333
433.804304	19943.000000
435.312725	19887.666667
436.820511	19707.333333
438.327664	19729.000000
439.834185	19638.333333
441.340072	19500.000000
442.845327	19165.333333
444.349951	19214.000000
445.853942	19265.666667
447.357303	19129.666667
448.860033	19044.666667
450.362132	18995.000000
451.863601	18932.000000
453.364440	18852.333333
454.864650	18662.666667
456.364231	18432.333333
457.863183	18396.666667
459.361507	18217.000000
460.859203	18147.000000
462.356271	18269.000000
463.852712	18026.000000
465.348526	17876.333333
466.843714	17871.333333
468.338275	17765.000000
469.832210	17750.333333
471.325520	17638.000000
472.818205	17580.000000
474.310265	17568.000000
475.801700	17410.666667
477.292512	17554.000000
478.782700	17463.000000
480.272264	17307.333333
481.761205	17382.000000
483.249524	17180.000000
484.737221	17428.000000
486.224295	17168.333333
487.710748	17247.333333
489.196579	17286.000000
490.681790	17103.000000
492.166380	17162.333333
493.650350	17138.666667
495.133700	17075.666667
496.616431	17111.666667
498.098542	17151.000000
499.580035	17031.000000
501.060909	17031.000000
502.541165	16976.000000
504.020804	16924.000000
505.499825	16917.333333
506.978228	16957.000000
508.456016	16765.333333
509.933186	16914.000000
511.409741	16813.666667
512.885680	16878.000000
514.361004	16864.666667
515.835713	16808.000000
517.309807	16780.333333
518.783287	16834.333333
520.256153	16801.000000
521.728406	16774.666667
523.200045	16817.666667
524.671071	16703.666667
526.141485	16839.666667
527.611287	16724.000000
529.080476	16736.000000
530.549054	16689.000000
532.017021	16768.000000
533.484378	16768.000000
534.951123	16786.000000
536.417259	16650.000000
537.882785	16656.000000
539.347701	16551.666667
540.812008	16729.666667
542.275707	16640.000000
543.738797	16650.333333
545.201279	16564.666667
546.663153	16583.666667
548.124420	16649.333333
549.585080	16731.000000
551.045133	16748.333333
552.504579	16631.000000
553.963420	16756.333333
555.421655	16685.333333
556.879285	16642.000000
558.336309	16859.000000
559.792729	16627.000000
561.248545	16817.333333
562.703756	16859.000000
564.158364	16845.666667
565.612369	16986.666667
567.065770	16885.666667
568.518569	16982.000000
569.970766	17057.333333
571.422361	17098.333333
572.873354	17153.666667
574.323745	17296.666667
575.773536	17410.000000
577.222726	17508.666667
578.671316	17553.000000
580.119306	17580.000000
581.566696	17560.000000
583.013487	17543.666667
584.459679	17499.000000
585.905273	17537.000000
587.350268	17577.333333
588.794665	17568.000000
590.238465	17434.333333
591.681667	17379.000000
593.124272	17190.000000
594.566281	17178.333333
596.007694	16922.000000
597.448510	16728.666667
598.888731	16789.666667
600.328357	16661.666667
601.767388	16533.333333
603.205824	16503.333333
604.643666	16471.000000
606.080914	16422.666667
607.517568	16607.333333
608.953629	16450.333333
610.389097	16502.000000
611.823972	16251.666667
613.258255	16225.000000
614.691946	16242.000000
616.125046	16169.333333
617.557554	15914.000000
618.989471	15965.333333
620.420798	15932.333333
621.851534	15714.333333
623.281680	15646.333333
624.711237	15623.000000
626.140204	15595.666667
627.568582	15529.000000
628.996372	15453.000000
630.423573	15307.000000
631.850186	15346.000000
633.276211	15329.000000
634.701650	15207.666667
636.126501	15254.000000
637.550765	15223.666667
638.974443	15151.000000
640.397535	15217.333333
641.820041	15108.000000
643.241961	15171.333333
644.663297	15159.000000
646.084048	15186.333333
647.504214	15122.666667
648.923796	15122.666667
650.342795	15057.666667
651.761210	15028.666667
653.179041	14990.333333
654.596290	14985.000000
656.012957	14981.000000
657.429041	15006.333333
658.844543	15019.666667
660.259464	14910.666667
661.673804	14814.000000
663.087563	15020.000000
664.500741	14902.666667
665.913339	14868.000000
667.325357	14917.333333
668.736795	14913.000000
670.147654	14854.000000
671.557934	14838.333333
672.967636	14789.000000
674.376759	14790.333333
675.785304	14815.333333
677.193271	14735.333333
678.600661	14687.333333
680.007474	14717.333333
681.413711	14770.666667
682.819370	14767.666667
684.224454	14574.000000
685.628962	14622.000000
687.032895	14601.000000
688.436252	14453.666667
689.839034	14632.000000
691.241242	14531.000000
692.642876	14519.666667
694.043936	14658.333333
695.444422	14578.666667
696.844336	14575.666667
698.243676	14533.000000
699.642443	14506.666667
701.040639	14470.666667
702.438262	14544.333333
703.835313	14559.000000
705.231794	14536.666667
706.627703	14457.000000
708.023041	14449.666667
709.417810	14374.000000
710.812008	14311.000000
712.205636	14326.000000
713.598694	14375.333333
714.991184	14316.666667
716.383105	14285.000000
717.774457	14331.333333
719.165241	14385.333333
720.555457	14280.000000
721.945105	14322.666667
723.334187	14272.666667
724.722701	14330.000000
726.110648	14265.333333
727.498030	14253.333333
728.884845	14232.666667
730.271094	14287.333333
731.656778	14209.333333
733.041897	14286.333333
734.426451	14114.666667
735.810441	14112.000000
737.193866	14147.333333
738.576728	14164.000000
739.959026	14042.000000
741.340760	14004.333333
742.721932	14083.666667
744.102541	14043.666667
745.482588	14098.666667
746.862073	14050.000000
748.240996	14054.666667
749.619358	14086.000000
750.997158	14066.333333
752.374398	14049.666667
753.751077	13981.666667
755.127197	13985.000000
756.502756	14069.333333
757.877756	13947.333333
759.252196	14025.333333
760.626078	14024.666667
761.999400	13985.333333
763.372165	13973.666667
764.744371	13958.333333
766.116020	13863.333333
767.487111	13874.666667
768.857646	13868.666667
770.227623	13809.666667
771.597044	13785.000000
772.965908	13749.000000
774.334217	13752.000000
775.701970	13721.333333
777.069168	13762.000000
778.435811	13679.333333
779.801899	13704.333333
781.167433	13648.000000
782.532412	13640.333333
783.896838	13630.000000
785.260710	13498.000000
786.624029	13498.666667
787.986796	13614.000000
789.349009	13517.666667
790.710671	13425.000000
792.071780	13518.333333
793.432338	13450.333333
794.792344	13447.000000
796.151799	13321.666667
797.510704	13409.666667
798.869058	13369.000000
800.226862	13374.666667
801.584116	13441.000000
802.940820	13390.000000
804.296975	13309.666667
805.652581	13462.333333
807.007638	13378.666667
808.362147	13435.000000
809.716108	13447.000000
811.069521	13394.666667
812.422387	13458.666667
813.774705	13396.666667
815.126476	13354.000000
816.477701	13419.666667
817.828380	13378.666667
819.178512	13318.333333
820.528099	13245.000000
821.877140	13282.000000
823.225637	13192.666667
824.573588	13240.000000
825.920995	13229.666667
827.267857	13141.666667
828.614176	13190.666667
829.959951	13181.666667
831.305183	13169.000000
832.649871	13169.333333
833.994017	13209.666667
835.337620	13129.666667
836.680681	13111.000000
838.023201	13194.000000
839.365178	13157.000000
840.706614	13103.666667
842.047510	13283.000000
843.387864	13192.000000
844.727678	13195.666667
846.066952	13288.333333
847.405687	13335.666667
848.743881	13317.333333
850.081537	13326.000000
851.418653	13379.000000
852.755231	13425.666667
854.091270	13405.333333
855.426771	13341.333333
856.761735	13414.666667
858.096160	13322.333333
859.430049	13349.666667
860.763401	13198.000000
862.096216	13174.666667
863.428495	13164.666667
864.760237	13110.666667
866.091444	13189.000000
867.422115	13006.333333
868.752252	13004.333333
870.081853	13105.666667
871.410919	13084.000000
872.739452	12966.666667
874.067450	13054.000000
875.394914	12945.666667
876.721845	13065.666667
878.048243	12882.666667
879.374108	12976.666667
880.699440	12872.666667
882.024240	12973.666667
883.348508	12792.666667
884.672244	12723.666667
885.995449	12850.000000
887.318122	12681.666667
888.640265	12736.333333
889.961877	12696.333333
891.282959	12717.333333
892.603510	12627.000000
893.923532	12606.000000
895.243024	12583.333333
896.561987	12541.666667
897.880422	12495.666667
899.198327	12515.666667
900.515705	12434.666667
901.832554	12539.666667
903.148875	12419.000000
904.464669	12501.000000
905.779936	12461.666667
907.094676	12510.666667
908.408889	12541.333333
909.722576	12525.333333
911.035737	12607.000000
912.348371	12613.666667
913.660481	12606.666667
914.972065	12741.666667
916.283124	12786.000000
917.593659	12779.666667
918.903669	12833.333333
920.213155	12783.000000
921.522117	12734.666667
922.830556	12818.333333
924.138471	12817.000000
925.445864	12818.000000
926.752733	12747.333333
928.059081	12795.666667
929.364906	12873.666667
930.670209	12849.666667
931.974991	13004.333333
933.279251	13085.333333
934.582990	13060.000000
935.886209	13258.000000
937.188907	13219.000000
938.491085	13496.333333
939.792743	13560.666667
941.093881	13879.000000
942.394500	13982.666667
943.694600	14191.333333
944.994181	14643.666667
946.293243	14945.000000
947.591787	15524.000000
948.889813	15832.333333
950.187322	16554.666667
951.484313	17276.666667
952.780787	18069.666667
954.076744	19022.000000
955.372184	19908.000000
956.667108	20488.333333
957.961516	21126.333333
959.255409	21131.333333
960.548785	20929.666667
961.841647	20311.666667
963.133993	19481.666667
964.425825	18412.333333
965.717142	17419.000000
967.007946	16347.333333
968.298235	15486.666667
969.588011	14792.666667
970.877273	14123.000000
972.166023	13475.000000
973.454259	13211.333333
974.741984	12782.666667
976.029196	12483.333333
977.315895	12351.666667
978.602084	12237.000000
979.887761	12052.666667
981.172926	11945.000000
982.457581	11952.333333
983.741725	11818.000000
985.025359	11773.000000
986.308483	11689.333333
987.591097	11742.000000
988.873202	11673.333333
990.154797	11602.666667
991.435883	11591.000000
992.716461	11561.666667
993.996530	11587.666667
995.276091	11648.000000
996.555144	11630.666667
997.833690	11704.000000
999.111728	11733.333333
1000.389259	11757.666667
1001.666283	11839.666667
1002.942800	11812.333333
1004.218812	11782.333333
1005.494317	11756.666667
1006.769317	11732.666667
1008.043811	11642.666667
1009.317799	11569.666667
1010.591283	11647.666667
1011.864263	11672.000000
1013.136737	11606.333333
1014.408708	11603.333333
1015.680175	11764.333333
1016.951138	11636.333333
1018.221598	11663.666667
1019.491554	11695.666667
1020.761008	11672.333333
1022.029959	11766.333333
1023.298408	11712.666667
1024.566355	11902.333333
1025.833800	11753.000000
1027.100744	11950.333333
1028.367187	11860.333333
1029.633128	11910.333333
1030.898569	11791.000000
1032.163509	11895.000000
1033.427949	11907.000000
1034.691890	11929.000000
1035.955330	11828.000000
1037.218271	11876.666667
1038.480714	11734.666667
1039.742657	11934.666667
1041.004101	11891.333333
1042.265048	11907.000000
1043.525496	11859.666667
1044.785446	11886.333333
1046.044899	11972.333333
1047.303855	11767.000000
1048.562313	11889.666667
1049.820275	11780.333333
1051.077740	11797.666667
1052.334709	11696.333333
1053.591182	11692.333333
1054.847160	11675.666667
1056.102641	11795.666667
1057.357628	11741.333333
1058.612120	11724.000000
1059.866117	11815.000000
1061.119619	11861.333333
1062.372628	11824.666667
1063.625142	11945.666667
1064.877163	11902.666667
1066.128691	11952.666667
1067.379725	12030.000000
1068.630267	11940.666667
1069.880316	11850.333333
1071.129872	11896.333333
1072.378937	11782.333333
1073.627509	11729.666667
1074.875590	11624.333333
1076.123180	11596.000000
1077.370279	11545.666667
1078.616887	11362.333333
1079.863004	11355.000000
1081.108631	11187.333333
1082.353768	11133.666667
1083.598415	11003.000000
1084.842573	10933.666667
1086.086241	10873.333333
1087.329421	10834.666667
1088.572111	10781.333333
1089.814314	10681.333333
1091.056028	10647.000000
1092.297253	10613.333333
1093.537992	10571.666667
1094.778242	10551.000000
1096.018006	10550.666667
1097.257282	10623.666667
1098.496072	10605.000000
1099.734376	10559.333333
1100.972193	10590.666667
1102.209524	10568.333333
1103.446370	10565.000000
1104.682730	10451.000000
1105.918604	10439.000000
1107.153994	10431.666667
1108.388900	10422.333333
1109.623320	10301.666667
1110.857257	10332.333333
1112.090710	10194.333333
1113.323679	10125.666667
1114.556164	10222.333333
1115.788167	10211.333333
1117.019686	10171.000000
1118.250723	10058.000000
1119.481278	10076.333333
1120.711350	10092.000000
1121.940940	10135.333333
1123.170049	10132.333333
1124.398676	10131.333333
1125.626823	10093.666667
1126.854488	10094.666667
1128.081672	10062.333333
1129.308376	10007.333333
1130.534600	9966.333333
1131.760345	9933.666667
1132.985609	9966.000000
1134.210394	9965.333333
1135.434700	9827.666667
1136.658527	9883.000000
1137.881875	9839.666667
1139.104745	9845.000000
1140.327136	9896.666667
1141.549050	9867.000000
1142.770486	9829.666667
1143.991445	9918.666667
1145.211926	9917.666667
1146.431931	9891.000000
1147.651459	9845.666667
1148.870510	9798.333333
1150.089086	9746.666667
1151.307185	9741.000000
1152.524808	9780.333333
1153.741957	9737.666667
1154.958630	9854.000000
1156.174828	9843.666667
1157.390551	9757.333333
1158.605800	9787.333333
1159.820574	9803.666667
1161.034875	9791.666667
1162.248702	9811.666667
1163.462055	9733.000000
1164.674936	9761.333333
1165.887343	9706.666667
1167.099277	9728.666667
1168.310739	9690.666667
1169.521729	9661.000000
1170.732247	9659.333333
1171.942293	9767.666667
1173.151867	9781.000000
1174.360970	9745.333333
1175.569602	9669.666667
1176.777764	9657.333333
1177.985454	9670.000000
1179.192675	9633.666667
1180.399425	9592.333333
1181.605706	9614.000000
1182.811517	9534.333333
1184.016859	9567.666667
1185.221731	9511.333333
1186.426135	9521.666667
1187.630070	9570.666667
1188.833537	9518.000000
1190.036535	9513.333333
1191.239066	9502.000000
1192.441129	9520.333333
1193.642725	9412.333333
1194.843853	9481.333333
1196.044515	9443.000000
1197.244710	9437.666667
1198.444438	9501.666667
1199.643701	9473.666667
1200.842497	9446.333333
1202.040827	9435.333333
1203.238693	9452.000000
1204.436092	9457.000000
1205.633027	9401.000000
1206.829497	9343.333333
1208.025503	9390.000000
1209.221044	9385.000000
1210.416122	9323.000000
1211.610735	9317.333333
1212.804885	9312.333333
1213.998572	9180.333333
1215.191795	9239.666667
1216.384556	9220.000000
1217.576854	9227.000000
1218.768689	9256.333333
1219.960063	9189.666667
1221.150974	9236.666667
1222.341424	9248.333333
1223.531413	9253.333333
1224.720940	9236.333333
1225.910006	9266.666667
1227.098612	9332.333333
1228.286757	9318.333333
1229.474442	9371.666667
1230.661667	9369.333333
1231.848432	9490.333333
1233.034738	9378.000000
1234.220584	9442.000000
1235.405971	9484.000000
1236.590900	9475.333333
1237.775369	9501.333333
1238.959381	9527.000000
1240.142934	9474.000000
1241.326029	9519.666667
1242.508667	9578.000000
1243.690848	9558.333333
1244.872571	9492.666667
1246.053837	9643.000000
1247.234646	9594.333333
1248.414999	9524.000000
1249.594896	9522.000000
1250.774337	9427.000000
1251.953322	9460.000000
1253.131851	9480.666667
1254.309925	9456.333333
1255.487544	9361.333333
1256.664708	9358.000000
1257.841417	9412.000000
1259.017673	9378.000000
1260.193473	9293.333333
1261.368820	9378.666667
1262.543714	9365.000000
1263.718154	9377.333333
1264.892140	9379.666667
1266.065674	9442.666667
1267.238755	9363.333333
1268.411383	9361.333333
1269.583559	9409.333333
1270.755283	9373.666667
1271.926555	9398.666667
1273.097375	9337.000000
1274.267744	9306.000000
1275.437662	9292.333333
1276.607129	9326.333333
1277.776145	9325.666667
1278.944711	9308.333333
1280.112827	9252.000000
1281.280492	9229.666667
1282.447708	9247.000000
1283.614474	9230.666667
1284.780791	9146.666667
1285.946659	9105.666667
1287.112078	9092.333333
1288.277048	9002.333333
1289.441570	8995.000000
1290.605644	9016.666667
1291.769270	9017.000000
1292.932448	9020.333333
1294.095178	9072.666667
1295.257461	8967.333333
1296.419298	8937.666667
1297.580687	8814.333333
1298.741630	8858.000000
1299.902126	8836.000000
1301.062177	8711.000000
1302.221781	8798.666667
1303.380940	8813.000000
1304.539653	8741.333333
1305.697921	8778.333333
1306.855744	8801.333333
1308.013123	8826.000000
1309.170056	8769.333333
1310.326546	8793.333333
1311.482591	8822.333333
1312.638193	8775.333333
1313.793350	8802.666667
1314.948065	8768.666667
1316.102336	8773.666667
1317.256164	8707.333333
1318.409550	8710.666667
1319.562493	8755.666667
1320.714993	8778.666667
1321.867052	8640.666667
1323.018668	8706.000000
1324.169843	8573.666667
1325.320577	8513.666667
1326.470870	8560.000000
1327.620721	8482.333333
1328.770132	8607.000000
1329.919102	8492.666667
1331.067632	8503.000000
1332.215722	8484.666667
1333.363372	8483.666667
1334.510582	8517.666667
1335.657353	8535.666667
1336.803685	8520.666667
1337.949578	8475.666667
1339.095032	8511.666667
1340.240048	8520.000000
1341.384625	8540.333333
1342.528764	8533.000000
1343.672466	8417.000000
1344.815729	8537.666667
1345.958556	8487.000000
1347.100945	8470.333333
1348.242897	8395.666667
1349.384413	8342.333333
1350.525492	8378.000000
1351.666134	8331.000000
1352.806341	8311.000000
1353.946111	8306.333333
1355.085446	8359.000000
1356.224346	8221.000000
1357.362810	8312.333333
1358.500840	8233.666667
1359.638434	8261.666667
1360.775594	8167.666667
1361.912320	8172.666667
1363.048612	8185.000000
1364.184469	8167.000000
1365.319893	8181.000000
1366.454884	8150.333333
1367.589441	8179.666667
1368.723566	8189.333333
1369.857257	8223.000000
1370.990516	8280.333333
1372.123343	8195.000000
1373.255737	8200.666667
1374.387699	8133.000000
1375.519230	8277.000000
1376.650329	8228.666667
1377.780997	8273.333333
1378.911234	8196.000000
1380.041040	8164.333333
1381.170416	8211.000000
1382.299361	8250.666667
1383.427875	8177.333333
1384.555960	8145.666667
1385.683615	8193.333333
1386.810841	8207.666667
1387.937637	8167.666667
1389.064004	8160.000000
1390.189942	8202.666667
1391.315451	8089.333333
1392.440532	8103.666667
1393.565185	8088.666667
1394.689409	8147.666667
1395.813206	8058.666667
1396.936575	8073.666667
1398.059517	8043.666667
1399.182032	8014.666667
1400.304119	8019.666667
1401.425780	8029.000000
1402.547014	8012.666667
1403.667822	8012.666667
1404.788204	8038.666667
1405.908160	8012.000000
1407.027690	8047.333333
1408.146795	8020.333333
1409.265474	7903.000000
1410.383728	8151.333333
1411.501558	8036.333333
1412.618963	8023.000000
1413.735943	8057.333333
1414.852499	8060.000000
1415.968632	8089.000000
1417.084340	8047.000000
1418.199625	8164.666667
1419.314486	8159.666667
1420.428925	8084.000000
1421.542940	8082.333333
1422.656533	8096.000000
1423.769703	8082.000000
1424.882451	7977.000000
1425.994777	7997.333333
1427.106680	7969.666667
1428.218163	8013.666667
1429.329223	8005.333333
1430.439863	7989.333333
1431.550081	7984.333333
1432.659879	7962.333333
1433.769256	7964.666667
1434.878212	7857.000000
1435.986749	7942.666667
1437.094865	7994.000000
1438.202562	7966.000000
1439.309839	7983.000000
1440.416696	8030.666667
1441.523135	8035.333333
1442.629154	8016.333333
1443.734755	8102.000000
1444.839937	8177.333333
1445.944701	8191.666667
1447.049047	8137.000000
1448.152975	8180.666667
1449.256485	8100.333333
1450.359577	8195.666667
1451.462253	8110.666667
1452.564511	8095.666667
1453.666352	8231.000000
1454.767777	8144.000000
1455.868785	8089.666667
1456.969377	8074.333333
1458.069553	8099.333333
1459.169313	8009.000000
1460.268658	7969.000000
1461.367587	7914.666667
1462.466101	7898.666667
1463.564200	7848.000000
1464.661884	7848.000000
1465.759153	7764.666667
1466.856008	7731.333333
1467.952449	7643.666667
1469.048476	7647.666667
1470.144089	7617.666667
1471.239288	7506.333333
1472.334074	7421.000000
1473.428447	7401.000000
1474.522407	7437.333333
1475.615955	7319.666667
1476.709089	7305.000000
1477.801812	7291.000000
1478.894122	7228.333333
1479.986020	7246.333333
1481.077506	7191.333333
1482.168581	7086.666667
1483.259245	7139.666667
1484.349498	7176.333333
1485.439339	7105.000000
1486.528770	7162.000000
1487.617790	7178.666667
1488.706400	7100.000000
1489.794600	7119.666667
1490.882390	7103.666667
1491.969771	7099.333333
1493.056742	7102.333333
1494.143303	7033.666667
1495.229456	7029.000000
1496.315199	7059.333333
1497.400534	7037.000000
1498.485460	7015.666667
1499.569978	6901.000000
1500.654088	6913.000000
1501.737790	6944.333333
1502.821085	6948.000000
1503.903972	6930.666667
1504.986451	6903.000000
1506.068524	6949.666667
1507.150189	6862.333333
1508.231448	6875.000000
1509.312301	6791.666667
1510.392747	6746.666667
1511.472787	6800.000000
1512.552422	6708.000000
1513.631650	6834.333333
1514.710473	6805.000000
1515.788891	6746.000000
1516.866904	6728.333333
1517.944512	6784.333333
1519.021715	6826.666667
1520.098513	6767.666667
1521.174908	6788.666667
1522.250898	6719.000000
1523.326485	6728.000000
1524.401667	6759.333333
1525.476447	6757.333333
1526.550823	6733.666667
1527.624796	6718.666667
1528.698365	6794.666667
1529.771533	6800.666667
1530.844298	6787.333333
1531.916660	6802.000000
1532.988620	6764.666667
1534.060179	6764.333333
1535.131336	6707.666667
1536.202091	6725.666667
1537.272445	6750.333333
1538.342398	6722.000000
1539.411950	6692.666667
1540.481101	6614.333333
1541.549851	6630.333333
1542.618202	6643.333333
1543.686152	6632.000000
1544.753702	6621.000000
1545.820853	6539.333333
1546.887604	6593.333333
1547.953955	6518.000000
1549.019908	6583.333333
1550.085461	6532.000000
1551.150616	6511.666667
1552.215372	6490.000000
1553.279730	6534.000000
1554.343690	6498.333333
1555.407252	6468.333333
1556.470415	6476.666667
1557.533182	6405.000000
1558.595551	6545.000000
1559.657522	6445.666667
1560.719097	6438.666667
1561.780275	6428.666667
1562.841056	6469.666667
1563.901441	6410.333333
1564.961429	6487.333333
1566.021022	6486.000000
1567.080219	6391.333333
1568.139020	6494.666667
1569.197425	6400.333333
1570.255436	6427.333333
1571.313051	6441.333333
1572.370271	6439.666667
1573.427097	6441.333333
1574.483528	6440.000000
1575.539565	6382.000000
1576.595208	6383.333333
1577.650457	6378.000000
1578.705312	6300.000000
1579.759774	6357.666667
1580.813842	6356.000000
1581.867517	6337.666667
1582.920799	6264.333333
1583.973689	6274.000000
1585.026186	6322.333333
1586.078290	6169.000000
1587.130002	6240.666667
1588.181323	6211.333333
1589.232251	6174.666667
1590.282788	6202.000000
1591.332933	6203.666667
1592.382688	6257.333333
1593.432051	6181.000000
1594.481023	6130.666667
1595.529605	6142.000000
1596.577796	6224.666667
1597.625597	6252.666667
1598.673007	6278.000000
1599.720028	6267.000000
1600.766660	6191.333333
1601.812901	6258.333333
1602.858753	6200.333333
1603.904217	6200.333333
1604.949291	6233.666667
1605.993976	6290.333333
1607.038273	6203.666667
1608.082182	6172.000000
1609.125702	6235.666667
1610.168834	6174.333333
1611.211579	6240.666667
1612.253935	6167.666667
1613.295905	6160.333333
1614.337487	6163.000000
1615.378682	6128.333333
1616.419490	6143.333333
1617.459912	6162.000000
1618.499946	6075.666667
1619.539595	6057.000000
1620.578858	6027.666667
1621.617734	6072.000000
1622.656225	6072.333333
1623.694330	6037.666667
1624.732050	6088.333333
1625.769385	6082.000000
1626.806334	6086.000000
1627.842899	6019.000000
1628.879079	6042.333333
1629.914875	6056.666667
1630.950286	6071.666667
1631.985314	6048.000000
1633.019957	6051.000000
1634.054217	5977.666667
1635.088093	6069.333333
1636.121586	6100.333333
1637.154696	6047.666667
1638.187423	6115.666667
1639.219767	6128.333333
1640.251728	6109.666667
1641.283307	6065.000000
1642.314504	6030.000000
1643.345319	6111.666667
1644.375751	6045.333333
1645.405803	6076.000000
1646.435472	6034.000000
1647.464761	6056.000000
1648.493668	6088.666667
1649.522194	6093.666667
1650.550340	6085.333333
1651.578105	6041.666667
1652.605490	6066.333333
1653.632494	6056.000000
1654.659119	6048.333333
1655.685363	6073.000000
1656.711228	5990.333333
1657.736714	5977.333333
1658.761820	6046.000000
1659.786547	5953.000000
1660.810895	5975.666667
1661.834865	5967.333333
1662.858456	5916.666667
1663.881668	5899.333333
1664.904503	5904.000000
1665.926959	5864.666667
1666.949038	5859.333333
1667.970739	5760.000000
1668.992062	5790.000000
1670.013008	5781.666667
1671.033577	5731.666667
1672.053770	5823.333333
1673.073585	5741.000000
1674.093024	5763.000000
1675.112086	5692.000000
1676.130773	5759.666667
1677.149083	5708.333333
1678.167017	5696.666667
1679.184576	5696.000000
1680.201760	5633.000000
1681.218568	5662.666667
1682.235001	5723.666667
1683.251059	5720.666667
1684.266742	5644.000000
1685.282051	5618.000000
1686.296985	5601.666667
1687.311546	5549.666667
1688.325732	5601.333333
1689.339544	5563.666667
1690.352983	5583.333333
1691.366048	5450.000000
1692.378740	5449.333333
1693.391058	5402.333333
1694.403004	5477.333333
1695.414577	5410.333333
1696.425778	5391.666667
1697.436606	5310.333333
1698.447061	5306.000000
1699.457145	5259.666667
1700.466857	5280.333333
1701.476197	5257.333333
1702.485166	5255.000000
1703.493763	5181.333333
1704.501989	5180.000000
1705.509844	5184.000000
1706.517328	5119.333333
1707.524442	5071.333333
1708.531185	5121.333333
1709.537558	5023.333333
1710.543561	5081.000000
1711.549194	5125.000000
1712.554457	5086.666667
1713.559351	4992.666667
1714.563875	5060.333333
1715.568030	5017.000000
1716.571816	5043.666667
1717.575233	5064.333333
1718.578282	4998.000000
1719.580962	5105.666667
1720.583273	5026.000000
1721.585217	5126.000000
1722.586792	5072.333333
1723.588000	5127.666667
1724.588840	5068.333333
1725.589312	5125.000000
1726.589418	5092.666667
1727.589156	5009.000000
1728.588527	5088.000000
1729.587532	5089.666667
1730.586170	5134.333333
1731.584441	5014.000000
1732.582346	5051.666667
1733.579886	5012.666667
1734.577059	5064.333333
1735.573867	4994.000000
1736.570309	4966.666667
1737.566386	4961.666667
1738.562097	4930.666667
1739.557444	4928.666667
1740.552426	4927.000000
1741.547043	4893.666667
1742.541295	4877.333333
1743.535184	4891.666667
1744.528708	4855.333333
1745.521868	4794.333333
1746.514664	4793.666667
1747.507097	4818.666667
1748.499166	4780.333333
1749.490873	4808.333333
1750.482216	4727.000000
1751.473196	4721.000000
1752.463813	4799.000000
1753.454068	4748.333333
1754.443960	4795.666667
1755.433490	4748.000000
1756.422658	4708.666667
1757.411464	4790.333333
1758.399908	4722.666667
1759.387991	4729.666667
1760.375713	4729.000000
1761.363073	4721.333333
1762.350072	4736.666667
1763.336711	4755.000000
1764.322988	4690.333333
1765.308905	4646.333333
1766.294462	4620.333333
1767.279659	4708.666667
1768.264496	4666.000000
1769.248972	4696.000000
1770.233089	4695.666667
1771.216847	4665.666667
1772.200245	4644.666667
1773.183284	4607.333333
1774.165965	4610.333333
1775.148286	4563.000000
1776.130249	4534.333333
1777.111853	4575.666667
1778.093099	4517.333333
1779.073987	4514.000000
1780.054517	4480.333333
1781.034689	4458.666667
1782.014503	4416.000000
1782.993960	4476.333333
1783.973060	4331.666667
1784.951802	4390.000000
1785.930188	4328.666667
1786.908217	4356.000000
1787.885889	4324.000000
1788.863205	4358.000000
1789.840164	4268.000000
1790.816768	4287.666667
1791.793015	4265.666667
1792.768907	4262.000000
1793.744443	4280.333333
1794.719624	4337.333333
1795.694449	4221.000000
1796.668919	4283.333333
1797.643035	4288.000000
1798.616795	4321.666667
1799.590201	4322.000000
1800.563253	4240.333333
1801.535950	4305.000000
1802.508294	4313.333333
1803.480283	4233.333333
1804.451919	4332.666667
1805.423201	4268.333333
1806.394129	4311.000000
1807.364705	4293.666667
1808.334927	4290.333333
1809.304796	4303.000000
1810.274313	4306.000000
1811.243477	4292.666667
1812.212288	4307.333333
1813.180747	4326.000000
1814.148855	4290.333333
1815.116610	4275.000000
1816.084013	4271.000000
1817.051065	4264.666667
1818.017766	4235.333333
1818.984115	4230.666667
1819.950113	4183.666667
1820.915760	4212.666667
1821.881057	4229.666667
1822.846003	4202.333333
1823.810598	4213.666667
1824.774843	4183.000000
1825.738738	4125.666667
1826.702283	4136.333333
1827.665479	4150.333333
1828.628324	4092.000000
1829.590821	4076.666667
1830.552968	4119.333333
1831.514765	4122.333333
1832.476214	4103.333333
1833.437314	4059.666667
1834.398066	4050.666667
1835.358469	4087.000000
1836.318524	4036.333333
1837.278230	4055.666667
1838.237589	4092.333333
1839.196600	4037.666667
1840.155263	4092.000000
1841.113578	4074.000000
1842.071547	4040.666667
1843.029168	4061.666667
1843.986442	4041.666667
1844.943369	4048.000000
1845.899950	4084.000000
1846.856184	4107.000000
1847.812072	4049.666667
1848.767614	4055.666667
1849.722809	4070.666667
1850.677659	4081.666667
1851.632163	4015.333333
1852.586322	4016.666667
1853.540135	4043.000000
1854.493603	4059.333333
1855.446726	4043.333333
1856.399504	4058.666667
1857.351937	4002.000000
1858.304026	4040.666667
1859.255770	3968.000000
1860.207170	3979.333333
1861.158227	3962.333333
1862.108939	3932.333333
1863.059307	3908.666667
1864.009332	3901.666667
1864.959013	3864.333333
1865.908351	3842.333333
1866.857346	3906.000000
1867.805998	3887.666667
1868.754307	3839.666667
1869.702274	3816.000000
1870.649898	3824.666667
1871.597180	3825.000000
1872.544119	3848.333333
1873.490717	3764.333333
1874.436973	3745.000000
1875.382887	3705.333333
1876.328459	3776.666667
1877.273691	3767.666667
1878.218581	3755.000000
1879.163130	3739.666667
1880.107338	3748.333333
1881.051205	3744.666667
1881.994732	3736.333333
1882.937919	3786.666667
1883.880765	3762.666667
1884.823271	3773.666667
1885.765437	3704.333333
1886.707264	3765.666667
1887.648750	3801.666667
1888.589898	3787.666667
1889.530706	3747.666667
1890.471175	3765.000000
1891.411305	3751.666667
1892.351096	3774.333333
1893.290548	3762.333333
1894.229662	3749.666667
1895.168438	3766.000000
1896.106876	3742.000000
1897.044975	3699.000000
1897.982737	3728.000000
1898.920160	3739.333333
1899.857247	3769.333333
1900.793996	3698.666667
1901.730407	3648.000000
1902.666482	3704.333333
1903.602219	3619.333333
1904.537620	3666.000000
1905.472685	3642.666667
1906.407412	3661.333333
1907.341804	3629.666667
1908.275859	3604.000000
1909.209579	3565.000000
1910.142962	3552.000000
1911.076010	3560.333333
1912.008722	3529.333333
1912.941099	3515.333333
1913.873141	3469.000000
1914.804848	3467.000000
1915.736219	3460.000000
1916.667256	3504.333333
1917.597959	3441.333333
1918.528327	3410.000000
1919.458360	3403.666667
1920.388060	3431.333333
1921.317426	3402.333333
1922.246457	3437.333333
1923.175156	3449.666667
1924.103520	3475.666667
1925.031552	3462.666667
1925.959250	3453.333333
1926.886615	3460.666667
1927.813647	3461.333333
1928.740346	3409.000000
1929.666713	3473.333333
1930.592748	3423.000000
1931.518450	3379.666667
1932.443820	3416.333333
1933.368858	3436.333333
1934.293564	3422.000000
1935.217939	3442.666667
1936.141982	3422.666667
1937.065694	3427.333333
1937.989074	3428.000000
1938.912124	3405.333333
1939.834842	3401.000000
1940.757230	3354.333333
1941.679287	3323.333333
1942.601014	3413.333333
1943.522411	3361.666667
1944.443477	3293.333333
1945.364214	3318.666667
1946.284621	3255.333333
1947.204698	3277.333333
1948.124445	3330.333333
1949.043863	3286.666667
1949.962952	3251.000000
1950.881712	3272.333333
1951.800143	3219.666667
1952.718245	3220.333333
1953.636019	3165.666667
1954.553464	3193.000000
1955.470581	3186.000000
1956.387369	3182.000000
1957.303830	3168.666667
1958.219963	3160.666667
1959.135768	3190.666667
1960.051246	3228.666667
1960.966396	3146.333333
1961.881219	3111.666667
1962.795715	3200.333333
1963.709883	3202.666667
1964.623726	3192.333333
1965.537241	3158.333333
1966.450430	3179.666667
1967.363293	3188.333333
1968.275829	3198.000000
1969.188040	3193.666667
1970.099924	3190.333333
1971.011483	3212.000000
1971.922716	3197.666667
1972.833624	3247.666667
1973.744206	3214.666667
1974.654464	3203.333333
1975.564396	3199.333333
1976.474004	3213.333333
1977.383286	3205.333333
1978.292245	3156.000000
1979.200878	3167.333333
1980.109188	3138.333333
1981.017174	3147.333333
1981.924835	3146.000000
1982.832173	3157.666667
1983.739187	3107.333333
1984.645878	3137.000000
1985.552245	3098.666667
1986.458289	3053.000000
1987.364010	3048.000000
1988.269408	3066.666667
1989.174484	3066.666667
1990.079236	3029.666667
1990.983667	3019.666667
1991.887775	2961.333333
1992.791561	3016.000000
1993.695024	2988.666667
1994.598166	3009.000000
1995.500986	2989.000000
1996.403485	2947.333333
1997.305662	3020.666667
1998.207518	2980.000000
1999.109053	3000.000000
