200.151048	14081.333333
201.758777	13839.333333
203.365815	13809.666667
204.972162	13850.333333
206.577820	13764.666667
208.182787	13707.666667
209.787065	13744.666667
211.390653	13578.666667
212.993553	13473.000000
214.595765	13564.666667
216.197289	13471.000000
217.798125	13392.333333
219.398274	13381.666667
220.997737	13437.333333
222.596513	13343.333333
224.194603	13265.666667
225.792008	13313.000000
227.388728	13237.000000
228.984763	13171.000000
230.580114	13199.333333
232.174781	13165.000000
233.768765	13067.000000
235.362065	13067.666667
236.954683	13007.666667
238.546619	12917.000000
240.137872	12920.000000
241.728445	13011.666667
243.318336	12899.333333
244.907546	12894.333333
246.496076	12882.333333
248.083926	12762.666667
249.671097	12742.666667
251.257589	12631.000000
252.843402	12693.666667
254.428536	12595.333333
256.012993	12566.666667
257.596772	12490.666667
259.179874	12344.666667
260.762300	12379.333333
262.344049	12414.000000
263.925122	12353.333333
265.505519	12297.000000
267.085241	12297.000000
268.664289	12267.333333
270.242662	12244.333333
271.820361	12312.000000
273.397387	12130.666667
274.973740	12181.333333
276.549419	12131.666667
278.124426	12143.666667
279.698762	12240.666667
281.272425	12081.000000
282.845417	12221.666667
284.417739	12183.000000
285.989390	12207.333333
287.560371	12088.333333
289.130682	12046.666667
290.700324	12095.666667
292.269297	12094.666667
293.837602	12063.000000
295.405238	11965.666667
296.972207	11964.666667
298.538508	12096.333333
300.104142	11982.333333
301.669110	11973.000000
303.233411	11902.000000
304.797047	11834.333333
306.360017	11703.666667
307.922322	11764.666667
309.483963	11585.000000
311.044939	11674.666667
312.605252	11483.333333
314.164900	11520.666667
315.723886	11429.333333
317.282209	11413.666667
318.839870	11293.000000
320.396868	11336.000000
321.953205	11091.666667
323.508881	11185.333333
325.063896	11187.333333
326.618251	11178.666667
328.171945	11113.000000
329.724980	11071.666667
331.277356	11112.666667
332.829072	11140.000000
334.380131	10997.666667
335.930530	11026.333333
337.480273	10973.333333
339.029357	10988.666667
340.577785	10914.333333
342.125556	10875.000000
343.672671	10916.000000
345.219130	10890.000000
346.764933	10848.666667
348.310081	10837.333333
349.854575	10841.666667
351.398414	10753.000000
352.941599	10745.333333
354.484130	10761.333333
356.026008	10771.000000
357.567234	10603.666667
359.107807	10606.666667
360.647727	10654.333333
362.186996	10537.666667
363.725614	10591.666667
365.263580	10485.333333
366.800896	10497.333333
368.337562	10499.666667
369.873578	10537.666667
371.408944	10410.666667
372.943661	10499.333333
374.477730	10464.666667
376.011150	10478.333333
377.543922	10546.333333
379.076046	10546.333333
380.607523	10646.666667
382.138353	10569.000000
383.668537	10604.000000
385.198075	10662.000000
386.726966	10543.333333
388.255213	10706.666667
389.782814	10639.000000
391.309770	10672.333333
392.836083	10670.333333
394.361751	10786.333333
395.886776	10807.000000
397.411157	10787.000000
398.934896	10830.666667
400.457992	10848.333333
401.980446	10842.000000
403.502258	11053.333333
405.023429	10913.666667
406.543959	10999.666667
408.063849	11029.000000
409.583098	11152.333333
411.101707	11237.333333
412.619677	11236.000000
414.137007	11369.333333
415.653699	11457.000000
417.169752	11578.000000
418.685167	11721.333333
420.199945	11863.666667
421.714085	12052.000000
423.227588	12258.000000
424.740454	12356.000000
426.252684	12443.000000
427.764279	12552.333333
429.275238	12529.666667
430.785561	12529.666667
432.295250	12433.000000
433.804304	12294.666667
435.312725	12159.333333
436.820511	12092.666667
438.327664	11929.666667
439.834185	11787.333333
441.340072	11702.000000
442.845327	11662.333333
444.349951	11636.000000
445.853942	11561.333333
447.357303	11513.666667
448.860033	11419.666667
450.362132	11285.333333
451.863601	11198.000000
453.364440	11198.666667
454.864650	11008.333333
456.364231	10970.333333
457.863183	10882.000000
459.361507	10750.666667
460.859203	10668.666667
462.356271	10493.000000
463.852712	10500.000000
465.348526	10361.000000
466.843714	10213.000000
468.338275	10243.333333
469.832210	10178.333333
471.325520	10088.666667
472.818205	10096.666667
474.310265	9974.333333
475.801700	10051.333333
477.292512	9968.333333
478.782700	9862.666667
480.272264	9866.000000
481.761205	9791.000000
483.249524	9743.000000
484.737221	9727.333333
486.224295	9727.666667
487.710748	9660.666667
489.196579	9578.666667
490.681790	9665.666667
492.166380	9587.333333
493.650350	9575.000000
495.133700	9569.000000
496.616431	9478.666667
498.098542	9589.666667
499.580035	9560.666667
501.060909	9555.333333
502.541165	9503.666667
504.020804	9501.333333
505.499825	9566.333333
506.978228	9501.666667
508.456016	9376.333333
509.933186	9421.333333
511.409741	9476.333333
512.885680	9443.666667
514.361004	9436.666667
515.835713	9453.666667
517.309807	9476.000000
518.783287	9417.666667
520.256153	9445.333333
521.728406	9549.000000
523.200045	9430.666667
524.671071	9495.333333
526.141485	9524.666667
527.611287	9536.333333
529.080476	9448.000000
530.549054	9438.000000
532.017021	9516.666667
533.484378	9523.000000
534.951123	9494.333333
536.417259	9510.000000
537.882785	9483.333333
539.347701	9468.333333
540.812008	9443.000000
542.275707	9439.333333
543.738797	9397.000000
545.201279	9501.666667
546.663153	9476.000000
548.124420	9497.000000
549.585080	9565.000000
551.045133	9558.000000
552.504579	9603.000000
553.963420	9635.000000
555.421655	9728.666667
556.879285	9682.666667
558.336309	9745.666667
559.792729	9701.333333
561.248545	9679.333333
562.703756	9820.333333
564.158364	9802.666667
565.612369	9942.000000
567.065770	9887.000000
568.518569	10069.333333
569.970766	10008.666667
571.422361	10153.666667
572.873354	10283.333333
574.323745	10360.000000
575.773536	10490.333333
577.222726	10484.333333
578.671316	10672.333333
580.119306	10731.000000
581.566696	10630.333333
583.013487	10573.666667
584.459679	10498.666667
585.905273	10484.666667
587.350268	10526.333333
588.794665	10409.666667
590.238465	10498.333333
591.681667	10398.333333
593.124272	10357.000000
594.566281	10185.000000
596.007694	10061.333333
597.448510	9941.000000
598.888731	9777.333333
600.328357	9769.666667
601.767388	9709.000000
603.205824	9604.333333
604.643666	9605.333333
606.080914	9590.000000
607.517568	9619.000000
608.953629	9595.666667
610.389097	9545.333333
611.823972	9519.000000
613.258255	9466.000000
614.691946	9367.333333
616.125046	9354.333333
617.557554	9262.666667
618.989471	9167.666667
620.420798	9070.333333
621.851534	9077.666667
623.281680	9019.666667
624.711237	8859.000000
626.140204	8791.666667
627.568582	8793.666667
628.996372	8685.000000
630.423573	8678.333333
631.850186	8650.333333
633.276211	8588.333333
634.701650	8576.000000
636.126501	8557.333333
637.550765	8571.666667
638.974443	8571.333333
640.397535	8601.333333
641.820041	8540.333333
643.241961	8570.666667
644.663297	8446.666667
646.084048	8508.333333
647.504214	8457.000000
648.923796	8424.000000
650.342795	8480.000000
651.761210	8561.333333
653.179041	8404.000000
654.596290	8344.000000
656.012957	8415.000000
657.429041	8467.000000
658.844543	8441.000000
660.259464	8449.000000
661.673804	8411.333333
663.087563	8381.666667
664.500741	8426.333333
665.913339	8391.333333
667.325357	8450.333333
668.736795	8387.000000
670.147654	8380.000000
671.557934	8436.333333
672.967636	8387.000000
674.376759	8310.666667
675.785304	8447.333333
677.193271	8288.666667
678.600661	8312.666667
680.007474	8291.000000
681.413711	8373.000000
682.819370	8377.000000
684.224454	8365.000000
685.628962	8326.000000
687.032895	8315.666667
688.436252	8269.000000
689.839034	8267.000000
691.241242	8279.000000
692.642876	8339.666667
694.043936	8325.333333
695.444422	8280.000000
696.844336	8194.333333
698.243676	8256.666667
699.642443	8206.333333
701.040639	8226.333333
702.438262	8180.666667
703.835313	8244.000000
705.231794	8244.000000
706.627703	8153.000000
708.023041	8229.666667
709.417810	8216.000000
710.812008	8202.333333
712.205636	8203.666667
713.598694	8125.666667
714.991184	8191.000000
716.383105	8183.000000
717.774457	8117.666667
719.165241	8204.333333
720.555457	8179.000000
721.945105	8075.666667
723.334187	8143.000000
724.722701	8180.333333
726.110648	8146.666667
727.498030	8178.666667
728.884845	8146.000000
730.271094	8107.666667
731.656778	8025.666667
733.041897	8082.000000
734.426451	8121.333333
735.810441	8065.333333
737.193866	8022.666667
738.576728	8017.333333
739.959026	7958.000000
741.340760	8019.333333
742.721932	8047.666667
744.102541	8077.000000
745.482588	8009.333333
746.862073	8034.333333
748.240996	8061.333333
749.619358	8107.333333
750.997158	8021.666667
752.374398	8026.333333
753.751077	8088.000000
755.127197	8042.000000
756.502756	8037.666667
757.877756	8041.000000
759.252196	8133.333333
760.626078	7944.333333
761.999400	8029.333333
763.372165	7984.000000
764.744371	7948.666667
766.116020	7902.666667
767.487111	7927.666667
768.857646	7919.666667
770.227623	7836.000000
771.597044	7908.666667
772.965908	7887.333333
774.334217	7829.333333
775.701970	7814.000000
777.069168	7849.666667
778.435811	7818.666667
779.801899	7778.000000
781.167433	7843.000000
782.532412	7823.333333
783.896838	7837.000000
785.260710	7768.000000
786.624029	7801.000000
787.986796	7731.666667
789.349009	7699.333333
790.710671	7695.666667
792.071780	7789.333333
793.432338	7679.000000
794.792344	7713.666667
796.151799	7638.666667
797.510704	7642.333333
798.869058	7765.000000
800.226862	7716.666667
801.584116	7663.666667
802.940820	7622.000000
804.296975	7724.333333
805.652581	7656.333333
807.007638	7701.333333
808.362147	7811.000000
809.716108	7799.666667
811.069521	7766.333333
812.422387	7837.000000
813.774705	7802.333333
815.126476	7817.666667
816.477701	7754.666667
817.828380	7755.666667
819.178512	7748.333333
820.528099	7738.666667
821.877140	7672.333333
823.225637	7618.000000
824.573588	7716.666667
825.920995	7554.666667
827.267857	7598.000000
828.614176	7553.333333
829.959951	7700.333333
831.305183	7659.000000
832.649871	7582.666667
833.994017	7636.333333
835.337620	7658.666667
836.680681	7646.000000
838.023201	7618.333333
839.365178	7591.000000
840.706614	7662.000000
842.047510	7720.333333
843.387864	7777.333333
844.727678	7745.333333
846.066952	7916.000000
847.405687	7924.333333
848.743881	7966.666667
850.081537	8021.333333
851.418653	7976.000000
852.755231	8053.000000
854.091270	8057.333333
855.426771	7963.333333
856.761735	8070.666667
858.096160	8003.666667
859.430049	7967.333333
860.763401	7860.000000
862.096216	7920.000000
863.428495	7860.666667
864.760237	7822.666667
866.091444	7764.000000
867.422115	7808.000000
868.752252	7802.333333
870.081853	7831.333333
871.410919	7824.000000
872.739452	7792.666667
874.067450	7797.666667
875.394914	7739.000000
876.721845	7801.000000
878.048243	7783.666667
879.374108	7744.666667
880.699440	7705.666667
882.024240	7766.666667
883.348508	7683.000000
884.672244	7640.666667
885.995449	7583.666667
887.318122	7548.333333
888.640265	7629.000000
889.961877	7583.000000
891.282959	7536.000000
892.603510	7484.333333
893.923532	7450.666667
895.243024	7443.000000
896.561987	7450.333333
897.880422	7452.333333
899.198327	7446.666667
900.515705	7407.333333
901.832554	7447.333333
903.148875	7393.666667
904.464669	7421.333333
905.779936	7443.333333
907.094676	7466.000000
908.408889	7511.000000
909.722576	7478.000000
911.035737	7589.000000
912.348371	7605.666667
913.660481	7519.666667
914.972065	7709.000000
916.283124	7750.000000
917.593659	7849.000000
918.903669	7789.000000
920.213155	7888.666667
921.522117	7903.000000
922.830556	7796.333333
924.138471	7871.333333
925.445864	7810.000000
926.752733	7896.666667
928.059081	7901.333333
929.364906	7971.333333
930.670209	7997.333333
931.974991	8022.333333
933.279251	8315.666667
934.582990	8339.666667
935.886209	8409.666667
937.188907	8569.666667
938.491085	8686.333333
939.792743	8938.000000
941.093881	9157.333333
942.394500	9464.666667
943.694600	9778.000000
944.994181	10194.000000
946.293243	10552.000000
947.591787	11133.000000
948.889813	11644.000000
950.187322	12322.666667
951.484313	13135.666667
952.780787	13937.000000
954.076744	14930.666667
955.372184	15618.000000
956.667108	16337.000000
957.961516	16681.666667
959.255409	16531.666667
960.548785	16256.333333
961.841647	15549.000000
963.133993	14720.333333
964.425825	13617.000000
965.717142	12683.333333
967.007946	11640.666667
968.298235	10810.000000
969.588011	10024.666667
970.877273	9432.666667
972.166023	8890.000000
973.454259	8506.000000
974.741984	8121.666667
976.029196	7867.666667
977.315895	7686.000000
978.602084	7536.000000
979.887761	7359.666667
981.172926	7276.666667
982.457581	7167.000000
983.741725	7164.666667
985.025359	7104.666667
986.308483	6987.000000
987.591097	7008.666667
988.873202	7023.333333
990.154797	6994.000000
991.435883	6998.333333
992.716461	7042.666667
993.996530	6943.000000
995.276091	7023.333333
996.555144	7044.666667
997.833690	7009.333333
999.111728	7150.000000
1000.389259	7287.000000
1001.666283	7279.000000
1002.942800	7230.000000
1004.218812	7279.333333
1005.494317	7192.333333
1006.769317	7144.333333
1008.043811	7151.333333
1009.317799	7098.333333
1010.591283	7127.000000
1011.864263	7068.333333
1013.136737	7091.000000
1014.408708	7080.666667
1015.680175	7195.666667
1016.951138	7188.333333
1018.221598	7158.000000
1019.491554	7198.000000
1020.761008	7200.666667
1022.029959	7197.333333
1023.298408	7288.000000
1024.566355	7268.000000
1025.833800	7322.333333
1027.100744	7362.000000
1028.367187	7422.000000
1029.633128	7372.333333
1030.898569	7434.000000
1032.163509	7387.000000
1033.427949	7482.666667
1034.691890	7400.333333
1035.955330	7394.666667
1037.218271	7394.000000
1038.480714	7445.000000
1039.742657	7371.333333
1041.004101	7357.000000
1042.265048	7450.000000
1043.525496	7417.000000
1044.785446	7426.000000
1046.044899	7363.333333
1047.303855	7440.666667
1048.562313	7347.333333
1049.820275	7378.333333
1051.077740	7393.666667
1052.334709	7271.000000
1053.591182	7312.333333
1054.847160	7329.000000
1056.102641	7363.333333
1057.357628	7338.333333
1058.612120	7403.000000
1059.866117	7503.000000
1061.119619	7517.000000
1062.372628	7586.333333
1063.625142	7691.333333
1064.877163	7698.000000
1066.128691	7757.333333
1067.379725	7771.666667
1068.630267	7833.333333
1069.880316	7716.000000
1071.129872	7742.000000
1072.378937	7680.666667
1073.627509	7653.666667
1074.875590	7529.333333
1076.123180	7435.333333
1077.370279	7302.000000
1078.616887	7198.000000
1079.863004	7107.000000
1081.108631	7044.666667
1082.353768	6980.666667
1083.598415	6848.666667
1084.842573	6822.333333
1086.086241	6743.666667
1087.329421	6682.666667
1088.572111	6661.666667
1089.814314	6589.666667
1091.056028	6490.333333
1092.297253	6507.000000
1093.537992	6508.333333
1094.778242	6410.666667
1096.018006	6405.666667
1097.257282	6382.000000
1098.496072	6396.000000
1099.734376	6394.333333
1100.972193	6378.333333
1102.209524	6330.666667
1103.446370	6339.666667
1104.682730	6222.666667
1105.918604	6273.333333
1107.153994	6250.000000
1108.388900	6103.000000
1109.623320	6071.000000
1110.857257	6082.333333
1112.090710	6025.000000
1113.323679	5976.000000
1114.556164	5956.333333
1115.788167	6009.333333
1117.019686	5933.000000
1118.250723	5925.000000
1119.481278	5883.000000
1120.711350	5911.333333
1121.940940	5848.666667
1123.170049	5887.666667
1124.398676	5930.333333
1125.626823	5848.666667
1126.854488	5897.000000
1128.081672	5805.000000
1129.308376	5875.666667
1130.534600	5752.000000
1131.760345	5745.666667
1132.985609	5778.000000
1134.210394	5685.333333
1135.434700	5791.666667
1136.658527	5722.000000
1137.881875	5815.333333
1139.104745	5741.000000
1140.327136	5694.666667
1141.549050	5679.000000
1142.770486	5737.000000
1143.991445	5756.666667
1145.211926	5711.333333
1146.431931	5707.333333
1147.651459	5669.666667
1148.870510	5688.000000
1150.089086	5677.000000
1151.307185	5666.666667
1152.524808	5754.333333
1153.741957	5694.000000
1154.958630	5695.000000
1156.174828	5725.333333
1157.390551	5689.666667
1158.605800	5723.666667
1159.820574	5742.333333
1161.034875	5671.666667
1162.248702	5677.000000
1163.462055	5726.000000
1164.674936	5697.333333
1165.887343	5677.000000
1167.099277	5692.333333
1168.310739	5735.000000
1169.521729	5640.666667
1170.732247	5710.666667
1171.942293	5671.333333
1173.151867	5702.333333
1174.360970	5678.333333
1175.569602	5675.000000
1176.777764	5650.000000
1177.985454	5651.666667
1179.192675	5619.333333
1180.399425	5594.333333
1181.605706	5614.333333
1182.811517	5660.000000
1184.016859	5545.666667
1185.221731	5560.666667
1186.426135	5528.333333
1187.630070	5603.333333
1188.833537	5549.000000
1190.036535	5489.000000
1191.239066	5481.666667
1192.441129	5485.000000
1193.642725	5586.000000
1194.843853	5475.000000
1196.044515	5493.000000
1197.244710	5497.666667
1198.444438	5527.000000
1199.643701	5528.000000
1200.842497	5563.000000
1202.040827	5536.333333
1203.238693	5561.666667
1204.436092	5524.000000
1205.633027	5508.333333
1206.829497	5487.666667
1208.025503	5459.000000
1209.221044	5475.000000
1210.416122	5449.000000
1211.610735	5479.333333
1212.804885	5396.666667
1213.998572	5395.666667
1215.191795	5446.666667
1216.384556	5370.666667
1217.576854	5386.333333
1218.768689	5433.666667
1219.960063	5368.000000
1221.150974	5434.000000
1222.341424	5398.000000
1223.531413	5400.333333
1224.720940	5462.333333
1225.910006	5432.666667
1227.098612	5544.333333
1228.286757	5500.000000
1229.474442	5608.000000
1230.661667	5635.333333
1231.848432	5611.000000
1233.034738	5680.000000
1234.220584	5658.666667
1235.405971	5735.666667
1236.590900	5730.333333
1237.775369	5788.000000
1238.959381	5812.000000
1240.142934	5799.666667
1241.326029	5832.000000
1242.508667	5883.000000
1243.690848	5851.666667
1244.872571	5815.666667
1246.053837	5833.333333
1247.234646	5812.666667
1248.414999	5826.000000
1249.594896	5787.666667
1250.774337	5791.666667
1251.953322	5691.000000
1253.131851	5721.000000
1254.309925	6021.333333
1255.487544	6166.333333
1256.664708	6119.000000
1257.841417	5872.333333
1259.017673	5882.000000
1260.193473	5868.000000
1261.368820	5723.000000
1262.543714	5729.333333
1263.718154	5687.666667
1264.892140	5700.000000
1266.065674	5738.000000
1267.238755	5744.666667
1268.411383	5700.000000
1269.583559	5758.000000
1270.755283	5734.333333
1271.926555	5737.333333
1273.097375	5771.666667
1274.267744	5677.333333
1275.437662	5635.000000
1276.607129	5626.666667
1277.776145	5665.666667
1278.944711	5610.666667
1280.112827	5557.666667
1281.280492	5623.333333
1282.447708	5503.666667
1283.614474	5458.000000
1284.780791	5512.666667
1285.946659	5396.333333
1287.112078	5419.666667
1288.277048	5384.333333
1289.441570	5362.333333
1290.605644	5339.000000
1291.769270	5351.000000
1292.932448	5240.666667
1294.095178	5284.000000
1295.257461	5273.666667
1296.419298	5240.333333
1297.580687	5227.666667
1298.741630	5166.666667
1299.902126	5170.333333
1301.062177	5244.333333
1302.221781	5159.000000
1303.380940	5211.000000
1304.539653	5150.333333
1305.697921	5151.000000
1306.855744	5177.333333
1308.013123	5208.000000
1309.170056	5136.000000
1310.326546	5179.333333
1311.482591	5146.000000
1312.638193	5195.666667
1313.793350	5147.000000
1314.948065	5242.000000
1316.102336	5103.000000
1317.256164	5197.333333
1318.409550	5203.333333
1319.562493	5124.333333
1320.714993	5100.000000
1321.867052	5131.666667
1323.018668	5130.333333
1324.169843	5110.333333
1325.320577	5091.333333
1326.470870	5014.666667
1327.620721	5047.333333
1328.770132	4959.666667
1329.919102	4976.333333
1331.067632	4973.666667
1332.215722	4911.333333
1333.363372	4928.333333
1334.510582	5035.333333
1335.657353	4965.333333
1336.803685	5000.000000
1337.949578	4967.333333
1339.095032	5002.000000
1340.240048	5028.666667
1341.384625	4970.666667
1342.528764	4951.333333
1343.672466	5007.333333
1344.815729	4954.000000
1345.958556	4963.333333
1347.100945	4939.000000
1348.242897	4901.666667
1349.384413	4933.666667
1350.525492	4880.333333
1351.666134	4895.666667
1352.806341	4849.333333
1353.946111	4768.000000
1355.085446	4809.000000
1356.224346	4794.666667
1357.362810	4724.666667
1358.500840	4769.333333
1359.638434	4804.666667
1360.775594	4744.000000
1361.912320	4735.000000
1363.048612	4701.333333
1364.184469	4724.666667
1365.319893	4698.666667
1366.454884	4740.000000
1367.589441	4739.000000
1368.723566	4752.333333
1369.857257	4775.333333
1370.990516	4776.000000
1372.123343	4761.000000
1373.255737	4775.333333
1374.387699	4785.333333
1375.519230	4810.666667
1376.650329	4775.000000
1377.780997	4820.666667
1378.911234	4776.333333
1380.041040	4837.666667
1381.170416	4826.000000
1382.299361	4742.000000
1383.427875	4777.000000
1384.555960	4805.333333
1385.683615	4777.666667
1386.810841	4780.666667
1387.937637	4775.333333
1389.064004	4741.666667
1390.189942	4756.333333
1391.315451	4717.333333
1392.440532	4756.000000
1393.565185	4727.666667
1394.689409	4757.666667
1395.813206	4711.000000
1396.936575	4765.333333
1398.059517	4743.333333
1399.182032	4733.000000
1400.304119	4638.333333
1401.425780	4725.000000
1402.547014	4673.333333
1403.667822	4726.000000
1404.788204	4689.333333
1405.908160	4698.666667
1407.027690	4703.000000
1408.146795	4690.333333
1409.265474	4745.666667
1410.383728	4731.333333
1411.501558	4724.333333
1412.618963	4725.666667
1413.735943	4765.000000
1414.852499	4756.000000
1415.968632	4777.666667
1417.084340	4771.666667
1418.199625	4766.333333
1419.314486	4804.666667
1420.428925	4760.333333
1421.542940	4806.666667
1422.656533	4857.000000
1423.769703	4819.666667
1424.882451	4799.333333
1425.994777	4707.666667
1427.106680	4758.000000
1428.218163	4708.333333
1429.329223	4671.333333
1430.439863	4667.666667
1431.550081	4689.333333
1432.659879	4687.000000
1433.769256	4703.333333
1434.878212	4756.000000
1435.986749	4684.333333
1437.094865	4734.666667
1438.202562	4754.000000
1439.309839	4803.666667
1440.416696	4785.333333
1441.523135	4835.333333
1442.629154	4850.666667
1443.734755	4902.000000
1444.839937	4927.333333
1445.944701	4962.666667
1447.049047	5012.666667
1448.152975	4940.666667
1449.256485	5016.000000
1450.359577	5103.666667
1451.462253	4987.666667
1452.564511	4996.333333
1453.666352	4945.333333
1454.767777	4952.000000
1455.868785	4947.333333
1456.969377	4874.666667
1458.069553	4883.000000
1459.169313	4806.666667
1460.268658	4794.666667
1461.367587	4705.000000
1462.466101	4765.666667
1463.564200	4659.333333
1464.661884	4661.000000
1465.759153	4596.333333
1466.856008	4580.333333
1467.952449	4528.000000
1469.048476	4517.333333
1470.144089	4441.000000
1471.239288	4459.000000
1472.334074	4330.666667
1473.428447	4319.333333
1474.522407	4300.333333
1475.615955	4262.000000
1476.709089	4239.000000
1477.801812	4172.666667
1478.894122	4123.666667
1479.986020	4122.666667
1481.077506	4135.333333
1482.168581	4113.333333
1483.259245	4093.333333
1484.349498	4081.000000
1485.439339	4090.000000
1486.528770	3980.000000
1487.617790	4042.666667
1488.706400	4014.666667
1489.794600	3987.666667
1490.882390	3954.000000
1491.969771	4002.000000
1493.056742	3968.666667
1494.143303	3967.333333
1495.229456	3969.333333
1496.315199	3954.666667
1497.400534	3902.333333
1498.485460	3943.666667
1499.569978	3926.333333
1500.654088	3904.333333
1501.737790	3891.666667
1502.821085	3899.666667
1503.903972	3864.666667
1504.986451	3880.666667
1506.068524	3893.666667
1507.150189	3833.000000
1508.231448	3822.000000
1509.312301	3845.000000
1510.392747	3805.333333
1511.472787	3766.666667
1512.552422	3831.333333
1513.631650	3795.000000
1514.710473	3781.666667
1515.788891	3770.666667
1516.866904	3789.666667
1517.944512	3822.666667
1519.021715	3742.666667
1520.098513	3788.000000
1521.174908	3767.000000
1522.250898	3793.000000
1523.326485	3782.000000
1524.401667	3813.333333
1525.476447	3758.666667
1526.550823	3804.000000
1527.624796	3764.000000
1528.698365	3740.000000
1529.771533	3797.333333
1530.844298	3756.666667
1531.916660	3768.333333
1532.988620	3789.666667
1534.060179	3775.333333
1535.131336	3750.666667
1536.202091	3760.333333
1537.272445	3728.333333
1538.342398	3695.666667
1539.411950	3700.333333
1540.481101	3748.666667
1541.549851	3729.666667
1542.618202	3646.666667
1543.686152	3643.666667
1544.753702	3683.333333
1545.820853	3689.666667
1546.887604	3678.666667
1547.953955	3639.000000
1549.019908	3727.666667
1550.085461	3698.666667
1551.150616	3680.000000
1552.215372	3721.333333
1553.279730	3686.666667
1554.343690	3706.666667
1555.407252	3676.333333
1556.470415	3640.666667
1557.533182	3611.000000
1558.595551	3669.666667
1559.657522	3657.666667
1560.719097	3618.666667
1561.780275	3634.000000
1562.841056	3604.333333
1563.901441	3675.333333
1564.961429	3598.333333
1566.021022	3641.000000
1567.080219	3608.000000
1568.139020	3627.333333
1569.197425	3610.333333
1570.255436	3587.333333
1571.313051	3559.333333
1572.370271	3558.000000
1573.427097	3628.000000
1574.483528	3583.333333
1575.539565	3552.666667
1576.595208	3572.000000
1577.650457	3623.666667
1578.705312	3622.000000
1579.759774	3572.333333
1580.813842	3563.000000
1581.867517	3526.000000
1582.920799	3539.333333
1583.973689	3552.666667
1585.026186	3542.333333
1586.078290	3492.333333
1587.130002	3511.666667
1588.181323	3476.000000
1589.232251	3490.000000
1590.282788	3476.333333
1591.332933	3474.000000
1592.382688	3451.666667
1593.432051	3489.333333
1594.481023	3421.666667
1595.529605	3516.000000
1596.577796	3506.333333
1597.625597	3506.000000
1598.673007	3526.666667
1599.720028	3569.666667
1600.766660	3527.000000
1601.812901	3571.333333
1602.858753	3559.666667
1603.904217	3539.000000
1604.949291	3551.000000
1605.993976	3567.333333
1607.038273	3532.000000
1608.082182	3554.333333
1609.125702	3538.666667
1610.168834	3469.666667
1611.211579	3548.000000
1612.253935	3517.000000
1613.295905	3491.666667
1614.337487	3498.000000
1615.378682	3470.333333
1616.419490	3502.333333
1617.459912	3518.333333
1618.499946	3558.666667
1619.539595	3493.333333
1620.578858	3511.666667
1621.617734	3515.666667
1622.656225	3573.333333
1623.694330	3509.333333
1624.732050	3472.666667
1625.769385	3489.666667
1626.806334	3487.666667
1627.842899	3550.333333
1628.879079	3566.666667
1629.914875	3556.333333
1630.950286	3550.000000
1631.985314	3553.000000
1633.019957	3601.000000
1634.054217	3582.333333
1635.088093	3557.666667
1636.121586	3600.000000
1637.154696	3556.666667
1638.187423	3542.666667
1639.219767	3569.000000
1640.251728	3537.333333
1641.283307	3610.000000
1642.314504	3593.000000
1643.345319	3577.333333
1644.375751	3580.000000
1645.405803	3625.666667
1646.435472	3616.333333
1647.464761	3628.666667
1648.493668	3562.666667
1649.522194	3596.666667
1650.550340	3568.333333
1651.578105	3599.000000
1652.605490	3591.000000
1653.632494	3586.666667
1654.659119	3600.666667
1655.685363	3557.333333
1656.711228	3604.666667
1657.736714	3567.666667
1658.761820	3608.333333
1659.786547	3579.000000
1660.810895	3577.000000
1661.834865	3600.000000
1662.858456	3546.666667
1663.881668	3551.666667
1664.904503	3566.333333
1665.926959	3529.000000
1666.949038	3506.666667
1667.970739	3518.000000
1668.992062	3448.666667
1670.013008	3467.000000
1671.033577	3414.000000
1672.053770	3435.333333
1673.073585	3406.666667
1674.093024	3457.666667
1675.112086	3357.333333
1676.130773	3377.666667
1677.149083	3396.333333
1678.167017	3338.333333
1679.184576	3367.666667
1680.201760	3347.000000
1681.218568	3388.000000
1682.235001	3344.666667
1683.251059	3344.000000
1684.266742	3349.666667
1685.282051	3323.333333
1686.296985	3270.333333
1687.311546	3275.666667
1688.325732	3281.000000
1689.339544	3225.000000
1690.352983	3180.000000
1691.366048	3211.000000
1692.378740	3134.666667
1693.391058	3128.333333
1694.403004	3093.333333
1695.414577	3063.333333
1696.425778	2995.000000
1697.436606	3049.000000
1698.447061	3000.333333
1699.457145	2969.333333
1700.466857	3004.333333
1701.476197	2942.666667
1702.485166	2932.333333
1703.493763	2923.333333
1704.501989	2903.000000
1705.509844	2921.666667
1706.517328	2881.666667
1707.524442	2877.666667
1708.531185	2836.666667
1709.537558	2851.333333
1710.543561	2887.666667
1711.549194	2827.000000
1712.554457	2823.333333
1713.559351	2861.666667
1714.563875	2815.666667
1715.568030	2784.666667
1716.571816	2838.000000
1717.575233	2822.333333
1718.578282	2820.333333
1719.580962	2788.666667
1720.583273	2856.000000
1721.585217	2830.333333
1722.586792	2866.000000
1723.588000	2790.333333
1724.588840	2870.666667
1725.589312	2844.666667
1726.589418	2875.000000
1727.589156	2834.000000
1728.588527	2846.666667
1729.587532	2779.333333
1730.586170	2811.333333
1731.584441	2823.333333
1732.582346	2836.333333
1733.579886	2775.000000
1734.577059	2785.333333
1735.573867	2797.666667
1736.570309	2760.000000
1737.566386	2721.333333
1738.562097	2714.333333
1739.557444	2741.000000
1740.552426	2710.333333
1741.547043	2715.333333
1742.541295	2717.000000
1743.535184	2720.666667
1744.528708	2704.666667
1745.521868	2729.666667
1746.514664	2652.333333
1747.507097	2653.666667
1748.499166	2683.666667
1749.490873	2680.000000
1750.482216	2701.333333
1751.473196	2631.000000
1752.463813	2695.333333
1753.454068	2677.000000
1754.443960	2626.333333
1755.433490	2686.000000
1756.422658	2657.666667
1757.411464	2678.333333
1758.399908	2662.333333
1759.387991	2681.000000
1760.375713	2630.000000
1761.363073	2609.666667
1762.350072	2642.000000
1763.336711	2634.000000
1764.322988	2632.333333
1765.308905	2654.333333
1766.294462	2613.000000
1767.279659	2619.333333
1768.264496	2638.333333
1769.248972	2605.666667
1770.233089	2592.000000
1771.216847	2618.333333
1772.200245	2600.000000
1773.183284	2585.333333
1774.165965	2576.333333
1775.148286	2515.000000
1776.130249	2577.666667
1777.111853	2543.333333
1778.093099	2530.666667
1779.073987	2516.000000
1780.054517	2505.666667
1781.034689	2437.666667
1782.014503	2485.000000
1782.993960	2489.333333
1783.973060	2527.000000
1784.951802	2439.000000
1785.930188	2458.666667
1786.908217	2444.000000
1787.885889	2467.666667
1788.863205	2428.666667
1789.840164	2413.666667
1790.816768	2420.666667
1791.793015	2423.000000
1792.768907	2430.666667
1793.744443	2392.666667
1794.719624	2435.666667
1795.694449	2389.666667
1796.668919	2455.000000
1797.643035	2428.333333
1798.616795	2388.333333
1799.590201	2483.666667
1800.563253	2418.000000
1801.535950	2452.000000
1802.508294	2430.000000
1803.480283	2406.333333
1804.451919	2421.666667
1805.423201	2427.000000
1806.394129	2432.000000
1807.364705	2420.666667
1808.334927	2414.000000
1809.304796	2436.666667
1810.274313	2427.000000
1811.243477	2409.666667
1812.212288	2412.000000
1813.180747	2414.666667
1814.148855	2421.666667
1815.116610	2347.000000
1816.084013	2370.333333
1817.051065	2379.666667
1818.017766	2389.666667
1818.984115	2376.666667
1819.950113	2392.000000
1820.915760	2396.333333
1821.881057	2389.666667
1822.846003	2367.333333
1823.810598	2381.666667
1824.774843	2348.000000
1825.738738	2355.666667
1826.702283	2350.666667
1827.665479	2336.333333
1828.628324	2336.666667
1829.590821	2311.000000
1830.552968	2326.666667
1831.514765	2348.666667
1832.476214	2307.666667
1833.437314	2300.000000
1834.398066	2296.000000
1835.358469	2297.666667
1836.318524	2256.333333
1837.278230	2309.000000
1838.237589	2253.333333
1839.196600	2293.333333
1840.155263	2286.000000
1841.113578	2302.000000
1842.071547	2274.000000
1843.029168	2307.333333
1843.986442	2301.666667
1844.943369	2329.333333
1845.899950	2297.666667
1846.856184	2307.666667
1847.812072	2293.666667
1848.767614	2310.000000
1849.722809	2274.333333
1850.677659	2327.666667
1851.632163	2275.666667
1852.586322	2287.333333
1853.540135	2290.666667
1854.493603	2312.333333
1855.446726	2300.000000
1856.399504	2286.000000
1857.351937	2273.333333
1858.304026	2282.333333
1859.255770	2274.666667
1860.207170	2287.000000
1861.158227	2270.666667
1862.108939	2213.666667
1863.059307	2257.333333
1864.009332	2251.000000
1864.959013	2227.666667
1865.908351	2190.000000
1866.857346	2223.333333
1867.805998	2212.666667
1868.754307	2164.000000
1869.702274	2186.333333
1870.649898	2194.333333
1871.597180	2211.666667
1872.544119	2166.666667
1873.490717	2180.666667
1874.436973	2193.666667
1875.382887	2150.333333
1876.328459	2163.333333
1877.273691	2155.333333
1878.218581	2162.000000
1879.163130	2164.666667
1880.107338	2179.666667
1881.051205	2152.000000
1881.994732	2133.333333
1882.937919	2198.333333
1883.880765	2126.000000
1884.823271	2135.333333
1885.765437	2184.000000
1886.707264	2139.333333
1887.648750	2156.333333
1888.589898	2172.333333
1889.530706	2166.000000
1890.471175	2109.000000
1891.411305	2145.000000
1892.351096	2149.000000
1893.290548	2163.000000
1894.229662	2148.000000
1895.168438	2164.333333
1896.106876	2141.666667
1897.044975	2117.666667
1897.982737	2134.333333
1898.920160	2154.333333
1899.857247	2118.000000
1900.793996	2123.666667
1901.730407	2125.666667
1902.666482	2135.000000
1903.602219	2100.000000
1904.537620	2086.333333
1905.472685	2069.333333
1906.407412	2111.666667
1907.341804	2062.333333
1908.275859	2059.333333
1909.209579	2042.333333
1910.142962	2069.000000
1911.076010	2053.333333
1912.008722	2022.333333
1912.941099	2016.666667
1913.873141	2037.666667
1914.804848	2016.333333
1915.736219	2012.666667
1916.667256	2035.000000
1917.597959	2013.000000
1918.528327	1945.000000
1919.458360	1995.000000
1920.388060	2010.000000
1921.317426	2003.333333
1922.246457	1978.333333
1923.175156	1955.333333
1924.103520	2009.666667
1925.031552	1983.000000
1925.959250	2010.333333
1926.886615	1965.000000
1927.813647	1990.000000
1928.740346	1990.333333
1929.666713	2006.666667
1930.592748	1980.000000
1931.518450	1987.666667
1932.443820	1977.000000
1933.368858	1965.333333
1934.293564	2034.333333
1935.217939	1955.333333
1936.141982	1996.666667
1937.065694	1986.666667
1937.989074	1959.333333
1938.912124	1960.000000
1939.834842	1972.333333
1940.757230	1943.000000
1941.679287	1943.666667
1942.601014	1938.000000
1943.522411	1953.333333
1944.443477	1958.333333
1945.364214	1938.666667
1946.284621	1921.666667
1947.204698	1925.333333
1948.124445	1928.666667
1949.043863	1900.666667
1949.962952	1889.000000
1950.881712	1901.333333
1951.800143	1860.000000
1952.718245	1893.333333
1953.636019	1898.333333
1954.553464	1874.333333
1955.470581	1875.666667
1956.387369	1849.333333
1957.303830	1832.000000
1958.219963	1848.000000
1959.135768	1833.333333
1960.051246	1852.333333
1960.966396	1843.333333
1961.881219	1835.333333
1962.795715	1850.000000
1963.709883	1847.000000
1964.623726	1877.333333
1965.537241	1844.333333
1966.450430	1858.666667
1967.363293	1854.666667
1968.275829	1851.000000
1969.188040	1888.333333
1970.099924	1879.000000
1971.011483	1876.000000
1971.922716	1889.666667
1972.833624	1839.000000
1973.744206	1878.000000
1974.654464	1872.666667
1975.564396	1870.333333
1976.474004	1866.000000
1977.383286	1839.333333
1978.292245	1854.333333
1979.200878	1879.000000
1980.109188	1867.333333
1981.017174	1831.333333
1981.924835	1841.333333
1982.832173	1867.000000
1983.739187	1836.333333
1984.645878	1829.333333
1985.552245	1815.666667
1986.458289	1834.666667
1987.364010	1775.333333
1988.269408	1804.333333
1989.174484	1794.000000
1990.079236	1774.000000
1990.983667	1742.666667
1991.887775	1801.333333
1992.791561	1781.666667
1993.695024	1788.333333
1994.598166	1752.666667
1995.500986	1761.333333
1996.403485	1729.333333
1997.305662	1717.666667
1998.207518	1755.333333
1999.109053	1743.000000
