200.151048	17283.333333
201.758777	17191.000000
203.365815	17254.666667
204.972162	17065.000000
206.577820	17040.333333
208.182787	17022.000000
209.787065	16872.666667
211.390653	16857.666667
212.993553	16941.000000
214.595765	16781.333333
216.197289	16800.666667
217.798125	16695.000000
219.398274	16658.666667
220.997737	16748.000000
222.596513	16644.666667
224.194603	16554.000000
225.792008	16407.333333
227.388728	16442.000000
228.984763	16466.333333
230.580114	16492.666667
232.174781	16355.000000
233.768765	16398.333333
235.362065	16296.000000
236.954683	16293.666667
238.546619	16377.666667
240.137872	16199.000000
241.728445	16210.000000
243.318336	16157.333333
244.907546	16062.000000
246.496076	16034.000000
248.083926	15975.666667
249.671097	16012.000000
251.257589	15913.666667
252.843402	15891.333333
254.428536	15731.000000
256.012993	15648.666667
257.596772	15684.333333
259.179874	15692.333333
260.762300	15753.333333
262.344049	15677.333333
263.925122	15578.000000
265.505519	15555.333333
267.085241	15565.000000
268.664289	15474.000000
270.242662	15554.000000
271.820361	15493.333333
273.397387	15333.666667
274.973740	15529.000000
276.549419	15474.000000
278.124426	15337.666667
279.698762	15475.000000
281.272425	15457.000000
282.845417	15456.000000
284.417739	15412.666667
285.989390	15441.666667
287.560371	15380.333333
289.130682	15447.666667
290.700324	15440.666667
292.269297	15494.000000
293.837602	15419.000000
295.405238	15421.666667
296.972207	15328.666667
298.538508	15400.666667
300.104142	15355.333333
301.669110	15187.666667
303.233411	15203.666667
304.797047	15113.333333
306.360017	14978.000000
307.922322	15120.666667
309.483963	14850.000000
311.044939	14929.666667
312.605252	14742.666667
314.164900	14868.666667
315.723886	14704.666667
317.282209	14774.000000
318.839870	14639.666667
320.396868	14667.333333
321.953205	14478.000000
323.508881	14508.333333
325.063896	14394.333333
326.618251	14380.666667
328.171945	14308.000000
329.724980	14410.333333
331.277356	14369.666667
332.829072	14286.333333
334.380131	14301.666667
335.930530	14245.666667
337.480273	14314.000000
339.029357	14258.000000
340.577785	14168.333333
342.125556	14194.000000
343.672671	14156.000000
345.219130	14164.000000
346.764933	14142.000000
348.310081	14150.333333
349.854575	14133.666667
351.398414	14040.666667
352.941599	13951.333333
354.484130	13982.333333
356.026008	13964.666667
357.567234	13890.333333
359.107807	13920.333333
360.647727	13891.000000
362.186996	13890.666667
363.725614	13792.000000
365.263580	13813.333333
366.800896	13791.333333
368.337562	13793.000000
369.873578	13745.333333
371.408944	13830.666667
372.943661	13769.666667
374.477730	13736.333333
376.011150	13677.000000
377.543922	13694.333333
379.076046	13792.000000
380.607523	13781.333333
382.138353	13827.000000
383.668537	13715.333333
385.198075	13930.000000
386.726966	13882.000000
388.255213	13891.333333
389.782814	13849.666667
391.309770	13883.333333
392.836083	13867.000000
394.361751	14051.000000
395.886776	13992.333333
397.411157	13994.333333
398.934896	13923.000000
400.457992	14008.333333
401.980446	14026.333333
403.502258	14054.333333
405.023429	14068.000000
406.543959	14127.333333
408.063849	14155.000000
409.583098	14287.666667
411.101707	14270.333333
412.619677	14388.333333
414.137007	14463.333333
415.653699	14612.666667
417.169752	14702.666667
418.685167	14923.000000
420.199945	15006.333333
421.714085	15149.666667
423.227588	15412.333333
424.740454	15524.666667
426.252684	15670.666667
427.764279	15653.333333
429.275238	15691.000000
430.785561	15704.333333
432.295250	15509.000000
433.804304	15432.000000
435.312725	15415.000000
436.820511	15263.333333
438.327664	15060.000000
439.834185	14943.000000
441.340072	14782.333333
442.845327	14881.666667
444.349951	14873.000000
445.853942	14744.666667
447.357303	14624.333333
448.860033	14495.000000
450.362132	14455.333333
451.863601	14308.333333
453.364440	14409.000000
454.864650	14231.666667
456.364231	13956.666667
457.863183	13914.333333
459.361507	13817.333333
460.859203	13685.666667
462.356271	13581.000000
463.852712	13541.333333
465.348526	13362.333333
466.843714	13349.000000
468.338275	13344.666667
469.832210	13223.333333
471.325520	13068.666667
472.818205	13054.000000
474.310265	12963.666667
475.801700	13025.666667
477.292512	12861.333333
478.782700	12930.666667
480.272264	12739.000000
481.761205	12803.333333
483.249524	12854.666667
484.737221	12688.666667
486.224295	12704.000000
487.710748	12690.000000
489.196579	12716.333333
490.681790	12630.666667
492.166380	12656.333333
493.650350	12569.000000
495.133700	12642.000000
496.616431	12605.666667
498.098542	12526.333333
499.580035	12556.666667
501.060909	12524.666667
502.541165	12537.666667
504.020804	12588.000000
505.499825	12439.333333
506.978228	12443.000000
508.456016	12367.666667
509.933186	12428.666667
511.409741	12406.333333
512.885680	12351.333333
514.361004	12357.666667
515.835713	12341.000000
517.309807	12326.333333
518.783287	12408.666667
520.256153	12364.333333
521.728406	12268.333333
523.200045	12424.333333
524.671071	12301.666667
526.141485	12383.000000
527.611287	12424.333333
529.080476	12450.333333
530.549054	12420.333333
532.017021	12382.666667
533.484378	12465.333333
534.951123	12353.000000
536.417259	12340.666667
537.882785	12374.333333
539.347701	12249.333333
540.812008	12301.666667
542.275707	12340.333333
543.738797	12284.000000
545.201279	12209.666667
546.663153	12239.000000
548.124420	12348.666667
549.585080	12334.000000
551.045133	12363.000000
552.504579	12456.333333
553.963420	12436.333333
555.421655	12477.333333
556.879285	12499.666667
558.336309	12459.333333
559.792729	12568.333333
561.248545	12614.666667
562.703756	12663.333333
564.158364	12756.333333
565.612369	12657.333333
567.065770	12787.000000
568.518569	12810.000000
569.970766	12906.000000
571.422361	12902.333333
572.873354	12977.666667
574.323745	13153.000000
575.773536	13142.000000
577.222726	13394.000000
578.671316	13440.666667
580.119306	13403.000000
581.566696	13488.000000
583.013487	13494.333333
584.459679	13418.666667
585.905273	13364.333333
587.350268	13377.000000
588.794665	13293.666667
590.238465	13249.333333
591.681667	13270.666667
593.124272	13016.333333
594.566281	13018.333333
596.007694	12890.000000
597.448510	12665.000000
598.888731	12648.333333
600.328357	12501.666667
601.767388	12376.000000
603.205824	12346.333333
604.643666	12390.333333
606.080914	12484.333333
607.517568	12346.333333
608.953629	12360.000000
610.389097	12328.000000
611.823972	12213.333333
613.258255	12119.333333
614.691946	12119.666667
616.125046	12094.333333
617.557554	11868.333333
618.989471	11976.666667
620.420798	11780.333333
621.851534	11700.333333
623.281680	11622.000000
624.711237	11528.666667
626.140204	11348.333333
627.568582	11474.666667
628.996372	11358.333333
630.423573	11306.333333
631.850186	11287.000000
633.276211	11331.333333
634.701650	11272.666667
636.126501	11227.666667
637.550765	11154.333333
638.974443	11154.333333
640.397535	11176.666667
641.820041	11248.666667
643.241961	11241.000000
644.663297	11138.666667
646.084048	11195.333333
647.504214	11074.333333
648.923796	11131.666667
650.342795	11052.333333
651.761210	10982.666667
653.179041	11068.000000
654.596290	11070.000000
656.012957	11030.000000
657.429041	11021.666667
658.844543	11079.666667
660.259464	10960.000000
661.673804	11006.000000
663.087563	11002.000000
664.500741	10978.333333
665.913339	11016.000000
667.325357	11047.666667
668.736795	11105.333333
670.147654	11009.666667
671.557934	11016.666667
672.967636	10988.666667
674.376759	10993.333333
675.785304	10970.000000
677.193271	10922.666667
678.600661	11013.000000
680.007474	10903.000000
681.413711	10907.000000
682.819370	10830.333333
684.224454	10917.000000
685.628962	10848.333333
687.032895	10916.333333
688.436252	10914.333333
689.839034	10919.000000
691.241242	10794.000000
692.642876	10825.333333
694.043936	10843.666667
695.444422	10794.666667
696.844336	10856.000000
698.243676	10904.000000
699.642443	10746.666667
701.040639	10748.666667
702.438262	10746.333333
703.835313	10748.666667
705.231794	10817.333333
706.627703	10717.666667
708.023041	10698.666667
709.417810	10744.000000
710.812008	10630.666667
712.205636	10722.000000
713.598694	10659.666667
714.991184	10699.333333
716.383105	10653.666667
717.774457	10656.666667
719.165241	10721.666667
720.555457	10653.666667
721.945105	10536.333333
723.334187	10686.666667
724.722701	10645.666667
726.110648	10683.666667
727.498030	10684.333333
728.884845	10585.000000
730.271094	10619.333333
731.656778	10499.666667
733.041897	10585.333333
734.426451	10494.666667
735.810441	10466.666667
737.193866	10557.333333
738.576728	10579.666667
739.959026	10517.666667
741.340760	10440.666667
742.721932	10526.666667
744.102541	10487.666667
745.482588	10534.000000
746.862073	10469.666667
748.240996	10479.333333
749.619358	10498.000000
750.997158	10473.666667
752.374398	10556.666667
753.751077	10502.333333
755.127197	10516.666667
756.502756	10482.666667
757.877756	10473.666667
759.252196	10501.333333
760.626078	10409.333333
761.999400	10433.000000
763.372165	10379.666667
764.744371	10388.666667
766.116020	10416.666667
767.487111	10395.000000
768.857646	10352.333333
770.227623	10402.333333
771.597044	10325.000000
772.965908	10237.000000
774.334217	10277.000000
775.701970	10206.000000
777.069168	10250.666667
778.435811	10207.000000
779.801899	10313.333333
781.167433	10181.666667
782.532412	10185.000000
783.896838	10113.333333
785.260710	10187.666667
786.624029	10137.333333
787.986796	10053.666667
789.349009	10076.333333
790.710671	10075.666667
792.071780	10160.666667
793.432338	10046.000000
794.792344	10047.333333
796.151799	10097.000000
797.510704	10003.666667
798.869058	10070.000000
800.226862	9992.333333
801.584116	9954.666667
802.940820	9968.333333
804.296975	9992.666667
805.652581	10004.666667
807.007638	9976.333333
808.362147	10110.333333
809.716108	10056.666667
811.069521	10027.666667
812.422387	10100.666667
813.774705	10115.333333
815.126476	10031.000000
816.477701	10169.333333
817.828380	10044.333333
819.178512	10010.666667
820.528099	9981.666667
821.877140	9944.333333
823.225637	9879.000000
824.573588	9872.000000
825.920995	9821.000000
827.267857	9833.000000
828.614176	9893.000000
829.959951	9834.666667
831.305183	9903.000000
832.649871	9902.333333
833.994017	9810.333333
835.337620	9868.000000
836.680681	9875.333333
838.023201	9906.000000
839.365178	9893.000000
840.706614	9842.666667
842.047510	9894.333333
843.387864	9977.666667
844.727678	9990.000000
846.066952	10075.333333
847.405687	10034.666667
848.743881	10124.000000
850.081537	10201.666667
851.418653	10204.333333
852.755231	10266.666667
854.091270	10300.333333
855.426771	10306.666667
856.761735	10335.000000
858.096160	10172.333333
859.430049	10191.000000
860.763401	10037.333333
862.096216	10002.666667
863.428495	9928.666667
864.760237	10066.666667
866.091444	9969.000000
867.422115	9941.666667
868.752252	9984.000000
870.081853	9944.000000
871.410919	9943.333333
872.739452	10027.333333
874.067450	9914.666667
875.394914	9922.666667
876.721845	10010.666667
878.048243	9846.333333
879.374108	9869.333333
880.699440	9864.000000
882.024240	9904.333333
883.348508	9827.333333
884.672244	9751.000000
885.995449	9770.333333
887.318122	9784.000000
888.640265	9669.333333
889.961877	9661.333333
891.282959	9596.666667
892.603510	9547.000000
893.923532	9572.333333
895.243024	9601.000000
896.561987	9492.666667
897.880422	9471.000000
899.198327	9513.666667
900.515705	9467.000000
901.832554	9500.000000
903.148875	9490.666667
904.464669	9492.333333
905.779936	9479.333333
907.094676	9552.000000
908.408889	9520.000000
909.722576	9536.666667
911.035737	9585.666667
912.348371	9600.333333
913.660481	9684.000000
914.972065	9784.000000
916.283124	9823.666667
917.593659	9825.666667
918.903669	9880.000000
920.213155	9958.000000
921.522117	9862.333333
922.830556	9867.333333
924.138471	9869.000000
925.445864	9848.000000
926.752733	9902.000000
928.059081	9939.666667
929.364906	9986.000000
930.670209	10028.333333
931.974991	10085.666667
933.279251	10229.000000
934.582990	10316.666667
935.886209	10422.666667
937.188907	10491.000000
938.491085	10713.666667
939.792743	10854.666667
941.093881	11051.333333
942.394500	11277.666667
943.694600	11640.666667
944.994181	11989.666667
946.293243	12269.666667
947.591787	12874.666667
948.889813	13537.000000
950.187322	14110.000000
951.484313	14958.333333
952.780787	15823.666667
954.076744	16864.333333
955.372184	17584.666667
956.667108	18398.666667
957.961516	18640.333333
959.255409	18663.666667
960.548785	18436.333333
961.841647	17667.666667
963.133993	16750.000000
964.425825	15706.333333
965.717142	14690.333333
967.007946	13602.333333
968.298235	12735.000000
969.588011	11941.666667
970.877273	11349.000000
972.166023	10807.333333
973.454259	10393.000000
974.741984	9985.666667
976.029196	9773.333333
977.315895	9483.000000
978.602084	9444.000000
979.887761	9188.333333
981.172926	9198.333333
982.457581	9093.666667
983.741725	9015.000000
985.025359	8955.000000
986.308483	8858.000000
987.591097	8913.666667
988.873202	8794.333333
990.154797	8815.000000
991.435883	8847.000000
992.716461	8867.000000
993.996530	8798.333333
995.276091	8823.000000
996.555144	8851.333333
997.833690	8973.333333
999.111728	8964.666667
1000.389259	9060.000000
1001.666283	9137.666667
1002.942800	9097.666667
1004.218812	8951.333333
1005.494317	9065.333333
1006.769317	8994.666667
1008.043811	8897.333333
1009.317799	8924.000000
1010.591283	8884.666667
1011.864263	8977.666667
1013.136737	8893.666667
1014.408708	8947.000000
1015.680175	8916.666667
1016.951138	8965.000000
1018.221598	9028.666667
1019.491554	8975.333333
1020.761008	9041.333333
1022.029959	9041.000000
1023.298408	9042.000000
1024.566355	9114.333333
1025.833800	9174.333333
1027.100744	9184.666667
1028.367187	9189.666667
1029.633128	9223.333333
1030.898569	9254.000000
1032.163509	9243.000000
1033.427949	9258.000000
1034.691890	9251.000000
1035.955330	9280.666667
1037.218271	9197.000000
1038.480714	9203.666667
1039.742657	9228.666667
1041.004101	9270.000000
1042.265048	9253.000000
1043.525496	9322.000000
1044.785446	9329.000000
1046.044899	9254.666667
1047.303855	9145.000000
1048.562313	9199.666667
1049.820275	9105.333333
1051.077740	9160.666667
1052.334709	9091.000000
1053.591182	9171.666667
1054.847160	9122.666667
1056.102641	9138.000000
1057.357628	9079.000000
1058.612120	9161.333333
1059.866117	9246.000000
1061.119619	9280.333333
1062.372628	9348.000000
1063.625142	9443.666667
1064.877163	9428.666667
1066.128691	9505.333333
1067.379725	9489.333333
1068.630267	9619.000000
1069.880316	9519.333333
1071.129872	9541.666667
1072.378937	9548.666667
1073.627509	9384.333333
1074.875590	9325.333333
1076.123180	9086.333333
1077.370279	9119.666667
1078.616887	8921.666667
1079.863004	8841.000000
1081.108631	8762.000000
1082.353768	8625.000000
1083.598415	8579.333333
1084.842573	8476.666667
1086.086241	8409.333333
1087.329421	8303.000000
1088.572111	8265.000000
1089.814314	8251.333333
1091.056028	8261.000000
1092.297253	8229.000000
1093.537992	8212.000000
1094.778242	8095.666667
1096.018006	8096.333333
1097.257282	8014.000000
1098.496072	8039.000000
1099.734376	8036.000000
1100.972193	7954.666667
1102.209524	7973.333333
1103.446370	8046.000000
1104.682730	7898.666667
1105.918604	7957.666667
1107.153994	7865.666667
1108.388900	7813.000000
1109.623320	7825.000000
1110.857257	7722.666667
1112.090710	7721.333333
1113.323679	7646.000000
1114.556164	7667.000000
1115.788167	7601.666667
1117.019686	7644.333333
1118.250723	7604.666667
1119.481278	7590.666667
1120.711350	7483.666667
1121.940940	7604.666667
1123.170049	7537.666667
1124.398676	7560.666667
1125.626823	7440.666667
1126.854488	7513.000000
1128.081672	7488.000000
1129.308376	7440.666667
1130.534600	7506.333333
1131.760345	7408.666667
1132.985609	7368.333333
1134.210394	7374.666667
1135.434700	7429.333333
1136.658527	7346.000000
1137.881875	7336.333333
1139.104745	7327.000000
1140.327136	7416.666667
1141.549050	7372.666667
1142.770486	7361.333333
1143.991445	7342.000000
1145.211926	7353.333333
1146.431931	7331.333333
1147.651459	7317.333333
1148.870510	7337.333333
1150.089086	7312.666667
1151.307185	7299.666667
1152.524808	7301.666667
1153.741957	7347.666667
1154.958630	7230.666667
1156.174828	7314.666667
1157.390551	7338.000000
1158.605800	7319.666667
1159.820574	7291.333333
1161.034875	7364.000000
1162.248702	7303.666667
1163.462055	7283.666667
1164.674936	7338.000000
1165.887343	7227.666667
1167.099277	7221.666667
1168.310739	7257.000000
1169.521729	7316.000000
1170.732247	7227.333333
1171.942293	7315.333333
1173.151867	7284.000000
1174.360970	7267.333333
1175.569602	7306.333333
1176.777764	7259.666667
1177.985454	7277.666667
1179.192675	7222.666667
1180.399425	7206.333333
1181.605706	7119.333333
1182.811517	7153.666667
1184.016859	7073.666667
1185.221731	7112.000000
1186.426135	7118.666667
1187.630070	7009.333333
1188.833537	7134.333333
1190.036535	7028.000000
1191.239066	7019.333333
1192.441129	7050.333333
1193.642725	7026.666667
1194.843853	7024.000000
1196.044515	6996.333333
1197.244710	7121.666667
1198.444438	6996.000000
1199.643701	7025.333333
1200.842497	7059.000000
1202.040827	7074.333333
1203.238693	6965.000000
1204.436092	7075.666667
1205.633027	6933.000000
1206.829497	6962.333333
1208.025503	6972.333333
1209.221044	6963.666667
1210.416122	6933.000000
1211.610735	6880.666667
1212.804885	6881.000000
1213.998572	6827.666667
1215.191795	6878.333333
1216.384556	6794.333333
1217.576854	6818.333333
1218.768689	6794.333333
1219.960063	6813.666667
1221.150974	6808.666667
1222.341424	6788.666667
1223.531413	6774.666667
1224.720940	6926.000000
1225.910006	6882.333333
1227.098612	6944.666667
1228.286757	6903.666667
1229.474442	6990.666667
1230.661667	6994.333333
1231.848432	6994.000000
1233.034738	7082.000000
1234.220584	7068.000000
1235.405971	7156.666667
1236.590900	7188.666667
1237.775369	7169.000000
1238.959381	7214.333333
1240.142934	7224.333333
1241.326029	7249.333333
1242.508667	7276.666667
1243.690848	7274.333333
1244.872571	7273.333333
1246.053837	7281.666667
1247.234646	7183.333333
1248.414999	7263.666667
1249.594896	7160.666667
1250.774337	7174.666667
1251.953322	7182.333333
1253.131851	7124.666667
1254.309925	7042.666667
1255.487544	7041.333333
1256.664708	7024.666667
1257.841417	7071.000000
1259.017673	6994.666667
1260.193473	7118.666667
1261.368820	7037.333333
1262.543714	7005.333333
1263.718154	6995.000000
1264.892140	7101.333333
1266.065674	7124.333333
1267.238755	7167.333333
1268.411383	7063.333333
1269.583559	7164.333333
1270.755283	7190.000000
1271.926555	7026.666667
1273.097375	7087.000000
1274.267744	6996.666667
1275.437662	7027.333333
1276.607129	7002.666667
1277.776145	7041.666667
1278.944711	6988.333333
1280.112827	6904.666667
1281.280492	6926.000000
1282.447708	6852.333333
1283.614474	6911.333333
1284.780791	6822.666667
1285.946659	6792.333333
1287.112078	6811.000000
1288.277048	6786.666667
1289.441570	6748.000000
1290.605644	6669.000000
1291.769270	6625.000000
1292.932448	6578.333333
1294.095178	6666.000000
1295.257461	6574.666667
1296.419298	6573.666667
1297.580687	6577.000000
1298.741630	6529.666667
1299.902126	6519.000000
1301.062177	6503.333333
1302.221781	6464.666667
1303.380940	6474.666667
1304.539653	6506.333333
1305.697921	6438.000000
1306.855744	6547.666667
1308.013123	6503.666667
1309.170056	6489.333333
1310.326546	6477.666667
1311.482591	6560.666667
1312.638193	6467.000000
1313.793350	6428.666667
1314.948065	6439.666667
1316.102336	6482.000000
1317.256164	6485.000000
1318.409550	6430.000000
1319.562493	6393.666667
1320.714993	6447.000000
1321.867052	6391.333333
1323.018668	6358.333333
1324.169843	6305.000000
1325.320577	6332.666667
1326.470870	6243.666667
1327.620721	6245.666667
1328.770132	6323.666667
1329.919102	6307.333333
1331.067632	6230.333333
1332.215722	6240.666667
1333.363372	6254.666667
1334.510582	6257.666667
1335.657353	6257.333333
1336.803685	6195.333333
1337.949578	6294.333333
1339.095032	6220.000000
1340.240048	6250.666667
1341.384625	6241.000000
1342.528764	6197.000000
1343.672466	6298.333333
1344.815729	6168.666667
1345.958556	6193.666667
1347.100945	6190.666667
1348.242897	6109.333333
1349.384413	6162.333333
1350.525492	6138.333333
1351.666134	6132.000000
1352.806341	6082.000000
1353.946111	6085.000000
1355.085446	6044.333333
1356.224346	5986.666667
1357.362810	5988.000000
1358.500840	6013.333333
1359.638434	5934.000000
1360.775594	5962.333333
1361.912320	6015.000000
1363.048612	5957.333333
1364.184469	5873.666667
1365.319893	6014.000000
1366.454884	5950.000000
1367.589441	5995.000000
1368.723566	6001.333333
1369.857257	5873.666667
1370.990516	5946.666667
1372.123343	5985.666667
1373.255737	5956.333333
1374.387699	5981.666667
1375.519230	6071.333333
1376.650329	5930.333333
1377.780997	6006.666667
1378.911234	6017.000000
1380.041040	6028.000000
1381.170416	5995.333333
1382.299361	5968.333333
1383.427875	5963.333333
1384.555960	6075.000000
1385.683615	5950.666667
1386.810841	5934.000000
1387.937637	5946.333333
1389.064004	5920.666667
1390.189942	5936.666667
1391.315451	5935.666667
1392.440532	5877.000000
1393.565185	5938.666667
1394.689409	5896.333333
1395.813206	5858.666667
1396.936575	5894.666667
1398.059517	5923.666667
1399.182032	5899.333333
1400.304119	5902.666667
1401.425780	5790.333333
1402.547014	5822.333333
1403.667822	5850.000000
1404.788204	5773.666667
1405.908160	5841.000000
1407.027690	5848.000000
1408.146795	5811.000000
1409.265474	5855.666667
1410.383728	5849.000000
1411.501558	5803.666667
1412.618963	5877.333333
1413.735943	5883.666667
1414.852499	5912.000000
1415.968632	5934.666667
1417.084340	5882.000000
1418.199625	5882.000000
1419.314486	5881.333333
1420.428925	5914.666667
1421.542940	5924.666667
1422.656533	5858.666667
1423.769703	5865.000000
1424.882451	5885.000000
1425.994777	5926.000000
1427.106680	5806.000000
1428.218163	5783.333333
1429.329223	5879.666667
1430.439863	5811.000000
1431.550081	5820.333333
1432.659879	5721.666667
1433.769256	5782.666667
1434.878212	5768.666667
1435.986749	5700.000000
1437.094865	5824.000000
1438.202562	5843.666667
1439.309839	5787.333333
1440.416696	5863.333333
1441.523135	5924.666667
1442.629154	5929.666667
1443.734755	6021.666667
1444.839937	6006.000000
1445.944701	6000.333333
1447.049047	6046.000000
1448.152975	6043.333333
1449.256485	6003.000000
1450.359577	5993.000000
1451.462253	6020.000000
1452.564511	5964.000000
1453.666352	6015.333333
1454.767777	5945.333333
1455.868785	5917.000000
1456.969377	5915.000000
1458.069553	5963.333333
1459.169313	5892.666667
1460.268658	5843.333333
1461.367587	5835.666667
1462.466101	5782.666667
1463.564200	5742.333333
1464.661884	5663.666667
1465.759153	5643.666667
1466.856008	5601.000000
1467.952449	5535.000000
1469.048476	5550.666667
1470.144089	5417.000000
1471.239288	5461.666667
1472.334074	5382.666667
1473.428447	5388.000000
1474.522407	5247.666667
1475.615955	5333.666667
1476.709089	5199.666667
1477.801812	5235.666667
1478.894122	5146.666667
1479.986020	5124.000000
1481.077506	5151.666667
1482.168581	5157.000000
1483.259245	5130.666667
1484.349498	5101.666667
1485.439339	5057.000000
1486.528770	5058.333333
1487.617790	4998.333333
1488.706400	5017.666667
1489.794600	5067.000000
1490.882390	5046.666667
1491.969771	4990.333333
1493.056742	4987.000000
1494.143303	4988.666667
1495.229456	4976.666667
1496.315199	4951.333333
1497.400534	4967.666667
1498.485460	4959.333333
1499.569978	4929.000000
1500.654088	4930.333333
1501.737790	4932.000000
1502.821085	4901.000000
1503.903972	4924.333333
1504.986451	4822.000000
1506.068524	4846.000000
1507.150189	4830.333333
1508.231448	4806.000000
1509.312301	4802.000000
1510.392747	4783.000000
1511.472787	4776.666667
1512.552422	4727.333333
1513.631650	4723.000000
1514.710473	4757.000000
1515.788891	4730.666667
1516.866904	4721.333333
1517.944512	4730.666667
1519.021715	4789.000000
1520.098513	4666.000000
1521.174908	4773.000000
1522.250898	4727.000000
1523.326485	4745.333333
1524.401667	4794.666667
1525.476447	4700.666667
1526.550823	4714.000000
1527.624796	4692.333333
1528.698365	4727.333333
1529.771533	4747.000000
1530.844298	4748.000000
1531.916660	4706.333333
1532.988620	4738.000000
1534.060179	4724.333333
1535.131336	4648.000000
1536.202091	4691.333333
1537.272445	4708.666667
1538.342398	4661.333333
1539.411950	4659.333333
1540.481101	4610.000000
1541.549851	4642.333333
1542.618202	4604.333333
1543.686152	4592.666667
1544.753702	4645.000000
1545.820853	4590.000000
1546.887604	4605.666667
1547.953955	4584.000000
1549.019908	4572.000000
1550.085461	4642.333333
1551.150616	4552.333333
1552.215372	4609.000000
1553.279730	4612.666667
1554.343690	4557.000000
1555.407252	4623.000000
1556.470415	4532.333333
1557.533182	4520.666667
1558.595551	4514.000000
1559.657522	4537.000000
1560.719097	4527.000000
1561.780275	4519.666667
1562.841056	4496.333333
1563.901441	4520.000000
1564.961429	4546.000000
1566.021022	4484.333333
1567.080219	4556.666667
1568.139020	4501.000000
1569.197425	4494.666667
1570.255436	4529.666667
1571.313051	4555.666667
1572.370271	4506.333333
1573.427097	4409.666667
1574.483528	4448.333333
1575.539565	4452.000000
1576.595208	4471.333333
1577.650457	4503.333333
1578.705312	4461.333333
1579.759774	4361.000000
1580.813842	4454.000000
1581.867517	4331.666667
1582.920799	4408.333333
1583.973689	4429.666667
1585.026186	4364.666667
1586.078290	4306.000000
1587.130002	4349.000000
1588.181323	4370.666667
1589.232251	4282.666667
1590.282788	4298.000000
1591.332933	4354.666667
1592.382688	4256.333333
1593.432051	4330.666667
1594.481023	4325.666667
1595.529605	4293.666667
1596.577796	4356.000000
1597.625597	4342.333333
1598.673007	4330.000000
1599.720028	4313.000000
1600.766660	4359.333333
1601.812901	4371.000000
1602.858753	4367.000000
1603.904217	4345.666667
1604.949291	4359.333333
1605.993976	4347.000000
1607.038273	4342.333333
1608.082182	4369.000000
1609.125702	4396.333333
1610.168834	4321.666667
1611.211579	4357.000000
1612.253935	4369.333333
1613.295905	4305.666667
1614.337487	4345.333333
1615.378682	4289.333333
1616.419490	4284.666667
1617.459912	4317.666667
1618.499946	4286.666667
1619.539595	4323.000000
1620.578858	4309.666667
1621.617734	4360.333333
1622.656225	4252.000000
1623.694330	4265.000000
1624.732050	4316.666667
1625.769385	4276.000000
1626.806334	4308.666667
1627.842899	4263.000000
1628.879079	4287.666667
1629.914875	4309.666667
1630.950286	4261.000000
1631.985314	4311.333333
1633.019957	4334.333333
1634.054217	4339.333333
1635.088093	4294.666667
1636.121586	4308.000000
1637.154696	4323.666667
1638.187423	4281.000000
1639.219767	4337.000000
1640.251728	4341.666667
1641.283307	4357.000000
1642.314504	4348.333333
1643.345319	4381.000000
1644.375751	4351.333333
1645.405803	4317.000000
1646.435472	4291.000000
1647.464761	4296.666667
1648.493668	4362.333333
1649.522194	4298.000000
1650.550340	4303.333333
1651.578105	4283.333333
1652.605490	4321.000000
1653.632494	4328.666667
1654.659119	4282.333333
1655.685363	4268.666667
1656.711228	4318.333333
1657.736714	4311.000000
1658.761820	4240.000000
1659.786547	4297.000000
1660.810895	4297.000000
1661.834865	4263.000000
1662.858456	4219.333333
1663.881668	4266.666667
1664.904503	4226.666667
1665.926959	4240.333333
1666.949038	4143.000000
1667.970739	4181.666667
1668.992062	4166.000000
1670.013008	4129.333333
1671.033577	4100.333333
1672.053770	4128.333333
1673.073585	4150.333333
1674.093024	4056.333333
1675.112086	4091.666667
1676.130773	4054.000000
1677.149083	4023.666667
1678.167017	4048.333333
1679.184576	4010.666667
1680.201760	4008.666667
1681.218568	4004.333333
1682.235001	4008.666667
1683.251059	3965.000000
1684.266742	3947.666667
1685.282051	3961.666667
1686.296985	3974.666667
1687.311546	3919.333333
1688.325732	3839.333333
1689.339544	3882.333333
1690.352983	3845.000000
1691.366048	3852.000000
1692.378740	3860.000000
1693.391058	3774.000000
1694.403004	3803.000000
1695.414577	3756.666667
1696.425778	3745.000000
1697.436606	3709.666667
1698.447061	3674.333333
1699.457145	3648.000000
1700.466857	3644.666667
1701.476197	3641.000000
1702.485166	3541.000000
1703.493763	3543.333333
1704.501989	3561.333333
1705.509844	3539.666667
1706.517328	3558.666667
1707.524442	3545.333333
1708.531185	3513.333333
1709.537558	3447.333333
1710.543561	3469.666667
1711.549194	3481.333333
1712.554457	3498.000000
1713.559351	3496.666667
1714.563875	3491.000000
1715.568030	3476.333333
1716.571816	3478.666667
1717.575233	3534.333333
1718.578282	3475.333333
1719.580962	3502.000000
1720.583273	3545.666667
1721.585217	3480.000000
1722.586792	3484.000000
1723.588000	3473.666667
1724.588840	3508.333333
1725.589312	3489.666667
1726.589418	3519.000000
1727.589156	3475.666667
1728.588527	3477.666667
1729.587532	3453.666667
1730.586170	3484.333333
1731.584441	3458.666667
1732.582346	3447.666667
1733.579886	3391.333333
1734.577059	3384.333333
1735.573867	3408.666667
1736.570309	3429.333333
1737.566386	3383.000000
1738.562097	3345.000000
1739.557444	3395.000000
1740.552426	3380.000000
1741.547043	3349.666667
1742.541295	3347.333333
1743.535184	3384.000000
1744.528708	3312.333333
1745.521868	3360.000000
1746.514664	3260.666667
1747.507097	3303.000000
1748.499166	3324.666667
1749.490873	3257.333333
1750.482216	3285.666667
1751.473196	3303.000000
1752.463813	3287.000000
1753.454068	3265.000000
1754.443960	3273.333333
1755.433490	3276.000000
1756.422658	3258.000000
1757.411464	3235.666667
1758.399908	3269.333333
1759.387991	3221.333333
1760.375713	3259.333333
1761.363073	3261.000000
1762.350072	3239.000000
1763.336711	3261.333333
1764.322988	3223.000000
1765.308905	3213.333333
1766.294462	3181.000000
1767.279659	3201.000000
1768.264496	3237.333333
1769.248972	3217.000000
1770.233089	3163.333333
1771.216847	3195.333333
1772.200245	3166.666667
1773.183284	3186.333333
1774.165965	3177.000000
1775.148286	3125.666667
1776.130249	3143.333333
1777.111853	3136.000000
1778.093099	3110.333333
1779.073987	3079.000000
1780.054517	3130.000000
1781.034689	3076.000000
1782.014503	3025.000000
1782.993960	3050.333333
1783.973060	3007.333333
1784.951802	3021.666667
1785.930188	3033.000000
1786.908217	2993.000000
1787.885889	2941.000000
1788.863205	2980.333333
1789.840164	2977.666667
1790.816768	2961.000000
1791.793015	2977.333333
1792.768907	2933.333333
1793.744443	2983.000000
1794.719624	2936.666667
1795.694449	2955.333333
1796.668919	2975.000000
1797.643035	2946.000000
1798.616795	2962.333333
1799.590201	2964.333333
1800.563253	2978.333333
1801.535950	2936.666667
1802.508294	2935.000000
1803.480283	2977.666667
1804.451919	2921.666667
1805.423201	2943.000000
1806.394129	2953.666667
1807.364705	2931.000000
1808.334927	2990.000000
1809.304796	2920.333333
1810.274313	2935.333333
1811.243477	2975.333333
1812.212288	2930.000000
1813.180747	2910.333333
1814.148855	2950.000000
1815.116610	2876.333333
1816.084013	2896.333333
1817.051065	2926.000000
1818.017766	2917.666667
1818.984115	2943.000000
1819.950113	2891.333333
1820.915760	2937.666667
1821.881057	2896.333333
1822.846003	2852.666667
1823.810598	2871.000000
1824.774843	2860.333333
1825.738738	2863.666667
1826.702283	2871.666667
1827.665479	2850.000000
1828.628324	2836.000000
1829.590821	2833.333333
1830.552968	2799.666667
1831.514765	2796.333333
1832.476214	2839.333333
1833.437314	2785.666667
1834.398066	2809.000000
1835.358469	2803.666667
1836.318524	2829.666667
1837.278230	2768.666667
1838.237589	2804.666667
1839.196600	2780.666667
1840.155263	2742.666667
1841.113578	2790.333333
1842.071547	2792.000000
1843.029168	2830.666667
1843.986442	2780.666667
1844.943369	2754.000000
1845.899950	2790.666667
1846.856184	2809.333333
1847.812072	2780.666667
1848.767614	2836.666667
1849.722809	2784.333333
1850.677659	2761.000000
1851.632163	2830.000000
1852.586322	2803.000000
1853.540135	2818.333333
1854.493603	2784.000000
1855.446726	2815.000000
1856.399504	2741.666667
1857.351937	2758.333333
1858.304026	2751.666667
1859.255770	2756.666667
1860.207170	2763.333333
1861.158227	2750.666667
1862.108939	2730.000000
1863.059307	2722.666667
1864.009332	2709.333333
1864.959013	2749.000000
1865.908351	2665.666667
1866.857346	2679.666667
1867.805998	2652.333333
1868.754307	2642.333333
1869.702274	2659.333333
1870.649898	2608.000000
1871.597180	2637.333333
1872.544119	2596.666667
1873.490717	2636.000000
1874.436973	2633.666667
1875.382887	2612.000000
1876.328459	2618.333333
1877.273691	2614.333333
1878.218581	2598.666667
1879.163130	2575.000000
1880.107338	2621.000000
1881.051205	2561.666667
1881.994732	2590.333333
1882.937919	2595.333333
1883.880765	2564.000000
1884.823271	2603.333333
1885.765437	2614.000000
1886.707264	2608.333333
1887.648750	2599.666667
1888.589898	2638.000000
1889.530706	2634.666667
1890.471175	2608.666667
1891.411305	2580.666667
1892.351096	2605.000000
1893.290548	2556.666667
1894.229662	2614.333333
1895.168438	2589.333333
1896.106876	2619.333333
1897.044975	2561.333333
1897.982737	2612.000000
1898.920160	2562.000000
1899.857247	2568.666667
1900.793996	2566.000000
1901.730407	2546.000000
1902.666482	2553.333333
1903.602219	2571.000000
1904.537620	2541.000000
1905.472685	2529.333333
1906.407412	2488.000000
1907.341804	2507.333333
1908.275859	2467.000000
1909.209579	2488.000000
1910.142962	2469.000000
1911.076010	2428.333333
1912.008722	2452.666667
1912.941099	2426.333333
1913.873141	2424.666667
1914.804848	2389.000000
1915.736219	2413.666667
1916.667256	2391.333333
1917.597959	2400.666667
1918.528327	2415.000000
1919.458360	2388.000000
1920.388060	2400.000000
1921.317426	2383.000000
1922.246457	2375.000000
1923.175156	2398.666667
1924.103520	2402.333333
1925.031552	2397.000000
1925.959250	2414.333333
1926.886615	2378.333333
1927.813647	2378.666667
1928.740346	2389.333333
1929.666713	2380.666667
1930.592748	2401.666667
1931.518450	2391.333333
1932.443820	2405.666667
1933.368858	2357.333333
1934.293564	2398.000000
1935.217939	2370.000000
1936.141982	2411.000000
1937.065694	2398.333333
1937.989074	2388.000000
1938.912124	2342.000000
1939.834842	2365.666667
1940.757230	2368.000000
1941.679287	2338.666667
1942.601014	2352.000000
1943.522411	2346.666667
1944.443477	2327.000000
1945.364214	2301.333333
1946.284621	2297.666667
1947.204698	2321.333333
1948.124445	2287.666667
1949.043863	2305.333333
1949.962952	2261.333333
1950.881712	2263.666667
1951.800143	2255.000000
1952.718245	2276.666667
1953.636019	2235.666667
1954.553464	2240.000000
1955.470581	2231.333333
1956.387369	2238.666667
1957.303830	2184.000000
1958.219963	2195.000000
1959.135768	2186.000000
1960.051246	2217.000000
1960.966396	2220.333333
1961.881219	2236.333333
1962.795715	2211.333333
1963.709883	2231.000000
1964.623726	2247.666667
1965.537241	2220.333333
1966.450430	2201.000000
1967.363293	2220.000000
1968.275829	2227.000000
1969.188040	2208.666667
1970.099924	2247.000000
1971.011483	2226.333333
1971.922716	2230.666667
1972.833624	2221.000000
1973.744206	2222.666667
1974.654464	2238.666667
1975.564396	2240.000000
1976.474004	2203.000000
1977.383286	2215.666667
1978.292245	2233.333333
1979.200878	2192.000000
1980.109188	2219.666667
1981.017174	2189.333333
1981.924835	2201.333333
1982.832173	2175.333333
1983.739187	2176.000000
1984.645878	2133.666667
1985.552245	2180.333333
1986.458289	2144.000000
1987.364010	2138.000000
1988.269408	2136.000000
1989.174484	2154.333333
1990.079236	2127.000000
1990.983667	2094.333333
1991.887775	2104.666667
1992.791561	2111.000000
1993.695024	2079.333333
1994.598166	2070.666667
1995.500986	2088.333333
1996.403485	2062.666667
1997.305662	2076.333333
1998.207518	2073.333333
1999.109053	2079.333333
