200.151048	21395.000000
201.758777	21192.666667
203.365815	21183.333333
204.972162	21022.666667
206.577820	20957.666667
208.182787	20883.000000
209.787065	20988.666667
211.390653	20599.666667
212.993553	20706.666667
214.595765	20608.000000
216.197289	20565.666667
217.798125	20548.000000
219.398274	20415.666667
220.997737	20283.333333
222.596513	20366.666667
224.194603	20359.000000
225.792008	20161.000000
227.388728	20239.666667
228.984763	20211.333333
230.580114	20198.666667
232.174781	20036.666667
233.768765	19937.666667
235.362065	19944.000000
236.954683	19960.000000
238.546619	19884.333333
240.137872	19857.666667
241.728445	19733.666667
243.318336	19591.000000
244.907546	19524.000000
246.496076	19619.333333
248.083926	19393.000000
249.671097	19341.333333
251.257589	19292.000000
252.843402	19283.333333
254.428536	19054.000000
256.012993	19167.333333
257.596772	19089.666667
259.179874	19034.666667
260.762300	18990.000000
262.344049	18868.333333
263.925122	18913.000000
265.505519	18734.333333
267.085241	18606.000000
268.664289	18599.333333
270.242662	18735.666667
271.820361	18615.000000
273.397387	18597.333333
274.973740	18599.333333
276.549419	18580.333333
278.124426	18619.000000
279.698762	18558.000000
281.272425	18592.333333
282.845417	18657.000000
284.417739	18586.666667
285.989390	18539.666667
287.560371	18535.000000
289.130682	18542.333333
290.700324	18479.333333
292.269297	18581.666667
293.837602	18388.333333
295.405238	18397.333333
296.972207	18311.333333
298.538508	18360.000000
300.104142	18326.000000
301.669110	18260.666667
303.233411	18221.000000
304.797047	18151.333333
306.360017	17989.666667
307.922322	18028.666667
309.483963	17858.333333
311.044939	17775.000000
312.605252	17756.333333
314.164900	17725.666667
315.723886	17634.333333
317.282209	17520.000000
318.839870	17455.333333
320.396868	17428.000000
321.953205	17322.333333
323.508881	17334.666667
325.063896	17152.666667
326.618251	17324.000000
328.171945	17211.333333
329.724980	17317.666667
331.277356	17231.333333
332.829072	17201.000000
334.380131	17187.333333
335.930530	17170.666667
337.480273	17151.333333
339.029357	17170.333333
340.577785	17040.000000
342.125556	17185.000000
343.672671	16929.333333
345.219130	16946.666667
346.764933	17078.666667
348.310081	16984.000000
349.854575	16946.000000
351.398414	16864.000000
352.941599	16804.333333
354.484130	16839.333333
356.026008	16899.666667
357.567234	16716.000000
359.107807	16715.666667
360.647727	16647.333333
362.186996	16728.333333
363.725614	16603.000000
365.263580	16582.333333
366.800896	16519.000000
368.337562	16562.000000
369.873578	16532.333333
371.408944	16415.333333
372.943661	16438.000000
374.477730	16513.666667
376.011150	16417.000000
377.543922	16571.333333
379.076046	16474.000000
380.607523	16471.000000
382.138353	16633.333333
383.668537	16611.666667
385.198075	16571.666667
386.726966	16562.666667
388.255213	16618.000000
389.782814	16555.000000
391.309770	16582.000000
392.836083	16513.000000
394.361751	16578.000000
395.886776	16490.000000
397.411157	16550.000000
398.934896	16493.666667
400.457992	16515.666667
401.980446	16721.333333
403.502258	16634.000000
405.023429	16727.333333
406.543959	16605.333333
408.063849	16690.333333
409.583098	16827.000000
411.101707	16876.000000
412.619677	16817.000000
414.137007	17005.000000
415.653699	17099.666667
417.169752	17213.333333
418.685167	17320.000000
420.199945	17564.333333
421.714085	17694.333333
423.227588	17822.666667
424.740454	17984.000000
426.252684	18019.333333
427.764279	18043.666667
429.275238	18132.666667
430.785561	17993.333333
432.295250	17958.333333
433.804304	17790.333333
435.312725	17557.000000
436.820511	17502.333333
438.327664	17314.666667
439.834185	17326.000000
441.340072	17245.000000
442.845327	17192.333333
444.349951	17106.000000
445.853942	16984.000000
447.357303	16983.333333
448.860033	16959.666667
450.362132	16851.333333
451.863601	16628.000000
453.364440	16433.666667
454.864650	16525.666667
456.364231	16383.000000
457.863183	16182.000000
459.361507	16109.000000
460.859203	15990.000000
462.356271	15907.666667
463.852712	15804.333333
465.348526	15595.000000
466.843714	15538.333333
468.338275	15569.666667
469.832210	15522.666667
471.325520	15443.333333
472.818205	15423.000000
474.310265	15354.000000
475.801700	15259.333333
477.292512	15249.666667
478.782700	15131.333333
480.272264	15133.333333
481.761205	15059.333333
483.249524	14994.333333
484.737221	14995.000000
486.224295	14931.000000
487.710748	14954.000000
489.196579	14930.333333
490.681790	14802.333333
492.166380	14829.333333
493.650350	14840.666667
495.133700	14887.333333
496.616431	14790.666667
498.098542	14821.666667
499.580035	14707.333333
501.060909	14724.333333
502.541165	14795.666667
504.020804	14674.666667
505.499825	14606.666667
506.978228	14640.000000
508.456016	14632.666667
509.933186	14497.000000
511.409741	14562.666667
512.885680	14568.666667
514.361004	14592.666667
515.835713	14512.000000
517.309807	14513.000000
518.783287	14444.666667
520.256153	14612.333333
521.728406	14484.333333
523.200045	14599.333333
524.671071	14478.000000
526.141485	14550.333333
527.611287	14529.333333
529.080476	14531.666667
530.549054	14509.000000
532.017021	14539.000000
533.484378	14508.000000
534.951123	14513.333333
536.417259	14507.333333
537.882785	14472.000000
539.347701	14388.666667
540.812008	14497.333333
542.275707	14390.333333
543.738797	14301.666667
545.201279	14378.000000
546.663153	14384.333333
548.124420	14378.000000
549.585080	14331.000000
551.045133	14373.666667
552.504579	14425.333333
553.963420	14513.333333
555.421655	14364.000000
556.879285	14484.333333
558.336309	14461.000000
559.792729	14637.333333
561.248545	14579.000000
562.703756	14532.333333
564.158364	14659.333333
565.612369	14705.333333
567.065770	14732.333333
568.518569	14774.000000
569.970766	14771.000000
571.422361	14814.666667
572.873354	14962.000000
574.323745	15104.333333
575.773536	15176.000000
577.222726	15227.333333
578.671316	15230.000000
580.119306	15344.333333
581.566696	15393.333333
583.013487	15311.333333
584.459679	15333.000000
585.905273	15258.333333
587.350268	15267.666667
588.794665	15138.666667
590.238465	15185.333333
591.681667	15120.666667
593.124272	14918.333333
594.566281	14984.000000
596.007694	14670.000000
597.448510	14595.000000
598.888731	14566.666667
600.328357	14353.333333
601.767388	14336.000000
603.205824	14287.000000
604.643666	14212.000000
606.080914	14201.333333
607.517568	14074.666667
608.953629	14283.666667
610.389097	14158.333333
611.823972	14037.000000
613.258255	14090.666667
614.691946	13961.333333
616.125046	13808.000000
617.557554	13808.000000
618.989471	13780.000000
620.420798	13673.000000
621.851534	13526.333333
623.281680	13346.333333
624.711237	13372.666667
626.140204	13208.333333
627.568582	13275.666667
628.996372	13272.666667
630.423573	13186.333333
631.850186	13054.333333
633.276211	13040.666667
634.701650	13104.000000
636.126501	13049.333333
637.550765	13072.000000
638.974443	12997.000000
640.397535	12955.333333
641.820041	12924.000000
643.241961	12973.000000
644.663297	12841.666667
646.084048	12926.333333
647.504214	12964.666667
648.923796	12817.666667
650.342795	12771.000000
651.761210	12757.666667
653.179041	12823.333333
654.596290	12724.000000
656.012957	12781.000000
657.429041	12803.000000
658.844543	12838.000000
660.259464	12739.333333
661.673804	12751.000000
663.087563	12722.666667
664.500741	12663.333333
665.913339	12728.666667
667.325357	12733.333333
668.736795	12740.333333
670.147654	12686.000000
671.557934	12581.666667
672.967636	12607.000000
674.376759	12674.333333
675.785304	12624.000000
677.193271	12654.000000
678.600661	12596.666667
680.007474	12524.333333
681.413711	12480.666667
682.819370	12534.333333
684.224454	12493.333333
685.628962	12435.666667
687.032895	12559.333333
688.436252	12437.000000
689.839034	12520.000000
691.241242	12453.000000
692.642876	12378.000000
694.043936	12377.666667
695.444422	12421.666667
696.844336	12419.666667
698.243676	12381.333333
699.642443	12307.000000
701.040639	12472.333333
702.438262	12315.000000
703.835313	12368.000000
705.231794	12284.666667
706.627703	12388.000000
708.023041	12218.333333
709.417810	12318.000000
710.812008	12325.333333
712.205636	12251.666667
713.598694	12272.333333
714.991184	12330.000000
716.383105	12213.333333
717.774457	12185.666667
719.165241	12213.666667
720.555457	12215.333333
721.945105	12209.000000
723.334187	12188.000000
724.722701	12242.333333
726.110648	12189.000000
727.498030	12080.666667
728.884845	12167.666667
730.271094	12168.333333
731.656778	12192.666667
733.041897	12109.333333
734.426451	12087.000000
735.810441	12041.000000
737.193866	11986.666667
738.576728	12057.333333
739.959026	12104.333333
741.340760	12008.333333
742.721932	12032.000000
744.102541	12006.333333
745.482588	11930.666667
746.862073	11984.666667
748.240996	11947.000000
749.619358	12053.000000
750.997158	11938.333333
752.374398	11930.333333
753.751077	11941.666667
755.127197	11944.000000
756.502756	11972.000000
757.877756	11892.666667
759.252196	11962.666667
760.626078	11880.333333
761.999400	11775.666667
763.372165	11825.333333
764.744371	11805.333333
766.116020	11828.000000
767.487111	11801.333333
768.857646	11750.666667
770.227623	11693.000000
771.597044	11618.666667
772.965908	11727.333333
774.334217	11673.333333
775.701970	11761.000000
777.069168	11639.333333
778.435811	11630.000000
779.801899	11483.000000
781.167433	11548.666667
782.532412	11614.000000
783.896838	11586.333333
785.260710	11467.000000
786.624029	11507.000000
787.986796	11430.333333
789.349009	11377.666667
790.710671	11474.666667
792.071780	11347.666667
793.432338	11324.333333
794.792344	11371.666667
796.151799	11383.666667
797.510704	11321.333333
798.869058	11226.666667
800.226862	11333.333333
801.584116	11248.333333
802.940820	11386.666667
804.296975	11226.000000
805.652581	11353.000000
807.007638	11271.666667
808.362147	11410.000000
809.716108	11436.333333
811.069521	11445.666667
812.422387	11351.666667
813.774705	11469.000000
815.126476	11452.000000
816.477701	11471.000000
817.828380	11439.666667
819.178512	11304.333333
820.528099	11371.333333
821.877140	11257.000000
823.225637	11301.000000
824.573588	11219.000000
825.920995	11311.333333
827.267857	11269.666667
828.614176	11205.666667
829.959951	11142.000000
831.305183	11179.000000
832.649871	11255.666667
833.994017	11201.333333
835.337620	11117.000000
836.680681	11152.666667
838.023201	11155.666667
839.365178	11284.000000
840.706614	11213.000000
842.047510	11262.333333
843.387864	11343.666667
844.727678	11348.333333
846.066952	11346.000000
847.405687	11304.333333
848.743881	11473.666667
850.081537	11514.000000
851.418653	11548.666667
852.755231	11610.000000
854.091270	11522.333333
855.426771	11562.333333
856.761735	11606.000000
858.096160	11519.333333
859.430049	11509.000000
860.763401	11469.333333
862.096216	11295.666667
863.428495	11350.666667
864.760237	11262.000000
866.091444	11248.666667
867.422115	11301.000000
868.752252	11272.000000
870.081853	11136.333333
871.410919	11194.333333
872.739452	11147.666667
874.067450	11160.333333
875.394914	11236.666667
876.721845	11106.666667
878.048243	11045.666667
879.374108	11068.000000
880.699440	11076.333333
882.024240	11058.333333
883.348508	10917.666667
884.672244	10987.666667
885.995449	10856.333333
887.318122	10860.333333
888.640265	10901.333333
889.961877	10783.000000
891.282959	10812.333333
892.603510	10810.000000
893.923532	10737.000000
895.243024	10648.666667
896.561987	10672.000000
897.880422	10663.333333
899.198327	10639.000000
900.515705	10678.333333
901.832554	10620.333333
903.148875	10650.333333
904.464669	10708.000000
905.779936	10607.333333
907.094676	10709.000000
908.408889	10763.000000
909.722576	10720.666667
911.035737	10730.000000
912.348371	10893.000000
913.660481	11035.333333
914.972065	11081.666667
916.283124	11145.000000
917.593659	11182.000000
918.903669	11301.333333
920.213155	11318.333333
921.522117	11299.000000
922.830556	11235.666667
924.138471	11292.000000
925.445864	11289.666667
926.752733	11215.666667
928.059081	11244.333333
929.364906	11217.000000
930.670209	11307.000000
931.974991	11365.666667
933.279251	11421.666667
934.582990	11477.666667
935.886209	11653.333333
937.188907	11726.666667
938.491085	11828.333333
939.792743	11961.333333
941.093881	12185.333333
942.394500	12407.333333
943.694600	12684.000000
944.994181	13006.666667
946.293243	13382.666667
947.591787	13782.000000
948.889813	14438.000000
950.187322	15023.333333
951.484313	15811.333333
952.780787	16489.333333
954.076744	17495.666667
955.372184	18218.000000
956.667108	18812.666667
957.961516	19337.666667
959.255409	19333.000000
960.548785	19100.333333
961.841647	18493.666667
963.133993	17667.333333
964.425825	16664.666667
965.717142	15816.333333
967.007946	14754.666667
968.298235	13846.000000
969.588011	13245.333333
970.877273	12494.000000
972.166023	11979.333333
973.454259	11562.333333
974.741984	11061.333333
976.029196	10828.333333
977.315895	10606.000000
978.602084	10457.000000
979.887761	10350.333333
981.172926	10179.000000
982.457581	10101.666667
983.741725	10048.000000
985.025359	9978.666667
986.308483	9945.333333
987.591097	9885.666667
988.873202	9871.666667
990.154797	9843.333333
991.435883	9803.333333
992.716461	9941.000000
993.996530	9882.000000
995.276091	9847.666667
996.555144	9903.333333
997.833690	9967.000000
999.111728	10089.000000
1000.389259	10042.666667
1001.666283	10149.666667
1002.942800	10172.666667
1004.218812	10166.666667
1005.494317	9989.666667
1006.769317	10013.333333
1008.043811	9949.000000
1009.317799	9970.666667
1010.591283	9897.000000
1011.864263	9926.000000
1013.136737	9879.333333
1014.408708	9977.000000
1015.680175	9930.666667
1016.951138	9953.666667
1018.221598	9874.666667
1019.491554	10001.000000
1020.761008	9968.333333
1022.029959	9951.666667
1023.298408	10012.000000
1024.566355	10049.333333
1025.833800	10084.000000
1027.100744	10131.000000
1028.367187	10172.666667
1029.633128	10185.000000
1030.898569	10158.000000
1032.163509	10137.000000
1033.427949	10217.000000
1034.691890	10170.000000
1035.955330	10183.333333
1037.218271	10153.666667
1038.480714	10218.000000
1039.742657	10191.333333
1041.004101	10202.666667
1042.265048	10148.000000
1043.525496	10278.333333
1044.785446	10153.000000
1046.044899	10092.000000
1047.303855	10029.666667
1048.562313	10021.333333
1049.820275	10045.000000
1051.077740	10144.333333
1052.334709	9997.000000
1053.591182	10027.333333
1054.847160	10002.666667
1056.102641	9978.000000
1057.357628	9978.666667
1058.612120	10108.333333
1059.866117	10061.000000
1061.119619	10189.666667
1062.372628	10175.000000
1063.625142	10244.000000
1064.877163	10392.333333
1066.128691	10348.333333
1067.379725	10321.666667
1068.630267	10428.000000
1069.880316	10434.000000
1071.129872	10371.000000
1072.378937	10252.333333
1073.627509	10166.666667
1074.875590	10165.666667
1076.123180	10115.000000
1077.370279	9961.666667
1078.616887	9881.000000
1079.863004	9709.000000
1081.108631	9655.333333
1082.353768	9548.666667
1083.598415	9451.666667
1084.842573	9368.666667
1086.086241	9379.000000
1087.329421	9273.000000
1088.572111	9224.666667
1089.814314	9168.333333
1091.056028	9088.666667
1092.297253	9126.333333
1093.537992	9080.000000
1094.778242	9063.000000
1096.018006	9028.000000
1097.257282	8935.666667
1098.496072	8925.666667
1099.734376	8977.333333
1100.972193	8917.000000
1102.209524	8921.000000
1103.446370	8950.666667
1104.682730	8924.666667
1105.918604	8818.333333
1107.153994	8888.666667
1108.388900	8719.333333
1109.623320	8770.000000
1110.857257	8671.666667
1112.090710	8630.333333
1113.323679	8579.666667
1114.556164	8529.666667
1115.788167	8548.333333
1117.019686	8543.666667
1118.250723	8511.666667
1119.481278	8521.333333
1120.711350	8481.333333
1121.940940	8505.000000
1123.170049	8478.333333
1124.398676	8481.333333
1125.626823	8395.333333
1126.854488	8408.666667
1128.081672	8397.666667
1129.308376	8414.000000
1130.534600	8325.000000
1131.760345	8321.666667
1132.985609	8328.333333
1134.210394	8353.333333
1135.434700	8285.333333
1136.658527	8253.000000
1137.881875	8288.000000
1139.104745	8233.000000
1140.327136	8209.000000
1141.549050	8264.000000
1142.770486	8175.000000
1143.991445	8154.333333
1145.211926	8228.333333
1146.431931	8146.000000
1147.651459	8247.666667
1148.870510	8219.666667
1150.089086	8148.333333
1151.307185	8193.666667
1152.524808	8201.333333
1153.741957	8112.000000
1154.958630	8161.333333
1156.174828	8205.333333
1157.390551	8183.333333
1158.605800	8189.333333
1159.820574	8099.000000
1161.034875	8167.333333
1162.248702	8152.333333
1163.462055	8129.333333
1164.674936	8115.000000
1165.887343	8148.000000
1167.099277	8028.000000
1168.310739	8137.000000
1169.521729	8165.333333
1170.732247	8118.000000
1171.942293	8095.000000
1173.151867	8163.666667
1174.360970	8177.666667
1175.569602	8132.000000
1176.777764	8139.000000
1177.985454	8194.666667
1179.192675	8080.666667
1180.399425	8056.000000
1181.605706	8035.000000
1182.811517	8046.000000
1184.016859	8020.000000
1185.221731	7990.000000
1186.426135	7887.000000
1187.630070	7937.666667
1188.833537	7952.333333
1190.036535	7934.666667
1191.239066	7906.333333
1192.441129	7868.333333
1193.642725	7898.000000
1194.843853	7851.333333
1196.044515	7889.666667
1197.244710	7930.333333
1198.444438	7967.000000
1199.643701	7863.666667
1200.842497	7863.333333
1202.040827	7909.000000
1203.238693	7835.333333
1204.436092	7880.333333
1205.633027	7815.000000
1206.829497	7808.333333
1208.025503	7694.000000
1209.221044	7766.333333
1210.416122	7751.000000
1211.610735	7771.666667
1212.804885	7693.666667
1213.998572	7644.333333
1215.191795	7675.333333
1216.384556	7648.666667
1217.576854	7609.666667
1218.768689	7613.333333
1219.960063	7664.333333
1221.150974	7625.000000
1222.341424	7695.333333
1223.531413	7675.333333
1224.720940	7626.333333
1225.910006	7702.666667
1227.098612	7685.333333
1228.286757	7855.333333
1229.474442	7811.000000
1230.661667	7832.666667
1231.848432	7828.666667
1233.034738	7885.333333
1234.220584	7994.666667
1235.405971	7948.333333
1236.590900	7962.000000
1237.775369	8128.333333
1238.959381	8074.333333
1240.142934	8058.666667
1241.326029	8053.666667
1242.508667	8123.333333
1243.690848	8064.333333
1244.872571	8042.333333
1246.053837	8123.000000
1247.234646	8042.666667
1248.414999	8053.000000
1249.594896	7992.000000
1250.774337	7993.666667
1251.953322	8025.666667
1253.131851	8012.333333
1254.309925	7923.666667
1255.487544	7940.666667
1256.664708	7870.333333
1257.841417	7979.000000
1259.017673	7850.000000
1260.193473	7941.666667
1261.368820	7916.666667
1262.543714	7855.333333
1263.718154	8037.333333
1264.892140	7934.666667
1266.065674	7883.333333
1267.238755	7975.000000
1268.411383	7903.000000
1269.583559	7934.000000
1270.755283	7905.333333
1271.926555	7945.333333
1273.097375	7867.666667
1274.267744	7887.000000
1275.437662	7912.333333
1276.607129	7909.333333
1277.776145	7857.333333
1278.944711	7828.666667
1280.112827	7762.666667
1281.280492	7699.000000
1282.447708	7779.333333
1283.614474	7775.000000
1284.780791	7581.333333
1285.946659	7588.666667
1287.112078	7680.000000
1288.277048	7605.333333
1289.441570	7512.000000
1290.605644	7461.000000
1291.769270	7467.666667
1292.932448	7433.333333
1294.095178	7479.000000
1295.257461	7323.666667
1296.419298	7369.333333
1297.580687	7291.666667
1298.741630	7331.000000
1299.902126	7343.666667
1301.062177	7326.666667
1302.221781	7304.333333
1303.380940	7257.000000
1304.539653	7304.333333
1305.697921	7210.333333
1306.855744	7269.666667
1308.013123	7326.666667
1309.170056	7270.666667
1310.326546	7311.000000
1311.482591	7230.333333
1312.638193	7253.000000
1313.793350	7230.333333
1314.948065	7304.333333
1316.102336	7277.333333
1317.256164	7265.000000
1318.409550	7284.666667
1319.562493	7167.333333
1320.714993	7151.666667
1321.867052	7136.666667
1323.018668	7211.000000
1324.169843	7154.666667
1325.320577	7124.666667
1326.470870	7107.333333
1327.620721	7080.666667
1328.770132	7096.000000
1329.919102	7045.333333
1331.067632	7074.666667
1332.215722	7053.000000
1333.363372	7052.333333
1334.510582	7045.000000
1335.657353	7035.666667
1336.803685	7055.666667
1337.949578	7049.666667
1339.095032	7015.666667
1340.240048	6974.666667
1341.384625	6992.000000
1342.528764	6978.333333
1343.672466	7019.666667
1344.815729	6954.000000
1345.958556	6991.000000
1347.100945	6917.333333
1348.242897	6874.666667
1349.384413	6916.000000
1350.525492	6845.333333
1351.666134	6821.666667
1352.806341	6860.000000
1353.946111	6706.333333
1355.085446	6816.000000
1356.224346	6765.333333
1357.362810	6779.333333
1358.500840	6709.000000
1359.638434	6647.666667
1360.775594	6689.000000
1361.912320	6681.333333
1363.048612	6704.000000
1364.184469	6657.000000
1365.319893	6685.666667
1366.454884	6650.666667
1367.589441	6605.000000
1368.723566	6658.000000
1369.857257	6652.333333
1370.990516	6680.000000
1372.123343	6705.666667
1373.255737	6745.333333
1374.387699	6753.333333
1375.519230	6730.666667
1376.650329	6809.333333
1377.780997	6737.000000
1378.911234	6753.000000
1380.041040	6745.333333
1381.170416	6714.666667
1382.299361	6816.666667
1383.427875	6749.000000
1384.555960	6698.666667
1385.683615	6777.000000
1386.810841	6706.666667
1387.937637	6665.666667
1389.064004	6676.333333
1390.189942	6747.666667
1391.315451	6686.000000
1392.440532	6725.000000
1393.565185	6721.666667
1394.689409	6670.333333
1395.813206	6770.333333
1396.936575	6685.333333
1398.059517	6686.000000
1399.182032	6668.333333
1400.304119	6627.333333
1401.425780	6689.000000
1402.547014	6659.666667
1403.667822	6657.000000
1404.788204	6696.333333
1405.908160	6716.333333
1407.027690	6705.666667
1408.146795	6730.333333
1409.265474	6684.666667
1410.383728	6657.333333
1411.501558	6775.000000
1412.618963	6715.666667
1413.735943	6767.333333
1414.852499	6710.333333
1415.968632	6683.666667
1417.084340	6780.333333
1418.199625	6762.000000
1419.314486	6747.000000
1420.428925	6803.000000
1421.542940	6778.000000
1422.656533	6749.666667
1423.769703	6746.000000
1424.882451	6748.000000
1425.994777	6645.666667
1427.106680	6702.666667
1428.218163	6661.333333
1429.329223	6632.333333
1430.439863	6607.000000
1431.550081	6640.333333
1432.659879	6637.000000
1433.769256	6598.000000
1434.878212	6603.000000
1435.986749	6580.666667
1437.094865	6701.333333
1438.202562	6679.333333
1439.309839	6664.333333
1440.416696	6668.000000
1441.523135	6680.333333
1442.629154	6749.666667
1443.734755	6773.333333
1444.839937	6787.333333
1445.944701	6846.333333
1447.049047	6847.000000
1448.152975	6888.666667
1449.256485	6914.333333
1450.359577	6917.000000
1451.462253	6829.666667
1452.564511	6825.000000
1453.666352	6826.000000
1454.767777	6809.666667
1455.868785	6721.000000
1456.969377	6661.333333
1458.069553	6692.333333
1459.169313	6660.666667
1460.268658	6570.666667
1461.367587	6613.666667
1462.466101	6613.000000
1463.564200	6447.333333
1464.661884	6478.333333
1465.759153	6402.666667
1466.856008	6368.333333
1467.952449	6375.333333
1469.048476	6226.666667
1470.144089	6232.000000
1471.239288	6159.000000
1472.334074	6066.666667
1473.428447	6066.666667
1474.522407	5988.000000
1475.615955	5981.333333
1476.709089	5898.666667
1477.801812	5864.666667
1478.894122	5879.000000
1479.986020	5758.000000
1481.077506	5780.333333
1482.168581	5759.000000
1483.259245	5787.666667
1484.349498	5724.666667
1485.439339	5697.666667
1486.528770	5732.333333
1487.617790	5704.333333
1488.706400	5656.666667
1489.794600	5664.000000
1490.882390	5712.000000
1491.969771	5669.666667
1493.056742	5669.000000
1494.143303	5684.666667
1495.229456	5608.666667
1496.315199	5678.666667
1497.400534	5567.333333
1498.485460	5563.333333
1499.569978	5606.000000
1500.654088	5499.666667
1501.737790	5564.333333
1502.821085	5563.666667
1503.903972	5546.000000
1504.986451	5514.333333
1506.068524	5493.666667
1507.150189	5480.333333
1508.231448	5403.666667
1509.312301	5400.666667
1510.392747	5422.666667
1511.472787	5479.000000
1512.552422	5404.000000
1513.631650	5373.000000
1514.710473	5414.000000
1515.788891	5372.333333
1516.866904	5379.666667
1517.944512	5422.666667
1519.021715	5295.333333
1520.098513	5423.000000
1521.174908	5290.333333
1522.250898	5405.000000
1523.326485	5415.333333
1524.401667	5312.000000
1525.476447	5352.000000
1526.550823	5417.666667
1527.624796	5334.000000
1528.698365	5304.666667
1529.771533	5337.000000
1530.844298	5303.333333
1531.916660	5306.666667
1532.988620	5294.666667
1534.060179	5300.333333
1535.131336	5331.333333
1536.202091	5252.333333
1537.272445	5377.000000
1538.342398	5281.333333
1539.411950	5300.333333
1540.481101	5311.000000
1541.549851	5262.000000
1542.618202	5183.333333
1543.686152	5227.666667
1544.753702	5215.333333
1545.820853	5146.333333
1546.887604	5241.000000
1547.953955	5167.000000
1549.019908	5192.666667
1550.085461	5162.333333
1551.150616	5200.000000
1552.215372	5208.333333
1553.279730	5176.666667
1554.343690	5140.666667
1555.407252	5166.333333
1556.470415	5131.666667
1557.533182	5160.333333
1558.595551	5154.000000
1559.657522	5079.333333
1560.719097	5110.000000
1561.780275	5120.666667
1562.841056	5136.666667
1563.901441	5163.666667
1564.961429	5158.000000
1566.021022	5093.666667
1567.080219	5136.333333
1568.139020	5138.333333
1569.197425	5101.666667
1570.255436	5053.666667
1571.313051	5131.666667
1572.370271	5080.333333
1573.427097	5087.666667
1574.483528	5045.000000
1575.539565	5045.333333
1576.595208	5002.666667
1577.650457	5080.000000
1578.705312	5059.000000
1579.759774	5030.666667
1580.813842	5007.666667
1581.867517	4968.333333
1582.920799	4957.333333
1583.973689	5030.333333
1585.026186	5002.333333
1586.078290	4992.333333
1587.130002	4902.333333
1588.181323	4853.000000
1589.232251	4913.333333
1590.282788	4910.000000
1591.332933	4890.000000
1592.382688	4931.333333
1593.432051	4929.000000
1594.481023	4920.000000
1595.529605	4903.000000
1596.577796	4942.333333
1597.625597	4969.666667
1598.673007	4926.666667
1599.720028	4926.333333
1600.766660	4977.333333
1601.812901	4957.666667
1602.858753	5015.333333
1603.904217	4957.333333
1604.949291	5003.333333
1605.993976	4987.000000
1607.038273	4891.000000
1608.082182	4952.000000
1609.125702	4974.333333
1610.168834	4944.000000
1611.211579	4890.000000
1612.253935	4910.333333
1613.295905	4906.666667
1614.337487	4950.333333
1615.378682	4891.333333
1616.419490	4876.666667
1617.459912	4997.333333
1618.499946	4927.333333
1619.539595	4840.000000
1620.578858	4911.000000
1621.617734	4919.666667
1622.656225	4868.000000
1623.694330	4833.666667
1624.732050	4835.666667
1625.769385	4891.666667
1626.806334	4903.333333
1627.842899	4891.000000
1628.879079	4827.000000
1629.914875	4869.000000
1630.950286	4860.666667
1631.985314	4861.666667
1633.019957	4903.666667
1634.054217	4874.666667
1635.088093	4909.333333
1636.121586	4938.000000
1637.154696	4901.666667
1638.187423	4883.333333
1639.219767	4876.000000
1640.251728	4930.000000
1641.283307	4900.666667
1642.314504	4902.666667
1643.345319	4960.666667
1644.375751	4918.000000
1645.405803	4901.333333
1646.435472	4969.666667
1647.464761	4889.333333
1648.493668	4913.666667
1649.522194	4851.666667
1650.550340	4926.000000
1651.578105	4879.000000
1652.605490	4892.000000
1653.632494	4925.000000
1654.659119	4878.000000
1655.685363	4901.333333
1656.711228	4901.000000
1657.736714	4866.000000
1658.761820	4830.000000
1659.786547	4839.333333
1660.810895	4825.000000
1661.834865	4860.000000
1662.858456	4817.666667
1663.881668	4885.666667
1664.904503	4850.333333
1665.926959	4726.333333
1666.949038	4748.666667
1667.970739	4710.000000
1668.992062	4682.000000
1670.013008	4647.000000
1671.033577	4695.000000
1672.053770	4656.666667
1673.073585	4675.333333
1674.093024	4636.333333
1675.112086	4639.666667
1676.130773	4661.333333
1677.149083	4586.666667
1678.167017	4641.333333
1679.184576	4621.333333
1680.201760	4529.000000
1681.218568	4619.333333
1682.235001	4583.000000
1683.251059	4592.000000
1684.266742	4521.333333
1685.282051	4487.000000
1686.296985	4520.666667
1687.311546	4452.000000
1688.325732	4475.666667
1689.339544	4429.333333
1690.352983	4427.333333
1691.366048	4405.666667
1692.378740	4363.000000
1693.391058	4337.666667
1694.403004	4317.000000
1695.414577	4250.666667
1696.425778	4265.000000
1697.436606	4206.333333
1698.447061	4166.333333
1699.457145	4219.000000
1700.466857	4157.666667
1701.476197	4106.333333
1702.485166	4110.666667
1703.493763	4106.666667
1704.501989	4048.000000
1705.509844	4075.333333
1706.517328	4032.333333
1707.524442	4010.666667
1708.531185	4067.333333
1709.537558	4005.000000
1710.543561	3995.000000
1711.549194	4028.666667
1712.554457	4001.000000
1713.559351	3979.000000
1714.563875	4008.333333
1715.568030	3958.000000
1716.571816	4061.000000
1717.575233	4000.000000
1718.578282	3997.000000
1719.580962	4013.000000
1720.583273	3988.333333
1721.585217	3973.000000
1722.586792	4052.000000
1723.588000	3991.666667
1724.588840	4033.000000
1725.589312	3969.000000
1726.589418	3997.333333
1727.589156	3986.000000
1728.588527	3952.000000
1729.587532	3984.000000
1730.586170	3957.333333
1731.584441	3973.333333
1732.582346	3969.333333
1733.579886	3962.333333
1734.577059	3957.666667
1735.573867	3940.000000
1736.570309	3912.666667
1737.566386	3928.333333
1738.562097	3932.000000
1739.557444	3924.333333
1740.552426	3844.666667
1741.547043	3872.666667
1742.541295	3864.000000
1743.535184	3848.000000
1744.528708	3829.000000
1745.521868	3820.666667
1746.514664	3804.333333
1747.507097	3796.666667
1748.499166	3829.000000
1749.490873	3776.333333
1750.482216	3820.000000
1751.473196	3776.000000
1752.463813	3754.000000
1753.454068	3772.333333
1754.443960	3796.000000
1755.433490	3751.000000
1756.422658	3771.000000
1757.411464	3793.000000
1758.399908	3751.666667
1759.387991	3779.000000
1760.375713	3761.000000
1761.363073	3743.000000
1762.350072	3748.666667
1763.336711	3717.333333
1764.322988	3687.666667
1765.308905	3780.666667
1766.294462	3646.333333
1767.279659	3687.000000
1768.264496	3702.333333
1769.248972	3636.333333
1770.233089	3661.333333
1771.216847	3646.666667
1772.200245	3649.000000
1773.183284	3633.666667
1774.165965	3635.666667
1775.148286	3575.333333
1776.130249	3624.666667
1777.111853	3599.333333
1778.093099	3591.000000
1779.073987	3514.333333
1780.054517	3531.666667
1781.034689	3538.000000
1782.014503	3501.666667
1782.993960	3550.333333
1783.973060	3479.666667
1784.951802	3468.000000
1785.930188	3479.666667
1786.908217	3450.000000
1787.885889	3477.666667
1788.863205	3470.000000
1789.840164	3426.666667
1790.816768	3420.000000
1791.793015	3371.333333
1792.768907	3386.666667
1793.744443	3416.333333
1794.719624	3389.000000
1795.694449	3397.666667
1796.668919	3400.000000
1797.643035	3410.333333
1798.616795	3401.333333
1799.590201	3441.000000
1800.563253	3427.666667
1801.535950	3378.666667
1802.508294	3402.666667
1803.480283	3410.666667
1804.451919	3365.333333
1805.423201	3396.333333
1806.394129	3409.666667
1807.364705	3400.666667
1808.334927	3405.666667
1809.304796	3380.000000
1810.274313	3385.666667
1811.243477	3403.000000
1812.212288	3397.000000
1813.180747	3373.333333
1814.148855	3400.666667
1815.116610	3374.666667
1816.084013	3325.333333
1817.051065	3358.666667
1818.017766	3380.000000
1818.984115	3361.666667
1819.950113	3338.333333
1820.915760	3367.666667
1821.881057	3362.666667
1822.846003	3302.333333
1823.810598	3313.666667
1824.774843	3319.333333
1825.738738	3303.666667
1826.702283	3258.666667
1827.665479	3318.000000
1828.628324	3318.666667
1829.590821	3258.333333
1830.552968	3291.000000
1831.514765	3298.000000
1832.476214	3227.666667
1833.437314	3286.333333
1834.398066	3243.333333
1835.358469	3229.666667
1836.318524	3234.333333
1837.278230	3214.333333
1838.237589	3232.000000
1839.196600	3248.333333
1840.155263	3230.666667
1841.113578	3220.000000
1842.071547	3232.333333
1843.029168	3282.000000
1843.986442	3192.000000
1844.943369	3252.666667
1845.899950	3253.333333
1846.856184	3191.000000
1847.812072	3262.666667
1848.767614	3200.000000
1849.722809	3228.666667
1850.677659	3206.666667
1851.632163	3221.000000
1852.586322	3268.666667
1853.540135	3255.333333
1854.493603	3161.333333
1855.446726	3241.333333
1856.399504	3195.000000
1857.351937	3171.000000
1858.304026	3192.000000
1859.255770	3156.000000
1860.207170	3178.000000
1861.158227	3106.000000
1862.108939	3139.000000
1863.059307	3129.666667
1864.009332	3104.000000
1864.959013	3084.666667
1865.908351	3060.000000
1866.857346	3044.666667
1867.805998	3065.000000
1868.754307	3006.000000
1869.702274	3060.000000
1870.649898	3012.666667
1871.597180	3051.333333
1872.544119	3067.666667
1873.490717	2973.000000
1874.436973	2970.666667
1875.382887	2966.666667
1876.328459	2983.000000
1877.273691	2951.000000
1878.218581	2992.333333
1879.163130	2984.333333
1880.107338	2987.333333
1881.051205	2996.666667
1881.994732	2996.666667
1882.937919	3023.333333
1883.880765	3012.333333
1884.823271	2985.333333
1885.765437	3012.000000
1886.707264	3016.666667
1887.648750	3008.000000
1888.589898	2952.666667
1889.530706	3029.666667
1890.471175	2987.666667
1891.411305	3017.000000
1892.351096	2986.666667
1893.290548	2999.333333
1894.229662	2997.000000
1895.168438	2981.666667
1896.106876	2989.000000
1897.044975	2952.000000
1897.982737	2974.666667
1898.920160	2957.000000
1899.857247	2973.000000
1900.793996	2971.000000
1901.730407	2925.666667
1902.666482	2948.333333
1903.602219	2934.666667
1904.537620	2932.666667
1905.472685	2910.666667
1906.407412	2882.333333
1907.341804	2875.666667
1908.275859	2817.333333
1909.209579	2835.000000
1910.142962	2846.333333
1911.076010	2857.333333
1912.008722	2840.000000
1912.941099	2806.333333
1913.873141	2760.666667
1914.804848	2800.333333
1915.736219	2775.333333
1916.667256	2750.333333
1917.597959	2752.333333
1918.528327	2761.666667
1919.458360	2739.333333
1920.388060	2727.333333
1921.317426	2744.000000
1922.246457	2716.666667
1923.175156	2799.000000
1924.103520	2740.666667
1925.031552	2721.666667
1925.959250	2762.000000
1926.886615	2721.333333
1927.813647	2748.333333
1928.740346	2761.000000
1929.666713	2721.666667
1930.592748	2717.333333
1931.518450	2746.000000
1932.443820	2733.000000
1933.368858	2738.000000
1934.293564	2722.333333
1935.217939	2699.000000
1936.141982	2717.666667
1937.065694	2715.333333
1937.989074	2701.666667
1938.912124	2719.000000
1939.834842	2717.000000
1940.757230	2657.333333
1941.679287	2707.000000
1942.601014	2654.000000
1943.522411	2677.666667
1944.443477	2663.666667
1945.364214	2686.333333
1946.284621	2644.666667
1947.204698	2626.333333
1948.124445	2607.666667
1949.043863	2616.666667
1949.962952	2568.333333
1950.881712	2606.000000
1951.800143	2575.666667
1952.718245	2539.000000
1953.636019	2556.666667
1954.553464	2553.333333
1955.470581	2557.666667
1956.387369	2491.666667
1957.303830	2544.333333
1958.219963	2533.666667
1959.135768	2496.000000
1960.051246	2504.000000
1960.966396	2559.666667
1961.881219	2521.333333
1962.795715	2552.333333
1963.709883	2540.000000
1964.623726	2538.666667
1965.537241	2501.666667
1966.450430	2507.000000
1967.363293	2540.000000
1968.275829	2556.000000
1969.188040	2507.000000
1970.099924	2567.333333
1971.011483	2531.666667
1971.922716	2577.000000
1972.833624	2516.333333
1973.744206	2585.666667
1974.654464	2562.666667
1975.564396	2558.000000
1976.474004	2582.000000
1977.383286	2536.000000
1978.292245	2553.333333
1979.200878	2510.666667
1980.109188	2509.000000
1981.017174	2503.666667
1981.924835	2487.000000
1982.832173	2517.666667
1983.739187	2529.666667
1984.645878	2501.333333
1985.552245	2495.000000
1986.458289	2446.666667
1987.364010	2435.333333
1988.269408	2435.666667
1989.174484	2383.666667
1990.079236	2392.666667
1990.983667	2418.333333
1991.887775	2411.000000
1992.791561	2424.333333
1993.695024	2391.666667
1994.598166	2372.333333
1995.500986	2358.333333
1996.403485	2368.333333
1997.305662	2368.333333
1998.207518	2347.666667
1999.109053	2343.666667
