200.151048	50875.666667
201.758777	51054.666667
203.365815	50734.333333
204.972162	50860.333333
206.577820	50590.000000
208.182787	50734.666667
209.787065	50750.333333
211.390653	50439.333333
212.993553	50563.000000
214.595765	50490.666667
216.197289	50470.000000
217.798125	50196.333333
219.398274	50366.666667
220.997737	50233.000000
222.596513	50243.666667
224.194603	50177.333333
225.792008	49968.000000
227.388728	50180.666667
228.984763	50094.333333
230.580114	50108.333333
232.174781	50080.333333
233.768765	49782.000000
235.362065	50058.000000
236.954683	49981.000000
238.546619	49982.666667
240.137872	49758.000000
241.728445	49803.333333
243.318336	49496.666667
244.907546	49543.666667
246.496076	49281.333333
248.083926	49353.333333
249.671097	49047.333333
251.257589	49080.666667
252.843402	48923.000000
254.428536	48740.666667
256.012993	48879.000000
257.596772	48583.666667
259.179874	48713.333333
260.762300	48412.666667
262.344049	48329.333333
263.925122	48629.000000
265.505519	48337.333333
267.085241	48190.666667
268.664289	48384.333333
270.242662	48347.666667
271.820361	48235.333333
273.397387	48237.666667
274.973740	48493.000000
276.549419	48640.000000
278.124426	48402.000000
279.698762	48570.000000
281.272425	48666.333333
282.845417	48604.333333
284.417739	48642.000000
285.989390	48688.666667
287.560371	48852.666667
289.130682	48917.666667
290.700324	48726.000000
292.269297	48719.000000
293.837602	48677.333333
295.405238	48724.000000
296.972207	48590.000000
298.538508	48621.333333
300.104142	48625.000000
301.669110	48546.333333
303.233411	48389.000000
304.797047	48367.333333
306.360017	48068.000000
307.922322	48048.333333
309.483963	47898.333333
311.044939	47827.000000
312.605252	47507.000000
314.164900	47451.000000
315.723886	47486.333333
317.282209	47417.333333
318.839870	47337.333333
320.396868	47263.000000
321.953205	47179.666667
323.508881	47221.333333
325.063896	46884.333333
326.618251	47085.666667
328.171945	47131.666667
329.724980	47213.666667
331.277356	46926.000000
332.829072	46887.333333
334.380131	46877.000000
335.930530	47022.333333
337.480273	47012.000000
339.029357	47054.666667
340.577785	46927.666667
342.125556	47101.000000
343.672671	46938.666667
345.219130	47024.666667
346.764933	47152.333333
348.310081	47103.666667
349.854575	46855.000000
351.398414	47123.000000
352.941599	47075.000000
354.484130	46876.666667
356.026008	46954.000000
357.567234	46877.333333
359.107807	46726.666667
360.647727	46701.666667
362.186996	46655.333333
363.725614	46615.000000
365.263580	46742.000000
366.800896	46621.000000
368.337562	46625.000000
369.873578	46501.333333
371.408944	46402.000000
372.943661	46501.666667
374.477730	46462.333333
376.011150	46500.000000
377.543922	46228.666667
379.076046	46327.666667
380.607523	46114.000000
382.138353	46333.000000
383.668537	46400.666667
385.198075	46270.666667
386.726966	46373.000000
388.255213	46362.333333
389.782814	46495.333333
391.309770	46492.000000
392.836083	46505.666667
394.361751	46119.666667
395.886776	46467.333333
397.411157	46486.333333
398.934896	46698.000000
400.457992	46448.000000
401.980446	46612.666667
403.502258	46649.333333
405.023429	46664.666667
406.543959	46612.333333
408.063849	46802.666667
409.583098	46754.666667
411.101707	46789.000000
412.619677	46797.666667
414.137007	47128.000000
415.653699	47221.000000
417.169752	47177.666667
418.685167	47493.666667
420.199945	47765.000000
421.714085	47848.666667
423.227588	47966.666667
424.740454	48096.666667
426.252684	48030.000000
427.764279	48241.333333
429.275238	48036.333333
430.785561	48044.333333
432.295250	47825.000000
433.804304	47655.666667
435.312725	47337.333333
436.820511	47375.666667
438.327664	47183.666667
439.834185	47055.000000
441.340072	46971.333333
442.845327	46796.666667
444.349951	46749.333333
445.853942	46507.333333
447.357303	46504.333333
448.860033	46280.333333
450.362132	45925.666667
451.863601	46074.000000
453.364440	45763.666667
454.864650	45714.000000
456.364231	45399.333333
457.863183	45447.333333
459.361507	45086.666667
460.859203	45338.000000
462.356271	44910.666667
463.852712	45041.333333
465.348526	44744.666667
466.843714	44718.666667
468.338275	44489.333333
469.832210	44463.000000
471.325520	44412.333333
472.818205	44444.000000
474.310265	44212.666667
475.801700	44295.333333
477.292512	44046.000000
478.782700	44062.333333
480.272264	43982.000000
481.761205	44032.000000
483.249524	43993.333333
484.737221	43825.333333
486.224295	43743.000000
487.710748	43744.666667
489.196579	43736.000000
490.681790	43881.666667
492.166380	43569.666667
493.650350	43304.333333
495.133700	43755.000000
496.616431	43575.333333
498.098542	43488.666667
499.580035	43302.666667
501.060909	43274.666667
502.541165	43334.333333
504.020804	43252.666667
505.499825	43162.666667
506.978228	43083.666667
508.456016	43099.000000
509.933186	43185.666667
511.409741	42830.666667
512.885680	42858.333333
514.361004	42875.000000
515.835713	42956.666667
517.309807	42793.000000
518.783287	42831.666667
520.256153	42737.666667
521.728406	42596.000000
523.200045	42671.666667
524.671071	42836.000000
526.141485	42664.333333
527.611287	42558.333333
529.080476	42751.666667
530.549054	42410.666667
532.017021	42463.333333
533.484378	42467.333333
534.951123	42437.666667
536.417259	42469.666667
537.882785	42453.333333
539.347701	42441.666667
540.812008	42221.666667
542.275707	42289.000000
543.738797	42236.000000
545.201279	42065.000000
546.663153	42279.000000
548.124420	42188.666667
549.585080	42317.000000
551.045133	42170.000000
552.504579	42288.000000
553.963420	42265.333333
555.421655	42243.666667
556.879285	42243.000000
558.336309	42392.666667
559.792729	42368.000000
561.248545	42444.666667
562.703756	42293.000000
564.158364	42371.333333
565.612369	42431.666667
567.065770	42440.000000
568.518569	42489.333333
569.970766	42690.000000
571.422361	42594.000000
572.873354	42806.666667
574.323745	42846.000000
575.773536	42938.333333
577.222726	43027.333333
578.671316	43003.333333
580.119306	43184.333333
581.566696	42978.666667
583.013487	42977.333333
584.459679	42936.333333
585.905273	43026.333333
587.350268	42831.000000
588.794665	42867.333333
590.238465	42667.333333
591.681667	42300.000000
593.124272	42493.000000
594.566281	42279.333333
596.007694	41935.666667
597.448510	41801.666667
598.888731	41597.000000
600.328357	41744.666667
601.767388	41425.666667
603.205824	41453.666667
604.643666	41199.333333
606.080914	41400.666667
607.517568	41055.666667
608.953629	41288.000000
610.389097	41378.000000
611.823972	41046.000000
613.258255	41078.666667
614.691946	40880.000000
616.125046	41060.000000
617.557554	40673.666667
618.989471	40529.000000
620.420798	40259.333333
621.851534	40278.666667
623.281680	39971.666667
624.711237	40080.666667
626.140204	40016.333333
627.568582	39885.000000
628.996372	39749.000000
630.423573	39828.000000
631.850186	39578.666667
633.276211	39437.333333
634.701650	39433.000000
636.126501	39368.333333
637.550765	39325.666667
638.974443	39361.666667
640.397535	39387.666667
641.820041	39266.000000
643.241961	39164.666667
644.663297	39198.000000
646.084048	38921.666667
647.504214	38905.000000
648.923796	38905.000000
650.342795	38907.000000
651.761210	38793.333333
653.179041	38808.666667
654.596290	38741.333333
656.012957	38755.000000
657.429041	38575.333333
658.844543	38647.333333
660.259464	38681.000000
661.673804	38605.000000
663.087563	38571.333333
664.500741	38602.333333
665.913339	38559.333333
667.325357	38396.666667
668.736795	38396.333333
670.147654	38378.333333
671.557934	38079.666667
672.967636	38147.666667
674.376759	38218.666667
675.785304	38072.333333
677.193271	38076.333333
678.600661	38079.666667
680.007474	38060.333333
681.413711	37906.666667
682.819370	38010.000000
684.224454	37946.000000
685.628962	38000.000000
687.032895	37734.666667
688.436252	37664.333333
689.839034	37780.000000
691.241242	37714.000000
692.642876	37530.333333
694.043936	37609.333333
695.444422	37516.333333
696.844336	37638.333333
698.243676	37362.000000
699.642443	37383.000000
701.040639	37294.000000
702.438262	37295.666667
703.835313	37332.000000
705.231794	37288.666667
706.627703	37169.666667
708.023041	37087.000000
709.417810	37396.333333
710.812008	37060.000000
712.205636	37068.666667
713.598694	37110.666667
714.991184	36982.666667
716.383105	36908.666667
717.774457	36955.666667
719.165241	36847.000000
720.555457	36834.000000
721.945105	36974.333333
723.334187	36737.666667
724.722701	36889.666667
726.110648	36808.666667
727.498030	36786.000000
728.884845	36727.000000
730.271094	36664.333333
731.656778	36618.000000
733.041897	36738.000000
734.426451	36620.666667
735.810441	36531.666667
737.193866	36592.333333
738.576728	36472.666667
739.959026	36509.666667
741.340760	36454.000000
742.721932	36399.333333
744.102541	36395.000000
745.482588	36273.666667
746.862073	36273.000000
748.240996	36321.333333
749.619358	36253.666667
750.997158	36295.333333
752.374398	36177.333333
753.751077	36057.000000
755.127197	36166.333333
756.502756	36099.000000
757.877756	36226.333333
759.252196	36136.000000
760.626078	35888.666667
761.999400	35998.333333
763.372165	35984.666667
764.744371	36046.000000
766.116020	35983.333333
767.487111	35777.666667
768.857646	35849.666667
770.227623	35683.000000
771.597044	35740.000000
772.965908	35533.666667
774.334217	35583.666667
775.701970	35467.333333
777.069168	35443.000000
778.435811	35433.000000
779.801899	35251.666667
781.167433	35086.000000
782.532412	35187.000000
783.896838	35141.000000
785.260710	35051.666667
786.624029	35195.333333
787.986796	35067.333333
789.349009	35035.333333
790.710671	34984.000000
792.071780	34954.333333
793.432338	34847.333333
794.792344	34936.333333
796.151799	34898.000000
797.510704	34857.333333
798.869058	34751.000000
800.226862	34735.666667
801.584116	34715.333333
802.940820	34632.333333
804.296975	34454.000000
805.652581	34567.000000
807.007638	34464.333333
808.362147	34615.666667
809.716108	34597.666667
811.069521	34643.666667
812.422387	34476.666667
813.774705	34533.000000
815.126476	34372.000000
816.477701	34457.333333
817.828380	34484.000000
819.178512	34455.333333
820.528099	34350.333333
821.877140	34301.333333
823.225637	34226.000000
824.573588	34234.666667
825.920995	34226.666667
827.267857	34123.666667
828.614176	34076.333333
829.959951	33992.000000
831.305183	34055.333333
832.649871	33968.333333
833.994017	34029.666667
835.337620	33844.333333
836.680681	33968.000000
838.023201	33863.333333
839.365178	34086.000000
840.706614	33855.000000
842.047510	33912.666667
843.387864	33921.333333
844.727678	33874.666667
846.066952	33912.333333
847.405687	33946.666667
848.743881	34089.333333
850.081537	34037.666667
851.418653	34085.666667
852.755231	34011.000000
854.091270	34050.333333
855.426771	34002.333333
856.761735	34038.333333
858.096160	33692.000000
859.430049	33710.666667
860.763401	33726.000000
862.096216	33448.666667
863.428495	33586.666667
864.760237	33445.000000
866.091444	33358.666667
867.422115	33223.000000
868.752252	33301.666667
870.081853	33472.000000
871.410919	33047.666667
872.739452	33030.666667
874.067450	32916.333333
875.394914	32993.666667
876.721845	33003.000000
878.048243	33003.000000
879.374108	32725.000000
880.699440	32957.333333
882.024240	32897.666667
883.348508	32886.000000
884.672244	32657.000000
885.995449	32576.333333
887.318122	32524.666667
888.640265	32555.333333
889.961877	32517.333333
891.282959	32352.666667
892.603510	32495.333333
893.923532	32281.333333
895.243024	32242.000000
896.561987	32068.000000
897.880422	32105.666667
899.198327	32090.000000
900.515705	32139.666667
901.832554	31950.333333
903.148875	32038.000000
904.464669	31945.333333
905.779936	31829.333333
907.094676	31966.666667
908.408889	32002.000000
909.722576	32056.666667
911.035737	31932.000000
912.348371	32096.333333
913.660481	31984.666667
914.972065	32113.333333
916.283124	32334.000000
917.593659	32177.333333
918.903669	32156.333333
920.213155	32273.000000
921.522117	32359.333333
922.830556	32293.333333
924.138471	32265.000000
925.445864	32083.333333
926.752733	32185.333333
928.059081	32237.666667
929.364906	32290.000000
930.670209	32202.666667
931.974991	32493.000000
933.279251	32421.666667
934.582990	32414.666667
935.886209	32673.666667
937.188907	32747.666667
938.491085	32887.000000
939.792743	33277.666667
941.093881	33302.000000
942.394500	33707.333333
943.694600	33886.666667
944.994181	34524.000000
946.293243	34850.000000
947.591787	35464.333333
948.889813	36011.000000
950.187322	36671.000000
951.484313	37563.333333
952.780787	38560.666667
954.076744	39545.333333
955.372184	40451.000000
956.667108	41146.666667
957.961516	41732.666667
959.255409	41732.333333
960.548785	41581.666667
961.841647	40830.333333
963.133993	39818.666667
964.425825	38638.666667
965.717142	37381.000000
967.007946	36103.000000
968.298235	35099.333333
969.588011	34185.666667
970.877273	33358.333333
972.166023	32683.000000
973.454259	32203.666667
974.741984	31537.000000
976.029196	31296.666667
977.315895	30896.333333
978.602084	30701.333333
979.887761	30496.666667
981.172926	30303.000000
982.457581	30086.666667
983.741725	30161.333333
985.025359	30127.666667
986.308483	29984.000000
987.591097	29852.000000
988.873202	29756.000000
990.154797	29764.666667
991.435883	29697.000000
992.716461	29616.666667
993.996530	29597.000000
995.276091	29595.000000
996.555144	29453.333333
997.833690	29697.000000
999.111728	29737.666667
1000.389259	29876.666667
1001.666283	29866.666667
1002.942800	29869.666667
1004.218812	29659.333333
1005.494317	29524.333333
1006.769317	29613.666667
1008.043811	29594.000000
1009.317799	29423.666667
1010.591283	29519.000000
1011.864263	29498.333333
1013.136737	29322.666667
1014.408708	29446.333333
1015.680175	29473.333333
1016.951138	29535.000000
1018.221598	29425.000000
1019.491554	29387.333333
1020.761008	29313.000000
1022.029959	29409.000000
1023.298408	29414.666667
1024.566355	29437.666667
1025.833800	29422.666667
1027.100744	29399.333333
1028.367187	29381.333333
1029.633128	29416.333333
1030.898569	29576.000000
1032.163509	29424.333333
1033.427949	29456.000000
1034.691890	29535.000000
1035.955330	29302.333333
1037.218271	29338.666667
1038.480714	29208.333333
1039.742657	29414.666667
1041.004101	29387.666667
1042.265048	29346.666667
1043.525496	29352.000000
1044.785446	29492.333333
1046.044899	29263.333333
1047.303855	29401.666667
1048.562313	29073.666667
1049.820275	28996.000000
1051.077740	29039.666667
1052.334709	29063.000000
1053.591182	28948.666667
1054.847160	28996.000000
1056.102641	28842.333333
1057.357628	28984.666667
1058.612120	28856.000000
1059.866117	29010.333333
1061.119619	28803.000000
1062.372628	28913.333333
1063.625142	29032.666667
1064.877163	29163.666667
1066.128691	29095.666667
1067.379725	29182.666667
1068.630267	29095.333333
1069.880316	29053.333333
1071.129872	29005.666667
1072.378937	28902.000000
1073.627509	28966.333333
1074.875590	28743.666667
1076.123180	28649.333333
1077.370279	28423.000000
1078.616887	28280.333333
1079.863004	28194.666667
1081.108631	28067.000000
1082.353768	27896.666667
1083.598415	27819.000000
1084.842573	27531.333333
1086.086241	27390.666667
1087.329421	27300.333333
1088.572111	27390.333333
1089.814314	27259.000000
1091.056028	27030.000000
1092.297253	26952.000000
1093.537992	26995.333333
1094.778242	26974.666667
1096.018006	26929.000000
1097.257282	26813.000000
1098.496072	26716.333333
1099.734376	26778.666667
1100.972193	26682.000000
1102.209524	26750.000000
1103.446370	26742.000000
1104.682730	26727.000000
1105.918604	26584.000000
1107.153994	26600.333333
1108.388900	26527.333333
1109.623320	26450.333333
1110.857257	26432.333333
1112.090710	26331.666667
1113.323679	26271.000000
1114.556164	26204.000000
1115.788167	26107.666667
1117.019686	26098.000000
1118.250723	26145.000000
1119.481278	25934.666667
1120.711350	25921.666667
1121.940940	25964.333333
1123.170049	25820.333333
1124.398676	25859.000000
1125.626823	25816.333333
1126.854488	25971.333333
1128.081672	25677.333333
1129.308376	25657.000000
1130.534600	25793.666667
1131.760345	25717.333333
1132.985609	25565.666667
1134.210394	25529.666667
1135.434700	25719.000000
1136.658527	25627.333333
1137.881875	25699.333333
1139.104745	25628.666667
1140.327136	25697.333333
1141.549050	25617.000000
1142.770486	25500.000000
1143.991445	25469.666667
1145.211926	25510.666667
1146.431931	25320.000000
1147.651459	25411.666667
1148.870510	25406.666667
1150.089086	25313.000000
1151.307185	25276.333333
1152.524808	25188.333333
1153.741957	25422.666667
1154.958630	25259.666667
1156.174828	25310.000000
1157.390551	25130.666667
1158.605800	25234.000000
1159.820574	25162.000000
1161.034875	25152.333333
1162.248702	25066.666667
1163.462055	25094.333333
1164.674936	25041.333333
1165.887343	25101.000000
1167.099277	25162.666667
1168.310739	24939.333333
1169.521729	25013.666667
1170.732247	24999.666667
1171.942293	25000.333333
1173.151867	25031.333333
1174.360970	24960.333333
1175.569602	24870.333333
1176.777764	24955.666667
1177.985454	24865.333333
1179.192675	24956.666667
1180.399425	24969.333333
1181.605706	24650.333333
1182.811517	24770.000000
1184.016859	24533.666667
1185.221731	24511.666667
1186.426135	24556.333333
1187.630070	24452.666667
1188.833537	24439.000000
1190.036535	24433.000000
1191.239066	24383.666667
1192.441129	24159.000000
1193.642725	24358.333333
1194.843853	24236.666667
1196.044515	24387.333333
1197.244710	24234.666667
1198.444438	24268.333333
1199.643701	24167.666667
1200.842497	24229.333333
1202.040827	24239.666667
1203.238693	24086.666667
1204.436092	24131.333333
1205.633027	24184.000000
1206.829497	24128.333333
1208.025503	24015.333333
1209.221044	23993.666667
1210.416122	24119.333333
1211.610735	23856.333333
1212.804885	23791.666667
1213.998572	23707.000000
1215.191795	23848.333333
1216.384556	23730.000000
1217.576854	23630.666667
1218.768689	23514.333333
1219.960063	23467.000000
1221.150974	23439.333333
1222.341424	23582.666667
1223.531413	23598.000000
1224.720940	23545.666667
1225.910006	23368.666667
1227.098612	23619.333333
1228.286757	23516.000000
1229.474442	23599.666667
1230.661667	23630.666667
1231.848432	23720.333333
1233.034738	23652.333333
1234.220584	23841.333333
1235.405971	23700.666667
1236.590900	23799.000000
1237.775369	23792.666667
1238.959381	23857.333333
1240.142934	23837.000000
1241.326029	23772.666667
1242.508667	23890.666667
1243.690848	23883.666667
1244.872571	23924.666667
1246.053837	23827.000000
1247.234646	23723.666667
1248.414999	23592.000000
1249.594896	23656.666667
1250.774337	23583.666667
1251.953322	23456.666667
1253.131851	23574.666667
1254.309925	23506.000000
1255.487544	23234.333333
1256.664708	23444.000000
1257.841417	23250.333333
1259.017673	23385.333333
1260.193473	23176.333333
1261.368820	23185.333333
1262.543714	23390.000000
1263.718154	23304.333333
1264.892140	23460.000000
1266.065674	23339.666667
1267.238755	23263.666667
1268.411383	23390.333333
1269.583559	23329.333333
1270.755283	23401.000000
1271.926555	23243.000000
1273.097375	23258.666667
1274.267744	23325.666667
1275.437662	23075.666667
1276.607129	23343.000000
1277.776145	23184.000000
1278.944711	23323.666667
1280.112827	23169.333333
1281.280492	23026.333333
1282.447708	23001.000000
1283.614474	22851.000000
1284.780791	22851.666667
1285.946659	22815.666667
1287.112078	22712.000000
1288.277048	22567.333333
1289.441570	22586.333333
1290.605644	22374.666667
1291.769270	22550.666667
1292.932448	22478.666667
1294.095178	22434.666667
1295.257461	22200.333333
1296.419298	22196.333333
1297.580687	22256.666667
1298.741630	22212.000000
1299.902126	22310.000000
1301.062177	22198.000000
1302.221781	22060.333333
1303.380940	22211.333333
1304.539653	22020.666667
1305.697921	22071.333333
1306.855744	22140.333333
1308.013123	22090.666667
1309.170056	22081.000000
1310.326546	22181.333333
1311.482591	22052.000000
1312.638193	22096.666667
1313.793350	22007.000000
1314.948065	21926.666667
1316.102336	21986.000000
1317.256164	21855.666667
1318.409550	21959.000000
1319.562493	21797.000000
1320.714993	21739.666667
1321.867052	21621.333333
1323.018668	21653.000000
1324.169843	21611.333333
1325.320577	21622.666667
1326.470870	21486.666667
1327.620721	21559.333333
1328.770132	21459.333333
1329.919102	21393.666667
1331.067632	21296.000000
1332.215722	21284.333333
1333.363372	21311.333333
1334.510582	21384.000000
1335.657353	21357.000000
1336.803685	21194.666667
1337.949578	21276.666667
1339.095032	21380.333333
1340.240048	21299.666667
1341.384625	21367.333333
1342.528764	21369.000000
1343.672466	21342.666667
1344.815729	21245.333333
1345.958556	21265.333333
1347.100945	21210.000000
1348.242897	21200.333333
1349.384413	21210.000000
1350.525492	21137.333333
1351.666134	21080.000000
1352.806341	21020.000000
1353.946111	21045.333333
1355.085446	21007.666667
1356.224346	20943.666667
1357.362810	20869.333333
1358.500840	20867.000000
1359.638434	20860.666667
1360.775594	20754.333333
1361.912320	20767.333333
1363.048612	20698.666667
1364.184469	20507.333333
1365.319893	20711.333333
1366.454884	20625.333333
1367.589441	20623.666667
1368.723566	20656.000000
1369.857257	20624.666667
1370.990516	20629.666667
1372.123343	20615.000000
1373.255737	20581.000000
1374.387699	20699.000000
1375.519230	20837.333333
1376.650329	20742.333333
1377.780997	20734.666667
1378.911234	20734.000000
1380.041040	20642.333333
1381.170416	20685.666667
1382.299361	20668.666667
1383.427875	20564.333333
1384.555960	20535.000000
1385.683615	20543.666667
1386.810841	20523.333333
1387.937637	20468.000000
1389.064004	20499.333333
1390.189942	20295.333333
1391.315451	20474.000000
1392.440532	20246.333333
1393.565185	20152.333333
1394.689409	20027.666667
1395.813206	20252.333333
1396.936575	20181.000000
1398.059517	20095.666667
1399.182032	19928.333333
1400.304119	19996.333333
1401.425780	20042.333333
1402.547014	19849.000000
1403.667822	19880.000000
1404.788204	19893.000000
1405.908160	19887.333333
1407.027690	19921.333333
1408.146795	19846.000000
1409.265474	19878.333333
1410.383728	19854.666667
1411.501558	19785.333333
1412.618963	19912.666667
1413.735943	19873.666667
1414.852499	19955.333333
1415.968632	19871.333333
1417.084340	19854.000000
1418.199625	19972.000000
1419.314486	19986.666667
1420.428925	19832.000000
1421.542940	19845.000000
1422.656533	19754.333333
1423.769703	19741.333333
1424.882451	19831.666667
1425.994777	19665.000000
1427.106680	19598.333333
1428.218163	19639.000000
1429.329223	19613.333333
1430.439863	19563.333333
1431.550081	19508.666667
1432.659879	19521.000000
1433.769256	19529.000000
1434.878212	19338.000000
1435.986749	19253.000000
1437.094865	19300.666667
1438.202562	19292.666667
1439.309839	19312.666667
1440.416696	19353.666667
1441.523135	19398.333333
1442.629154	19311.666667
1443.734755	19409.666667
1444.839937	19346.000000
1445.944701	19331.000000
1447.049047	19494.333333
1448.152975	19599.666667
1449.256485	19562.666667
1450.359577	19405.333333
1451.462253	19398.000000
1452.564511	19415.000000
1453.666352	19365.666667
1454.767777	19306.666667
1455.868785	19332.666667
1456.969377	19283.333333
1458.069553	19190.333333
1459.169313	19181.666667
1460.268658	19176.666667
1461.367587	19099.000000
1462.466101	19106.000000
1463.564200	18914.000000
1464.661884	18927.333333
1465.759153	18739.000000
1466.856008	18751.000000
1467.952449	18634.000000
1469.048476	18626.333333
1470.144089	18411.000000
1471.239288	18376.666667
1472.334074	18442.333333
1473.428447	18323.000000
1474.522407	18126.666667
1475.615955	18120.000000
1476.709089	17932.333333
1477.801812	17982.000000
1478.894122	17967.333333
1479.986020	17785.000000
1481.077506	17979.000000
1482.168581	17836.000000
1483.259245	17808.000000
1484.349498	17945.666667
1485.439339	17868.666667
1486.528770	17859.666667
1487.617790	17778.333333
1488.706400	17868.000000
1489.794600	17775.000000
1490.882390	17793.000000
1491.969771	17854.000000
1493.056742	17733.333333
1494.143303	17655.666667
1495.229456	17699.666667
1496.315199	17719.666667
1497.400534	17536.333333
1498.485460	17694.000000
1499.569978	17545.333333
1500.654088	17553.666667
1501.737790	17563.333333
1502.821085	17480.333333
1503.903972	17504.666667
1504.986451	17281.000000
1506.068524	17279.333333
1507.150189	17152.666667
1508.231448	17035.000000
1509.312301	17150.333333
1510.392747	17019.666667
1511.472787	17044.333333
1512.552422	17058.333333
1513.631650	16958.000000
1514.710473	16950.000000
1515.788891	16995.000000
1516.866904	16868.666667
1517.944512	16988.333333
1519.021715	16951.666667
1520.098513	16855.666667
1521.174908	16940.333333
1522.250898	16798.000000
1523.326485	16908.000000
1524.401667	16971.333333
1525.476447	16873.666667
1526.550823	16896.666667
1527.624796	16881.000000
1528.698365	16898.000000
1529.771533	16768.333333
1530.844298	16849.333333
1531.916660	16862.333333
1532.988620	16737.333333
1534.060179	16760.666667
1535.131336	16727.000000
1536.202091	16631.333333
1537.272445	16645.000000
1538.342398	16597.000000
1539.411950	16608.666667
1540.481101	16566.666667
1541.549851	16415.666667
1542.618202	16358.666667
1543.686152	16440.000000
1544.753702	16313.333333
1545.820853	16237.666667
1546.887604	16252.666667
1547.953955	16235.333333
1549.019908	16149.000000
1550.085461	16179.666667
1551.150616	16094.000000
1552.215372	16127.000000
1553.279730	16059.000000
1554.343690	16107.666667
1555.407252	16084.000000
1556.470415	16130.000000
1557.533182	15993.666667
1558.595551	15986.666667
1559.657522	16028.666667
1560.719097	16004.333333
1561.780275	15954.666667
1562.841056	16079.666667
1563.901441	16017.666667
1564.961429	16009.000000
1566.021022	15884.333333
1567.080219	15863.000000
1568.139020	16003.333333
1569.197425	15905.333333
1570.255436	15915.000000
1571.313051	16060.666667
1572.370271	15923.000000
1573.427097	15850.333333
1574.483528	15743.000000
1575.539565	15701.666667
1576.595208	15766.000000
1577.650457	15767.666667
1578.705312	15651.000000
1579.759774	15500.333333
1580.813842	15624.000000
1581.867517	15466.333333
1582.920799	15541.666667
1583.973689	15528.000000
1585.026186	15402.666667
1586.078290	15328.000000
1587.130002	15395.333333
1588.181323	15253.333333
1589.232251	15275.000000
1590.282788	15300.666667
1591.332933	15158.000000
1592.382688	15223.000000
1593.432051	15146.333333
1594.481023	15178.333333
1595.529605	15039.000000
1596.577796	15254.666667
1597.625597	15131.000000
1598.673007	15273.333333
1599.720028	15206.666667
1600.766660	15203.666667
1601.812901	15261.666667
1602.858753	15271.000000
1603.904217	15198.333333
1604.949291	15167.000000
1605.993976	15295.333333
1607.038273	15163.000000
1608.082182	15220.666667
1609.125702	15242.000000
1610.168834	15011.666667
1611.211579	15077.666667
1612.253935	14957.333333
1613.295905	15055.666667
1614.337487	14982.000000
1615.378682	15024.666667
1616.419490	14919.666667
1617.459912	14929.666667
1618.499946	14801.000000
1619.539595	14745.000000
1620.578858	14780.000000
1621.617734	14742.000000
1622.656225	14755.000000
1623.694330	14647.000000
1624.732050	14547.333333
1625.769385	14550.000000
1626.806334	14551.333333
1627.842899	14468.000000
1628.879079	14473.333333
1629.914875	14474.666667
1630.950286	14411.000000
1631.985314	14473.000000
1633.019957	14552.333333
1634.054217	14496.000000
1635.088093	14523.000000
1636.121586	14513.000000
1637.154696	14447.666667
1638.187423	14410.333333
1639.219767	14503.000000
1640.251728	14448.000000
1641.283307	14457.666667
1642.314504	14500.666667
1643.345319	14386.333333
1644.375751	14479.333333
1645.405803	14422.000000
1646.435472	14490.000000
1647.464761	14409.666667
1648.493668	14365.000000
1649.522194	14364.000000
1650.550340	14358.666667
1651.578105	14323.666667
1652.605490	14273.000000
1653.632494	14318.666667
1654.659119	14260.666667
1655.685363	14186.333333
1656.711228	14110.666667
1657.736714	14130.000000
1658.761820	14115.000000
1659.786547	14026.666667
1660.810895	13892.333333
1661.834865	13858.666667
1662.858456	13930.666667
1663.881668	13808.333333
1664.904503	13866.000000
1665.926959	13681.333333
1666.949038	13729.000000
1667.970739	13674.000000
1668.992062	13668.666667
1670.013008	13585.000000
1671.033577	13645.666667
1672.053770	13466.000000
1673.073585	13457.333333
1674.093024	13465.666667
1675.112086	13322.333333
1676.130773	13385.333333
1677.149083	13404.666667
1678.167017	13435.666667
1679.184576	13400.666667
1680.201760	13496.666667
1681.218568	13373.000000
1682.235001	13328.666667
1683.251059	13483.000000
1684.266742	13417.666667
1685.282051	13451.333333
1686.296985	13364.666667
1687.311546	13284.333333
1688.325732	13332.666667
1689.339544	13224.000000
1690.352983	13213.333333
1691.366048	13075.666667
1692.378740	13114.333333
1693.391058	13086.333333
1694.403004	12939.333333
1695.414577	13008.000000
1696.425778	12860.000000
1697.436606	12776.000000
1698.447061	12856.000000
1699.457145	12698.000000
1700.466857	12710.666667
1701.476197	12631.333333
1702.485166	12619.333333
1703.493763	12475.000000
1704.501989	12548.000000
1705.509844	12536.000000
1706.517328	12325.333333
1707.524442	12307.333333
1708.531185	12163.333333
1709.537558	12327.333333
1710.543561	12268.000000
1711.549194	12303.666667
1712.554457	12214.666667
1713.559351	12230.000000
1714.563875	12240.666667
1715.568030	12247.666667
1716.571816	12233.666667
1717.575233	12340.000000
1718.578282	12260.333333
1719.580962	12206.333333
1720.583273	12331.333333
1721.585217	12379.000000
1722.586792	12334.000000
1723.588000	12362.000000
1724.588840	12318.000000
1725.589312	12279.666667
1726.589418	12331.333333
1727.589156	12335.333333
1728.588527	12235.666667
1729.587532	12344.333333
1730.586170	12217.666667
1731.584441	12220.333333
1732.582346	12239.333333
1733.579886	12170.333333
1734.577059	12122.666667
1735.573867	12011.333333
1736.570309	12093.666667
1737.566386	12009.000000
1738.562097	12030.666667
1739.557444	12017.000000
1740.552426	11819.666667
1741.547043	11826.000000
1742.541295	11814.666667
1743.535184	11704.000000
1744.528708	11747.000000
1745.521868	11717.666667
1746.514664	11596.333333
1747.507097	11595.666667
1748.499166	11533.666667
1749.490873	11461.666667
1750.482216	11526.666667
1751.473196	11514.333333
1752.463813	11492.333333
1753.454068	11442.666667
1754.443960	11468.333333
1755.433490	11371.000000
1756.422658	11412.333333
1757.411464	11492.333333
1758.399908	11377.333333
1759.387991	11382.333333
1760.375713	11477.000000
1761.363073	11323.666667
1762.350072	11359.000000
1763.336711	11390.666667
1764.322988	11336.333333
1765.308905	11365.333333
1766.294462	11368.333333
1767.279659	11381.333333
1768.264496	11209.000000
1769.248972	11257.333333
1770.233089	11174.666667
1771.216847	11137.666667
1772.200245	11118.666667
1773.183284	11199.666667
1774.165965	11067.000000
1775.148286	11021.666667
1776.130249	11100.000000
1777.111853	10919.333333
1778.093099	10910.333333
1779.073987	10819.000000
1780.054517	10844.666667
1781.034689	10724.666667
1782.014503	10775.000000
1782.993960	10663.666667
1783.973060	10574.000000
1784.951802	10528.000000
1785.930188	10604.333333
1786.908217	10461.333333
1787.885889	10459.333333
1788.863205	10406.333333
1789.840164	10367.000000
1790.816768	10398.666667
1791.793015	10288.333333
1792.768907	10314.666667
1793.744443	10345.000000
1794.719624	10372.333333
1795.694449	10254.333333
1796.668919	10348.333333
1797.643035	10364.333333
1798.616795	10346.333333
1799.590201	10373.333333
1800.563253	10275.333333
1801.535950	10430.000000
1802.508294	10387.666667
1803.480283	10370.666667
1804.451919	10385.666667
1805.423201	10323.666667
1806.394129	10414.333333
1807.364705	10427.333333
1808.334927	10375.333333
1809.304796	10308.000000
1810.274313	10342.666667
1811.243477	10303.666667
1812.212288	10175.666667
1813.180747	10243.000000
1814.148855	10333.000000
1815.116610	10190.333333
1816.084013	10210.666667
1817.051065	10237.333333
1818.017766	10164.000000
1818.984115	10131.000000
1819.950113	10110.666667
1820.915760	10167.000000
1821.881057	10024.666667
1822.846003	10060.333333
1823.810598	9999.666667
1824.774843	9906.333333
1825.738738	9857.333333
1826.702283	9975.666667
1827.665479	9847.666667
1828.628324	9887.000000
1829.590821	9818.000000
1830.552968	9783.000000
1831.514765	9730.000000
1832.476214	9721.333333
1833.437314	9731.666667
1834.398066	9684.666667
1835.358469	9673.666667
1836.318524	9649.666667
1837.278230	9712.333333
1838.237589	9652.000000
1839.196600	9675.333333
1840.155263	9622.666667
1841.113578	9714.000000
1842.071547	9694.000000
1843.029168	9769.000000
1843.986442	9771.000000
1844.943369	9812.000000
1845.899950	9728.000000
1846.856184	9689.333333
1847.812072	9678.333333
1848.767614	9728.333333
1849.722809	9804.000000
1850.677659	9725.000000
1851.632163	9728.666667
1852.586322	9689.333333
1853.540135	9736.666667
1854.493603	9636.000000
1855.446726	9710.000000
1856.399504	9572.666667
1857.351937	9586.666667
1858.304026	9659.000000
1859.255770	9581.333333
1860.207170	9498.333333
1861.158227	9467.333333
1862.108939	9453.000000
1863.059307	9317.000000
1864.009332	9428.666667
1864.959013	9318.000000
1865.908351	9335.333333
1866.857346	9296.333333
1867.805998	9246.333333
1868.754307	9237.000000
1869.702274	9204.000000
1870.649898	9146.333333
1871.597180	9119.666667
1872.544119	9027.000000
1873.490717	9008.000000
1874.436973	9045.333333
1875.382887	9076.333333
1876.328459	9034.333333
1877.273691	9006.666667
1878.218581	9021.000000
1879.163130	8932.666667
1880.107338	8979.000000
1881.051205	8927.666667
1881.994732	8923.333333
1882.937919	8909.666667
1883.880765	9047.000000
1884.823271	8962.333333
1885.765437	9014.333333
1886.707264	8997.333333
1887.648750	8909.666667
1888.589898	9025.666667
1889.530706	9064.333333
1890.471175	8897.000000
1891.411305	9025.666667
1892.351096	8932.666667
1893.290548	8881.333333
1894.229662	8935.666667
1895.168438	9008.666667
1896.106876	8912.333333
1897.044975	8853.000000
1897.982737	8941.000000
1898.920160	8817.333333
1899.857247	8807.000000
1900.793996	8835.333333
1901.730407	8814.000000
1902.666482	8818.000000
1903.602219	8721.000000
1904.537620	8672.666667
1905.472685	8707.000000
1906.407412	8694.000000
1907.341804	8553.000000
1908.275859	8484.333333
1909.209579	8419.000000
1910.142962	8444.666667
1911.076010	8415.333333
1912.008722	8350.666667
1912.941099	8330.333333
1913.873141	8271.000000
1914.804848	8234.333333
1915.736219	8252.000000
1916.667256	8199.000000
1917.597959	8228.000000
1918.528327	8164.333333
1919.458360	8123.000000
1920.388060	8161.333333
1921.317426	8144.666667
1922.246457	8105.333333
1923.175156	8102.000000
1924.103520	8091.000000
1925.031552	8052.000000
1925.959250	8078.000000
1926.886615	8136.000000
1927.813647	8191.666667
1928.740346	8160.333333
1929.666713	8121.000000
1930.592748	8195.333333
1931.518450	8144.333333
1932.443820	8186.000000
1933.368858	8128.000000
1934.293564	8143.333333
1935.217939	8108.666667
1936.141982	8062.666667
1937.065694	8035.000000
1937.989074	8118.333333
1938.912124	8076.666667
1939.834842	8047.333333
1940.757230	8078.666667
1941.679287	8068.000000
1942.601014	7940.000000
1943.522411	7937.666667
1944.443477	7903.000000
1945.364214	7914.333333
1946.284621	7808.000000
1947.204698	7746.333333
1948.124445	7818.333333
1949.043863	7772.666667
1949.962952	7707.666667
1950.881712	7626.666667
1951.800143	7640.666667
1952.718245	7573.333333
1953.636019	7501.000000
1954.553464	7524.000000
1955.470581	7461.333333
1956.387369	7477.666667
1957.303830	7509.000000
1958.219963	7443.000000
1959.135768	7416.000000
1960.051246	7420.333333
1960.966396	7501.666667
1961.881219	7488.666667
1962.795715	7441.666667
1963.709883	7518.666667
1964.623726	7523.333333
1965.537241	7473.000000
1966.450430	7419.666667
1967.363293	7488.333333
1968.275829	7542.666667
1969.188040	7597.000000
1970.099924	7502.000000
1971.011483	7580.333333
1971.922716	7532.000000
1972.833624	7451.666667
1973.744206	7554.666667
1974.654464	7525.666667
1975.564396	7449.666667
1976.474004	7521.000000
1977.383286	7436.666667
1978.292245	7467.333333
1979.200878	7483.333333
1980.109188	7437.000000
1981.017174	7414.000000
1981.924835	7416.000000
1982.832173	7394.333333
1983.739187	7293.666667
1984.645878	7269.666667
1985.552245	7265.000000
1986.458289	7249.000000
1987.364010	7158.333333
1988.269408	7222.000000
1989.174484	7133.333333
1990.079236	7118.333333
1990.983667	7026.666667
1991.887775	7112.333333
1992.791561	7092.000000
1993.695024	7021.000000
1994.598166	7013.333333
1995.500986	6962.666667
1996.403485	6932.000000
1997.305662	7014.666667
1998.207518	6960.666667
1999.109053	7012.000000
