200.151048	32247.333333
201.758777	32138.333333
203.365815	32086.000000
204.972162	32051.333333
206.577820	32078.666667
208.182787	31847.000000
209.787065	31919.000000
211.390653	31926.333333
212.993553	31743.000000
214.595765	31568.666667
216.197289	31865.666667
217.798125	31627.333333
219.398274	31480.000000
220.997737	31395.000000
222.596513	31416.000000
224.194603	31522.666667
225.792008	31482.000000
227.388728	31359.666667
228.984763	31347.333333
230.580114	31386.000000
232.174781	31280.333333
233.768765	31229.666667
235.362065	31247.666667
236.954683	31053.000000
238.546619	31041.000000
240.137872	31095.333333
241.728445	30908.666667
243.318336	31012.666667
244.907546	30808.666667
246.496076	30905.666667
248.083926	30734.333333
249.671097	30839.000000
251.257589	30497.666667
252.843402	30553.000000
254.428536	30199.666667
256.012993	30303.666667
257.596772	30296.000000
259.179874	30115.666667
260.762300	30170.000000
262.344049	30154.666667
263.925122	29918.333333
265.505519	29919.333333
267.085241	30146.333333
268.664289	29957.000000
270.242662	29946.666667
271.820361	30110.000000
273.397387	29873.000000
274.973740	30020.333333
276.549419	29952.666667
278.124426	29975.333333
279.698762	30026.666667
281.272425	29946.000000
282.845417	30036.000000
284.417739	29959.666667
285.989390	30036.000000
287.560371	29952.333333
289.130682	30093.000000
290.700324	30067.666667
292.269297	30026.666667
293.837602	29930.000000
295.405238	30117.666667
296.972207	29992.333333
298.538508	29846.000000
300.104142	29714.000000
301.669110	29742.000000
303.233411	29645.333333
304.797047	29573.000000
306.360017	29477.333333
307.922322	29423.666667
309.483963	29304.333333
311.044939	29275.333333
312.605252	29180.333333
314.164900	28950.666667
315.723886	29026.666667
317.282209	28928.666667
318.839870	28826.333333
320.396868	28867.666667
321.953205	28903.333333
323.508881	28773.000000
325.063896	28516.666667
326.618251	28528.666667
328.171945	28551.000000
329.724980	28716.000000
331.277356	28495.666667
332.829072	28662.666667
334.380131	28455.666667
335.930530	28499.000000
337.480273	28577.000000
339.029357	28498.000000
340.577785	28527.666667
342.125556	28391.666667
343.672671	28476.333333
345.219130	28472.333333
346.764933	28436.666667
348.310081	28485.666667
349.854575	28298.666667
351.398414	28381.333333
352.941599	28219.333333
354.484130	28260.666667
356.026008	28323.666667
357.567234	28225.000000
359.107807	28143.333333
360.647727	28170.666667
362.186996	28224.666667
363.725614	27968.000000
365.263580	28029.333333
366.800896	28112.000000
368.337562	27902.666667
369.873578	27803.000000
371.408944	28006.000000
372.943661	27778.333333
374.477730	27811.666667
376.011150	27986.666667
377.543922	27902.000000
379.076046	28016.333333
380.607523	27978.333333
382.138353	27950.000000
383.668537	27956.333333
385.198075	27990.000000
386.726966	28020.000000
388.255213	28174.000000
389.782814	28080.000000
391.309770	28000.666667
392.836083	28190.000000
394.361751	28083.666667
395.886776	28218.000000
397.411157	28295.666667
398.934896	28084.333333
400.457992	28208.666667
401.980446	28306.000000
403.502258	28241.666667
405.023429	28288.333333
406.543959	28303.333333
408.063849	28534.000000
409.583098	28403.666667
411.101707	28552.333333
412.619677	28667.666667
414.137007	28617.333333
415.653699	29064.000000
417.169752	29044.000000
418.685167	29175.333333
420.199945	29477.333333
421.714085	29556.333333
423.227588	29755.000000
424.740454	29862.333333
426.252684	30190.000000
427.764279	30125.666667
429.275238	30140.666667
430.785561	29999.333333
432.295250	29868.333333
433.804304	29740.000000
435.312725	29530.000000
436.820511	29358.000000
438.327664	29157.333333
439.834185	29159.666667
441.340072	28812.000000
442.845327	28961.666667
444.349951	28636.000000
445.853942	28732.000000
447.357303	28497.666667
448.860033	28497.666667
450.362132	28307.000000
451.863601	28297.000000
453.364440	28170.000000
454.864650	28034.333333
456.364231	27751.333333
457.863183	27640.666667
459.361507	27537.666667
460.859203	27367.000000
462.356271	27439.000000
463.852712	27166.666667
465.348526	27034.000000
466.843714	26991.333333
468.338275	26806.666667
469.832210	26766.666667
471.325520	26790.666667
472.818205	26712.333333
474.310265	26543.333333
475.801700	26645.333333
477.292512	26375.000000
478.782700	26492.666667
480.272264	26387.333333
481.761205	26465.000000
483.249524	26274.333333
484.737221	26299.000000
486.224295	26127.000000
487.710748	26165.666667
489.196579	26094.666667
490.681790	26197.666667
492.166380	25978.666667
493.650350	25991.000000
495.133700	26075.333333
496.616431	25963.000000
498.098542	26116.666667
499.580035	25800.333333
501.060909	25873.000000
502.541165	25714.333333
504.020804	25939.333333
505.499825	25732.666667
506.978228	25678.000000
508.456016	25712.000000
509.933186	25776.666667
511.409741	25713.333333
512.885680	25591.666667
514.361004	25626.666667
515.835713	25765.333333
517.309807	25510.666667
518.783287	25573.666667
520.256153	25579.333333
521.728406	25682.333333
523.200045	25657.333333
524.671071	25518.333333
526.141485	25449.666667
527.611287	25524.000000
529.080476	25474.333333
530.549054	25384.333333
532.017021	25464.666667
533.484378	25411.333333
534.951123	25433.000000
536.417259	25446.666667
537.882785	25482.000000
539.347701	25328.333333
540.812008	25494.666667
542.275707	25370.666667
543.738797	25402.666667
545.201279	25299.000000
546.663153	25281.333333
548.124420	25353.000000
549.585080	25497.333333
551.045133	25528.333333
552.504579	25412.666667
553.963420	25595.666667
555.421655	25526.666667
556.879285	25405.000000
558.336309	25480.333333
559.792729	25503.666667
561.248545	25653.666667
562.703756	25760.333333
564.158364	25663.333333
565.612369	25692.666667
567.065770	25836.666667
568.518569	25838.000000
569.970766	26016.000000
571.422361	25929.666667
572.873354	26341.333333
574.323745	26230.000000
575.773536	26296.333333
577.222726	26539.000000
578.671316	26583.333333
580.119306	26555.000000
581.566696	26578.666667
583.013487	26557.333333
584.459679	26440.333333
585.905273	26328.000000
587.350268	26475.666667
588.794665	26261.333333
590.238465	26244.666667
591.681667	26222.666667
593.124272	26156.000000
594.566281	26060.000000
596.007694	25702.666667
597.448510	25552.666667
598.888731	25367.333333
600.328357	25306.000000
601.767388	25248.000000
603.205824	25272.333333
604.643666	25060.666667
606.080914	25093.000000
607.517568	25106.666667
608.953629	25099.666667
610.389097	25004.000000
611.823972	24879.000000
613.258255	24797.666667
614.691946	24696.000000
616.125046	24640.333333
617.557554	24566.000000
618.989471	25043.666667
620.420798	24609.333333
621.851534	24666.666667
623.281680	24198.000000
624.711237	23842.666667
626.140204	23901.666667
627.568582	23768.000000
628.996372	23730.666667
630.423573	23830.333333
631.850186	23564.333333
633.276211	23599.666667
634.701650	23682.333333
636.126501	23318.666667
637.550765	23555.666667
638.974443	23630.666667
640.397535	23493.666667
641.820041	23554.333333
643.241961	23307.666667
644.663297	23335.333333
646.084048	23339.666667
647.504214	23479.666667
648.923796	23358.000000
650.342795	23225.000000
651.761210	23247.000000
653.179041	23194.000000
654.596290	23049.000000
656.012957	23102.666667
657.429041	23111.333333
658.844543	23034.000000
660.259464	23020.666667
661.673804	23127.666667
663.087563	23259.666667
664.500741	23110.333333
665.913339	23129.666667
667.325357	22987.333333
668.736795	23135.333333
670.147654	23028.000000
671.557934	22991.666667
672.967636	22885.000000
674.376759	22806.000000
675.785304	22923.333333
677.193271	22843.333333
678.600661	22791.666667
680.007474	22682.666667
681.413711	22888.333333
682.819370	22805.000000
684.224454	22793.333333
685.628962	22590.000000
687.032895	22587.333333
688.436252	22599.000000
689.839034	22698.333333
691.241242	22574.000000
692.642876	22548.333333
694.043936	22600.000000
695.444422	22524.666667
696.844336	22587.666667
698.243676	22526.333333
699.642443	22300.666667
701.040639	22445.333333
702.438262	22384.333333
703.835313	22381.666667
705.231794	22454.333333
706.627703	22362.000000
708.023041	22258.333333
709.417810	22522.666667
710.812008	22329.666667
712.205636	22424.000000
713.598694	22318.000000
714.991184	22319.000000
716.383105	22390.333333
717.774457	22174.000000
719.165241	22285.000000
720.555457	22278.666667
721.945105	22196.000000
723.334187	22283.666667
724.722701	22157.666667
726.110648	21992.333333
727.498030	22170.000000
728.884845	22181.000000
730.271094	21996.666667
731.656778	22094.000000
733.041897	22077.000000
734.426451	22105.333333
735.810441	21948.000000
737.193866	21888.333333
738.576728	22031.666667
739.959026	21978.666667
741.340760	22009.666667
742.721932	21905.666667
744.102541	21807.666667
745.482588	22016.000000
746.862073	21894.000000
748.240996	21873.000000
749.619358	21900.666667
750.997158	21869.333333
752.374398	21967.000000
753.751077	21848.666667
755.127197	21759.000000
756.502756	21852.000000
757.877756	21701.333333
759.252196	21754.666667
760.626078	21728.333333
761.999400	21721.666667
763.372165	21669.000000
764.744371	21624.666667
766.116020	21659.666667
767.487111	21588.666667
768.857646	21618.000000
770.227623	21554.666667
771.597044	21563.666667
772.965908	21423.666667
774.334217	21480.666667
775.701970	21383.333333
777.069168	21355.333333
778.435811	21444.666667
779.801899	21263.333333
781.167433	21345.000000
782.532412	21346.333333
783.896838	21321.000000
785.260710	21174.666667
786.624029	21173.333333
787.986796	21071.666667
789.349009	21172.666667
790.710671	21122.333333
792.071780	20989.000000
793.432338	21005.666667
794.792344	20891.000000
796.151799	20909.000000
797.510704	20903.000000
798.869058	20919.000000
800.226862	21034.333333
801.584116	20970.666667
802.940820	20773.666667
804.296975	20916.666667
805.652581	20971.333333
807.007638	20838.000000
808.362147	20976.333333
809.716108	21022.333333
811.069521	20972.333333
812.422387	20899.666667
813.774705	20875.000000
815.126476	20943.000000
816.477701	20858.666667
817.828380	20902.000000
819.178512	20887.000000
820.528099	20871.666667
821.877140	20846.000000
823.225637	20726.666667
824.573588	20731.333333
825.920995	20586.333333
827.267857	20618.000000
828.614176	20636.000000
829.959951	20688.000000
831.305183	20633.666667
832.649871	20566.666667
833.994017	20581.000000
835.337620	20552.000000
836.680681	20628.666667
838.023201	20648.666667
839.365178	20735.000000
840.706614	20678.000000
842.047510	20562.000000
843.387864	20703.666667
844.727678	20681.666667
846.066952	20693.000000
847.405687	20724.666667
848.743881	20963.333333
850.081537	20849.000000
851.418653	20891.333333
852.755231	20913.666667
854.091270	20976.000000
855.426771	20931.333333
856.761735	20784.666667
858.096160	20803.333333
859.430049	20755.333333
860.763401	20741.333333
862.096216	20649.666667
863.428495	20544.333333
864.760237	20575.333333
866.091444	20511.333333
867.422115	20334.000000
868.752252	20487.333333
870.081853	20443.666667
871.410919	20449.333333
872.739452	20276.333333
874.067450	20454.666667
875.394914	20312.666667
876.721845	20412.000000
878.048243	20142.000000
879.374108	20212.000000
880.699440	20264.333333
882.024240	20172.666667
883.348508	20053.333333
884.672244	20052.000000
885.995449	20096.666667
887.318122	20010.666667
888.640265	19944.000000
889.961877	20014.000000
891.282959	19898.000000
892.603510	19904.000000
893.923532	19896.000000
895.243024	19686.000000
896.561987	19607.666667
897.880422	19616.333333
899.198327	19607.666667
900.515705	19567.000000
901.832554	19628.666667
903.148875	19549.666667
904.464669	19640.666667
905.779936	19573.666667
907.094676	19613.000000
908.408889	19614.666667
909.722576	19549.333333
911.035737	19868.000000
912.348371	19701.000000
913.660481	19780.666667
914.972065	19912.000000
916.283124	19998.000000
917.593659	19891.333333
918.903669	19994.333333
920.213155	20209.000000
921.522117	20104.666667
922.830556	20072.000000
924.138471	19999.333333
925.445864	19925.000000
926.752733	20058.000000
928.059081	20197.666667
929.364906	19997.333333
930.670209	20102.000000
931.974991	20185.000000
933.279251	20366.000000
934.582990	20376.000000
935.886209	20601.666667
937.188907	20773.333333
938.491085	20929.666667
939.792743	21129.333333
941.093881	21285.333333
942.394500	21613.000000
943.694600	22050.666667
944.994181	22459.333333
946.293243	22856.000000
947.591787	23509.333333
948.889813	24168.666667
950.187322	24920.333333
951.484313	25938.000000
952.780787	26942.333333
954.076744	27987.333333
955.372184	28865.666667
956.667108	29908.000000
957.961516	30241.333333
959.255409	30429.666667
960.548785	30022.666667
961.841647	29289.333333
963.133993	28318.333333
964.425825	26881.666667
965.717142	25843.333333
967.007946	24571.333333
968.298235	23579.333333
969.588011	22427.666667
970.877273	21524.333333
972.166023	21004.000000
973.454259	20383.000000
974.741984	19982.666667
976.029196	19622.666667
977.315895	19239.333333
978.602084	19039.000000
979.887761	18870.333333
981.172926	18780.000000
982.457581	18724.333333
983.741725	18445.666667
985.025359	18402.000000
986.308483	18324.666667
987.591097	18219.666667
988.873202	18342.333333
990.154797	18172.666667
991.435883	18103.000000
992.716461	18166.000000
993.996530	18264.333333
995.276091	18279.666667
996.555144	18255.666667
997.833690	18362.333333
999.111728	18275.666667
1000.389259	18490.000000
1001.666283	18497.333333
1002.942800	18505.333333
1004.218812	18474.666667
1005.494317	18391.666667
1006.769317	18298.666667
1008.043811	18216.666667
1009.317799	18313.666667
1010.591283	18234.333333
1011.864263	18152.333333
1013.136737	18196.000000
1014.408708	18220.000000
1015.680175	18213.333333
1016.951138	18279.333333
1018.221598	18237.333333
1019.491554	18247.666667
1020.761008	18165.666667
1022.029959	18270.333333
1023.298408	18421.666667
1024.566355	18279.000000
1025.833800	18379.333333
1027.100744	18407.333333
1028.367187	18402.333333
1029.633128	18402.333333
1030.898569	18389.000000
1032.163509	18418.666667
1033.427949	18522.333333
1034.691890	18386.666667
1035.955330	18351.333333
1037.218271	18424.000000
1038.480714	18425.666667
1039.742657	18265.333333
1041.004101	18357.000000
1042.265048	18487.000000
1043.525496	18417.000000
1044.785446	18321.000000
1046.044899	18333.666667
1047.303855	18338.333333
1048.562313	18311.000000
1049.820275	18217.666667
1051.077740	18324.666667
1052.334709	18118.000000
1053.591182	18161.333333
1054.847160	18160.666667
1056.102641	18105.333333
1057.357628	18242.000000
1058.612120	18180.000000
1059.866117	18128.666667
1061.119619	18184.000000
1062.372628	18395.333333
1063.625142	18391.333333
1064.877163	18406.666667
1066.128691	18553.666667
1067.379725	18428.000000
1068.630267	18564.333333
1069.880316	18509.666667
1071.129872	18307.666667
1072.378937	18334.333333
1073.627509	18286.333333
1074.875590	18117.666667
1076.123180	18151.333333
1077.370279	17943.333333
1078.616887	17748.000000
1079.863004	17635.000000
1081.108631	17454.333333
1082.353768	17362.666667
1083.598415	17231.666667
1084.842573	17074.666667
1086.086241	17073.000000
1087.329421	16976.333333
1088.572111	16918.666667
1089.814314	16741.333333
1091.056028	16801.000000
1092.297253	16629.666667
1093.537992	16556.000000
1094.778242	16515.666667
1096.018006	16548.000000
1097.257282	16568.333333
1098.496072	16422.333333
1099.734376	16510.000000
1100.972193	16441.000000
1102.209524	16416.333333
1103.446370	16416.333333
1104.682730	16456.333333
1105.918604	16306.666667
1107.153994	16372.666667
1108.388900	16197.333333
1109.623320	16134.666667
1110.857257	16163.333333
1112.090710	15972.333333
1113.323679	15989.666667
1114.556164	16018.000000
1115.788167	15889.000000
1117.019686	15872.000000
1118.250723	15866.666667
1119.481278	15729.666667
1120.711350	15767.666667
1121.940940	15856.666667
1123.170049	15695.333333
1124.398676	15747.666667
1125.626823	15654.666667
1126.854488	15672.333333
1128.081672	15627.333333
1129.308376	15658.000000
1130.534600	15631.666667
1131.760345	15512.333333
1132.985609	15533.666667
1134.210394	15560.333333
1135.434700	15420.666667
1136.658527	15417.333333
1137.881875	15375.666667
1139.104745	15531.666667
1140.327136	15380.666667
1141.549050	15420.666667
1142.770486	15344.666667
1143.991445	15457.000000
1145.211926	15352.333333
1146.431931	15381.000000
1147.651459	15320.000000
1148.870510	15292.666667
1150.089086	15224.000000
1151.307185	15180.333333
1152.524808	15303.333333
1153.741957	15177.666667
1154.958630	15220.666667
1156.174828	15289.333333
1157.390551	15259.333333
1158.605800	15302.666667
1159.820574	15184.666667
1161.034875	15110.666667
1162.248702	15288.000000
1163.462055	15239.000000
1164.674936	15220.333333
1165.887343	15107.000000
1167.099277	15201.000000
1168.310739	15244.000000
1169.521729	15138.000000
1170.732247	15082.666667
1171.942293	15142.000000
1173.151867	15213.333333
1174.360970	15181.666667
1175.569602	14981.333333
1176.777764	15064.333333
1177.985454	15018.333333
1179.192675	14931.000000
1180.399425	14949.333333
1181.605706	14888.666667
1182.811517	14866.000000
1184.016859	14937.333333
1185.221731	14748.666667
1186.426135	14778.000000
1187.630070	14827.666667
1188.833537	14653.666667
1190.036535	14648.333333
1191.239066	14723.333333
1192.441129	14594.666667
1193.642725	14678.000000
1194.843853	14605.666667
1196.044515	14556.333333
1197.244710	14552.333333
1198.444438	14584.000000
1199.643701	14633.000000
1200.842497	14607.000000
1202.040827	14535.666667
1203.238693	14583.666667
1204.436092	14524.666667
1205.633027	14601.666667
1206.829497	14562.333333
1208.025503	14472.666667
1209.221044	14467.333333
1210.416122	14384.000000
1211.610735	14370.333333
1212.804885	14185.000000
1213.998572	14340.333333
1215.191795	14291.333333
1216.384556	14237.000000
1217.576854	14131.000000
1218.768689	14140.666667
1219.960063	14216.333333
1221.150974	14142.000000
1222.341424	14133.333333
1223.531413	14218.666667
1224.720940	14091.333333
1225.910006	14182.666667
1227.098612	14228.333333
1228.286757	14321.666667
1229.474442	14233.666667
1230.661667	14377.666667
1231.848432	14340.666667
1233.034738	14428.333333
1234.220584	14386.666667
1235.405971	14508.000000
1236.590900	14479.666667
1237.775369	14533.333333
1238.959381	14648.333333
1240.142934	14468.000000
1241.326029	14620.000000
1242.508667	14611.666667
1243.690848	14568.000000
1244.872571	14509.666667
1246.053837	14609.000000
1247.234646	14537.333333
1248.414999	14516.000000
1249.594896	14352.666667
1250.774337	14452.666667
1251.953322	14343.000000
1253.131851	14267.666667
1254.309925	14314.666667
1255.487544	14243.333333
1256.664708	14131.000000
1257.841417	14280.333333
1259.017673	14090.333333
1260.193473	14196.000000
1261.368820	14259.666667
1262.543714	14191.000000
1263.718154	14227.666667
1264.892140	14261.333333
1266.065674	14276.666667
1267.238755	14301.000000
1268.411383	14238.666667
1269.583559	14192.333333
1270.755283	14284.000000
1271.926555	14213.000000
1273.097375	14157.333333
1274.267744	14221.000000
1275.437662	14164.333333
1276.607129	14083.000000
1277.776145	14052.666667
1278.944711	13923.333333
1280.112827	14033.666667
1281.280492	13939.000000
1282.447708	13945.000000
1283.614474	13889.666667
1284.780791	13683.000000
1285.946659	13763.333333
1287.112078	13730.666667
1288.277048	13645.666667
1289.441570	13659.000000
1290.605644	13592.333333
1291.769270	13494.000000
1292.932448	13481.666667
1294.095178	13408.333333
1295.257461	13349.000000
1296.419298	13320.333333
1297.580687	13255.000000
1298.741630	13231.666667
1299.902126	13361.000000
1301.062177	13319.000000
1302.221781	13269.333333
1303.380940	13174.333333
1304.539653	13195.000000
1305.697921	13149.000000
1306.855744	13152.333333
1308.013123	13188.000000
1309.170056	13208.666667
1310.326546	13243.666667
1311.482591	13165.333333
1312.638193	13164.666667
1313.793350	13147.666667
1314.948065	13174.666667
1316.102336	13129.000000
1317.256164	13135.333333
1318.409550	13046.000000
1319.562493	13077.666667
1320.714993	13026.000000
1321.867052	12974.666667
1323.018668	12904.000000
1324.169843	12885.333333
1325.320577	12784.666667
1326.470870	12847.000000
1327.620721	12817.000000
1328.770132	12703.000000
1329.919102	12698.000000
1331.067632	12805.000000
1332.215722	12661.000000
1333.363372	12593.666667
1334.510582	12755.000000
1335.657353	12613.666667
1336.803685	12669.333333
1337.949578	12682.666667
1339.095032	12620.333333
1340.240048	12665.666667
1341.384625	12699.666667
1342.528764	12605.000000
1343.672466	12576.666667
1344.815729	12640.000000
1345.958556	12650.000000
1347.100945	12587.000000
1348.242897	12657.666667
1349.384413	12480.666667
1350.525492	12539.000000
1351.666134	12450.666667
1352.806341	12397.000000
1353.946111	12311.333333
1355.085446	12203.333333
1356.224346	12244.666667
1357.362810	12308.666667
1358.500840	12175.000000
1359.638434	12153.333333
1360.775594	12146.666667
1361.912320	12259.000000
1363.048612	12018.666667
1364.184469	12074.333333
1365.319893	12067.000000
1366.454884	12100.666667
1367.589441	12119.666667
1368.723566	12097.666667
1369.857257	12152.000000
1370.990516	12051.000000
1372.123343	12151.000000
1373.255737	12136.666667
1374.387699	12223.666667
1375.519230	12149.666667
1376.650329	12057.333333
1377.780997	12126.666667
1378.911234	12155.333333
1380.041040	12070.000000
1381.170416	12183.333333
1382.299361	11991.333333
1383.427875	12130.333333
1384.555960	12135.000000
1385.683615	12128.666667
1386.810841	12063.333333
1387.937637	12157.666667
1389.064004	12080.666667
1390.189942	11939.666667
1391.315451	12024.333333
1392.440532	11977.333333
1393.565185	11868.000000
1394.689409	11920.666667
1395.813206	11827.666667
1396.936575	11901.000000
1398.059517	11824.666667
1399.182032	11846.666667
1400.304119	11778.666667
1401.425780	11795.333333
1402.547014	11839.333333
1403.667822	11816.000000
1404.788204	11742.666667
1405.908160	11737.333333
1407.027690	11813.000000
1408.146795	11729.666667
1409.265474	11749.666667
1410.383728	11822.333333
1411.501558	11762.333333
1412.618963	11781.333333
1413.735943	11811.333333
1414.852499	11833.666667
1415.968632	11808.333333
1417.084340	11767.666667
1418.199625	11808.333333
1419.314486	11839.333333
1420.428925	11755.333333
1421.542940	11852.666667
1422.656533	11796.666667
1423.769703	11641.666667
1424.882451	11680.666667
1425.994777	11736.000000
1427.106680	11607.000000
1428.218163	11669.333333
1429.329223	11511.666667
1430.439863	11533.666667
1431.550081	11527.333333
1432.659879	11560.333333
1433.769256	11534.000000
1434.878212	11508.333333
1435.986749	11500.333333
1437.094865	11413.000000
1438.202562	11491.000000
1439.309839	11574.666667
1440.416696	11445.333333
1441.523135	11524.000000
1442.629154	11522.666667
1443.734755	11653.000000
1444.839937	11542.333333
1445.944701	11717.666667
1447.049047	11657.666667
1448.152975	11834.333333
1449.256485	11714.666667
1450.359577	11661.333333
1451.462253	11661.666667
1452.564511	11792.333333
1453.666352	11668.333333
1454.767777	11590.666667
1455.868785	11674.000000
1456.969377	11530.333333
1458.069553	11518.666667
1459.169313	11468.333333
1460.268658	11431.000000
1461.367587	11350.000000
1462.466101	11275.333333
1463.564200	11216.000000
1464.661884	11265.333333
1465.759153	11188.666667
1466.856008	11002.333333
1467.952449	11093.000000
1469.048476	10988.000000
1470.144089	10878.000000
1471.239288	10808.666667
1472.334074	10747.000000
1473.428447	10668.333333
1474.522407	10612.666667
1475.615955	10591.000000
1476.709089	10552.333333
1477.801812	10529.000000
1478.894122	10464.666667
1479.986020	10353.333333
1481.077506	10435.000000
1482.168581	10357.666667
1483.259245	10354.333333
1484.349498	10299.333333
1485.439339	10377.000000
1486.528770	10346.666667
1487.617790	10205.666667
1488.706400	10192.666667
1489.794600	10252.000000
1490.882390	10218.333333
1491.969771	10178.666667
1493.056742	10132.333333
1494.143303	10171.666667
1495.229456	10221.000000
1496.315199	10190.000000
1497.400534	10114.000000
1498.485460	10132.333333
1499.569978	10111.000000
1500.654088	10022.000000
1501.737790	9985.000000
1502.821085	9941.666667
1503.903972	9941.000000
1504.986451	9900.333333
1506.068524	9932.000000
1507.150189	9818.666667
1508.231448	9775.000000
1509.312301	9752.666667
1510.392747	9719.333333
1511.472787	9753.000000
1512.552422	9724.333333
1513.631650	9686.000000
1514.710473	9730.000000
1515.788891	9555.000000
1516.866904	9694.666667
1517.944512	9621.333333
1519.021715	9685.000000
1520.098513	9545.333333
1521.174908	9639.666667
1522.250898	9575.000000
1523.326485	9635.666667
1524.401667	9664.333333
1525.476447	9609.000000
1526.550823	9572.000000
1527.624796	9603.333333
1528.698365	9601.333333
1529.771533	9647.666667
1530.844298	9622.000000
1531.916660	9522.333333
1532.988620	9563.000000
1534.060179	9542.666667
1535.131336	9415.000000
1536.202091	9431.666667
1537.272445	9425.666667
1538.342398	9442.666667
1539.411950	9469.000000
1540.481101	9481.666667
1541.549851	9335.000000
1542.618202	9322.000000
1543.686152	9278.666667
1544.753702	9269.333333
1545.820853	9268.000000
1546.887604	9242.333333
1547.953955	9291.666667
1549.019908	9251.000000
1550.085461	9214.666667
1551.150616	9212.000000
1552.215372	9180.666667
1553.279730	9279.000000
1554.343690	9196.666667
1555.407252	9195.333333
1556.470415	9151.333333
1557.533182	9076.666667
1558.595551	9061.333333
1559.657522	9102.333333
1560.719097	9134.000000
1561.780275	9092.666667
1562.841056	9098.666667
1563.901441	9158.333333
1564.961429	9101.000000
1566.021022	9030.333333
1567.080219	9077.000000
1568.139020	9186.000000
1569.197425	9069.000000
1570.255436	9021.666667
1571.313051	9112.666667
1572.370271	9016.333333
1573.427097	9062.000000
1574.483528	9025.000000
1575.539565	8941.666667
1576.595208	8951.666667
1577.650457	8879.000000
1578.705312	8909.333333
1579.759774	8864.333333
1580.813842	8712.666667
1581.867517	8760.333333
1582.920799	8898.000000
1583.973689	8834.000000
1585.026186	8777.666667
1586.078290	8760.333333
1587.130002	8731.333333
1588.181323	8649.333333
1589.232251	8665.333333
1590.282788	8616.666667
1591.332933	8595.333333
1592.382688	8575.333333
1593.432051	8675.666667
1594.481023	8623.666667
1595.529605	8611.000000
1596.577796	8708.333333
1597.625597	8657.000000
1598.673007	8647.000000
1599.720028	8672.666667
1600.766660	8607.333333
1601.812901	8715.333333
1602.858753	8732.666667
1603.904217	8672.000000
1604.949291	8595.666667
1605.993976	8664.666667
1607.038273	8656.333333
1608.082182	8613.333333
1609.125702	8643.000000
1610.168834	8581.333333
1611.211579	8550.000000
1612.253935	8590.000000
1613.295905	8552.333333
1614.337487	8549.000000
1615.378682	8509.666667
1616.419490	8443.000000
1617.459912	8447.666667
1618.499946	8448.000000
1619.539595	8451.666667
1620.578858	8404.666667
1621.617734	8411.000000
1622.656225	8391.333333
1623.694330	8352.333333
1624.732050	8404.666667
1625.769385	8473.333333
1626.806334	8386.000000
1627.842899	8391.666667
1628.879079	8328.666667
1629.914875	8345.333333
1630.950286	8314.000000
1631.985314	8311.000000
1633.019957	8316.000000
1634.054217	8310.666667
1635.088093	8337.000000
1636.121586	8380.000000
1637.154696	8360.666667
1638.187423	8396.666667
1639.219767	8358.000000
1640.251728	8305.666667
1641.283307	8455.333333
1642.314504	8383.666667
1643.345319	8423.333333
1644.375751	8404.666667
1645.405803	8320.666667
1646.435472	8349.000000
1647.464761	8323.333333
1648.493668	8286.000000
1649.522194	8316.000000
1650.550340	8366.666667
1651.578105	8275.666667
1652.605490	8293.000000
1653.632494	8271.333333
1654.659119	8228.666667
1655.685363	8172.333333
1656.711228	8193.666667
1657.736714	8178.000000
1658.761820	8199.000000
1659.786547	8182.333333
1660.810895	8194.666667
1661.834865	8147.666667
1662.858456	8153.333333
1663.881668	8080.000000
1664.904503	8018.666667
1665.926959	7970.666667
1666.949038	8021.333333
1667.970739	7983.333333
1668.992062	7958.000000
1670.013008	7961.333333
1671.033577	7884.000000
1672.053770	7922.000000
1673.073585	7835.000000
1674.093024	7799.666667
1675.112086	7843.666667
1676.130773	7782.000000
1677.149083	7759.333333
1678.167017	7659.333333
1679.184576	7771.666667
1680.201760	7780.000000
1681.218568	7703.000000
1682.235001	7747.000000
1683.251059	7695.666667
1684.266742	7726.333333
1685.282051	7706.333333
1686.296985	7703.333333
1687.311546	7630.000000
1688.325732	7600.000000
1689.339544	7593.000000
1690.352983	7544.000000
1691.366048	7462.333333
1692.378740	7484.000000
1693.391058	7409.333333
1694.403004	7383.000000
1695.414577	7337.333333
1696.425778	7278.000000
1697.436606	7224.666667
1698.447061	7209.666667
1699.457145	7168.666667
1700.466857	7132.000000
1701.476197	7094.000000
1702.485166	7053.333333
1703.493763	7031.666667
1704.501989	6928.000000
1705.509844	6962.000000
1706.517328	6935.666667
1707.524442	6940.000000
1708.531185	6966.666667
1709.537558	6810.666667
1710.543561	6806.000000
1711.549194	6902.333333
1712.554457	6849.666667
1713.559351	6868.666667
1714.563875	6858.666667
1715.568030	6782.333333
1716.571816	6905.666667
1717.575233	6878.000000
1718.578282	6917.666667
1719.580962	6946.000000
1720.583273	6948.666667
1721.585217	6829.000000
1722.586792	6892.666667
1723.588000	6883.666667
1724.588840	6840.333333
1725.589312	6822.666667
1726.589418	6897.333333
1727.589156	6769.000000
1728.588527	6825.333333
1729.587532	6878.000000
1730.586170	6819.333333
1731.584441	6848.000000
1732.582346	6832.000000
1733.579886	6809.666667
1734.577059	6799.333333
1735.573867	6698.000000
1736.570309	6676.666667
1737.566386	6632.333333
1738.562097	6672.000000
1739.557444	6595.333333
1740.552426	6553.666667
1741.547043	6526.666667
1742.541295	6561.333333
1743.535184	6511.666667
1744.528708	6513.666667
1745.521868	6423.666667
1746.514664	6420.333333
1747.507097	6427.000000
1748.499166	6397.333333
1749.490873	6415.000000
1750.482216	6379.000000
1751.473196	6351.000000
1752.463813	6407.333333
1753.454068	6433.000000
1754.443960	6358.000000
1755.433490	6389.333333
1756.422658	6413.666667
1757.411464	6373.000000
1758.399908	6359.000000
1759.387991	6395.000000
1760.375713	6348.000000
1761.363073	6349.333333
1762.350072	6322.333333
1763.336711	6398.333333
1764.322988	6329.000000
1765.308905	6290.000000
1766.294462	6344.333333
1767.279659	6199.333333
1768.264496	6266.666667
1769.248972	6270.666667
1770.233089	6170.000000
1771.216847	6216.000000
1772.200245	6147.000000
1773.183284	6199.000000
1774.165965	6183.666667
1775.148286	6119.666667
1776.130249	6108.333333
1777.111853	6100.333333
1778.093099	6082.666667
1779.073987	5988.666667
1780.054517	5985.000000
1781.034689	5958.333333
1782.014503	5895.000000
1782.993960	5917.333333
1783.973060	5917.666667
1784.951802	5802.000000
1785.930188	5879.333333
1786.908217	5851.666667
1787.885889	5800.333333
1788.863205	5806.000000
1789.840164	5713.333333
1790.816768	5706.666667
1791.793015	5700.666667
1792.768907	5714.000000
1793.744443	5750.333333
1794.719624	5662.000000
1795.694449	5705.333333
1796.668919	5690.333333
1797.643035	5725.000000
1798.616795	5738.666667
1799.590201	5706.333333
1800.563253	5698.333333
1801.535950	5708.000000
1802.508294	5706.666667
1803.480283	5681.333333
1804.451919	5732.000000
1805.423201	5738.000000
1806.394129	5751.333333
1807.364705	5753.333333
1808.334927	5730.000000
1809.304796	5696.666667
1810.274313	5675.333333
1811.243477	5694.333333
1812.212288	5688.333333
1813.180747	5678.666667
1814.148855	5665.333333
1815.116610	5671.333333
1816.084013	5625.333333
1817.051065	5635.333333
1818.017766	5661.000000
1818.984115	5596.333333
1819.950113	5535.333333
1820.915760	5532.333333
1821.881057	5525.000000
1822.846003	5505.000000
1823.810598	5518.000000
1824.774843	5527.333333
1825.738738	5476.666667
1826.702283	5472.000000
1827.665479	5465.000000
1828.628324	5423.666667
1829.590821	5446.333333
1830.552968	5408.333333
1831.514765	5417.000000
1832.476214	5314.333333
1833.437314	5334.000000
1834.398066	5351.000000
1835.358469	5342.666667
1836.318524	5397.333333
1837.278230	5326.000000
1838.237589	5359.666667
1839.196600	5297.666667
1840.155263	5355.000000
1841.113578	5354.000000
1842.071547	5326.666667
1843.029168	5340.666667
1843.986442	5348.666667
1844.943369	5295.666667
1845.899950	5335.333333
1846.856184	5367.666667
1847.812072	5355.333333
1848.767614	5370.666667
1849.722809	5364.666667
1850.677659	5390.666667
1851.632163	5339.666667
1852.586322	5351.333333
1853.540135	5314.000000
1854.493603	5267.333333
1855.446726	5376.000000
1856.399504	5260.666667
1857.351937	5270.333333
1858.304026	5293.000000
1859.255770	5225.333333
1860.207170	5302.000000
1861.158227	5223.333333
1862.108939	5230.333333
1863.059307	5171.666667
1864.009332	5208.333333
1864.959013	5172.000000
1865.908351	5139.000000
1866.857346	5115.666667
1867.805998	5099.333333
1868.754307	5050.666667
1869.702274	5040.666667
1870.649898	5054.000000
1871.597180	4968.666667
1872.544119	4957.666667
1873.490717	4999.000000
1874.436973	4955.000000
1875.382887	4918.333333
1876.328459	4952.000000
1877.273691	4959.000000
1878.218581	4923.000000
1879.163130	4896.333333
1880.107338	4934.666667
1881.051205	4920.666667
1881.994732	4937.000000
1882.937919	4902.333333
1883.880765	4944.333333
1884.823271	4925.333333
1885.765437	4929.333333
1886.707264	4922.000000
1887.648750	4941.000000
1888.589898	4962.666667
1889.530706	4949.666667
1890.471175	4939.000000
1891.411305	4906.000000
1892.351096	4962.666667
1893.290548	4921.333333
1894.229662	4905.333333
1895.168438	4927.666667
1896.106876	4885.666667
1897.044975	4862.333333
1897.982737	4886.333333
1898.920160	4878.333333
1899.857247	4861.000000
1900.793996	4814.333333
1901.730407	4822.000000
1902.666482	4815.333333
1903.602219	4774.333333
1904.537620	4782.333333
1905.472685	4713.666667
1906.407412	4701.666667
1907.341804	4683.666667
1908.275859	4670.666667
1909.209579	4591.000000
1910.142962	4666.000000
1911.076010	4659.666667
1912.008722	4645.000000
1912.941099	4639.666667
1913.873141	4573.333333
1914.804848	4563.666667
1915.736219	4527.333333
1916.667256	4474.333333
1917.597959	4543.000000
1918.528327	4455.333333
1919.458360	4493.000000
1920.388060	4482.333333
1921.317426	4453.000000
1922.246457	4450.333333
1923.175156	4469.666667
1924.103520	4487.666667
1925.031552	4507.000000
1925.959250	4408.000000
1926.886615	4452.000000
1927.813647	4499.333333
1928.740346	4445.333333
1929.666713	4431.000000
1930.592748	4455.666667
1931.518450	4483.333333
1932.443820	4458.666667
1933.368858	4434.333333
1934.293564	4445.333333
1935.217939	4443.000000
1936.141982	4442.666667
1937.065694	4458.333333
1937.989074	4433.000000
1938.912124	4404.666667
1939.834842	4394.333333
1940.757230	4421.666667
1941.679287	4364.333333
1942.601014	4405.333333
1943.522411	4321.666667
1944.443477	4338.666667
1945.364214	4281.666667
1946.284621	4291.666667
1947.204698	4323.333333
1948.124445	4281.666667
1949.043863	4217.666667
1949.962952	4210.333333
1950.881712	4158.666667
1951.800143	4252.333333
1952.718245	4187.333333
1953.636019	4158.333333
1954.553464	4146.666667
1955.470581	4132.333333
1956.387369	4075.000000
1957.303830	4117.666667
1958.219963	4095.000000
1959.135768	4118.333333
1960.051246	4087.333333
1960.966396	4070.000000
1961.881219	4102.666667
1962.795715	4096.000000
1963.709883	4114.333333
1964.623726	4130.000000
1965.537241	4112.000000
1966.450430	4105.333333
1967.363293	4156.666667
1968.275829	4123.000000
1969.188040	4047.666667
1970.099924	4045.000000
1971.011483	4083.666667
1971.922716	4130.000000
1972.833624	4154.333333
1973.744206	4065.333333
1974.654464	4074.333333
1975.564396	4139.666667
1976.474004	4064.666667
1977.383286	4130.000000
1978.292245	4082.000000
1979.200878	4100.000000
1980.109188	4037.000000
1981.017174	4078.000000
1981.924835	4058.666667
1982.832173	4048.666667
1983.739187	4069.666667
1984.645878	4011.333333
1985.552245	4016.000000
1986.458289	3980.333333
1987.364010	4005.000000
1988.269408	3930.000000
1989.174484	3955.666667
1990.079236	3870.000000
1990.983667	3907.000000
1991.887775	3861.333333
1992.791561	3873.333333
1993.695024	3881.666667
1994.598166	3822.000000
1995.500986	3799.333333
1996.403485	3809.000000
1997.305662	3862.000000
1998.207518	3802.000000
1999.109053	3868.666667
