200.151048	15930.333333
201.758777	15743.000000
203.365815	15820.333333
204.972162	15741.666667
206.577820	15660.666667
208.182787	15731.666667
209.787065	15532.333333
211.390653	15532.666667
212.993553	15483.666667
214.595765	15570.333333
216.197289	15491.000000
217.798125	15326.666667
219.398274	15489.666667
220.997737	15293.333333
222.596513	15222.000000
224.194603	15243.333333
225.792008	15240.666667
227.388728	15151.333333
228.984763	15197.333333
230.580114	15137.333333
232.174781	15132.000000
233.768765	15174.000000
235.362065	15154.333333
236.954683	15077.333333
238.546619	15067.333333
240.137872	14873.333333
241.728445	14818.000000
243.318336	14902.666667
244.907546	14813.333333
246.496076	14852.666667
248.083926	14858.000000
249.671097	14770.000000
251.257589	14578.333333
252.843402	14631.666667
254.428536	14500.000000
256.012993	14449.000000
257.596772	14576.000000
259.179874	14422.666667
260.762300	14452.333333
262.344049	14425.333333
263.925122	14477.666667
265.505519	14464.000000
267.085241	14375.333333
268.664289	14305.666667
270.242662	14253.666667
271.820361	14302.666667
273.397387	14216.000000
274.973740	14260.333333
276.549419	14247.666667
278.124426	14295.000000
279.698762	14243.666667
281.272425	14287.666667
282.845417	14318.333333
284.417739	14251.666667
285.989390	14240.333333
287.560371	14167.666667
289.130682	14347.333333
290.700324	14343.666667
292.269297	14251.333333
293.837602	14286.333333
295.405238	14209.666667
296.972207	14243.000000
298.538508	14129.000000
300.104142	14214.333333
301.669110	14251.000000
303.233411	13950.666667
304.797047	14126.666667
306.360017	13993.666667
307.922322	13988.666667
309.483963	13887.333333
311.044939	13911.000000
312.605252	13769.666667
314.164900	13813.333333
315.723886	13687.666667
317.282209	13655.333333
318.839870	13532.000000
320.396868	13610.666667
321.953205	13457.333333
323.508881	13518.000000
325.063896	13448.333333
326.618251	13487.333333
328.171945	13485.666667
329.724980	13466.666667
331.277356	13334.333333
332.829072	13329.333333
334.380131	13354.333333
335.930530	13327.333333
337.480273	13320.000000
339.029357	13293.333333
340.577785	13269.666667
342.125556	13306.666667
343.672671	13196.666667
345.219130	13208.666667
346.764933	13250.666667
348.310081	13164.000000
349.854575	13198.000000
351.398414	13191.333333
352.941599	13111.666667
354.484130	13024.000000
356.026008	13111.666667
357.567234	13049.666667
359.107807	13000.333333
360.647727	12947.666667
362.186996	12969.666667
363.725614	12923.333333
365.263580	12940.333333
366.800896	12958.333333
368.337562	12960.666667
369.873578	12914.000000
371.408944	12864.666667
372.943661	12831.333333
374.477730	12880.666667
376.011150	12776.666667
377.543922	12949.333333
379.076046	12825.666667
380.607523	12930.333333
382.138353	13050.000000
383.668537	13020.333333
385.198075	13060.000000
386.726966	12987.333333
388.255213	13085.666667
389.782814	13127.333333
391.309770	13016.000000
392.836083	13139.000000
394.361751	13114.666667
395.886776	13200.666667
397.411157	13077.666667
398.934896	13132.333333
400.457992	13141.666667
401.980446	13214.000000
403.502258	13221.333333
405.023429	13195.333333
406.543959	13345.000000
408.063849	13312.666667
409.583098	13288.666667
411.101707	13397.666667
412.619677	13546.333333
414.137007	13621.666667
415.653699	13636.333333
417.169752	13698.000000
418.685167	13883.333333
420.199945	14037.666667
421.714085	14166.333333
423.227588	14226.000000
424.740454	14326.333333
426.252684	14500.000000
427.764279	14580.666667
429.275238	14530.333333
430.785561	14481.333333
432.295250	14359.333333
433.804304	14303.000000
435.312725	14190.666667
436.820511	14029.333333
438.327664	13973.000000
439.834185	13857.666667
441.340072	13889.000000
442.845327	13787.333333
444.349951	13634.666667
445.853942	13709.666667
447.357303	13577.000000
448.860033	13430.000000
450.362132	13480.666667
451.863601	13371.000000
453.364440	13391.666667
454.864650	13243.333333
456.364231	13053.666667
457.863183	12937.666667
459.361507	12927.666667
460.859203	12896.666667
462.356271	12646.666667
463.852712	12737.000000
465.348526	12491.000000
466.843714	12489.666667
468.338275	12457.666667
469.832210	12357.000000
471.325520	12411.000000
472.818205	12266.000000
474.310265	12201.000000
475.801700	12233.666667
477.292512	12216.000000
478.782700	12154.000000
480.272264	12049.333333
481.761205	12147.000000
483.249524	11998.666667
484.737221	12020.666667
486.224295	12026.333333
487.710748	11957.333333
489.196579	11939.666667
490.681790	11885.333333
492.166380	11905.000000
493.650350	11843.000000
495.133700	11917.333333
496.616431	11851.666667
498.098542	11813.000000
499.580035	11860.666667
501.060909	11775.000000
502.541165	11864.666667
504.020804	11903.000000
505.499825	11754.666667
506.978228	11818.000000
508.456016	11761.000000
509.933186	11776.000000
511.409741	11683.000000
512.885680	11763.666667
514.361004	11709.666667
515.835713	11725.000000
517.309807	11611.000000
518.783287	11681.000000
520.256153	11689.333333
521.728406	11717.000000
523.200045	11726.000000
524.671071	11697.000000
526.141485	11719.666667
527.611287	11745.333333
529.080476	11690.333333
530.549054	11682.000000
532.017021	11786.000000
533.484378	11686.333333
534.951123	11664.333333
536.417259	11687.333333
537.882785	11730.333333
539.347701	11661.333333
540.812008	11701.333333
542.275707	11694.000000
543.738797	11687.666667
545.201279	11696.333333
546.663153	11741.000000
548.124420	11784.666667
549.585080	11701.333333
551.045133	11728.000000
552.504579	11841.666667
553.963420	11749.000000
555.421655	11765.666667
556.879285	11735.000000
558.336309	11884.000000
559.792729	11824.666667
561.248545	11900.666667
562.703756	11982.000000
564.158364	11865.000000
565.612369	11965.666667
567.065770	12054.666667
568.518569	12074.000000
569.970766	12224.666667
571.422361	12240.333333
572.873354	12232.333333
574.323745	12369.666667
575.773536	12548.666667
577.222726	12426.666667
578.671316	12665.333333
580.119306	12594.000000
581.566696	12589.333333
583.013487	12573.666667
584.459679	12601.000000
585.905273	12497.333333
587.350268	12457.333333
588.794665	12509.333333
590.238465	12468.000000
591.681667	12379.666667
593.124272	12301.000000
594.566281	12266.666667
596.007694	12114.666667
597.448510	12012.666667
598.888731	11878.666667
600.328357	11888.333333
601.767388	11763.666667
603.205824	11676.666667
604.643666	11657.000000
606.080914	11656.333333
607.517568	11668.000000
608.953629	11641.000000
610.389097	11684.000000
611.823972	11562.333333
613.258255	11469.666667
614.691946	11541.000000
616.125046	11463.666667
617.557554	11391.000000
618.989471	11284.000000
620.420798	11241.333333
621.851534	11198.000000
623.281680	11091.666667
624.711237	10996.000000
626.140204	10927.666667
627.568582	10893.333333
628.996372	10808.333333
630.423573	10822.333333
631.850186	10803.333333
633.276211	10749.333333
634.701650	10692.666667
636.126501	10645.666667
637.550765	10728.333333
638.974443	10720.333333
640.397535	10649.000000
641.820041	10724.666667
643.241961	10680.000000
644.663297	10709.666667
646.084048	10679.000000
647.504214	10593.000000
648.923796	10542.666667
650.342795	10619.666667
651.761210	10518.333333
653.179041	10517.333333
654.596290	10462.000000
656.012957	10511.666667
657.429041	10473.666667
658.844543	10462.666667
660.259464	10563.666667
661.673804	10530.666667
663.087563	10508.000000
664.500741	10449.666667
665.913339	10444.333333
667.325357	10525.333333
668.736795	10456.333333
670.147654	10496.000000
671.557934	10446.666667
672.967636	10442.000000
674.376759	10370.333333
675.785304	10468.333333
677.193271	10412.000000
678.600661	10422.333333
680.007474	10441.666667
681.413711	10428.666667
682.819370	10432.666667
684.224454	10412.666667
685.628962	10442.333333
687.032895	10309.000000
688.436252	10382.333333
689.839034	10363.333333
691.241242	10351.333333
692.642876	10249.666667
694.043936	10309.333333
695.444422	10280.333333
696.844336	10225.666667
698.243676	10215.333333
699.642443	10251.666667
701.040639	10360.666667
702.438262	10275.333333
703.835313	10257.666667
705.231794	10281.333333
706.627703	10272.333333
708.023041	10172.000000
709.417810	10232.666667
710.812008	10173.333333
712.205636	10199.333333
713.598694	10194.333333
714.991184	10141.666667
716.383105	10122.666667
717.774457	10147.666667
719.165241	10146.000000
720.555457	10172.666667
721.945105	10058.000000
723.334187	10205.666667
724.722701	10249.000000
726.110648	10031.333333
727.498030	10174.000000
728.884845	10056.000000
730.271094	10146.333333
731.656778	9955.666667
733.041897	10108.666667
734.426451	10160.000000
735.810441	9987.333333
737.193866	9987.333333
738.576728	10091.000000
739.959026	9992.000000
741.340760	9957.666667
742.721932	10132.666667
744.102541	10004.666667
745.482588	9997.000000
746.862073	10025.000000
748.240996	10061.666667
749.619358	9991.666667
750.997158	10147.666667
752.374398	10029.333333
753.751077	10086.000000
755.127197	10026.000000
756.502756	9983.666667
757.877756	10009.666667
759.252196	10079.000000
760.626078	9934.666667
761.999400	10103.000000
763.372165	10012.000000
764.744371	9869.666667
766.116020	9919.333333
767.487111	9877.333333
768.857646	9886.000000
770.227623	9954.000000
771.597044	9807.666667
772.965908	9900.333333
774.334217	9851.333333
775.701970	9816.333333
777.069168	9755.333333
778.435811	9801.000000
779.801899	9776.666667
781.167433	9717.666667
782.532412	9752.666667
783.896838	9761.000000
785.260710	9653.333333
786.624029	9689.666667
787.986796	9674.333333
789.349009	9639.666667
790.710671	9708.000000
792.071780	9676.000000
793.432338	9569.666667
794.792344	9757.666667
796.151799	9621.333333
797.510704	9615.666667
798.869058	9653.000000
800.226862	9606.333333
801.584116	9568.333333
802.940820	9578.000000
804.296975	9631.000000
805.652581	9620.333333
807.007638	9590.000000
808.362147	9628.000000
809.716108	9788.333333
811.069521	9631.333333
812.422387	9648.666667
813.774705	9762.333333
815.126476	9702.333333
816.477701	9602.000000
817.828380	9651.666667
819.178512	9613.000000
820.528099	9553.666667
821.877140	9530.333333
823.225637	9495.666667
824.573588	9502.000000
825.920995	9523.666667
827.267857	9476.333333
828.614176	9495.666667
829.959951	9494.333333
831.305183	9532.000000
832.649871	9543.000000
833.994017	9491.333333
835.337620	9455.000000
836.680681	9444.666667
838.023201	9489.666667
839.365178	9541.000000
840.706614	9492.000000
842.047510	9526.666667
843.387864	9553.666667
844.727678	9616.333333
846.066952	9682.333333
847.405687	9647.333333
848.743881	9727.666667
850.081537	9749.333333
851.418653	9800.666667
852.755231	9782.000000
854.091270	9845.666667
855.426771	9897.000000
856.761735	9785.666667
858.096160	9786.333333
859.430049	9693.666667
860.763401	9690.666667
862.096216	9692.333333
863.428495	9681.000000
864.760237	9592.666667
866.091444	9523.333333
867.422115	9549.666667
868.752252	9587.000000
870.081853	9520.333333
871.410919	9527.333333
872.739452	9647.333333
874.067450	9560.000000
875.394914	9474.333333
876.721845	9520.000000
878.048243	9463.666667
879.374108	9468.333333
880.699440	9373.000000
882.024240	9432.000000
883.348508	9468.666667
884.672244	9370.333333
885.995449	9340.000000
887.318122	9284.666667
888.640265	9268.333333
889.961877	9257.333333
891.282959	9188.000000
892.603510	9263.333333
893.923532	9272.000000
895.243024	9185.666667
896.561987	9181.000000
897.880422	9147.333333
899.198327	9218.666667
900.515705	9135.000000
901.832554	9093.000000
903.148875	9123.000000
904.464669	9112.333333
905.779936	9154.666667
907.094676	9166.000000
908.408889	9173.333333
909.722576	9157.000000
911.035737	9175.000000
912.348371	9259.333333
913.660481	9322.666667
914.972065	9357.666667
916.283124	9430.333333
917.593659	9551.333333
918.903669	9432.666667
920.213155	9470.333333
921.522117	9517.333333
922.830556	9517.666667
924.138471	9523.000000
925.445864	9436.000000
926.752733	9469.666667
928.059081	9439.000000
929.364906	9600.666667
930.670209	9494.333333
931.974991	9619.333333
933.279251	9696.666667
934.582990	9743.000000
935.886209	9921.333333
937.188907	9990.666667
938.491085	10024.333333
939.792743	10230.333333
941.093881	10421.333333
942.394500	10575.666667
943.694600	10820.333333
944.994181	11133.666667
946.293243	11500.666667
947.591787	11953.333333
948.889813	12397.000000
950.187322	12882.666667
951.484313	13575.000000
952.780787	14178.333333
954.076744	15022.333333
955.372184	15735.666667
956.667108	16429.333333
957.961516	16768.000000
959.255409	16855.333333
960.548785	16650.000000
961.841647	16045.666667
963.133993	15386.666667
964.425825	14566.333333
965.717142	13537.666667
967.007946	12717.666667
968.298235	11914.666667
969.588011	11287.333333
970.877273	10749.666667
972.166023	10159.000000
973.454259	9835.333333
974.741984	9595.000000
976.029196	9333.666667
977.315895	9076.333333
978.602084	8977.666667
979.887761	8938.333333
981.172926	8770.000000
982.457581	8799.000000
983.741725	8626.333333
985.025359	8657.666667
986.308483	8576.666667
987.591097	8587.333333
988.873202	8523.000000
990.154797	8580.333333
991.435883	8472.333333
992.716461	8523.333333
993.996530	8477.333333
995.276091	8507.000000
996.555144	8522.666667
997.833690	8613.666667
999.111728	8637.666667
1000.389259	8674.333333
1001.666283	8680.000000
1002.942800	8779.666667
1004.218812	8692.666667
1005.494317	8709.666667
1006.769317	8581.333333
1008.043811	8626.666667
1009.317799	8553.666667
1010.591283	8556.666667
1011.864263	8560.666667
1013.136737	8554.000000
1014.408708	8542.666667
1015.680175	8560.000000
1016.951138	8609.666667
1018.221598	8546.666667
1019.491554	8662.333333
1020.761008	8638.666667
1022.029959	8704.333333
1023.298408	8722.333333
1024.566355	8724.000000
1025.833800	8712.333333
1027.100744	8783.000000
1028.367187	8795.000000
1029.633128	8763.000000
1030.898569	8859.000000
1032.163509	8796.000000
1033.427949	8771.666667
1034.691890	8819.000000
1035.955330	8774.333333
1037.218271	8728.000000
1038.480714	8821.333333
1039.742657	8698.666667
1041.004101	8837.000000
1042.265048	8754.666667
1043.525496	8811.000000
1044.785446	8811.000000
1046.044899	8793.333333
1047.303855	8754.333333
1048.562313	8698.000000
1049.820275	8682.666667
1051.077740	8623.666667
1052.334709	8716.666667
1053.591182	8604.333333
1054.847160	8626.666667
1056.102641	8586.000000
1057.357628	8687.333333
1058.612120	8665.333333
1059.866117	8736.000000
1061.119619	8739.666667
1062.372628	8749.333333
1063.625142	8805.000000
1064.877163	8857.333333
1066.128691	8834.666667
1067.379725	8913.333333
1068.630267	8911.666667
1069.880316	8877.666667
1071.129872	8776.666667
1072.378937	8861.333333
1073.627509	8735.666667
1074.875590	8692.333333
1076.123180	8618.000000
1077.370279	8490.333333
1078.616887	8401.333333
1079.863004	8278.666667
1081.108631	8294.000000
1082.353768	8259.333333
1083.598415	8113.000000
1084.842573	8057.000000
1086.086241	8021.000000
1087.329421	8004.333333
1088.572111	7899.666667
1089.814314	7840.333333
1091.056028	7862.333333
1092.297253	7856.666667
1093.537992	7753.333333
1094.778242	7773.000000
1096.018006	7756.333333
1097.257282	7724.333333
1098.496072	7747.000000
1099.734376	7724.000000
1100.972193	7743.666667
1102.209524	7686.333333
1103.446370	7675.000000
1104.682730	7693.666667
1105.918604	7631.000000
1107.153994	7533.666667
1108.388900	7591.333333
1109.623320	7497.000000
1110.857257	7463.000000
1112.090710	7404.000000
1113.323679	7364.000000
1114.556164	7432.000000
1115.788167	7305.333333
1117.019686	7333.000000
1118.250723	7318.000000
1119.481278	7287.333333
1120.711350	7308.333333
1121.940940	7238.333333
1123.170049	7296.666667
1124.398676	7256.333333
1125.626823	7257.000000
1126.854488	7301.000000
1128.081672	7206.666667
1129.308376	7188.000000
1130.534600	7212.333333
1131.760345	7118.666667
1132.985609	7194.666667
1134.210394	7148.666667
1135.434700	7061.333333
1136.658527	7121.000000
1137.881875	7091.000000
1139.104745	7087.333333
1140.327136	7109.333333
1141.549050	7112.666667
1142.770486	7075.333333
1143.991445	7069.666667
1145.211926	7073.666667
1146.431931	7064.666667
1147.651459	7100.666667
1148.870510	6968.333333
1150.089086	7020.000000
1151.307185	7028.000000
1152.524808	7082.666667
1153.741957	6990.666667
1154.958630	7063.000000
1156.174828	7030.333333
1157.390551	7066.666667
1158.605800	7064.333333
1159.820574	7005.666667
1161.034875	7037.333333
1162.248702	7008.000000
1163.462055	6990.666667
1164.674936	7055.000000
1165.887343	6956.666667
1167.099277	7012.333333
1168.310739	6996.666667
1169.521729	6996.666667
1170.732247	7067.333333
1171.942293	7029.000000
1173.151867	6998.666667
1174.360970	7042.333333
1175.569602	7009.666667
1176.777764	6971.333333
1177.985454	6952.666667
1179.192675	6920.000000
1180.399425	6923.666667
1181.605706	6925.666667
1182.811517	6867.000000
1184.016859	6857.666667
1185.221731	6808.333333
1186.426135	6820.333333
1187.630070	6866.666667
1188.833537	6835.666667
1190.036535	6886.333333
1191.239066	6891.333333
1192.441129	6834.666667
1193.642725	6802.666667
1194.843853	6825.666667
1196.044515	6811.666667
1197.244710	6761.333333
1198.444438	6704.333333
1199.643701	6807.000000
1200.842497	6800.000000
1202.040827	6787.000000
1203.238693	6759.666667
1204.436092	6814.333333
1205.633027	6807.000000
1206.829497	6739.333333
1208.025503	6765.000000
1209.221044	6763.000000
1210.416122	6687.333333
1211.610735	6660.000000
1212.804885	6616.000000
1213.998572	6649.333333
1215.191795	6587.666667
1216.384556	6682.333333
1217.576854	6614.333333
1218.768689	6599.000000
1219.960063	6571.666667
1221.150974	6587.666667
1222.341424	6615.666667
1223.531413	6622.000000
1224.720940	6621.333333
1225.910006	6706.000000
1227.098612	6666.666667
1228.286757	6750.666667
1229.474442	6792.333333
1230.661667	6726.666667
1231.848432	6776.666667
1233.034738	6792.333333
1234.220584	6855.000000
1235.405971	6856.000000
1236.590900	6980.000000
1237.775369	6978.333333
1238.959381	6990.000000
1240.142934	6968.000000
1241.326029	6950.666667
1242.508667	7065.333333
1243.690848	6996.666667
1244.872571	7012.000000
1246.053837	7019.666667
1247.234646	7015.333333
1248.414999	6975.333333
1249.594896	6944.333333
1250.774337	6906.333333
1251.953322	6872.333333
1253.131851	6884.333333
1254.309925	6857.666667
1255.487544	6853.333333
1256.664708	6852.333333
1257.841417	6825.000000
1259.017673	6867.333333
1260.193473	6807.333333
1261.368820	6808.000000
1262.543714	6879.000000
1263.718154	6826.666667
1264.892140	6833.666667
1266.065674	6846.000000
1267.238755	6907.000000
1268.411383	6869.000000
1269.583559	6903.333333
1270.755283	6878.666667
1271.926555	6801.666667
1273.097375	6774.666667
1274.267744	6858.666667
1275.437662	6765.000000
1276.607129	6702.000000
1277.776145	6781.000000
1278.944711	6684.000000
1280.112827	6695.000000
1281.280492	6758.000000
1282.447708	6642.000000
1283.614474	6712.000000
1284.780791	6630.666667
1285.946659	6607.666667
1287.112078	6613.666667
1288.277048	6473.000000
1289.441570	6487.666667
1290.605644	6474.333333
1291.769270	6481.000000
1292.932448	6440.000000
1294.095178	6408.000000
1295.257461	6375.666667
1296.419298	6356.666667
1297.580687	6312.666667
1298.741630	6279.666667
1299.902126	6298.000000
1301.062177	6285.666667
1302.221781	6279.000000
1303.380940	6295.333333
1304.539653	6308.333333
1305.697921	6229.000000
1306.855744	6189.333333
1308.013123	6277.000000
1309.170056	6293.666667
1310.326546	6270.000000
1311.482591	6313.000000
1312.638193	6181.000000
1313.793350	6279.000000
1314.948065	6241.000000
1316.102336	6295.333333
1317.256164	6286.666667
1318.409550	6221.666667
1319.562493	6244.333333
1320.714993	6236.000000
1321.867052	6198.333333
1323.018668	6143.000000
1324.169843	6121.333333
1325.320577	6147.666667
1326.470870	6154.666667
1327.620721	6138.333333
1328.770132	6023.333333
1329.919102	6058.333333
1331.067632	6093.333333
1332.215722	6066.000000
1333.363372	6044.000000
1334.510582	5999.000000
1335.657353	6063.333333
1336.803685	6064.333333
1337.949578	6063.333333
1339.095032	6075.333333
1340.240048	5990.333333
1341.384625	6073.000000
1342.528764	6032.333333
1343.672466	6032.666667
1344.815729	6122.333333
1345.958556	6002.000000
1347.100945	5957.000000
1348.242897	5996.666667
1349.384413	5946.000000
1350.525492	5923.333333
1351.666134	5914.000000
1352.806341	5853.333333
1353.946111	5833.666667
1355.085446	5906.666667
1356.224346	5863.000000
1357.362810	5859.000000
1358.500840	5770.333333
1359.638434	5795.000000
1360.775594	5774.333333
1361.912320	5774.333333
1363.048612	5763.666667
1364.184469	5760.333333
1365.319893	5781.333333
1366.454884	5772.000000
1367.589441	5721.666667
1368.723566	5790.333333
1369.857257	5685.333333
1370.990516	5765.333333
1372.123343	5765.000000
1373.255737	5797.666667
1374.387699	5801.333333
1375.519230	5806.000000
1376.650329	5810.666667
1377.780997	5807.666667
1378.911234	5824.333333
1380.041040	5863.666667
1381.170416	5817.666667
1382.299361	5768.000000
1383.427875	5784.000000
1384.555960	5795.333333
1385.683615	5768.666667
1386.810841	5775.000000
1387.937637	5745.000000
1389.064004	5771.000000
1390.189942	5756.333333
1391.315451	5748.000000
1392.440532	5797.666667
1393.565185	5739.000000
1394.689409	5712.000000
1395.813206	5734.333333
1396.936575	5735.000000
1398.059517	5739.666667
1399.182032	5683.666667
1400.304119	5691.000000
1401.425780	5703.666667
1402.547014	5668.000000
1403.667822	5657.000000
1404.788204	5625.666667
1405.908160	5679.000000
1407.027690	5666.666667
1408.146795	5659.333333
1409.265474	5699.000000
1410.383728	5710.333333
1411.501558	5611.666667
1412.618963	5663.666667
1413.735943	5750.333333
1414.852499	5665.666667
1415.968632	5782.333333
1417.084340	5684.333333
1418.199625	5771.000000
1419.314486	5731.666667
1420.428925	5740.333333
1421.542940	5719.000000
1422.656533	5776.666667
1423.769703	5691.000000
1424.882451	5715.000000
1425.994777	5685.666667
1427.106680	5706.333333
1428.218163	5593.000000
1429.329223	5717.333333
1430.439863	5606.666667
1431.550081	5628.333333
1432.659879	5633.333333
1433.769256	5551.666667
1434.878212	5619.666667
1435.986749	5624.000000
1437.094865	5625.333333
1438.202562	5638.666667
1439.309839	5681.000000
1440.416696	5682.000000
1441.523135	5656.666667
1442.629154	5802.333333
1443.734755	5811.666667
1444.839937	5780.000000
1445.944701	5763.333333
1447.049047	5862.333333
1448.152975	5870.666667
1449.256485	5880.000000
1450.359577	5878.666667
1451.462253	5855.333333
1452.564511	5812.000000
1453.666352	5793.333333
1454.767777	5729.000000
1455.868785	5764.666667
1456.969377	5800.333333
1458.069553	5703.333333
1459.169313	5683.000000
1460.268658	5608.333333
1461.367587	5651.000000
1462.466101	5604.666667
1463.564200	5528.666667
1464.661884	5504.000000
1465.759153	5553.000000
1466.856008	5482.333333
1467.952449	5393.000000
1469.048476	5384.333333
1470.144089	5282.000000
1471.239288	5228.000000
1472.334074	5220.333333
1473.428447	5149.666667
1474.522407	5170.000000
1475.615955	5158.000000
1476.709089	5076.333333
1477.801812	5105.666667
1478.894122	5016.000000
1479.986020	4991.666667
1481.077506	5055.333333
1482.168581	4954.666667
1483.259245	4957.000000
1484.349498	4954.666667
1485.439339	4904.666667
1486.528770	4900.000000
1487.617790	4880.333333
1488.706400	4903.000000
1489.794600	4881.666667
1490.882390	4900.000000
1491.969771	4828.333333
1493.056742	4874.000000
1494.143303	4832.000000
1495.229456	4833.333333
1496.315199	4825.666667
1497.400534	4814.333333
1498.485460	4825.666667
1499.569978	4753.666667
1500.654088	4793.000000
1501.737790	4782.000000
1502.821085	4746.333333
1503.903972	4779.666667
1504.986451	4740.333333
1506.068524	4701.000000
1507.150189	4682.666667
1508.231448	4663.000000
1509.312301	4636.333333
1510.392747	4718.000000
1511.472787	4615.000000
1512.552422	4667.000000
1513.631650	4576.000000
1514.710473	4670.666667
1515.788891	4674.333333
1516.866904	4629.666667
1517.944512	4623.333333
1519.021715	4621.666667
1520.098513	4638.666667
1521.174908	4670.000000
1522.250898	4626.000000
1523.326485	4564.000000
1524.401667	4593.666667
1525.476447	4543.000000
1526.550823	4592.333333
1527.624796	4615.333333
1528.698365	4589.000000
1529.771533	4625.666667
1530.844298	4567.000000
1531.916660	4593.000000
1532.988620	4551.333333
1534.060179	4606.333333
1535.131336	4614.000000
1536.202091	4545.000000
1537.272445	4544.666667
1538.342398	4552.333333
1539.411950	4555.666667
1540.481101	4502.000000
1541.549851	4553.000000
1542.618202	4527.333333
1543.686152	4489.666667
1544.753702	4453.333333
1545.820853	4456.000000
1546.887604	4507.333333
1547.953955	4417.333333
1549.019908	4488.333333
1550.085461	4440.000000
1551.150616	4476.000000
1552.215372	4477.333333
1553.279730	4470.000000
1554.343690	4521.000000
1555.407252	4433.000000
1556.470415	4401.666667
1557.533182	4414.666667
1558.595551	4414.000000
1559.657522	4417.666667
1560.719097	4424.333333
1561.780275	4395.000000
1562.841056	4394.000000
1563.901441	4397.000000
1564.961429	4453.000000
1566.021022	4427.333333
1567.080219	4409.666667
1568.139020	4431.000000
1569.197425	4395.000000
1570.255436	4415.000000
1571.313051	4380.666667
1572.370271	4415.333333
1573.427097	4325.666667
1574.483528	4322.333333
1575.539565	4351.666667
1576.595208	4308.666667
1577.650457	4315.000000
1578.705312	4315.000000
1579.759774	4310.000000
1580.813842	4280.333333
1581.867517	4326.666667
1582.920799	4312.000000
1583.973689	4289.333333
1585.026186	4270.666667
1586.078290	4233.333333
1587.130002	4261.333333
1588.181323	4246.333333
1589.232251	4221.000000
1590.282788	4235.333333
1591.332933	4245.666667
1592.382688	4236.000000
1593.432051	4228.000000
1594.481023	4198.000000
1595.529605	4243.333333
1596.577796	4238.333333
1597.625597	4293.000000
1598.673007	4239.666667
1599.720028	4263.666667
1600.766660	4248.666667
1601.812901	4251.333333
1602.858753	4249.000000
1603.904217	4296.000000
1604.949291	4263.333333
1605.993976	4192.666667
1607.038273	4190.333333
1608.082182	4241.000000
1609.125702	4225.333333
1610.168834	4297.333333
1611.211579	4159.333333
1612.253935	4226.333333
1613.295905	4186.333333
1614.337487	4238.000000
1615.378682	4198.333333
1616.419490	4208.000000
1617.459912	4190.666667
1618.499946	4225.333333
1619.539595	4221.666667
1620.578858	4206.666667
1621.617734	4228.333333
1622.656225	4192.000000
1623.694330	4161.000000
1624.732050	4175.666667
1625.769385	4183.333333
1626.806334	4176.666667
1627.842899	4231.000000
1628.879079	4181.000000
1629.914875	4212.000000
1630.950286	4259.666667
1631.985314	4166.666667
1633.019957	4164.000000
1634.054217	4187.000000
1635.088093	4236.000000
1636.121586	4257.333333
1637.154696	4216.000000
1638.187423	4201.333333
1639.219767	4199.333333
1640.251728	4248.666667
1641.283307	4170.333333
1642.314504	4258.000000
1643.345319	4248.000000
1644.375751	4199.000000
1645.405803	4239.333333
1646.435472	4189.000000
1647.464761	4198.666667
1648.493668	4251.666667
1649.522194	4230.666667
1650.550340	4112.333333
1651.578105	4202.333333
1652.605490	4204.000000
1653.632494	4239.666667
1654.659119	4261.333333
1655.685363	4194.666667
1656.711228	4207.000000
1657.736714	4212.333333
1658.761820	4234.333333
1659.786547	4152.000000
1660.810895	4107.000000
1661.834865	4204.000000
1662.858456	4150.000000
1663.881668	4184.333333
1664.904503	4096.666667
1665.926959	4117.000000
1666.949038	4036.666667
1667.970739	4140.666667
1668.992062	4049.666667
1670.013008	4007.666667
1671.033577	4044.666667
1672.053770	4010.333333
1673.073585	4054.333333
1674.093024	4024.000000
1675.112086	3999.666667
1676.130773	4016.333333
1677.149083	4031.666667
1678.167017	3937.666667
1679.184576	3942.000000
1680.201760	3936.333333
1681.218568	3944.666667
1682.235001	3913.333333
1683.251059	3947.666667
1684.266742	3909.000000
1685.282051	3921.333333
1686.296985	3919.666667
1687.311546	3905.333333
1688.325732	3859.666667
1689.339544	3792.666667
1690.352983	3774.333333
1691.366048	3758.333333
1692.378740	3800.000000
1693.391058	3764.666667
1694.403004	3666.666667
1695.414577	3685.333333
1696.425778	3630.000000
1697.436606	3630.333333
1698.447061	3651.333333
1699.457145	3606.333333
1700.466857	3574.000000
1701.476197	3549.333333
1702.485166	3590.666667
1703.493763	3501.333333
1704.501989	3517.666667
1705.509844	3495.666667
1706.517328	3505.000000
1707.524442	3448.666667
1708.531185	3457.333333
1709.537558	3457.666667
1710.543561	3466.666667
1711.549194	3434.666667
1712.554457	3438.666667
1713.559351	3419.000000
1714.563875	3402.666667
1715.568030	3415.666667
1716.571816	3402.666667
1717.575233	3422.333333
1718.578282	3454.666667
1719.580962	3426.333333
1720.583273	3418.333333
1721.585217	3438.000000
1722.586792	3391.000000
1723.588000	3413.333333
1724.588840	3483.333333
1725.589312	3450.000000
1726.589418	3420.333333
1727.589156	3477.666667
1728.588527	3443.333333
1729.587532	3354.333333
1730.586170	3404.333333
1731.584441	3389.333333
1732.582346	3414.666667
1733.579886	3360.333333
1734.577059	3395.000000
1735.573867	3363.333333
1736.570309	3334.333333
1737.566386	3300.333333
1738.562097	3334.000000
1739.557444	3364.666667
1740.552426	3266.000000
1741.547043	3325.000000
1742.541295	3295.000000
1743.535184	3275.333333
1744.528708	3264.333333
1745.521868	3236.000000
1746.514664	3259.000000
1747.507097	3262.333333
1748.499166	3234.333333
1749.490873	3227.666667
1750.482216	3259.333333
1751.473196	3234.000000
1752.463813	3219.666667
1753.454068	3251.000000
1754.443960	3187.666667
1755.433490	3222.666667
1756.422658	3212.000000
1757.411464	3212.000000
1758.399908	3207.000000
1759.387991	3169.666667
1760.375713	3226.666667
1761.363073	3145.333333
1762.350072	3160.666667
1763.336711	3203.000000
1764.322988	3184.666667
1765.308905	3171.000000
1766.294462	3135.666667
1767.279659	3163.666667
1768.264496	3158.666667
1769.248972	3126.333333
1770.233089	3099.333333
1771.216847	3119.333333
1772.200245	3120.000000
1773.183284	3091.333333
1774.165965	3149.000000
1775.148286	3089.000000
1776.130249	3099.000000
1777.111853	3080.000000
1778.093099	3055.333333
1779.073987	3064.333333
1780.054517	3034.666667
1781.034689	3026.000000
1782.014503	2980.333333
1782.993960	3032.333333
1783.973060	2989.666667
1784.951802	2920.333333
1785.930188	2950.666667
1786.908217	2961.333333
1787.885889	2917.333333
1788.863205	2962.666667
1789.840164	2945.666667
1790.816768	2959.333333
1791.793015	2881.333333
1792.768907	2943.000000
1793.744443	2867.666667
1794.719624	2897.666667
1795.694449	2946.333333
1796.668919	2927.666667
1797.643035	2898.000000
1798.616795	2918.000000
1799.590201	2908.000000
1800.563253	2902.333333
1801.535950	2914.666667
1802.508294	2890.000000
1803.480283	2961.000000
1804.451919	2958.666667
1805.423201	2905.000000
1806.394129	2918.666667
1807.364705	2901.000000
1808.334927	2945.333333
1809.304796	2914.666667
1810.274313	2856.000000
1811.243477	2906.666667
1812.212288	2873.333333
1813.180747	2929.666667
1814.148855	2932.000000
1815.116610	2873.666667
1816.084013	2837.666667
1817.051065	2870.000000
1818.017766	2926.000000
1818.984115	2864.333333
1819.950113	2862.666667
1820.915760	2873.000000
1821.881057	2826.000000
1822.846003	2826.333333
1823.810598	2843.000000
1824.774843	2821.333333
1825.738738	2840.000000
1826.702283	2763.000000
1827.665479	2787.333333
1828.628324	2809.666667
1829.590821	2776.000000
1830.552968	2792.666667
1831.514765	2786.000000
1832.476214	2784.000000
1833.437314	2790.333333
1834.398066	2744.333333
1835.358469	2763.333333
1836.318524	2734.333333
1837.278230	2742.666667
1838.237589	2728.333333
1839.196600	2757.333333
1840.155263	2778.333333
1841.113578	2756.666667
1842.071547	2764.666667
1843.029168	2727.333333
1843.986442	2750.333333
1844.943369	2772.666667
1845.899950	2786.666667
1846.856184	2747.666667
1847.812072	2785.000000
1848.767614	2777.000000
1849.722809	2756.666667
1850.677659	2774.666667
1851.632163	2774.000000
1852.586322	2755.000000
1853.540135	2733.333333
1854.493603	2723.666667
1855.446726	2738.666667
1856.399504	2748.666667
1857.351937	2764.000000
1858.304026	2697.333333
1859.255770	2692.000000
1860.207170	2710.666667
1861.158227	2706.666667
1862.108939	2674.000000
1863.059307	2695.000000
1864.009332	2661.333333
1864.959013	2634.666667
1865.908351	2670.000000
1866.857346	2647.333333
1867.805998	2588.666667
1868.754307	2628.333333
1869.702274	2612.666667
1870.649898	2633.666667
1871.597180	2622.000000
1872.544119	2585.666667
1873.490717	2562.666667
1874.436973	2572.666667
1875.382887	2563.000000
1876.328459	2584.000000
1877.273691	2578.000000
1878.218581	2522.000000
1879.163130	2564.333333
1880.107338	2544.333333
1881.051205	2540.666667
1881.994732	2576.666667
1882.937919	2533.666667
1883.880765	2570.000000
1884.823271	2532.000000
1885.765437	2578.666667
1886.707264	2587.000000
1887.648750	2558.666667
1888.589898	2575.666667
1889.530706	2576.333333
1890.471175	2553.666667
1891.411305	2602.000000
1892.351096	2521.666667
1893.290548	2578.666667
1894.229662	2573.000000
1895.168438	2605.666667
1896.106876	2558.666667
1897.044975	2550.666667
1897.982737	2581.666667
1898.920160	2524.000000
1899.857247	2530.000000
1900.793996	2532.000000
1901.730407	2544.000000
1902.666482	2532.666667
1903.602219	2527.000000
1904.537620	2520.333333
1905.472685	2505.333333
1906.407412	2479.333333
1907.341804	2481.000000
1908.275859	2427.666667
1909.209579	2461.000000
1910.142962	2463.666667
1911.076010	2418.000000
1912.008722	2437.000000
1912.941099	2392.333333
1913.873141	2402.333333
1914.804848	2393.000000
1915.736219	2410.333333
1916.667256	2364.666667
1917.597959	2375.666667
1918.528327	2347.666667
1919.458360	2368.000000
1920.388060	2366.333333
1921.317426	2363.666667
1922.246457	2364.333333
1923.175156	2354.333333
1924.103520	2353.333333
1925.031552	2355.000000
1925.959250	2376.000000
1926.886615	2388.666667
1927.813647	2408.333333
1928.740346	2358.000000
1929.666713	2376.666667
1930.592748	2379.000000
1931.518450	2399.333333
1932.443820	2356.666667
1933.368858	2326.333333
1934.293564	2363.333333
1935.217939	2382.000000
1936.141982	2349.333333
1937.065694	2342.333333
1937.989074	2349.666667
1938.912124	2337.000000
1939.834842	2331.666667
1940.757230	2322.333333
1941.679287	2295.000000
1942.601014	2294.333333
1943.522411	2316.000000
1944.443477	2300.333333
1945.364214	2293.666667
1946.284621	2312.666667
1947.204698	2255.333333
1948.124445	2274.333333
1949.043863	2250.333333
1949.962952	2271.333333
1950.881712	2284.000000
1951.800143	2250.333333
1952.718245	2209.333333
1953.636019	2208.666667
1954.553464	2240.666667
1955.470581	2263.333333
1956.387369	2196.000000
1957.303830	2207.333333
1958.219963	2200.666667
1959.135768	2188.000000
1960.051246	2223.333333
1960.966396	2179.666667
1961.881219	2197.666667
1962.795715	2206.333333
1963.709883	2230.333333
1964.623726	2255.000000
1965.537241	2186.000000
1966.450430	2207.666667
1967.363293	2240.333333
1968.275829	2211.333333
1969.188040	2183.333333
1970.099924	2201.000000
1971.011483	2201.000000
1971.922716	2164.666667
1972.833624	2226.666667
1973.744206	2195.000000
1974.654464	2225.666667
1975.564396	2205.333333
1976.474004	2186.666667
1977.383286	2210.000000
1978.292245	2225.666667
1979.200878	2197.333333
1980.109188	2217.666667
1981.017174	2165.666667
1981.924835	2153.000000
1982.832173	2208.000000
1983.739187	2207.333333
1984.645878	2130.666667
1985.552245	2146.666667
1986.458289	2156.666667
1987.364010	2152.666667
1988.269408	2103.333333
1989.174484	2122.666667
1990.079236	2088.333333
1990.983667	2102.333333
1991.887775	2099.000000
1992.791561	2061.000000
1993.695024	2077.666667
1994.598166	2060.000000
1995.500986	2071.333333
1996.403485	2060.333333
1997.305662	2100.666667
1998.207518	2067.666667
1999.109053	2060.000000
