200.151048	16582.666667
201.758777	16422.666667
203.365815	16519.333333
204.972162	16493.333333
206.577820	16535.666667
208.182787	16390.000000
209.787065	16266.666667
211.390653	16418.666667
212.993553	16234.666667
214.595765	16192.666667
216.197289	16070.333333
217.798125	16207.666667
219.398274	16152.000000
220.997737	16113.666667
222.596513	16041.333333
224.194603	16024.333333
225.792008	15982.000000
227.388728	15956.666667
228.984763	15945.000000
230.580114	15958.666667
232.174781	15921.333333
233.768765	15896.333333
235.362065	15832.333333
236.954683	15846.666667
238.546619	15768.666667
240.137872	15794.000000
241.728445	15630.000000
243.318336	15725.000000
244.907546	15744.333333
246.496076	15468.000000
248.083926	15446.666667
249.671097	15567.333333
251.257589	15414.000000
252.843402	15417.333333
254.428536	15373.666667
256.012993	15355.666667
257.596772	15270.333333
259.179874	15279.333333
260.762300	15279.666667
262.344049	15135.666667
263.925122	15162.333333
265.505519	15090.333333
267.085241	15103.666667
268.664289	15130.333333
270.242662	15040.666667
271.820361	15072.000000
273.397387	15030.333333
274.973740	15141.666667
276.549419	15011.333333
278.124426	15067.333333
279.698762	14982.666667
281.272425	15004.666667
282.845417	14997.000000
284.417739	14978.000000
285.989390	15046.666667
287.560371	14951.000000
289.130682	15065.666667
290.700324	15080.666667
292.269297	15054.666667
293.837602	14996.000000
295.405238	14978.333333
296.972207	14884.333333
298.538508	14870.666667
300.104142	14821.666667
301.669110	14815.333333
303.233411	14867.666667
304.797047	14723.333333
306.360017	14747.666667
307.922322	14581.666667
309.483963	14567.333333
311.044939	14546.666667
312.605252	14482.000000
314.164900	14482.333333
315.723886	14477.333333
317.282209	14421.333333
318.839870	14307.000000
320.396868	14235.333333
321.953205	14177.666667
323.508881	14210.000000
325.063896	14106.333333
326.618251	14080.333333
328.171945	14115.000000
329.724980	14104.000000
331.277356	14065.666667
332.829072	14107.333333
334.380131	14032.666667
335.930530	13915.000000
337.480273	14070.666667
339.029357	13999.000000
340.577785	13985.333333
342.125556	14005.666667
343.672671	13972.333333
345.219130	13916.666667
346.764933	13947.000000
348.310081	13877.333333
349.854575	13853.333333
351.398414	13897.000000
352.941599	13910.333333
354.484130	13782.000000
356.026008	13692.666667
357.567234	13756.666667
359.107807	13859.333333
360.647727	13647.666667
362.186996	13634.666667
363.725614	13637.333333
365.263580	13549.666667
366.800896	13611.666667
368.337562	13566.333333
369.873578	13547.666667
371.408944	13575.333333
372.943661	13629.000000
374.477730	13548.333333
376.011150	13592.000000
377.543922	13655.000000
379.076046	13653.333333
380.607523	13567.666667
382.138353	13708.000000
383.668537	13625.666667
385.198075	13710.333333
386.726966	13715.333333
388.255213	13621.000000
389.782814	13720.666667
391.309770	13699.666667
392.836083	13704.000000
394.361751	13705.000000
395.886776	13761.666667
397.411157	13705.333333
398.934896	13744.333333
400.457992	13749.333333
401.980446	13779.000000
403.502258	13894.333333
405.023429	13881.000000
406.543959	13815.333333
408.063849	13948.666667
409.583098	13971.333333
411.101707	13935.666667
412.619677	14041.333333
414.137007	14154.333333
415.653699	14218.666667
417.169752	14355.333333
418.685167	14394.666667
420.199945	14618.333333
421.714085	14731.333333
423.227588	14821.333333
424.740454	14911.333333
426.252684	15064.333333
427.764279	15238.333333
429.275238	15118.333333
430.785561	14990.000000
432.295250	15053.333333
433.804304	14763.333333
435.312725	14796.666667
436.820511	14693.333333
438.327664	14467.666667
439.834185	14445.666667
441.340072	14417.333333
442.845327	14322.333333
444.349951	14282.666667
445.853942	14263.333333
447.357303	14180.666667
448.860033	14005.666667
450.362132	14057.666667
451.863601	14062.333333
453.364440	13811.666667
454.864650	13778.333333
456.364231	13695.666667
457.863183	13521.666667
459.361507	13419.666667
460.859203	13370.666667
462.356271	13342.000000
463.852712	13135.333333
465.348526	13092.333333
466.843714	13147.333333
468.338275	13027.333333
469.832210	13010.000000
471.325520	12963.666667
472.818205	12880.333333
474.310265	12777.666667
475.801700	12720.333333
477.292512	12764.666667
478.782700	12675.333333
480.272264	12702.666667
481.761205	12685.333333
483.249524	12679.666667
484.737221	12577.000000
486.224295	12546.666667
487.710748	12574.000000
489.196579	12411.666667
490.681790	12485.666667
492.166380	12480.666667
493.650350	12444.333333
495.133700	12409.666667
496.616431	12371.333333
498.098542	12401.333333
499.580035	12408.333333
501.060909	12361.000000
502.541165	12384.666667
504.020804	12364.000000
505.499825	12313.000000
506.978228	12341.666667
508.456016	12316.666667
509.933186	12331.333333
511.409741	12255.333333
512.885680	12277.000000
514.361004	12165.000000
515.835713	12232.333333
517.309807	12288.333333
518.783287	12265.000000
520.256153	12315.000000
521.728406	12247.333333
523.200045	12218.666667
524.671071	12240.666667
526.141485	12252.333333
527.611287	12316.000000
529.080476	12168.666667
530.549054	12222.333333
532.017021	12209.333333
533.484378	12194.333333
534.951123	12141.666667
536.417259	12323.666667
537.882785	12132.000000
539.347701	12327.666667
540.812008	12157.000000
542.275707	12203.000000
543.738797	12204.666667
545.201279	12155.666667
546.663153	12178.666667
548.124420	12144.000000
549.585080	12178.333333
551.045133	12173.666667
552.504579	12102.000000
553.963420	12277.333333
555.421655	12289.000000
556.879285	12254.333333
558.336309	12282.666667
559.792729	12305.333333
561.248545	12303.666667
562.703756	12368.333333
564.158364	12387.000000
565.612369	12509.666667
567.065770	12496.333333
568.518569	12535.666667
569.970766	12527.666667
571.422361	12612.000000
572.873354	12860.666667
574.323745	12817.000000
575.773536	12961.000000
577.222726	13007.666667
578.671316	12929.000000
580.119306	13023.333333
581.566696	13016.333333
583.013487	13002.000000
584.459679	13029.333333
585.905273	12926.000000
587.350268	12865.666667
588.794665	13023.666667
590.238465	12970.666667
591.681667	12827.333333
593.124272	12802.000000
594.566281	12739.000000
596.007694	12584.333333
597.448510	12491.000000
598.888731	12317.000000
600.328357	12216.000000
601.767388	12169.333333
603.205824	12082.666667
604.643666	12139.333333
606.080914	12136.666667
607.517568	12034.666667
608.953629	12126.666667
610.389097	12000.666667
611.823972	11893.666667
613.258255	11967.666667
614.691946	11947.333333
616.125046	11945.333333
617.557554	11715.000000
618.989471	11640.000000
620.420798	11658.333333
621.851534	11630.000000
623.281680	11472.666667
624.711237	11352.000000
626.140204	11315.333333
627.568582	11389.666667
628.996372	11253.333333
630.423573	11221.333333
631.850186	11205.333333
633.276211	11192.000000
634.701650	11061.333333
636.126501	11047.000000
637.550765	11162.333333
638.974443	11090.333333
640.397535	11131.333333
641.820041	11056.666667
643.241961	11178.666667
644.663297	11079.333333
646.084048	11085.000000
647.504214	10974.000000
648.923796	11001.333333
650.342795	10984.333333
651.761210	11021.666667
653.179041	10922.333333
654.596290	10924.333333
656.012957	11006.666667
657.429041	11061.000000
658.844543	10966.333333
660.259464	10861.666667
661.673804	10880.000000
663.087563	10817.000000
664.500741	10924.000000
665.913339	10887.000000
667.325357	10930.333333
668.736795	10928.000000
670.147654	10872.666667
671.557934	10885.000000
672.967636	10844.333333
674.376759	10954.000000
675.785304	10812.000000
677.193271	10782.333333
678.600661	10750.000000
680.007474	10818.000000
681.413711	10746.000000
682.819370	10761.666667
684.224454	10749.333333
685.628962	10751.333333
687.032895	10781.666667
688.436252	10687.000000
689.839034	10758.333333
691.241242	10674.333333
692.642876	10776.000000
694.043936	10730.666667
695.444422	10602.333333
696.844336	10681.666667
698.243676	10656.666667
699.642443	10555.666667
701.040639	10656.333333
702.438262	10709.333333
703.835313	10635.666667
705.231794	10638.333333
706.627703	10669.000000
708.023041	10525.666667
709.417810	10635.666667
710.812008	10573.333333
712.205636	10550.000000
713.598694	10514.666667
714.991184	10557.666667
716.383105	10589.666667
717.774457	10509.333333
719.165241	10544.333333
720.555457	10563.666667
721.945105	10516.000000
723.334187	10445.000000
724.722701	10521.000000
726.110648	10490.666667
727.498030	10569.333333
728.884845	10363.666667
730.271094	10437.000000
731.656778	10487.333333
733.041897	10395.000000
734.426451	10523.666667
735.810441	10360.666667
737.193866	10380.000000
738.576728	10383.333333
739.959026	10377.333333
741.340760	10378.333333
742.721932	10424.333333
744.102541	10313.000000
745.482588	10368.000000
746.862073	10431.000000
748.240996	10304.000000
749.619358	10400.666667
750.997158	10347.666667
752.374398	10397.666667
753.751077	10365.666667
755.127197	10309.000000
756.502756	10346.333333
757.877756	10288.000000
759.252196	10306.000000
760.626078	10328.333333
761.999400	10282.333333
763.372165	10227.333333
764.744371	10259.666667
766.116020	10251.000000
767.487111	10236.666667
768.857646	10297.666667
770.227623	10093.333333
771.597044	10160.000000
772.965908	10139.333333
774.334217	10241.666667
775.701970	10201.666667
777.069168	10181.333333
778.435811	10045.333333
779.801899	10066.000000
781.167433	10080.000000
782.532412	10030.333333
783.896838	10033.333333
785.260710	9991.333333
786.624029	10006.666667
787.986796	9980.666667
789.349009	9914.666667
790.710671	9926.333333
792.071780	9942.333333
793.432338	9923.000000
794.792344	9915.666667
796.151799	9882.333333
797.510704	9887.000000
798.869058	9892.333333
800.226862	9849.000000
801.584116	9823.666667
802.940820	9798.333333
804.296975	9845.666667
805.652581	9919.000000
807.007638	9907.333333
808.362147	9973.666667
809.716108	9817.333333
811.069521	9981.666667
812.422387	9920.000000
813.774705	10029.000000
815.126476	9940.666667
816.477701	9920.333333
817.828380	9874.333333
819.178512	9879.000000
820.528099	9851.333333
821.877140	9754.666667
823.225637	9780.666667
824.573588	9861.000000
825.920995	9761.000000
827.267857	9691.666667
828.614176	9785.000000
829.959951	9783.000000
831.305183	9673.666667
832.649871	9723.333333
833.994017	9700.666667
835.337620	9691.000000
836.680681	9734.000000
838.023201	9764.666667
839.365178	9804.666667
840.706614	9775.666667
842.047510	9809.333333
843.387864	9851.666667
844.727678	9805.333333
846.066952	9877.000000
847.405687	9872.333333
848.743881	9896.000000
850.081537	9940.000000
851.418653	10022.666667
852.755231	10015.333333
854.091270	10007.666667
855.426771	10038.000000
856.761735	9936.333333
858.096160	9951.333333
859.430049	9820.333333
860.763401	9904.666667
862.096216	9870.333333
863.428495	9838.333333
864.760237	9810.333333
866.091444	9800.333333
867.422115	9795.333333
868.752252	9805.333333
870.081853	9837.666667
871.410919	9772.000000
872.739452	9782.333333
874.067450	9708.666667
875.394914	9714.333333
876.721845	9750.333333
878.048243	9698.666667
879.374108	9676.000000
880.699440	9610.000000
882.024240	9531.666667
883.348508	9600.000000
884.672244	9543.000000
885.995449	9554.666667
887.318122	9476.666667
888.640265	9434.666667
889.961877	9486.000000
891.282959	9412.333333
892.603510	9442.666667
893.923532	9413.333333
895.243024	9325.666667
896.561987	9291.333333
897.880422	9336.666667
899.198327	9354.000000
900.515705	9281.333333
901.832554	9367.333333
903.148875	9311.000000
904.464669	9276.666667
905.779936	9321.333333
907.094676	9331.000000
908.408889	9363.000000
909.722576	9285.333333
911.035737	9343.000000
912.348371	9410.666667
913.660481	9443.000000
914.972065	9484.000000
916.283124	9584.333333
917.593659	9540.000000
918.903669	9651.000000
920.213155	9609.333333
921.522117	9650.000000
922.830556	9554.000000
924.138471	9581.000000
925.445864	9634.666667
926.752733	9678.000000
928.059081	9628.000000
929.364906	9678.000000
930.670209	9678.333333
931.974991	9753.666667
933.279251	9840.333333
934.582990	9904.666667
935.886209	10110.000000
937.188907	10042.333333
938.491085	10223.666667
939.792743	10367.666667
941.093881	10574.000000
942.394500	10675.000000
943.694600	10948.666667
944.994181	11364.000000
946.293243	11575.333333
947.591787	12082.333333
948.889813	12537.000000
950.187322	12984.666667
951.484313	13611.333333
952.780787	14386.666667
954.076744	15211.333333
955.372184	15915.666667
956.667108	16538.000000
957.961516	16895.000000
959.255409	16956.333333
960.548785	16756.666667
961.841647	16286.666667
963.133993	15537.333333
964.425825	14734.000000
965.717142	13719.666667
967.007946	12943.000000
968.298235	12117.666667
969.588011	11515.666667
970.877273	10812.000000
972.166023	10420.000000
973.454259	10057.000000
974.741984	9661.666667
976.029196	9465.000000
977.315895	9263.333333
978.602084	9189.333333
979.887761	9015.666667
981.172926	8995.000000
982.457581	8885.666667
983.741725	8804.000000
985.025359	8801.666667
986.308483	8749.666667
987.591097	8740.666667
988.873202	8688.666667
990.154797	8687.000000
991.435883	8677.333333
992.716461	8694.000000
993.996530	8718.666667
995.276091	8626.666667
996.555144	8645.666667
997.833690	8688.000000
999.111728	8768.000000
1000.389259	8909.333333
1001.666283	8880.333333
1002.942800	8837.333333
1004.218812	8854.666667
1005.494317	8758.333333
1006.769317	8722.666667
1008.043811	8733.666667
1009.317799	8726.666667
1010.591283	8777.333333
1011.864263	8736.000000
1013.136737	8716.333333
1014.408708	8767.666667
1015.680175	8707.000000
1016.951138	8752.666667
1018.221598	8785.666667
1019.491554	8718.666667
1020.761008	8726.333333
1022.029959	8756.000000
1023.298408	8856.000000
1024.566355	8798.000000
1025.833800	8946.000000
1027.100744	8889.333333
1028.367187	8908.333333
1029.633128	8911.000000
1030.898569	8842.000000
1032.163509	8952.000000
1033.427949	8852.333333
1034.691890	8909.666667
1035.955330	8916.333333
1037.218271	8920.000000
1038.480714	8945.333333
1039.742657	8984.333333
1041.004101	8922.666667
1042.265048	8955.666667
1043.525496	8979.333333
1044.785446	8958.666667
1046.044899	8858.666667
1047.303855	8903.666667
1048.562313	8805.666667
1049.820275	8872.000000
1051.077740	8821.333333
1052.334709	8764.333333
1053.591182	8785.666667
1054.847160	8775.000000
1056.102641	8814.666667
1057.357628	8758.000000
1058.612120	8834.333333
1059.866117	8876.666667
1061.119619	8829.000000
1062.372628	8987.333333
1063.625142	8975.333333
1064.877163	9032.333333
1066.128691	9072.000000
1067.379725	9021.000000
1068.630267	9092.333333
1069.880316	9009.666667
1071.129872	9035.666667
1072.378937	8962.666667
1073.627509	8893.666667
1074.875590	8814.666667
1076.123180	8786.333333
1077.370279	8640.666667
1078.616887	8552.333333
1079.863004	8478.666667
1081.108631	8459.333333
1082.353768	8422.666667
1083.598415	8279.000000
1084.842573	8176.000000
1086.086241	8197.000000
1087.329421	8106.000000
1088.572111	8022.666667
1089.814314	8047.000000
1091.056028	7994.000000
1092.297253	8001.333333
1093.537992	7926.666667
1094.778242	7884.333333
1096.018006	7916.666667
1097.257282	7857.333333
1098.496072	7827.666667
1099.734376	7805.000000
1100.972193	7862.333333
1102.209524	7820.666667
1103.446370	7777.666667
1104.682730	7733.666667
1105.918604	7746.000000
1107.153994	7738.666667
1108.388900	7690.666667
1109.623320	7582.333333
1110.857257	7639.000000
1112.090710	7621.333333
1113.323679	7570.000000
1114.556164	7486.333333
1115.788167	7566.333333
1117.019686	7500.666667
1118.250723	7486.333333
1119.481278	7475.333333
1120.711350	7378.333333
1121.940940	7424.333333
1123.170049	7423.666667
1124.398676	7427.333333
1125.626823	7339.000000
1126.854488	7382.333333
1128.081672	7403.666667
1129.308376	7301.666667
1130.534600	7331.000000
1131.760345	7278.666667
1132.985609	7296.666667
1134.210394	7326.000000
1135.434700	7256.333333
1136.658527	7277.333333
1137.881875	7212.333333
1139.104745	7227.333333
1140.327136	7291.000000
1141.549050	7216.000000
1142.770486	7245.333333
1143.991445	7255.000000
1145.211926	7211.666667
1146.431931	7248.666667
1147.651459	7302.666667
1148.870510	7270.333333
1150.089086	7219.000000
1151.307185	7196.666667
1152.524808	7271.333333
1153.741957	7254.666667
1154.958630	7156.333333
1156.174828	7193.666667
1157.390551	7162.000000
1158.605800	7209.333333
1159.820574	7262.333333
1161.034875	7235.666667
1162.248702	7236.000000
1163.462055	7201.333333
1164.674936	7138.000000
1165.887343	7183.666667
1167.099277	7112.333333
1168.310739	7134.333333
1169.521729	7154.333333
1170.732247	7137.666667
1171.942293	7143.000000
1173.151867	7207.000000
1174.360970	7058.000000
1175.569602	7170.333333
1176.777764	7095.333333
1177.985454	7119.000000
1179.192675	7146.666667
1180.399425	7107.000000
1181.605706	7094.333333
1182.811517	7077.666667
1184.016859	7038.000000
1185.221731	6972.333333
1186.426135	7001.000000
1187.630070	6986.000000
1188.833537	7036.000000
1190.036535	7017.666667
1191.239066	6950.000000
1192.441129	6942.000000
1193.642725	7007.000000
1194.843853	6891.666667
1196.044515	6906.000000
1197.244710	6912.000000
1198.444438	6897.000000
1199.643701	6963.000000
1200.842497	6884.666667
1202.040827	6898.666667
1203.238693	6865.000000
1204.436092	6942.000000
1205.633027	6904.666667
1206.829497	6848.666667
1208.025503	6924.333333
1209.221044	6798.666667
1210.416122	6844.000000
1211.610735	6823.333333
1212.804885	6834.666667
1213.998572	6818.000000
1215.191795	6804.666667
1216.384556	6788.000000
1217.576854	6811.333333
1218.768689	6761.666667
1219.960063	6740.000000
1221.150974	6751.333333
1222.341424	6742.000000
1223.531413	6832.333333
1224.720940	6741.666667
1225.910006	6853.666667
1227.098612	6812.333333
1228.286757	6868.000000
1229.474442	6853.666667
1230.661667	6884.333333
1231.848432	6825.333333
1233.034738	6926.666667
1234.220584	6933.666667
1235.405971	6982.333333
1236.590900	6926.000000
1237.775369	7007.000000
1238.959381	7096.666667
1240.142934	7095.000000
1241.326029	7007.000000
1242.508667	7059.000000
1243.690848	6999.000000
1244.872571	7056.000000
1246.053837	7041.333333
1247.234646	7049.000000
1248.414999	7039.666667
1249.594896	6978.333333
1250.774337	6972.000000
1251.953322	7029.333333
1253.131851	6938.333333
1254.309925	6955.000000
1255.487544	6972.666667
1256.664708	6913.666667
1257.841417	6918.000000
1259.017673	6881.666667
1260.193473	6906.333333
1261.368820	6852.333333
1262.543714	6859.333333
1263.718154	6912.666667
1264.892140	6887.666667
1266.065674	6905.000000
1267.238755	6852.333333
1268.411383	6922.666667
1269.583559	6790.666667
1270.755283	6837.666667
1271.926555	6856.666667
1273.097375	6877.666667
1274.267744	6881.666667
1275.437662	6824.333333
1276.607129	6829.333333
1277.776145	6854.000000
1278.944711	6799.666667
1280.112827	6803.333333
1281.280492	6817.666667
1282.447708	6767.666667
1283.614474	6708.666667
1284.780791	6638.333333
1285.946659	6721.333333
1287.112078	6600.000000
1288.277048	6676.000000
1289.441570	6576.333333
1290.605644	6484.000000
1291.769270	6530.666667
1292.932448	6609.333333
1294.095178	6462.000000
1295.257461	6529.666667
1296.419298	6436.666667
1297.580687	6439.333333
1298.741630	6354.333333
1299.902126	6408.333333
1301.062177	6408.666667
1302.221781	6370.333333
1303.380940	6373.000000
1304.539653	6363.000000
1305.697921	6358.333333
1306.855744	6324.000000
1308.013123	6372.000000
1309.170056	6390.000000
1310.326546	6308.666667
1311.482591	6377.666667
1312.638193	6384.333333
1313.793350	6358.666667
1314.948065	6400.000000
1316.102336	6374.000000
1317.256164	6385.666667
1318.409550	6396.666667
1319.562493	6384.000000
1320.714993	6358.666667
1321.867052	6367.000000
1323.018668	6276.666667
1324.169843	6349.666667
1325.320577	6251.000000
1326.470870	6295.000000
1327.620721	6226.000000
1328.770132	6186.000000
1329.919102	6146.666667
1331.067632	6222.333333
1332.215722	6115.666667
1333.363372	6144.666667
1334.510582	6198.666667
1335.657353	6174.333333
1336.803685	6111.000000
1337.949578	6150.333333
1339.095032	6143.666667
1340.240048	6198.666667
1341.384625	6202.333333
1342.528764	6122.000000
1343.672466	6074.333333
1344.815729	6110.333333
1345.958556	6116.000000
1347.100945	6076.000000
1348.242897	6134.000000
1349.384413	6042.333333
1350.525492	6030.333333
1351.666134	6065.333333
1352.806341	5996.000000
1353.946111	6005.000000
1355.085446	6023.000000
1356.224346	5965.000000
1357.362810	5931.666667
1358.500840	5960.666667
1359.638434	5968.333333
1360.775594	5954.333333
1361.912320	5882.333333
1363.048612	5828.000000
1364.184469	5950.333333
1365.319893	5850.333333
1366.454884	5864.000000
1367.589441	5904.333333
1368.723566	5909.333333
1369.857257	5939.000000
1370.990516	5929.000000
1372.123343	5879.666667
1373.255737	5906.333333
1374.387699	5856.666667
1375.519230	5869.666667
1376.650329	5912.333333
1377.780997	5907.333333
1378.911234	5932.666667
1380.041040	5949.333333
1381.170416	5977.000000
1382.299361	5895.000000
1383.427875	5810.666667
1384.555960	5939.333333
1385.683615	5918.333333
1386.810841	5862.666667
1387.937637	5862.333333
1389.064004	5873.666667
1390.189942	5842.000000
1391.315451	5857.666667
1392.440532	5849.000000
1393.565185	5885.333333
1394.689409	5831.333333
1395.813206	5863.666667
1396.936575	5833.666667
1398.059517	5896.666667
1399.182032	5806.666667
1400.304119	5834.000000
1401.425780	5823.000000
1402.547014	5747.333333
1403.667822	5766.666667
1404.788204	5767.000000
1405.908160	5747.000000
1407.027690	5763.000000
1408.146795	5730.333333
1409.265474	5765.666667
1410.383728	5799.666667
1411.501558	5760.000000
1412.618963	5785.333333
1413.735943	5797.000000
1414.852499	5804.666667
1415.968632	5753.333333
1417.084340	5813.000000
1418.199625	5884.666667
1419.314486	5833.000000
1420.428925	5802.333333
1421.542940	5795.333333
1422.656533	5766.000000
1423.769703	5791.333333
1424.882451	5759.333333
1425.994777	5866.333333
1427.106680	5821.000000
1428.218163	5730.333333
1429.329223	5778.000000
1430.439863	5727.666667
1431.550081	5700.333333
1432.659879	5711.333333
1433.769256	5700.666667
1434.878212	5731.666667
1435.986749	5697.000000
1437.094865	5664.000000
1438.202562	5685.333333
1439.309839	5780.000000
1440.416696	5729.000000
1441.523135	5773.666667
1442.629154	5828.333333
1443.734755	5891.333333
1444.839937	5874.666667
1445.944701	5916.000000
1447.049047	5891.000000
1448.152975	5910.000000
1449.256485	5865.000000
1450.359577	5902.333333
1451.462253	5821.000000
1452.564511	5857.666667
1453.666352	5859.333333
1454.767777	5839.000000
1455.868785	5758.666667
1456.969377	5722.333333
1458.069553	5728.333333
1459.169313	5730.666667
1460.268658	5718.666667
1461.367587	5747.333333
1462.466101	5663.333333
1463.564200	5631.000000
1464.661884	5640.000000
1465.759153	5595.666667
1466.856008	5555.666667
1467.952449	5540.666667
1469.048476	5528.666667
1470.144089	5440.000000
1471.239288	5381.000000
1472.334074	5411.666667
1473.428447	5287.000000
1474.522407	5262.000000
1475.615955	5238.333333
1476.709089	5173.666667
1477.801812	5237.333333
1478.894122	5143.666667
1479.986020	5118.000000
1481.077506	5182.666667
1482.168581	5061.666667
1483.259245	5065.666667
1484.349498	5122.000000
1485.439339	5061.666667
1486.528770	5102.000000
1487.617790	5034.000000
1488.706400	5016.000000
1489.794600	4977.000000
1490.882390	4964.333333
1491.969771	5009.333333
1493.056742	4980.000000
1494.143303	5043.000000
1495.229456	4947.000000
1496.315199	4979.666667
1497.400534	4949.666667
1498.485460	4990.333333
1499.569978	4976.666667
1500.654088	4944.666667
1501.737790	4900.333333
1502.821085	4892.666667
1503.903972	4937.000000
1504.986451	4859.666667
1506.068524	4922.666667
1507.150189	4866.666667
1508.231448	4910.333333
1509.312301	4838.333333
1510.392747	4807.666667
1511.472787	4822.333333
1512.552422	4824.333333
1513.631650	4809.000000
1514.710473	4817.000000
1515.788891	4768.333333
1516.866904	4818.000000
1517.944512	4722.000000
1519.021715	4729.333333
1520.098513	4721.000000
1521.174908	4767.666667
1522.250898	4772.000000
1523.326485	4707.666667
1524.401667	4737.333333
1525.476447	4706.000000
1526.550823	4748.000000
1527.624796	4713.333333
1528.698365	4731.000000
1529.771533	4743.333333
1530.844298	4743.000000
1531.916660	4748.000000
1532.988620	4715.000000
1534.060179	4747.000000
1535.131336	4740.000000
1536.202091	4723.000000
1537.272445	4739.333333
1538.342398	4700.666667
1539.411950	4704.333333
1540.481101	4699.333333
1541.549851	4665.333333
1542.618202	4646.333333
1543.686152	4649.333333
1544.753702	4679.666667
1545.820853	4598.666667
1546.887604	4675.000000
1547.953955	4621.000000
1549.019908	4636.666667
1550.085461	4652.333333
1551.150616	4621.666667
1552.215372	4635.666667
1553.279730	4599.333333
1554.343690	4606.000000
1555.407252	4579.666667
1556.470415	4580.333333
1557.533182	4556.000000
1558.595551	4475.666667
1559.657522	4509.666667
1560.719097	4533.333333
1561.780275	4476.000000
1562.841056	4534.333333
1563.901441	4519.666667
1564.961429	4536.000000
1566.021022	4531.000000
1567.080219	4492.333333
1568.139020	4527.666667
1569.197425	4517.333333
1570.255436	4513.000000
1571.313051	4499.333333
1572.370271	4527.333333
1573.427097	4543.000000
1574.483528	4475.666667
1575.539565	4516.000000
1576.595208	4466.666667
1577.650457	4478.333333
1578.705312	4474.666667
1579.759774	4499.666667
1580.813842	4438.333333
1581.867517	4448.000000
1582.920799	4457.666667
1583.973689	4460.666667
1585.026186	4475.000000
1586.078290	4414.333333
1587.130002	4408.333333
1588.181323	4383.000000
1589.232251	4412.666667
1590.282788	4340.333333
1591.332933	4351.000000
1592.382688	4380.000000
1593.432051	4356.000000
1594.481023	4315.000000
1595.529605	4364.666667
1596.577796	4328.333333
1597.625597	4318.333333
1598.673007	4356.333333
1599.720028	4340.666667
1600.766660	4399.333333
1601.812901	4394.666667
1602.858753	4397.666667
1603.904217	4430.333333
1604.949291	4387.333333
1605.993976	4331.333333
1607.038273	4409.000000
1608.082182	4367.333333
1609.125702	4378.666667
1610.168834	4397.333333
1611.211579	4350.666667
1612.253935	4395.333333
1613.295905	4307.000000
1614.337487	4352.333333
1615.378682	4315.666667
1616.419490	4372.333333
1617.459912	4335.000000
1618.499946	4378.666667
1619.539595	4380.000000
1620.578858	4358.000000
1621.617734	4375.333333
1622.656225	4375.333333
1623.694330	4362.000000
1624.732050	4349.666667
1625.769385	4377.000000
1626.806334	4308.000000
1627.842899	4350.333333
1628.879079	4339.000000
1629.914875	4319.666667
1630.950286	4312.333333
1631.985314	4316.000000
1633.019957	4315.333333
1634.054217	4334.333333
1635.088093	4259.333333
1636.121586	4290.000000
1637.154696	4307.333333
1638.187423	4275.666667
1639.219767	4266.666667
1640.251728	4280.333333
1641.283307	4315.000000
1642.314504	4252.666667
1643.345319	4348.333333
1644.375751	4315.666667
1645.405803	4302.666667
1646.435472	4322.000000
1647.464761	4265.000000
1648.493668	4319.666667
1649.522194	4284.333333
1650.550340	4299.666667
1651.578105	4359.666667
1652.605490	4332.333333
1653.632494	4384.333333
1654.659119	4343.333333
1655.685363	4311.666667
1656.711228	4299.333333
1657.736714	4343.666667
1658.761820	4303.000000
1659.786547	4303.000000
1660.810895	4262.000000
1661.834865	4270.000000
1662.858456	4282.666667
1663.881668	4248.333333
1664.904503	4244.333333
1665.926959	4218.666667
1666.949038	4183.000000
1667.970739	4227.666667
1668.992062	4180.000000
1670.013008	4181.333333
1671.033577	4180.333333
1672.053770	4195.000000
1673.073585	4068.333333
1674.093024	4102.666667
1675.112086	4111.333333
1676.130773	4077.333333
1677.149083	4059.666667
1678.167017	4075.666667
1679.184576	4070.000000
1680.201760	4061.000000
1681.218568	4010.000000
1682.235001	4035.666667
1683.251059	3975.333333
1684.266742	3994.333333
1685.282051	3965.000000
1686.296985	3962.333333
1687.311546	3911.666667
1688.325732	3958.666667
1689.339544	3914.333333
1690.352983	3905.000000
1691.366048	3864.333333
1692.378740	3928.000000
1693.391058	3840.333333
1694.403004	3756.333333
1695.414577	3755.666667
1696.425778	3801.333333
1697.436606	3805.666667
1698.447061	3747.666667
1699.457145	3740.000000
1700.466857	3745.000000
1701.476197	3718.000000
1702.485166	3712.666667
1703.493763	3679.000000
1704.501989	3697.333333
1705.509844	3654.000000
1706.517328	3634.000000
1707.524442	3615.333333
1708.531185	3593.000000
1709.537558	3654.666667
1710.543561	3602.333333
1711.549194	3581.333333
1712.554457	3560.666667
1713.559351	3528.333333
1714.563875	3531.666667
1715.568030	3559.000000
1716.571816	3541.666667
1717.575233	3563.333333
1718.578282	3560.666667
1719.580962	3539.666667
1720.583273	3498.000000
1721.585217	3512.666667
1722.586792	3586.000000
1723.588000	3532.000000
1724.588840	3530.000000
1725.589312	3536.333333
1726.589418	3547.333333
1727.589156	3581.666667
1728.588527	3503.000000
1729.587532	3548.000000
1730.586170	3512.333333
1731.584441	3558.333333
1732.582346	3489.333333
1733.579886	3537.000000
1734.577059	3514.666667
1735.573867	3503.666667
1736.570309	3522.000000
1737.566386	3523.000000
1738.562097	3511.666667
1739.557444	3492.000000
1740.552426	3486.333333
1741.547043	3452.333333
1742.541295	3418.333333
1743.535184	3442.000000
1744.528708	3405.333333
1745.521868	3410.000000
1746.514664	3428.333333
1747.507097	3392.000000
1748.499166	3353.000000
1749.490873	3362.333333
1750.482216	3360.000000
1751.473196	3396.666667
1752.463813	3343.000000
1753.454068	3360.000000
1754.443960	3335.333333
1755.433490	3325.000000
1756.422658	3274.000000
1757.411464	3335.666667
1758.399908	3335.333333
1759.387991	3337.000000
1760.375713	3270.333333
1761.363073	3262.333333
1762.350072	3291.333333
1763.336711	3257.333333
1764.322988	3321.666667
1765.308905	3279.666667
1766.294462	3306.000000
1767.279659	3279.666667
1768.264496	3261.333333
1769.248972	3281.666667
1770.233089	3255.666667
1771.216847	3273.666667
1772.200245	3221.333333
1773.183284	3263.333333
1774.165965	3201.333333
1775.148286	3231.666667
1776.130249	3255.666667
1777.111853	3246.666667
1778.093099	3239.666667
1779.073987	3205.666667
1780.054517	3247.666667
1781.034689	3175.666667
1782.014503	3142.666667
1782.993960	3198.666667
1783.973060	3156.666667
1784.951802	3120.000000
1785.930188	3128.333333
1786.908217	3155.333333
1787.885889	3134.000000
1788.863205	3095.666667
1789.840164	3105.000000
1790.816768	3083.000000
1791.793015	3071.000000
1792.768907	3054.333333
1793.744443	3099.666667
1794.719624	3012.000000
1795.694449	3036.000000
1796.668919	3033.000000
1797.643035	3035.666667
1798.616795	3027.000000
1799.590201	3015.000000
1800.563253	3059.333333
1801.535950	3003.000000
1802.508294	3070.333333
1803.480283	3061.333333
1804.451919	3054.666667
1805.423201	2998.666667
1806.394129	3053.000000
1807.364705	3034.666667
1808.334927	3007.333333
1809.304796	2975.666667
1810.274313	3039.000000
1811.243477	3031.666667
1812.212288	3034.333333
1813.180747	3005.666667
1814.148855	3047.666667
1815.116610	3033.000000
1816.084013	2984.666667
1817.051065	3003.333333
1818.017766	3048.000000
1818.984115	2978.000000
1819.950113	3032.333333
1820.915760	3032.666667
1821.881057	2997.666667
1822.846003	3016.333333
1823.810598	2992.333333
1824.774843	2970.000000
1825.738738	2945.333333
1826.702283	2959.000000
1827.665479	2939.000000
1828.628324	2939.666667
1829.590821	2980.000000
1830.552968	2970.666667
1831.514765	2904.000000
1832.476214	2931.666667
1833.437314	2929.666667
1834.398066	2898.666667
1835.358469	2855.666667
1836.318524	2952.333333
1837.278230	2895.666667
1838.237589	2860.000000
1839.196600	2887.666667
1840.155263	2843.666667
1841.113578	2871.666667
1842.071547	2863.333333
1843.029168	2839.333333
1843.986442	2855.666667
1844.943369	2838.333333
1845.899950	2869.666667
1846.856184	2893.000000
1847.812072	2886.666667
1848.767614	2884.666667
1849.722809	2872.000000
1850.677659	2898.000000
1851.632163	2859.333333
1852.586322	2899.000000
1853.540135	2858.000000
1854.493603	2868.000000
1855.446726	2900.666667
1856.399504	2922.000000
1857.351937	2825.333333
1858.304026	2857.333333
1859.255770	2878.000000
1860.207170	2869.000000
1861.158227	2838.666667
1862.108939	2875.000000
1863.059307	2806.333333
1864.009332	2836.333333
1864.959013	2814.000000
1865.908351	2816.000000
1866.857346	2777.666667
1867.805998	2787.666667
1868.754307	2801.333333
1869.702274	2800.666667
1870.649898	2790.666667
1871.597180	2772.333333
1872.544119	2742.333333
1873.490717	2732.666667
1874.436973	2704.333333
1875.382887	2722.333333
1876.328459	2678.333333
1877.273691	2671.000000
1878.218581	2666.666667
1879.163130	2700.666667
1880.107338	2700.333333
1881.051205	2672.666667
1881.994732	2683.333333
1882.937919	2705.000000
1883.880765	2668.000000
1884.823271	2691.000000
1885.765437	2696.666667
1886.707264	2662.666667
1887.648750	2687.333333
1888.589898	2684.000000
1889.530706	2679.666667
1890.471175	2664.333333
1891.411305	2692.666667
1892.351096	2695.666667
1893.290548	2687.666667
1894.229662	2694.666667
1895.168438	2664.666667
1896.106876	2648.333333
1897.044975	2663.666667
1897.982737	2679.666667
1898.920160	2670.000000
1899.857247	2682.666667
1900.793996	2650.333333
1901.730407	2677.666667
1902.666482	2710.666667
1903.602219	2651.333333
1904.537620	2637.333333
1905.472685	2623.000000
1906.407412	2581.333333
1907.341804	2651.000000
1908.275859	2607.000000
1909.209579	2627.666667
1910.142962	2578.000000
1911.076010	2597.333333
1912.008722	2555.333333
1912.941099	2580.333333
1913.873141	2569.666667
1914.804848	2521.333333
1915.736219	2516.000000
1916.667256	2547.666667
1917.597959	2515.666667
1918.528327	2484.333333
1919.458360	2486.333333
1920.388060	2472.333333
1921.317426	2465.333333
1922.246457	2418.000000
1923.175156	2464.333333
1924.103520	2443.666667
1925.031552	2448.000000
1925.959250	2497.000000
1926.886615	2485.333333
1927.813647	2492.333333
1928.740346	2461.333333
1929.666713	2485.666667
1930.592748	2423.666667
1931.518450	2454.333333
1932.443820	2474.000000
1933.368858	2464.333333
1934.293564	2471.333333
1935.217939	2456.333333
1936.141982	2471.000000
1937.065694	2484.000000
1937.989074	2487.333333
1938.912124	2465.333333
1939.834842	2471.666667
1940.757230	2444.000000
1941.679287	2473.333333
1942.601014	2436.333333
1943.522411	2425.666667
1944.443477	2430.666667
1945.364214	2445.333333
1946.284621	2449.666667
1947.204698	2382.666667
1948.124445	2398.000000
1949.043863	2450.333333
1949.962952	2422.000000
1950.881712	2422.000000
1951.800143	2361.666667
1952.718245	2355.000000
1953.636019	2373.000000
1954.553464	2409.000000
1955.470581	2347.333333
1956.387369	2310.666667
1957.303830	2328.666667
1958.219963	2338.666667
1959.135768	2288.333333
1960.051246	2304.666667
1960.966396	2284.000000
1961.881219	2297.666667
1962.795715	2299.666667
1963.709883	2289.666667
1964.623726	2283.333333
1965.537241	2315.333333
1966.450430	2280.666667
1967.363293	2299.666667
1968.275829	2322.666667
1969.188040	2310.333333
1970.099924	2291.000000
1971.011483	2299.333333
1971.922716	2295.333333
1972.833624	2295.000000
1973.744206	2310.666667
1974.654464	2293.000000
1975.564396	2300.000000
1976.474004	2348.000000
1977.383286	2297.666667
1978.292245	2310.000000
1979.200878	2291.000000
1980.109188	2304.000000
1981.017174	2330.333333
1981.924835	2308.333333
1982.832173	2276.666667
1983.739187	2296.333333
1984.645878	2278.000000
1985.552245	2283.000000
1986.458289	2265.000000
1987.364010	2261.000000
1988.269408	2299.333333
1989.174484	2245.333333
1990.079236	2253.333333
1990.983667	2236.000000
1991.887775	2231.666667
1992.791561	2241.333333
1993.695024	2218.666667
1994.598166	2204.000000
1995.500986	2177.333333
1996.403485	2187.333333
1997.305662	2186.000000
1998.207518	2170.000000
1999.109053	2185.000000
