200.151048	21573.666667
201.758777	21519.000000
203.365815	21599.666667
204.972162	21391.666667
206.577820	21235.333333
208.182787	21160.666667
209.787065	21355.333333
211.390653	21149.333333
212.993553	21200.333333
214.595765	21146.333333
216.197289	21123.666667
217.798125	20974.666667
219.398274	20927.666667
220.997737	20917.666667
222.596513	20997.333333
224.194603	20890.333333
225.792008	20982.333333
227.388728	20810.666667
228.984763	20856.666667
230.580114	20588.000000
232.174781	20794.333333
233.768765	20645.666667
235.362065	20722.333333
236.954683	20649.000000
238.546619	20658.333333
240.137872	20482.000000
241.728445	20507.666667
243.318336	20401.000000
244.907546	20396.000000
246.496076	20508.333333
248.083926	20291.666667
249.671097	20283.333333
251.257589	20289.666667
252.843402	20238.000000
254.428536	19992.333333
256.012993	19965.333333
257.596772	19996.333333
259.179874	19915.000000
260.762300	19976.333333
262.344049	19692.000000
263.925122	19893.333333
265.505519	19791.000000
267.085241	19782.333333
268.664289	19804.666667
270.242662	19688.000000
271.820361	19700.666667
273.397387	19912.000000
274.973740	19918.000000
276.549419	19688.333333
278.124426	19834.666667
279.698762	19801.333333
281.272425	19831.000000
282.845417	19796.333333
284.417739	19724.666667
285.989390	19863.666667
287.560371	19906.666667
289.130682	19817.666667
290.700324	19830.000000
292.269297	19792.000000
293.837602	19774.000000
295.405238	19679.666667
296.972207	19700.000000
298.538508	19723.333333
300.104142	19631.000000
301.669110	19740.000000
303.233411	19622.333333
304.797047	19595.333333
306.360017	19516.666667
307.922322	19404.333333
309.483963	19360.666667
311.044939	19319.333333
312.605252	19339.333333
314.164900	19160.666667
315.723886	19085.666667
317.282209	19058.000000
318.839870	19004.666667
320.396868	18965.666667
321.953205	18917.333333
323.508881	18927.666667
325.063896	18768.333333
326.618251	18873.666667
328.171945	18784.333333
329.724980	18847.666667
331.277356	18759.666667
332.829072	18959.333333
334.380131	18726.333333
335.930530	18791.000000
337.480273	18744.333333
339.029357	18726.333333
340.577785	18788.666667
342.125556	18727.000000
343.672671	18715.333333
345.219130	18733.333333
346.764933	18555.000000
348.310081	18782.000000
349.854575	18762.666667
351.398414	18600.000000
352.941599	18721.000000
354.484130	18655.666667
356.026008	18568.666667
357.567234	18761.666667
359.107807	18558.000000
360.647727	18477.333333
362.186996	18505.666667
363.725614	18442.000000
365.263580	18508.666667
366.800896	18419.000000
368.337562	18371.000000
369.873578	18386.666667
371.408944	18437.666667
372.943661	18289.666667
374.477730	18414.000000
376.011150	18516.666667
377.543922	18458.333333
379.076046	18404.000000
380.607523	18399.000000
382.138353	18389.666667
383.668537	18397.000000
385.198075	18495.666667
386.726966	18545.666667
388.255213	18579.333333
389.782814	18571.000000
391.309770	18542.333333
392.836083	18559.333333
394.361751	18695.666667
395.886776	18677.333333
397.411157	18584.333333
398.934896	18654.666667
400.457992	18635.666667
401.980446	18757.000000
403.502258	18641.333333
405.023429	18657.333333
406.543959	18813.666667
408.063849	18761.333333
409.583098	18878.333333
411.101707	18857.333333
412.619677	18957.000000
414.137007	19124.333333
415.653699	19234.666667
417.169752	19237.666667
418.685167	19446.666667
420.199945	19626.333333
421.714085	19639.000000
423.227588	19919.333333
424.740454	19980.666667
426.252684	19887.666667
427.764279	20094.666667
429.275238	19983.666667
430.785561	19985.666667
432.295250	19757.333333
433.804304	19686.666667
435.312725	19565.333333
436.820511	19486.666667
438.327664	19337.000000
439.834185	19208.333333
441.340072	19308.666667
442.845327	19118.666667
444.349951	19105.333333
445.853942	19128.000000
447.357303	19014.666667
448.860033	18944.333333
450.362132	18712.000000
451.863601	18811.666667
453.364440	18656.000000
454.864650	18527.333333
456.364231	18386.333333
457.863183	18360.666667
459.361507	18020.666667
460.859203	18074.000000
462.356271	17889.333333
463.852712	17917.666667
465.348526	17806.333333
466.843714	17814.000000
468.338275	17731.000000
469.832210	17633.666667
471.325520	17490.666667
472.818205	17585.666667
474.310265	17447.333333
475.801700	17635.000000
477.292512	17458.666667
478.782700	17419.333333
480.272264	17344.000000
481.761205	17344.666667
483.249524	17225.333333
484.737221	17188.000000
486.224295	17209.333333
487.710748	17175.333333
489.196579	17165.000000
490.681790	17121.000000
492.166380	17091.666667
493.650350	17028.666667
495.133700	17196.333333
496.616431	17149.333333
498.098542	17062.000000
499.580035	17184.000000
501.060909	17004.333333
502.541165	16888.333333
504.020804	17133.000000
505.499825	17020.333333
506.978228	16925.000000
508.456016	16885.333333
509.933186	16841.000000
511.409741	16962.333333
512.885680	16860.000000
514.361004	16926.666667
515.835713	16955.666667
517.309807	16859.000000
518.783287	16907.333333
520.256153	16940.000000
521.728406	16824.000000
523.200045	17041.000000
524.671071	16904.000000
526.141485	16968.666667
527.611287	16873.000000
529.080476	16850.666667
530.549054	16924.666667
532.017021	16797.666667
533.484378	16872.666667
534.951123	16819.333333
536.417259	16817.333333
537.882785	16886.000000
539.347701	16672.333333
540.812008	16847.333333
542.275707	16721.666667
543.738797	16687.000000
545.201279	16725.666667
546.663153	16794.333333
548.124420	16863.666667
549.585080	16738.666667
551.045133	16889.000000
552.504579	16870.666667
553.963420	16841.000000
555.421655	16932.000000
556.879285	16875.000000
558.336309	16864.666667
559.792729	17055.666667
561.248545	16996.000000
562.703756	17024.333333
564.158364	17060.000000
565.612369	17135.666667
567.065770	17143.000000
568.518569	17151.666667
569.970766	17241.666667
571.422361	17320.000000
572.873354	17380.666667
574.323745	17388.666667
575.773536	17493.000000
577.222726	17652.666667
578.671316	17740.000000
580.119306	17661.333333
581.566696	17699.666667
583.013487	17654.666667
584.459679	17625.333333
585.905273	17578.333333
587.350268	17525.666667
588.794665	17448.333333
590.238465	17533.333333
591.681667	17458.666667
593.124272	17343.000000
594.566281	17267.666667
596.007694	17133.000000
597.448510	17027.333333
598.888731	16966.333333
600.328357	16829.000000
601.767388	16629.666667
603.205824	16796.333333
604.643666	16700.000000
606.080914	16690.333333
607.517568	16683.000000
608.953629	16601.333333
610.389097	16602.000000
611.823972	16494.333333
613.258255	16600.333333
614.691946	16382.666667
616.125046	16351.333333
617.557554	16318.666667
618.989471	16251.666667
620.420798	16116.666667
621.851534	16074.333333
623.281680	16001.000000
624.711237	15928.000000
626.140204	15856.000000
627.568582	15769.000000
628.996372	15735.666667
630.423573	15687.333333
631.850186	15613.000000
633.276211	15615.000000
634.701650	15722.333333
636.126501	15593.000000
637.550765	15617.333333
638.974443	15532.000000
640.397535	15588.000000
641.820041	15612.333333
643.241961	15503.000000
644.663297	15610.666667
646.084048	15528.000000
647.504214	15454.333333
648.923796	15450.333333
650.342795	15320.000000
651.761210	15412.000000
653.179041	15372.666667
654.596290	15356.666667
656.012957	15392.000000
657.429041	15356.666667
658.844543	15311.000000
660.259464	15274.333333
661.673804	15377.666667
663.087563	15303.000000
664.500741	15251.000000
665.913339	15237.333333
667.325357	15327.666667
668.736795	15222.333333
670.147654	15314.000000
671.557934	15210.000000
672.967636	15199.000000
674.376759	15218.666667
675.785304	15218.000000
677.193271	15179.666667
678.600661	15158.000000
680.007474	15174.666667
681.413711	15123.666667
682.819370	15036.666667
684.224454	15106.666667
685.628962	14985.666667
687.032895	15140.333333
688.436252	15125.333333
689.839034	15055.333333
691.241242	15065.000000
692.642876	14993.333333
694.043936	14947.000000
695.444422	14956.000000
696.844336	14952.666667
698.243676	14932.000000
699.642443	14930.000000
701.040639	14953.666667
702.438262	14954.000000
703.835313	14965.333333
705.231794	14899.333333
706.627703	14962.666667
708.023041	14912.000000
709.417810	14893.333333
710.812008	14912.000000
712.205636	14799.666667
713.598694	14896.000000
714.991184	14860.666667
716.383105	14740.666667
717.774457	14822.000000
719.165241	14853.333333
720.555457	14778.666667
721.945105	14743.666667
723.334187	14740.000000
724.722701	14876.000000
726.110648	14796.000000
727.498030	14736.333333
728.884845	14809.333333
730.271094	14687.666667
731.656778	14773.000000
733.041897	14758.666667
734.426451	14627.666667
735.810441	14684.666667
737.193866	14634.666667
738.576728	14605.333333
739.959026	14637.333333
741.340760	14691.666667
742.721932	14589.666667
744.102541	14557.000000
745.482588	14663.666667
746.862073	14634.333333
748.240996	14678.333333
749.619358	14555.000000
750.997158	14508.000000
752.374398	14596.666667
753.751077	14529.666667
755.127197	14677.333333
756.502756	14498.000000
757.877756	14527.333333
759.252196	14600.000000
760.626078	14515.333333
761.999400	14476.666667
763.372165	14399.000000
764.744371	14502.333333
766.116020	14527.333333
767.487111	14493.000000
768.857646	14346.666667
770.227623	14469.000000
771.597044	14350.333333
772.965908	14261.000000
774.334217	14334.000000
775.701970	14384.333333
777.069168	14286.000000
778.435811	14189.000000
779.801899	14254.333333
781.167433	14225.333333
782.532412	14210.000000
783.896838	14216.000000
785.260710	14205.333333
786.624029	14108.000000
787.986796	14082.333333
789.349009	14169.333333
790.710671	14117.333333
792.071780	14074.666667
793.432338	13995.666667
794.792344	14051.333333
796.151799	14017.333333
797.510704	13997.000000
798.869058	13987.000000
800.226862	13967.666667
801.584116	13973.000000
802.940820	14046.333333
804.296975	13984.000000
805.652581	14051.000000
807.007638	13946.000000
808.362147	14110.000000
809.716108	14097.000000
811.069521	14057.666667
812.422387	14044.666667
813.774705	14055.333333
815.126476	14039.666667
816.477701	13964.333333
817.828380	13961.666667
819.178512	13980.333333
820.528099	13968.333333
821.877140	13956.000000
823.225637	13926.333333
824.573588	13897.666667
825.920995	13771.333333
827.267857	13820.333333
828.614176	13816.666667
829.959951	13705.333333
831.305183	13752.333333
832.649871	13829.333333
833.994017	13828.000000
835.337620	13807.000000
836.680681	13775.000000
838.023201	13785.000000
839.365178	13830.666667
840.706614	13946.000000
842.047510	13868.000000
843.387864	13827.333333
844.727678	13892.666667
846.066952	14018.000000
847.405687	14041.666667
848.743881	14084.666667
850.081537	14016.333333
851.418653	14107.000000
852.755231	14137.666667
854.091270	14154.666667
855.426771	14198.333333
856.761735	14087.000000
858.096160	14051.666667
859.430049	14064.666667
860.763401	13911.666667
862.096216	13891.666667
863.428495	13851.666667
864.760237	13767.000000
866.091444	13744.333333
867.422115	13716.000000
868.752252	13734.666667
870.081853	13812.666667
871.410919	13778.000000
872.739452	13658.000000
874.067450	13722.333333
875.394914	13661.333333
876.721845	13723.333333
878.048243	13741.333333
879.374108	13659.666667
880.699440	13635.000000
882.024240	13568.333333
883.348508	13439.000000
884.672244	13581.333333
885.995449	13464.666667
887.318122	13372.666667
888.640265	13529.000000
889.961877	13380.666667
891.282959	13399.000000
892.603510	13335.000000
893.923532	13303.000000
895.243024	13298.333333
896.561987	13335.000000
897.880422	13306.000000
899.198327	13317.666667
900.515705	13152.000000
901.832554	13261.000000
903.148875	13137.000000
904.464669	13210.333333
905.779936	13145.000000
907.094676	13231.666667
908.408889	13335.666667
909.722576	13235.666667
911.035737	13359.666667
912.348371	13433.000000
913.660481	13497.000000
914.972065	13431.666667
916.283124	13556.666667
917.593659	13631.666667
918.903669	13717.666667
920.213155	13733.666667
921.522117	13702.333333
922.830556	13666.333333
924.138471	13670.333333
925.445864	13751.000000
926.752733	13702.666667
928.059081	13735.333333
929.364906	13599.000000
930.670209	13783.666667
931.974991	13810.000000
933.279251	13842.000000
934.582990	13988.333333
935.886209	14054.000000
937.188907	14135.333333
938.491085	14232.666667
939.792743	14538.000000
941.093881	14716.333333
942.394500	14832.666667
943.694600	15046.666667
944.994181	15575.333333
946.293243	15931.333333
947.591787	16244.666667
948.889813	16832.333333
950.187322	17408.666667
951.484313	18053.000000
952.780787	18847.333333
954.076744	19759.000000
955.372184	20434.333333
956.667108	20994.000000
957.961516	21273.000000
959.255409	21368.000000
960.548785	21078.000000
961.841647	20406.333333
963.133993	19696.000000
964.425825	18678.333333
965.717142	17787.666667
967.007946	16922.666667
968.298235	16040.000000
969.588011	15426.000000
970.877273	14695.333333
972.166023	14225.000000
973.454259	13947.666667
974.741984	13382.666667
976.029196	13216.000000
977.315895	13145.333333
978.602084	13003.666667
979.887761	12829.000000
981.172926	12630.666667
982.457581	12537.333333
983.741725	12484.333333
985.025359	12362.000000
986.308483	12522.333333
987.591097	12419.666667
988.873202	12447.666667
990.154797	12339.333333
991.435883	12307.333333
992.716461	12312.333333
993.996530	12403.000000
995.276091	12489.333333
996.555144	12299.333333
997.833690	12308.666667
999.111728	12451.333333
1000.389259	12497.000000
1001.666283	12566.666667
1002.942800	12615.666667
1004.218812	12433.666667
1005.494317	12445.000000
1006.769317	12352.333333
1008.043811	12349.666667
1009.317799	12300.000000
1010.591283	12357.333333
1011.864263	12427.333333
1013.136737	12375.333333
1014.408708	12278.333333
1015.680175	12397.333333
1016.951138	12356.333333
1018.221598	12313.333333
1019.491554	12324.333333
1020.761008	12372.666667
1022.029959	12482.000000
1023.298408	12336.000000
1024.566355	12447.000000
1025.833800	12456.000000
1027.100744	12471.666667
1028.367187	12490.666667
1029.633128	12436.000000
1030.898569	12521.000000
1032.163509	12413.333333
1033.427949	12393.666667
1034.691890	12364.000000
1035.955330	12435.000000
1037.218271	12485.000000
1038.480714	12495.333333
1039.742657	12545.000000
1041.004101	12477.666667
1042.265048	12450.000000
1043.525496	12427.666667
1044.785446	12498.000000
1046.044899	12424.000000
1047.303855	12445.000000
1048.562313	12371.666667
1049.820275	12305.000000
1051.077740	12306.666667
1052.334709	12244.333333
1053.591182	12316.000000
1054.847160	12243.666667
1056.102641	12304.000000
1057.357628	12283.000000
1058.612120	12246.666667
1059.866117	12374.333333
1061.119619	12465.666667
1062.372628	12408.000000
1063.625142	12548.666667
1064.877163	12498.666667
1066.128691	12553.666667
1067.379725	12494.000000
1068.630267	12521.333333
1069.880316	12563.000000
1071.129872	12470.333333
1072.378937	12394.000000
1073.627509	12385.666667
1074.875590	12281.000000
1076.123180	12246.333333
1077.370279	12129.666667
1078.616887	12037.333333
1079.863004	11876.000000
1081.108631	11839.333333
1082.353768	11703.333333
1083.598415	11733.666667
1084.842573	11641.666667
1086.086241	11464.000000
1087.329421	11472.333333
1088.572111	11456.333333
1089.814314	11441.333333
1091.056028	11387.000000
1092.297253	11211.000000
1093.537992	11336.000000
1094.778242	11253.333333
1096.018006	11157.333333
1097.257282	11253.666667
1098.496072	11111.000000
1099.734376	11176.000000
1100.972193	11055.333333
1102.209524	11144.666667
1103.446370	11148.333333
1104.682730	11021.000000
1105.918604	11012.000000
1107.153994	10981.333333
1108.388900	10901.000000
1109.623320	10936.000000
1110.857257	10884.333333
1112.090710	10893.000000
1113.323679	10886.333333
1114.556164	10739.666667
1115.788167	10771.666667
1117.019686	10731.666667
1118.250723	10651.666667
1119.481278	10682.666667
1120.711350	10665.666667
1121.940940	10669.000000
1123.170049	10679.000000
1124.398676	10617.333333
1125.626823	10482.333333
1126.854488	10658.666667
1128.081672	10615.000000
1129.308376	10576.666667
1130.534600	10525.666667
1131.760345	10513.666667
1132.985609	10503.333333
1134.210394	10436.333333
1135.434700	10407.666667
1136.658527	10456.000000
1137.881875	10443.333333
1139.104745	10450.000000
1140.327136	10337.000000
1141.549050	10431.333333
1142.770486	10367.333333
1143.991445	10363.333333
1145.211926	10323.333333
1146.431931	10389.000000
1147.651459	10395.000000
1148.870510	10411.666667
1150.089086	10331.333333
1151.307185	10306.333333
1152.524808	10356.000000
1153.741957	10260.333333
1154.958630	10317.666667
1156.174828	10298.666667
1157.390551	10293.666667
1158.605800	10190.000000
1159.820574	10356.666667
1161.034875	10266.333333
1162.248702	10300.666667
1163.462055	10199.000000
1164.674936	10232.000000
1165.887343	10253.666667
1167.099277	10230.666667
1168.310739	10150.666667
1169.521729	10228.666667
1170.732247	10268.333333
1171.942293	10224.666667
1173.151867	10220.333333
1174.360970	10207.333333
1175.569602	10188.333333
1176.777764	10108.000000
1177.985454	10166.333333
1179.192675	10153.666667
1180.399425	10104.333333
1181.605706	10108.666667
1182.811517	10037.000000
1184.016859	10077.666667
1185.221731	9919.333333
1186.426135	10051.000000
1187.630070	9905.000000
1188.833537	9960.666667
1190.036535	9979.666667
1191.239066	9896.666667
1192.441129	9793.000000
1193.642725	9871.333333
1194.843853	9902.333333
1196.044515	9842.333333
1197.244710	9811.333333
1198.444438	9802.333333
1199.643701	9873.000000
1200.842497	9881.333333
1202.040827	9839.333333
1203.238693	9883.000000
1204.436092	9958.333333
1205.633027	9850.333333
1206.829497	9889.333333
1208.025503	9739.333333
1209.221044	9775.666667
1210.416122	9722.000000
1211.610735	9774.666667
1212.804885	9693.333333
1213.998572	9612.666667
1215.191795	9631.666667
1216.384556	9625.333333
1217.576854	9552.333333
1218.768689	9539.333333
1219.960063	9574.000000
1221.150974	9526.000000
1222.341424	9581.000000
1223.531413	9598.000000
1224.720940	9592.000000
1225.910006	9606.333333
1227.098612	9678.666667
1228.286757	9661.000000
1229.474442	9629.000000
1230.661667	9705.333333
1231.848432	9833.666667
1233.034738	9807.666667
1234.220584	9836.000000
1235.405971	9837.666667
1236.590900	9838.666667
1237.775369	9910.000000
1238.959381	9951.333333
1240.142934	9990.000000
1241.326029	9924.666667
1242.508667	10016.000000
1243.690848	9944.666667
1244.872571	9969.666667
1246.053837	9942.666667
1247.234646	9838.333333
1248.414999	9927.666667
1249.594896	9820.333333
1250.774337	9838.000000
1251.953322	9820.666667
1253.131851	9766.000000
1254.309925	9717.333333
1255.487544	9777.666667
1256.664708	9788.333333
1257.841417	9708.000000
1259.017673	9719.333333
1260.193473	9613.000000
1261.368820	9623.333333
1262.543714	9725.000000
1263.718154	9761.000000
1264.892140	9735.333333
1266.065674	9728.666667
1267.238755	9786.000000
1268.411383	9635.333333
1269.583559	9706.333333
1270.755283	9754.666667
1271.926555	9687.666667
1273.097375	9694.333333
1274.267744	9672.000000
1275.437662	9587.666667
1276.607129	9598.000000
1277.776145	9644.000000
1278.944711	9616.666667
1280.112827	9626.333333
1281.280492	9561.666667
1282.447708	9479.666667
1283.614474	9486.000000
1284.780791	9358.666667
1285.946659	9364.666667
1287.112078	9388.333333
1288.277048	9364.333333
1289.441570	9238.666667
1290.605644	9183.666667
1291.769270	9155.333333
1292.932448	9121.333333
1294.095178	9078.666667
1295.257461	9123.666667
1296.419298	9120.000000
1297.580687	9090.666667
1298.741630	9004.333333
1299.902126	9052.333333
1301.062177	9086.666667
1302.221781	8978.000000
1303.380940	8909.666667
1304.539653	8978.000000
1305.697921	8923.333333
1306.855744	8986.333333
1308.013123	8931.000000
1309.170056	9002.000000
1310.326546	9002.666667
1311.482591	9012.666667
1312.638193	8996.000000
1313.793350	8932.333333
1314.948065	8930.000000
1316.102336	8872.333333
1317.256164	8922.000000
1318.409550	8952.666667
1319.562493	8910.333333
1320.714993	8912.333333
1321.867052	8920.666667
1323.018668	8791.666667
1324.169843	8833.000000
1325.320577	8790.333333
1326.470870	8710.666667
1327.620721	8674.666667
1328.770132	8612.000000
1329.919102	8733.333333
1331.067632	8661.000000
1332.215722	8653.666667
1333.363372	8661.666667
1334.510582	8692.333333
1335.657353	8670.333333
1336.803685	8698.333333
1337.949578	8687.333333
1339.095032	8578.333333
1340.240048	8611.333333
1341.384625	8514.000000
1342.528764	8655.333333
1343.672466	8663.000000
1344.815729	8478.666667
1345.958556	8580.666667
1347.100945	8444.333333
1348.242897	8524.333333
1349.384413	8475.000000
1350.525492	8532.666667
1351.666134	8453.333333
1352.806341	8448.333333
1353.946111	8469.333333
1355.085446	8341.666667
1356.224346	8357.333333
1357.362810	8365.000000
1358.500840	8314.666667
1359.638434	8336.000000
1360.775594	8294.666667
1361.912320	8236.000000
1363.048612	8240.000000
1364.184469	8209.000000
1365.319893	8260.666667
1366.454884	8221.333333
1367.589441	8216.666667
1368.723566	8181.000000
1369.857257	8238.666667
1370.990516	8304.333333
1372.123343	8295.666667
1373.255737	8198.000000
1374.387699	8293.000000
1375.519230	8355.000000
1376.650329	8243.000000
1377.780997	8291.000000
1378.911234	8347.000000
1380.041040	8272.000000
1381.170416	8341.333333
1382.299361	8307.333333
1383.427875	8276.666667
1384.555960	8243.666667
1385.683615	8300.000000
1386.810841	8175.000000
1387.937637	8213.000000
1389.064004	8219.000000
1390.189942	8205.666667
1391.315451	8290.333333
1392.440532	8168.333333
1393.565185	8181.666667
1394.689409	8122.333333
1395.813206	8105.666667
1396.936575	7990.333333
1398.059517	8179.333333
1399.182032	8125.666667
1400.304119	8113.333333
1401.425780	8142.000000
1402.547014	8097.333333
1403.667822	8065.333333
1404.788204	8096.333333
1405.908160	8028.666667
1407.027690	8163.333333
1408.146795	8149.333333
1409.265474	8077.666667
1410.383728	8118.333333
1411.501558	8098.000000
1412.618963	8093.000000
1413.735943	8146.333333
1414.852499	8023.333333
1415.968632	8157.333333
1417.084340	8153.000000
1418.199625	8136.000000
1419.314486	8148.333333
1420.428925	8095.000000
1421.542940	8090.666667
1422.656533	8106.000000
1423.769703	8155.333333
1424.882451	8062.000000
1425.994777	8094.333333
1427.106680	8045.000000
1428.218163	8035.333333
1429.329223	7997.666667
1430.439863	7986.000000
1431.550081	7883.333333
1432.659879	7965.333333
1433.769256	7973.333333
1434.878212	7839.666667
1435.986749	7903.000000
1437.094865	7893.000000
1438.202562	7929.333333
1439.309839	7932.333333
1440.416696	7974.333333
1441.523135	7955.666667
1442.629154	8026.000000
1443.734755	8151.333333
1444.839937	8139.666667
1445.944701	8083.000000
1447.049047	8179.666667
1448.152975	8087.333333
1449.256485	8151.666667
1450.359577	8068.333333
1451.462253	8032.333333
1452.564511	8056.666667
1453.666352	8109.333333
1454.767777	8020.000000
1455.868785	7999.666667
1456.969377	7983.666667
1458.069553	7945.333333
1459.169313	7912.333333
1460.268658	7879.000000
1461.367587	7885.666667
1462.466101	7810.333333
1463.564200	7783.666667
1464.661884	7767.666667
1465.759153	7761.666667
1466.856008	7668.666667
1467.952449	7653.333333
1469.048476	7552.666667
1470.144089	7433.666667
1471.239288	7412.000000
1472.334074	7369.666667
1473.428447	7381.666667
1474.522407	7323.666667
1475.615955	7220.666667
1476.709089	7265.000000
1477.801812	7136.000000
1478.894122	7172.333333
1479.986020	7089.333333
1481.077506	7136.333333
1482.168581	7129.666667
1483.259245	7079.333333
1484.349498	7031.333333
1485.439339	7077.000000
1486.528770	7100.333333
1487.617790	7029.000000
1488.706400	6988.000000
1489.794600	7029.000000
1490.882390	6906.000000
1491.969771	7039.000000
1493.056742	6918.333333
1494.143303	6948.666667
1495.229456	6896.333333
1496.315199	6907.000000
1497.400534	6828.000000
1498.485460	6889.666667
1499.569978	6886.000000
1500.654088	6932.666667
1501.737790	6748.666667
1502.821085	6793.666667
1503.903972	6732.666667
1504.986451	6738.333333
1506.068524	6696.666667
1507.150189	6728.000000
1508.231448	6740.333333
1509.312301	6689.666667
1510.392747	6590.666667
1511.472787	6668.666667
1512.552422	6670.666667
1513.631650	6664.666667
1514.710473	6707.000000
1515.788891	6638.000000
1516.866904	6600.333333
1517.944512	6638.666667
1519.021715	6574.333333
1520.098513	6506.000000
1521.174908	6623.333333
1522.250898	6525.333333
1523.326485	6565.666667
1524.401667	6575.000000
1525.476447	6570.000000
1526.550823	6538.333333
1527.624796	6600.666667
1528.698365	6554.333333
1529.771533	6591.333333
1530.844298	6566.000000
1531.916660	6593.000000
1532.988620	6545.666667
1534.060179	6513.666667
1535.131336	6509.666667
1536.202091	6525.333333
1537.272445	6467.666667
1538.342398	6445.666667
1539.411950	6391.666667
1540.481101	6462.666667
1541.549851	6474.666667
1542.618202	6488.000000
1543.686152	6409.000000
1544.753702	6396.000000
1545.820853	6359.000000
1546.887604	6310.333333
1547.953955	6307.000000
1549.019908	6338.000000
1550.085461	6340.666667
1551.150616	6358.333333
1552.215372	6316.333333
1553.279730	6345.666667
1554.343690	6283.000000
1555.407252	6339.333333
1556.470415	6284.666667
1557.533182	6233.333333
1558.595551	6274.666667
1559.657522	6250.666667
1560.719097	6231.666667
1561.780275	6228.333333
1562.841056	6222.666667
1563.901441	6231.666667
1564.961429	6309.000000
1566.021022	6217.666667
1567.080219	6208.333333
1568.139020	6275.666667
1569.197425	6200.000000
1570.255436	6267.000000
1571.313051	6196.000000
1572.370271	6191.333333
1573.427097	6274.666667
1574.483528	6197.000000
1575.539565	6137.333333
1576.595208	6179.000000
1577.650457	6145.333333
1578.705312	6102.333333
1579.759774	6061.333333
1580.813842	6073.666667
1581.867517	6042.333333
1582.920799	6048.000000
1583.973689	6009.666667
1585.026186	5980.333333
1586.078290	5977.000000
1587.130002	6001.333333
1588.181323	6004.000000
1589.232251	6010.333333
1590.282788	6000.000000
1591.332933	5967.333333
1592.382688	6075.666667
1593.432051	5966.666667
1594.481023	5971.666667
1595.529605	5907.000000
1596.577796	5970.666667
1597.625597	5959.666667
1598.673007	5989.000000
1599.720028	5980.666667
1600.766660	5955.666667
1601.812901	6019.333333
1602.858753	6053.000000
1603.904217	5974.666667
1604.949291	6023.333333
1605.993976	5996.333333
1607.038273	6001.000000
1608.082182	6009.333333
1609.125702	5922.000000
1610.168834	5905.333333
1611.211579	5933.000000
1612.253935	5906.333333
1613.295905	5924.333333
1614.337487	5904.333333
1615.378682	5906.666667
1616.419490	5910.666667
1617.459912	5818.333333
1618.499946	5834.666667
1619.539595	5916.000000
1620.578858	5918.333333
1621.617734	5888.000000
1622.656225	5799.000000
1623.694330	5789.000000
1624.732050	5841.000000
1625.769385	5738.666667
1626.806334	5837.333333
1627.842899	5853.333333
1628.879079	5730.000000
1629.914875	5816.666667
1630.950286	5812.000000
1631.985314	5772.666667
1633.019957	5843.333333
1634.054217	5811.333333
1635.088093	5854.666667
1636.121586	5835.000000
1637.154696	5815.000000
1638.187423	5869.666667
1639.219767	5845.333333
1640.251728	5826.333333
1641.283307	5878.000000
1642.314504	5801.333333
1643.345319	5827.666667
1644.375751	5846.000000
1645.405803	5783.666667
1646.435472	5842.666667
1647.464761	5778.333333
1648.493668	5811.666667
1649.522194	5783.333333
1650.550340	5732.000000
1651.578105	5802.333333
1652.605490	5781.666667
1653.632494	5753.333333
1654.659119	5748.000000
1655.685363	5736.333333
1656.711228	5765.666667
1657.736714	5736.000000
1658.761820	5715.333333
1659.786547	5705.666667
1660.810895	5700.666667
1661.834865	5684.333333
1662.858456	5751.666667
1663.881668	5660.666667
1664.904503	5654.666667
1665.926959	5599.000000
1666.949038	5597.333333
1667.970739	5597.333333
1668.992062	5527.000000
1670.013008	5565.666667
1671.033577	5510.666667
1672.053770	5517.666667
1673.073585	5523.666667
1674.093024	5478.666667
1675.112086	5446.000000
1676.130773	5421.333333
1677.149083	5462.666667
1678.167017	5452.333333
1679.184576	5405.666667
1680.201760	5436.666667
1681.218568	5439.666667
1682.235001	5426.000000
1683.251059	5432.000000
1684.266742	5387.666667
1685.282051	5367.333333
1686.296985	5291.666667
1687.311546	5292.666667
1688.325732	5292.000000
1689.339544	5310.000000
1690.352983	5263.333333
1691.366048	5152.000000
1692.378740	5171.333333
1693.391058	5183.333333
1694.403004	5123.000000
1695.414577	5141.666667
1696.425778	5048.666667
1697.436606	5041.000000
1698.447061	5003.000000
1699.457145	4941.333333
1700.466857	4964.666667
1701.476197	4958.000000
1702.485166	4959.000000
1703.493763	4868.000000
1704.501989	4896.333333
1705.509844	4822.333333
1706.517328	4879.333333
1707.524442	4739.000000
1708.531185	4831.000000
1709.537558	4759.000000
1710.543561	4764.333333
1711.549194	4717.666667
1712.554457	4744.000000
1713.559351	4738.000000
1714.563875	4755.333333
1715.568030	4739.000000
1716.571816	4712.000000
1717.575233	4756.000000
1718.578282	4758.333333
1719.580962	4783.666667
1720.583273	4744.666667
1721.585217	4805.333333
1722.586792	4764.666667
1723.588000	4774.333333
1724.588840	4781.666667
1725.589312	4731.000000
1726.589418	4766.666667
1727.589156	4771.333333
1728.588527	4772.000000
1729.587532	4749.666667
1730.586170	4739.333333
1731.584441	4703.000000
1732.582346	4717.333333
1733.579886	4714.000000
1734.577059	4679.333333
1735.573867	4625.666667
1736.570309	4601.333333
1737.566386	4719.000000
1738.562097	4684.000000
1739.557444	4595.000000
1740.552426	4550.000000
1741.547043	4579.666667
1742.541295	4517.333333
1743.535184	4552.000000
1744.528708	4512.000000
1745.521868	4524.000000
1746.514664	4522.333333
1747.507097	4452.333333
1748.499166	4453.333333
1749.490873	4466.333333
1750.482216	4487.000000
1751.473196	4500.000000
1752.463813	4432.666667
1753.454068	4439.666667
1754.443960	4443.333333
1755.433490	4492.666667
1756.422658	4413.666667
1757.411464	4417.333333
1758.399908	4407.666667
1759.387991	4429.666667
1760.375713	4425.666667
1761.363073	4399.333333
1762.350072	4439.666667
1763.336711	4391.666667
1764.322988	4430.000000
1765.308905	4403.666667
1766.294462	4460.666667
1767.279659	4342.333333
1768.264496	4345.000000
1769.248972	4332.000000
1770.233089	4355.000000
1771.216847	4355.666667
1772.200245	4295.333333
1773.183284	4269.666667
1774.165965	4306.666667
1775.148286	4236.333333
1776.130249	4289.000000
1777.111853	4239.333333
1778.093099	4203.000000
1779.073987	4203.000000
1780.054517	4163.333333
1781.034689	4167.666667
1782.014503	4180.666667
1782.993960	4152.333333
1783.973060	4123.666667
1784.951802	4089.333333
1785.930188	4069.000000
1786.908217	4057.666667
1787.885889	4104.666667
1788.863205	4069.000000
1789.840164	4037.333333
1790.816768	3994.000000
1791.793015	4049.000000
1792.768907	4017.333333
1793.744443	4008.666667
1794.719624	3966.666667
1795.694449	3998.666667
1796.668919	3985.666667
1797.643035	4012.666667
1798.616795	4004.333333
1799.590201	4019.666667
1800.563253	3993.000000
1801.535950	4030.666667
1802.508294	4058.666667
1803.480283	4038.333333
1804.451919	4008.000000
1805.423201	3999.333333
1806.394129	4017.666667
1807.364705	4026.333333
1808.334927	3979.333333
1809.304796	4015.666667
1810.274313	4028.000000
1811.243477	3983.000000
1812.212288	3997.333333
1813.180747	3983.666667
1814.148855	3983.666667
1815.116610	3963.666667
1816.084013	3944.333333
1817.051065	3908.333333
1818.017766	3954.666667
1818.984115	3919.333333
1819.950113	3939.333333
1820.915760	3892.000000
1821.881057	3861.666667
1822.846003	3889.333333
1823.810598	3901.333333
1824.774843	3839.666667
1825.738738	3869.666667
1826.702283	3843.333333
1827.665479	3867.333333
1828.628324	3779.333333
1829.590821	3820.000000
1830.552968	3782.333333
1831.514765	3759.000000
1832.476214	3783.000000
1833.437314	3779.333333
1834.398066	3797.666667
1835.358469	3704.333333
1836.318524	3799.666667
1837.278230	3698.666667
1838.237589	3785.000000
1839.196600	3736.666667
1840.155263	3752.000000
1841.113578	3773.666667
1842.071547	3770.666667
1843.029168	3792.666667
1843.986442	3786.333333
1844.943369	3788.666667
1845.899950	3744.666667
1846.856184	3754.333333
1847.812072	3781.333333
1848.767614	3768.000000
1849.722809	3743.000000
1850.677659	3780.000000
1851.632163	3777.000000
1852.586322	3697.000000
1853.540135	3754.000000
1854.493603	3732.666667
1855.446726	3752.000000
1856.399504	3737.333333
1857.351937	3688.000000
1858.304026	3734.333333
1859.255770	3725.000000
1860.207170	3644.333333
1861.158227	3652.666667
1862.108939	3646.333333
1863.059307	3683.666667
1864.009332	3634.666667
1864.959013	3645.666667
1865.908351	3590.666667
1866.857346	3629.000000
1867.805998	3576.333333
1868.754307	3551.333333
1869.702274	3552.666667
1870.649898	3581.666667
1871.597180	3507.666667
1872.544119	3517.666667
1873.490717	3513.666667
1874.436973	3516.333333
1875.382887	3506.333333
1876.328459	3481.333333
1877.273691	3460.333333
1878.218581	3484.000000
1879.163130	3492.000000
1880.107338	3523.333333
1881.051205	3523.000000
1881.994732	3486.000000
1882.937919	3496.333333
1883.880765	3489.333333
1884.823271	3499.333333
1885.765437	3508.000000
1886.707264	3500.666667
1887.648750	3486.000000
1888.589898	3489.000000
1889.530706	3491.333333
1890.471175	3540.666667
1891.411305	3472.000000
1892.351096	3512.000000
1893.290548	3504.666667
1894.229662	3476.000000
1895.168438	3459.000000
1896.106876	3451.333333
1897.044975	3492.333333
1897.982737	3459.333333
1898.920160	3455.000000
1899.857247	3457.000000
1900.793996	3432.333333
1901.730407	3431.666667
1902.666482	3405.666667
1903.602219	3398.000000
1904.537620	3404.000000
1905.472685	3360.000000
1906.407412	3348.666667
1907.341804	3376.666667
1908.275859	3340.333333
1909.209579	3351.666667
1910.142962	3287.000000
1911.076010	3314.666667
1912.008722	3213.000000
1912.941099	3232.000000
1913.873141	3279.666667
1914.804848	3258.666667
1915.736219	3196.000000
1916.667256	3218.000000
1917.597959	3197.000000
1918.528327	3186.333333
1919.458360	3210.666667
1920.388060	3203.333333
1921.317426	3158.666667
1922.246457	3143.666667
1923.175156	3178.000000
1924.103520	3185.666667
1925.031552	3187.666667
1925.959250	3204.333333
1926.886615	3216.333333
1927.813647	3189.000000
1928.740346	3209.333333
1929.666713	3182.333333
1930.592748	3177.333333
1931.518450	3141.000000
1932.443820	3178.333333
1933.368858	3194.333333
1934.293564	3193.333333
1935.217939	3169.000000
1936.141982	3194.000000
1937.065694	3153.666667
1937.989074	3158.000000
1938.912124	3198.000000
1939.834842	3116.666667
1940.757230	3148.666667
1941.679287	3149.000000
1942.601014	3128.333333
1943.522411	3116.666667
1944.443477	3090.000000
1945.364214	3062.000000
1946.284621	3099.333333
1947.204698	3045.333333
1948.124445	3056.333333
1949.043863	3011.000000
1949.962952	2996.333333
1950.881712	3010.666667
1951.800143	2998.666667
1952.718245	2955.666667
1953.636019	2981.000000
1954.553464	2950.000000
1955.470581	2923.000000
1956.387369	2967.000000
1957.303830	2965.333333
1958.219963	2931.333333
1959.135768	2938.333333
1960.051246	2924.333333
1960.966396	2954.333333
1961.881219	2914.333333
1962.795715	2937.666667
1963.709883	2944.666667
1964.623726	2971.666667
1965.537241	2941.333333
1966.450430	2937.000000
1967.363293	2951.000000
1968.275829	2913.666667
1969.188040	2924.666667
1970.099924	2950.333333
1971.011483	2945.000000
1971.922716	2933.333333
1972.833624	2954.333333
1973.744206	2948.333333
1974.654464	2974.333333
1975.564396	2992.666667
1976.474004	2935.666667
1977.383286	2979.000000
1978.292245	2957.333333
1979.200878	2915.000000
1980.109188	2915.666667
1981.017174	2914.000000
1981.924835	2930.000000
1982.832173	2860.666667
1983.739187	2865.666667
1984.645878	2876.333333
1985.552245	2839.666667
1986.458289	2846.000000
1987.364010	2826.000000
1988.269408	2816.666667
1989.174484	2831.666667
1990.079236	2797.333333
1990.983667	2794.333333
1991.887775	2835.666667
1992.791561	2808.666667
1993.695024	2748.333333
1994.598166	2770.000000
1995.500986	2765.666667
1996.403485	2758.000000
1997.305662	2697.333333
1998.207518	2728.000000
1999.109053	2736.666667
