200.151048	51372.666667
201.758777	51307.666667
203.365815	51217.000000
204.972162	51193.333333
206.577820	51361.000000
208.182787	51167.000000
209.787065	51023.000000
211.390653	51003.666667
212.993553	50705.000000
214.595765	50878.000000
216.197289	50728.333333
217.798125	50558.000000
219.398274	50501.000000
220.997737	50844.666667
222.596513	50839.000000
224.194603	50713.000000
225.792008	50649.333333
227.388728	50588.666667
228.984763	50581.666667
230.580114	50589.333333
232.174781	50563.000000
233.768765	50639.000000
235.362065	50507.000000
236.954683	50465.666667
238.546619	50226.000000
240.137872	50460.000000
241.728445	50260.333333
243.318336	50067.666667
244.907546	50041.000000
246.496076	49974.666667
248.083926	49856.333333
249.671097	49833.666667
251.257589	49571.333333
252.843402	49561.333333
254.428536	49485.666667
256.012993	49391.666667
257.596772	49205.333333
259.179874	49338.333333
260.762300	49026.333333
262.344049	49108.000000
263.925122	49043.666667
265.505519	48975.333333
267.085241	48997.000000
268.664289	48990.333333
270.242662	49063.000000
271.820361	49084.333333
273.397387	48937.666667
274.973740	49018.000000
276.549419	49128.666667
278.124426	49132.000000
279.698762	49326.333333
281.272425	49219.666667
282.845417	49430.666667
284.417739	49272.000000
285.989390	49452.333333
287.560371	49513.666667
289.130682	49292.333333
290.700324	49495.000000
292.269297	49454.666667
293.837602	49265.333333
295.405238	49153.333333
296.972207	49438.666667
298.538508	49104.333333
300.104142	49180.333333
301.669110	49120.000000
303.233411	48940.000000
304.797047	48896.333333
306.360017	48737.666667
307.922322	48701.000000
309.483963	48716.333333
311.044939	48418.666667
312.605252	48181.000000
314.164900	48182.000000
315.723886	47989.000000
317.282209	48025.333333
318.839870	47915.000000
320.396868	47863.000000
321.953205	47742.333333
323.508881	47797.000000
325.063896	47628.666667
326.618251	47631.333333
328.171945	47714.666667
329.724980	47760.666667
331.277356	47502.333333
332.829072	47652.000000
334.380131	47491.666667
335.930530	47817.000000
337.480273	47764.333333
339.029357	47880.666667
340.577785	47645.666667
342.125556	47533.333333
343.672671	47751.000000
345.219130	47540.000000
346.764933	47704.666667
348.310081	47750.333333
349.854575	47590.666667
351.398414	47716.666667
352.941599	47560.333333
354.484130	47739.333333
356.026008	47504.000000
357.567234	47610.666667
359.107807	47391.333333
360.647727	47456.000000
362.186996	47403.666667
363.725614	47234.666667
365.263580	47229.000000
366.800896	47243.666667
368.337562	47254.666667
369.873578	47326.000000
371.408944	47062.000000
372.943661	47074.333333
374.477730	46903.000000
376.011150	47009.333333
377.543922	46922.000000
379.076046	46846.000000
380.607523	46776.333333
382.138353	46772.333333
383.668537	46953.666667
385.198075	46751.000000
386.726966	46818.000000
388.255213	46856.333333
389.782814	46813.666667
391.309770	46803.333333
392.836083	46832.666667
394.361751	46839.000000
395.886776	46940.333333
397.411157	46755.000000
398.934896	46950.666667
400.457992	46816.666667
401.980446	47009.666667
403.502258	46909.000000
405.023429	46981.666667
406.543959	46916.000000
408.063849	46914.666667
409.583098	47098.666667
411.101707	47237.333333
412.619677	47130.000000
414.137007	47039.333333
415.653699	47423.666667
417.169752	47289.666667
418.685167	47458.666667
420.199945	47480.000000
421.714085	47637.000000
423.227588	47961.333333
424.740454	47958.333333
426.252684	48074.666667
427.764279	48108.333333
429.275238	47978.666667
430.785561	48035.000000
432.295250	47927.666667
433.804304	47662.333333
435.312725	47367.333333
436.820511	47304.333333
438.327664	47233.333333
439.834185	47084.333333
441.340072	46871.666667
442.845327	46809.000000
444.349951	46669.000000
445.853942	46552.666667
447.357303	46351.666667
448.860033	46601.666667
450.362132	46022.333333
451.863601	46061.666667
453.364440	46008.000000
454.864650	46002.333333
456.364231	45709.333333
457.863183	45744.000000
459.361507	45451.000000
460.859203	45453.333333
462.356271	45152.000000
463.852712	45226.333333
465.348526	44891.666667
466.843714	44918.666667
468.338275	44855.000000
469.832210	44719.000000
471.325520	44665.666667
472.818205	44589.333333
474.310265	44603.000000
475.801700	44500.333333
477.292512	44514.000000
478.782700	44471.666667
480.272264	44393.000000
481.761205	44423.000000
483.249524	44294.666667
484.737221	44275.333333
486.224295	44209.333333
487.710748	44170.333333
489.196579	44368.666667
490.681790	44012.666667
492.166380	43955.000000
493.650350	43922.666667
495.133700	43852.333333
496.616431	43738.666667
498.098542	43854.666667
499.580035	43819.000000
501.060909	43919.000000
502.541165	43505.666667
504.020804	43736.666667
505.499825	43388.666667
506.978228	43534.666667
508.456016	43518.333333
509.933186	43241.666667
511.409741	43235.333333
512.885680	43358.000000
514.361004	43113.666667
515.835713	43165.666667
517.309807	42978.333333
518.783287	43083.666667
520.256153	43215.333333
521.728406	43019.000000
523.200045	42936.000000
524.671071	42836.000000
526.141485	42885.000000
527.611287	42810.666667
529.080476	42809.333333
530.549054	42663.666667
532.017021	42776.333333
533.484378	42737.333333
534.951123	42623.666667
536.417259	42629.000000
537.882785	42576.333333
539.347701	42549.000000
540.812008	42482.000000
542.275707	42406.666667
543.738797	42399.333333
545.201279	42270.666667
546.663153	42375.666667
548.124420	42252.666667
549.585080	42265.666667
551.045133	42440.666667
552.504579	42315.666667
553.963420	42225.000000
555.421655	42400.333333
556.879285	42391.666667
558.336309	42339.333333
559.792729	42421.666667
561.248545	42604.666667
562.703756	42181.000000
564.158364	42237.000000
565.612369	42430.333333
567.065770	42394.000000
568.518569	42387.333333
569.970766	42573.666667
571.422361	42432.666667
572.873354	42543.000000
574.323745	42631.000000
575.773536	42688.333333
577.222726	42787.333333
578.671316	42696.666667
580.119306	42773.000000
581.566696	42858.666667
583.013487	42734.666667
584.459679	42697.666667
585.905273	42330.333333
587.350268	42533.666667
588.794665	42478.666667
590.238465	42482.000000
591.681667	42409.000000
593.124272	42136.000000
594.566281	42089.333333
596.007694	41812.000000
597.448510	41803.000000
598.888731	41530.000000
600.328357	41317.333333
601.767388	41347.000000
603.205824	41358.333333
604.643666	41119.666667
606.080914	41124.333333
607.517568	40887.333333
608.953629	40969.666667
610.389097	41105.666667
611.823972	40904.333333
613.258255	40815.333333
614.691946	40675.333333
616.125046	40657.333333
617.557554	40367.333333
618.989471	40347.666667
620.420798	40174.333333
621.851534	40244.000000
623.281680	39988.000000
624.711237	40033.333333
626.140204	39852.666667
627.568582	39683.000000
628.996372	39630.000000
630.423573	39581.666667
631.850186	39666.666667
633.276211	39373.000000
634.701650	39460.333333
636.126501	39251.000000
637.550765	39137.666667
638.974443	39316.000000
640.397535	39124.333333
641.820041	39190.000000
643.241961	39135.666667
644.663297	39158.666667
646.084048	39014.000000
647.504214	38962.333333
648.923796	39088.000000
650.342795	38953.666667
651.761210	38814.000000
653.179041	38853.333333
654.596290	38516.333333
656.012957	38769.666667
657.429041	38709.000000
658.844543	38562.333333
660.259464	38624.333333
661.673804	38497.666667
663.087563	38449.333333
664.500741	38382.333333
665.913339	38335.666667
667.325357	38330.666667
668.736795	38271.333333
670.147654	38320.666667
671.557934	38475.333333
672.967636	38018.333333
674.376759	38065.333333
675.785304	38139.000000
677.193271	37911.666667
678.600661	37836.333333
680.007474	37801.000000
681.413711	37968.333333
682.819370	38073.000000
684.224454	38060.333333
685.628962	37735.333333
687.032895	37810.000000
688.436252	37739.000000
689.839034	37627.000000
691.241242	37481.333333
692.642876	37388.000000
694.043936	37436.666667
695.444422	37342.000000
696.844336	37394.666667
698.243676	37315.000000
699.642443	37182.333333
701.040639	37345.333333
702.438262	37120.333333
703.835313	37171.333333
705.231794	36892.666667
706.627703	37091.333333
708.023041	37075.000000
709.417810	36871.666667
710.812008	36914.333333
712.205636	37010.000000
713.598694	36810.000000
714.991184	36702.666667
716.383105	36695.666667
717.774457	36655.000000
719.165241	36523.333333
720.555457	36657.000000
721.945105	36597.333333
723.334187	36569.666667
724.722701	36521.333333
726.110648	36456.000000
727.498030	36291.666667
728.884845	36542.333333
730.271094	36472.666667
731.656778	36269.000000
733.041897	36468.333333
734.426451	36403.666667
735.810441	36139.000000
737.193866	36462.666667
738.576728	36162.000000
739.959026	36250.666667
741.340760	36086.000000
742.721932	36270.666667
744.102541	36037.333333
745.482588	35949.000000
746.862073	36112.666667
748.240996	36084.000000
749.619358	35904.333333
750.997158	35967.333333
752.374398	35821.333333
753.751077	35905.333333
755.127197	35729.666667
756.502756	35691.666667
757.877756	35565.666667
759.252196	35612.666667
760.626078	35371.000000
761.999400	35494.666667
763.372165	35534.666667
764.744371	35534.000000
766.116020	35392.333333
767.487111	35223.000000
768.857646	35333.333333
770.227623	35113.000000
771.597044	35362.666667
772.965908	35062.666667
774.334217	35081.333333
775.701970	34976.333333
777.069168	34961.666667
778.435811	34712.333333
779.801899	34844.000000
781.167433	34847.000000
782.532412	34661.666667
783.896838	34517.666667
785.260710	34707.000000
786.624029	34599.333333
787.986796	34529.333333
789.349009	34574.000000
790.710671	34505.000000
792.071780	34370.333333
793.432338	34399.333333
794.792344	34291.333333
796.151799	34399.666667
797.510704	34271.000000
798.869058	34211.333333
800.226862	34201.000000
801.584116	34169.666667
802.940820	34156.333333
804.296975	34078.000000
805.652581	33993.000000
807.007638	33914.666667
808.362147	33955.333333
809.716108	33917.333333
811.069521	33975.000000
812.422387	33827.000000
813.774705	33850.333333
815.126476	33911.000000
816.477701	33793.666667
817.828380	33782.666667
819.178512	33777.666667
820.528099	33835.333333
821.877140	33684.666667
823.225637	33597.666667
824.573588	33557.666667
825.920995	33624.333333
827.267857	33591.000000
828.614176	33570.000000
829.959951	33480.333333
831.305183	33296.666667
832.649871	33474.666667
833.994017	33293.666667
835.337620	33301.333333
836.680681	33266.666667
838.023201	33277.000000
839.365178	33395.333333
840.706614	33324.666667
842.047510	33112.000000
843.387864	33306.666667
844.727678	33147.000000
846.066952	33346.000000
847.405687	33271.333333
848.743881	33251.000000
850.081537	33144.000000
851.418653	33294.333333
852.755231	33210.666667
854.091270	33163.333333
855.426771	33163.666667
856.761735	33052.000000
858.096160	33099.666667
859.430049	32971.000000
860.763401	32914.666667
862.096216	32774.666667
863.428495	32755.666667
864.760237	32655.000000
866.091444	32653.333333
867.422115	32454.000000
868.752252	32329.666667
870.081853	32437.000000
871.410919	32425.333333
872.739452	32371.666667
874.067450	32375.333333
875.394914	32376.000000
876.721845	32177.666667
878.048243	32250.666667
879.374108	32059.333333
880.699440	32139.000000
882.024240	32056.666667
883.348508	32113.000000
884.672244	31888.000000
885.995449	31954.666667
887.318122	31614.666667
888.640265	31806.666667
889.961877	31845.000000
891.282959	31758.333333
892.603510	31680.666667
893.923532	31553.333333
895.243024	31413.000000
896.561987	31364.333333
897.880422	31244.000000
899.198327	31283.000000
900.515705	31239.666667
901.832554	31287.333333
903.148875	31178.333333
904.464669	31197.000000
905.779936	30967.666667
907.094676	31091.000000
908.408889	31046.666667
909.722576	31097.000000
911.035737	30946.333333
912.348371	31128.666667
913.660481	31197.000000
914.972065	31118.666667
916.283124	31170.000000
917.593659	31231.666667
918.903669	31116.333333
920.213155	31131.666667
921.522117	31290.333333
922.830556	30938.000000
924.138471	31112.333333
925.445864	30939.000000
926.752733	31178.666667
928.059081	31131.333333
929.364906	30983.333333
930.670209	30978.000000
931.974991	31034.333333
933.279251	31131.000000
934.582990	31124.000000
935.886209	31095.000000
937.188907	31392.333333
938.491085	31345.000000
939.792743	31518.666667
941.093881	31691.000000
942.394500	31818.000000
943.694600	31954.666667
944.994181	32397.333333
946.293243	32653.333333
947.591787	33068.000000
948.889813	33633.666667
950.187322	34003.000000
951.484313	34704.000000
952.780787	35192.000000
954.076744	36101.666667
955.372184	36802.333333
956.667108	37322.333333
957.961516	37780.666667
959.255409	37818.333333
960.548785	37810.000000
961.841647	37311.333333
963.133993	36566.000000
964.425825	35521.666667
965.717142	34745.000000
967.007946	33938.333333
968.298235	32800.333333
969.588011	32317.000000
970.877273	31473.000000
972.166023	30961.000000
973.454259	30574.666667
974.741984	30254.666667
976.029196	29899.000000
977.315895	29785.000000
978.602084	29472.333333
979.887761	29310.000000
981.172926	29073.666667
982.457581	28972.000000
983.741725	29202.000000
985.025359	28875.000000
986.308483	28900.333333
987.591097	28777.666667
988.873202	28817.000000
990.154797	28597.000000
991.435883	28563.666667
992.716461	28539.333333
993.996530	28415.666667
995.276091	28553.333333
996.555144	28528.333333
997.833690	28489.000000
999.111728	28521.666667
1000.389259	28673.333333
1001.666283	28616.000000
1002.942800	28589.666667
1004.218812	28553.666667
1005.494317	28300.000000
1006.769317	28493.000000
1008.043811	28400.000000
1009.317799	28292.333333
1010.591283	28510.666667
1011.864263	28358.333333
1013.136737	28248.666667
1014.408708	28225.666667
1015.680175	28122.333333
1016.951138	28216.666667
1018.221598	28190.666667
1019.491554	28299.666667
1020.761008	28185.666667
1022.029959	28159.333333
1023.298408	28291.666667
1024.566355	28305.666667
1025.833800	28150.000000
1027.100744	28267.000000
1028.367187	28235.333333
1029.633128	28276.000000
1030.898569	28137.666667
1032.163509	28290.333333
1033.427949	28013.666667
1034.691890	28172.666667
1035.955330	28223.333333
1037.218271	28061.333333
1038.480714	28080.333333
1039.742657	27997.333333
1041.004101	28113.666667
1042.265048	28087.666667
1043.525496	28082.666667
1044.785446	28139.000000
1046.044899	28045.000000
1047.303855	28025.666667
1048.562313	27929.666667
1049.820275	27826.666667
1051.077740	27795.333333
1052.334709	27821.333333
1053.591182	27754.000000
1054.847160	27626.000000
1056.102641	27525.666667
1057.357628	27671.333333
1058.612120	27458.666667
1059.866117	27551.666667
1061.119619	27596.666667
1062.372628	27539.666667
1063.625142	27635.666667
1064.877163	27644.000000
1066.128691	27713.000000
1067.379725	27660.333333
1068.630267	27727.666667
1069.880316	27606.333333
1071.129872	27608.333333
1072.378937	27565.666667
1073.627509	27478.333333
1074.875590	27338.000000
1076.123180	27294.666667
1077.370279	27240.000000
1078.616887	26986.000000
1079.863004	26836.000000
1081.108631	26728.666667
1082.353768	26640.000000
1083.598415	26330.666667
1084.842573	26372.000000
1086.086241	26299.000000
1087.329421	26219.666667
1088.572111	26215.333333
1089.814314	26003.666667
1091.056028	26001.666667
1092.297253	25944.666667
1093.537992	25833.333333
1094.778242	25816.333333
1096.018006	25696.666667
1097.257282	25671.333333
1098.496072	25738.666667
1099.734376	25696.000000
1100.972193	25689.666667
1102.209524	25503.333333
1103.446370	25584.000000
1104.682730	25380.333333
1105.918604	25297.333333
1107.153994	25341.333333
1108.388900	25293.333333
1109.623320	25318.333333
1110.857257	25322.666667
1112.090710	25298.000000
1113.323679	25019.333333
1114.556164	25003.000000
1115.788167	25014.333333
1117.019686	24968.000000
1118.250723	24883.000000
1119.481278	24870.333333
1120.711350	24959.000000
1121.940940	24849.666667
1123.170049	24835.333333
1124.398676	24791.666667
1125.626823	24623.000000
1126.854488	24720.333333
1128.081672	24724.666667
1129.308376	24618.000000
1130.534600	24468.666667
1131.760345	24550.333333
1132.985609	24561.666667
1134.210394	24514.000000
1135.434700	24429.000000
1136.658527	24446.666667
1137.881875	24488.666667
1139.104745	24528.333333
1140.327136	24389.666667
1141.549050	24420.666667
1142.770486	24281.666667
1143.991445	24334.666667
1145.211926	24283.333333
1146.431931	24402.333333
1147.651459	24302.000000
1148.870510	24272.666667
1150.089086	24245.000000
1151.307185	24176.333333
1152.524808	24112.666667
1153.741957	23950.000000
1154.958630	24100.666667
1156.174828	24041.333333
1157.390551	24037.333333
1158.605800	24047.000000
1159.820574	23946.666667
1161.034875	23943.000000
1162.248702	24134.666667
1163.462055	24000.333333
1164.674936	23989.000000
1165.887343	23920.666667
1167.099277	23810.000000
1168.310739	23891.666667
1169.521729	23858.666667
1170.732247	23862.000000
1171.942293	23936.333333
1173.151867	23761.666667
1174.360970	23685.666667
1175.569602	23710.666667
1176.777764	23797.000000
1177.985454	23738.000000
1179.192675	23763.666667
1180.399425	23577.000000
1181.605706	23468.666667
1182.811517	23517.666667
1184.016859	23421.000000
1185.221731	23207.666667
1186.426135	23363.666667
1187.630070	23377.666667
1188.833537	23305.000000
1190.036535	23157.000000
1191.239066	23117.666667
1192.441129	23115.666667
1193.642725	23071.333333
1194.843853	23027.666667
1196.044515	23055.000000
1197.244710	22987.000000
1198.444438	23073.333333
1199.643701	22996.000000
1200.842497	23003.000000
1202.040827	22989.000000
1203.238693	23079.666667
1204.436092	22786.333333
1205.633027	22924.333333
1206.829497	22799.333333
1208.025503	22660.666667
1209.221044	22710.333333
1210.416122	22745.000000
1211.610735	22707.000000
1212.804885	22622.666667
1213.998572	22493.333333
1215.191795	22511.000000
1216.384556	22387.000000
1217.576854	22492.000000
1218.768689	22385.333333
1219.960063	22395.000000
1221.150974	22252.000000
1222.341424	22266.333333
1223.531413	22421.000000
1224.720940	22365.333333
1225.910006	22305.333333
1227.098612	22288.333333
1228.286757	22148.666667
1229.474442	22109.000000
1230.661667	22320.000000
1231.848432	22285.666667
1233.034738	22393.666667
1234.220584	22357.666667
1235.405971	22306.000000
1236.590900	22341.333333
1237.775369	22436.666667
1238.959381	22294.333333
1240.142934	22456.000000
1241.326029	22299.000000
1242.508667	22354.000000
1243.690848	22399.333333
1244.872571	22300.333333
1246.053837	22492.333333
1247.234646	22089.666667
1248.414999	22337.000000
1249.594896	22145.666667
1250.774337	22110.333333
1251.953322	22089.000000
1253.131851	22089.333333
1254.309925	21952.666667
1255.487544	21984.000000
1256.664708	22073.333333
1257.841417	21900.333333
1259.017673	21921.666667
1260.193473	21898.000000
1261.368820	21812.333333
1262.543714	21926.666667
1263.718154	21864.333333
1264.892140	21842.666667
1266.065674	21739.333333
1267.238755	22020.000000
1268.411383	21787.333333
1269.583559	21886.000000
1270.755283	21847.333333
1271.926555	21685.333333
1273.097375	21907.000000
1274.267744	21959.000000
1275.437662	21868.333333
1276.607129	21804.000000
1277.776145	21810.666667
1278.944711	21687.000000
1280.112827	21624.666667
1281.280492	21656.666667
1282.447708	21502.666667
1283.614474	21514.333333
1284.780791	21487.000000
1285.946659	21302.666667
1287.112078	21396.666667
1288.277048	21205.666667
1289.441570	21186.333333
1290.605644	21199.000000
1291.769270	21037.666667
1292.932448	21064.000000
1294.095178	21015.000000
1295.257461	20922.333333
1296.419298	20893.666667
1297.580687	20887.333333
1298.741630	20758.666667
1299.902126	20712.666667
1301.062177	20752.000000
1302.221781	20767.000000
1303.380940	20736.666667
1304.539653	20752.000000
1305.697921	20756.000000
1306.855744	20644.000000
1308.013123	20755.333333
1309.170056	20656.666667
1310.326546	20712.000000
1311.482591	20776.333333
1312.638193	20637.333333
1313.793350	20524.333333
1314.948065	20576.666667
1316.102336	20582.666667
1317.256164	20494.333333
1318.409550	20458.666667
1319.562493	20380.666667
1320.714993	20329.000000
1321.867052	20386.000000
1323.018668	20343.000000
1324.169843	20316.666667
1325.320577	20103.666667
1326.470870	20092.333333
1327.620721	20027.000000
1328.770132	20132.666667
1329.919102	19905.666667
1331.067632	19960.333333
1332.215722	20098.333333
1333.363372	19901.333333
1334.510582	19879.000000
1335.657353	19956.000000
1336.803685	19989.000000
1337.949578	19903.666667
1339.095032	19980.666667
1340.240048	19845.666667
1341.384625	19913.333333
1342.528764	19922.333333
1343.672466	19969.666667
1344.815729	19901.333333
1345.958556	19954.000000
1347.100945	19864.000000
1348.242897	19801.333333
1349.384413	19724.000000
1350.525492	19760.666667
1351.666134	19726.000000
1352.806341	19584.666667
1353.946111	19555.333333
1355.085446	19520.333333
1356.224346	19439.000000
1357.362810	19439.000000
1358.500840	19495.333333
1359.638434	19423.666667
1360.775594	19447.666667
1361.912320	19226.000000
1363.048612	19131.000000
1364.184469	19265.333333
1365.319893	19250.333333
1366.454884	19208.666667
1367.589441	19046.333333
1368.723566	19176.333333
1369.857257	19121.666667
1370.990516	19206.333333
1372.123343	19205.333333
1373.255737	19216.666667
1374.387699	19271.666667
1375.519230	19215.333333
1376.650329	19282.333333
1377.780997	19143.666667
1378.911234	19168.666667
1380.041040	19185.666667
1381.170416	19026.333333
1382.299361	19165.333333
1383.427875	19018.666667
1384.555960	19164.333333
1385.683615	19230.333333
1386.810841	19099.000000
1387.937637	18969.666667
1389.064004	19107.333333
1390.189942	19006.333333
1391.315451	18905.000000
1392.440532	18884.333333
1393.565185	18856.666667
1394.689409	18809.333333
1395.813206	18680.333333
1396.936575	18581.666667
1398.059517	18642.333333
1399.182032	18626.333333
1400.304119	18672.666667
1401.425780	18586.333333
1402.547014	18535.333333
1403.667822	18576.333333
1404.788204	18571.666667
1405.908160	18498.666667
1407.027690	18496.333333
1408.146795	18530.666667
1409.265474	18528.333333
1410.383728	18531.666667
1411.501558	18458.000000
1412.618963	18384.000000
1413.735943	18607.666667
1414.852499	18487.333333
1415.968632	18553.333333
1417.084340	18470.000000
1418.199625	18449.333333
1419.314486	18440.333333
1420.428925	18469.666667
1421.542940	18432.000000
1422.656533	18467.333333
1423.769703	18219.666667
1424.882451	18369.000000
1425.994777	18278.333333
1427.106680	18238.000000
1428.218163	18236.333333
1429.329223	18141.333333
1430.439863	18043.000000
1431.550081	18103.666667
1432.659879	18078.000000
1433.769256	17992.333333
1434.878212	18020.333333
1435.986749	17930.333333
1437.094865	17908.333333
1438.202562	17941.000000
1439.309839	17944.333333
1440.416696	17988.666667
1441.523135	17902.333333
1442.629154	17983.000000
1443.734755	17955.000000
1444.839937	18042.666667
1445.944701	18007.000000
1447.049047	18049.666667
1448.152975	18079.000000
1449.256485	17952.666667
1450.359577	18183.000000
1451.462253	18112.666667
1452.564511	17927.000000
1453.666352	17985.000000
1454.767777	17868.000000
1455.868785	17815.000000
1456.969377	17896.666667
1458.069553	17840.666667
1459.169313	17755.333333
1460.268658	17832.666667
1461.367587	17675.666667
1462.466101	17740.666667
1463.564200	17639.666667
1464.661884	17603.333333
1465.759153	17490.333333
1466.856008	17407.666667
1467.952449	17267.666667
1469.048476	17324.000000
1470.144089	17105.333333
1471.239288	17069.333333
1472.334074	17140.333333
1473.428447	16993.000000
1474.522407	16955.333333
1475.615955	16935.666667
1476.709089	16830.000000
1477.801812	16780.666667
1478.894122	16744.000000
1479.986020	16782.333333
1481.077506	16779.666667
1482.168581	16631.666667
1483.259245	16596.666667
1484.349498	16595.000000
1485.439339	16659.000000
1486.528770	16562.333333
1487.617790	16689.333333
1488.706400	16566.000000
1489.794600	16547.000000
1490.882390	16662.000000
1491.969771	16605.666667
1493.056742	16621.666667
1494.143303	16488.333333
1495.229456	16509.666667
1496.315199	16498.666667
1497.400534	16415.333333
1498.485460	16432.666667
1499.569978	16539.666667
1500.654088	16299.666667
1501.737790	16243.333333
1502.821085	16279.000000
1503.903972	16223.333333
1504.986451	16171.333333
1506.068524	16132.000000
1507.150189	16058.666667
1508.231448	15978.666667
1509.312301	15952.666667
1510.392747	15831.333333
1511.472787	15918.000000
1512.552422	15801.333333
1513.631650	15786.666667
1514.710473	15857.000000
1515.788891	15749.333333
1516.866904	15721.333333
1517.944512	15775.000000
1519.021715	15764.333333
1520.098513	15787.333333
1521.174908	15786.000000
1522.250898	15671.666667
1523.326485	15752.666667
1524.401667	15849.000000
1525.476447	15712.000000
1526.550823	15751.666667
1527.624796	15819.666667
1528.698365	15695.333333
1529.771533	15765.333333
1530.844298	15679.666667
1531.916660	15657.666667
1532.988620	15604.333333
1534.060179	15662.666667
1535.131336	15567.666667
1536.202091	15580.000000
1537.272445	15387.000000
1538.342398	15475.333333
1539.411950	15427.333333
1540.481101	15497.000000
1541.549851	15315.000000
1542.618202	15358.666667
1543.686152	15250.000000
1544.753702	15264.000000
1545.820853	15152.666667
1546.887604	15179.000000
1547.953955	15094.333333
1549.019908	15181.666667
1550.085461	15184.000000
1551.150616	15135.666667
1552.215372	14896.000000
1553.279730	15008.333333
1554.343690	15003.333333
1555.407252	14998.666667
1556.470415	14917.000000
1557.533182	14966.666667
1558.595551	14937.000000
1559.657522	14875.666667
1560.719097	14957.333333
1561.780275	14917.333333
1562.841056	14877.333333
1563.901441	14811.000000
1564.961429	14934.000000
1566.021022	14973.333333
1567.080219	14979.000000
1568.139020	14832.333333
1569.197425	14812.333333
1570.255436	14931.000000
1571.313051	14790.000000
1572.370271	14839.666667
1573.427097	14820.666667
1574.483528	14792.000000
1575.539565	14646.000000
1576.595208	14616.333333
1577.650457	14600.666667
1578.705312	14614.333333
1579.759774	14550.333333
1580.813842	14627.000000
1581.867517	14377.000000
1582.920799	14463.000000
1583.973689	14363.000000
1585.026186	14367.666667
1586.078290	14374.666667
1587.130002	14196.666667
1588.181323	14289.666667
1589.232251	14284.000000
1590.282788	14204.333333
1591.332933	14167.666667
1592.382688	14143.333333
1593.432051	14180.000000
1594.481023	14054.666667
1595.529605	14182.000000
1596.577796	14135.000000
1597.625597	14176.333333
1598.673007	14173.666667
1599.720028	14203.666667
1600.766660	14149.000000
1601.812901	14239.666667
1602.858753	14200.000000
1603.904217	14183.000000
1604.949291	14190.000000
1605.993976	14263.666667
1607.038273	14213.333333
1608.082182	14169.666667
1609.125702	14179.333333
1610.168834	14081.666667
1611.211579	14106.666667
1612.253935	14125.666667
1613.295905	13961.333333
1614.337487	13991.333333
1615.378682	14104.333333
1616.419490	13965.666667
1617.459912	13913.333333
1618.499946	13790.333333
1619.539595	13761.000000
1620.578858	13680.666667
1621.617734	13830.333333
1622.656225	13695.000000
1623.694330	13619.666667
1624.732050	13646.000000
1625.769385	13639.333333
1626.806334	13548.000000
1627.842899	13617.666667
1628.879079	13536.000000
1629.914875	13535.666667
1630.950286	13427.333333
1631.985314	13541.666667
1633.019957	13510.000000
1634.054217	13532.000000
1635.088093	13492.666667
1636.121586	13598.666667
1637.154696	13401.333333
1638.187423	13548.000000
1639.219767	13535.000000
1640.251728	13542.000000
1641.283307	13477.333333
1642.314504	13547.000000
1643.345319	13529.000000
1644.375751	13482.666667
1645.405803	13541.000000
1646.435472	13603.333333
1647.464761	13561.000000
1648.493668	13499.333333
1649.522194	13419.333333
1650.550340	13434.000000
1651.578105	13459.000000
1652.605490	13347.333333
1653.632494	13407.000000
1654.659119	13329.666667
1655.685363	13224.333333
1656.711228	13219.333333
1657.736714	13133.333333
1658.761820	13238.000000
1659.786547	12993.000000
1660.810895	13103.333333
1661.834865	13051.333333
1662.858456	13084.333333
1663.881668	12863.000000
1664.904503	12869.000000
1665.926959	12834.333333
1666.949038	12928.000000
1667.970739	12877.000000
1668.992062	12692.666667
1670.013008	12751.000000
1671.033577	12709.333333
1672.053770	12744.000000
1673.073585	12662.666667
1674.093024	12627.666667
1675.112086	12622.666667
1676.130773	12602.000000
1677.149083	12566.666667
1678.167017	12648.000000
1679.184576	12581.000000
1680.201760	12595.666667
1681.218568	12650.000000
1682.235001	12664.333333
1683.251059	12656.333333
1684.266742	12591.666667
1685.282051	12558.666667
1686.296985	12513.666667
1687.311546	12447.000000
1688.325732	12468.000000
1689.339544	12382.333333
1690.352983	12370.333333
1691.366048	12323.666667
1692.378740	12177.666667
1693.391058	12203.000000
1694.403004	12216.333333
1695.414577	12084.666667
1696.425778	12096.333333
1697.436606	12045.000000
1698.447061	11993.666667
1699.457145	11988.666667
1700.466857	11877.000000
1701.476197	11825.666667
1702.485166	11894.666667
1703.493763	11772.000000
1704.501989	11796.000000
1705.509844	11697.666667
1706.517328	11676.000000
1707.524442	11581.000000
1708.531185	11695.000000
1709.537558	11607.333333
1710.543561	11649.666667
1711.549194	11575.666667
1712.554457	11607.333333
1713.559351	11624.333333
1714.563875	11602.666667
1715.568030	11569.333333
1716.571816	11579.000000
1717.575233	11638.666667
1718.578282	11670.000000
1719.580962	11696.000000
1720.583273	11628.333333
1721.585217	11663.333333
1722.586792	11687.666667
1723.588000	11638.666667
1724.588840	11662.000000
1725.589312	11687.333333
1726.589418	11694.333333
1727.589156	11661.333333
1728.588527	11616.333333
1729.587532	11620.666667
1730.586170	11713.666667
1731.584441	11548.666667
1732.582346	11650.666667
1733.579886	11548.666667
1734.577059	11518.333333
1735.573867	11540.000000
1736.570309	11469.666667
1737.566386	11436.333333
1738.562097	11395.333333
1739.557444	11351.000000
1740.552426	11267.000000
1741.547043	11301.666667
1742.541295	11226.000000
1743.535184	11255.000000
1744.528708	11102.333333
1745.521868	11067.666667
1746.514664	11114.666667
1747.507097	11021.333333
1748.499166	10952.333333
1749.490873	11020.666667
1750.482216	10963.333333
1751.473196	10951.666667
1752.463813	10991.666667
1753.454068	10925.333333
1754.443960	10947.666667
1755.433490	10901.666667
1756.422658	10819.666667
1757.411464	10922.666667
1758.399908	10887.000000
1759.387991	10840.000000
1760.375713	10927.333333
1761.363073	10856.000000
1762.350072	10815.333333
1763.336711	10828.000000
1764.322988	10864.666667
1765.308905	10835.666667
1766.294462	10845.000000
1767.279659	10807.666667
1768.264496	10696.000000
1769.248972	10705.333333
1770.233089	10742.000000
1771.216847	10638.666667
1772.200245	10619.666667
1773.183284	10589.000000
1774.165965	10472.000000
1775.148286	10501.000000
1776.130249	10481.333333
1777.111853	10524.000000
1778.093099	10347.333333
1779.073987	10256.333333
1780.054517	10263.333333
1781.034689	10240.666667
1782.014503	10142.666667
1782.993960	10067.333333
1783.973060	10076.333333
1784.951802	9987.000000
1785.930188	9976.333333
1786.908217	9963.333333
1787.885889	9954.000000
1788.863205	9871.666667
1789.840164	9930.666667
1790.816768	9911.666667
1791.793015	9804.666667
1792.768907	9832.666667
1793.744443	9774.000000
1794.719624	9778.333333
1795.694449	9781.000000
1796.668919	9768.666667
1797.643035	9764.000000
1798.616795	9861.333333
1799.590201	9711.333333
1800.563253	9766.333333
1801.535950	9853.333333
1802.508294	9894.000000
1803.480283	9836.333333
1804.451919	9841.333333
1805.423201	9847.000000
1806.394129	9850.000000
1807.364705	9851.666667
1808.334927	9877.666667
1809.304796	9830.666667
1810.274313	9791.333333
1811.243477	9803.333333
1812.212288	9747.333333
1813.180747	9872.666667
1814.148855	9821.666667
1815.116610	9764.000000
1816.084013	9753.333333
1817.051065	9740.333333
1818.017766	9671.000000
1818.984115	9726.666667
1819.950113	9737.000000
1820.915760	9670.000000
1821.881057	9648.000000
1822.846003	9601.000000
1823.810598	9538.666667
1824.774843	9665.000000
1825.738738	9532.000000
1826.702283	9475.333333
1827.665479	9476.666667
1828.628324	9490.000000
1829.590821	9418.333333
1830.552968	9415.000000
1831.514765	9373.000000
1832.476214	9328.666667
1833.437314	9338.333333
1834.398066	9316.666667
1835.358469	9366.666667
1836.318524	9352.333333
1837.278230	9277.000000
1838.237589	9292.333333
1839.196600	9317.000000
1840.155263	9276.333333
1841.113578	9285.666667
1842.071547	9301.666667
1843.029168	9304.333333
1843.986442	9274.666667
1844.943369	9356.000000
1845.899950	9330.333333
1846.856184	9264.333333
1847.812072	9309.000000
1848.767614	9283.333333
1849.722809	9260.000000
1850.677659	9289.000000
1851.632163	9357.666667
1852.586322	9229.333333
1853.540135	9255.666667
1854.493603	9196.333333
1855.446726	9172.000000
1856.399504	9166.000000
1857.351937	9150.000000
1858.304026	9117.333333
1859.255770	9032.333333
1860.207170	9060.333333
1861.158227	8983.000000
1862.108939	8926.333333
1863.059307	8939.666667
1864.009332	8963.333333
1864.959013	8897.666667
1865.908351	8743.333333
1866.857346	8848.666667
1867.805998	8765.000000
1868.754307	8718.666667
1869.702274	8635.666667
1870.649898	8603.000000
1871.597180	8686.666667
1872.544119	8633.333333
1873.490717	8660.333333
1874.436973	8596.000000
1875.382887	8441.666667
1876.328459	8512.666667
1877.273691	8497.666667
1878.218581	8525.000000
1879.163130	8467.000000
1880.107338	8531.333333
1881.051205	8547.000000
1881.994732	8473.000000
1882.937919	8496.666667
1883.880765	8486.666667
1884.823271	8532.000000
1885.765437	8520.000000
1886.707264	8545.666667
1887.648750	8531.333333
1888.589898	8516.333333
1889.530706	8511.000000
1890.471175	8568.000000
1891.411305	8566.666667
1892.351096	8458.000000
1893.290548	8506.333333
1894.229662	8605.000000
1895.168438	8530.333333
1896.106876	8435.666667
1897.044975	8471.666667
1897.982737	8538.666667
1898.920160	8422.000000
1899.857247	8423.000000
1900.793996	8438.333333
1901.730407	8332.000000
1902.666482	8366.333333
1903.602219	8303.333333
1904.537620	8254.000000
1905.472685	8235.666667
1906.407412	8198.666667
1907.341804	8119.666667
1908.275859	8116.000000
1909.209579	8103.333333
1910.142962	8064.333333
1911.076010	8061.000000
1912.008722	7979.666667
1912.941099	7945.333333
1913.873141	7886.666667
1914.804848	7879.333333
1915.736219	7833.000000
1916.667256	7819.000000
1917.597959	7754.000000
1918.528327	7729.333333
1919.458360	7746.666667
1920.388060	7830.333333
1921.317426	7712.666667
1922.246457	7672.666667
1923.175156	7780.000000
1924.103520	7705.333333
1925.031552	7762.000000
1925.959250	7703.000000
1926.886615	7729.666667
1927.813647	7700.666667
1928.740346	7801.333333
1929.666713	7731.000000
1930.592748	7724.666667
1931.518450	7766.333333
1932.443820	7731.000000
1933.368858	7708.000000
1934.293564	7640.666667
1935.217939	7619.333333
1936.141982	7711.666667
1937.065694	7685.333333
1937.989074	7675.333333
1938.912124	7573.666667
1939.834842	7698.666667
1940.757230	7529.000000
1941.679287	7575.000000
1942.601014	7479.000000
1943.522411	7495.000000
1944.443477	7540.666667
1945.364214	7413.333333
1946.284621	7415.000000
1947.204698	7421.000000
1948.124445	7297.333333
1949.043863	7356.666667
1949.962952	7274.666667
1950.881712	7230.666667
1951.800143	7198.000000
1952.718245	7181.666667
1953.636019	7165.000000
1954.553464	7090.000000
1955.470581	7076.333333
1956.387369	7039.000000
1957.303830	7060.000000
1958.219963	7049.000000
1959.135768	7070.000000
1960.051246	7138.333333
1960.966396	7070.000000
1961.881219	7040.000000
1962.795715	7044.000000
1963.709883	7164.000000
1964.623726	7084.333333
1965.537241	7116.333333
1966.450430	7062.000000
1967.363293	7074.666667
1968.275829	7140.000000
1969.188040	7164.000000
1970.099924	7161.000000
1971.011483	7149.666667
1971.922716	7094.333333
1972.833624	7162.666667
1973.744206	7165.333333
1974.654464	7119.000000
1975.564396	7165.666667
1976.474004	7106.000000
1977.383286	7110.666667
1978.292245	7077.000000
1979.200878	7085.333333
1980.109188	7058.666667
1981.017174	7050.000000
1981.924835	7026.666667
1982.832173	7019.666667
1983.739187	6936.333333
1984.645878	6939.333333
1985.552245	6866.000000
1986.458289	6804.000000
1987.364010	6789.666667
1988.269408	6790.666667
1989.174484	6721.000000
1990.079236	6682.333333
1990.983667	6662.333333
1991.887775	6763.000000
1992.791561	6633.333333
1993.695024	6634.666667
1994.598166	6553.333333
1995.500986	6597.000000
1996.403485	6552.333333
1997.305662	6512.666667
1998.207518	6555.000000
1999.109053	6522.000000
