200.151048	54270.000000
201.758777	54318.333333
203.365815	54272.000000
204.972162	54214.333333
206.577820	54199.000000
208.182787	53757.000000
209.787065	53846.000000
211.390653	53855.666667
212.993553	53736.666667
214.595765	53979.333333
216.197289	53662.333333
217.798125	53544.666667
219.398274	53689.666667
220.997737	53575.000000
222.596513	53582.333333
224.194603	53528.333333
225.792008	53350.000000
227.388728	53384.000000
228.984763	53222.333333
230.580114	53369.666667
232.174781	53377.666667
233.768765	53390.000000
235.362065	53262.333333
236.954683	53316.666667
238.546619	53240.666667
240.137872	53121.333333
241.728445	53134.666667
243.318336	53033.666667
244.907546	52961.000000
246.496076	52915.666667
248.083926	52836.333333
249.671097	52610.333333
251.257589	52419.000000
252.843402	52509.666667
254.428536	52283.666667
256.012993	52010.333333
257.596772	52134.000000
259.179874	51841.666667
260.762300	51940.333333
262.344049	51941.666667
263.925122	51822.000000
265.505519	51969.333333
267.085241	51800.333333
268.664289	51792.000000
270.242662	51726.666667
271.820361	51812.333333
273.397387	51936.000000
274.973740	51663.000000
276.549419	51909.000000
278.124426	51959.000000
279.698762	52143.000000
281.272425	52023.666667
282.845417	52041.666667
284.417739	52007.333333
285.989390	52124.333333
287.560371	52230.666667
289.130682	52152.000000
290.700324	52176.666667
292.269297	52418.666667
293.837602	52096.333333
295.405238	52175.333333
296.972207	52194.666667
298.538508	52209.333333
300.104142	51943.000000
301.669110	51979.666667
303.233411	51838.333333
304.797047	51583.000000
306.360017	51583.666667
307.922322	51489.666667
309.483963	51511.000000
311.044939	51304.666667
312.605252	51064.666667
314.164900	51050.666667
315.723886	50792.666667
317.282209	50909.333333
318.839870	50628.666667
320.396868	50880.333333
321.953205	50672.666667
323.508881	50436.666667
325.063896	50430.666667
326.618251	50609.000000
328.171945	50476.000000
329.724980	50526.333333
331.277356	50342.000000
332.829072	50604.333333
334.380131	50549.666667
335.930530	50413.666667
337.480273	50386.333333
339.029357	50382.666667
340.577785	50450.000000
342.125556	50549.000000
343.672671	50455.000000
345.219130	50318.333333
346.764933	50334.666667
348.310081	50511.333333
349.854575	50466.333333
351.398414	50404.333333
352.941599	50354.000000
354.484130	50614.333333
356.026008	50509.333333
357.567234	50303.333333
359.107807	50185.333333
360.647727	50257.333333
362.186996	50125.666667
363.725614	50175.000000
365.263580	49975.666667
366.800896	50060.000000
368.337562	50089.000000
369.873578	49860.333333
371.408944	50010.666667
372.943661	49851.000000
374.477730	49662.000000
376.011150	49765.333333
377.543922	49678.333333
379.076046	49689.666667
380.607523	49892.333333
382.138353	49857.333333
383.668537	49826.333333
385.198075	49930.333333
386.726966	49754.666667
388.255213	49835.000000
389.782814	49832.333333
391.309770	50038.666667
392.836083	49990.666667
394.361751	49743.333333
395.886776	49991.000000
397.411157	49846.666667
398.934896	49902.000000
400.457992	49841.333333
401.980446	50099.000000
403.502258	49906.333333
405.023429	50043.666667
406.543959	50008.333333
408.063849	50182.333333
409.583098	50378.666667
411.101707	50375.666667
412.619677	50335.000000
414.137007	50425.000000
415.653699	50483.333333
417.169752	50568.000000
418.685167	50734.333333
420.199945	51219.000000
421.714085	51169.666667
423.227588	51570.666667
424.740454	51681.666667
426.252684	51737.333333
427.764279	51836.000000
429.275238	51771.333333
430.785561	51749.666667
432.295250	51627.666667
433.804304	51370.000000
435.312725	51469.666667
436.820511	51137.000000
438.327664	50779.666667
439.834185	50587.333333
441.340072	50580.000000
442.845327	50470.000000
444.349951	50364.000000
445.853942	50134.666667
447.357303	50090.333333
448.860033	49845.333333
450.362132	49736.000000
451.863601	49892.666667
453.364440	49397.000000
454.864650	49237.333333
456.364231	48936.333333
457.863183	48842.333333
459.361507	48670.000000
460.859203	48580.666667
462.356271	48449.333333
463.852712	48322.666667
465.348526	48013.666667
466.843714	48169.333333
468.338275	47683.666667
469.832210	47736.000000
471.325520	47763.666667
472.818205	47560.000000
474.310265	47602.000000
475.801700	47604.666667
477.292512	47452.000000
478.782700	47503.000000
480.272264	47372.000000
481.761205	47133.000000
483.249524	47066.666667
484.737221	47039.000000
486.224295	47026.666667
487.710748	46922.000000
489.196579	46880.666667
490.681790	46906.666667
492.166380	46957.333333
493.650350	46809.000000
495.133700	46896.000000
496.616431	46837.333333
498.098542	46800.666667
499.580035	46439.666667
501.060909	46731.666667
502.541165	46728.000000
504.020804	46633.666667
505.499825	46330.000000
506.978228	46204.000000
508.456016	46171.333333
509.933186	46225.333333
511.409741	46141.000000
512.885680	46060.000000
514.361004	46001.000000
515.835713	46067.666667
517.309807	45852.333333
518.783287	46114.333333
520.256153	45893.000000
521.728406	45843.666667
523.200045	45901.666667
524.671071	45830.666667
526.141485	45907.000000
527.611287	45518.000000
529.080476	45666.666667
530.549054	45438.333333
532.017021	45754.333333
533.484378	45460.000000
534.951123	45633.000000
536.417259	45482.000000
537.882785	45476.666667
539.347701	45224.333333
540.812008	45476.333333
542.275707	45390.333333
543.738797	45286.333333
545.201279	45411.000000
546.663153	45578.000000
548.124420	45320.333333
549.585080	45308.333333
551.045133	45208.333333
552.504579	45216.000000
553.963420	45395.666667
555.421655	45335.000000
556.879285	45245.000000
558.336309	45272.000000
559.792729	45436.333333
561.248545	45595.666667
562.703756	45445.000000
564.158364	45505.333333
565.612369	45542.000000
567.065770	45554.666667
568.518569	45549.666667
569.970766	45588.000000
571.422361	45582.000000
572.873354	45770.666667
574.323745	45889.333333
575.773536	45951.666667
577.222726	46046.000000
578.671316	46296.666667
580.119306	46130.666667
581.566696	46323.333333
583.013487	46350.000000
584.459679	46226.000000
585.905273	46208.666667
587.350268	46048.333333
588.794665	45872.000000
590.238465	45693.333333
591.681667	45717.333333
593.124272	45430.000000
594.566281	45208.000000
596.007694	45082.666667
597.448510	44916.333333
598.888731	44561.333333
600.328357	44620.333333
601.767388	44313.000000
603.205824	44227.000000
604.643666	44250.666667
606.080914	44381.666667
607.517568	44167.333333
608.953629	44044.333333
610.389097	44248.333333
611.823972	44064.333333
613.258255	44055.666667
614.691946	43714.666667
616.125046	43846.666667
617.557554	43546.000000
618.989471	43259.333333
620.420798	43313.000000
621.851534	42973.666667
623.281680	42760.666667
624.711237	42610.333333
626.140204	42586.666667
627.568582	42534.333333
628.996372	42249.000000
630.423573	42403.000000
631.850186	42160.333333
633.276211	42287.666667
634.701650	42139.000000
636.126501	41975.666667
637.550765	42023.333333
638.974443	41785.000000
640.397535	42056.000000
641.820041	41790.666667
643.241961	41846.333333
644.663297	41751.666667
646.084048	41717.666667
647.504214	41796.000000
648.923796	41447.000000
650.342795	41606.333333
651.761210	41543.666667
653.179041	41476.000000
654.596290	41298.666667
656.012957	41389.666667
657.429041	41357.666667
658.844543	41354.333333
660.259464	41250.333333
661.673804	41314.333333
663.087563	41247.666667
664.500741	41163.666667
665.913339	41094.333333
667.325357	40999.000000
668.736795	40944.000000
670.147654	40732.000000
671.557934	40727.666667
672.967636	40719.666667
674.376759	40609.000000
675.785304	40665.333333
677.193271	40462.666667
678.600661	40495.666667
680.007474	40546.666667
681.413711	40725.666667
682.819370	40211.000000
684.224454	40372.000000
685.628962	40257.666667
687.032895	40241.000000
688.436252	40216.333333
689.839034	40074.000000
691.241242	40212.666667
692.642876	40024.333333
694.043936	39916.333333
695.444422	40010.333333
696.844336	39850.666667
698.243676	39721.333333
699.642443	40016.333333
701.040639	39926.000000
702.438262	39844.333333
703.835313	39771.666667
705.231794	39738.333333
706.627703	39603.333333
708.023041	39327.333333
709.417810	39607.333333
710.812008	39478.333333
712.205636	39492.666667
713.598694	39500.666667
714.991184	39409.000000
716.383105	39384.666667
717.774457	39300.333333
719.165241	39232.666667
720.555457	39223.666667
721.945105	39162.333333
723.334187	39162.666667
724.722701	39203.000000
726.110648	39232.333333
727.498030	39044.000000
728.884845	39096.000000
730.271094	38852.000000
731.656778	38946.333333
733.041897	39016.000000
734.426451	38893.666667
735.810441	38727.000000
737.193866	38765.000000
738.576728	38817.666667
739.959026	38710.333333
741.340760	38659.000000
742.721932	38713.666667
744.102541	38707.000000
745.482588	38528.000000
746.862073	38615.333333
748.240996	38406.333333
749.619358	38493.333333
750.997158	38461.666667
752.374398	38469.666667
753.751077	38439.666667
755.127197	38344.666667
756.502756	38376.333333
757.877756	38146.000000
759.252196	38177.000000
760.626078	38139.000000
761.999400	38122.000000
763.372165	37943.333333
764.744371	38091.000000
766.116020	37933.666667
767.487111	37980.666667
768.857646	37926.333333
770.227623	37671.333333
771.597044	37746.666667
772.965908	37593.000000
774.334217	37633.000000
775.701970	37661.000000
777.069168	37553.000000
778.435811	37459.666667
779.801899	37163.000000
781.167433	37310.333333
782.532412	37084.333333
783.896838	37120.666667
785.260710	36968.333333
786.624029	37180.666667
787.986796	37119.333333
789.349009	36990.666667
790.710671	36959.666667
792.071780	36694.333333
793.432338	36852.333333
794.792344	36606.000000
796.151799	36728.000000
797.510704	36595.666667
798.869058	36553.000000
800.226862	36743.666667
801.584116	36259.333333
802.940820	36535.000000
804.296975	36378.333333
805.652581	36355.000000
807.007638	36430.333333
808.362147	36558.000000
809.716108	36462.000000
811.069521	36385.333333
812.422387	36461.666667
813.774705	36363.333333
815.126476	36291.333333
816.477701	36265.666667
817.828380	36332.000000
819.178512	36258.666667
820.528099	36148.333333
821.877140	36124.333333
823.225637	36033.333333
824.573588	36022.000000
825.920995	35963.333333
827.267857	35898.000000
828.614176	35822.666667
829.959951	35854.000000
831.305183	35941.000000
832.649871	35774.333333
833.994017	35981.333333
835.337620	35602.000000
836.680681	35609.666667
838.023201	35736.666667
839.365178	35720.333333
840.706614	35781.666667
842.047510	35620.000000
843.387864	35814.666667
844.727678	35612.333333
846.066952	35727.333333
847.405687	35786.333333
848.743881	35821.666667
850.081537	35673.000000
851.418653	35875.000000
852.755231	35721.666667
854.091270	35717.333333
855.426771	35813.000000
856.761735	35707.666667
858.096160	35637.000000
859.430049	35551.000000
860.763401	35473.666667
862.096216	35294.000000
863.428495	35268.000000
864.760237	35277.666667
866.091444	35021.333333
867.422115	35172.333333
868.752252	34966.333333
870.081853	34930.333333
871.410919	34980.333333
872.739452	34985.666667
874.067450	34804.333333
875.394914	34841.333333
876.721845	34888.666667
878.048243	34748.000000
879.374108	34612.333333
880.699440	34578.666667
882.024240	34559.333333
883.348508	34565.333333
884.672244	34339.333333
885.995449	34353.333333
887.318122	34311.000000
888.640265	34185.000000
889.961877	34144.333333
891.282959	34088.333333
892.603510	33901.666667
893.923532	33905.333333
895.243024	33872.666667
896.561987	33592.000000
897.880422	33756.000000
899.198327	33732.000000
900.515705	33438.333333
901.832554	33522.000000
903.148875	33385.333333
904.464669	33538.666667
905.779936	33429.333333
907.094676	33436.666667
908.408889	33500.000000
909.722576	33455.000000
911.035737	33685.000000
912.348371	33424.333333
913.660481	33551.666667
914.972065	33699.333333
916.283124	33678.333333
917.593659	33707.333333
918.903669	33815.000000
920.213155	33854.000000
921.522117	33761.000000
922.830556	33598.000000
924.138471	33671.333333
925.445864	33635.666667
926.752733	33515.333333
928.059081	33568.333333
929.364906	33603.333333
930.670209	33609.000000
931.974991	33571.666667
933.279251	33901.000000
934.582990	33780.333333
935.886209	34038.000000
937.188907	34008.666667
938.491085	34339.000000
939.792743	34423.000000
941.093881	34633.333333
942.394500	35061.333333
943.694600	35372.666667
944.994181	35827.666667
946.293243	36299.666667
947.591787	36817.666667
948.889813	37606.000000
950.187322	38034.000000
951.484313	39228.333333
952.780787	40271.666667
954.076744	41325.333333
955.372184	42202.666667
956.667108	43134.333333
957.961516	43942.333333
959.255409	44066.666667
960.548785	44054.333333
961.841647	43454.000000
963.133993	42333.000000
964.425825	41167.000000
965.717142	39544.000000
967.007946	38424.000000
968.298235	37176.333333
969.588011	35972.000000
970.877273	34977.000000
972.166023	34220.333333
973.454259	33743.666667
974.741984	33102.333333
976.029196	32661.333333
977.315895	32217.000000
978.602084	31998.333333
979.887761	31818.333333
981.172926	31634.333333
982.457581	31292.666667
983.741725	31288.666667
985.025359	31170.666667
986.308483	31068.000000
987.591097	31159.333333
988.873202	31021.666667
990.154797	30722.333333
991.435883	30901.333333
992.716461	30789.333333
993.996530	30777.333333
995.276091	30709.000000
996.555144	30570.333333
997.833690	30826.000000
999.111728	30870.333333
1000.389259	30916.666667
1001.666283	31084.666667
1002.942800	30893.000000
1004.218812	30929.000000
1005.494317	30842.333333
1006.769317	30743.000000
1008.043811	30731.333333
1009.317799	30665.666667
1010.591283	30711.333333
1011.864263	30545.333333
1013.136737	30544.666667
1014.408708	30518.333333
1015.680175	30521.000000
1016.951138	30617.666667
1018.221598	30591.333333
1019.491554	30635.333333
1020.761008	30542.000000
1022.029959	30604.333333
1023.298408	30330.000000
1024.566355	30557.000000
1025.833800	30741.000000
1027.100744	30421.000000
1028.367187	30636.000000
1029.633128	30645.333333
1030.898569	30575.000000
1032.163509	30655.000000
1033.427949	30669.000000
1034.691890	30621.666667
1035.955330	30658.000000
1037.218271	30610.666667
1038.480714	30727.333333
1039.742657	30512.000000
1041.004101	30617.666667
1042.265048	30522.666667
1043.525496	30576.666667
1044.785446	30532.666667
1046.044899	30525.666667
1047.303855	30476.666667
1048.562313	30211.666667
1049.820275	30288.000000
1051.077740	30395.000000
1052.334709	30316.000000
1053.591182	30154.333333
1054.847160	30174.333333
1056.102641	30177.666667
1057.357628	30096.000000
1058.612120	30191.333333
1059.866117	30071.333333
1061.119619	30098.666667
1062.372628	30167.333333
1063.625142	30294.000000
1064.877163	30404.333333
1066.128691	30353.000000
1067.379725	30407.666667
1068.630267	30404.333333
1069.880316	30352.000000
1071.129872	30321.333333
1072.378937	30443.333333
1073.627509	30298.000000
1074.875590	29961.333333
1076.123180	30018.333333
1077.370279	29626.333333
1078.616887	29696.000000
1079.863004	29252.000000
1081.108631	29257.000000
1082.353768	29063.000000
1083.598415	28856.333333
1084.842573	28598.666667
1086.086241	28493.000000
1087.329421	28497.333333
1088.572111	28374.333333
1089.814314	28207.333333
1091.056028	28056.666667
1092.297253	27866.333333
1093.537992	28072.333333
1094.778242	27857.666667
1096.018006	27885.333333
1097.257282	27883.333333
1098.496072	27615.333333
1099.734376	27782.333333
1100.972193	27733.000000
1102.209524	27722.666667
1103.446370	27677.666667
1104.682730	27641.666667
1105.918604	27632.666667
1107.153994	27487.666667
1108.388900	27475.333333
1109.623320	27320.000000
1110.857257	27416.000000
1112.090710	27287.666667
1113.323679	27200.333333
1114.556164	27034.333333
1115.788167	27136.000000
1117.019686	26829.666667
1118.250723	26917.666667
1119.481278	26929.333333
1120.711350	26645.333333
1121.940940	26806.000000
1123.170049	26703.666667
1124.398676	26748.666667
1125.626823	26747.000000
1126.854488	26780.000000
1128.081672	26667.000000
1129.308376	26475.666667
1130.534600	26603.333333
1131.760345	26460.000000
1132.985609	26445.000000
1134.210394	26567.333333
1135.434700	26488.333333
1136.658527	26399.666667
1137.881875	26462.666667
1139.104745	26291.333333
1140.327136	26317.000000
1141.549050	26320.000000
1142.770486	26327.333333
1143.991445	26395.666667
1145.211926	26277.666667
1146.431931	26187.333333
1147.651459	26299.333333
1148.870510	26245.333333
1150.089086	26321.666667
1151.307185	26246.000000
1152.524808	26134.666667
1153.741957	26111.666667
1154.958630	26050.666667
1156.174828	26073.000000
1157.390551	26036.333333
1158.605800	25888.000000
1159.820574	25970.000000
1161.034875	25899.000000
1162.248702	25872.000000
1163.462055	25896.000000
1164.674936	25966.000000
1165.887343	25824.000000
1167.099277	25954.333333
1168.310739	25854.666667
1169.521729	25865.666667
1170.732247	25739.000000
1171.942293	25914.000000
1173.151867	25664.000000
1174.360970	25862.000000
1175.569602	25758.333333
1176.777764	25729.333333
1177.985454	25645.000000
1179.192675	25580.666667
1180.399425	25672.666667
1181.605706	25366.000000
1182.811517	25510.666667
1184.016859	25488.666667
1185.221731	25335.000000
1186.426135	25252.333333
1187.630070	25210.333333
1188.833537	25125.666667
1190.036535	24991.666667
1191.239066	25142.666667
1192.441129	25012.000000
1193.642725	25046.000000
1194.843853	24903.666667
1196.044515	25130.000000
1197.244710	25019.666667
1198.444438	25042.333333
1199.643701	24906.666667
1200.842497	24963.666667
1202.040827	24851.000000
1203.238693	24904.666667
1204.436092	24882.333333
1205.633027	24892.666667
1206.829497	24756.000000
1208.025503	24831.333333
1209.221044	24801.000000
1210.416122	24606.666667
1211.610735	24639.333333
1212.804885	24509.666667
1213.998572	24385.000000
1215.191795	24594.000000
1216.384556	24364.666667
1217.576854	24384.333333
1218.768689	24209.333333
1219.960063	24241.333333
1221.150974	24140.000000
1222.341424	24181.666667
1223.531413	24051.000000
1224.720940	24114.666667
1225.910006	24129.000000
1227.098612	24227.000000
1228.286757	24231.666667
1229.474442	24397.333333
1230.661667	24444.000000
1231.848432	24285.333333
1233.034738	24322.000000
1234.220584	24392.666667
1235.405971	24482.666667
1236.590900	24628.333333
1237.775369	24543.333333
1238.959381	24496.333333
1240.142934	24467.000000
1241.326029	24387.333333
1242.508667	24602.666667
1243.690848	24525.000000
1244.872571	24558.000000
1246.053837	24569.333333
1247.234646	24410.000000
1248.414999	24419.666667
1249.594896	24393.666667
1250.774337	24226.000000
1251.953322	24217.000000
1253.131851	24187.666667
1254.309925	24118.666667
1255.487544	24137.333333
1256.664708	23940.666667
1257.841417	23999.333333
1259.017673	23941.333333
1260.193473	24029.000000
1261.368820	24119.333333
1262.543714	23922.000000
1263.718154	24118.000000
1264.892140	24033.000000
1266.065674	24172.333333
1267.238755	24024.333333
1268.411383	24051.333333
1269.583559	23998.000000
1270.755283	23997.666667
1271.926555	24050.333333
1273.097375	24000.000000
1274.267744	23952.333333
1275.437662	23840.333333
1276.607129	23978.666667
1277.776145	23756.666667
1278.944711	23828.666667
1280.112827	23843.333333
1281.280492	23670.333333
1282.447708	23559.666667
1283.614474	23553.000000
1284.780791	23520.666667
1285.946659	23556.666667
1287.112078	23416.000000
1288.277048	23315.333333
1289.441570	23294.000000
1290.605644	23136.333333
1291.769270	23106.333333
1292.932448	23061.666667
1294.095178	22958.000000
1295.257461	22972.666667
1296.419298	22929.333333
1297.580687	22808.333333
1298.741630	22872.000000
1299.902126	22799.666667
1301.062177	22795.666667
1302.221781	22841.000000
1303.380940	22684.000000
1304.539653	22894.666667
1305.697921	22648.666667
1306.855744	22809.666667
1308.013123	22831.333333
1309.170056	22825.666667
1310.326546	22714.333333
1311.482591	22827.000000
1312.638193	22655.000000
1313.793350	22742.000000
1314.948065	22579.666667
1316.102336	22676.000000
1317.256164	22465.000000
1318.409550	22673.333333
1319.562493	22486.333333
1320.714993	22546.333333
1321.867052	22351.666667
1323.018668	22463.000000
1324.169843	22330.666667
1325.320577	22250.666667
1326.470870	22188.666667
1327.620721	22178.333333
1328.770132	22010.666667
1329.919102	21996.333333
1331.067632	21971.000000
1332.215722	21971.666667
1333.363372	22009.666667
1334.510582	21815.000000
1335.657353	22013.666667
1336.803685	21907.666667
1337.949578	21995.666667
1339.095032	22120.333333
1340.240048	22076.000000
1341.384625	22060.000000
1342.528764	21992.666667
1343.672466	21939.333333
1344.815729	22033.333333
1345.958556	22003.666667
1347.100945	21841.666667
1348.242897	21811.666667
1349.384413	21810.666667
1350.525492	21853.666667
1351.666134	21777.000000
1352.806341	21653.000000
1353.946111	21732.333333
1355.085446	21532.333333
1356.224346	21604.666667
1357.362810	21531.000000
1358.500840	21431.333333
1359.638434	21485.666667
1360.775594	21462.000000
1361.912320	21346.000000
1363.048612	21253.666667
1364.184469	21234.666667
1365.319893	21220.000000
1366.454884	21276.333333
1367.589441	21391.000000
1368.723566	21273.666667
1369.857257	21277.666667
1370.990516	21177.333333
1372.123343	21274.000000
1373.255737	21236.666667
1374.387699	21324.666667
1375.519230	21202.000000
1376.650329	21251.333333
1377.780997	21264.666667
1378.911234	21263.666667
1380.041040	21385.666667
1381.170416	21318.666667
1382.299361	21220.333333
1383.427875	21161.666667
1384.555960	21146.333333
1385.683615	21278.666667
1386.810841	21182.333333
1387.937637	21208.333333
1389.064004	21064.666667
1390.189942	21052.000000
1391.315451	21049.000000
1392.440532	20896.333333
1393.565185	20855.333333
1394.689409	20889.666667
1395.813206	20803.333333
1396.936575	20841.333333
1398.059517	20710.666667
1399.182032	20643.000000
1400.304119	20700.333333
1401.425780	20665.666667
1402.547014	20512.666667
1403.667822	20631.000000
1404.788204	20510.666667
1405.908160	20586.333333
1407.027690	20477.333333
1408.146795	20440.000000
1409.265474	20434.000000
1410.383728	20518.000000
1411.501558	20521.666667
1412.618963	20420.666667
1413.735943	20401.000000
1414.852499	20480.000000
1415.968632	20560.666667
1417.084340	20498.666667
1418.199625	20639.000000
1419.314486	20566.000000
1420.428925	20535.000000
1421.542940	20575.333333
1422.656533	20653.666667
1423.769703	20384.000000
1424.882451	20560.666667
1425.994777	20449.333333
1427.106680	20240.666667
1428.218163	20159.000000
1429.329223	20304.333333
1430.439863	20201.333333
1431.550081	20131.666667
1432.659879	20034.666667
1433.769256	20126.333333
1434.878212	20087.666667
1435.986749	20049.000000
1437.094865	20211.666667
1438.202562	20018.333333
1439.309839	19972.666667
1440.416696	20025.333333
1441.523135	20039.333333
1442.629154	20113.000000
1443.734755	20170.333333
1444.839937	20190.333333
1445.944701	20249.666667
1447.049047	20354.000000
1448.152975	20384.666667
1449.256485	20148.666667
1450.359577	20275.333333
1451.462253	20171.666667
1452.564511	20255.000000
1453.666352	20255.666667
1454.767777	20075.666667
1455.868785	20187.666667
1456.969377	20146.333333
1458.069553	20136.333333
1459.169313	19944.000000
1460.268658	19911.666667
1461.367587	19805.333333
1462.466101	19772.000000
1463.564200	19740.000000
1464.661884	19643.666667
1465.759153	19638.333333
1466.856008	19552.000000
1467.952449	19381.333333
1469.048476	19243.666667
1470.144089	19128.666667
1471.239288	19084.333333
1472.334074	19099.666667
1473.428447	18818.666667
1474.522407	18969.666667
1475.615955	18814.666667
1476.709089	18678.333333
1477.801812	18724.666667
1478.894122	18615.666667
1479.986020	18518.000000
1481.077506	18569.666667
1482.168581	18568.333333
1483.259245	18642.333333
1484.349498	18609.000000
1485.439339	18566.333333
1486.528770	18487.666667
1487.617790	18419.333333
1488.706400	18470.333333
1489.794600	18382.333333
1490.882390	18369.333333
1491.969771	18318.333333
1493.056742	18302.666667
1494.143303	18399.666667
1495.229456	18327.000000
1496.315199	18384.333333
1497.400534	18327.000000
1498.485460	18236.666667
1499.569978	18240.333333
1500.654088	18201.666667
1501.737790	18170.666667
1502.821085	18104.666667
1503.903972	18028.666667
1504.986451	18009.666667
1506.068524	17907.000000
1507.150189	17976.000000
1508.231448	17826.333333
1509.312301	17695.666667
1510.392747	17887.333333
1511.472787	17740.666667
1512.552422	17657.333333
1513.631650	17606.333333
1514.710473	17618.666667
1515.788891	17623.000000
1516.866904	17553.333333
1517.944512	17670.333333
1519.021715	17638.333333
1520.098513	17592.333333
1521.174908	17683.666667
1522.250898	17569.666667
1523.326485	17655.333333
1524.401667	17571.000000
1525.476447	17635.000000
1526.550823	17602.000000
1527.624796	17660.000000
1528.698365	17652.000000
1529.771533	17502.333333
1530.844298	17639.666667
1531.916660	17583.000000
1532.988620	17572.000000
1534.060179	17680.000000
1535.131336	17526.000000
1536.202091	17537.000000
1537.272445	17554.000000
1538.342398	17407.666667
1539.411950	17383.000000
1540.481101	17422.333333
1541.549851	17233.666667
1542.618202	17213.000000
1543.686152	17179.666667
1544.753702	17162.000000
1545.820853	17132.333333
1546.887604	17031.666667
1547.953955	17013.333333
1549.019908	17067.666667
1550.085461	16931.333333
1551.150616	16859.333333
1552.215372	16782.666667
1553.279730	16955.666667
1554.343690	16763.000000
1555.407252	16778.000000
1556.470415	16694.333333
1557.533182	16723.666667
1558.595551	16736.333333
1559.657522	16732.333333
1560.719097	16662.000000
1561.780275	16867.000000
1562.841056	16746.333333
1563.901441	16933.000000
1564.961429	16701.333333
1566.021022	16727.666667
1567.080219	16755.333333
1568.139020	16714.333333
1569.197425	16725.000000
1570.255436	16665.666667
1571.313051	16707.333333
1572.370271	16559.333333
1573.427097	16621.000000
1574.483528	16684.666667
1575.539565	16580.000000
1576.595208	16578.666667
1577.650457	16560.666667
1578.705312	16459.000000
1579.759774	16385.666667
1580.813842	16415.000000
1581.867517	16364.666667
1582.920799	16354.000000
1583.973689	16225.000000
1585.026186	16228.666667
1586.078290	16096.333333
1587.130002	16205.666667
1588.181323	16068.000000
1589.232251	15936.000000
1590.282788	15986.666667
1591.332933	15898.666667
1592.382688	15956.000000
1593.432051	15987.333333
1594.481023	15890.000000
1595.529605	15948.333333
1596.577796	16151.000000
1597.625597	15871.000000
1598.673007	15917.333333
1599.720028	16120.333333
1600.766660	15974.333333
1601.812901	16047.333333
1602.858753	16096.666667
1603.904217	16040.666667
1604.949291	16098.000000
1605.993976	16046.000000
1607.038273	15916.000000
1608.082182	15980.333333
1609.125702	16089.666667
1610.168834	16025.000000
1611.211579	15991.666667
1612.253935	16010.000000
1613.295905	15801.333333
1614.337487	15882.333333
1615.378682	15911.333333
1616.419490	15778.000000
1617.459912	15768.333333
1618.499946	15758.666667
1619.539595	15693.666667
1620.578858	15702.333333
1621.617734	15666.000000
1622.656225	15580.000000
1623.694330	15579.000000
1624.732050	15624.000000
1625.769385	15546.333333
1626.806334	15475.333333
1627.842899	15451.333333
1628.879079	15436.666667
1629.914875	15487.333333
1630.950286	15378.333333
1631.985314	15487.000000
1633.019957	15443.666667
1634.054217	15446.666667
1635.088093	15409.666667
1636.121586	15535.000000
1637.154696	15486.333333
1638.187423	15442.666667
1639.219767	15553.333333
1640.251728	15452.666667
1641.283307	15496.666667
1642.314504	15456.000000
1643.345319	15517.000000
1644.375751	15520.333333
1645.405803	15444.333333
1646.435472	15524.333333
1647.464761	15483.000000
1648.493668	15553.666667
1649.522194	15516.000000
1650.550340	15366.333333
1651.578105	15376.000000
1652.605490	15428.666667
1653.632494	15375.333333
1654.659119	15366.000000
1655.685363	15330.333333
1656.711228	15210.666667
1657.736714	15166.666667
1658.761820	15139.333333
1659.786547	15110.000000
1660.810895	15098.333333
1661.834865	15004.333333
1662.858456	14989.000000
1663.881668	14957.666667
1664.904503	14844.000000
1665.926959	14843.666667
1666.949038	14805.000000
1667.970739	14666.333333
1668.992062	14682.000000
1670.013008	14627.333333
1671.033577	14600.333333
1672.053770	14560.333333
1673.073585	14645.333333
1674.093024	14507.666667
1675.112086	14649.666667
1676.130773	14534.333333
1677.149083	14527.000000
1678.167017	14555.666667
1679.184576	14480.000000
1680.201760	14595.666667
1681.218568	14579.000000
1682.235001	14525.000000
1683.251059	14484.666667
1684.266742	14526.000000
1685.282051	14412.000000
1686.296985	14412.333333
1687.311546	14314.333333
1688.325732	14317.000000
1689.339544	14245.000000
1690.352983	14192.000000
1691.366048	14142.666667
1692.378740	14141.333333
1693.391058	14110.333333
1694.403004	14126.000000
1695.414577	13935.333333
1696.425778	13975.333333
1697.436606	13998.000000
1698.447061	13862.000000
1699.457145	13896.333333
1700.466857	13807.666667
1701.476197	13815.000000
1702.485166	13694.666667
1703.493763	13547.333333
1704.501989	13523.333333
1705.509844	13563.666667
1706.517328	13445.333333
1707.524442	13363.333333
1708.531185	13441.666667
1709.537558	13318.333333
1710.543561	13317.666667
1711.549194	13340.000000
1712.554457	13222.000000
1713.559351	13298.000000
1714.563875	13287.333333
1715.568030	13365.666667
1716.571816	13265.666667
1717.575233	13374.000000
1718.578282	13496.333333
1719.580962	13362.666667
1720.583273	13471.000000
1721.585217	13461.000000
1722.586792	13469.000000
1723.588000	13566.333333
1724.588840	13572.333333
1725.589312	13575.000000
1726.589418	13426.333333
1727.589156	13609.666667
1728.588527	13482.666667
1729.587532	13538.666667
1730.586170	13608.666667
1731.584441	13458.000000
1732.582346	13486.333333
1733.579886	13526.666667
1734.577059	13457.000000
1735.573867	13410.000000
1736.570309	13392.666667
1737.566386	13272.666667
1738.562097	13283.666667
1739.557444	13177.666667
1740.552426	13165.333333
1741.547043	13164.666667
1742.541295	13099.000000
1743.535184	13124.000000
1744.528708	12933.333333
1745.521868	12962.666667
1746.514664	12995.333333
1747.507097	12902.666667
1748.499166	12991.000000
1749.490873	12839.666667
1750.482216	12798.333333
1751.473196	12790.666667
1752.463813	12817.000000
1753.454068	12779.000000
1754.443960	12736.000000
1755.433490	12715.000000
1756.422658	12728.666667
1757.411464	12737.000000
1758.399908	12745.000000
1759.387991	12702.000000
1760.375713	12739.666667
1761.363073	12711.666667
1762.350072	12623.333333
1763.336711	12714.666667
1764.322988	12615.666667
1765.308905	12560.666667
1766.294462	12462.666667
1767.279659	12459.000000
1768.264496	12469.666667
1769.248972	12533.000000
1770.233089	12392.000000
1771.216847	12460.333333
1772.200245	12356.333333
1773.183284	12322.666667
1774.165965	12286.333333
1775.148286	12223.000000
1776.130249	12124.333333
1777.111853	12089.000000
1778.093099	12086.666667
1779.073987	12014.000000
1780.054517	11962.000000
1781.034689	11857.333333
1782.014503	11817.000000
1782.993960	11722.333333
1783.973060	11740.666667
1784.951802	11619.333333
1785.930188	11612.666667
1786.908217	11511.333333
1787.885889	11498.000000
1788.863205	11429.666667
1789.840164	11449.333333
1790.816768	11305.333333
1791.793015	11457.666667
1792.768907	11441.333333
1793.744443	11445.000000
1794.719624	11467.333333
1795.694449	11420.666667
1796.668919	11427.333333
1797.643035	11429.333333
1798.616795	11536.333333
1799.590201	11480.333333
1800.563253	11481.000000
1801.535950	11534.333333
1802.508294	11492.000000
1803.480283	11359.333333
1804.451919	11493.000000
1805.423201	11485.666667
1806.394129	11575.666667
1807.364705	11411.000000
1808.334927	11474.333333
1809.304796	11390.666667
1810.274313	11517.666667
1811.243477	11685.333333
1812.212288	11408.000000
1813.180747	11471.666667
1814.148855	11582.666667
1815.116610	11452.333333
1816.084013	11398.666667
1817.051065	11453.666667
1818.017766	11444.000000
1818.984115	11506.333333
1819.950113	11377.000000
1820.915760	11481.333333
1821.881057	11344.333333
1822.846003	11411.666667
1823.810598	11312.000000
1824.774843	11231.666667
1825.738738	11192.333333
1826.702283	11367.000000
1827.665479	11135.000000
1828.628324	11234.333333
1829.590821	11267.000000
1830.552968	11144.666667
1831.514765	11142.666667
1832.476214	11103.000000
1833.437314	11087.333333
1834.398066	10991.666667
1835.358469	10976.000000
1836.318524	11056.333333
1837.278230	11089.333333
1838.237589	11040.000000
1839.196600	11066.000000
1840.155263	11016.000000
1841.113578	10986.000000
1842.071547	11039.000000
1843.029168	11039.000000
1843.986442	10996.000000
1844.943369	11042.333333
1845.899950	10985.000000
1846.856184	10992.666667
1847.812072	10975.333333
1848.767614	10985.666667
1849.722809	10908.333333
1850.677659	10962.333333
1851.632163	10951.333333
1852.586322	10949.666667
1853.540135	10815.666667
1854.493603	10816.666667
1855.446726	10937.666667
1856.399504	10739.333333
1857.351937	10789.000000
1858.304026	10702.000000
1859.255770	10677.666667
1860.207170	10660.666667
1861.158227	10641.000000
1862.108939	10531.666667
1863.059307	10516.000000
1864.009332	10533.666667
1864.959013	10441.333333
1865.908351	10414.666667
1866.857346	10275.000000
1867.805998	10278.333333
1868.754307	10176.666667
1869.702274	10213.333333
1870.649898	10132.333333
1871.597180	10151.000000
1872.544119	10133.666667
1873.490717	9956.666667
1874.436973	10032.000000
1875.382887	9891.333333
1876.328459	9941.333333
1877.273691	9911.333333
1878.218581	9874.333333
1879.163130	9966.000000
1880.107338	9981.333333
1881.051205	9956.333333
1881.994732	9932.333333
1882.937919	9987.333333
1883.880765	10049.000000
1884.823271	10050.666667
1885.765437	10074.333333
1886.707264	10014.000000
1887.648750	10083.000000
1888.589898	10037.333333
1889.530706	10140.666667
1890.471175	10101.333333
1891.411305	10065.000000
1892.351096	10048.000000
1893.290548	10180.000000
1894.229662	10058.666667
1895.168438	10073.666667
1896.106876	10040.000000
1897.044975	9974.666667
1897.982737	10125.000000
1898.920160	10039.000000
1899.857247	10079.666667
1900.793996	9941.666667
1901.730407	9986.333333
1902.666482	9898.666667
1903.602219	9884.000000
1904.537620	9893.333333
1905.472685	9846.666667
1906.407412	9671.333333
1907.341804	9742.000000
1908.275859	9695.000000
1909.209579	9654.000000
1910.142962	9628.000000
1911.076010	9528.333333
1912.008722	9471.000000
1912.941099	9414.000000
1913.873141	9406.666667
1914.804848	9354.666667
1915.736219	9273.666667
1916.667256	9299.666667
1917.597959	9247.666667
1918.528327	9158.666667
1919.458360	9131.000000
1920.388060	9197.333333
1921.317426	9108.000000
1922.246457	9173.666667
1923.175156	9109.000000
1924.103520	9128.000000
1925.031552	9147.666667
1925.959250	9071.000000
1926.886615	9110.666667
1927.813647	9059.333333
1928.740346	9116.666667
1929.666713	9160.000000
1930.592748	9131.000000
1931.518450	9046.333333
1932.443820	9066.666667
1933.368858	9120.333333
1934.293564	9076.333333
1935.217939	9077.333333
1936.141982	9076.000000
1937.065694	9077.333333
1937.989074	9052.333333
1938.912124	9065.666667
1939.834842	9029.666667
1940.757230	8933.000000
1941.679287	8932.000000
1942.601014	8933.000000
1943.522411	8869.333333
1944.443477	8867.000000
1945.364214	8758.666667
1946.284621	8802.666667
1947.204698	8683.000000
1948.124445	8714.666667
1949.043863	8653.333333
1949.962952	8613.333333
1950.881712	8625.333333
1951.800143	8463.666667
1952.718245	8512.000000
1953.636019	8430.333333
1954.553464	8496.000000
1955.470581	8368.000000
1956.387369	8330.666667
1957.303830	8320.000000
1958.219963	8316.666667
1959.135768	8369.000000
1960.051246	8329.333333
1960.966396	8367.333333
1961.881219	8382.000000
1962.795715	8291.000000
1963.709883	8306.000000
1964.623726	8397.666667
1965.537241	8362.333333
1966.450430	8360.333333
1967.363293	8425.000000
1968.275829	8407.666667
1969.188040	8415.666667
1970.099924	8437.333333
1971.011483	8497.000000
1971.922716	8495.000000
1972.833624	8531.666667
1973.744206	8498.666667
1974.654464	8474.000000
1975.564396	8423.333333
1976.474004	8436.666667
1977.383286	8443.666667
1978.292245	8458.333333
1979.200878	8342.666667
1980.109188	8410.000000
1981.017174	8285.666667
1981.924835	8265.666667
1982.832173	8240.333333
1983.739187	8105.666667
1984.645878	8077.000000
1985.552245	8057.000000
1986.458289	8055.666667
1987.364010	7993.666667
1988.269408	7976.000000
1989.174484	7995.333333
1990.079236	7952.000000
1990.983667	7901.000000
1991.887775	7955.666667
1992.791561	7974.666667
1993.695024	7823.333333
1994.598166	7789.666667
1995.500986	7842.666667
1996.403485	7786.333333
1997.305662	7801.000000
1998.207518	7747.666667
1999.109053	7772.666667
