200.151048	61082.333333
201.758777	60713.000000
203.365815	60824.000000
204.972162	60828.666667
206.577820	60943.000000
208.182787	60714.666667
209.787065	60800.666667
211.390653	60792.333333
212.993553	60655.000000
214.595765	60494.000000
216.197289	60614.666667
217.798125	60533.000000
219.398274	60604.000000
220.997737	60629.333333
222.596513	60567.000000
224.194603	60386.000000
225.792008	60512.666667
227.388728	60465.333333
228.984763	60326.000000
230.580114	60404.666667
232.174781	60541.666667
233.768765	60518.333333
235.362065	60531.000000
236.954683	60359.000000
238.546619	60290.666667
240.137872	60367.000000
241.728445	60380.666667
243.318336	60255.000000
244.907546	60089.000000
246.496076	60263.000000
248.083926	59985.333333
249.671097	60098.000000
251.257589	59671.666667
252.843402	59674.333333
254.428536	59550.333333
256.012993	59355.333333
257.596772	59240.333333
259.179874	59137.000000
260.762300	58955.000000
262.344049	59180.000000
263.925122	59162.333333
265.505519	59008.666667
267.085241	58915.333333
268.664289	58996.000000
270.242662	59068.000000
271.820361	59047.666667
273.397387	59003.333333
274.973740	59130.666667
276.549419	59350.333333
278.124426	59194.666667
279.698762	59575.000000
281.272425	59498.666667
282.845417	59643.333333
284.417739	59487.333333
285.989390	59678.666667
287.560371	59899.333333
289.130682	59561.000000
290.700324	59672.000000
292.269297	59743.000000
293.837602	59669.000000
295.405238	59633.000000
296.972207	59343.666667
298.538508	59607.333333
300.104142	59402.000000
301.669110	59382.333333
303.233411	59366.333333
304.797047	59071.000000
306.360017	58941.666667
307.922322	58878.666667
309.483963	58909.666667
311.044939	58675.333333
312.605252	58728.666667
314.164900	58647.333333
315.723886	58407.000000
317.282209	58315.000000
318.839870	58183.000000
320.396868	58299.333333
321.953205	58123.333333
323.508881	57907.666667
325.063896	57793.666667
326.618251	58092.333333
328.171945	57985.333333
329.724980	57921.333333
331.277356	57810.666667
332.829072	58045.000000
334.380131	57987.666667
335.930530	57763.666667
337.480273	57915.666667
339.029357	58000.666667
340.577785	57918.333333
342.125556	57936.666667
343.672671	58165.333333
345.219130	58024.333333
346.764933	58077.000000
348.310081	58133.666667
349.854575	58297.666667
351.398414	58254.333333
352.941599	58125.000000
354.484130	58084.000000
356.026008	57944.666667
357.567234	58140.666667
359.107807	57917.333333
360.647727	58045.333333
362.186996	57869.333333
363.725614	57914.333333
365.263580	57768.333333
366.800896	57614.000000
368.337562	57701.000000
369.873578	57731.333333
371.408944	57296.666667
372.943661	57359.333333
374.477730	57331.333333
376.011150	57494.333333
377.543922	57474.666667
379.076046	57384.000000
380.607523	57280.333333
382.138353	57236.666667
383.668537	57381.333333
385.198075	57354.333333
386.726966	57274.333333
388.255213	57366.666667
389.782814	57157.000000
391.309770	57316.333333
392.836083	57365.000000
394.361751	57373.000000
395.886776	57440.666667
397.411157	57526.000000
398.934896	57537.000000
400.457992	57495.000000
401.980446	57536.333333
403.502258	57769.666667
405.023429	57491.666667
406.543959	57481.666667
408.063849	57581.666667
409.583098	57623.666667
411.101707	57806.000000
412.619677	57972.000000
414.137007	58126.000000
415.653699	58288.666667
417.169752	58367.666667
418.685167	58552.333333
420.199945	58693.333333
421.714085	59152.333333
423.227588	59190.666667
424.740454	59237.666667
426.252684	59471.333333
427.764279	59383.666667
429.275238	59549.666667
430.785561	59323.000000
432.295250	59061.333333
433.804304	58694.666667
435.312725	58654.666667
436.820511	58608.666667
438.327664	58226.666667
439.834185	58150.666667
441.340072	57910.000000
442.845327	57738.666667
444.349951	57461.000000
445.853942	57432.333333
447.357303	57352.000000
448.860033	57203.000000
450.362132	56951.333333
451.863601	57035.666667
453.364440	56700.000000
454.864650	56533.000000
456.364231	56413.000000
457.863183	56014.666667
459.361507	55892.333333
460.859203	55857.666667
462.356271	55296.666667
463.852712	55406.000000
465.348526	55404.000000
466.843714	55312.666667
468.338275	54973.333333
469.832210	54997.333333
471.325520	54946.000000
472.818205	54681.666667
474.310265	54609.666667
475.801700	54460.333333
477.292512	54641.000000
478.782700	54537.666667
480.272264	54413.333333
481.761205	54673.666667
483.249524	54516.333333
484.737221	54282.333333
486.224295	54210.000000
487.710748	54098.666667
489.196579	54169.333333
490.681790	54006.333333
492.166380	53975.666667
493.650350	54016.333333
495.133700	54054.666667
496.616431	53766.333333
498.098542	53894.666667
499.580035	53808.333333
501.060909	53929.666667
502.541165	53709.666667
504.020804	53687.666667
505.499825	53537.000000
506.978228	53491.666667
508.456016	53307.666667
509.933186	53405.333333
511.409741	53292.666667
512.885680	53101.000000
514.361004	53328.333333
515.835713	53146.666667
517.309807	53052.333333
518.783287	52971.333333
520.256153	52965.000000
521.728406	52892.000000
523.200045	52955.666667
524.671071	52950.666667
526.141485	52864.000000
527.611287	52672.333333
529.080476	52560.000000
530.549054	52570.000000
532.017021	52574.666667
533.484378	52626.000000
534.951123	52592.000000
536.417259	52529.000000
537.882785	52254.333333
539.347701	52499.333333
540.812008	52193.666667
542.275707	52221.333333
543.738797	52099.666667
545.201279	52213.666667
546.663153	52262.333333
548.124420	52341.666667
549.585080	52211.000000
551.045133	52447.333333
552.504579	52452.333333
553.963420	52592.000000
555.421655	52513.000000
556.879285	52479.666667
558.336309	52433.666667
559.792729	52502.000000
561.248545	52347.000000
562.703756	52368.666667
564.158364	52469.666667
565.612369	52458.333333
567.065770	52541.000000
568.518569	52606.333333
569.970766	52590.333333
571.422361	52680.333333
572.873354	52742.666667
574.323745	52904.333333
575.773536	53231.333333
577.222726	53111.666667
578.671316	53274.333333
580.119306	53084.333333
581.566696	53148.666667
583.013487	52992.000000
584.459679	52925.000000
585.905273	52924.000000
587.350268	52727.000000
588.794665	52848.333333
590.238465	52728.666667
591.681667	52656.333333
593.124272	52436.333333
594.566281	52153.666667
596.007694	51916.000000
597.448510	51674.000000
598.888731	51508.333333
600.328357	51556.000000
601.767388	51171.000000
603.205824	51187.333333
604.643666	50992.666667
606.080914	51049.000000
607.517568	50907.666667
608.953629	50861.666667
610.389097	51002.000000
611.823972	50719.666667
613.258255	50586.333333
614.691946	50443.666667
616.125046	50625.000000
617.557554	50188.000000
618.989471	50052.000000
620.420798	49807.333333
621.851534	49741.000000
623.281680	49369.000000
624.711237	49291.000000
626.140204	49084.000000
627.568582	49043.333333
628.996372	49129.333333
630.423573	48883.000000
631.850186	48909.666667
633.276211	48860.666667
634.701650	48806.000000
636.126501	48542.000000
637.550765	48746.000000
638.974443	48641.666667
640.397535	48491.000000
641.820041	48587.333333
643.241961	48583.333333
644.663297	48614.666667
646.084048	48238.000000
647.504214	48288.000000
648.923796	48057.000000
650.342795	48181.000000
651.761210	48122.333333
653.179041	47954.666667
654.596290	47755.000000
656.012957	47990.666667
657.429041	47890.333333
658.844543	47551.333333
660.259464	47703.666667
661.673804	47778.333333
663.087563	47585.666667
664.500741	47434.333333
665.913339	47584.333333
667.325357	47475.333333
668.736795	47493.333333
670.147654	47298.000000
671.557934	47207.666667
672.967636	47024.000000
674.376759	47154.000000
675.785304	47014.666667
677.193271	46900.666667
678.600661	47037.666667
680.007474	46921.000000
681.413711	46824.666667
682.819370	46740.000000
684.224454	46664.000000
685.628962	46570.333333
687.032895	46715.666667
688.436252	46528.666667
689.839034	46481.333333
691.241242	46558.000000
692.642876	46405.666667
694.043936	46279.333333
695.444422	46271.000000
696.844336	46328.333333
698.243676	45952.666667
699.642443	46077.333333
701.040639	46116.666667
702.438262	46114.333333
703.835313	45972.000000
705.231794	45779.666667
706.627703	45876.000000
708.023041	45634.333333
709.417810	45725.000000
710.812008	45584.000000
712.205636	45878.333333
713.598694	45525.000000
714.991184	45358.333333
716.383105	45533.666667
717.774457	45479.666667
719.165241	45465.333333
720.555457	45266.666667
721.945105	45244.666667
723.334187	45157.000000
724.722701	45316.333333
726.110648	45215.000000
727.498030	45281.333333
728.884845	45262.000000
730.271094	44934.666667
731.656778	45167.666667
733.041897	45089.666667
734.426451	44971.333333
735.810441	44898.666667
737.193866	45106.333333
738.576728	44890.666667
739.959026	44903.666667
741.340760	44682.666667
742.721932	44748.666667
744.102541	44614.666667
745.482588	44549.333333
746.862073	44764.666667
748.240996	44510.333333
749.619358	44448.000000
750.997158	44299.000000
752.374398	44335.000000
753.751077	44357.666667
755.127197	44307.666667
756.502756	44290.000000
757.877756	44001.666667
759.252196	44275.000000
760.626078	44045.333333
761.999400	44116.000000
763.372165	44077.666667
764.744371	44088.666667
766.116020	44068.333333
767.487111	43949.666667
768.857646	43827.333333
770.227623	43457.000000
771.597044	43510.333333
772.965908	43468.666667
774.334217	43506.666667
775.701970	43375.333333
777.069168	43472.666667
778.435811	43224.000000
779.801899	43056.333333
781.167433	43161.666667
782.532412	42947.333333
783.896838	43033.666667
785.260710	42781.666667
786.624029	42755.000000
787.986796	42718.666667
789.349009	42751.000000
790.710671	42649.000000
792.071780	42711.000000
793.432338	42492.666667
794.792344	42559.666667
796.151799	42589.333333
797.510704	42275.000000
798.869058	42196.333333
800.226862	42290.333333
801.584116	42179.666667
802.940820	42222.000000
804.296975	42205.000000
805.652581	42108.666667
807.007638	42051.666667
808.362147	42280.333333
809.716108	42180.000000
811.069521	41932.666667
812.422387	41957.000000
813.774705	42081.333333
815.126476	42002.666667
816.477701	41937.666667
817.828380	41884.333333
819.178512	41772.000000
820.528099	41641.666667
821.877140	41864.333333
823.225637	41572.333333
824.573588	41449.666667
825.920995	41454.666667
827.267857	41435.000000
828.614176	41297.666667
829.959951	41384.666667
831.305183	41294.333333
832.649871	41085.333333
833.994017	41267.000000
835.337620	41181.333333
836.680681	41076.666667
838.023201	41142.333333
839.365178	41113.000000
840.706614	41038.000000
842.047510	41031.000000
843.387864	41079.666667
844.727678	41038.333333
846.066952	41117.000000
847.405687	41095.333333
848.743881	41195.000000
850.081537	40938.666667
851.418653	41237.333333
852.755231	41081.333333
854.091270	40945.333333
855.426771	41102.333333
856.761735	40848.666667
858.096160	40872.000000
859.430049	40654.000000
860.763401	40611.000000
862.096216	40552.666667
863.428495	40559.333333
864.760237	40473.666667
866.091444	40359.333333
867.422115	40365.666667
868.752252	40239.666667
870.081853	40018.000000
871.410919	39994.666667
872.739452	39896.333333
874.067450	40024.666667
875.394914	39965.000000
876.721845	39818.666667
878.048243	39478.666667
879.374108	39642.666667
880.699440	39709.000000
882.024240	39587.000000
883.348508	39370.333333
884.672244	39336.333333
885.995449	39249.666667
887.318122	39320.000000
888.640265	39133.333333
889.961877	39225.000000
891.282959	39144.666667
892.603510	38944.000000
893.923532	38961.000000
895.243024	38893.333333
896.561987	38842.000000
897.880422	38704.333333
899.198327	38710.666667
900.515705	38611.333333
901.832554	38495.000000
903.148875	38453.333333
904.464669	38547.666667
905.779936	38393.333333
907.094676	38320.000000
908.408889	38399.666667
909.722576	38411.333333
911.035737	38516.333333
912.348371	38288.000000
913.660481	38355.333333
914.972065	38493.333333
916.283124	38710.333333
917.593659	38540.333333
918.903669	38451.333333
920.213155	38633.666667
921.522117	38480.000000
922.830556	38453.333333
924.138471	38465.000000
925.445864	38415.666667
926.752733	38375.666667
928.059081	38318.333333
929.364906	38340.000000
930.670209	38476.333333
931.974991	38534.666667
933.279251	38603.666667
934.582990	38575.666667
935.886209	38792.333333
937.188907	39083.000000
938.491085	38928.000000
939.792743	39248.666667
941.093881	39444.333333
942.394500	39916.333333
943.694600	40071.333333
944.994181	40494.666667
946.293243	41333.333333
947.591787	41654.333333
948.889813	42505.666667
950.187322	43434.666667
951.484313	44571.333333
952.780787	45567.666667
954.076744	46929.666667
955.372184	48126.666667
956.667108	49061.666667
957.961516	49832.333333
959.255409	49822.666667
960.548785	49093.333333
961.841647	48068.333333
963.133993	47148.000000
964.425825	45404.666667
965.717142	43803.000000
967.007946	42662.000000
968.298235	41250.666667
969.588011	40072.000000
970.877273	39270.666667
972.166023	38469.333333
973.454259	37804.333333
974.741984	37238.333333
976.029196	37054.333333
977.315895	36520.666667
978.602084	36337.000000
979.887761	36364.000000
981.172926	36081.333333
982.457581	36001.666667
983.741725	35783.000000
985.025359	35710.000000
986.308483	35383.000000
987.591097	35503.000000
988.873202	35426.666667
990.154797	35232.000000
991.435883	35323.666667
992.716461	35292.666667
993.996530	35132.000000
995.276091	35122.000000
996.555144	35042.666667
997.833690	35111.333333
999.111728	35158.666667
1000.389259	35286.666667
1001.666283	35296.666667
1002.942800	35182.000000
1004.218812	35390.000000
1005.494317	35000.000000
1006.769317	34952.333333
1008.043811	35088.666667
1009.317799	35033.333333
1010.591283	34792.666667
1011.864263	34934.666667
1013.136737	34843.000000
1014.408708	35003.000000
1015.680175	35000.000000
1016.951138	34925.333333
1018.221598	34978.000000
1019.491554	34862.666667
1020.761008	34926.000000
1022.029959	34878.333333
1023.298408	34827.000000
1024.566355	34670.666667
1025.833800	34849.000000
1027.100744	34728.666667
1028.367187	34775.000000
1029.633128	34725.333333
1030.898569	34695.666667
1032.163509	34665.000000
1033.427949	34623.000000
1034.691890	34690.000000
1035.955330	34677.333333
1037.218271	34577.000000
1038.480714	34782.333333
1039.742657	34653.666667
1041.004101	34864.333333
1042.265048	34667.333333
1043.525496	34742.000000
1044.785446	34700.333333
1046.044899	34681.666667
1047.303855	34633.000000
1048.562313	34482.000000
1049.820275	34420.000000
1051.077740	34242.666667
1052.334709	34268.666667
1053.591182	34339.000000
1054.847160	34191.333333
1056.102641	34120.333333
1057.357628	34101.333333
1058.612120	34254.333333
1059.866117	34080.333333
1061.119619	34097.000000
1062.372628	34219.666667
1063.625142	34127.666667
1064.877163	34238.000000
1066.128691	34334.000000
1067.379725	34201.333333
1068.630267	34099.333333
1069.880316	34235.333333
1071.129872	33980.666667
1072.378937	33918.000000
1073.627509	33940.333333
1074.875590	33790.333333
1076.123180	33576.666667
1077.370279	33473.666667
1078.616887	33191.333333
1079.863004	32959.333333
1081.108631	32864.333333
1082.353768	32840.666667
1083.598415	32782.666667
1084.842573	32314.000000
1086.086241	32160.333333
1087.329421	31946.000000
1088.572111	32158.000000
1089.814314	31937.000000
1091.056028	31815.000000
1092.297253	31774.333333
1093.537992	31656.666667
1094.778242	31535.000000
1096.018006	31377.333333
1097.257282	31452.666667
1098.496072	31568.000000
1099.734376	31390.666667
1100.972193	31463.666667
1102.209524	31345.666667
1103.446370	31188.333333
1104.682730	31268.000000
1105.918604	31254.333333
1107.153994	31235.666667
1108.388900	31130.000000
1109.623320	30963.666667
1110.857257	31014.333333
1112.090710	30881.000000
1113.323679	30788.666667
1114.556164	30753.333333
1115.788167	30582.333333
1117.019686	30734.333333
1118.250723	30598.000000
1119.481278	30480.000000
1120.711350	30455.666667
1121.940940	30366.333333
1123.170049	30526.333333
1124.398676	30556.333333
1125.626823	30358.000000
1126.854488	30324.000000
1128.081672	30165.333333
1129.308376	30216.666667
1130.534600	30318.333333
1131.760345	30117.000000
1132.985609	30109.666667
1134.210394	30149.000000
1135.434700	29903.666667
1136.658527	29988.333333
1137.881875	30191.000000
1139.104745	30043.333333
1140.327136	30094.000000
1141.549050	29862.666667
1142.770486	29941.000000
1143.991445	29909.333333
1145.211926	29873.333333
1146.431931	29842.666667
1147.651459	29836.333333
1148.870510	29718.333333
1150.089086	29797.333333
1151.307185	29674.666667
1152.524808	29665.333333
1153.741957	29663.000000
1154.958630	29500.666667
1156.174828	29564.333333
1157.390551	29745.333333
1158.605800	29570.000000
1159.820574	29532.000000
1161.034875	29417.000000
1162.248702	29423.333333
1163.462055	29257.000000
1164.674936	29288.000000
1165.887343	29317.666667
1167.099277	29255.000000
1168.310739	29244.666667
1169.521729	29285.333333
1170.732247	29248.333333
1171.942293	29160.333333
1173.151867	29073.333333
1174.360970	29229.666667
1175.569602	29137.000000
1176.777764	28947.000000
1177.985454	29162.000000
1179.192675	28945.333333
1180.399425	28861.000000
1181.605706	28753.666667
1182.811517	28877.000000
1184.016859	28761.666667
1185.221731	28553.000000
1186.426135	28617.333333
1187.630070	28565.333333
1188.833537	28333.000000
1190.036535	28327.333333
1191.239066	28378.333333
1192.441129	28307.666667
1193.642725	28346.333333
1194.843853	28107.666667
1196.044515	28169.333333
1197.244710	28199.333333
1198.444438	28067.000000
1199.643701	28219.000000
1200.842497	28196.333333
1202.040827	28207.000000
1203.238693	28114.666667
1204.436092	28151.000000
1205.633027	27916.333333
1206.829497	27907.000000
1208.025503	27922.000000
1209.221044	27967.333333
1210.416122	27668.333333
1211.610735	27840.333333
1212.804885	27645.333333
1213.998572	27589.000000
1215.191795	27660.333333
1216.384556	27499.666667
1217.576854	27513.666667
1218.768689	27382.333333
1219.960063	27389.333333
1221.150974	27371.333333
1222.341424	27332.000000
1223.531413	27329.666667
1224.720940	27287.333333
1225.910006	27191.666667
1227.098612	27292.000000
1228.286757	27269.666667
1229.474442	27282.333333
1230.661667	27302.000000
1231.848432	27331.000000
1233.034738	27458.333333
1234.220584	27373.000000
1235.405971	27512.333333
1236.590900	27639.666667
1237.775369	27331.333333
1238.959381	27568.333333
1240.142934	27545.666667
1241.326029	27460.000000
1242.508667	27533.666667
1243.690848	27497.666667
1244.872571	27496.000000
1246.053837	27573.666667
1247.234646	27438.000000
1248.414999	27234.333333
1249.594896	27441.000000
1250.774337	27262.333333
1251.953322	27080.666667
1253.131851	27116.333333
1254.309925	27128.666667
1255.487544	27144.333333
1256.664708	26840.666667
1257.841417	26951.000000
1259.017673	26842.666667
1260.193473	27009.666667
1261.368820	26863.000000
1262.543714	26747.000000
1263.718154	26759.666667
1264.892140	26904.000000
1266.065674	26704.333333
1267.238755	26795.000000
1268.411383	26799.333333
1269.583559	26753.666667
1270.755283	26840.000000
1271.926555	26689.666667
1273.097375	26849.000000
1274.267744	26834.000000
1275.437662	26833.333333
1276.607129	26795.000000
1277.776145	26694.333333
1278.944711	26586.333333
1280.112827	26554.666667
1281.280492	26417.666667
1282.447708	26524.333333
1283.614474	26340.333333
1284.780791	26290.000000
1285.946659	26223.666667
1287.112078	26047.666667
1288.277048	26138.000000
1289.441570	26031.333333
1290.605644	25932.333333
1291.769270	25928.000000
1292.932448	25838.666667
1294.095178	25791.666667
1295.257461	25779.000000
1296.419298	25498.000000
1297.580687	25499.000000
1298.741630	25569.666667
1299.902126	25429.333333
1301.062177	25554.000000
1302.221781	25563.000000
1303.380940	25472.000000
1304.539653	25538.333333
1305.697921	25399.333333
1306.855744	25444.333333
1308.013123	25400.333333
1309.170056	25437.333333
1310.326546	25426.000000
1311.482591	25499.000000
1312.638193	25290.333333
1313.793350	25322.000000
1314.948065	25291.333333
1316.102336	25275.333333
1317.256164	25335.333333
1318.409550	25156.666667
1319.562493	25060.000000
1320.714993	25033.000000
1321.867052	24991.333333
1323.018668	25061.333333
1324.169843	24873.000000
1325.320577	24697.333333
1326.470870	24751.333333
1327.620721	24567.000000
1328.770132	24688.000000
1329.919102	24542.000000
1331.067632	24491.666667
1332.215722	24382.666667
1333.363372	24492.666667
1334.510582	24537.000000
1335.657353	24482.000000
1336.803685	24490.000000
1337.949578	24500.666667
1339.095032	24516.666667
1340.240048	24427.000000
1341.384625	24328.666667
1342.528764	24405.666667
1343.672466	24422.666667
1344.815729	24430.666667
1345.958556	24334.666667
1347.100945	24399.000000
1348.242897	24395.333333
1349.384413	24241.666667
1350.525492	24128.666667
1351.666134	24270.333333
1352.806341	24112.333333
1353.946111	24044.000000
1355.085446	24057.333333
1356.224346	23805.666667
1357.362810	24047.333333
1358.500840	23824.000000
1359.638434	23758.000000
1360.775594	23691.666667
1361.912320	23699.666667
1363.048612	23540.666667
1364.184469	23748.000000
1365.319893	23407.000000
1366.454884	23571.666667
1367.589441	23668.333333
1368.723566	23580.666667
1369.857257	23565.000000
1370.990516	23524.000000
1372.123343	23457.000000
1373.255737	23526.000000
1374.387699	23536.333333
1375.519230	23501.000000
1376.650329	23631.000000
1377.780997	23579.666667
1378.911234	23450.000000
1380.041040	23649.333333
1381.170416	23544.333333
1382.299361	23520.666667
1383.427875	23381.666667
1384.555960	23469.000000
1385.683615	23521.333333
1386.810841	23427.000000
1387.937637	23332.000000
1389.064004	23360.666667
1390.189942	23210.000000
1391.315451	23248.000000
1392.440532	23050.333333
1393.565185	23129.666667
1394.689409	23126.000000
1395.813206	22888.333333
1396.936575	23011.333333
1398.059517	22948.333333
1399.182032	22801.666667
1400.304119	22851.666667
1401.425780	22785.000000
1402.547014	22676.666667
1403.667822	22862.000000
1404.788204	22713.666667
1405.908160	22732.666667
1407.027690	22814.333333
1408.146795	22690.000000
1409.265474	22579.000000
1410.383728	22769.666667
1411.501558	22793.333333
1412.618963	22664.000000
1413.735943	22774.333333
1414.852499	22746.000000
1415.968632	22741.000000
1417.084340	22655.666667
1418.199625	22751.333333
1419.314486	22731.666667
1420.428925	22666.666667
1421.542940	22667.000000
1422.656533	22784.333333
1423.769703	22443.000000
1424.882451	22586.000000
1425.994777	22525.666667
1427.106680	22434.333333
1428.218163	22428.333333
1429.329223	22308.666667
1430.439863	22289.000000
1431.550081	22309.666667
1432.659879	22126.000000
1433.769256	22183.333333
1434.878212	22164.333333
1435.986749	22047.000000
1437.094865	22114.333333
1438.202562	22171.000000
1439.309839	21975.666667
1440.416696	22124.666667
1441.523135	22101.333333
1442.629154	22031.000000
1443.734755	22199.333333
1444.839937	22093.666667
1445.944701	22162.666667
1447.049047	22185.666667
1448.152975	22275.333333
1449.256485	22069.333333
1450.359577	22186.666667
1451.462253	22078.333333
1452.564511	22165.333333
1453.666352	22186.000000
1454.767777	22075.333333
1455.868785	21972.000000
1456.969377	22024.666667
1458.069553	21998.333333
1459.169313	21978.333333
1460.268658	22001.333333
1461.367587	21796.000000
1462.466101	21765.666667
1463.564200	21736.000000
1464.661884	21660.666667
1465.759153	21578.333333
1466.856008	21600.666667
1467.952449	21419.000000
1469.048476	21381.000000
1470.144089	21251.333333
1471.239288	21085.000000
1472.334074	21078.000000
1473.428447	20843.666667
1474.522407	20722.666667
1475.615955	20791.000000
1476.709089	20648.666667
1477.801812	20662.333333
1478.894122	20697.666667
1479.986020	20537.666667
1481.077506	20416.666667
1482.168581	20590.000000
1483.259245	20579.000000
1484.349498	20597.333333
1485.439339	20562.000000
1486.528770	20437.666667
1487.617790	20454.000000
1488.706400	20486.333333
1489.794600	20393.666667
1490.882390	20312.000000
1491.969771	20560.333333
1493.056742	20358.000000
1494.143303	20493.666667
1495.229456	20261.333333
1496.315199	20327.000000
1497.400534	20262.333333
1498.485460	20268.666667
1499.569978	20135.000000
1500.654088	20267.333333
1501.737790	19963.000000
1502.821085	19994.333333
1503.903972	19953.666667
1504.986451	19848.666667
1506.068524	19860.000000
1507.150189	19870.666667
1508.231448	19725.666667
1509.312301	19660.000000
1510.392747	19641.000000
1511.472787	19550.666667
1512.552422	19512.666667
1513.631650	19505.333333
1514.710473	19401.000000
1515.788891	19474.666667
1516.866904	19498.333333
1517.944512	19405.000000
1519.021715	19464.000000
1520.098513	19458.666667
1521.174908	19431.333333
1522.250898	19419.666667
1523.326485	19439.333333
1524.401667	19438.000000
1525.476447	19457.333333
1526.550823	19347.333333
1527.624796	19417.000000
1528.698365	19254.000000
1529.771533	19286.333333
1530.844298	19322.000000
1531.916660	19383.000000
1532.988620	19233.000000
1534.060179	19335.333333
1535.131336	19265.333333
1536.202091	19221.333333
1537.272445	19181.333333
1538.342398	19052.000000
1539.411950	18950.000000
1540.481101	18907.000000
1541.549851	18902.666667
1542.618202	18967.666667
1543.686152	18946.333333
1544.753702	18862.333333
1545.820853	18726.333333
1546.887604	18771.666667
1547.953955	18624.666667
1549.019908	18564.000000
1550.085461	18589.333333
1551.150616	18562.000000
1552.215372	18525.333333
1553.279730	18536.333333
1554.343690	18392.000000
1555.407252	18424.000000
1556.470415	18348.333333
1557.533182	18465.666667
1558.595551	18377.333333
1559.657522	18495.666667
1560.719097	18347.333333
1561.780275	18390.333333
1562.841056	18387.666667
1563.901441	18327.333333
1564.961429	18367.000000
1566.021022	18391.333333
1567.080219	18323.333333
1568.139020	18281.000000
1569.197425	18305.000000
1570.255436	18234.333333
1571.313051	18181.666667
1572.370271	18333.000000
1573.427097	18207.000000
1574.483528	18234.666667
1575.539565	18138.333333
1576.595208	18133.333333
1577.650457	18158.333333
1578.705312	18078.333333
1579.759774	17940.333333
1580.813842	17907.666667
1581.867517	17770.000000
1582.920799	17792.666667
1583.973689	17828.000000
1585.026186	17603.666667
1586.078290	17546.333333
1587.130002	17517.666667
1588.181323	17587.000000
1589.232251	17528.666667
1590.282788	17561.000000
1591.332933	17433.666667
1592.382688	17383.333333
1593.432051	17371.333333
1594.481023	17394.333333
1595.529605	17509.666667
1596.577796	17314.000000
1597.625597	17372.666667
1598.673007	17475.666667
1599.720028	17553.333333
1600.766660	17518.000000
1601.812901	17461.666667
1602.858753	17521.666667
1603.904217	17486.000000
1604.949291	17444.333333
1605.993976	17426.666667
1607.038273	17451.666667
1608.082182	17380.000000
1609.125702	17487.666667
1610.168834	17437.666667
1611.211579	17206.333333
1612.253935	17243.000000
1613.295905	17123.333333
1614.337487	17183.666667
1615.378682	17028.000000
1616.419490	17086.333333
1617.459912	17003.666667
1618.499946	17055.666667
1619.539595	16901.333333
1620.578858	16932.666667
1621.617734	16910.000000
1622.656225	16807.333333
1623.694330	16893.666667
1624.732050	16767.333333
1625.769385	16756.000000
1626.806334	16675.666667
1627.842899	16522.000000
1628.879079	16484.333333
1629.914875	16633.666667
1630.950286	16665.333333
1631.985314	16643.333333
1633.019957	16615.666667
1634.054217	16760.000000
1635.088093	16578.333333
1636.121586	16626.333333
1637.154696	16729.333333
1638.187423	16698.666667
1639.219767	16698.666667
1640.251728	16626.333333
1641.283307	16721.000000
1642.314504	16596.666667
1643.345319	16705.333333
1644.375751	16566.000000
1645.405803	16576.333333
1646.435472	16533.000000
1647.464761	16534.333333
1648.493668	16569.333333
1649.522194	16481.000000
1650.550340	16439.333333
1651.578105	16424.666667
1652.605490	16404.666667
1653.632494	16335.666667
1654.659119	16321.000000
1655.685363	16268.666667
1656.711228	16148.333333
1657.736714	16245.666667
1658.761820	16161.666667
1659.786547	16077.000000
1660.810895	15958.000000
1661.834865	15989.000000
1662.858456	15932.333333
1663.881668	15895.666667
1664.904503	15864.333333
1665.926959	15736.666667
1666.949038	15799.000000
1667.970739	15780.333333
1668.992062	15719.000000
1670.013008	15586.666667
1671.033577	15613.333333
1672.053770	15661.333333
1673.073585	15582.333333
1674.093024	15618.333333
1675.112086	15484.666667
1676.130773	15446.333333
1677.149083	15521.000000
1678.167017	15559.666667
1679.184576	15439.666667
1680.201760	15529.000000
1681.218568	15499.666667
1682.235001	15400.000000
1683.251059	15437.000000
1684.266742	15568.333333
1685.282051	15335.333333
1686.296985	15433.333333
1687.311546	15352.333333
1688.325732	15382.000000
1689.339544	15197.000000
1690.352983	15239.333333
1691.366048	15083.000000
1692.378740	15061.666667
1693.391058	15035.000000
1694.403004	15003.666667
1695.414577	14962.000000
1696.425778	14900.000000
1697.436606	14812.000000
1698.447061	14811.000000
1699.457145	14733.000000
1700.466857	14506.000000
1701.476197	14572.000000
1702.485166	14478.000000
1703.493763	14409.333333
1704.501989	14396.666667
1705.509844	14256.666667
1706.517328	14283.000000
1707.524442	14177.666667
1708.531185	14210.000000
1709.537558	14094.000000
1710.543561	14072.666667
1711.549194	14081.333333
1712.554457	14064.666667
1713.559351	14093.000000
1714.563875	14087.333333
1715.568030	14035.000000
1716.571816	14087.000000
1717.575233	14115.000000
1718.578282	14228.333333
1719.580962	14162.666667
1720.583273	14243.000000
1721.585217	14303.333333
1722.586792	14213.000000
1723.588000	14233.333333
1724.588840	14256.666667
1725.589312	14317.333333
1726.589418	14231.666667
1727.589156	14222.333333
1728.588527	14300.666667
1729.587532	14176.666667
1730.586170	14197.000000
1731.584441	14193.000000
1732.582346	14168.000000
1733.579886	14069.333333
1734.577059	14033.000000
1735.573867	13885.666667
1736.570309	14023.000000
1737.566386	13897.000000
1738.562097	13905.000000
1739.557444	13762.333333
1740.552426	13677.000000
1741.547043	13609.000000
1742.541295	13600.333333
1743.535184	13727.333333
1744.528708	13538.666667
1745.521868	13531.333333
1746.514664	13449.000000
1747.507097	13305.333333
1748.499166	13430.333333
1749.490873	13308.000000
1750.482216	13317.666667
1751.473196	13204.333333
1752.463813	13382.666667
1753.454068	13313.666667
1754.443960	13252.666667
1755.433490	13217.333333
1756.422658	13210.666667
1757.411464	13201.666667
1758.399908	13279.333333
1759.387991	13213.666667
1760.375713	13187.000000
1761.363073	13217.333333
1762.350072	13203.666667
1763.336711	13173.666667
1764.322988	13158.000000
1765.308905	13140.000000
1766.294462	13128.666667
1767.279659	13122.666667
1768.264496	13062.000000
1769.248972	12990.333333
1770.233089	12982.666667
1771.216847	12953.333333
1772.200245	12943.666667
1773.183284	12917.000000
1774.165965	12913.333333
1775.148286	12818.666667
1776.130249	12824.000000
1777.111853	12730.000000
1778.093099	12617.000000
1779.073987	12468.000000
1780.054517	12522.666667
1781.034689	12326.666667
1782.014503	12402.666667
1782.993960	12298.666667
1783.973060	12320.000000
1784.951802	12138.666667
1785.930188	12176.000000
1786.908217	12054.666667
1787.885889	12007.333333
1788.863205	11963.000000
1789.840164	12043.333333
1790.816768	12001.000000
1791.793015	11996.333333
1792.768907	11937.666667
1793.744443	11912.333333
1794.719624	11877.000000
1795.694449	11918.333333
1796.668919	11910.333333
1797.643035	12012.333333
1798.616795	11971.000000
1799.590201	11968.666667
1800.563253	11945.333333
1801.535950	11964.000000
1802.508294	11907.666667
1803.480283	12071.000000
1804.451919	12011.000000
1805.423201	12018.666667
1806.394129	11939.666667
1807.364705	12103.666667
1808.334927	12016.666667
1809.304796	11982.333333
1810.274313	11909.000000
1811.243477	11836.333333
1812.212288	11884.000000
1813.180747	11788.000000
1814.148855	11834.333333
1815.116610	11772.333333
1816.084013	11759.333333
1817.051065	11712.666667
1818.017766	11717.666667
1818.984115	11742.666667
1819.950113	11611.000000
1820.915760	11633.000000
1821.881057	11605.000000
1822.846003	11567.000000
1823.810598	11601.000000
1824.774843	11494.666667
1825.738738	11498.333333
1826.702283	11457.666667
1827.665479	11454.666667
1828.628324	11311.000000
1829.590821	11314.000000
1830.552968	11328.666667
1831.514765	11254.333333
1832.476214	11261.666667
1833.437314	11163.000000
1834.398066	11223.333333
1835.358469	11065.000000
1836.318524	11169.000000
1837.278230	11195.333333
1838.237589	11164.333333
1839.196600	11106.000000
1840.155263	11127.666667
1841.113578	11148.000000
1842.071547	11233.000000
1843.029168	11233.000000
1843.986442	11207.000000
1844.943369	11259.333333
1845.899950	11127.333333
1846.856184	11338.666667
1847.812072	11167.000000
1848.767614	11253.666667
1849.722809	11312.666667
1850.677659	11200.333333
1851.632163	11199.000000
1852.586322	11253.000000
1853.540135	11147.000000
1854.493603	11124.000000
1855.446726	11171.333333
1856.399504	11190.333333
1857.351937	11123.666667
1858.304026	11077.666667
1859.255770	11059.000000
1860.207170	10944.000000
1861.158227	10949.666667
1862.108939	10891.000000
1863.059307	10797.333333
1864.009332	10795.333333
1864.959013	10782.000000
1865.908351	10652.666667
1866.857346	10684.666667
1867.805998	10604.666667
1868.754307	10522.666667
1869.702274	10524.000000
1870.649898	10517.000000
1871.597180	10501.000000
1872.544119	10396.000000
1873.490717	10372.333333
1874.436973	10353.000000
1875.382887	10327.666667
1876.328459	10237.000000
1877.273691	10233.666667
1878.218581	10174.666667
1879.163130	10225.333333
1880.107338	10286.000000
1881.051205	10231.333333
1881.994732	10316.666667
1882.937919	10236.333333
1883.880765	10264.000000
1884.823271	10244.333333
1885.765437	10293.000000
1886.707264	10392.333333
1887.648750	10328.000000
1888.589898	10306.333333
1889.530706	10381.666667
1890.471175	10425.666667
1891.411305	10379.000000
1892.351096	10387.000000
1893.290548	10257.333333
1894.229662	10286.333333
1895.168438	10345.333333
1896.106876	10288.666667
1897.044975	10238.666667
1897.982737	10236.000000
1898.920160	10298.333333
1899.857247	10200.666667
1900.793996	10088.000000
1901.730407	10134.333333
1902.666482	10079.666667
1903.602219	10074.333333
1904.537620	10052.333333
1905.472685	9962.000000
1906.407412	9881.666667
1907.341804	9817.333333
1908.275859	9868.666667
1909.209579	9716.000000
1910.142962	9688.666667
1911.076010	9714.666667
1912.008722	9621.666667
1912.941099	9543.000000
1913.873141	9553.666667
1914.804848	9581.000000
1915.736219	9472.000000
1916.667256	9437.000000
1917.597959	9515.333333
1918.528327	9447.333333
1919.458360	9244.333333
1920.388060	9355.666667
1921.317426	9337.666667
1922.246457	9334.666667
1923.175156	9306.333333
1924.103520	9345.666667
1925.031552	9378.333333
1925.959250	9479.666667
1926.886615	9344.333333
1927.813647	9402.333333
1928.740346	9358.666667
1929.666713	9319.000000
1930.592748	9323.666667
1931.518450	9463.000000
1932.443820	9359.666667
1933.368858	9376.000000
1934.293564	9423.000000
1935.217939	9396.333333
1936.141982	9236.000000
1937.065694	9328.000000
1937.989074	9259.333333
1938.912124	9242.333333
1939.834842	9195.666667
1940.757230	9231.666667
1941.679287	9171.000000
1942.601014	9098.666667
1943.522411	9116.666667
1944.443477	9036.000000
1945.364214	9018.000000
1946.284621	9025.333333
1947.204698	8913.666667
1948.124445	8980.333333
1949.043863	8944.333333
1949.962952	8760.333333
1950.881712	8886.333333
1951.800143	8705.666667
1952.718245	8665.333333
1953.636019	8646.000000
1954.553464	8603.666667
1955.470581	8599.666667
1956.387369	8521.000000
1957.303830	8585.666667
1958.219963	8512.333333
1959.135768	8562.333333
1960.051246	8509.000000
1960.966396	8519.333333
1961.881219	8580.666667
1962.795715	8527.000000
1963.709883	8603.333333
1964.623726	8598.333333
1965.537241	8559.333333
1966.450430	8598.666667
1967.363293	8485.666667
1968.275829	8609.333333
1969.188040	8664.666667
1970.099924	8645.333333
1971.011483	8600.000000
1971.922716	8669.000000
1972.833624	8641.333333
1973.744206	8673.333333
1974.654464	8608.000000
1975.564396	8575.000000
1976.474004	8576.333333
1977.383286	8607.333333
1978.292245	8527.000000
1979.200878	8548.333333
1980.109188	8545.000000
1981.017174	8456.666667
1981.924835	8457.000000
1982.832173	8456.333333
1983.739187	8351.000000
1984.645878	8299.666667
1985.552245	8298.000000
1986.458289	8296.000000
1987.364010	8181.333333
1988.269408	8138.000000
1989.174484	8130.333333
1990.079236	8107.666667
1990.983667	8029.333333
1991.887775	8063.666667
1992.791561	8033.000000
1993.695024	8011.333333
1994.598166	7933.000000
1995.500986	7968.000000
1996.403485	8010.000000
1997.305662	7932.000000
1998.207518	7879.666667
1999.109053	7918.000000
2000.010267	7956.333333
2000.911160	7987.333333
2001.811732	7900.333333
2002.711984	7885.333333
2003.611915	7938.000000
2004.511526	8008.333333
2005.410817	7911.666667
2006.309788	7924.333333
2007.208439	7956.000000
2008.106771	7957.666667
2009.004783	7900.000000
2009.902475	7954.666667
2010.799849	7973.333333
2011.696903	7990.333333
2012.593638	7948.333333
2013.490055	7933.000000
2014.386153	8010.666667
2015.281932	7972.666667
2016.177394	7940.333333
2017.072536	7905.666667
2017.967361	7845.666667
2018.861868	7859.666667
2019.756057	7883.333333
2020.649929	7859.333333
2021.543483	7783.333333
2022.436720	7714.000000
2023.329639	7716.000000
2024.222241	7740.666667
2025.114527	7640.333333
2026.006496	7550.333333
2026.898148	7555.000000
2027.789484	7481.666667
2028.680503	7544.000000
2029.571206	7473.666667
2030.461594	7445.666667
2031.351665	7414.333333
2032.241420	7342.000000
2033.130860	7345.333333
2034.019985	7294.333333
2034.908794	7230.666667
2035.797288	7247.666667
2036.685467	7208.666667
2037.573331	7229.666667
2038.460880	7107.000000
2039.348115	7246.666667
2040.235035	7233.000000
2041.121641	7216.333333
2042.007933	7227.333333
2042.893911	7203.000000
2043.779575	7234.333333
2044.664925	7241.333333
2045.549961	7269.666667
2046.434685	7237.333333
2047.319094	7180.000000
2048.203191	7331.000000
2049.086975	7295.333333
2049.970445	7271.000000
2050.853603	7206.666667
2051.736449	7275.333333
2052.618982	7173.000000
2053.501202	7242.666667
2054.383111	7268.333333
2055.264707	7271.000000
2056.145991	7264.333333
2057.026964	7224.333333
2057.907625	7223.333333
2058.787975	7267.000000
2059.668013	7243.000000
2060.547741	7173.666667
2061.427157	7215.000000
2062.306262	7072.333333
2063.185056	7002.000000
2064.063540	7007.333333
2064.941714	6979.000000
2065.819577	6945.666667
2066.697130	6908.666667
2067.574372	6810.000000
2068.451305	6880.000000
2069.327928	6726.000000
2070.204242	6725.000000
2071.080246	6714.333333
2071.955940	6681.000000
2072.831326	6629.666667
2073.706402	6675.666667
2074.581170	6666.666667
2075.455628	6569.000000
2076.329778	6555.000000
2077.203620	6565.000000
2078.077153	6570.666667
2078.950378	6555.000000
2079.823294	6580.333333
2080.695903	6521.000000
2081.568204	6563.333333
2082.440197	6598.333333
2083.311883	6644.000000
2084.183261	6623.333333
2085.054333	6615.333333
2085.925097	6652.666667
2086.795554	6648.333333
2087.665704	6665.666667
2088.535547	6686.666667
2089.405084	6654.666667
2090.274315	6657.666667
2091.143239	6646.666667
2092.011857	6662.000000
2092.880169	6662.333333
2093.748175	6681.333333
2094.615875	6582.000000
2095.483270	6605.666667
2096.350360	6680.000000
2097.217144	6567.000000
2098.083622	6524.000000
2098.949796	6516.000000
2099.815665	6476.333333
2100.681229	6413.333333
2101.546489	6420.333333
2102.411444	6404.666667
2103.276094	6362.000000
2104.140441	6251.666667
2105.004483	6281.333333
2105.868222	6281.666667
2106.731656	6244.333333
2107.594787	6214.000000
2108.457614	6262.666667
2109.320138	6204.666667
2110.182359	6160.333333
2111.044277	6153.333333
2111.905891	6130.333333
2112.767203	6196.333333
2113.628212	6196.000000
2114.488919	6253.666667
2115.349323	6232.333333
2116.209424	6205.333333
2117.069224	6283.000000
2117.928721	6193.000000
2118.787917	6181.666667
2119.646811	6198.000000
2120.505403	6242.666667
2121.363694	6264.000000
2122.221683	6234.333333
2123.079371	6244.000000
2123.936758	6272.333333
2124.793844	6246.333333
2125.650630	6260.000000
2126.507114	6212.666667
2127.363298	6230.666667
2128.219182	6252.666667
2129.074765	6152.000000
2129.930048	6186.333333
2130.785032	6155.666667
2131.639715	6107.333333
2132.494099	6009.666667
2133.348183	6064.333333
2134.201967	5999.666667
2135.055452	6024.000000
2135.908638	5983.000000
2136.761525	5998.666667
2137.614113	5915.666667
2138.466403	5874.333333
2139.318393	5866.333333
2140.170085	5841.000000
2141.021479	5789.666667
2141.872574	5842.000000
2142.723371	5770.666667
2143.573871	5775.333333
2144.424072	5735.666667
2145.273976	5719.666667
2146.123582	5680.000000
2146.972891	5658.666667
2147.821902	5677.000000
2148.670616	5673.333333
2149.519033	5711.333333
2150.367153	5700.000000
2151.214976	5700.000000
2152.062503	5716.666667
2152.909733	5717.333333
2153.756667	5695.666667
2154.603304	5760.666667
2155.449646	5677.666667
2156.295691	5722.666667
2157.141441	5796.333333
2157.986894	5736.666667
2158.832052	5822.333333
2159.676915	5764.000000
2160.521482	5747.000000
2161.365755	5795.000000
2162.209732	5711.666667
2163.053414	5750.666667
2163.896801	5640.000000
2164.739894	5638.000000
2165.582692	5666.666667
2166.425196	5618.333333
2167.267405	5657.000000
2168.109320	5583.666667
2168.950941	5635.333333
2169.792269	5569.333333
2170.633302	5534.333333
2171.474042	5498.000000
2172.314489	5502.666667
2173.154642	5440.333333
2173.994502	5403.666667
2174.834068	5358.666667
2175.673342	5387.333333
2176.512323	5301.333333
2177.351011	5338.333333
2178.189407	5309.666667
2179.027510	5256.333333
2179.865321	5267.000000
2180.702840	5314.666667
2181.540066	5210.666667
2182.377001	5240.333333
2183.213644	5194.333333
2184.049995	5245.000000
2184.886055	5270.666667
2185.721823	5270.333333
2186.557300	5293.000000
2187.392486	5271.333333
2188.227381	5237.666667
2189.061985	5330.000000
2189.896298	5297.666667
2190.730320	5235.666667
2191.564052	5304.666667
2192.397494	5293.000000
2193.230646	5389.000000
2194.063507	5308.333333
2194.896078	5346.333333
2195.728360	5290.666667
2196.560351	5379.000000
2197.392053	5317.666667
2198.223466	5301.000000
2199.054589	5345.666667
2199.885424	5273.000000
