400.0961	2485
402.6185	2439
405.1424	2441
407.6635	2444
410.1838	2436
412.7035	2476
415.2225	2476
417.7388	2511
420.2585	2517
422.7754	2559
425.2917	2610
427.8072	2643
430.3221	2631
432.8363	2578
435.3498	2676
437.8626	2672
440.3727	2606
442.8841	2640
445.3969	2629
447.907	2623
450.4142	2624
452.9229	2522
455.4289	2613
457.9362	2591
460.4449	2608
462.9488	2574
465.454	2511
467.9566	2583
470.4604	2552
472.9637	2556
475.4662	2589
477.966	2591
480.4671	2577
482.9656	2588
485.4633	2640
487.9645	2595
490.4608	2546
492.9566	2561
495.4536	2626
497.948	2612
500.4437	2598
502.9387	2658
505.431	2633
507.9226	2586
510.4136	2636
512.9079	2683
515.3975	2629
517.8864	2602
520.3746	2652
522.8622	2677
525.3491	2674
527.8394	2629
530.3249	2726
532.8098	2680
535.2939	2626
537.7774	2622
540.2623	2724
542.7444	2679
545.2259	2677
547.7067	2677
550.1868	2650
552.6683	2694
555.147	2698
557.6231	2691
560.1005	2719
562.5773	2746
565.0534	2683
567.5308	2730
570.0056	2746
572.4776	2746
574.951	2739
577.4237	2769
579.8978	2758
582.3671	2855
584.8378	2805
587.3079	2803
589.7773	2792
592.244	2786
594.714	2839
597.1793	2850
599.6461	2766
602.1121	2800
604.5754	2725
607.0421	2761
609.5042	2766
611.9675	2766
614.4282	2774
616.8902	2782
619.3515	2777
621.8122	2742
624.2702	2696
626.7296	2689
629.1863	2693
631.6423	2674
634.1017	2668
636.5563	2761
639.0104	2805
641.4658	2760
643.9185	2738
646.3725	2766
648.8239	2755
651.2766	2721
653.7266	2740
656.176	2817
658.6247	2716
661.0748	2702
663.5242	2787
665.9709	2797
668.417	2773
670.8624	2771
673.3092	2791
675.7533	2720
678.1968	2781
680.6395	2749
683.0817	2843
685.5251	2830
687.9659	2808
690.4061	2840
692.8456	2803
695.2844	2805
697.7226	2784
700.1621	2809
702.599	2785
705.0332	2856
707.4688	2923
709.9036	2867
712.3399	2872
714.7735	2866
717.2044	2866
719.6367	2868
722.0683	2908
724.4993	2876
726.9296	2931
729.3593	2900
731.7883	2928
734.2147	2872
736.6423	2890
739.0714	2867
741.4958	2920
743.9216	2929
746.3447	2951
748.7691	2961
751.1929	2958
753.616	2995
756.0366	2980
758.4584	3048
760.8776	2983
763.2982	2985
765.718	3067
768.1373	3002
770.5539	3033
772.9698	2956
775.3871	3015
777.8038	2957
780.2178	2955
782.6332	2976
785.0459	2917
787.458	2942
789.8714	3034
792.2842	2957
794.6943	3014
797.1038	3040
799.5127	2993
801.9209	2953
804.3324	2986
806.7393	2998
809.1456	3074
811.5513	3016
813.9562	3062
816.3625	3051
818.7663	3110
821.1693	3050
823.5718	3145
825.9735	3048
828.3746	2971
830.7771	3006
833.177	3073
835.5762	3099
837.9747	3083
840.3727	3030
842.772	3098
845.1666	3174
847.5626	3066
849.958	3139
852.3527	3219
854.7488	3118
857.1403	3179
859.5331	3194
861.9253	3113
864.3168	3092
866.7057	3186
869.098	3190
871.4876	3131
873.8746	3173
876.263	3079
878.6487	3126
881.0378	3122
883.4243	3149
885.8081	3108
888.1933	3193
890.5759	3169
892.9598	3092
895.343	3107
897.7256	3152
900.1057	3104
902.4871	3133
904.8659	3139
907.246	3146
909.6254	3175
912.0023	3144
914.3786	3203
916.7562	3172
919.1331	3204
921.5074	3288
923.8831	3324
926.2562	3237
928.6287	3285
931.0005	3330
933.3757	3314
935.7462	3341
938.1162	3275
940.4855	3398
942.8542	3434
945.2242	3457
947.5916	3557
949.9584	3695
952.3266	3829
954.6921	3975
957.0571	4135
959.4233	4271
961.787	4315
964.15	4284
966.5125	4189
968.8742	3916
971.2354	3788
973.5959	3701
975.9559	3500
978.3151	3427
980.6738	3347
983.0338	3146
985.3912	3247
987.7461	3193
990.1022	3194
992.4578	3317
994.8127	3199
997.1689	3331
999.5207	3290
1001.874	3300
1004.226	3223
1006.576	3260
1008.929	3278
1011.28	3259
1013.628	3360
1015.977	3248
1018.324	3296
1020.674	3282
1023.019	3302
1025.366	3198
1027.713	3279
1030.056	3297
1032.399	3280
1034.746	3293
1037.087	3283
1039.431	3326
1041.771	3344
1044.113	3315
1046.454	3315
1048.793	3284
1051.133	3350
1053.471	3250
1055.807	3355
1058.146	3345
1060.483	3337
1062.818	3288
1065.153	3445
1067.489	3485
1069.822	3459
1072.156	3476
1074.488	3413
1076.82	3444
1079.15	3370
1081.48	3383
1083.814	3396
1086.143	3360
1088.471	3417
1090.799	3396
1093.126	3270
1095.452	3308
1097.78	3430
1100.105	3388
1102.43	3370
1104.754	3269
1107.077	3414
1109.4	3372
1111.722	3272
1114.044	3337
1116.365	3307
1118.685	3291
1121.005	3233
1123.324	3325
1125.643	3272
1127.961	3322
1130.278	3334
1132.595	3349
1134.911	3371
1137.226	3361
1139.541	3339
1141.854	3333
1144.167	3370
1146.482	3298
1148.793	3323
1151.105	3314
1153.414	3275
1155.725	3342
1158.033	3350
1160.344	3361
1162.651	3280
1164.959	3353
1167.265	3334
1169.572	3301
1171.878	3323
1174.184	3376
1176.488	3312
1178.79	3336
1181.094	3302
1183.396	3236
1185.699	3270
1188.001	3328
1190.301	3282
1192.6	3303
1194.9	3376
1197.2	3343
1199.497	3349
1201.794	3338
1204.09	3348
1206.387	3296
1208.684	3255
1210.978	3401
1213.272	3364
1215.565	3378
1217.858	3361
1220.15	3402
1222.443	3414
1224.734	3392
1227.024	3385
1229.313	3428
1231.602	3476
1233.892	3390
1236.18	3397
1238.467	3469
1240.754	3496
1243.04	3439
1245.325	3512
1247.612	3481
1249.896	3570
1252.178	3412
1254.461	3511
1256.743	3487
1259.027	3548
1261.308	3511
1263.587	3457
1265.867	3478
1268.146	3583
1270.425	3530
1272.703	3448
1274.981	3506
1277.256	3573
1279.532	3486
1281.808	3549
1284.083	3558
1286.358	3518
1288.63	3470
1290.904	3469
1293.175	3491
1295.449	3489
1297.719	3421
1299.99	3489
1302.259	3342
1304.529	3530
1306.798	3465
1309.065	3473
1311.333	3453
1313.599	3399
1315.866	3431
1318.131	3491
1320.396	3480
1322.66	3384
1324.925	3468
1327.187	3458
1329.448	3328
1331.711	3434
1333.974	3516
1336.234	3380
1338.493	3509
1340.752	3457
1343.01	3448
1345.269	3396
1347.526	3399
1349.784	3447
1352.04	3496
1354.295	3390
1356.552	3489
1358.806	3429
1361.059	3444
1363.312	3476
1365.564	3373
1367.818	3475
1370.069	3483
1372.318	3447
1374.568	3408
1376.817	3464
1379.066	3460
1381.316	3442
1383.564	3465
1385.809	3537
1388.056	3459
1390.301	3490
1392.549	3434
1394.793	3580
1397.036	3569
1399.279	3483
1401.522	3568
1403.763	3598
1406.007	3574
1408.248	3562
1410.487	3584
1412.727	3485
1414.965	3575
1417.205	3498
1419.442	3522
1421.68	3512
1423.915	3597
1426.152	3570
1428.388	3587
1430.623	3495
1432.857	3631
1435.091	3575
1437.323	3643
1439.556	3538
1441.789	3632
1444.019	3615
1446.25	3679
1448.48	3664
1450.708	3692
1452.938	3612
1455.167	3676
1457.394	3785
1459.62	3668
1461.846	3671
1464.073	3699
1466.299	3613
1468.523	3635
1470.746	3668
1472.969	3595
1475.191	3590
1477.415	3580
1479.636	3503
1481.858	3516
1484.078	3525
1486.298	3472
1488.518	3445
1490.736	3423
1492.954	3398
1495.169	3486
1497.386	3493
1499.602	3540
1501.819	3474
1504.034	3502
1506.248	3469
1508.462	3468
1510.675	3485
1512.888	3429
1515.1	3496
1517.311	3438
1519.522	3472
1521.732	3507
1523.942	3441
1526.151	3426
1528.36	3401
1530.566	3451
1532.773	3488
1534.98	3409
1537.187	3532
1539.392	3430
1541.596	3504
1543.801	3487
1546.005	3535
1548.208	3533
1550.411	3486
1552.612	3488
1554.814	3491
1557.013	3566
1559.212	3575
1561.414	3539
1563.612	3520
1565.811	3555
1568.007	3527
1570.203	3499
1572.403	3596
1574.598	3499
1576.792	3478
1578.988	3524
1581.181	3474
1583.376	3524
1585.568	3517
1587.761	3509
1589.952	3531
1592.143	3584
1594.333	3587
1596.524	3558
1598.715	3553
1600.903	3587
1603.091	3570
1605.278	3604
1607.466	3608
1609.652	3545
1611.838	3570
1614.023	3621
1616.207	3598
1618.391	3606
1620.576	3606
1622.759	3654
1624.941	3673
1627.123	3582
1629.304	3649
1631.484	3678
1633.664	3548
1635.844	3699
1638.022	3704
1640.201	3662
1642.38	3632
1644.556	3670
1646.732	3707
1648.908	3735
1651.084	3724
1653.257	3675
1655.433	3657
1657.607	3673
1659.779	3698
1661.951	3702
1664.122	3723
1666.295	3629
1668.467	3690
1670.635	3670
1672.805	3776
1674.973	3678
1677.142	3744
1679.31	3719
1681.478	3785
1683.644	3648
1685.81	3635
1687.975	3661
1690.142	3649
1692.305	3661
1694.468	3661
1696.632	3622
1698.794	3589
1700.957	3632
1703.119	3719
1705.279	3603
1707.439	3613
1709.598	3574
1711.758	3602
1713.917	3602
1716.075	3607
1718.231	3593
1720.388	3540
1722.543	3618
1724.702	3601
1726.856	3614
1729.01	3619
1731.164	3571
1733.317	3529
1735.471	3596
1737.623	3595
1739.774	3613
1741.925	3629
1744.075	3621
1746.225	3596
1748.376	3584
1750.524	3607
1752.672	3596
1754.82	3574
1756.965	3606
1759.113	3566
1761.259	3657
1763.405	3602
1765.549	3622
1767.694	3602
1769.836	3597
1771.981	3557
1774.123	3595
1776.264	3598
1778.405	3690
1780.546	3657
1782.687	3604
1784.827	3675
1786.966	3624
1789.103	3601
1791.242	3588
1793.381	3570
1795.517	3602
1797.653	3644
1799.788	3646
1801.923	3633
1804.057	3674
1806.193	3541
1808.326	3609
1810.457	3704
1812.59	3666
1814.721	3706
1816.855	3616
1818.984	3622
1821.113	3611
1823.244	3687
1825.372	3686
1827.499	3661
1829.63	3591
1831.756	3640
1833.882	3616
1836.007	3514
1838.132	3542
1840.26	3631
1842.384	3587
1844.507	3592
1846.63	3527
1848.752	3595
1850.875	3619
1852.996	3667
1855.118	3576
1857.238	3616
1859.358	3548
1861.477	3686
1863.597	3575
1865.715	3600
1867.832	3510
1869.948	3568
1872.064	3576
1874.181	3625
1876.297	3539
1878.411	3514
1880.526	3601
1882.639	3609
1884.752	3679
1886.865	3597
1888.977	3625
1891.089	3571
1893.2	3624
1895.308	3589
1897.42	3644
1899.53	3635
1901.639	3553
1903.745	3631
1905.853	3642
1907.962	3613
1910.067	3684
1912.174	3657
1914.278	3594
1916.383	3670
1918.486	3673
1920.592	3725
1922.694	3646
1924.797	3598
1926.898	3735
1929	3593
1931.102	3591
1933.203	3679
1935.301	3600
1937.401	3671
1939.499	3688
1941.598	3760
1943.697	3677
1945.793	3598
1947.888	3660
1949.985	3694
1952.08	3660
1954.176	3616
1956.269	3631
1958.364	3624
1960.457	3702
1962.549	3647
1964.642	3677
1966.733	3598
1968.823	3643
1970.913	3610
1973.005	3568
1975.093	3659
1977.184	3679
1979.271	3642
1981.359	3595
1983.446	3642
1985.532	3602
1987.619	3567
1989.705	3640
1991.789	3666
1993.874	3669
1995.956	3612
1998.041	3600
2000.123	3634
2002.206	3674
2004.287	3691
2006.368	3600
2008.449	3638
2010.529	3536
2012.609	3709
2014.688	3615
2016.766	3652
2018.843	3693
2020.922	3592
2022.999	3646
2025.074	3558
2027.15	3606
2029.225	3709
2031.299	3507
2033.375	3592
2035.447	3623
2037.52	3651
2039.592	3648
2041.664	3646
2043.736	3633
2045.807	3678
2047.876	3608
2049.947	3611
2052.015	3725
2054.086	3636
2056.153	3732
2058.221	3598
2060.288	3641
2062.353	3637
2064.42	3640
2066.486	3546
2068.55	3630
2070.614	3647
2072.678	3706
2074.741	3592
2076.805	3578
2078.866	3649
2080.929	3585
2082.99	3649
2085.049	3648
2087.109	3691
2089.17	3702
2091.228	3675
2093.286	3675
2095.344	3719
2097.4	3635
2099.46	3647
2101.516	3584
2103.572	3693
2105.626	3623
2107.679	3651
2109.735	3647
2111.788	3659
2113.841	3729
2115.894	3697
2117.945	3700
2119.997	3660
2122.049	3579
2124.1	3654
2126.148	3589
2128.197	3728
2130.246	3586
2132.296	3679
2134.342	3588
2136.39	3621
2138.437	3639
2140.483	3661
2142.527	3632
2144.574	3630
2146.619	3625
2148.661	3602
2150.705	3577
2152.747	3555
2154.792	3598
2156.832	3643
2158.874	3692
2160.915	3574
2162.954	3628
2164.995	3530
2167.034	3612
2169.072	3623
2171.111	3519
2173.148	3609
2175.186	3706
2177.223	3637
2179.258	3714
2181.294	3575
2183.328	3628
2185.362	3585
2187.398	3544
2189.431	3482
2191.463	3463
2193.495	3627
2195.528	3592
2197.56	3572
2199.59	3594
2201.62	3641
2203.649	3589
2205.678	3552
2207.708	3557
2209.737	3521
2211.764	3596
2213.791	3599
2215.817	3551
2217.843	3603
2219.87	3522
2221.895	3554
2223.919	3550
2225.942	3636
2227.966	3602
2229.988	3619
2232.012	3645
2234.032	3614
2236.054	3660
2238.074	3505
2240.095	3586
2242.116	3552
2244.135	3540
2246.153	3552
2248.171	3537
2250.188	3511
2252.208	3497
2254.223	3535
2256.239	3550
2258.255	3522
2260.269	3563
2262.283	3565
2264.3	3586
2266.312	3500
2268.325	3529
2270.336	3591
2272.349	3540
2274.362	3581
2276.372	3517
2278.383	3652
2280.392	3569
2282.402	3616
2284.409	3539
2286.418	3585
2288.427	3648
2290.433	3538
2292.441	3606
2294.446	3569
2296.453	3545
2298.459	3534
2300.463	3565
2302.466	3583
2304.471	3537
2306.475	3666
2308.477	3543
2310.478	3566
2312.481	3599
2314.481	3528
2316.481	3557
2318.482	3498
2320.482	3519
2322.48	3562
2324.48	3619
2326.478	3587
2328.476	3525
2330.473	3527
2332.469	3537
2334.465	3582
2336.46	3518
2338.454	3595
2340.45	3583
2342.444	3463
2344.437	3534
2346.43	3536
2348.421	3551
2350.414	3515
2352.405	3401
2354.396	3528
2356.386	3531
2358.376	3439
2360.366	3457
2362.355	3473
2364.343	3589
2366.331	3458
2368.317	3491
2370.304	3534
2372.292	3482
2374.278	3504
2376.262	3513
2378.247	3471
2380.23	3515
2382.216	3546
2384.199	3582
2386.181	3470
2388.163	3531
2390.144	3539
2392.127	3451
2394.107	3461
2396.087	3476
2398.066	3504
2400.046	3459
2402.023	3459
2404.004	3503
2405.981	3418
2407.957	3512
2409.934	3520
2411.91	3405
2413.886	3509
2415.862	3467
2417.836	3478
2419.809	3434
2421.784	3509
2423.756	3514
2425.73	3485
2427.701	3438
2429.672	3488
2431.644	3466
2433.615	3499
2435.586	3572
2437.555	3439
2439.523	3489
2441.491	3512
2443.459	3440
2445.428	3454
2447.395	3514
2449.361	3536
2451.327	3446
2453.292	3415
2455.257	3431
2457.223	3493
2459.187	3479
2461.15	3450
2463.113	3521
2465.076	3489
2467.039	3449
2468.999	3461
2470.96	3431
2472.921	3453
2474.881	3435
2476.841	3429
2478.8	3319
2480.759	3497
2482.717	3484
2484.675	3440
2486.63	3435
2488.589	3460
2490.545	3514
2492.5	3458
2494.455	3424
2496.408	3499
2498.364	3439
2500.318	3385
2502.27	3373
2504.223	3385
2506.174	3413
2508.126	3433
2510.078	3394
2512.03	3432
2513.979	3383
2515.927	3395
2517.877	3441
2519.826	3421
2521.775	3387
2523.722	3361
2525.668	3416
2527.616	3397
2529.561	3395
2531.508	3367
2533.452	3340
2535.398	3400
2537.342	3383
2539.284	3397
2541.229	3381
2543.173	3418
2545.114	3354
2547.055	3412
2548.996	3408
2550.938	3412
2552.878	3423
2554.817	3427
2556.756	3432
2558.695	3372
2560.633	3357
2562.572	3448
2564.509	3322
2566.445	3511
2568.382	3406
2570.317	3415
2572.254	3402
2574.189	3480
2576.123	3308
2578.057	3428
2579.99	3420
2581.923	3341
2583.855	3415
2585.788	3404
2587.719	3413
2589.65	3416
2591.579	3462
2593.511	3449
2595.44	3436
2597.37	3336
2599.297	3435
2601.225	3408
2603.153	3381
2605.08	3396
2607.007	3373
2608.932	3406
2610.858	3355
2612.782	3407
2614.709	3458
2616.632	3423
2618.556	3369
2620.478	3400
2622.401	3387
2624.324	3453
2626.247	3452
2628.167	3451
2630.088	3389
2632.008	3407
2633.928	3436
2635.848	3431
2637.766	3476
2639.684	3446
2641.603	3397
2643.519	3428
2645.437	3465
2647.353	3435
2649.27	3398
2651.184	3398
2653.099	3395
2655.014	3375
2656.928	3431
2658.842	3490
2660.755	3362
2662.667	3466
2664.579	3449
2666.491	3360
2668.402	3389
2670.312	3424
2672.222	3362
2674.132	3466
2676.042	3393
2677.951	3387
2679.859	3385
2681.766	3396
2683.674	3390
2685.582	3329
2687.488	3411
2689.392	3355
2691.298	3401
2693.202	3466
2695.107	3497
2697.012	3419
2698.914	3397
2700.817	3353
2702.72	3278
2704.622	3440
2706.524	3393
2708.425	3396
2710.326	3388
2712.225	3413
2714.125	3350
2716.024	3344
2717.923	3375
2719.822	3378
2721.719	3402
2723.616	3387
2725.512	3383
2727.41	3324
2729.305	3482
2731.201	3457
2733.095	3433
2734.99	3432
2736.884	3404
2738.778	3360
2740.67	3392
2742.562	3366
2744.455	3328
2746.346	3303
2748.238	3349
2750.129	3387
2752.018	3408
2753.907	3327
2755.797	3394
2757.687	3363
2759.575	3316
2761.462	3382
2763.349	3307
2765.237	3314
2767.124	3386
2769.009	3289
2770.894	3352
2772.779	3364
2774.663	3360
2776.547	3386
2778.431	3355
2780.314	3300
2782.197	3372
2784.078	3362
2785.96	3321
2787.842	3294
2789.723	3369
2791.603	3331
2793.483	3360
2795.362	3366
2797.241	3397
2799.121	3365
2800.997	3313
2802.874	3368
2804.751	3331
2806.628	3314
2808.506	3330
2810.38	3308
2812.255	3337
2814.13	3338
2816.003	3332
2817.878	3352
2819.752	3338
2821.623	3338
2823.496	3364
2825.368	3393
2827.238	3319
2829.111	3374
2830.98	3326
2832.851	3331
2834.719	3388
2836.589	3244
2838.458	3257
2840.327	3301
2842.193	3294
2844.061	3384
2845.927	3384
2847.794	3412
2849.66	3363
2851.525	3323
2853.39	3407
2855.254	3379
2857.117	3464
2858.983	3462
2860.845	3405
2862.707	3485
2864.569	3359
2866.431	3434
2868.293	3470
2870.154	3466
2872.013	3546
2873.873	3487
2875.733	3591
2877.592	3559
2879.451	3641
2881.309	3578
2883.166	3618
2885.022	3768
2886.879	3598
2888.736	3692
2890.591	3717
2892.446	3722
2894.301	3713
2896.155	3776
2898.009	3700
2899.863	3716
2901.716	3646
2903.568	3688
2905.419	3681
2907.27	3730
2909.123	3734
2910.973	3636
2912.824	3695
2914.673	3710
2916.521	3746
2918.372	3867
2920.22	3804
2922.067	3840
2923.914	3841
2925.761	3961
2927.607	3936
2929.455	4010
2931.301	4082
2933.144	4025
2934.99	4099
2936.833	4072
2938.678	4104
2940.522	4190
2942.364	4184
2944.207	4297
2946.048	4266
2947.891	4333
2949.731	4300
2951.571	4257
2953.412	4264
2955.25	4188
2957.09	4172
2958.93	4120
2960.767	4104
2962.606	4096
2964.443	4028
2966.279	4019
2968.116	4015
2969.953	4009
2971.788	3839
2973.623	3825
2975.457	3803
2977.292	3820
2979.127	3812
2980.959	3781
2982.792	3696
2984.624	3772
2986.455	3775
2988.288	3690
2990.119	3801
2991.949	3583
2993.779	3599
2995.608	3647
2997.439	3647
2999.268	3663
3001.096	3626
3002.923	3550
3004.751	3486
3006.578	3486
3008.406	3423
3010.232	3509
3012.057	3427
3013.883	3372
3015.706	3399
3017.532	3312
3019.356	3240
3021.179	3265
3023.002	3334
3024.823	3351
3026.646	3343
3028.469	3256
3030.289	3294
3032.11	3238
3033.93	3241
3035.749	3295
3037.57	3307
3039.39	3201
3041.207	3227
3043.026	3290
3044.842	3247
3046.661	3189
3048.477	3236
3050.294	3281
3052.109	3234
3053.925	3184
3055.739	3159
3057.555	3295
3059.368	3139
3061.181	3192
3062.995	3206
3064.807	3179
3066.62	3200
3068.433	3175
3070.243	3238
3072.054	3210
3073.865	3147
3075.675	3141
3077.485	3190
3079.293	3165
3081.102	3197
3082.911	3188
3084.719	3164
3086.527	3127
3088.333	3131
3090.139	3099
3091.945	3160
3093.75	3102
3095.557	3141
3097.361	3131
3099.165	3065
3100.969	3135
3102.772	3196
3104.575	3168
3106.379	3114
3108.181	3085
3109.982	3077
3111.783	3108
3113.584	3050
3115.386	3049
3117.186	3129
3118.985	3052
3120.783	3106
3122.582	3091
3124.381	3094
3126.179	3118
3127.975	3144
3129.772	3068
3131.569	3117
3133.365	3047
3135.161	3119
3136.956	3096
3138.751	3082
3140.544	3084
3142.338	3091
3144.132	3114
3145.925	2989
3147.717	2997
3149.509	3120
3151.301	3068
3153.091	3049
3154.884	3002
3156.673	3044
3158.462	3027
3160.252	2976
3162.041	3066
3163.831	3096
3165.618	3064
3167.405	3079
3169.193	3039
3170.979	3073
3172.767	2998
3174.553	2994
3176.338	3044
3178.123	3069
3179.907	3003
3181.692	3067
3183.477	3062
3185.259	3053
3187.042	3014
3188.824	3055
3190.607	3049
3192.389	3022
3194.17	2998
3195.951	3034
3197.73	3043
3199.51	3049
3201.289	3091
3203.07	3037
3204.848	2946
3206.626	3062
3208.403	3060
3210.18	3031
3211.959	3060
3213.735	2996
3215.511	3106
3217.285	3042
3219.06	2983
3220.836	2979
3222.611	3020
3224.384	3066
3226.158	3001
3227.929	3143
3229.702	3011
3231.476	3047
3233.248	3045
3235.018	3064
3236.789	3069
3238.56	3000
3240.33	2989
3242.1	3016
3243.869	3070
3245.637	3080
3247.405	2988
3249.172	3074
3250.941	3078
3252.707	3012
3254.474	2985
3256.24	3016
3258.006	2980
3259.772	3067
3261.537	3098
3263.301	2967
3265.065	2999
3266.828	3057
3268.592	3010
3270.355	3025
3272.117	3001
3273.878	3044
3275.64	3028
3277.401	3041
3279.162	2984
3280.922	3019
3282.682	3020
3284.441	3015
3286.199	3054
3287.959	3014
3289.716	3043
3291.475	3099
3293.232	2999
3294.988	3119
3296.744	3079
3298.501	2974
3300.256	3078
3302.011	3064
3303.766	3084
3305.52	3071
3307.275	2961
3309.028	3020
3310.781	3085
3312.533	3057
3314.285	3011
3316.038	3023
3317.789	3039
3319.54	3047
3321.289	3077
3323.039	3042
3324.789	2991
3326.539	2987
3328.288	3003
3330.035	3094
3331.783	2983
3333.531	3061
3335.28	2997
3337.025	3019
3338.771	3048
3340.518	3003
3342.262	3045
3344.009	3009
3345.753	2978
3347.497	2968
3349.24	2919
3350.983	2920
3352.726	2980
3354.469	3005
3356.212	3003
3357.952	3008
3359.694	3001
3361.434	2980
3363.176	2949
3364.916	3022
3366.654	2968
3368.394	2974
3370.132	2962
3371.871	2942
3373.61	2963
3375.346	2937
3377.083	2923
3378.82	2949
3380.556	2957
3382.292	2922
3384.027	2924
3385.763	2962
3387.497	2946
3389.231	2931
3390.965	2933
3392.698	2949
3394.431	2951
3396.164	2879
3397.896	2851
3399.627	2966
3401.36	2956
3403.09	2919
3404.82	2931
3406.55	2952
3408.279	2890
3410.01	2879
3411.738	2926
3413.467	2884
3415.194	2896
3416.92	2914
3418.647	2962
3420.375	2945
3422.102	2873
3423.827	2819
3425.553	2885
3427.277	2945
3429.003	2816
3430.727	2792
3432.451	2959
3434.173	2865
3435.896	2853
3437.62	2861
3439.343	2808
3441.063	2941
3442.785	2950
3444.505	2927
3446.226	2887
3447.948	2874
3449.666	2927
3451.386	2847
3453.104	2801
3454.823	2902
3456.541	2786
3458.259	2877
3459.976	2858
3461.693	2889
3463.408	2852
3465.125	2851
3466.841	2844
3468.556	2807
3470.271	2811
3471.985	2844
3473.698	2803
3475.414	2771
3477.126	2798
3478.838	2792
3480.55	2723
3482.263	2773
3483.975	2797
3485.686	2775
3487.396	2782
3489.106	2777
3490.817	2740
3492.526	2767
3494.236	2847
3495.944	2712
3497.652	2747
3499.359	2703
3501.066	2738
3502.775	2704
3504.481	2788
3506.187	2719
3507.893	2658
3509.598	2719
3511.304	2701
3513.009	2692
3514.713	2797
3516.417	2657
3518.12	2741
3519.821	2677
3521.525	2722
3523.228	2721
3524.929	2664
3526.631	2711
3528.33	2720
3530.032	2645
3531.733	2659
3533.433	2757
3535.131	2649
3536.83	2664
3538.529	2594
3540.227	2694
3541.925	2649
3543.623	2688
3545.319	2668
3547.016	2623
3548.712	2645
3550.408	2683
3552.103	2582
3553.798	2655
3555.491	2684
3557.188	2679
3558.88	2656
3560.574	2639
3562.266	2605
3563.959	2624
3565.651	2660
3567.343	2649
3569.035	2657
3570.725	2591
3572.415	2646
3574.106	2615
3575.797	2634
3577.485	2639
3579.174	2650
3580.863	2582
3582.551	2573
3584.238	2616
3585.926	2550
3587.613	2616
3589.3	2472
3590.986	2571
3592.671	2592
3594.357	2538
3596.042	2554
3597.726	2518
3599.41	2621
3601.094	2525
3602.778	2552
3604.461	2516
3606.143	2553
3607.825	2575
3609.507	2462
3611.188	2522
3612.87	2547
3614.551	2558
3616.229	2520
3617.909	2442
3619.589	2528
3621.269	2456
3622.948	2462
3624.625	2515
3626.302	2460
3627.98	2444
3629.657	2480
3631.334	2476
3633.01	2449
3634.686	2485
3636.361	2515
3638.036	2445
3639.712	2450
3641.385	2519
3643.06	2497
3644.732	2426
3646.405	2464
3648.08	2448
3649.751	2493
3651.424	2473
3653.094	2467
3654.766	2407
3656.436	2396
3658.106	2443
3659.777	2436
3661.446	2456
3663.115	2378
3664.783	2416
3666.452	2367
3668.121	2389
3669.788	2454
3671.454	2384
3673.121	2446
3674.789	2423
3676.455	2438
3678.12	2428
3679.784	2479
3681.45	2397
3683.114	2365
3684.779	2385
3686.442	2349
3688.105	2368
3689.768	2349
3691.43	2385
3693.093	2379
3694.754	2359
3696.415	2391
3698.076	2367
3699.736	2299
3701.396	2350
3703.057	2391
3704.716	2403
3706.375	2411
3708.034	2338
3709.692	2322
3711.351	2347
3713.008	2350
3714.665	2282
3716.321	2344
3717.977	2401
3719.634	2338
3721.29	2310
3722.945	2395
3724.598	2314
3726.253	2367
3727.907	2325
3729.561	2389
3731.214	2334
3732.867	2328
3734.518	2375
3736.171	2268
3737.824	2349
3739.474	2337
3741.125	2349
3742.775	2345
3744.425	2327
3746.074	2355
3747.725	2331
3749.373	2338
3751.022	2324
3752.669	2304
3754.318	2336
3755.966	2308
3757.612	2299
3759.259	2325
3760.905	2361
3762.55	2297
3764.197	2295
3765.842	2264
3767.486	2286
3769.131	2326
3770.774	2269
3772.417	2280
3774.061	2305
3775.705	2354
3777.347	2281
3778.988	2281
3780.629	2296
3782.271	2250
3783.912	2298
3785.552	2276
3787.192	2264
3788.831	2267
3790.472	2274
3792.112	2256
3793.75	2324
3795.388	2256
3797.024	2274
3798.661	2268
3800.3	2269
3801.936	2288
3803.572	2261
3805.208	2210
3806.844	2205
3808.48	2288
3810.115	2272
3811.748	2257
3813.382	2258
3815.016	2199
3816.649	2284
3818.283	2218
3819.914	2251
3821.547	2216
3823.178	2221
3824.809	2185
3826.441	2209
3828.072	2212
3829.701	2240
3831.331	2194
3832.96	2266
3834.591	2234
3836.219	2182
3837.847	2160
3839.475	2197
3841.102	2169
3842.729	2175
3844.357	2204
3845.984	2214
3847.609	2275
3849.234	2208
3850.86	2218
3852.485	2197
3854.11	2223
3855.734	2163
3857.357	2215
3858.981	2208
3860.603	2235
3862.227	2181
3863.848	2184
3865.471	2188
3867.092	2162
3868.713	2167
3870.334	2192
3871.954	2143
3873.575	2196
3875.194	2162
3876.813	2164
3878.433	2209
3880.051	2189
3881.669	2149
3883.286	2151
3884.904	2154
3886.52	2187
3888.138	2147
3889.754	2176
3891.37	2172
3892.985	2097
3894.6	2102
3896.216	2164
3897.831	2167
3899.444	2166
3901.058	2124
3902.67	2186
3904.283	2136
3905.897	2150
3907.509	2144
3909.121	2153
3910.731	2107
3912.342	2168
3913.954	2140
3915.563	2119
3917.174	2155
3918.783	2106
3920.391	2152
3922.002	2170
3923.611	2110
3925.218	2140
3926.826	2191
3928.432	2077
3930.039	2164
3931.647	2122
3933.253	2191
3934.859	2145
3936.464	2147
3938.068	2120
3939.675	2105
3941.278	2199
3942.883	2099
3944.486	2080
3946.089	2073
3947.692	2084
3949.295	2141
3950.898	2190
3952.499	2128
3954.1	2123
3955.7	2097
3957.303	2108
3958.903	2142
3960.502	2074
3962.101	2098
3963.7	2045
3965.301	2083
3966.899	2134
3968.497	2065
3970.094	2051
3971.691	2074
3973.288	2103
3974.885	2076
3976.481	2097
3978.077	2053
3979.672	2020
3981.267	2075
3982.863	2083
3984.457	2111
3986.051	2064
3987.645	2065
3989.238	2098
3990.831	2023
3992.425	1992
3994.017	2056
3995.607	2091
3997.199	2072
3998.79	2011
4000.382	2069
4001.973	2098
4003.561	2083
4005.151	2040
4006.741	2008
4008.331	2062
4009.918	2042
4011.507	2046
4013.095	2057
4014.681	2051
4016.269	2022
4017.856	2016
4019.443	2025
4021.028	2002
4022.614	2056
4024.199	2064
4025.785	2024
4027.37	1945
4028.953	1991
4030.536	2071
4032.12	1971
4033.704	2011
4035.287	1977
4036.869	2008
4038.45	1968
4040.032	2016
4041.613	2030
4043.195	2052
4044.776	1978
4046.356	1952
4047.935	1992
4049.515	1980
4051.095	1977
4052.674	1964
4054.251	1983
4055.829	1938
4057.406	1998
4058.985	2002
4060.562	1969
4062.139	2007
4063.715	1952
4065.29	1968
4066.865	2006
4068.442	1978
4070.016	1939
4071.59	1994
4073.164	1926
4074.738	1927
4076.312	1981
4077.885	1914
4079.458	1925
4081.03	1990
4082.602	2014
4084.173	1947
4085.745	1973
4087.315	1976
4088.886	2006
4090.456	1908
4092.026	1961
4093.596	1887
4095.165	1937
4096.734	1984
4098.301	1962
4099.869	1950
4101.437	1953
4103.006	1970
4104.572	1955
4106.139	1942
4107.704	1944
4109.27	1970
4110.837	1937
4112.401	1960
4113.966	1948
4115.53	1945
4117.094	1883
4118.659	1922
4120.223	1922
4121.785	1895
4123.347	1942
4124.909	1941
4126.471	1834
4128.034	1855
4129.595	1885
4131.155	1912
4132.716	1914
4134.275	1951
4135.836	1868
4137.395	1888
4138.955	1853
4140.513	1869
4142.071	1928
4143.628	1898
4145.188	1954
4146.745	1894
4148.302	1857
4149.858	1888
4151.414	1908
4152.971	1906
4154.526	1850
4156.081	1889
4157.635	1804
4159.189	1882
4160.745	1833
4162.298	1844
4163.852	1837
4165.405	1840
4166.957	1812
4168.51	1833
4170.063	1850
4171.614	1851
4173.166	1885
4174.717	1783
4176.267	1775
4177.817	1846
4179.368	1803
4180.917	1807
4182.466	1806
4184.016	1857
4185.564	1814
4187.112	1861
4188.66	1794
4190.207	1872
4191.754	1853
4193.301	1785
4194.848	1833
4196.394	1834
4197.94	1822
4199.484	1833
4201.03	1855
4202.575	1793
4204.12	1837
4205.663	1823
4207.207	1857
4208.75	1822
4210.292	1806
4211.836	1749
4213.378	1813
4214.92	1796
4216.46	1828
4218.002	1816
4219.544	1796
4221.083	1791
4222.625	1837
4224.164	1776
4225.703	1806
4227.244	1769
4228.782	1817
4230.32	1798
4231.857	1819
4233.395	1786
4234.933	1785
4236.471	1778
4238.007	1766
4239.542	1833
4241.078	1774
4242.614	1776
4244.15	1770
4245.685	1753
4247.219	1817
4248.753	1806
4250.287	1753
4251.82	1785
4253.354	1743
4254.887	1727
4256.419	1721
4257.951	1758
4259.483	1812
4261.016	1750
4262.547	1742
4264.078	1748
4265.608	1760
4267.137	1779
4268.668	1734
4270.197	1741
4271.727	1763
4273.254	1751
4274.783	1785
4276.311	1789
4277.84	1735
4279.366	1730
4280.894	1755
4282.42	1735
4283.946	1653
4285.473	1752
4286.998	1710
4288.523	1717
4290.047	1723
4291.572	1744
4293.096	1697
4294.622	1744
4296.144	1782
4297.668	1715
4299.19	1755
4300.713	1747
4302.236	1681
4303.758	1710
4305.279	1726
4306.799	1740
4308.321	1691
4309.842	1768
4311.361	1714
4312.882	1728
4314.401	1712
