400.0961	2451
402.6185	2492
405.1424	2431
407.6635	2481
410.1838	2449
412.7035	2512
415.2225	2420
417.7388	2522
420.2585	2567
422.7754	2499
425.2917	2643
427.8072	2589
430.3221	2613
432.8363	2683
435.3498	2561
437.8626	2629
440.3727	2636
442.8841	2638
445.3969	2660
447.907	2627
450.4142	2564
452.9229	2584
455.4289	2569
457.9362	2600
460.4449	2583
462.9488	2481
465.454	2587
467.9566	2502
470.4604	2548
472.9637	2563
475.4662	2553
477.966	2530
480.4671	2561
482.9656	2553
485.4633	2474
487.9645	2547
490.4608	2604
492.9566	2568
495.4536	2527
497.948	2574
500.4437	2570
502.9387	2538
505.431	2544
507.9226	2550
510.4136	2575
512.9079	2549
515.3975	2626
517.8864	2598
520.3746	2573
522.8622	2648
525.3491	2624
527.8394	2536
530.3249	2598
532.8098	2644
535.2939	2654
537.7774	2567
540.2623	2612
542.7444	2641
545.2259	2593
547.7067	2544
550.1868	2606
552.6683	2637
555.147	2662
557.6231	2612
560.1005	2640
562.5773	2681
565.0534	2667
567.5308	2687
570.0056	2633
572.4776	2739
574.951	2703
577.4237	2743
579.8978	2756
582.3671	2726
584.8378	2814
587.3079	2802
589.7773	2780
592.244	2738
594.714	2705
597.1793	2775
599.6461	2729
602.1121	2745
604.5754	2744
607.0421	2709
609.5042	2687
611.9675	2715
614.4282	2752
616.8902	2723
619.3515	2766
621.8122	2661
624.2702	2672
626.7296	2675
629.1863	2671
631.6423	2590
634.1017	2673
636.5563	2667
639.0104	2691
641.4658	2707
643.9185	2667
646.3725	2624
648.8239	2723
651.2766	2552
653.7266	2644
656.176	2715
658.6247	2657
661.0748	2728
663.5242	2645
665.9709	2644
668.417	2744
670.8624	2676
673.3092	2741
675.7533	2736
678.1968	2736
680.6395	2747
683.0817	2725
685.5251	2764
687.9659	2713
690.4061	2721
692.8456	2812
695.2844	2758
697.7226	2806
700.1621	2710
702.599	2831
705.0332	2818
707.4688	2786
709.9036	2708
712.3399	2753
714.7735	2757
717.2044	2792
719.6367	2812
722.0683	2692
724.4993	2769
726.9296	2788
729.3593	2833
731.7883	2842
734.2147	2839
736.6423	2803
739.0714	2826
741.4958	2791
743.9216	2823
746.3447	2857
748.7691	2899
751.1929	2881
753.616	2896
756.0366	2897
758.4584	2882
760.8776	2909
763.2982	2894
765.718	2916
768.1373	2920
770.5539	2922
772.9698	2966
775.3871	2864
777.8038	2924
780.2178	2887
782.6332	2929
785.0459	2917
787.458	2976
789.8714	2896
792.2842	2942
794.6943	2908
797.1038	2936
799.5127	2905
801.9209	2929
804.3324	2930
806.7393	2927
809.1456	2931
811.5513	2971
813.9562	2992
816.3625	3016
818.7663	2961
821.1693	3002
823.5718	3004
825.9735	2920
828.3746	2967
830.7771	3046
833.177	3090
835.5762	2907
837.9747	2954
840.3727	2986
842.772	3069
845.1666	3041
847.5626	3047
849.958	3078
852.3527	3052
854.7488	3126
857.1403	3128
859.5331	3078
861.9253	3085
864.3168	3018
866.7057	3071
869.098	3091
871.4876	3076
873.8746	3032
876.263	3123
878.6487	3005
881.0378	3087
883.4243	3107
885.8081	3053
888.1933	3056
890.5759	3046
892.9598	3054
895.343	2999
897.7256	3018
900.1057	3062
902.4871	3069
904.8659	3025
907.246	3034
909.6254	3062
912.0023	3113
914.3786	3140
916.7562	3224
919.1331	3290
921.5074	3262
923.8831	3266
926.2562	3238
928.6287	3260
931.0005	3256
933.3757	3310
935.7462	3408
938.1162	3318
940.4855	3413
942.8542	3429
945.2242	3524
947.5916	3604
949.9584	3776
952.3266	3856
954.6921	3976
957.0571	4282
959.4233	4598
961.787	4619
964.15	4785
966.5125	4506
968.8742	4200
971.2354	3976
973.5959	3744
975.9559	3573
978.3151	3376
980.6738	3319
983.0338	3301
985.3912	3268
987.7461	3225
990.1022	3159
992.4578	3262
994.8127	3238
997.1689	3231
999.5207	3252
1001.874	3269
1004.226	3285
1006.576	3271
1008.929	3255
1011.28	3210
1013.628	3233
1015.977	3132
1018.324	3139
1020.674	3208
1023.019	3182
1025.366	3216
1027.713	3326
1030.056	3315
1032.399	3277
1034.746	3295
1037.087	3263
1039.431	3301
1041.771	3272
1044.113	3360
1046.454	3308
1048.793	3336
1051.133	3277
1053.471	3347
1055.807	3288
1058.146	3277
1060.483	3276
1062.818	3274
1065.153	3359
1067.489	3348
1069.822	3393
1072.156	3453
1074.488	3494
1076.82	3422
1079.15	3342
1081.48	3387
1083.814	3420
1086.143	3372
1088.471	3303
1090.799	3345
1093.126	3287
1095.452	3247
1097.78	3289
1100.105	3238
1102.43	3266
1104.754	3350
1107.077	3251
1109.4	3330
1111.722	3252
1114.044	3275
1116.365	3299
1118.685	3170
1121.005	3245
1123.324	3224
1125.643	3303
1127.961	3289
1130.278	3330
1132.595	3260
1134.911	3280
1137.226	3262
1139.541	3180
1141.854	3218
1144.167	3234
1146.482	3262
1148.793	3240
1151.105	3296
1153.414	3225
1155.725	3207
1158.033	3230
1160.344	3222
1162.651	3328
1164.959	3231
1167.265	3220
1169.572	3274
1171.878	3240
1174.184	3253
1176.488	3241
1178.79	3224
1181.094	3203
1183.396	3220
1185.699	3295
1188.001	3301
1190.301	3231
1192.6	3204
1194.9	3252
1197.2	3325
1199.497	3302
1201.794	3224
1204.09	3284
1206.387	3298
1208.684	3253
1210.978	3282
1213.272	3236
1215.565	3287
1217.858	3298
1220.15	3267
1222.443	3323
1224.734	3313
1227.024	3244
1229.313	3327
1231.602	3363
1233.892	3434
1236.18	3379
1238.467	3414
1240.754	3407
1243.04	3491
1245.325	3503
1247.612	3513
1249.896	3472
1252.178	3475
1254.461	3398
1256.743	3444
1259.027	3432
1261.308	3463
1263.587	3365
1265.867	3475
1268.146	3376
1270.425	3495
1272.703	3418
1274.981	3405
1277.256	3410
1279.532	3470
1281.808	3428
1284.083	3424
1286.358	3470
1288.63	3459
1290.904	3409
1293.175	3432
1295.449	3327
1297.719	3465
1299.99	3348
1302.259	3334
1304.529	3353
1306.798	3382
1309.065	3316
1311.333	3349
1313.599	3356
1315.866	3340
1318.131	3398
1320.396	3344
1322.66	3332
1324.925	3401
1327.187	3376
1329.448	3411
1331.711	3386
1333.974	3383
1336.234	3354
1338.493	3316
1340.752	3297
1343.01	3382
1345.269	3411
1347.526	3310
1349.784	3287
1352.04	3353
1354.295	3379
1356.552	3344
1358.806	3319
1361.059	3386
1363.312	3449
1365.564	3315
1367.818	3316
1370.069	3363
1372.318	3249
1374.568	3382
1376.817	3357
1379.066	3380
1381.316	3457
1383.564	3374
1385.809	3392
1388.056	3397
1390.301	3446
1392.549	3521
1394.793	3490
1397.036	3540
1399.279	3519
1401.522	3479
1403.763	3577
1406.007	3514
1408.248	3471
1410.487	3510
1412.727	3552
1414.965	3538
1417.205	3463
1419.442	3508
1421.68	3517
1423.915	3539
1426.152	3531
1428.388	3471
1430.623	3448
1432.857	3549
1435.091	3530
1437.323	3565
1439.556	3555
1441.789	3618
1444.019	3539
1446.25	3562
1448.48	3711
1450.708	3591
1452.938	3672
1455.167	3639
1457.394	3617
1459.62	3591
1461.846	3575
1464.073	3549
1466.299	3627
1468.523	3644
1470.746	3514
1472.969	3529
1475.191	3456
1477.415	3513
1479.636	3375
1481.858	3466
1484.078	3404
1486.298	3416
1488.518	3370
1490.736	3408
1492.954	3378
1495.169	3362
1497.386	3395
1499.602	3399
1501.819	3359
1504.034	3373
1506.248	3446
1508.462	3343
1510.675	3343
1512.888	3343
1515.1	3283
1517.311	3336
1519.522	3311
1521.732	3290
1523.942	3337
1526.151	3308
1528.36	3366
1530.566	3315
1532.773	3354
1534.98	3351
1537.187	3298
1539.392	3293
1541.596	3356
1543.801	3312
1546.005	3394
1548.208	3428
1550.411	3434
1552.612	3513
1554.814	3395
1557.013	3375
1559.212	3443
1561.414	3465
1563.612	3355
1565.811	3368
1568.007	3404
1570.203	3478
1572.403	3409
1574.598	3480
1576.792	3462
1578.988	3421
1581.181	3465
1583.376	3452
1585.568	3438
1587.761	3432
1589.952	3440
1592.143	3501
1594.333	3493
1596.524	3487
1598.715	3477
1600.903	3524
1603.091	3550
1605.278	3511
1607.466	3484
1609.652	3567
1611.838	3517
1614.023	3511
1616.207	3482
1618.391	3591
1620.576	3535
1622.759	3541
1624.941	3534
1627.123	3541
1629.304	3526
1631.484	3544
1633.664	3594
1635.844	3564
1638.022	3652
1640.201	3539
1642.38	3562
1644.556	3583
1646.732	3659
1648.908	3687
1651.084	3575
1653.257	3577
1655.433	3632
1657.607	3603
1659.779	3719
1661.951	3647
1664.122	3650
1666.295	3662
1668.467	3670
1670.635	3586
1672.805	3644
1674.973	3719
1677.142	3661
1679.31	3694
1681.478	3664
1683.644	3608
1685.81	3701
1687.975	3577
1690.142	3588
1692.305	3556
1694.468	3576
1696.632	3602
1698.794	3584
1700.957	3486
1703.119	3423
1705.279	3531
1707.439	3496
1709.598	3463
1711.758	3523
1713.917	3520
1716.075	3454
1718.231	3413
1720.388	3464
1722.543	3504
1724.702	3505
1726.856	3419
1729.01	3452
1731.164	3408
1733.317	3441
1735.471	3487
1737.623	3438
1739.774	3546
1741.925	3517
1744.075	3528
1746.225	3523
1748.376	3482
1750.524	3483
1752.672	3495
1754.82	3470
1756.965	3459
1759.113	3492
1761.259	3485
1763.405	3424
1765.549	3470
1767.694	3610
1769.836	3439
1771.981	3503
1774.123	3475
1776.264	3473
1778.405	3545
1780.546	3497
1782.687	3428
1784.827	3487
1786.966	3401
1789.103	3450
1791.242	3577
1793.381	3502
1795.517	3524
1797.653	3468
1799.788	3514
1801.923	3487
1804.057	3510
1806.193	3579
1808.326	3542
1810.457	3512
1812.59	3538
1814.721	3486
1816.855	3495
1818.984	3524
1821.113	3546
1823.244	3497
1825.372	3463
1827.499	3578
1829.63	3486
1831.756	3535
1833.882	3593
1836.007	3479
1838.132	3483
1840.26	3581
1842.384	3467
1844.507	3418
1846.63	3437
1848.752	3472
1850.875	3444
1852.996	3510
1855.118	3474
1857.238	3450
1859.358	3412
1861.477	3379
1863.597	3466
1865.715	3504
1867.832	3438
1869.948	3439
1872.064	3458
1874.181	3427
1876.297	3534
1878.411	3554
1880.526	3464
1882.639	3481
1884.752	3522
1886.865	3447
1888.977	3479
1891.089	3449
1893.2	3533
1895.308	3495
1897.42	3531
1899.53	3544
1901.639	3474
1903.745	3528
1905.853	3514
1907.962	3526
1910.067	3543
1912.174	3534
1914.278	3553
1916.383	3574
1918.486	3507
1920.592	3564
1922.694	3490
1924.797	3502
1926.898	3526
1929	3590
1931.102	3630
1933.203	3472
1935.301	3472
1937.401	3657
1939.499	3493
1941.598	3617
1943.697	3472
1945.793	3519
1947.888	3515
1949.985	3505
1952.08	3508
1954.176	3504
1956.269	3562
1958.364	3563
1960.457	3515
1962.549	3468
1964.642	3509
1966.733	3521
1968.823	3504
1970.913	3494
1973.005	3548
1975.093	3598
1977.184	3592
1979.271	3556
1981.359	3567
1983.446	3523
1985.532	3537
1987.619	3599
1989.705	3511
1991.789	3514
1993.874	3580
1995.956	3511
1998.041	3554
2000.123	3540
2002.206	3543
2004.287	3504
2006.368	3465
2008.449	3516
2010.529	3535
2012.609	3557
2014.688	3568
2016.766	3538
2018.843	3443
2020.922	3586
2022.999	3536
2025.074	3499
2027.15	3531
2029.225	3560
2031.299	3533
2033.375	3506
2035.447	3542
2037.52	3446
2039.592	3531
2041.664	3484
2043.736	3448
2045.807	3514
2047.876	3538
2049.947	3556
2052.015	3503
2054.086	3401
2056.153	3471
2058.221	3553
2060.288	3565
2062.353	3521
2064.42	3544
2066.486	3577
2068.55	3493
2070.614	3485
2072.678	3539
2074.741	3530
2076.805	3611
2078.866	3538
2080.929	3585
2082.99	3572
2085.049	3538
2087.109	3602
2089.17	3506
2091.228	3554
2093.286	3505
2095.344	3558
2097.4	3524
2099.46	3518
2101.516	3556
2103.572	3553
2105.626	3601
2107.679	3549
2109.735	3529
2111.788	3624
2113.841	3533
2115.894	3560
2117.945	3587
2119.997	3478
2122.049	3456
2124.1	3579
2126.148	3598
2128.197	3476
2130.246	3499
2132.296	3545
2134.342	3588
2136.39	3543
2138.437	3571
2140.483	3537
2142.527	3524
2144.574	3537
2146.619	3526
2148.661	3507
2150.705	3465
2152.747	3606
2154.792	3521
2156.832	3529
2158.874	3512
2160.915	3498
2162.954	3478
2164.995	3561
2167.034	3605
2169.072	3531
2171.111	3518
2173.148	3569
2175.186	3580
2177.223	3495
2179.258	3411
2181.294	3455
2183.328	3445
2185.362	3503
2187.398	3470
2189.431	3481
2191.463	3451
2193.495	3533
2195.528	3464
2197.56	3408
2199.59	3524
2201.62	3477
2203.649	3412
2205.678	3464
2207.708	3476
2209.737	3432
2211.764	3494
2213.791	3510
2215.817	3493
2217.843	3475
2219.87	3388
2221.895	3494
2223.919	3526
2225.942	3449
2227.966	3442
2229.988	3502
2232.012	3408
2234.032	3482
2236.054	3457
2238.074	3465
2240.095	3535
2242.116	3464
2244.135	3474
2246.153	3482
2248.171	3455
2250.188	3493
2252.208	3420
2254.223	3485
2256.239	3512
2258.255	3511
2260.269	3398
2262.283	3529
2264.3	3464
2266.312	3485
2268.325	3444
2270.336	3423
2272.349	3476
2274.362	3554
2276.372	3457
2278.383	3489
2280.392	3474
2282.402	3465
2284.409	3436
2286.418	3430
2288.427	3464
2290.433	3539
2292.441	3484
2294.446	3542
2296.453	3423
2298.459	3472
2300.463	3502
2302.466	3445
2304.471	3434
2306.475	3485
2308.477	3465
2310.478	3450
2312.481	3448
2314.481	3447
2316.481	3486
2318.482	3479
2320.482	3533
2322.48	3474
2324.48	3457
2326.478	3424
2328.476	3464
2330.473	3405
2332.469	3477
2334.465	3475
2336.46	3398
2338.454	3397
2340.45	3447
2342.444	3451
2344.437	3497
2346.43	3438
2348.421	3404
2350.414	3434
2352.405	3444
2354.396	3403
2356.386	3405
2358.376	3405
2360.366	3426
2362.355	3450
2364.343	3384
2366.331	3361
2368.317	3375
2370.304	3383
2372.292	3427
2374.278	3426
2376.262	3374
2378.247	3390
2380.23	3310
2382.216	3350
2384.199	3423
2386.181	3388
2388.163	3439
2390.144	3343
2392.127	3372
2394.107	3328
2396.087	3428
2398.066	3345
2400.046	3376
2402.023	3369
2404.004	3358
2405.981	3472
2407.957	3331
2409.934	3364
2411.91	3486
2413.886	3380
2415.862	3389
2417.836	3364
2419.809	3426
2421.784	3390
2423.756	3437
2425.73	3374
2427.701	3339
2429.672	3455
2431.644	3494
2433.615	3414
2435.586	3395
2437.555	3361
2439.523	3412
2441.491	3381
2443.459	3399
2445.428	3327
2447.395	3316
2449.361	3296
2451.327	3401
2453.292	3459
2455.257	3374
2457.223	3377
2459.187	3324
2461.15	3372
2463.113	3270
2465.076	3278
2467.039	3320
2468.999	3306
2470.96	3346
2472.921	3423
2474.881	3363
2476.841	3415
2478.8	3355
2480.759	3315
2482.717	3299
2484.675	3403
2486.63	3418
2488.589	3400
2490.545	3305
2492.5	3343
2494.455	3380
2496.408	3407
2498.364	3307
2500.318	3336
2502.27	3313
2504.223	3387
2506.174	3358
2508.126	3350
2510.078	3361
2512.03	3383
2513.979	3285
2515.927	3399
2517.877	3447
2519.826	3336
2521.775	3331
2523.722	3372
2525.668	3367
2527.616	3391
2529.561	3355
2531.508	3335
2533.452	3230
2535.398	3436
2537.342	3377
2539.284	3415
2541.229	3322
2543.173	3321
2545.114	3301
2547.055	3277
2548.996	3357
2550.938	3366
2552.878	3321
2554.817	3377
2556.756	3347
2558.695	3259
2560.633	3307
2562.572	3388
2564.509	3305
2566.445	3335
2568.382	3302
2570.317	3358
2572.254	3277
2574.189	3402
2576.123	3358
2578.057	3393
2579.99	3247
2581.923	3310
2583.855	3343
2585.788	3350
2587.719	3332
2589.65	3330
2591.579	3341
2593.511	3366
2595.44	3283
2597.37	3388
2599.297	3365
2601.225	3348
2603.153	3293
2605.08	3391
2607.007	3364
2608.932	3356
2610.858	3359
2612.782	3360
2614.709	3280
2616.632	3321
2618.556	3338
2620.478	3395
2622.401	3373
2624.324	3348
2626.247	3374
2628.167	3410
2630.088	3406
2632.008	3363
2633.928	3389
2635.848	3387
2637.766	3311
2639.684	3398
2641.603	3345
2643.519	3373
2645.437	3376
2647.353	3268
2649.27	3344
2651.184	3368
2653.099	3379
2655.014	3311
2656.928	3410
2658.842	3323
2660.755	3291
2662.667	3347
2664.579	3298
2666.491	3401
2668.402	3316
2670.312	3284
2672.222	3361
2674.132	3378
2676.042	3433
2677.951	3358
2679.859	3318
2681.766	3297
2683.674	3302
2685.582	3387
2687.488	3325
2689.392	3402
2691.298	3342
2693.202	3219
2695.107	3361
2697.012	3326
2698.914	3308
2700.817	3288
2702.72	3312
2704.622	3267
2706.524	3296
2708.425	3306
2710.326	3302
2712.225	3340
2714.125	3302
2716.024	3303
2717.923	3340
2719.822	3262
2721.719	3318
2723.616	3283
2725.512	3370
2727.41	3268
2729.305	3282
2731.201	3325
2733.095	3264
2734.99	3367
2736.884	3231
2738.778	3286
2740.67	3202
2742.562	3293
2744.455	3340
2746.346	3300
2748.238	3312
2750.129	3374
2752.018	3309
2753.907	3386
2755.797	3323
2757.687	3308
2759.575	3295
2761.462	3270
2763.349	3210
2765.237	3431
2767.124	3349
2769.009	3246
2770.894	3281
2772.779	3309
2774.663	3301
2776.547	3331
2778.431	3327
2780.314	3235
2782.197	3286
2784.078	3331
2785.96	3252
2787.842	3376
2789.723	3311
2791.603	3336
2793.483	3268
2795.362	3298
2797.241	3261
2799.121	3281
2800.997	3263
2802.874	3270
2804.751	3344
2806.628	3282
2808.506	3267
2810.38	3214
2812.255	3277
2814.13	3308
2816.003	3314
2817.878	3356
2819.752	3140
2821.623	3282
2823.496	3301
2825.368	3284
2827.238	3239
2829.111	3299
2830.98	3290
2832.851	3304
2834.719	3306
2836.589	3239
2838.458	3274
2840.327	3313
2842.193	3369
2844.061	3319
2845.927	3311
2847.794	3261
2849.66	3373
2851.525	3351
2853.39	3383
2855.254	3400
2857.117	3374
2858.983	3415
2860.845	3495
2862.707	3443
2864.569	3489
2866.431	3460
2868.293	3488
2870.154	3461
2872.013	3581
2873.873	3539
2875.733	3592
2877.592	3755
2879.451	3762
2881.309	3726
2883.166	3737
2885.022	3852
2886.879	3843
2888.736	3804
2890.591	3917
2892.446	3909
2894.301	3789
2896.155	3781
2898.009	3879
2899.863	3883
2901.716	3859
2903.568	3903
2905.419	3855
2907.27	3844
2909.123	3849
2910.973	3788
2912.824	3903
2914.673	3887
2916.521	3979
2918.372	3972
2920.22	4004
2922.067	4019
2923.914	4133
2925.761	4172
2927.607	4204
2929.455	4306
2931.301	4331
2933.144	4391
2934.99	4404
2936.833	4481
2938.678	4482
2940.522	4589
2942.364	4648
2944.207	4769
2946.048	4775
2947.891	4648
2949.731	4675
2951.571	4655
2953.412	4647
2955.25	4599
2957.09	4575
2958.93	4541
2960.767	4517
2962.606	4378
2964.443	4394
2966.279	4293
2968.116	4214
2969.953	4187
2971.788	4196
2973.623	4010
2975.457	4069
2977.292	4046
2979.127	4043
2980.959	4065
2982.792	3983
2984.624	3939
2986.455	3939
2988.288	3832
2990.119	3860
2991.949	3924
2993.779	3871
2995.608	3767
2997.439	3870
2999.268	3735
3001.096	3732
3002.923	3646
3004.751	3551
3006.578	3597
3008.406	3519
3010.232	3535
3012.057	3472
3013.883	3434
3015.706	3409
3017.532	3415
3019.356	3328
3021.179	3368
3023.002	3354
3024.823	3370
3026.646	3342
3028.469	3292
3030.289	3219
3032.11	3206
3033.93	3212
3035.749	3310
3037.57	3236
3039.39	3201
3041.207	3264
3043.026	3242
3044.842	3240
3046.661	3198
3048.477	3177
3050.294	3206
3052.109	3240
3053.925	3242
3055.739	3214
3057.555	3164
3059.368	3265
3061.181	3221
3062.995	3104
3064.807	3261
3066.62	3134
3068.433	3250
3070.243	3186
3072.054	3136
3073.865	3209
3075.675	3218
3077.485	3148
3079.293	3205
3081.102	3291
3082.911	3138
3084.719	3109
3086.527	3114
3088.333	3115
3090.139	3113
3091.945	3113
3093.75	3040
3095.557	3170
3097.361	3089
3099.165	3114
3100.969	3062
3102.772	3170
3104.575	3115
3106.379	3155
3108.181	3117
3109.982	3156
3111.783	3124
3113.584	3106
3115.386	3063
3117.186	3067
3118.985	3116
3120.783	3088
3122.582	3082
3124.381	3067
3126.179	2981
3127.975	3104
3129.772	3106
3131.569	3038
3133.365	3022
3135.161	3087
3136.956	3000
3138.751	3062
3140.544	3076
3142.338	3089
3144.132	3032
3145.925	3145
3147.717	3056
3149.509	3077
3151.301	3085
3153.091	2981
3154.884	3038
3156.673	2981
3158.462	3039
3160.252	3041
3162.041	2988
3163.831	3019
3165.618	3004
3167.405	3103
3169.193	3002
3170.979	3031
3172.767	3080
3174.553	3056
3176.338	3053
3178.123	3073
3179.907	3042
3181.692	3029
3183.477	3020
3185.259	3024
3187.042	3023
3188.824	2928
3190.607	3066
3192.389	2943
3194.17	3032
3195.951	3071
3197.73	3049
3199.51	3090
3201.289	2979
3203.07	3012
3204.848	3050
3206.626	3108
3208.403	3060
3210.18	3053
3211.959	2990
3213.735	3025
3215.511	3047
3217.285	3088
3219.06	3050
3220.836	3020
3222.611	3014
3224.384	2973
3226.158	3018
3227.929	3083
3229.702	3074
3231.476	3066
3233.248	2984
3235.018	3100
3236.789	3085
3238.56	3025
3240.33	3111
3242.1	2986
3243.869	3057
3245.637	3044
3247.405	3125
3249.172	3113
3250.941	2999
3252.707	3037
3254.474	3053
3256.24	3000
3258.006	3020
3259.772	3001
3261.537	3005
3263.301	3065
3265.065	3074
3266.828	3078
3268.592	3043
3270.355	3118
3272.117	3085
3273.878	2984
3275.64	3086
3277.401	3055
3279.162	3045
3280.922	3012
3282.682	3058
3284.441	3060
3286.199	3087
3287.959	3096
3289.716	3107
3291.475	3089
3293.232	3122
3294.988	3113
3296.744	3098
3298.501	3133
3300.256	3161
3302.011	3037
3303.766	3097
3305.52	3074
3307.275	3099
3309.028	3073
3310.781	3142
3312.533	3082
3314.285	3174
3316.038	3126
3317.789	3079
3319.54	3092
3321.289	3066
3323.039	3126
3324.789	3073
3326.539	3078
3328.288	3028
3330.035	3170
3331.783	3082
3333.531	3144
3335.28	3036
3337.025	3109
3338.771	3136
3340.518	3104
3342.262	3055
3344.009	3111
3345.753	3095
3347.497	3115
3349.24	3013
3350.983	3044
3352.726	3077
3354.469	3072
3356.212	3064
3357.952	3072
3359.694	3043
3361.434	3076
3363.176	3035
3364.916	2994
3366.654	3101
3368.394	3009
3370.132	3017
3371.871	3058
3373.61	3046
3375.346	2975
3377.083	2966
3378.82	2997
3380.556	2992
3382.292	2964
3384.027	3043
3385.763	2993
3387.497	3046
3389.231	3007
3390.965	2932
3392.698	2982
3394.431	3018
3396.164	2987
3397.896	3068
3399.627	2940
3401.36	2973
3403.09	3007
3404.82	2980
3406.55	2969
3408.279	2885
3410.01	2955
3411.738	2916
3413.467	2895
3415.194	2913
3416.92	2954
3418.647	2933
3420.375	2972
3422.102	3009
3423.827	2951
3425.553	2925
3427.277	2918
3429.003	2961
3430.727	2916
3432.451	2925
3434.173	2922
3435.896	2918
3437.62	2861
3439.343	2942
3441.063	2899
3442.785	2917
3444.505	2834
3446.226	2805
3447.948	2867
3449.666	2855
3451.386	2887
3453.104	2949
3454.823	2932
3456.541	2897
3458.259	2834
3459.976	2904
3461.693	2862
3463.408	2890
3465.125	2821
3466.841	2842
3468.556	2870
3470.271	2876
3471.985	2890
3473.698	2821
3475.414	2801
3477.126	2796
3478.838	2777
3480.55	2866
3482.263	2808
3483.975	2819
3485.686	2781
3487.396	2774
3489.106	2826
3490.817	2800
3492.526	2862
3494.236	2794
3495.944	2758
3497.652	2787
3499.359	2767
3501.066	2803
3502.775	2715
3504.481	2798
3506.187	2786
3507.893	2766
3509.598	2682
3511.304	2765
3513.009	2707
3514.713	2686
3516.417	2701
3518.12	2656
3519.821	2709
3521.525	2729
3523.228	2665
3524.929	2709
3526.631	2751
3528.33	2622
3530.032	2671
3531.733	2716
3533.433	2679
3535.131	2684
3536.83	2680
3538.529	2694
3540.227	2650
3541.925	2707
3543.623	2656
3545.319	2632
3547.016	2662
3548.712	2705
3550.408	2616
3552.103	2661
3553.798	2654
3555.491	2627
3557.188	2710
3558.88	2641
3560.574	2633
3562.266	2608
3563.959	2631
3565.651	2638
3567.343	2599
3569.035	2645
3570.725	2623
3572.415	2586
3574.106	2611
3575.797	2688
3577.485	2601
3579.174	2628
3580.863	2562
3582.551	2569
3584.238	2584
3585.926	2589
3587.613	2623
3589.3	2652
3590.986	2565
3592.671	2528
3594.357	2581
3596.042	2537
3597.726	2516
3599.41	2435
3601.094	2594
3602.778	2543
3604.461	2517
3606.143	2515
3607.825	2525
3609.507	2465
3611.188	2549
3612.87	2507
3614.551	2471
3616.229	2469
3617.909	2499
3619.589	2486
3621.269	2480
3622.948	2412
3624.625	2521
3626.302	2523
3627.98	2447
3629.657	2441
3631.334	2467
3633.01	2505
3634.686	2473
3636.361	2478
3638.036	2425
3639.712	2419
3641.385	2457
3643.06	2489
3644.732	2466
3646.405	2425
3648.08	2428
3649.751	2379
3651.424	2433
3653.094	2372
3654.766	2412
3656.436	2427
3658.106	2399
3659.777	2426
3661.446	2424
3663.115	2393
3664.783	2342
3666.452	2385
3668.121	2399
3669.788	2327
3671.454	2363
3673.121	2357
3674.789	2414
3676.455	2424
3678.12	2430
3679.784	2303
3681.45	2399
3683.114	2358
3684.779	2358
3686.442	2441
3688.105	2353
3689.768	2454
3691.43	2391
3693.093	2415
3694.754	2344
3696.415	2292
3698.076	2388
3699.736	2341
3701.396	2371
3703.057	2374
3704.716	2315
3706.375	2335
3708.034	2357
3709.692	2320
3711.351	2319
3713.008	2286
3714.665	2291
3716.321	2311
3717.977	2335
3719.634	2313
3721.29	2345
3722.945	2326
3724.598	2344
3726.253	2293
3727.907	2266
3729.561	2365
3731.214	2257
3732.867	2257
3734.518	2315
3736.171	2274
3737.824	2347
3739.474	2325
3741.125	2339
3742.775	2303
3744.425	2262
3746.074	2256
3747.725	2256
3749.373	2334
3751.022	2305
3752.669	2299
3754.318	2333
3755.966	2360
3757.612	2207
3759.259	2260
3760.905	2182
3762.55	2284
3764.197	2248
3765.842	2258
3767.486	2305
3769.131	2261
3770.774	2305
3772.417	2246
3774.061	2265
3775.705	2175
3777.347	2238
3778.988	2214
3780.629	2308
3782.271	2253
3783.912	2301
3785.552	2303
3787.192	2243
3788.831	2271
3790.472	2235
3792.112	2187
3793.75	2217
3795.388	2216
3797.024	2242
3798.661	2241
3800.3	2221
3801.936	2293
3803.572	2237
3805.208	2257
3806.844	2199
3808.48	2244
3810.115	2190
3811.748	2212
3813.382	2290
3815.016	2237
3816.649	2210
3818.283	2196
3819.914	2156
3821.547	2166
3823.178	2146
3824.809	2239
3826.441	2185
3828.072	2209
3829.701	2170
3831.331	2232
3832.96	2220
3834.591	2197
3836.219	2212
3837.847	2163
3839.475	2247
3841.102	2162
3842.729	2208
3844.357	2168
3845.984	2167
3847.609	2138
3849.234	2162
3850.86	2186
3852.485	2151
3854.11	2207
3855.734	2178
3857.357	2192
3858.981	2213
3860.603	2116
3862.227	2142
3863.848	2147
3865.471	2093
3867.092	2170
3868.713	2107
3870.334	2142
3871.954	2122
3873.575	2145
3875.194	2152
3876.813	2174
3878.433	2183
3880.051	2164
3881.669	2097
3883.286	2160
3884.904	2141
3886.52	2112
3888.138	2176
3889.754	2176
3891.37	2173
3892.985	2114
3894.6	2147
3896.216	2182
3897.831	2144
3899.444	2093
3901.058	2151
3902.67	2206
3904.283	2125
3905.897	2078
3907.509	2143
3909.121	2137
3910.731	2133
3912.342	2100
3913.954	2154
3915.563	2123
3917.174	2123
3918.783	2176
3920.391	2089
3922.002	2133
3923.611	2119
3925.218	2143
3926.826	2035
3928.432	2101
3930.039	2129
3931.647	2075
3933.253	2092
3934.859	2127
3936.464	2127
3938.068	2163
3939.675	2132
3941.278	2075
3942.883	2153
3944.486	2111
3946.089	2074
3947.692	2132
3949.295	2047
3950.898	2054
3952.499	2046
3954.1	2088
3955.7	2073
3957.303	2094
3958.903	2138
3960.502	2087
3962.101	2146
3963.7	2077
3965.301	2129
3966.899	2090
3968.497	2060
3970.094	2064
3971.691	2083
3973.288	2078
3974.885	2046
3976.481	2045
3978.077	2085
3979.672	2041
3981.267	2058
3982.863	2092
3984.457	2062
3986.051	2092
3987.645	2029
3989.238	2032
3990.831	2101
3992.425	2023
3994.017	2006
3995.607	2078
3997.199	2018
3998.79	2016
4000.382	2045
4001.973	1995
4003.561	2023
4005.151	2030
4006.741	2035
4008.331	1933
4009.918	2024
4011.507	1993
4013.095	1988
4014.681	2056
4016.269	1978
4017.856	1990
4019.443	2005
4021.028	2042
4022.614	1972
4024.199	2019
4025.785	2007
4027.37	2003
4028.953	1985
4030.536	1964
4032.12	1976
4033.704	1944
4035.287	2008
4036.869	1995
4038.45	1993
4040.032	2038
4041.613	1963
4043.195	1977
4044.776	1953
4046.356	1933
4047.935	1977
4049.515	1951
4051.095	1952
4052.674	1938
4054.251	1951
4055.829	1966
4057.406	1990
4058.985	1981
4060.562	1983
4062.139	1920
4063.715	2003
4065.29	1905
4066.865	2016
4068.442	1953
4070.016	1940
4071.59	1913
4073.164	1935
4074.738	1977
4076.312	1929
4077.885	1869
4079.458	1957
4081.03	1912
4082.602	1939
4084.173	1987
4085.745	1926
4087.315	1928
4088.886	1953
4090.456	1956
4092.026	1948
4093.596	1906
4095.165	1980
4096.734	1877
4098.301	1925
4099.869	1909
4101.437	1914
4103.006	1871
4104.572	1943
4106.139	1938
4107.704	1957
4109.27	1915
4110.837	1897
4112.401	1878
4113.966	1925
4115.53	1910
4117.094	1925
4118.659	1915
4120.223	1842
4121.785	1946
4123.347	1848
4124.909	1845
4126.471	1864
4128.034	1878
4129.595	1900
4131.155	1856
4132.716	1811
4134.275	1839
4135.836	1908
4137.395	1897
4138.955	1842
4140.513	1914
4142.071	1861
4143.628	1830
4145.188	1829
4146.745	1846
4148.302	1889
4149.858	1835
4151.414	1860
4152.971	1856
4154.526	1851
4156.081	1816
4157.635	1852
4159.189	1866
4160.745	1799
4162.298	1841
4163.852	1870
4165.405	1885
4166.957	1801
4168.51	1895
4170.063	1830
4171.614	1802
4173.166	1811
4174.717	1816
4176.267	1791
4177.817	1831
4179.368	1847
4180.917	1787
4182.466	1848
4184.016	1778
4185.564	1770
4187.112	1820
4188.66	1784
4190.207	1776
4191.754	1794
4193.301	1775
4194.848	1811
4196.394	1789
4197.94	1809
4199.484	1774
4201.03	1809
4202.575	1810
4204.12	1783
4205.663	1795
4207.207	1796
4208.75	1816
4210.292	1744
4211.836	1761
4213.378	1785
4214.92	1800
4216.46	1812
4218.002	1788
4219.544	1786
4221.083	1822
4222.625	1794
4224.164	1788
4225.703	1756
4227.244	1765
4228.782	1814
4230.32	1815
4231.857	1769
4233.395	1743
4234.933	1795
4236.471	1814
4238.007	1796
4239.542	1794
4241.078	1806
4242.614	1801
4244.15	1765
4245.685	1759
4247.219	1750
4248.753	1731
4250.287	1752
4251.82	1780
4253.354	1732
4254.887	1720
4256.419	1738
4257.951	1755
4259.483	1776
4261.016	1771
4262.547	1748
4264.078	1776
4265.608	1758
4267.137	1756
4268.668	1737
4270.197	1741
4271.727	1771
4273.254	1769
4274.783	1792
4276.311	1743
4277.84	1708
4279.366	1719
4280.894	1738
4282.42	1723
4283.946	1722
4285.473	1717
4286.998	1706
4288.523	1725
4290.047	1737
4291.572	1735
4293.096	1718
4294.622	1759
4296.144	1770
4297.668	1701
4299.19	1700
4300.713	1679
4302.236	1704
4303.758	1733
4305.279	1688
4306.799	1709
4308.321	1713
4309.842	1741
4311.361	1730
4312.882	1721
4314.401	1722
