400.0961	2690
402.6185	2667
405.1424	2692
407.6635	2634
410.1838	2655
412.7035	2702
415.2225	2702
417.7388	2727
420.2585	2779
422.7754	2832
425.2917	2803
427.8072	2827
430.3221	2882
432.8363	2895
435.3498	2916
437.8626	2820
440.3727	2901
442.8841	2894
445.3969	2923
447.907	2946
450.4142	2826
452.9229	2887
455.4289	2847
457.9362	2844
460.4449	2852
462.9488	2818
465.454	2818
467.9566	2790
470.4604	2798
472.9637	2814
475.4662	2879
477.966	2834
480.4671	2827
482.9656	2799
485.4633	2905
487.9645	2860
490.4608	2857
492.9566	2920
495.4536	2896
497.948	2878
500.4437	2861
502.9387	2917
505.431	2918
507.9226	2835
510.4136	2915
512.9079	2815
515.3975	2887
517.8864	2913
520.3746	2930
522.8622	2902
525.3491	2970
527.8394	2853
530.3249	2923
532.8098	2958
535.2939	2900
537.7774	2940
540.2623	2971
542.7444	2862
545.2259	2950
547.7067	2883
550.1868	2942
552.6683	2917
555.147	2937
557.6231	2992
560.1005	2941
562.5773	2927
565.0534	2938
567.5308	2959
570.0056	3030
572.4776	3064
574.951	3079
577.4237	3011
579.8978	3056
582.3671	3011
584.8378	3050
587.3079	3041
589.7773	3116
592.244	3011
594.714	3107
597.1793	3097
599.6461	3085
602.1121	3036
604.5754	3057
607.0421	2997
609.5042	3033
611.9675	3031
614.4282	3075
616.8902	3083
619.3515	3031
621.8122	3031
624.2702	2957
626.7296	2980
629.1863	2979
631.6423	3010
634.1017	2970
636.5563	3065
639.0104	2985
641.4658	3006
643.9185	3090
646.3725	2921
648.8239	2996
651.2766	3034
653.7266	2989
656.176	3095
658.6247	3050
661.0748	3013
663.5242	3062
665.9709	3045
668.417	3092
670.8624	3058
673.3092	3057
675.7533	3131
678.1968	3074
680.6395	3163
683.0817	3098
685.5251	3151
687.9659	3124
690.4061	3124
692.8456	3064
695.2844	3106
697.7226	3124
700.1621	3150
702.599	3093
705.0332	3128
707.4688	3177
709.9036	3075
712.3399	3150
714.7735	3125
717.2044	3164
719.6367	3142
722.0683	3170
724.4993	3223
726.9296	3181
729.3593	3204
731.7883	3192
734.2147	3250
736.6423	3209
739.0714	3207
741.4958	3213
743.9216	3198
746.3447	3197
748.7691	3290
751.1929	3235
753.616	3260
756.0366	3298
758.4584	3332
760.8776	3361
763.2982	3307
765.718	3259
768.1373	3326
770.5539	3387
772.9698	3353
775.3871	3297
777.8038	3387
780.2178	3350
782.6332	3340
785.0459	3352
787.458	3266
789.8714	3301
792.2842	3307
794.6943	3315
797.1038	3323
799.5127	3397
801.9209	3231
804.3324	3253
806.7393	3387
809.1456	3291
811.5513	3377
813.9562	3373
816.3625	3311
818.7663	3342
821.1693	3312
823.5718	3392
825.9735	3380
828.3746	3380
830.7771	3330
833.177	3326
835.5762	3417
837.9747	3362
840.3727	3473
842.772	3403
845.1666	3435
847.5626	3395
849.958	3410
852.3527	3524
854.7488	3501
857.1403	3474
859.5331	3486
861.9253	3462
864.3168	3361
866.7057	3510
869.098	3504
871.4876	3407
873.8746	3419
876.263	3386
878.6487	3448
881.0378	3463
883.4243	3385
885.8081	3371
888.1933	3378
890.5759	3433
892.9598	3483
895.343	3396
897.7256	3430
900.1057	3377
902.4871	3479
904.8659	3407
907.246	3415
909.6254	3497
912.0023	3518
914.3786	3512
916.7562	3520
919.1331	3545
921.5074	3694
923.8831	3578
926.2562	3695
928.6287	3687
931.0005	3690
933.3757	3681
935.7462	3693
938.1162	3707
940.4855	3735
942.8542	3660
945.2242	3792
947.5916	3945
949.9584	4003
952.3266	4115
954.6921	4367
957.0571	4432
959.4233	4638
961.787	4636
964.15	4683
966.5125	4549
968.8742	4229
971.2354	4082
973.5959	3905
975.9559	3809
978.3151	3710
980.6738	3699
983.0338	3634
985.3912	3605
987.7461	3488
990.1022	3600
992.4578	3562
994.8127	3599
997.1689	3599
999.5207	3614
1001.874	3661
1004.226	3595
1006.576	3597
1008.929	3591
1011.28	3575
1013.628	3584
1015.977	3609
1018.324	3621
1020.674	3623
1023.019	3673
1025.366	3654
1027.713	3654
1030.056	3682
1032.399	3677
1034.746	3627
1037.087	3607
1039.431	3679
1041.771	3670
1044.113	3673
1046.454	3732
1048.793	3708
1051.133	3686
1053.471	3687
1055.807	3645
1058.146	3658
1060.483	3761
1062.818	3673
1065.153	3722
1067.489	3763
1069.822	3822
1072.156	3771
1074.488	3758
1076.82	3801
1079.15	3789
1081.48	3756
1083.814	3695
1086.143	3727
1088.471	3708
1090.799	3690
1093.126	3695
1095.452	3643
1097.78	3717
1100.105	3652
1102.43	3679
1104.754	3690
1107.077	3648
1109.4	3696
1111.722	3715
1114.044	3671
1116.365	3616
1118.685	3609
1121.005	3680
1123.324	3665
1125.643	3641
1127.961	3673
1130.278	3629
1132.595	3645
1134.911	3714
1137.226	3681
1139.541	3687
1141.854	3621
1144.167	3633
1146.482	3713
1148.793	3734
1151.105	3667
1153.414	3667
1155.725	3623
1158.033	3610
1160.344	3647
1162.651	3683
1164.959	3624
1167.265	3740
1169.572	3696
1171.878	3738
1174.184	3706
1176.488	3678
1178.79	3716
1181.094	3732
1183.396	3768
1185.699	3752
1188.001	3596
1190.301	3622
1192.6	3682
1194.9	3655
1197.2	3712
1199.497	3713
1201.794	3672
1204.09	3703
1206.387	3709
1208.684	3644
1210.978	3659
1213.272	3646
1215.565	3752
1217.858	3676
1220.15	3680
1222.443	3733
1224.734	3708
1227.024	3773
1229.313	3722
1231.602	3806
1233.892	3788
1236.18	3767
1238.467	3831
1240.754	3881
1243.04	3870
1245.325	3836
1247.612	3897
1249.896	3914
1252.178	3905
1254.461	3865
1256.743	3942
1259.027	3832
1261.308	3881
1263.587	3843
1265.867	3863
1268.146	3915
1270.425	3896
1272.703	3869
1274.981	3843
1277.256	3841
1279.532	3893
1281.808	3832
1284.083	3831
1286.358	3897
1288.63	3822
1290.904	3835
1293.175	3832
1295.449	3804
1297.719	3907
1299.99	3832
1302.259	3837
1304.529	3690
1306.798	3837
1309.065	3757
1311.333	3852
1313.599	3753
1315.866	3798
1318.131	3849
1320.396	3858
1322.66	3733
1324.925	3866
1327.187	3838
1329.448	3862
1331.711	3897
1333.974	3835
1336.234	3826
1338.493	3891
1340.752	3807
1343.01	3848
1345.269	3822
1347.526	3830
1349.784	3764
1352.04	3764
1354.295	3789
1356.552	3822
1358.806	3778
1361.059	3819
1363.312	3762
1365.564	3850
1367.818	3808
1370.069	3830
1372.318	3858
1374.568	3864
1376.817	3845
1379.066	3805
1381.316	3807
1383.564	3844
1385.809	3895
1388.056	3866
1390.301	3987
1392.549	3929
1394.793	3912
1397.036	3950
1399.279	3968
1401.522	3971
1403.763	3924
1406.007	4038
1408.248	3961
1410.487	3890
1412.727	3994
1414.965	3931
1417.205	4027
1419.442	3942
1421.68	3957
1423.915	3970
1426.152	3979
1428.388	4048
1430.623	4025
1432.857	4033
1435.091	4042
1437.323	4049
1439.556	3947
1441.789	4050
1444.019	3984
1446.25	4046
1448.48	4020
1450.708	4037
1452.938	3970
1455.167	4079
1457.394	4070
1459.62	4010
1461.846	4134
1464.073	4048
1466.299	4070
1468.523	4099
1470.746	3963
1472.969	3897
1475.191	3874
1477.415	4020
1479.636	3889
1481.858	3864
1484.078	3898
1486.298	3849
1488.518	3867
1490.736	3883
1492.954	3880
1495.169	3781
1497.386	3876
1499.602	3849
1501.819	3753
1504.034	3831
1506.248	3870
1508.462	3782
1510.675	3817
1512.888	3840
1515.1	3742
1517.311	3821
1519.522	3839
1521.732	3783
1523.942	3830
1526.151	3830
1528.36	3785
1530.566	3767
1532.773	3747
1534.98	3916
1537.187	3888
1539.392	3908
1541.596	3879
1543.801	3961
1546.005	3876
1548.208	3822
1550.411	3865
1552.612	3939
1554.814	3762
1557.013	3867
1559.212	3890
1561.414	3973
1563.612	3916
1565.811	3993
1568.007	3815
1570.203	3994
1572.403	3923
1574.598	3878
1576.792	3868
1578.988	3866
1581.181	3894
1583.376	3968
1585.568	3919
1587.761	3907
1589.952	3980
1592.143	3961
1594.333	4006
1596.524	3963
1598.715	3993
1600.903	4008
1603.091	4030
1605.278	3975
1607.466	3963
1609.652	4006
1611.838	4003
1614.023	3953
1616.207	3894
1618.391	3966
1620.576	4082
1622.759	4000
1624.941	3980
1627.123	4001
1629.304	4004
1631.484	4066
1633.664	4027
1635.844	4070
1638.022	4023
1640.201	4099
1642.38	4043
1644.556	4080
1646.732	4019
1648.908	4021
1651.084	4025
1653.257	4085
1655.433	3990
1657.607	4051
1659.779	4082
1661.951	4060
1664.122	4176
1666.295	4116
1668.467	4043
1670.635	4064
1672.805	4070
1674.973	4062
1677.142	4037
1679.31	4139
1681.478	4048
1683.644	4143
1685.81	4116
1687.975	4013
1690.142	4012
1692.305	4016
1694.468	4079
1696.632	4055
1698.794	3978
1700.957	3929
1703.119	3988
1705.279	3946
1707.439	3937
1709.598	3954
1711.758	3977
1713.917	3909
1716.075	3967
1718.231	3954
1720.388	3923
1722.543	3882
1724.702	3966
1726.856	3926
1729.01	3870
1731.164	3996
1733.317	3886
1735.471	3965
1737.623	3969
1739.774	3905
1741.925	3949
1744.075	3970
1746.225	3970
1748.376	4008
1750.524	4010
1752.672	3988
1754.82	3942
1756.965	3979
1759.113	3955
1761.259	3997
1763.405	3984
1765.549	3955
1767.694	3957
1769.836	3910
1771.981	3945
1774.123	4026
1776.264	3906
1778.405	3998
1780.546	3986
1782.687	4027
1784.827	3972
1786.966	3972
1789.103	4023
1791.242	4005
1793.381	4016
1795.517	4052
1797.653	3958
1799.788	3917
1801.923	4012
1804.057	4015
1806.193	3912
1808.326	4045
1810.457	4001
1812.59	3929
1814.721	4005
1816.855	3945
1818.984	4069
1821.113	3956
1823.244	3897
1825.372	4035
1827.499	3988
1829.63	3951
1831.756	3965
1833.882	3954
1836.007	4027
1838.132	4024
1840.26	3967
1842.384	3925
1844.507	3931
1846.63	4025
1848.752	3924
1850.875	3901
1852.996	3916
1855.118	3920
1857.238	3998
1859.358	3988
1861.477	3965
1863.597	3933
1865.715	3895
1867.832	3960
1869.948	3920
1872.064	4062
1874.181	3923
1876.297	3942
1878.411	4050
1880.526	4018
1882.639	3896
1884.752	4024
1886.865	3916
1888.977	3991
1891.089	3925
1893.2	3930
1895.308	3973
1897.42	4076
1899.53	3998
1901.639	3929
1903.745	4037
1905.853	3975
1907.962	3992
1910.067	4000
1912.174	3912
1914.278	3951
1916.383	4018
1918.486	4067
1920.592	4135
1922.694	3946
1924.797	4139
1926.898	4005
1929	4041
1931.102	4087
1933.203	4012
1935.301	4042
1937.401	4088
1939.499	4062
1941.598	4078
1943.697	4019
1945.793	4089
1947.888	4114
1949.985	4102
1952.08	4118
1954.176	4067
1956.269	4015
1958.364	4089
1960.457	4062
1962.549	4060
1964.642	4035
1966.733	4029
1968.823	4041
1970.913	4007
1973.005	4042
1975.093	4035
1977.184	3995
1979.271	4015
1981.359	4085
1983.446	4031
1985.532	3989
1987.619	3981
1989.705	4006
1991.789	4032
1993.874	4020
1995.956	3941
1998.041	4052
2000.123	4018
2002.206	3979
2004.287	4094
2006.368	3986
2008.449	3979
2010.529	4095
2012.609	3998
2014.688	3984
2016.766	4054
2018.843	3971
2020.922	4034
2022.999	4026
2025.074	3969
2027.15	3982
2029.225	3922
2031.299	3995
2033.375	4014
2035.447	4027
2037.52	3958
2039.592	4038
2041.664	3998
2043.736	4046
2045.807	3984
2047.876	4004
2049.947	3940
2052.015	3946
2054.086	3925
2056.153	3914
2058.221	3997
2060.288	4087
2062.353	4079
2064.42	4006
2066.486	4008
2068.55	3996
2070.614	4111
2072.678	4049
2074.741	3997
2076.805	4027
2078.866	4004
2080.929	4012
2082.99	3982
2085.049	4004
2087.109	3946
2089.17	3985
2091.228	3989
2093.286	4002
2095.344	4107
2097.4	4024
2099.46	3956
2101.516	4081
2103.572	3991
2105.626	3949
2107.679	4020
2109.735	4047
2111.788	3984
2113.841	4044
2115.894	4109
2117.945	4116
2119.997	4020
2122.049	4005
2124.1	4111
2126.148	4060
2128.197	4038
2130.246	4005
2132.296	4018
2134.342	4013
2136.39	4035
2138.437	4084
2140.483	4051
2142.527	4000
2144.574	4053
2146.619	4077
2148.661	3977
2150.705	4007
2152.747	4049
2154.792	4057
2156.832	3949
2158.874	4076
2160.915	3961
2162.954	3996
2164.995	3961
2167.034	3970
2169.072	3941
2171.111	4048
2173.148	4029
2175.186	4001
2177.223	4047
2179.258	4004
2181.294	4055
2183.328	3978
2185.362	3962
2187.398	3966
2189.431	3972
2191.463	3979
2193.495	3947
2195.528	3918
2197.56	4015
2199.59	3965
2201.62	3853
2203.649	3938
2205.678	3924
2207.708	3913
2209.737	3927
2211.764	3996
2213.791	3946
2215.817	3902
2217.843	3879
2219.87	3941
2221.895	3969
2223.919	3954
2225.942	3900
2227.966	3955
2229.988	4020
2232.012	3965
2234.032	3903
2236.054	4012
2238.074	3835
2240.095	3935
2242.116	3952
2244.135	3922
2246.153	3862
2248.171	3842
2250.188	3907
2252.208	3926
2254.223	3961
2256.239	3833
2258.255	3948
2260.269	3933
2262.283	4007
2264.3	3943
2266.312	3932
2268.325	3941
2270.336	3903
2272.349	3841
2274.362	3923
2276.372	3938
2278.383	3976
2280.392	3970
2282.402	4008
2284.409	3915
2286.418	3999
2288.427	3926
2290.433	3954
2292.441	3961
2294.446	3861
2296.453	3939
2298.459	3974
2300.463	4005
2302.466	3946
2304.471	3880
2306.475	3929
2308.477	3901
2310.478	3918
2312.481	3919
2314.481	3911
2316.481	3950
2318.482	3880
2320.482	3973
2322.48	3846
2324.48	3888
2326.478	3933
2328.476	3942
2330.473	3975
2332.469	3853
2334.465	3995
2336.46	3970
2338.454	3828
2340.45	3898
2342.444	3997
2344.437	3880
2346.43	4004
2348.421	3924
2350.414	3852
2352.405	3914
2354.396	3867
2356.386	3865
2358.376	3834
2360.366	3837
2362.355	3902
2364.343	3821
2366.331	3981
2368.317	3793
2370.304	3898
2372.292	3867
2374.278	3800
2376.262	3885
2378.247	3950
2380.23	3898
2382.216	3952
2384.199	3842
2386.181	3917
2388.163	3838
2390.144	3839
2392.127	3756
2394.107	3829
2396.087	3873
2398.066	3840
2400.046	3784
2402.023	3779
2404.004	3846
2405.981	3886
2407.957	3773
2409.934	3873
2411.91	3832
2413.886	3805
2415.862	3882
2417.836	3800
2419.809	3832
2421.784	3839
2423.756	3848
2425.73	3837
2427.701	3827
2429.672	3809
2431.644	3842
2433.615	3897
2435.586	3849
2437.555	3799
2439.523	3816
2441.491	3854
2443.459	3787
2445.428	3857
2447.395	3760
2449.361	3763
2451.327	3794
2453.292	3767
2455.257	3830
2457.223	3816
2459.187	3798
2461.15	3740
2463.113	3790
2465.076	3753
2467.039	3789
2468.999	3800
2470.96	3795
2472.921	3866
2474.881	3808
2476.841	3767
2478.8	3821
2480.759	3836
2482.717	3765
2484.675	3821
2486.63	3810
2488.589	3772
2490.545	3723
2492.5	3653
2494.455	3708
2496.408	3786
2498.364	3812
2500.318	3773
2502.27	3696
2504.223	3798
2506.174	3700
2508.126	3741
2510.078	3705
2512.03	3861
2513.979	3754
2515.927	3798
2517.877	3756
2519.826	3806
2521.775	3716
2523.722	3740
2525.668	3811
2527.616	3825
2529.561	3744
2531.508	3815
2533.452	3770
2535.398	3721
2537.342	3706
2539.284	3751
2541.229	3731
2543.173	3775
2545.114	3832
2547.055	3798
2548.996	3683
2550.938	3734
2552.878	3757
2554.817	3797
2556.756	3754
2558.695	3766
2560.633	3799
2562.572	3781
2564.509	3759
2566.445	3775
2568.382	3714
2570.317	3725
2572.254	3715
2574.189	3739
2576.123	3756
2578.057	3753
2579.99	3744
2581.923	3788
2583.855	3796
2585.788	3726
2587.719	3743
2589.65	3805
2591.579	3787
2593.511	3767
2595.44	3811
2597.37	3769
2599.297	3810
2601.225	3816
2603.153	3833
2605.08	3675
2607.007	3773
2608.932	3752
2610.858	3742
2612.782	3678
2614.709	3741
2616.632	3719
2618.556	3785
2620.478	3827
2622.401	3797
2624.324	3736
2626.247	3800
2628.167	3696
2630.088	3844
2632.008	3754
2633.928	3853
2635.848	3770
2637.766	3755
2639.684	3785
2641.603	3890
2643.519	3799
2645.437	3796
2647.353	3811
2649.27	3740
2651.184	3784
2653.099	3820
2655.014	3729
2656.928	3783
2658.842	3755
2660.755	3708
2662.667	3815
2664.579	3736
2666.491	3784
2668.402	3821
2670.312	3853
2672.222	3735
2674.132	3697
2676.042	3824
2677.951	3714
2679.859	3695
2681.766	3754
2683.674	3728
2685.582	3816
2687.488	3784
2689.392	3732
2691.298	3680
2693.202	3713
2695.107	3756
2697.012	3703
2698.914	3709
2700.817	3739
2702.72	3721
2704.622	3673
2706.524	3597
2708.425	3713
2710.326	3749
2712.225	3741
2714.125	3698
2716.024	3713
2717.923	3734
2719.822	3618
2721.719	3728
2723.616	3784
2725.512	3799
2727.41	3704
2729.305	3763
2731.201	3790
2733.095	3819
2734.99	3659
2736.884	3698
2738.778	3779
2740.67	3689
2742.562	3717
2744.455	3793
2746.346	3656
2748.238	3750
2750.129	3730
2752.018	3755
2753.907	3705
2755.797	3695
2757.687	3720
2759.575	3680
2761.462	3791
2763.349	3655
2765.237	3768
2767.124	3714
2769.009	3722
2770.894	3689
2772.779	3718
2774.663	3707
2776.547	3691
2778.431	3691
2780.314	3715
2782.197	3647
2784.078	3697
2785.96	3694
2787.842	3721
2789.723	3771
2791.603	3676
2793.483	3648
2795.362	3586
2797.241	3719
2799.121	3733
2800.997	3654
2802.874	3683
2804.751	3631
2806.628	3671
2808.506	3693
2810.38	3698
2812.255	3683
2814.13	3738
2816.003	3657
2817.878	3674
2819.752	3636
2821.623	3627
2823.496	3641
2825.368	3708
2827.238	3649
2829.111	3656
2830.98	3649
2832.851	3696
2834.719	3698
2836.589	3625
2838.458	3783
2840.327	3712
2842.193	3693
2844.061	3689
2845.927	3728
2847.794	3765
2849.66	3732
2851.525	3755
2853.39	3705
2855.254	3705
2857.117	3699
2858.983	3703
2860.845	3756
2862.707	3769
2864.569	3814
2866.431	3774
2868.293	3795
2870.154	3781
2872.013	3962
2873.873	3915
2875.733	3874
2877.592	3972
2879.451	3937
2881.309	3968
2883.166	3960
2885.022	4176
2886.879	4161
2888.736	4019
2890.591	4079
2892.446	4129
2894.301	4095
2896.155	4074
2898.009	4105
2899.863	4104
2901.716	4111
2903.568	4035
2905.419	4097
2907.27	4070
2909.123	4037
2910.973	4039
2912.824	4165
2914.673	4202
2916.521	4122
2918.372	4292
2920.22	4266
2922.067	4184
2923.914	4335
2925.761	4308
2927.607	4387
2929.455	4362
2931.301	4400
2933.144	4473
2934.99	4479
2936.833	4615
2938.678	4483
2940.522	4495
2942.364	4681
2944.207	4616
2946.048	4646
2947.891	4765
2949.731	4729
2951.571	4690
2953.412	4707
2955.25	4665
2957.09	4563
2958.93	4647
2960.767	4479
2962.606	4464
2964.443	4516
2966.279	4414
2968.116	4358
2969.953	4354
2971.788	4212
2973.623	4292
2975.457	4183
2977.292	4206
2979.127	4249
2980.959	4214
2982.792	4125
2984.624	4164
2986.455	4097
2988.288	4054
2990.119	4059
2991.949	4034
2993.779	3977
2995.608	3825
2997.439	4061
2999.268	3860
3001.096	3951
3002.923	3903
3004.751	3857
3006.578	3861
3008.406	3865
3010.232	3711
3012.057	3774
3013.883	3638
3015.706	3736
3017.532	3670
3019.356	3628
3021.179	3539
3023.002	3537
3024.823	3622
3026.646	3564
3028.469	3594
3030.289	3487
3032.11	3519
3033.93	3580
3035.749	3551
3037.57	3557
3039.39	3513
3041.207	3553
3043.026	3582
3044.842	3579
3046.661	3513
3048.477	3627
3050.294	3548
3052.109	3488
3053.925	3541
3055.739	3544
3057.555	3607
3059.368	3519
3061.181	3528
3062.995	3585
3064.807	3431
3066.62	3546
3068.433	3454
3070.243	3511
3072.054	3546
3073.865	3447
3075.675	3448
3077.485	3454
3079.293	3503
3081.102	3560
3082.911	3408
3084.719	3453
3086.527	3420
3088.333	3542
3090.139	3476
3091.945	3431
3093.75	3537
3095.557	3395
3097.361	3366
3099.165	3455
3100.969	3444
3102.772	3434
3104.575	3439
3106.379	3399
3108.181	3422
3109.982	3451
3111.783	3384
3113.584	3423
3115.386	3400
3117.186	3367
3118.985	3456
3120.783	3353
3122.582	3433
3124.381	3404
3126.179	3378
3127.975	3397
3129.772	3396
3131.569	3407
3133.365	3314
3135.161	3421
3136.956	3447
3138.751	3347
3140.544	3341
3142.338	3318
3144.132	3309
3145.925	3361
3147.717	3361
3149.509	3357
3151.301	3370
3153.091	3364
3154.884	3288
3156.673	3330
3158.462	3367
3160.252	3337
3162.041	3415
3163.831	3271
3165.618	3336
3167.405	3342
3169.193	3390
3170.979	3366
3172.767	3422
3174.553	3267
3176.338	3304
3178.123	3308
3179.907	3298
3181.692	3264
3183.477	3324
3185.259	3301
3187.042	3355
3188.824	3210
3190.607	3352
3192.389	3346
3194.17	3397
3195.951	3399
3197.73	3294
3199.51	3338
3201.289	3356
3203.07	3332
3204.848	3350
3206.626	3246
3208.403	3356
3210.18	3371
3211.959	3399
3213.735	3411
3215.511	3284
3217.285	3308
3219.06	3350
3220.836	3305
3222.611	3264
3224.384	3299
3226.158	3340
3227.929	3321
3229.702	3432
3231.476	3348
3233.248	3327
3235.018	3356
3236.789	3317
3238.56	3320
3240.33	3182
3242.1	3273
3243.869	3340
3245.637	3296
3247.405	3364
3249.172	3386
3250.941	3306
3252.707	3314
3254.474	3355
3256.24	3332
3258.006	3270
3259.772	3372
3261.537	3287
3263.301	3326
3265.065	3362
3266.828	3333
3268.592	3329
3270.355	3384
3272.117	3270
3273.878	3323
3275.64	3292
3277.401	3391
3279.162	3320
3280.922	3309
3282.682	3339
3284.441	3360
3286.199	3287
3287.959	3411
3289.716	3233
3291.475	3320
3293.232	3316
3294.988	3315
3296.744	3379
3298.501	3325
3300.256	3293
3302.011	3330
3303.766	3323
3305.52	3236
3307.275	3367
3309.028	3315
3310.781	3299
3312.533	3314
3314.285	3340
3316.038	3379
3317.789	3284
3319.54	3285
3321.289	3259
3323.039	3279
3324.789	3348
3326.539	3427
3328.288	3329
3330.035	3354
3331.783	3298
3333.531	3320
3335.28	3331
3337.025	3344
3338.771	3273
3340.518	3288
3342.262	3288
3344.009	3269
3345.753	3211
3347.497	3253
3349.24	3236
3350.983	3297
3352.726	3258
3354.469	3249
3356.212	3256
3357.952	3207
3359.694	3320
3361.434	3250
3363.176	3234
3364.916	3297
3366.654	3188
3368.394	3216
3370.132	3239
3371.871	3231
3373.61	3193
3375.346	3237
3377.083	3216
3378.82	3273
3380.556	3304
3382.292	3233
3384.027	3244
3385.763	3301
3387.497	3231
3389.231	3297
3390.965	3197
3392.698	3273
3394.431	3188
3396.164	3132
3397.896	3243
3399.627	3221
3401.36	3198
3403.09	3244
3404.82	3203
3406.55	3191
3408.279	3223
3410.01	3146
3411.738	3175
3413.467	3191
3415.194	3187
3416.92	3142
3418.647	3165
3420.375	3132
3422.102	3183
3423.827	3117
3425.553	3151
3427.277	3211
3429.003	3058
3430.727	3153
3432.451	3226
3434.173	3094
3435.896	3232
3437.62	3166
3439.343	3191
3441.063	3131
3442.785	3132
3444.505	3046
3446.226	3087
3447.948	3091
3449.666	3137
3451.386	3131
3453.104	3102
3454.823	3142
3456.541	3082
3458.259	3022
3459.976	3058
3461.693	3060
3463.408	3005
3465.125	3130
3466.841	2986
3468.556	3146
3470.271	2999
3471.985	3069
3473.698	3003
3475.414	2962
3477.126	3037
3478.838	2977
3480.55	3035
3482.263	3007
3483.975	3109
3485.686	3021
3487.396	2965
3489.106	3023
3490.817	2971
3492.526	3038
3494.236	2972
3495.944	3027
3497.652	2991
3499.359	2991
3501.066	2971
3502.775	2970
3504.481	2991
3506.187	3006
3507.893	3002
3509.598	2893
3511.304	2954
3513.009	2954
3514.713	2984
3516.417	2861
3518.12	2950
3519.821	2988
3521.525	3032
3523.228	3019
3524.929	2912
3526.631	2924
3528.33	2944
3530.032	2898
3531.733	2907
3533.433	2889
3535.131	2902
3536.83	2891
3538.529	2931
3540.227	2879
3541.925	2932
3543.623	2933
3545.319	2869
3547.016	2813
3548.712	2885
3550.408	2927
3552.103	2894
3553.798	2921
3555.491	2871
3557.188	2850
3558.88	2873
3560.574	2939
3562.266	2863
3563.959	2906
3565.651	2858
3567.343	2873
3569.035	2854
3570.725	2954
3572.415	2817
3574.106	2865
3575.797	2824
3577.485	2790
3579.174	2784
3580.863	2875
3582.551	2895
3584.238	2805
3585.926	2924
3587.613	2892
3589.3	2797
3590.986	2776
3592.671	2851
3594.357	2764
3596.042	2847
3597.726	2790
3599.41	2798
3601.094	2809
3602.778	2816
3604.461	2748
3606.143	2747
3607.825	2817
3609.507	2743
3611.188	2700
3612.87	2784
3614.551	2792
3616.229	2723
3617.909	2693
3619.589	2725
3621.269	2747
3622.948	2729
3624.625	2722
3626.302	2707
3627.98	2733
3629.657	2724
3631.334	2695
3633.01	2706
3634.686	2694
3636.361	2718
3638.036	2724
3639.712	2696
3641.385	2676
3643.06	2664
3644.732	2690
3646.405	2703
3648.08	2613
3649.751	2664
3651.424	2633
3653.094	2680
3654.766	2657
3656.436	2646
3658.106	2632
3659.777	2671
3661.446	2706
3663.115	2627
3664.783	2610
3666.452	2661
3668.121	2632
3669.788	2627
3671.454	2683
3673.121	2639
3674.789	2584
3676.455	2625
3678.12	2655
3679.784	2645
3681.45	2655
3683.114	2637
3684.779	2612
3686.442	2564
3688.105	2667
3689.768	2667
3691.43	2689
3693.093	2568
3694.754	2701
3696.415	2621
3698.076	2629
3699.736	2552
3701.396	2610
3703.057	2567
3704.716	2616
3706.375	2668
3708.034	2684
3709.692	2600
3711.351	2587
3713.008	2534
3714.665	2584
3716.321	2592
3717.977	2592
3719.634	2581
3721.29	2551
3722.945	2568
3724.598	2625
3726.253	2574
3727.907	2574
3729.561	2590
3731.214	2615
3732.867	2533
3734.518	2566
3736.171	2587
3737.824	2599
3739.474	2488
3741.125	2588
3742.775	2530
3744.425	2563
3746.074	2600
3747.725	2606
3749.373	2575
3751.022	2542
3752.669	2636
3754.318	2547
3755.966	2508
3757.612	2553
3759.259	2636
3760.905	2533
3762.55	2552
3764.197	2477
3765.842	2511
3767.486	2516
3769.131	2513
3770.774	2526
3772.417	2503
3774.061	2540
3775.705	2534
3777.347	2531
3778.988	2511
3780.629	2553
3782.271	2511
3783.912	2485
3785.552	2471
3787.192	2471
3788.831	2536
3790.472	2462
3792.112	2510
3793.75	2509
3795.388	2517
3797.024	2478
3798.661	2476
3800.3	2466
3801.936	2477
3803.572	2444
3805.208	2439
3806.844	2450
3808.48	2464
3810.115	2481
3811.748	2488
3813.382	2451
3815.016	2527
3816.649	2463
3818.283	2511
3819.914	2419
3821.547	2398
3823.178	2443
3824.809	2446
3826.441	2412
3828.072	2411
3829.701	2454
3831.331	2395
3832.96	2406
3834.591	2412
3836.219	2389
3837.847	2399
3839.475	2402
3841.102	2417
3842.729	2448
3844.357	2394
3845.984	2421
3847.609	2400
3849.234	2486
3850.86	2397
3852.485	2391
3854.11	2430
3855.734	2393
3857.357	2392
3858.981	2404
3860.603	2362
3862.227	2388
3863.848	2419
3865.471	2432
3867.092	2450
3868.713	2376
3870.334	2372
3871.954	2389
3873.575	2383
3875.194	2390
3876.813	2406
3878.433	2370
3880.051	2398
3881.669	2321
3883.286	2483
3884.904	2410
3886.52	2355
3888.138	2403
3889.754	2357
3891.37	2342
3892.985	2340
3894.6	2359
3896.216	2380
3897.831	2341
3899.444	2344
3901.058	2370
3902.67	2385
3904.283	2362
3905.897	2389
3907.509	2395
3909.121	2407
3910.731	2405
3912.342	2376
3913.954	2350
3915.563	2404
3917.174	2309
3918.783	2346
3920.391	2306
3922.002	2370
3923.611	2303
3925.218	2296
3926.826	2357
3928.432	2355
3930.039	2309
3931.647	2340
3933.253	2310
3934.859	2332
3936.464	2258
3938.068	2388
3939.675	2397
3941.278	2337
3942.883	2354
3944.486	2353
3946.089	2348
3947.692	2307
3949.295	2315
3950.898	2363
3952.499	2256
3954.1	2311
3955.7	2308
3957.303	2340
3958.903	2317
3960.502	2372
3962.101	2278
3963.7	2306
3965.301	2270
3966.899	2335
3968.497	2276
3970.094	2288
3971.691	2293
3973.288	2327
3974.885	2310
3976.481	2254
3978.077	2264
3979.672	2355
3981.267	2219
3982.863	2184
3984.457	2274
3986.051	2204
3987.645	2218
3989.238	2218
3990.831	2210
3992.425	2336
3994.017	2230
3995.607	2300
3997.199	2263
3998.79	2292
4000.382	2207
4001.973	2250
4003.561	2220
4005.151	2202
4006.741	2204
4008.331	2243
4009.918	2227
4011.507	2276
4013.095	2206
4014.681	2188
4016.269	2251
4017.856	2186
4019.443	2190
4021.028	2194
4022.614	2242
4024.199	2247
4025.785	2250
4027.37	2230
4028.953	2205
4030.536	2162
4032.12	2229
4033.704	2161
4035.287	2220
4036.869	2210
4038.45	2159
4040.032	2111
4041.613	2209
4043.195	2195
4044.776	2179
4046.356	2137
4047.935	2107
4049.515	2196
4051.095	2118
4052.674	2175
4054.251	2166
4055.829	2207
4057.406	2148
4058.985	2161
4060.562	2174
4062.139	2179
4063.715	2169
4065.29	2181
4066.865	2168
4068.442	2171
4070.016	2173
4071.59	2166
4073.164	2197
4074.738	2171
4076.312	2153
4077.885	2085
4079.458	2152
4081.03	2209
4082.602	2150
4084.173	2079
4085.745	2116
4087.315	2171
4088.886	2148
4090.456	2131
4092.026	2096
4093.596	2093
4095.165	2113
4096.734	2144
4098.301	2130
4099.869	2051
4101.437	2177
4103.006	2069
4104.572	2071
4106.139	2179
4107.704	2147
4109.27	2089
4110.837	2103
4112.401	2102
4113.966	2113
4115.53	2081
4117.094	2163
4118.659	2145
4120.223	2106
4121.785	2056
4123.347	2110
4124.909	2078
4126.471	2077
4128.034	2071
4129.595	2113
4131.155	2043
4132.716	2038
4134.275	2082
4135.836	2094
4137.395	2057
4138.955	2124
4140.513	2056
4142.071	2014
4143.628	2066
4145.188	2050
4146.745	2048
4148.302	1999
4149.858	2078
4151.414	2056
4152.971	2027
4154.526	1972
4156.081	2033
4157.635	2067
4159.189	2056
4160.745	2012
4162.298	2012
4163.852	2033
4165.405	2059
4166.957	2029
4168.51	2003
4170.063	2026
4171.614	1973
4173.166	2000
4174.717	2037
4176.267	2015
4177.817	1945
4179.368	1980
4180.917	2014
4182.466	1993
4184.016	2033
4185.564	1974
4187.112	1994
4188.66	1975
4190.207	2029
4191.754	1989
4193.301	2011
4194.848	1994
4196.394	2003
4197.94	1983
4199.484	1944
4201.03	1975
4202.575	2033
4204.12	2027
4205.663	1939
4207.207	1934
4208.75	1966
4210.292	1962
4211.836	2013
4213.378	1958
4214.92	2001
4216.46	1967
4218.002	1923
4219.544	2001
4221.083	1971
4222.625	1957
4224.164	1983
4225.703	1920
4227.244	1949
4228.782	1900
4230.32	1934
4231.857	1959
4233.395	1929
4234.933	1967
4236.471	1942
4238.007	1958
4239.542	1961
4241.078	1930
4242.614	1922
4244.15	1964
4245.685	1980
4247.219	1961
4248.753	1968
4250.287	1975
4251.82	1987
4253.354	1910
4254.887	1961
4256.419	1949
4257.951	1884
4259.483	1973
4261.016	1974
4262.547	1914
4264.078	1942
4265.608	1925
4267.137	1899
4268.668	1912
4270.197	1843
4271.727	1904
4273.254	1881
4274.783	1919
4276.311	1852
4277.84	1895
4279.366	1930
4280.894	1896
4282.42	1893
4283.946	1930
4285.473	1859
4286.998	1816
4288.523	1866
4290.047	1905
4291.572	1876
4293.096	1954
4294.622	1900
4296.144	1887
4297.668	1929
4299.19	1827
4300.713	1904
4302.236	1852
4303.758	1941
4305.279	1913
4306.799	1855
4308.321	1947
4309.842	1894
4311.361	1856
4312.882	1868
4314.401	1848
