400.0961	2634
402.6185	2518
405.1424	2542
407.6635	2562
410.1838	2595
412.7035	2613
415.2225	2647
417.7388	2548
420.2585	2659
422.7754	2695
425.2917	2680
427.8072	2726
430.3221	2782
432.8363	2761
435.3498	2814
437.8626	2788
440.3727	2726
442.8841	2750
445.3969	2754
447.907	2675
450.4142	2791
452.9229	2677
455.4289	2618
457.9362	2753
460.4449	2642
462.9488	2709
465.454	2732
467.9566	2666
470.4604	2731
472.9637	2653
475.4662	2655
477.966	2631
480.4671	2671
482.9656	2615
485.4633	2651
487.9645	2622
490.4608	2681
492.9566	2717
495.4536	2708
497.948	2682
500.4437	2629
502.9387	2661
505.431	2699
507.9226	2659
510.4136	2686
512.9079	2670
515.3975	2817
517.8864	2682
520.3746	2715
522.8622	2771
525.3491	2682
527.8394	2717
530.3249	2709
532.8098	2720
535.2939	2709
537.7774	2741
540.2623	2776
542.7444	2778
545.2259	2796
547.7067	2754
550.1868	2686
552.6683	2748
555.147	2778
557.6231	2735
560.1005	2775
562.5773	2818
565.0534	2797
567.5308	2863
570.0056	2770
572.4776	2858
574.951	2837
577.4237	2850
579.8978	2873
582.3671	2918
584.8378	2917
587.3079	2912
589.7773	2889
592.244	2944
594.714	2891
597.1793	2922
599.6461	2848
602.1121	2830
604.5754	2852
607.0421	2843
609.5042	2933
611.9675	2849
614.4282	2863
616.8902	2814
619.3515	2781
621.8122	2834
624.2702	2794
626.7296	2793
629.1863	2751
631.6423	2742
634.1017	2778
636.5563	2783
639.0104	2744
641.4658	2800
643.9185	2817
646.3725	2780
648.8239	2765
651.2766	2790
653.7266	2737
656.176	2888
658.6247	2848
661.0748	2865
663.5242	2809
665.9709	2885
668.417	2804
670.8624	2812
673.3092	2871
675.7533	2784
678.1968	2898
680.6395	2837
683.0817	2891
685.5251	2939
687.9659	2829
690.4061	2882
692.8456	2900
695.2844	2872
697.7226	2862
700.1621	2846
702.599	2888
705.0332	2844
707.4688	2824
709.9036	2942
712.3399	2858
714.7735	2883
717.2044	2942
719.6367	2807
722.0683	2944
724.4993	2873
726.9296	3053
729.3593	2921
731.7883	2924
734.2147	2954
736.6423	2862
739.0714	2843
741.4958	2987
743.9216	2982
746.3447	2988
748.7691	2991
751.1929	2986
753.616	3026
756.0366	2991
758.4584	3090
760.8776	3060
763.2982	3064
765.718	3094
768.1373	3007
770.5539	3014
772.9698	3059
775.3871	3059
777.8038	3063
780.2178	3043
782.6332	3064
785.0459	2990
787.458	2990
789.8714	3151
792.2842	3029
794.6943	3017
797.1038	3065
799.5127	3100
801.9209	3068
804.3324	3131
806.7393	3060
809.1456	3080
811.5513	3084
813.9562	2985
816.3625	3197
818.7663	3163
821.1693	3157
823.5718	3103
825.9735	3142
828.3746	3132
830.7771	3046
833.177	3091
835.5762	3119
837.9747	3040
840.3727	3171
842.772	3153
845.1666	3139
847.5626	3211
849.958	3172
852.3527	3177
854.7488	3301
857.1403	3338
859.5331	3267
861.9253	3169
864.3168	3211
866.7057	3186
869.098	3214
871.4876	3210
873.8746	3137
876.263	3215
878.6487	3221
881.0378	3197
883.4243	3255
885.8081	3148
888.1933	3133
890.5759	3165
892.9598	3259
895.343	3162
897.7256	3207
900.1057	3214
902.4871	3226
904.8659	3245
907.246	3219
909.6254	3204
912.0023	3323
914.3786	3262
916.7562	3343
919.1331	3384
921.5074	3463
923.8831	3506
926.2562	3417
928.6287	3462
931.0005	3515
933.3757	3481
935.7462	3470
938.1162	3601
940.4855	3597
942.8542	3562
945.2242	3675
947.5916	3803
949.9584	4036
952.3266	4110
954.6921	4424
957.0571	4606
959.4233	4852
961.787	4946
964.15	4778
966.5125	4784
968.8742	4399
971.2354	4220
973.5959	3851
975.9559	3726
978.3151	3564
980.6738	3496
983.0338	3466
985.3912	3386
987.7461	3329
990.1022	3402
992.4578	3345
994.8127	3407
997.1689	3379
999.5207	3376
1001.874	3337
1004.226	3349
1006.576	3385
1008.929	3428
1011.28	3393
1013.628	3398
1015.977	3362
1018.324	3396
1020.674	3388
1023.019	3462
1025.366	3432
1027.713	3446
1030.056	3403
1032.399	3440
1034.746	3390
1037.087	3558
1039.431	3421
1041.771	3457
1044.113	3500
1046.454	3469
1048.793	3423
1051.133	3391
1053.471	3407
1055.807	3472
1058.146	3568
1060.483	3503
1062.818	3613
1065.153	3598
1067.489	3570
1069.822	3582
1072.156	3605
1074.488	3657
1076.82	3597
1079.15	3580
1081.48	3632
1083.814	3499
1086.143	3534
1088.471	3473
1090.799	3475
1093.126	3365
1095.452	3515
1097.78	3380
1100.105	3402
1102.43	3445
1104.754	3330
1107.077	3390
1109.4	3451
1111.722	3433
1114.044	3423
1116.365	3365
1118.685	3434
1121.005	3417
1123.324	3446
1125.643	3376
1127.961	3375
1130.278	3373
1132.595	3425
1134.911	3418
1137.226	3384
1139.541	3397
1141.854	3337
1144.167	3368
1146.482	3394
1148.793	3397
1151.105	3402
1153.414	3410
1155.725	3390
1158.033	3435
1160.344	3468
1162.651	3426
1164.959	3357
1167.265	3342
1169.572	3475
1171.878	3388
1174.184	3357
1176.488	3436
1178.79	3394
1181.094	3554
1183.396	3378
1185.699	3417
1188.001	3418
1190.301	3444
1192.6	3348
1194.9	3401
1197.2	3357
1199.497	3414
1201.794	3457
1204.09	3418
1206.387	3494
1208.684	3470
1210.978	3446
1213.272	3415
1215.565	3381
1217.858	3423
1220.15	3480
1222.443	3431
1224.734	3451
1227.024	3440
1229.313	3405
1231.602	3532
1233.892	3513
1236.18	3490
1238.467	3569
1240.754	3557
1243.04	3644
1245.325	3643
1247.612	3653
1249.896	3665
1252.178	3652
1254.461	3652
1256.743	3630
1259.027	3707
1261.308	3599
1263.587	3661
1265.867	3610
1268.146	3643
1270.425	3652
1272.703	3629
1274.981	3639
1277.256	3574
1279.532	3661
1281.808	3561
1284.083	3568
1286.358	3612
1288.63	3590
1290.904	3537
1293.175	3533
1295.449	3560
1297.719	3574
1299.99	3562
1302.259	3514
1304.529	3522
1306.798	3532
1309.065	3593
1311.333	3537
1313.599	3569
1315.866	3502
1318.131	3511
1320.396	3519
1322.66	3574
1324.925	3567
1327.187	3514
1329.448	3529
1331.711	3493
1333.974	3506
1336.234	3532
1338.493	3631
1340.752	3519
1343.01	3593
1345.269	3565
1347.526	3490
1349.784	3635
1352.04	3413
1354.295	3471
1356.552	3607
1358.806	3484
1361.059	3554
1363.312	3523
1365.564	3545
1367.818	3566
1370.069	3506
1372.318	3472
1374.568	3509
1376.817	3568
1379.066	3533
1381.316	3587
1383.564	3576
1385.809	3636
1388.056	3653
1390.301	3548
1392.549	3698
1394.793	3648
1397.036	3758
1399.279	3668
1401.522	3738
1403.763	3685
1406.007	3751
1408.248	3651
1410.487	3692
1412.727	3740
1414.965	3687
1417.205	3637
1419.442	3725
1421.68	3623
1423.915	3669
1426.152	3701
1428.388	3700
1430.623	3725
1432.857	3748
1435.091	3797
1437.323	3812
1439.556	3795
1441.789	3721
1444.019	3808
1446.25	3821
1448.48	3817
1450.708	3857
1452.938	3856
1455.167	3916
1457.394	3922
1459.62	3848
1461.846	3850
1464.073	3772
1466.299	3788
1468.523	3796
1470.746	3681
1472.969	3720
1475.191	3687
1477.415	3733
1479.636	3643
1481.858	3667
1484.078	3562
1486.298	3586
1488.518	3558
1490.736	3603
1492.954	3486
1495.169	3608
1497.386	3592
1499.602	3532
1501.819	3522
1504.034	3431
1506.248	3483
1508.462	3521
1510.675	3491
1512.888	3494
1515.1	3478
1517.311	3527
1519.522	3489
1521.732	3461
1523.942	3511
1526.151	3491
1528.36	3552
1530.566	3467
1532.773	3605
1534.98	3538
1537.187	3595
1539.392	3571
1541.596	3546
1543.801	3469
1546.005	3532
1548.208	3512
1550.411	3547
1552.612	3539
1554.814	3502
1557.013	3525
1559.212	3643
1561.414	3605
1563.612	3539
1565.811	3616
1568.007	3550
1570.203	3689
1572.403	3621
1574.598	3637
1576.792	3567
1578.988	3615
1581.181	3593
1583.376	3646
1585.568	3627
1587.761	3740
1589.952	3621
1592.143	3628
1594.333	3628
1596.524	3701
1598.715	3606
1600.903	3764
1603.091	3571
1605.278	3718
1607.466	3672
1609.652	3653
1611.838	3662
1614.023	3665
1616.207	3632
1618.391	3679
1620.576	3738
1622.759	3668
1624.941	3736
1627.123	3685
1629.304	3727
1631.484	3763
1633.664	3627
1635.844	3676
1638.022	3725
1640.201	3720
1642.38	3760
1644.556	3810
1646.732	3796
1648.908	3829
1651.084	3806
1653.257	3760
1655.433	3791
1657.607	3816
1659.779	3894
1661.951	3887
1664.122	3832
1666.295	3891
1668.467	3817
1670.635	3819
1672.805	3846
1674.973	3847
1677.142	3821
1679.31	3800
1681.478	3801
1683.644	3834
1685.81	3772
1687.975	3785
1690.142	3792
1692.305	3722
1694.468	3742
1696.632	3755
1698.794	3686
1700.957	3691
1703.119	3687
1705.279	3677
1707.439	3744
1709.598	3747
1711.758	3579
1713.917	3662
1716.075	3684
1718.231	3618
1720.388	3571
1722.543	3621
1724.702	3640
1726.856	3659
1729.01	3737
1731.164	3545
1733.317	3631
1735.471	3557
1737.623	3516
1739.774	3534
1741.925	3673
1744.075	3605
1746.225	3579
1748.376	3660
1750.524	3654
1752.672	3582
1754.82	3600
1756.965	3669
1759.113	3614
1761.259	3678
1763.405	3696
1765.549	3629
1767.694	3622
1769.836	3685
1771.981	3633
1774.123	3701
1776.264	3693
1778.405	3662
1780.546	3651
1782.687	3738
1784.827	3584
1786.966	3723
1789.103	3674
1791.242	3705
1793.381	3726
1795.517	3648
1797.653	3687
1799.788	3642
1801.923	3730
1804.057	3688
1806.193	3736
1808.326	3677
1810.457	3706
1812.59	3601
1814.721	3669
1816.855	3668
1818.984	3648
1821.113	3702
1823.244	3586
1825.372	3696
1827.499	3624
1829.63	3763
1831.756	3668
1833.882	3761
1836.007	3704
1838.132	3675
1840.26	3680
1842.384	3670
1844.507	3698
1846.63	3647
1848.752	3643
1850.875	3578
1852.996	3609
1855.118	3578
1857.238	3630
1859.358	3665
1861.477	3651
1863.597	3705
1865.715	3574
1867.832	3550
1869.948	3686
1872.064	3677
1874.181	3647
1876.297	3719
1878.411	3688
1880.526	3658
1882.639	3625
1884.752	3649
1886.865	3649
1888.977	3594
1891.089	3742
1893.2	3687
1895.308	3623
1897.42	3744
1899.53	3655
1901.639	3652
1903.745	3661
1905.853	3751
1907.962	3731
1910.067	3645
1912.174	3664
1914.278	3627
1916.383	3706
1918.486	3639
1920.592	3716
1922.694	3744
1924.797	3702
1926.898	3723
1929	3745
1931.102	3772
1933.203	3714
1935.301	3696
1937.401	3756
1939.499	3736
1941.598	3837
1943.697	3638
1945.793	3665
1947.888	3723
1949.985	3705
1952.08	3775
1954.176	3655
1956.269	3813
1958.364	3670
1960.457	3640
1962.549	3777
1964.642	3730
1966.733	3782
1968.823	3733
1970.913	3764
1973.005	3801
1975.093	3647
1977.184	3785
1979.271	3657
1981.359	3779
1983.446	3661
1985.532	3650
1987.619	3697
1989.705	3709
1991.789	3675
1993.874	3699
1995.956	3633
1998.041	3674
2000.123	3671
2002.206	3781
2004.287	3631
2006.368	3640
2008.449	3712
2010.529	3555
2012.609	3702
2014.688	3699
2016.766	3719
2018.843	3608
2020.922	3727
2022.999	3722
2025.074	3723
2027.15	3711
2029.225	3595
2031.299	3733
2033.375	3676
2035.447	3670
2037.52	3626
2039.592	3663
2041.664	3712
2043.736	3663
2045.807	3709
2047.876	3702
2049.947	3616
2052.015	3721
2054.086	3668
2056.153	3766
2058.221	3678
2060.288	3734
2062.353	3657
2064.42	3792
2066.486	3680
2068.55	3734
2070.614	3649
2072.678	3736
2074.741	3635
2076.805	3662
2078.866	3733
2080.929	3792
2082.99	3684
2085.049	3688
2087.109	3747
2089.17	3671
2091.228	3708
2093.286	3677
2095.344	3674
2097.4	3648
2099.46	3797
2101.516	3712
2103.572	3784
2105.626	3736
2107.679	3752
2109.735	3739
2111.788	3717
2113.841	3737
2115.894	3797
2117.945	3734
2119.997	3728
2122.049	3695
2124.1	3733
2126.148	3650
2128.197	3759
2130.246	3715
2132.296	3728
2134.342	3727
2136.39	3734
2138.437	3707
2140.483	3654
2142.527	3711
2144.574	3684
2146.619	3760
2148.661	3686
2150.705	3659
2152.747	3746
2154.792	3764
2156.832	3694
2158.874	3765
2160.915	3690
2162.954	3741
2164.995	3763
2167.034	3692
2169.072	3689
2171.111	3638
2173.148	3633
2175.186	3727
2177.223	3725
2179.258	3728
2181.294	3662
2183.328	3741
2185.362	3709
2187.398	3643
2189.431	3632
2191.463	3698
2193.495	3588
2195.528	3748
2197.56	3687
2199.59	3691
2201.62	3653
2203.649	3622
2205.678	3732
2207.708	3671
2209.737	3624
2211.764	3652
2213.791	3604
2215.817	3666
2217.843	3583
2219.87	3568
2221.895	3660
2223.919	3681
2225.942	3614
2227.966	3664
2229.988	3567
2232.012	3591
2234.032	3606
2236.054	3555
2238.074	3576
2240.095	3700
2242.116	3645
2244.135	3618
2246.153	3616
2248.171	3668
2250.188	3634
2252.208	3676
2254.223	3660
2256.239	3703
2258.255	3597
2260.269	3688
2262.283	3662
2264.3	3696
2266.312	3646
2268.325	3634
2270.336	3539
2272.349	3692
2274.362	3587
2276.372	3591
2278.383	3649
2280.392	3661
2282.402	3674
2284.409	3620
2286.418	3637
2288.427	3683
2290.433	3589
2292.441	3644
2294.446	3655
2296.453	3627
2298.459	3664
2300.463	3663
2302.466	3677
2304.471	3640
2306.475	3661
2308.477	3655
2310.478	3644
2312.481	3588
2314.481	3567
2316.481	3699
2318.482	3660
2320.482	3603
2322.48	3537
2324.48	3700
2326.478	3596
2328.476	3640
2330.473	3618
2332.469	3648
2334.465	3583
2336.46	3554
2338.454	3625
2340.45	3601
2342.444	3654
2344.437	3627
2346.43	3619
2348.421	3560
2350.414	3676
2352.405	3585
2354.396	3672
2356.386	3646
2358.376	3574
2360.366	3497
2362.355	3576
2364.343	3637
2366.331	3591
2368.317	3544
2370.304	3666
2372.292	3594
2374.278	3579
2376.262	3539
2378.247	3551
2380.23	3581
2382.216	3528
2384.199	3468
2386.181	3527
2388.163	3579
2390.144	3574
2392.127	3535
2394.107	3440
2396.087	3585
2398.066	3571
2400.046	3572
2402.023	3519
2404.004	3521
2405.981	3471
2407.957	3565
2409.934	3518
2411.91	3540
2413.886	3555
2415.862	3592
2417.836	3474
2419.809	3570
2421.784	3583
2423.756	3516
2425.73	3590
2427.701	3534
2429.672	3582
2431.644	3540
2433.615	3542
2435.586	3551
2437.555	3565
2439.523	3554
2441.491	3600
2443.459	3500
2445.428	3545
2447.395	3556
2449.361	3525
2451.327	3507
2453.292	3549
2455.257	3498
2457.223	3575
2459.187	3591
2461.15	3452
2463.113	3506
2465.076	3539
2467.039	3527
2468.999	3542
2470.96	3581
2472.921	3610
2474.881	3548
2476.841	3526
2478.8	3508
2480.759	3559
2482.717	3518
2484.675	3478
2486.63	3474
2488.589	3573
2490.545	3498
2492.5	3436
2494.455	3473
2496.408	3501
2498.364	3420
2500.318	3471
2502.27	3515
2504.223	3538
2506.174	3515
2508.126	3510
2510.078	3447
2512.03	3461
2513.979	3526
2515.927	3482
2517.877	3449
2519.826	3496
2521.775	3462
2523.722	3525
2525.668	3493
2527.616	3451
2529.561	3526
2531.508	3582
2533.452	3558
2535.398	3448
2537.342	3464
2539.284	3517
2541.229	3562
2543.173	3437
2545.114	3566
2547.055	3460
2548.996	3552
2550.938	3513
2552.878	3471
2554.817	3485
2556.756	3450
2558.695	3519
2560.633	3430
2562.572	3462
2564.509	3555
2566.445	3390
2568.382	3478
2570.317	3401
2572.254	3456
2574.189	3538
2576.123	3588
2578.057	3548
2579.99	3542
2581.923	3488
2583.855	3503
2585.788	3556
2587.719	3435
2589.65	3562
2591.579	3528
2593.511	3468
2595.44	3433
2597.37	3544
2599.297	3531
2601.225	3541
2603.153	3468
2605.08	3454
2607.007	3435
2608.932	3492
2610.858	3429
2612.782	3509
2614.709	3532
2616.632	3567
2618.556	3490
2620.478	3459
2622.401	3524
2624.324	3550
2626.247	3429
2628.167	3515
2630.088	3545
2632.008	3508
2633.928	3536
2635.848	3457
2637.766	3515
2639.684	3568
2641.603	3598
2643.519	3506
2645.437	3621
2647.353	3591
2649.27	3428
2651.184	3515
2653.099	3489
2655.014	3464
2656.928	3484
2658.842	3588
2660.755	3594
2662.667	3378
2664.579	3534
2666.491	3485
2668.402	3483
2670.312	3469
2672.222	3464
2674.132	3524
2676.042	3464
2677.951	3499
2679.859	3450
2681.766	3475
2683.674	3507
2685.582	3475
2687.488	3480
2689.392	3502
2691.298	3509
2693.202	3509
2695.107	3534
2697.012	3503
2698.914	3442
2700.817	3392
2702.72	3399
2704.622	3447
2706.524	3475
2708.425	3392
2710.326	3520
2712.225	3452
2714.125	3419
2716.024	3539
2717.923	3495
2719.822	3434
2721.719	3418
2723.616	3516
2725.512	3487
2727.41	3447
2729.305	3454
2731.201	3474
2733.095	3452
2734.99	3476
2736.884	3500
2738.778	3449
2740.67	3556
2742.562	3447
2744.455	3414
2746.346	3475
2748.238	3383
2750.129	3561
2752.018	3517
2753.907	3420
2755.797	3459
2757.687	3486
2759.575	3464
2761.462	3471
2763.349	3418
2765.237	3492
2767.124	3537
2769.009	3524
2770.894	3532
2772.779	3459
2774.663	3515
2776.547	3401
2778.431	3422
2780.314	3439
2782.197	3437
2784.078	3479
2785.96	3450
2787.842	3492
2789.723	3486
2791.603	3407
2793.483	3459
2795.362	3393
2797.241	3513
2799.121	3497
2800.997	3488
2802.874	3479
2804.751	3418
2806.628	3422
2808.506	3410
2810.38	3503
2812.255	3528
2814.13	3402
2816.003	3408
2817.878	3445
2819.752	3476
2821.623	3482
2823.496	3428
2825.368	3543
2827.238	3427
2829.111	3486
2830.98	3508
2832.851	3437
2834.719	3394
2836.589	3477
2838.458	3492
2840.327	3545
2842.193	3481
2844.061	3472
2845.927	3529
2847.794	3478
2849.66	3454
2851.525	3472
2853.39	3576
2855.254	3549
2857.117	3544
2858.983	3547
2860.845	3599
2862.707	3600
2864.569	3675
2866.431	3701
2868.293	3667
2870.154	3692
2872.013	3740
2873.873	3758
2875.733	3806
2877.592	3857
2879.451	3844
2881.309	4034
2883.166	3960
2885.022	3939
2886.879	4053
2888.736	4007
2890.591	4025
2892.446	4033
2894.301	4032
2896.155	4036
2898.009	4119
2899.863	4028
2901.716	4050
2903.568	4009
2905.419	3952
2907.27	3985
2909.123	4021
2910.973	4102
2912.824	4152
2914.673	4153
2916.521	4109
2918.372	4213
2920.22	4294
2922.067	4320
2923.914	4375
2925.761	4417
2927.607	4428
2929.455	4506
2931.301	4444
2933.144	4628
2934.99	4649
2936.833	4825
2938.678	4684
2940.522	4780
2942.364	4970
2944.207	4861
2946.048	4946
2947.891	4849
2949.731	4935
2951.571	4868
2953.412	4989
2955.25	4929
2957.09	4682
2958.93	4759
2960.767	4757
2962.606	4582
2964.443	4602
2966.279	4498
2968.116	4434
2969.953	4389
2971.788	4351
2973.623	4318
2975.457	4227
2977.292	4216
2979.127	4224
2980.959	4215
2982.792	4101
2984.624	4153
2986.455	4086
2988.288	4120
2990.119	4109
2991.949	4134
2993.779	4057
2995.608	3965
2997.439	4034
2999.268	3909
3001.096	3850
3002.923	3806
3004.751	3832
3006.578	3830
3008.406	3692
3010.232	3607
3012.057	3659
3013.883	3706
3015.706	3619
3017.532	3578
3019.356	3502
3021.179	3565
3023.002	3486
3024.823	3541
3026.646	3461
3028.469	3440
3030.289	3468
3032.11	3378
3033.93	3378
3035.749	3435
3037.57	3410
3039.39	3394
3041.207	3353
3043.026	3405
3044.842	3452
3046.661	3447
3048.477	3408
3050.294	3424
3052.109	3422
3053.925	3366
3055.739	3357
3057.555	3393
3059.368	3382
3061.181	3457
3062.995	3362
3064.807	3407
3066.62	3345
3068.433	3394
3070.243	3340
3072.054	3384
3073.865	3408
3075.675	3358
3077.485	3351
3079.293	3369
3081.102	3383
3082.911	3311
3084.719	3348
3086.527	3359
3088.333	3318
3090.139	3312
3091.945	3321
3093.75	3270
3095.557	3280
3097.361	3299
3099.165	3391
3100.969	3277
3102.772	3290
3104.575	3290
3106.379	3243
3108.181	3274
3109.982	3311
3111.783	3236
3113.584	3311
3115.386	3301
3117.186	3306
3118.985	3196
3120.783	3251
3122.582	3259
3124.381	3222
3126.179	3290
3127.975	3168
3129.772	3271
3131.569	3254
3133.365	3233
3135.161	3170
3136.956	3194
3138.751	3203
3140.544	3229
3142.338	3231
3144.132	3240
3145.925	3254
3147.717	3189
3149.509	3280
3151.301	3269
3153.091	3204
3154.884	3240
3156.673	3253
3158.462	3210
3160.252	3208
3162.041	3243
3163.831	3145
3165.618	3176
3167.405	3164
3169.193	3223
3170.979	3128
3172.767	3260
3174.553	3212
3176.338	3157
3178.123	3221
3179.907	3149
3181.692	3107
3183.477	3243
3185.259	3196
3187.042	3202
3188.824	3218
3190.607	3208
3192.389	3215
3194.17	3123
3195.951	3252
3197.73	3201
3199.51	3253
3201.289	3145
3203.07	3159
3204.848	3243
3206.626	3223
3208.403	3146
3210.18	3167
3211.959	3174
3213.735	3246
3215.511	3197
3217.285	3229
3219.06	3225
3220.836	3264
3222.611	3198
3224.384	3248
3226.158	3201
3227.929	3179
3229.702	3212
3231.476	3148
3233.248	3269
3235.018	3259
3236.789	3327
3238.56	3317
3240.33	3159
3242.1	3226
3243.869	3180
3245.637	3292
3247.405	3247
3249.172	3243
3250.941	3152
3252.707	3257
3254.474	3283
3256.24	3245
3258.006	3210
3259.772	3233
3261.537	3279
3263.301	3268
3265.065	3183
3266.828	3259
3268.592	3269
3270.355	3237
3272.117	3208
3273.878	3198
3275.64	3261
3277.401	3255
3279.162	3254
3280.922	3291
3282.682	3268
3284.441	3322
3286.199	3173
3287.959	3250
3289.716	3290
3291.475	3300
3293.232	3230
3294.988	3283
3296.744	3277
3298.501	3204
3300.256	3190
3302.011	3230
3303.766	3330
3305.52	3274
3307.275	3265
3309.028	3338
3310.781	3280
3312.533	3313
3314.285	3297
3316.038	3233
3317.789	3357
3319.54	3289
3321.289	3237
3323.039	3327
3324.789	3231
3326.539	3221
3328.288	3268
3330.035	3267
3331.783	3276
3333.531	3201
3335.28	3260
3337.025	3216
3338.771	3214
3340.518	3238
3342.262	3294
3344.009	3202
3345.753	3299
3347.497	3183
3349.24	3223
3350.983	3263
3352.726	3228
3354.469	3184
3356.212	3257
3357.952	3175
3359.694	3197
3361.434	3149
3363.176	3154
3364.916	3219
3366.654	3198
3368.394	3181
3370.132	3272
3371.871	3176
3373.61	3185
3375.346	3180
3377.083	3218
3378.82	3160
3380.556	3222
3382.292	3160
3384.027	3087
3385.763	3179
3387.497	3125
3389.231	3183
3390.965	3182
3392.698	3168
3394.431	3052
3396.164	3127
3397.896	3168
3399.627	3159
3401.36	3210
3403.09	3171
3404.82	3130
3406.55	3042
3408.279	3092
3410.01	3087
3411.738	3176
3413.467	3064
3415.194	3085
3416.92	3099
3418.647	2971
3420.375	3171
3422.102	3095
3423.827	3133
3425.553	3180
3427.277	3089
3429.003	3134
3430.727	3086
3432.451	3109
3434.173	3058
3435.896	3027
3437.62	3097
3439.343	2985
3441.063	3043
3442.785	3117
3444.505	3004
3446.226	3085
3447.948	3068
3449.666	3030
3451.386	3026
3453.104	2977
3454.823	3056
3456.541	3003
3458.259	3079
3459.976	3062
3461.693	3083
3463.408	3049
3465.125	2986
3466.841	2960
3468.556	2977
3470.271	2996
3471.985	2990
3473.698	2958
3475.414	3019
3477.126	2961
3478.838	2944
3480.55	2984
3482.263	2963
3483.975	2909
3485.686	2926
3487.396	2951
3489.106	2924
3490.817	2933
3492.526	2956
3494.236	2926
3495.944	2970
3497.652	2847
3499.359	2945
3501.066	2900
3502.775	2924
3504.481	2861
3506.187	2873
3507.893	2898
3509.598	2845
3511.304	2889
3513.009	2927
3514.713	2924
3516.417	2842
3518.12	2857
3519.821	2862
3521.525	2842
3523.228	2917
3524.929	2871
3526.631	2804
3528.33	2869
3530.032	2864
3531.733	2811
3533.433	2899
3535.131	2873
3536.83	2847
3538.529	2821
3540.227	2839
3541.925	2767
3543.623	2793
3545.319	2754
3547.016	2790
3548.712	2763
3550.408	2815
3552.103	2775
3553.798	2789
3555.491	2817
3557.188	2870
3558.88	2846
3560.574	2754
3562.266	2847
3563.959	2763
3565.651	2793
3567.343	2739
3569.035	2784
3570.725	2788
3572.415	2753
3574.106	2737
3575.797	2736
3577.485	2677
3579.174	2706
3580.863	2687
3582.551	2760
3584.238	2719
3585.926	2740
3587.613	2794
3589.3	2741
3590.986	2708
3592.671	2753
3594.357	2706
3596.042	2725
3597.726	2643
3599.41	2693
3601.094	2675
3602.778	2654
3604.461	2640
3606.143	2684
3607.825	2719
3609.507	2608
3611.188	2643
3612.87	2629
3614.551	2678
3616.229	2715
3617.909	2692
3619.589	2596
3621.269	2651
3622.948	2631
3624.625	2645
3626.302	2586
3627.98	2579
3629.657	2623
3631.334	2605
3633.01	2595
3634.686	2595
3636.361	2626
3638.036	2600
3639.712	2635
3641.385	2606
3643.06	2619
3644.732	2646
3646.405	2636
3648.08	2545
3649.751	2626
3651.424	2531
3653.094	2534
3654.766	2572
3656.436	2575
3658.106	2525
3659.777	2531
3661.446	2524
3663.115	2603
3664.783	2473
3666.452	2509
3668.121	2554
3669.788	2538
3671.454	2551
3673.121	2537
3674.789	2507
3676.455	2507
3678.12	2575
3679.784	2530
3681.45	2484
3683.114	2462
3684.779	2553
3686.442	2514
3688.105	2531
3689.768	2516
3691.43	2536
3693.093	2492
3694.754	2502
3696.415	2470
3698.076	2515
3699.736	2494
3701.396	2444
3703.057	2468
3704.716	2476
3706.375	2523
3708.034	2511
3709.692	2431
3711.351	2487
3713.008	2475
3714.665	2493
3716.321	2418
3717.977	2488
3719.634	2486
3721.29	2471
3722.945	2505
3724.598	2441
3726.253	2459
3727.907	2484
3729.561	2413
3731.214	2425
3732.867	2403
3734.518	2483
3736.171	2418
3737.824	2510
3739.474	2449
3741.125	2418
3742.775	2356
3744.425	2373
3746.074	2424
3747.725	2395
3749.373	2347
3751.022	2417
3752.669	2336
3754.318	2421
3755.966	2407
3757.612	2336
3759.259	2426
3760.905	2393
3762.55	2476
3764.197	2332
3765.842	2384
3767.486	2433
3769.131	2446
3770.774	2391
3772.417	2433
3774.061	2416
3775.705	2353
3777.347	2420
3778.988	2373
3780.629	2379
3782.271	2337
3783.912	2358
3785.552	2343
3787.192	2357
3788.831	2416
3790.472	2360
3792.112	2396
3793.75	2320
3795.388	2453
3797.024	2339
3798.661	2365
3800.3	2344
3801.936	2334
3803.572	2362
3805.208	2359
3806.844	2344
3808.48	2397
3810.115	2303
3811.748	2357
3813.382	2279
3815.016	2339
3816.649	2286
3818.283	2369
3819.914	2352
3821.547	2372
3823.178	2269
3824.809	2368
3826.441	2326
3828.072	2273
3829.701	2327
3831.331	2344
3832.96	2309
3834.591	2291
3836.219	2291
3837.847	2345
3839.475	2269
3841.102	2319
3842.729	2291
3844.357	2329
3845.984	2276
3847.609	2363
3849.234	2317
3850.86	2281
3852.485	2292
3854.11	2264
3855.734	2277
3857.357	2280
3858.981	2202
3860.603	2195
3862.227	2291
3863.848	2277
3865.471	2232
3867.092	2252
3868.713	2324
3870.334	2270
3871.954	2327
3873.575	2288
3875.194	2263
3876.813	2262
3878.433	2278
3880.051	2282
3881.669	2353
3883.286	2287
3884.904	2233
3886.52	2212
3888.138	2284
3889.754	2248
3891.37	2339
3892.985	2278
3894.6	2307
3896.216	2237
3897.831	2308
3899.444	2274
3901.058	2223
3902.67	2242
3904.283	2237
3905.897	2263
3907.509	2242
3909.121	2283
3910.731	2241
3912.342	2203
3913.954	2307
3915.563	2252
3917.174	2256
3918.783	2229
3920.391	2239
3922.002	2232
3923.611	2226
3925.218	2249
3926.826	2221
3928.432	2177
3930.039	2218
3931.647	2223
3933.253	2230
3934.859	2199
3936.464	2116
3938.068	2266
3939.675	2190
3941.278	2144
3942.883	2221
3944.486	2212
3946.089	2230
3947.692	2215
3949.295	2214
3950.898	2219
3952.499	2220
3954.1	2222
3955.7	2250
3957.303	2189
3958.903	2168
3960.502	2250
3962.101	2207
3963.7	2206
3965.301	2235
3966.899	2201
3968.497	2207
3970.094	2139
3971.691	2213
3973.288	2142
3974.885	2193
3976.481	2168
3978.077	2172
3979.672	2180
3981.267	2184
3982.863	2163
3984.457	2154
3986.051	2127
3987.645	2195
3989.238	2197
3990.831	2138
3992.425	2118
3994.017	2175
3995.607	2119
3997.199	2152
3998.79	2162
4000.382	2171
4001.973	2210
4003.561	2127
4005.151	2118
4006.741	2155
4008.331	2113
4009.918	2133
4011.507	2194
4013.095	2176
4014.681	2141
4016.269	2169
4017.856	2150
4019.443	2121
4021.028	2114
4022.614	2105
4024.199	2150
4025.785	2146
4027.37	2133
4028.953	2125
4030.536	2121
4032.12	2086
4033.704	2197
4035.287	2103
4036.869	2094
4038.45	2072
4040.032	1987
4041.613	2069
4043.195	2077
4044.776	2086
4046.356	2119
4047.935	2109
4049.515	2053
4051.095	2047
4052.674	2035
4054.251	2122
4055.829	2138
4057.406	2052
4058.985	2008
4060.562	2132
4062.139	2073
4063.715	2020
4065.29	2080
4066.865	2044
4068.442	2095
4070.016	2102
4071.59	2032
4073.164	2102
4074.738	2042
4076.312	2017
4077.885	2055
4079.458	2115
4081.03	2015
4082.602	2096
4084.173	2003
4085.745	2043
4087.315	2030
4088.886	2064
4090.456	2020
4092.026	1994
4093.596	2010
4095.165	2054
4096.734	2027
4098.301	2023
4099.869	1987
4101.437	2002
4103.006	1988
4104.572	2076
4106.139	2078
4107.704	1996
4109.27	2008
4110.837	2006
4112.401	2003
4113.966	2044
4115.53	2027
4117.094	1999
4118.659	2080
4120.223	2005
4121.785	2016
4123.347	2004
4124.909	2018
4126.471	1991
4128.034	1953
4129.595	2018
4131.155	2001
4132.716	1981
4134.275	1961
4135.836	1960
4137.395	1989
4138.955	2026
4140.513	1997
4142.071	2022
4143.628	1965
4145.188	1907
4146.745	1917
4148.302	2005
4149.858	1931
4151.414	1959
4152.971	1983
4154.526	1911
4156.081	2001
4157.635	1921
4159.189	1996
4160.745	1914
4162.298	1932
4163.852	1935
4165.405	1920
4166.957	1898
4168.51	1961
4170.063	1960
4171.614	1939
4173.166	1957
4174.717	1940
4176.267	1950
4177.817	1910
4179.368	1941
4180.917	1935
4182.466	1914
4184.016	1944
4185.564	1925
4187.112	1953
4188.66	1928
4190.207	1924
4191.754	1913
4193.301	1915
4194.848	1938
4196.394	1841
4197.94	1889
4199.484	1934
4201.03	1843
4202.575	1915
4204.12	1882
4205.663	1857
4207.207	1863
4208.75	1907
4210.292	1896
4211.836	1929
4213.378	1861
4214.92	1917
4216.46	1908
4218.002	1854
4219.544	1861
4221.083	1866
4222.625	1847
4224.164	1851
4225.703	1878
4227.244	1941
4228.782	1848
4230.32	1913
4231.857	1893
4233.395	1881
4234.933	1884
4236.471	1871
4238.007	1880
4239.542	1883
4241.078	1942
4242.614	1845
4244.15	1937
4245.685	1843
4247.219	1882
4248.753	1858
4250.287	1850
4251.82	1828
4253.354	1878
4254.887	1851
4256.419	1866
4257.951	1850
4259.483	1844
4261.016	1850
4262.547	1850
4264.078	1853
4265.608	1871
4267.137	1886
4268.668	1870
4270.197	1863
4271.727	1804
4273.254	1820
4274.783	1802
4276.311	1828
4277.84	1807
4279.366	1861
4280.894	1794
4282.42	1863
4283.946	1866
4285.473	1868
4286.998	1821
4288.523	1835
4290.047	1781
4291.572	1795
4293.096	1810
4294.622	1825
4296.144	1839
4297.668	1766
4299.19	1803
4300.713	1827
4302.236	1803
4303.758	1782
4305.279	1807
4306.799	1821
4308.321	1845
4309.842	1735
4311.361	1793
4312.882	1793
4314.401	1765
