400.0961	3758
402.6185	3812
405.1424	3924
407.6635	3954
410.1838	3807
412.7035	3891
415.2225	3831
417.7388	3881
420.2585	4028
422.7754	3952
425.2917	4068
427.8072	4101
430.3221	4187
432.8363	4232
435.3498	4131
437.8626	4169
440.3727	4145
442.8841	4126
445.3969	4141
447.907	4124
450.4142	4176
452.9229	3974
455.4289	4058
457.9362	4114
460.4449	4093
462.9488	4042
465.454	3993
467.9566	4035
470.4604	4064
472.9637	4035
475.4662	4024
477.966	4082
480.4671	4110
482.9656	4109
485.4633	4055
487.9645	4147
490.4608	4017
492.9566	4088
495.4536	4101
497.948	4023
500.4437	4065
502.9387	4120
505.431	4173
507.9226	4185
510.4136	4195
512.9079	4083
515.3975	4124
517.8864	4191
520.3746	4139
522.8622	4134
525.3491	4120
527.8394	4137
530.3249	4141
532.8098	4262
535.2939	4151
537.7774	4144
540.2623	4195
542.7444	4192
545.2259	4195
547.7067	4246
550.1868	4255
552.6683	4250
555.147	4277
557.6231	4135
560.1005	4201
562.5773	4316
565.0534	4229
567.5308	4268
570.0056	4409
572.4776	4417
574.951	4402
577.4237	4357
579.8978	4330
582.3671	4436
584.8378	4433
587.3079	4368
589.7773	4406
592.244	4351
594.714	4417
597.1793	4392
599.6461	4272
602.1121	4483
604.5754	4381
607.0421	4403
609.5042	4334
611.9675	4403
614.4282	4444
616.8902	4317
619.3515	4353
621.8122	4334
624.2702	4347
626.7296	4254
629.1863	4282
631.6423	4243
634.1017	4269
636.5563	4345
639.0104	4408
641.4658	4286
643.9185	4328
646.3725	4321
648.8239	4439
651.2766	4348
653.7266	4317
656.176	4307
658.6247	4299
661.0748	4310
663.5242	4292
665.9709	4442
668.417	4391
670.8624	4444
673.3092	4447
675.7533	4458
678.1968	4372
680.6395	4412
683.0817	4456
685.5251	4421
687.9659	4458
690.4061	4410
692.8456	4462
695.2844	4499
697.7226	4463
700.1621	4423
702.599	4509
705.0332	4456
707.4688	4539
709.9036	4462
712.3399	4446
714.7735	4578
717.2044	4403
719.6367	4576
722.0683	4566
724.4993	4625
726.9296	4525
729.3593	4540
731.7883	4548
734.2147	4577
736.6423	4595
739.0714	4663
741.4958	4624
743.9216	4642
746.3447	4659
748.7691	4702
751.1929	4722
753.616	4752
756.0366	4748
758.4584	4644
760.8776	4678
763.2982	4778
765.718	4743
768.1373	4739
770.5539	4787
772.9698	4751
775.3871	4803
777.8038	4829
780.2178	4828
782.6332	4709
785.0459	4718
787.458	4813
789.8714	4736
792.2842	4706
794.6943	4679
797.1038	4771
799.5127	4772
801.9209	4699
804.3324	4739
806.7393	4809
809.1456	4802
811.5513	4833
813.9562	4797
816.3625	4898
818.7663	4860
821.1693	4772
823.5718	4824
825.9735	4854
828.3746	4875
830.7771	4929
833.177	4890
835.5762	4862
837.9747	4838
840.3727	4831
842.772	4947
845.1666	4834
847.5626	4940
849.958	5011
852.3527	5039
854.7488	5014
857.1403	5078
859.5331	5008
861.9253	4937
864.3168	4980
866.7057	4939
869.098	4955
871.4876	4959
873.8746	4920
876.263	4939
878.6487	4957
881.0378	5030
883.4243	4996
885.8081	4907
888.1933	5013
890.5759	4887
892.9598	4929
895.343	5046
897.7256	5013
900.1057	4969
902.4871	4915
904.8659	4997
907.246	4994
909.6254	5114
912.0023	5074
914.3786	5032
916.7562	5102
919.1331	5235
921.5074	5331
923.8831	5351
926.2562	5442
928.6287	5340
931.0005	5410
933.3757	5315
935.7462	5364
938.1162	5399
940.4855	5367
942.8542	5491
945.2242	5580
947.5916	5668
949.9584	5834
952.3266	6203
954.6921	6449
957.0571	6737
959.4233	7029
961.787	7109
964.15	7035
966.5125	6753
968.8742	6415
971.2354	6051
973.5959	5744
975.9559	5518
978.3151	5479
980.6738	5326
983.0338	5286
985.3912	5180
987.7461	5109
990.1022	5166
992.4578	5042
994.8127	5137
997.1689	5184
999.5207	5106
1001.874	5227
1004.226	5251
1006.576	5239
1008.929	5325
1011.28	5234
1013.628	5238
1015.977	5203
1018.324	5124
1020.674	5136
1023.019	5209
1025.366	5290
1027.713	5249
1030.056	5362
1032.399	5281
1034.746	5316
1037.087	5287
1039.431	5207
1041.771	5334
1044.113	5432
1046.454	5242
1048.793	5330
1051.133	5318
1053.471	5355
1055.807	5210
1058.146	5325
1060.483	5302
1062.818	5360
1065.153	5388
1067.489	5407
1069.822	5454
1072.156	5404
1074.488	5434
1076.82	5528
1079.15	5444
1081.48	5445
1083.814	5405
1086.143	5360
1088.471	5277
1090.799	5353
1093.126	5337
1095.452	5293
1097.78	5337
1100.105	5312
1102.43	5232
1104.754	5274
1107.077	5349
1109.4	5302
1111.722	5320
1114.044	5182
1116.365	5267
1118.685	5239
1121.005	5341
1123.324	5280
1125.643	5278
1127.961	5312
1130.278	5279
1132.595	5258
1134.911	5213
1137.226	5314
1139.541	5287
1141.854	5330
1144.167	5237
1146.482	5219
1148.793	5167
1151.105	5258
1153.414	5245
1155.725	5228
1158.033	5248
1160.344	5187
1162.651	5274
1164.959	5298
1167.265	5406
1169.572	5363
1171.878	5252
1174.184	5353
1176.488	5239
1178.79	5345
1181.094	5254
1183.396	5210
1185.699	5313
1188.001	5350
1190.301	5423
1192.6	5246
1194.9	5336
1197.2	5208
1199.497	5281
1201.794	5347
1204.09	5347
1206.387	5318
1208.684	5282
1210.978	5305
1213.272	5365
1215.565	5302
1217.858	5340
1220.15	5288
1222.443	5372
1224.734	5291
1227.024	5376
1229.313	5388
1231.602	5438
1233.892	5475
1236.18	5394
1238.467	5524
1240.754	5503
1243.04	5516
1245.325	5607
1247.612	5591
1249.896	5504
1252.178	5673
1254.461	5592
1256.743	5659
1259.027	5569
1261.308	5641
1263.587	5551
1265.867	5571
1268.146	5445
1270.425	5538
1272.703	5593
1274.981	5557
1277.256	5583
1279.532	5533
1281.808	5482
1284.083	5522
1286.358	5537
1288.63	5571
1290.904	5338
1293.175	5455
1295.449	5450
1297.719	5414
1299.99	5523
1302.259	5332
1304.529	5405
1306.798	5498
1309.065	5414
1311.333	5442
1313.599	5429
1315.866	5444
1318.131	5557
1320.396	5388
1322.66	5352
1324.925	5449
1327.187	5450
1329.448	5431
1331.711	5485
1333.974	5543
1336.234	5332
1338.493	5460
1340.752	5453
1343.01	5465
1345.269	5431
1347.526	5436
1349.784	5434
1352.04	5395
1354.295	5420
1356.552	5435
1358.806	5464
1361.059	5441
1363.312	5431
1365.564	5465
1367.818	5483
1370.069	5488
1372.318	5483
1374.568	5423
1376.817	5529
1379.066	5515
1381.316	5463
1383.564	5500
1385.809	5548
1388.056	5515
1390.301	5596
1392.549	5504
1394.793	5688
1397.036	5657
1399.279	5695
1401.522	5791
1403.763	5633
1406.007	5698
1408.248	5703
1410.487	5552
1412.727	5701
1414.965	5723
1417.205	5675
1419.442	5729
1421.68	5604
1423.915	5804
1426.152	5704
1428.388	5670
1430.623	5654
1432.857	5775
1435.091	5687
1437.323	5840
1439.556	5688
1441.789	5798
1444.019	5819
1446.25	5875
1448.48	5795
1450.708	5795
1452.938	5916
1455.167	6011
1457.394	5891
1459.62	5997
1461.846	5826
1464.073	5764
1466.299	5798
1468.523	5725
1470.746	5734
1472.969	5704
1475.191	5625
1477.415	5507
1479.636	5486
1481.858	5503
1484.078	5530
1486.298	5503
1488.518	5455
1490.736	5484
1492.954	5547
1495.169	5466
1497.386	5395
1499.602	5400
1501.819	5457
1504.034	5329
1506.248	5476
1508.462	5431
1510.675	5535
1512.888	5345
1515.1	5411
1517.311	5458
1519.522	5434
1521.732	5345
1523.942	5404
1526.151	5426
1528.36	5500
1530.566	5325
1532.773	5479
1534.98	5491
1537.187	5379
1539.392	5479
1541.596	5490
1543.801	5371
1546.005	5431
1548.208	5449
1550.411	5456
1552.612	5574
1554.814	5527
1557.013	5484
1559.212	5549
1561.414	5493
1563.612	5535
1565.811	5529
1568.007	5582
1570.203	5549
1572.403	5372
1574.598	5559
1576.792	5610
1578.988	5538
1581.181	5581
1583.376	5605
1585.568	5627
1587.761	5625
1589.952	5639
1592.143	5554
1594.333	5632
1596.524	5616
1598.715	5596
1600.903	5557
1603.091	5718
1605.278	5566
1607.466	5665
1609.652	5680
1611.838	5630
1614.023	5706
1616.207	5666
1618.391	5616
1620.576	5688
1622.759	5593
1624.941	5681
1627.123	5763
1629.304	5599
1631.484	5773
1633.664	5766
1635.844	5711
1638.022	5700
1640.201	5750
1642.38	5758
1644.556	5761
1646.732	5787
1648.908	5682
1651.084	5820
1653.257	5768
1655.433	5784
1657.607	5856
1659.779	5835
1661.951	5750
1664.122	5780
1666.295	5921
1668.467	5835
1670.635	5900
1672.805	5901
1674.973	5862
1677.142	5889
1679.31	5900
1681.478	5741
1683.644	5846
1685.81	5830
1687.975	5847
1690.142	5791
1692.305	5819
1694.468	5742
1696.632	5736
1698.794	5714
1700.957	5678
1703.119	5779
1705.279	5660
1707.439	5619
1709.598	5682
1711.758	5545
1713.917	5600
1716.075	5633
1718.231	5604
1720.388	5639
1722.543	5638
1724.702	5658
1726.856	5530
1729.01	5560
1731.164	5698
1733.317	5530
1735.471	5676
1737.623	5595
1739.774	5658
1741.925	5579
1744.075	5594
1746.225	5563
1748.376	5571
1750.524	5696
1752.672	5599
1754.82	5610
1756.965	5626
1759.113	5629
1761.259	5618
1763.405	5648
1765.549	5622
1767.694	5650
1769.836	5580
1771.981	5681
1774.123	5604
1776.264	5685
1778.405	5707
1780.546	5699
1782.687	5708
1784.827	5592
1786.966	5524
1789.103	5667
1791.242	5690
1793.381	5611
1795.517	5600
1797.653	5695
1799.788	5677
1801.923	5687
1804.057	5720
1806.193	5590
1808.326	5622
1810.457	5648
1812.59	5679
1814.721	5693
1816.855	5552
1818.984	5553
1821.113	5704
1823.244	5670
1825.372	5746
1827.499	5698
1829.63	5638
1831.756	5727
1833.882	5642
1836.007	5509
1838.132	5767
1840.26	5566
1842.384	5592
1844.507	5617
1846.63	5581
1848.752	5606
1850.875	5573
1852.996	5551
1855.118	5660
1857.238	5526
1859.358	5644
1861.477	5668
1863.597	5685
1865.715	5609
1867.832	5535
1869.948	5613
1872.064	5580
1874.181	5547
1876.297	5617
1878.411	5598
1880.526	5542
1882.639	5687
1884.752	5733
1886.865	5598
1888.977	5596
1891.089	5661
1893.2	5533
1895.308	5624
1897.42	5605
1899.53	5756
1901.639	5666
1903.745	5634
1905.853	5620
1907.962	5664
1910.067	5673
1912.174	5661
1914.278	5701
1916.383	5713
1918.486	5596
1920.592	5686
1922.694	5739
1924.797	5667
1926.898	5670
1929	5721
1931.102	5588
1933.203	5715
1935.301	5702
1937.401	5686
1939.499	5790
1941.598	5834
1943.697	5622
1945.793	5697
1947.888	5713
1949.985	5792
1952.08	5603
1954.176	5773
1956.269	5668
1958.364	5610
1960.457	5637
1962.549	5726
1964.642	5715
1966.733	5615
1968.823	5869
1970.913	5595
1973.005	5696
1975.093	5631
1977.184	5611
1979.271	5720
1981.359	5669
1983.446	5752
1985.532	5573
1987.619	5618
1989.705	5696
1991.789	5628
1993.874	5584
1995.956	5666
1998.041	5619
2000.123	5648
2002.206	5548
2004.287	5664
2006.368	5452
2008.449	5600
2010.529	5684
2012.609	5685
2014.688	5702
2016.766	5611
2018.843	5598
2020.922	5738
2022.999	5549
2025.074	5543
2027.15	5625
2029.225	5660
2031.299	5602
2033.375	5609
2035.447	5611
2037.52	5687
2039.592	5704
2041.664	5622
2043.736	5638
2045.807	5581
2047.876	5651
2049.947	5676
2052.015	5630
2054.086	5661
2056.153	5657
2058.221	5687
2060.288	5534
2062.353	5664
2064.42	5577
2066.486	5653
2068.55	5665
2070.614	5656
2072.678	5761
2074.741	5638
2076.805	5513
2078.866	5648
2080.929	5603
2082.99	5544
2085.049	5602
2087.109	5569
2089.17	5692
2091.228	5556
2093.286	5573
2095.344	5662
2097.4	5672
2099.46	5634
2101.516	5591
2103.572	5694
2105.626	5674
2107.679	5637
2109.735	5720
2111.788	5638
2113.841	5611
2115.894	5642
2117.945	5731
2119.997	5694
2122.049	5551
2124.1	5658
2126.148	5625
2128.197	5641
2130.246	5646
2132.296	5572
2134.342	5646
2136.39	5639
2138.437	5638
2140.483	5618
2142.527	5571
2144.574	5666
2146.619	5641
2148.661	5542
2150.705	5623
2152.747	5661
2154.792	5609
2156.832	5546
2158.874	5585
2160.915	5553
2162.954	5552
2164.995	5554
2167.034	5595
2169.072	5583
2171.111	5592
2173.148	5534
2175.186	5541
2177.223	5511
2179.258	5509
2181.294	5588
2183.328	5618
2185.362	5565
2187.398	5554
2189.431	5400
2191.463	5541
2193.495	5530
2195.528	5495
2197.56	5598
2199.59	5517
2201.62	5437
2203.649	5581
2205.678	5385
2207.708	5449
2209.737	5482
2211.764	5517
2213.791	5534
2215.817	5457
2217.843	5499
2219.87	5521
2221.895	5465
2223.919	5410
2225.942	5460
2227.966	5519
2229.988	5468
2232.012	5382
2234.032	5618
2236.054	5384
2238.074	5549
2240.095	5504
2242.116	5506
2244.135	5484
2246.153	5446
2248.171	5545
2250.188	5535
2252.208	5387
2254.223	5510
2256.239	5481
2258.255	5434
2260.269	5497
2262.283	5546
2264.3	5487
2266.312	5584
2268.325	5516
2270.336	5501
2272.349	5453
2274.362	5558
2276.372	5557
2278.383	5556
2280.392	5496
2282.402	5553
2284.409	5478
2286.418	5426
2288.427	5479
2290.433	5510
2292.441	5505
2294.446	5428
2296.453	5457
2298.459	5367
2300.463	5483
2302.466	5456
2304.471	5425
2306.475	5451
2308.477	5423
2310.478	5433
2312.481	5442
2314.481	5508
2316.481	5477
2318.482	5358
2320.482	5544
2322.48	5407
2324.48	5475
2326.478	5356
2328.476	5490
2330.473	5464
2332.469	5402
2334.465	5375
2336.46	5406
2338.454	5425
2340.45	5361
2342.444	5364
2344.437	5364
2346.43	5364
2348.421	5427
2350.414	5350
2352.405	5367
2354.396	5315
2356.386	5341
2358.376	5341
2360.366	5364
2362.355	5473
2364.343	5380
2366.331	5401
2368.317	5384
2370.304	5393
2372.292	5332
2374.278	5346
2376.262	5252
2378.247	5302
2380.23	5419
2382.216	5269
2384.199	5316
2386.181	5266
2388.163	5246
2390.144	5222
2392.127	5334
2394.107	5270
2396.087	5352
2398.066	5350
2400.046	5286
2402.023	5206
2404.004	5300
2405.981	5345
2407.957	5262
2409.934	5276
2411.91	5212
2413.886	5348
2415.862	5404
2417.836	5283
2419.809	5302
2421.784	5283
2423.756	5291
2425.73	5313
2427.701	5278
2429.672	5333
2431.644	5193
2433.615	5216
2435.586	5230
2437.555	5355
2439.523	5275
2441.491	5321
2443.459	5278
2445.428	5296
2447.395	5331
2449.361	5331
2451.327	5294
2453.292	5287
2455.257	5268
2457.223	5328
2459.187	5269
2461.15	5247
2463.113	5204
2465.076	5178
2467.039	5254
2468.999	5204
2470.96	5183
2472.921	5239
2474.881	5308
2476.841	5167
2478.8	5190
2480.759	5248
2482.717	5222
2484.675	5194
2486.63	5286
2488.589	5230
2490.545	5275
2492.5	5201
2494.455	5194
2496.408	5258
2498.364	5142
2500.318	5204
2502.27	5063
2504.223	5128
2506.174	5162
2508.126	5241
2510.078	5247
2512.03	5281
2513.979	5192
2515.927	5086
2517.877	5241
2519.826	5162
2521.775	5279
2523.722	5209
2525.668	5223
2527.616	5147
2529.561	5279
2531.508	5236
2533.452	5213
2535.398	5054
2537.342	5224
2539.284	5086
2541.229	5174
2543.173	5211
2545.114	5122
2547.055	5225
2548.996	5051
2550.938	5074
2552.878	5107
2554.817	5171
2556.756	5178
2558.695	5171
2560.633	5214
2562.572	5136
2564.509	5213
2566.445	5161
2568.382	5120
2570.317	5077
2572.254	5159
2574.189	5305
2576.123	5185
2578.057	5237
2579.99	5177
2581.923	5110
2583.855	5170
2585.788	5198
2587.719	5048
2589.65	5197
2591.579	5262
2593.511	5196
2595.44	5141
2597.37	5225
2599.297	5149
2601.225	5198
2603.153	5195
2605.08	5201
2607.007	5159
2608.932	5107
2610.858	5182
2612.782	5139
2614.709	5144
2616.632	5126
2618.556	5201
2620.478	5118
2622.401	5177
2624.324	5094
2626.247	5085
2628.167	5156
2630.088	5227
2632.008	5236
2633.928	5176
2635.848	5252
2637.766	5212
2639.684	5269
2641.603	5216
2643.519	5153
2645.437	5218
2647.353	5198
2649.27	5131
2651.184	5253
2653.099	5209
2655.014	5143
2656.928	5096
2658.842	5312
2660.755	5066
2662.667	5212
2664.579	5182
2666.491	5253
2668.402	5164
2670.312	5134
2672.222	5167
2674.132	5120
2676.042	5040
2677.951	5237
2679.859	5108
2681.766	5122
2683.674	5132
2685.582	5037
2687.488	5235
2689.392	5217
2691.298	5047
2693.202	5058
2695.107	5058
2697.012	5092
2698.914	5247
2700.817	5068
2702.72	5083
2704.622	5005
2706.524	5090
2708.425	4979
2710.326	5160
2712.225	5094
2714.125	5123
2716.024	5178
2717.923	5093
2719.822	5278
2721.719	5113
2723.616	5109
2725.512	5184
2727.41	5132
2729.305	5108
2731.201	5167
2733.095	5125
2734.99	5050
2736.884	5074
2738.778	5008
2740.67	5109
2742.562	5098
2744.455	5114
2746.346	5053
2748.238	5112
2750.129	5018
2752.018	5140
2753.907	5114
2755.797	5060
2757.687	5099
2759.575	5025
2761.462	5098
2763.349	5074
2765.237	5091
2767.124	4960
2769.009	5138
2770.894	5040
2772.779	5073
2774.663	5046
2776.547	5038
2778.431	5076
2780.314	5035
2782.197	5036
2784.078	5029
2785.96	4952
2787.842	5073
2789.723	4999
2791.603	4963
2793.483	5021
2795.362	5003
2797.241	5042
2799.121	4976
2800.997	5051
2802.874	5088
2804.751	5051
2806.628	4985
2808.506	5080
2810.38	5042
2812.255	5009
2814.13	5028
2816.003	4964
2817.878	5015
2819.752	5050
2821.623	4997
2823.496	5072
2825.368	4988
2827.238	4982
2829.111	5025
2830.98	4971
2832.851	5029
2834.719	5020
2836.589	5037
2838.458	5034
2840.327	5034
2842.193	5002
2844.061	5061
2845.927	5076
2847.794	5086
2849.66	5148
2851.525	5108
2853.39	5092
2855.254	5123
2857.117	5103
2858.983	5309
2860.845	5248
2862.707	5191
2864.569	5189
2866.431	5278
2868.293	5194
2870.154	5357
2872.013	5402
2873.873	5445
2875.733	5504
2877.592	5580
2879.451	5569
2881.309	5616
2883.166	5704
2885.022	5749
2886.879	5759
2888.736	5775
2890.591	5769
2892.446	5844
2894.301	5848
2896.155	5814
2898.009	5860
2899.863	5789
2901.716	5698
2903.568	5750
2905.419	5751
2907.27	5629
2909.123	5730
2910.973	5693
2912.824	5823
2914.673	5839
2916.521	6008
2918.372	6057
2920.22	6004
2922.067	6061
2923.914	6201
2925.761	6164
2927.607	6183
2929.455	6232
2931.301	6421
2933.144	6382
2934.99	6547
2936.833	6567
2938.678	6660
2940.522	6583
2942.364	6649
2944.207	6783
2946.048	6893
2947.891	6858
2949.731	6837
2951.571	6844
2953.412	6868
2955.25	6707
2957.09	6721
2958.93	6604
2960.767	6648
2962.606	6465
2964.443	6254
2966.279	6356
2968.116	6205
2969.953	6099
2971.788	6194
2973.623	6028
2975.457	6052
2977.292	5955
2979.127	5967
2980.959	5938
2982.792	5950
2984.624	5785
2986.455	5795
2988.288	5777
2990.119	5764
2991.949	5743
2993.779	5663
2995.608	5478
2997.439	5559
2999.268	5486
3001.096	5509
3002.923	5322
3004.751	5468
3006.578	5341
3008.406	5288
3010.232	5220
3012.057	5174
3013.883	5161
3015.706	5133
3017.532	5083
3019.356	5098
3021.179	5142
3023.002	5027
3024.823	4958
3026.646	4896
3028.469	4960
3030.289	4923
3032.11	4919
3033.93	4966
3035.749	4853
3037.57	4782
3039.39	4924
3041.207	4835
3043.026	4900
3044.842	4796
3046.661	4837
3048.477	4867
3050.294	4816
3052.109	4849
3053.925	4744
3055.739	4741
3057.555	4787
3059.368	4831
3061.181	4791
3062.995	4840
3064.807	4843
3066.62	4869
3068.433	4753
3070.243	4743
3072.054	4787
3073.865	4792
3075.675	4756
3077.485	4711
3079.293	4682
3081.102	4768
3082.911	4698
3084.719	4760
3086.527	4708
3088.333	4677
3090.139	4778
3091.945	4685
3093.75	4678
3095.557	4675
3097.361	4751
3099.165	4622
3100.969	4689
3102.772	4615
3104.575	4667
3106.379	4609
3108.181	4668
3109.982	4614
3111.783	4685
3113.584	4600
3115.386	4671
3117.186	4729
3118.985	4581
3120.783	4556
3122.582	4634
3124.381	4599
3126.179	4544
3127.975	4550
3129.772	4597
3131.569	4620
3133.365	4640
3135.161	4552
3136.956	4576
3138.751	4662
3140.544	4511
3142.338	4554
3144.132	4607
3145.925	4578
3147.717	4636
3149.509	4526
3151.301	4583
3153.091	4602
3154.884	4561
3156.673	4502
3158.462	4488
3160.252	4631
3162.041	4526
3163.831	4493
3165.618	4483
3167.405	4526
3169.193	4545
3170.979	4424
3172.767	4505
3174.553	4519
3176.338	4618
3178.123	4534
3179.907	4551
3181.692	4588
3183.477	4508
3185.259	4500
3187.042	4523
3188.824	4509
3190.607	4573
3192.389	4487
3194.17	4475
3195.951	4549
3197.73	4510
3199.51	4466
3201.289	4558
3203.07	4527
3204.848	4468
3206.626	4525
3208.403	4594
3210.18	4564
3211.959	4503
3213.735	4546
3215.511	4448
3217.285	4506
3219.06	4523
3220.836	4504
3222.611	4467
3224.384	4500
3226.158	4505
3227.929	4575
3229.702	4480
3231.476	4517
3233.248	4468
3235.018	4514
3236.789	4500
3238.56	4515
3240.33	4520
3242.1	4552
3243.869	4527
3245.637	4484
3247.405	4392
3249.172	4594
3250.941	4551
3252.707	4466
3254.474	4583
3256.24	4483
3258.006	4455
3259.772	4495
3261.537	4553
3263.301	4516
3265.065	4470
3266.828	4525
3268.592	4522
3270.355	4587
3272.117	4499
3273.878	4465
3275.64	4480
3277.401	4569
3279.162	4587
3280.922	4514
3282.682	4497
3284.441	4494
3286.199	4448
3287.959	4441
3289.716	4479
3291.475	4455
3293.232	4590
3294.988	4603
3296.744	4467
3298.501	4559
3300.256	4431
3302.011	4509
3303.766	4577
3305.52	4544
3307.275	4521
3309.028	4591
3310.781	4509
3312.533	4503
3314.285	4577
3316.038	4454
3317.789	4482
3319.54	4439
3321.289	4575
3323.039	4526
3324.789	4457
3326.539	4525
3328.288	4467
3330.035	4571
3331.783	4519
3333.531	4566
3335.28	4583
3337.025	4528
3338.771	4593
3340.518	4506
3342.262	4538
3344.009	4426
3345.753	4424
3347.497	4488
3349.24	4474
3350.983	4527
3352.726	4415
3354.469	4478
3356.212	4444
3357.952	4445
3359.694	4359
3361.434	4380
3363.176	4467
3364.916	4424
3366.654	4329
3368.394	4407
3370.132	4462
3371.871	4356
3373.61	4406
3375.346	4403
3377.083	4443
3378.82	4388
3380.556	4411
3382.292	4440
3384.027	4383
3385.763	4314
3387.497	4377
3389.231	4313
3390.965	4362
3392.698	4351
3394.431	4307
3396.164	4309
3397.896	4312
3399.627	4348
3401.36	4364
3403.09	4322
3404.82	4350
3406.55	4265
3408.279	4333
3410.01	4274
3411.738	4429
3413.467	4299
3415.194	4327
3416.92	4343
3418.647	4264
3420.375	4239
3422.102	4287
3423.827	4289
3425.553	4203
3427.277	4326
3429.003	4266
3430.727	4253
3432.451	4250
3434.173	4188
3435.896	4329
3437.62	4229
3439.343	4249
3441.063	4283
3442.785	4235
3444.505	4139
3446.226	4145
3447.948	4146
3449.666	4259
3451.386	4215
3453.104	4147
3454.823	4263
3456.541	4140
3458.259	4135
3459.976	4144
3461.693	4181
3463.408	4147
3465.125	4146
3466.841	4062
3468.556	4110
3470.271	4129
3471.985	4102
3473.698	4115
3475.414	4157
3477.126	4032
3478.838	3981
3480.55	4042
3482.263	4050
3483.975	4057
3485.686	4081
3487.396	4009
3489.106	3938
3490.817	4083
3492.526	4036
3494.236	3992
3495.944	4009
3497.652	3946
3499.359	3976
3501.066	3974
3502.775	3982
3504.481	3954
3506.187	3948
3507.893	3978
3509.598	3892
3511.304	3975
3513.009	3925
3514.713	3912
3516.417	3950
3518.12	3935
3519.821	3997
3521.525	3885
3523.228	3984
3524.929	3936
3526.631	3860
3528.33	3922
3530.032	3934
3531.733	3911
3533.433	3862
3535.131	3804
3536.83	3865
3538.529	3907
3540.227	3849
3541.925	3867
3543.623	3881
3545.319	3849
3547.016	3828
3548.712	3854
3550.408	3802
3552.103	3826
3553.798	3823
3555.491	3795
3557.188	3819
3558.88	3728
3560.574	3839
3562.266	3761
3563.959	3815
3565.651	3704
3567.343	3703
3569.035	3781
3570.725	3768
3572.415	3782
3574.106	3827
3575.797	3863
3577.485	3745
3579.174	3741
3580.863	3697
3582.551	3676
3584.238	3765
3585.926	3774
3587.613	3841
3589.3	3701
3590.986	3715
3592.671	3666
3594.357	3780
3596.042	3708
3597.726	3682
3599.41	3681
3601.094	3697
3602.778	3704
3604.461	3701
3606.143	3637
3607.825	3651
3609.507	3583
3611.188	3614
3612.87	3639
3614.551	3575
3616.229	3562
3617.909	3633
3619.589	3620
3621.269	3576
3622.948	3588
3624.625	3575
3626.302	3608
3627.98	3525
3629.657	3569
3631.334	3474
3633.01	3552
3634.686	3494
3636.361	3584
3638.036	3591
3639.712	3572
3641.385	3559
3643.06	3485
3644.732	3406
3646.405	3555
3648.08	3551
3649.751	3540
3651.424	3447
3653.094	3503
3654.766	3440
3656.436	3470
3658.106	3507
3659.777	3441
3661.446	3520
3663.115	3431
3664.783	3542
3666.452	3531
3668.121	3520
3669.788	3400
3671.454	3398
3673.121	3387
3674.789	3422
3676.455	3482
3678.12	3395
3679.784	3418
3681.45	3465
3683.114	3472
3684.779	3395
3686.442	3495
3688.105	3337
3689.768	3430
3691.43	3412
3693.093	3373
3694.754	3425
3696.415	3366
3698.076	3402
3699.736	3366
3701.396	3375
3703.057	3374
3704.716	3391
3706.375	3388
3708.034	3370
3709.692	3375
3711.351	3324
3713.008	3336
3714.665	3349
3716.321	3340
3717.977	3324
3719.634	3322
3721.29	3345
3722.945	3348
3724.598	3296
3726.253	3319
3727.907	3282
3729.561	3292
3731.214	3309
3732.867	3353
3734.518	3300
3736.171	3300
3737.824	3305
3739.474	3235
3741.125	3341
3742.775	3309
3744.425	3250
3746.074	3341
3747.725	3165
3749.373	3312
3751.022	3319
3752.669	3389
3754.318	3325
3755.966	3133
3757.612	3265
3759.259	3312
3760.905	3230
3762.55	3279
3764.197	3246
3765.842	3211
3767.486	3190
3769.131	3228
3770.774	3309
3772.417	3161
3774.061	3247
3775.705	3241
3777.347	3287
3778.988	3183
3780.629	3266
3782.271	3213
3783.912	3266
3785.552	3247
3787.192	3205
3788.831	3247
3790.472	3224
3792.112	3240
3793.75	3212
3795.388	3205
3797.024	3157
3798.661	3189
3800.3	3234
3801.936	3207
3803.572	3211
3805.208	3185
3806.844	3181
3808.48	3264
3810.115	3204
3811.748	3184
3813.382	3187
3815.016	3185
3816.649	3145
3818.283	3128
3819.914	3178
3821.547	3120
3823.178	3158
3824.809	3198
3826.441	3169
3828.072	3100
3829.701	3086
3831.331	3090
3832.96	3088
3834.591	3034
3836.219	3088
3837.847	3137
3839.475	3101
3841.102	3068
3842.729	3077
3844.357	3091
3845.984	3162
3847.609	3163
3849.234	3114
3850.86	3183
3852.485	3128
3854.11	3193
3855.734	3022
3857.357	3096
3858.981	3141
3860.603	3070
3862.227	3039
3863.848	3037
3865.471	3049
3867.092	3090
3868.713	3061
3870.334	3082
3871.954	3040
3873.575	3097
3875.194	3005
3876.813	3096
3878.433	3049
3880.051	2962
3881.669	2952
3883.286	3048
3884.904	3079
3886.52	3042
3888.138	3069
3889.754	2992
3891.37	3041
3892.985	3018
3894.6	3059
3896.216	2927
3897.831	3027
3899.444	3060
3901.058	3075
3902.67	2997
3904.283	2979
3905.897	3058
3907.509	2987
3909.121	3001
3910.731	3047
3912.342	3035
3913.954	3063
3915.563	3005
3917.174	2924
3918.783	3021
3920.391	3026
3922.002	2988
3923.611	3008
3925.218	2996
3926.826	2906
3928.432	3078
3930.039	2964
3931.647	2987
3933.253	2983
3934.859	2951
3936.464	2989
3938.068	2969
3939.675	3037
3941.278	2975
3942.883	2926
3944.486	2950
3946.089	3054
3947.692	3047
3949.295	2994
3950.898	2936
3952.499	2976
3954.1	2975
3955.7	2964
3957.303	2953
3958.903	2927
3960.502	2944
3962.101	2991
3963.7	2850
3965.301	2934
3966.899	2897
3968.497	2878
3970.094	2902
3971.691	2929
3973.288	2882
3974.885	2964
3976.481	2842
3978.077	2843
3979.672	2871
3981.267	2887
3982.863	2908
3984.457	2965
3986.051	2905
3987.645	2908
3989.238	2842
3990.831	2789
3992.425	2826
3994.017	2846
3995.607	2885
3997.199	2806
3998.79	2858
4000.382	2909
4001.973	2896
4003.561	2876
4005.151	2855
4006.741	2846
4008.331	2900
4009.918	2855
4011.507	2820
4013.095	2754
4014.681	2785
4016.269	2802
4017.856	2839
4019.443	2867
4021.028	2727
4022.614	2808
4024.199	2877
4025.785	2794
4027.37	2802
4028.953	2816
4030.536	2692
4032.12	2782
4033.704	2775
4035.287	2738
4036.869	2807
4038.45	2778
4040.032	2717
4041.613	2710
4043.195	2742
4044.776	2804
4046.356	2718
4047.935	2754
4049.515	2734
4051.095	2677
4052.674	2775
4054.251	2760
4055.829	2680
4057.406	2767
4058.985	2731
4060.562	2802
4062.139	2687
4063.715	2707
4065.29	2729
4066.865	2755
4068.442	2689
4070.016	2773
4071.59	2733
4073.164	2685
4074.738	2748
4076.312	2701
4077.885	2666
4079.458	2722
4081.03	2701
4082.602	2738
4084.173	2680
4085.745	2668
4087.315	2704
4088.886	2650
4090.456	2722
4092.026	2673
4093.596	2611
4095.165	2717
4096.734	2680
4098.301	2677
4099.869	2639
4101.437	2711
4103.006	2688
4104.572	2714
4106.139	2696
4107.704	2629
4109.27	2707
4110.837	2686
4112.401	2625
4113.966	2648
4115.53	2653
4117.094	2672
4118.659	2658
4120.223	2680
4121.785	2624
4123.347	2558
4124.909	2660
4126.471	2586
4128.034	2585
4129.595	2600
4131.155	2589
4132.716	2631
4134.275	2592
4135.836	2648
4137.395	2590
4138.955	2584
4140.513	2568
4142.071	2633
4143.628	2578
4145.188	2542
4146.745	2658
4148.302	2646
4149.858	2575
4151.414	2567
4152.971	2537
4154.526	2556
4156.081	2602
4157.635	2501
4159.189	2585
4160.745	2502
4162.298	2474
4163.852	2488
4165.405	2552
4166.957	2534
4168.51	2565
4170.063	2516
4171.614	2564
4173.166	2500
4174.717	2479
4176.267	2502
4177.817	2496
4179.368	2542
4180.917	2574
4182.466	2462
4184.016	2628
4185.564	2547
4187.112	2500
4188.66	2510
4190.207	2470
4191.754	2432
4193.301	2576
4194.848	2503
4196.394	2445
4197.94	2461
4199.484	2453
4201.03	2481
4202.575	2525
4204.12	2447
4205.663	2471
4207.207	2424
4208.75	2481
4210.292	2455
4211.836	2492
4213.378	2440
4214.92	2477
4216.46	2425
4218.002	2480
4219.544	2518
4221.083	2416
4222.625	2486
4224.164	2464
4225.703	2445
4227.244	2418
4228.782	2433
4230.32	2495
4231.857	2423
4233.395	2444
4234.933	2384
4236.471	2413
4238.007	2387
4239.542	2459
4241.078	2332
4242.614	2491
4244.15	2465
4245.685	2422
4247.219	2422
4248.753	2389
4250.287	2386
4251.82	2414
4253.354	2385
4254.887	2375
4256.419	2425
4257.951	2457
4259.483	2461
4261.016	2435
4262.547	2426
4264.078	2381
4265.608	2407
4267.137	2387
4268.668	2427
4270.197	2434
4271.727	2358
4273.254	2386
4274.783	2385
4276.311	2408
4277.84	2390
4279.366	2431
4280.894	2397
4282.42	2383
4283.946	2376
4285.473	2382
4286.998	2391
4288.523	2317
4290.047	2392
4291.572	2326
4293.096	2347
4294.622	2400
4296.144	2313
4297.668	2314
4299.19	2326
4300.713	2369
4302.236	2346
4303.758	2376
4305.279	2364
4306.799	2335
4308.321	2305
4309.842	2328
4311.361	2383
4312.882	2315
4314.401	2366
