400.0961	2775
402.6185	2723
405.1424	2839
407.6635	2853
410.1838	2808
412.7035	2885
415.2225	2890
417.7388	2919
420.2585	2924
422.7754	2999
425.2917	2947
427.8072	3030
430.3221	3098
432.8363	3090
435.3498	3167
437.8626	3048
440.3727	2997
442.8841	2929
445.3969	2968
447.907	3025
450.4142	2986
452.9229	2982
455.4289	2987
457.9362	2944
460.4449	2974
462.9488	2969
465.454	3037
467.9566	2970
470.4604	2998
472.9637	2958
475.4662	2974
477.966	3025
480.4671	2967
482.9656	2930
485.4633	2906
487.9645	2985
490.4608	3025
492.9566	2975
495.4536	3057
497.948	2933
500.4437	3020
502.9387	3050
505.431	2995
507.9226	3061
510.4136	3124
512.9079	2956
515.3975	3082
517.8864	3109
520.3746	3080
522.8622	3077
525.3491	3066
527.8394	3073
530.3249	3034
532.8098	3103
535.2939	3017
537.7774	3030
540.2623	3071
542.7444	3092
545.2259	3141
547.7067	3111
550.1868	3111
552.6683	3106
555.147	3059
557.6231	3104
560.1005	3058
562.5773	3113
565.0534	3086
567.5308	3092
570.0056	3192
572.4776	3143
574.951	3163
577.4237	3186
579.8978	3203
582.3671	3228
584.8378	3204
587.3079	3306
589.7773	3247
592.244	3273
594.714	3168
597.1793	3188
599.6461	3199
602.1121	3175
604.5754	3169
607.0421	3173
609.5042	3226
611.9675	3181
614.4282	3170
616.8902	3158
619.3515	3178
621.8122	3153
624.2702	3170
626.7296	3172
629.1863	3252
631.6423	3066
634.1017	3147
636.5563	3111
639.0104	3118
641.4658	3067
643.9185	3104
646.3725	3209
648.8239	3171
651.2766	3190
653.7266	3224
656.176	3165
658.6247	3164
661.0748	3205
663.5242	3220
665.9709	3195
668.417	3274
670.8624	3205
673.3092	3211
675.7533	3164
678.1968	3219
680.6395	3257
683.0817	3255
685.5251	3236
687.9659	3297
690.4061	3255
692.8456	3259
695.2844	3294
697.7226	3317
700.1621	3206
702.599	3298
705.0332	3299
707.4688	3329
709.9036	3286
712.3399	3295
714.7735	3286
717.2044	3259
719.6367	3287
722.0683	3279
724.4993	3336
726.9296	3355
729.3593	3366
731.7883	3344
734.2147	3366
736.6423	3359
739.0714	3325
741.4958	3451
743.9216	3430
746.3447	3485
748.7691	3483
751.1929	3491
753.616	3428
756.0366	3439
758.4584	3460
760.8776	3442
763.2982	3518
765.718	3485
768.1373	3477
770.5539	3472
772.9698	3449
775.3871	3484
777.8038	3463
780.2178	3455
782.6332	3550
785.0459	3489
787.458	3493
789.8714	3492
792.2842	3515
794.6943	3425
797.1038	3542
799.5127	3514
801.9209	3573
804.3324	3405
806.7393	3525
809.1456	3502
811.5513	3552
813.9562	3534
816.3625	3570
818.7663	3507
821.1693	3569
823.5718	3572
825.9735	3589
828.3746	3483
830.7771	3582
833.177	3550
835.5762	3433
837.9747	3558
840.3727	3632
842.772	3575
845.1666	3587
847.5626	3614
849.958	3657
852.3527	3574
854.7488	3630
857.1403	3713
859.5331	3685
861.9253	3598
864.3168	3575
866.7057	3554
869.098	3619
871.4876	3624
873.8746	3645
876.263	3639
878.6487	3631
881.0378	3591
883.4243	3704
885.8081	3630
888.1933	3616
890.5759	3623
892.9598	3601
895.343	3668
897.7256	3642
900.1057	3559
902.4871	3656
904.8659	3716
907.246	3632
909.6254	3667
912.0023	3683
914.3786	3655
916.7562	3732
919.1331	3773
921.5074	3773
923.8831	3831
926.2562	3830
928.6287	3772
931.0005	3799
933.3757	3857
935.7462	3836
938.1162	3853
940.4855	3904
942.8542	4007
945.2242	4086
947.5916	4123
949.9584	4308
952.3266	4498
954.6921	4560
957.0571	4828
959.4233	4924
961.787	5061
964.15	5000
966.5125	4869
968.8742	4578
971.2354	4321
973.5959	4152
975.9559	4010
978.3151	3910
980.6738	3831
983.0338	3780
985.3912	3776
987.7461	3714
990.1022	3756
992.4578	3785
994.8127	3816
997.1689	3776
999.5207	3730
1001.874	3836
1004.226	3772
1006.576	3770
1008.929	3808
1011.28	3784
1013.628	3721
1015.977	3779
1018.324	3793
1020.674	3775
1023.019	3883
1025.366	3738
1027.713	3833
1030.056	3773
1032.399	3825
1034.746	3800
1037.087	3851
1039.431	3901
1041.771	3907
1044.113	3903
1046.454	3868
1048.793	3881
1051.133	3857
1053.471	3800
1055.807	3834
1058.146	3933
1060.483	3931
1062.818	3863
1065.153	3924
1067.489	3962
1069.822	3960
1072.156	3987
1074.488	3986
1076.82	4057
1079.15	3940
1081.48	3936
1083.814	4011
1086.143	3850
1088.471	3883
1090.799	3901
1093.126	3857
1095.452	3852
1097.78	3888
1100.105	3876
1102.43	3882
1104.754	3893
1107.077	3929
1109.4	3849
1111.722	3913
1114.044	3877
1116.365	3859
1118.685	3910
1121.005	3894
1123.324	3863
1125.643	3898
1127.961	3934
1130.278	3874
1132.595	3833
1134.911	3795
1137.226	3885
1139.541	3794
1141.854	3825
1144.167	3795
1146.482	3865
1148.793	3859
1151.105	3796
1153.414	3842
1155.725	3832
1158.033	3842
1160.344	3876
1162.651	3850
1164.959	3922
1167.265	3838
1169.572	3807
1171.878	3833
1174.184	3779
1176.488	3880
1178.79	3813
1181.094	3861
1183.396	3875
1185.699	3788
1188.001	3842
1190.301	3909
1192.6	3824
1194.9	3852
1197.2	3827
1199.497	3925
1201.794	3845
1204.09	3878
1206.387	3943
1208.684	3865
1210.978	3893
1213.272	3905
1215.565	3716
1217.858	3940
1220.15	3978
1222.443	3871
1224.734	3919
1227.024	3927
1229.313	3968
1231.602	3908
1233.892	3933
1236.18	3902
1238.467	3990
1240.754	4062
1243.04	4023
1245.325	3998
1247.612	4100
1249.896	4012
1252.178	4113
1254.461	4140
1256.743	4022
1259.027	4093
1261.308	4023
1263.587	4052
1265.867	4022
1268.146	4003
1270.425	4039
1272.703	4021
1274.981	4071
1277.256	4148
1279.532	4075
1281.808	4115
1284.083	3992
1286.358	3976
1288.63	4061
1290.904	4079
1293.175	3978
1295.449	4010
1297.719	3968
1299.99	4043
1302.259	4010
1304.529	3921
1306.798	3996
1309.065	4007
1311.333	3907
1313.599	4029
1315.866	3986
1318.131	4035
1320.396	4036
1322.66	3928
1324.925	4096
1327.187	3919
1329.448	4077
1331.711	3999
1333.974	3991
1336.234	3972
1338.493	3953
1340.752	3984
1343.01	3940
1345.269	3972
1347.526	3964
1349.784	3990
1352.04	3963
1354.295	3985
1356.552	4020
1358.806	3897
1361.059	3912
1363.312	4008
1365.564	4058
1367.818	3969
1370.069	3982
1372.318	4025
1374.568	3997
1376.817	4002
1379.066	3955
1381.316	3991
1383.564	3989
1385.809	4009
1388.056	4003
1390.301	4126
1392.549	4054
1394.793	4116
1397.036	4047
1399.279	4052
1401.522	4100
1403.763	4104
1406.007	4105
1408.248	4124
1410.487	4144
1412.727	4112
1414.965	4087
1417.205	4181
1419.442	4120
1421.68	4126
1423.915	4042
1426.152	4160
1428.388	4182
1430.623	4118
1432.857	4084
1435.091	4174
1437.323	4111
1439.556	4260
1441.789	4204
1444.019	4241
1446.25	4253
1448.48	4297
1450.708	4257
1452.938	4256
1455.167	4221
1457.394	4219
1459.62	4257
1461.846	4205
1464.073	4237
1466.299	4301
1468.523	4177
1470.746	4183
1472.969	4161
1475.191	4089
1477.415	4108
1479.636	4054
1481.858	4053
1484.078	4077
1486.298	4022
1488.518	3954
1490.736	4035
1492.954	4059
1495.169	3981
1497.386	4012
1499.602	4032
1501.819	3991
1504.034	4007
1506.248	3988
1508.462	3970
1510.675	4001
1512.888	3928
1515.1	4032
1517.311	4038
1519.522	4028
1521.732	3929
1523.942	3981
1526.151	3994
1528.36	4181
1530.566	3976
1532.773	3987
1534.98	3985
1537.187	3907
1539.392	4034
1541.596	3913
1543.801	4052
1546.005	4038
1548.208	4024
1550.411	4051
1552.612	4040
1554.814	3975
1557.013	4027
1559.212	3995
1561.414	4040
1563.612	4078
1565.811	4062
1568.007	4074
1570.203	4145
1572.403	4066
1574.598	4159
1576.792	4101
1578.988	4121
1581.181	4063
1583.376	4112
1585.568	4100
1587.761	4065
1589.952	4154
1592.143	4100
1594.333	4169
1596.524	4108
1598.715	4059
1600.903	4092
1603.091	4169
1605.278	4165
1607.466	4153
1609.652	4260
1611.838	4153
1614.023	4189
1616.207	4094
1618.391	4123
1620.576	4229
1622.759	4189
1624.941	4152
1627.123	4255
1629.304	4174
1631.484	4213
1633.664	4229
1635.844	4193
1638.022	4192
1640.201	4213
1642.38	4232
1644.556	4211
1646.732	4269
1648.908	4207
1651.084	4225
1653.257	4283
1655.433	4263
1657.607	4224
1659.779	4256
1661.951	4304
1664.122	4228
1666.295	4198
1668.467	4327
1670.635	4319
1672.805	4322
1674.973	4293
1677.142	4261
1679.31	4233
1681.478	4229
1683.644	4364
1685.81	4206
1687.975	4160
1690.142	4256
1692.305	4250
1694.468	4325
1696.632	4246
1698.794	4213
1700.957	4213
1703.119	4186
1705.279	4175
1707.439	4202
1709.598	4074
1711.758	4163
1713.917	4156
1716.075	4184
1718.231	4100
1720.388	4135
1722.543	4058
1724.702	4197
1726.856	4126
1729.01	4080
1731.164	4142
1733.317	4112
1735.471	4226
1737.623	4179
1739.774	4082
1741.925	4128
1744.075	4100
1746.225	4108
1748.376	4125
1750.524	4178
1752.672	4194
1754.82	4207
1756.965	4186
1759.113	4136
1761.259	4163
1763.405	4217
1765.549	4145
1767.694	4176
1769.836	4262
1771.981	4136
1774.123	4181
1776.264	4179
1778.405	4093
1780.546	4259
1782.687	4227
1784.827	4195
1786.966	4122
1789.103	4183
1791.242	4236
1793.381	4224
1795.517	4223
1797.653	4173
1799.788	4186
1801.923	4186
1804.057	4209
1806.193	4112
1808.326	4288
1810.457	4127
1812.59	4249
1814.721	4177
1816.855	4152
1818.984	4142
1821.113	4253
1823.244	4202
1825.372	4128
1827.499	4149
1829.63	4132
1831.756	4125
1833.882	4196
1836.007	4159
1838.132	4190
1840.26	4198
1842.384	4035
1844.507	4272
1846.63	4095
1848.752	4120
1850.875	4082
1852.996	4130
1855.118	4028
1857.238	4166
1859.358	4149
1861.477	4231
1863.597	4115
1865.715	4193
1867.832	4203
1869.948	4188
1872.064	4135
1874.181	4172
1876.297	4105
1878.411	4083
1880.526	4069
1882.639	4150
1884.752	4098
1886.865	4097
1888.977	4201
1891.089	4110
1893.2	4170
1895.308	4220
1897.42	4164
1899.53	4289
1901.639	4198
1903.745	4178
1905.853	4121
1907.962	4208
1910.067	4120
1912.174	4199
1914.278	4252
1916.383	4250
1918.486	4249
1920.592	4184
1922.694	4192
1924.797	4177
1926.898	4203
1929	4315
1931.102	4233
1933.203	4297
1935.301	4199
1937.401	4230
1939.499	4235
1941.598	4251
1943.697	4237
1945.793	4252
1947.888	4276
1949.985	4272
1952.08	4236
1954.176	4290
1956.269	4238
1958.364	4166
1960.457	4284
1962.549	4245
1964.642	4246
1966.733	4278
1968.823	4173
1970.913	4270
1973.005	4195
1975.093	4169
1977.184	4243
1979.271	4185
1981.359	4171
1983.446	4250
1985.532	4131
1987.619	4247
1989.705	4231
1991.789	4227
1993.874	4246
1995.956	4188
1998.041	4225
2000.123	4183
2002.206	4272
2004.287	4279
2006.368	4145
2008.449	4253
2010.529	4171
2012.609	4201
2014.688	4209
2016.766	4233
2018.843	4193
2020.922	4184
2022.999	4213
2025.074	4240
2027.15	4181
2029.225	4260
2031.299	4172
2033.375	4255
2035.447	4142
2037.52	4185
2039.592	4244
2041.664	4167
2043.736	4198
2045.807	4173
2047.876	4255
2049.947	4200
2052.015	4194
2054.086	4155
2056.153	4213
2058.221	4153
2060.288	4246
2062.353	4229
2064.42	4224
2066.486	4176
2068.55	4210
2070.614	4179
2072.678	4200
2074.741	4230
2076.805	4219
2078.866	4241
2080.929	4191
2082.99	4133
2085.049	4250
2087.109	4178
2089.17	4192
2091.228	4194
2093.286	4285
2095.344	4246
2097.4	4131
2099.46	4158
2101.516	4216
2103.572	4146
2105.626	4212
2107.679	4189
2109.735	4126
2111.788	4126
2113.841	4204
2115.894	4217
2117.945	4320
2119.997	4183
2122.049	4176
2124.1	4248
2126.148	4146
2128.197	4207
2130.246	4192
2132.296	4183
2134.342	4220
2136.39	4186
2138.437	4229
2140.483	4169
2142.527	4130
2144.574	4200
2146.619	4204
2148.661	4114
2150.705	4148
2152.747	4240
2154.792	4134
2156.832	4221
2158.874	4214
2160.915	4170
2162.954	4097
2164.995	4123
2167.034	4174
2169.072	4100
2171.111	4189
2173.148	4101
2175.186	4143
2177.223	4267
2179.258	4057
2181.294	4107
2183.328	4189
2185.362	4091
2187.398	4025
2189.431	4150
2191.463	4094
2193.495	4111
2195.528	4050
2197.56	4148
2199.59	4140
2201.62	4068
2203.649	4060
2205.678	4078
2207.708	4143
2209.737	4127
2211.764	4056
2213.791	4130
2215.817	4141
2217.843	4088
2219.87	4103
2221.895	4081
2223.919	4072
2225.942	4002
2227.966	4053
2229.988	4118
2232.012	4072
2234.032	4134
2236.054	4010
2238.074	4106
2240.095	4063
2242.116	4069
2244.135	4076
2246.153	4079
2248.171	4200
2250.188	4110
2252.208	4187
2254.223	4064
2256.239	4078
2258.255	4131
2260.269	4031
2262.283	4068
2264.3	4132
2266.312	4020
2268.325	4169
2270.336	4056
2272.349	4127
2274.362	4113
2276.372	4070
2278.383	4099
2280.392	4090
2282.402	4134
2284.409	4166
2286.418	4065
2288.427	4062
2290.433	4052
2292.441	4116
2294.446	4103
2296.453	4045
2298.459	4089
2300.463	4031
2302.466	4012
2304.471	4065
2306.475	4132
2308.477	4065
2310.478	4052
2312.481	4017
2314.481	4054
2316.481	4025
2318.482	4077
2320.482	4032
2322.48	4055
2324.48	4057
2326.478	4013
2328.476	4080
2330.473	4074
2332.469	4042
2334.465	3939
2336.46	4061
2338.454	3954
2340.45	4080
2342.444	4122
2344.437	3970
2346.43	4054
2348.421	4082
2350.414	3970
2352.405	4072
2354.396	4163
2356.386	4059
2358.376	4072
2360.366	4027
2362.355	4026
2364.343	3987
2366.331	4023
2368.317	4054
2370.304	4036
2372.292	4052
2374.278	3928
2376.262	3991
2378.247	3997
2380.23	4001
2382.216	4033
2384.199	4045
2386.181	3950
2388.163	3986
2390.144	3966
2392.127	3995
2394.107	3918
2396.087	3947
2398.066	3986
2400.046	3988
2402.023	4002
2404.004	3948
2405.981	3921
2407.957	3886
2409.934	3950
2411.91	3854
2413.886	3933
2415.862	4064
2417.836	3963
2419.809	3958
2421.784	4005
2423.756	4041
2425.73	4014
2427.701	3980
2429.672	3995
2431.644	3981
2433.615	3945
2435.586	4014
2437.555	3948
2439.523	3931
2441.491	3843
2443.459	3878
2445.428	3991
2447.395	3854
2449.361	3929
2451.327	3934
2453.292	3888
2455.257	3965
2457.223	3970
2459.187	3928
2461.15	3997
2463.113	3935
2465.076	3888
2467.039	3943
2468.999	3919
2470.96	3880
2472.921	3929
2474.881	3947
2476.841	3885
2478.8	4056
2480.759	3813
2482.717	3832
2484.675	3997
2486.63	4041
2488.589	3868
2490.545	3902
2492.5	3835
2494.455	3940
2496.408	3891
2498.364	3831
2500.318	3902
2502.27	3880
2504.223	3895
2506.174	3947
2508.126	3920
2510.078	3960
2512.03	3960
2513.979	3894
2515.927	3884
2517.877	3859
2519.826	3885
2521.775	3943
2523.722	3880
2525.668	3854
2527.616	4011
2529.561	3886
2531.508	3834
2533.452	3821
2535.398	3871
2537.342	3842
2539.284	3896
2541.229	3901
2543.173	3921
2545.114	3898
2547.055	4039
2548.996	3922
2550.938	3839
2552.878	3850
2554.817	3861
2556.756	3874
2558.695	3929
2560.633	3853
2562.572	3896
2564.509	3884
2566.445	3857
2568.382	3933
2570.317	3828
2572.254	3855
2574.189	3891
2576.123	3922
2578.057	3811
2579.99	3801
2581.923	3868
2583.855	3954
2585.788	3828
2587.719	3854
2589.65	3936
2591.579	3826
2593.511	3850
2595.44	3812
2597.37	3927
2599.297	3802
2601.225	3909
2603.153	3814
2605.08	3965
2607.007	3864
2608.932	3859
2610.858	3936
2612.782	3894
2614.709	3944
2616.632	3901
2618.556	3991
2620.478	3897
2622.401	3929
2624.324	3849
2626.247	3933
2628.167	3929
2630.088	3948
2632.008	3894
2633.928	3832
2635.848	3874
2637.766	3964
2639.684	3877
2641.603	3929
2643.519	3990
2645.437	3879
2647.353	3940
2649.27	3849
2651.184	3854
2653.099	3905
2655.014	3885
2656.928	3961
2658.842	3907
2660.755	3853
2662.667	3976
2664.579	3842
2666.491	3847
2668.402	3882
2670.312	3880
2672.222	3815
2674.132	3892
2676.042	3843
2677.951	3889
2679.859	3891
2681.766	3929
2683.674	3801
2685.582	3853
2687.488	3873
2689.392	4032
2691.298	3830
2693.202	3859
2695.107	3846
2697.012	3886
2698.914	3929
2700.817	3852
2702.72	3740
2704.622	3871
2706.524	3823
2708.425	3841
2710.326	3844
2712.225	3841
2714.125	3857
2716.024	3844
2717.923	3819
2719.822	3828
2721.719	3871
2723.616	3783
2725.512	3877
2727.41	3869
2729.305	3840
2731.201	3876
2733.095	3869
2734.99	3789
2736.884	3757
2738.778	3778
2740.67	3826
2742.562	3804
2744.455	3895
2746.346	3766
2748.238	3807
2750.129	3893
2752.018	3846
2753.907	3783
2755.797	3738
2757.687	3809
2759.575	3789
2761.462	3875
2763.349	3834
2765.237	3833
2767.124	3696
2769.009	3788
2770.894	3831
2772.779	3739
2774.663	3828
2776.547	3792
2778.431	3870
2780.314	3784
2782.197	3821
2784.078	3808
2785.96	3780
2787.842	3850
2789.723	3805
2791.603	3789
2793.483	3725
2795.362	3744
2797.241	3817
2799.121	3845
2800.997	3738
2802.874	3799
2804.751	3818
2806.628	3744
2808.506	3791
2810.38	3783
2812.255	3764
2814.13	3843
2816.003	3786
2817.878	3731
2819.752	3760
2821.623	3779
2823.496	3675
2825.368	3827
2827.238	3801
2829.111	3817
2830.98	3740
2832.851	3867
2834.719	3828
2836.589	3825
2838.458	3779
2840.327	3747
2842.193	3759
2844.061	3791
2845.927	3817
2847.794	3784
2849.66	3748
2851.525	3823
2853.39	3821
2855.254	3849
2857.117	3804
2858.983	3909
2860.845	3925
2862.707	3845
2864.569	3876
2866.431	3876
2868.293	3932
2870.154	3940
2872.013	4014
2873.873	4022
2875.733	4063
2877.592	4036
2879.451	4187
2881.309	4273
2883.166	4138
2885.022	4248
2886.879	4142
2888.736	4155
2890.591	4157
2892.446	4173
2894.301	4157
2896.155	4255
2898.009	4166
2899.863	4059
2901.716	4144
2903.568	4270
2905.419	4269
2907.27	4257
2909.123	4226
2910.973	4226
2912.824	4250
2914.673	4269
2916.521	4287
2918.372	4325
2920.22	4385
2922.067	4318
2923.914	4380
2925.761	4477
2927.607	4499
2929.455	4605
2931.301	4603
2933.144	4643
2934.99	4602
2936.833	4736
2938.678	4776
2940.522	4662
2942.364	4801
2944.207	4811
2946.048	4848
2947.891	4765
2949.731	4858
2951.571	4800
2953.412	4778
2955.25	4737
2957.09	4785
2958.93	4638
2960.767	4671
2962.606	4623
2964.443	4577
2966.279	4514
2968.116	4387
2969.953	4370
2971.788	4361
2973.623	4355
2975.457	4345
2977.292	4352
2979.127	4369
2980.959	4412
2982.792	4247
2984.624	4159
2986.455	4256
2988.288	4260
2990.119	4171
2991.949	4207
2993.779	4142
2995.608	4177
2997.439	4041
2999.268	4093
3001.096	4039
3002.923	4080
3004.751	4015
3006.578	3904
3008.406	3900
3010.232	3849
3012.057	3840
3013.883	3890
3015.706	3748
3017.532	3825
3019.356	3824
3021.179	3760
3023.002	3670
3024.823	3663
3026.646	3759
3028.469	3711
3030.289	3670
3032.11	3674
3033.93	3705
3035.749	3751
3037.57	3621
3039.39	3638
3041.207	3693
3043.026	3616
3044.842	3667
3046.661	3507
3048.477	3641
3050.294	3631
3052.109	3624
3053.925	3625
3055.739	3582
3057.555	3579
3059.368	3639
3061.181	3574
3062.995	3627
3064.807	3586
3066.62	3617
3068.433	3659
3070.243	3634
3072.054	3659
3073.865	3653
3075.675	3590
3077.485	3558
3079.293	3555
3081.102	3599
3082.911	3573
3084.719	3588
3086.527	3531
3088.333	3524
3090.139	3573
3091.945	3549
3093.75	3543
3095.557	3516
3097.361	3425
3099.165	3514
3100.969	3513
3102.772	3531
3104.575	3497
3106.379	3567
3108.181	3499
3109.982	3536
3111.783	3535
3113.584	3482
3115.386	3389
3117.186	3485
3118.985	3519
3120.783	3406
3122.582	3469
3124.381	3418
3126.179	3477
3127.975	3518
3129.772	3509
3131.569	3580
3133.365	3476
3135.161	3486
3136.956	3535
3138.751	3503
3140.544	3437
3142.338	3470
3144.132	3426
3145.925	3432
3147.717	3315
3149.509	3361
3151.301	3513
3153.091	3426
3154.884	3376
3156.673	3480
3158.462	3362
3160.252	3398
3162.041	3370
3163.831	3470
3165.618	3403
3167.405	3473
3169.193	3450
3170.979	3406
3172.767	3465
3174.553	3447
3176.338	3468
3178.123	3340
3179.907	3471
3181.692	3465
3183.477	3469
3185.259	3378
3187.042	3497
3188.824	3458
3190.607	3433
3192.389	3419
3194.17	3392
3195.951	3429
3197.73	3370
3199.51	3421
3201.289	3487
3203.07	3432
3204.848	3515
3206.626	3377
3208.403	3352
3210.18	3416
3211.959	3397
3213.735	3382
3215.511	3479
3217.285	3443
3219.06	3387
3220.836	3409
3222.611	3374
3224.384	3484
3226.158	3459
3227.929	3388
3229.702	3401
3231.476	3405
3233.248	3360
3235.018	3444
3236.789	3479
3238.56	3425
3240.33	3330
3242.1	3472
3243.869	3411
3245.637	3302
3247.405	3389
3249.172	3410
3250.941	3405
3252.707	3358
3254.474	3309
3256.24	3378
3258.006	3413
3259.772	3420
3261.537	3363
3263.301	3400
3265.065	3382
3266.828	3448
3268.592	3410
3270.355	3411
3272.117	3419
3273.878	3370
3275.64	3395
3277.401	3398
3279.162	3436
3280.922	3443
3282.682	3419
3284.441	3391
3286.199	3457
3287.959	3349
3289.716	3401
3291.475	3472
3293.232	3423
3294.988	3381
3296.744	3487
3298.501	3406
3300.256	3394
3302.011	3460
3303.766	3393
3305.52	3392
3307.275	3471
3309.028	3407
3310.781	3406
3312.533	3394
3314.285	3468
3316.038	3401
3317.789	3464
3319.54	3462
3321.289	3413
3323.039	3464
3324.789	3424
3326.539	3444
3328.288	3400
3330.035	3399
3331.783	3375
3333.531	3386
3335.28	3397
3337.025	3367
3338.771	3349
3340.518	3411
3342.262	3407
3344.009	3425
3345.753	3365
3347.497	3319
3349.24	3359
3350.983	3343
3352.726	3386
3354.469	3357
3356.212	3338
3357.952	3314
3359.694	3377
3361.434	3315
3363.176	3422
3364.916	3416
3366.654	3306
3368.394	3398
3370.132	3300
3371.871	3307
3373.61	3304
3375.346	3211
3377.083	3311
3378.82	3314
3380.556	3321
3382.292	3317
3384.027	3246
3385.763	3272
3387.497	3240
3389.231	3303
3390.965	3309
3392.698	3331
3394.431	3252
3396.164	3303
3397.896	3313
3399.627	3272
3401.36	3283
3403.09	3306
3404.82	3266
3406.55	3251
3408.279	3254
3410.01	3183
3411.738	3296
3413.467	3180
3415.194	3228
3416.92	3288
3418.647	3249
3420.375	3292
3422.102	3252
3423.827	3261
3425.553	3175
3427.277	3197
3429.003	3311
3430.727	3163
3432.451	3280
3434.173	3204
3435.896	3233
3437.62	3234
3439.343	3198
3441.063	3258
3442.785	3200
3444.505	3180
3446.226	3227
3447.948	3169
3449.666	3188
3451.386	3214
3453.104	3192
3454.823	3129
3456.541	3211
3458.259	3127
3459.976	3129
3461.693	3172
3463.408	3219
3465.125	3159
3466.841	3157
3468.556	3175
3470.271	3159
3471.985	3209
3473.698	3155
3475.414	3112
3477.126	3077
3478.838	3183
3480.55	3070
3482.263	3105
3483.975	3123
3485.686	3077
3487.396	3146
3489.106	3080
3490.817	3067
3492.526	3053
3494.236	3026
3495.944	3105
3497.652	3080
3499.359	3098
3501.066	2986
3502.775	3118
3504.481	3026
3506.187	3072
3507.893	3027
3509.598	3073
3511.304	3104
3513.009	3057
3514.713	3006
3516.417	3078
3518.12	3074
3519.821	3051
3521.525	3020
3523.228	3022
3524.929	2997
3526.631	2969
3528.33	2961
3530.032	3007
3531.733	2954
3533.433	2937
3535.131	2961
3536.83	2985
3538.529	3036
3540.227	3009
3541.925	2988
3543.623	2880
3545.319	2990
3547.016	2938
3548.712	2974
3550.408	2890
3552.103	2947
3553.798	2954
3555.491	2982
3557.188	2886
3558.88	2983
3560.574	2855
3562.266	2976
3563.959	2906
3565.651	2886
3567.343	2994
3569.035	2967
3570.725	2953
3572.415	2941
3574.106	2880
3575.797	2978
3577.485	2914
3579.174	2932
3580.863	2838
3582.551	2841
3584.238	2863
3585.926	2949
3587.613	2880
3589.3	2863
3590.986	2953
3592.671	2902
3594.357	2886
3596.042	2837
3597.726	2940
3599.41	2939
3601.094	2852
3602.778	2870
3604.461	2822
3606.143	2803
3607.825	2920
3609.507	2817
3611.188	2767
3612.87	2757
3614.551	2765
3616.229	2816
3617.909	2745
3619.589	2768
3621.269	2838
3622.948	2760
3624.625	2774
3626.302	2822
3627.98	2758
3629.657	2722
3631.334	2703
3633.01	2727
3634.686	2750
3636.361	2693
3638.036	2705
3639.712	2740
3641.385	2793
3643.06	2755
3644.732	2695
3646.405	2769
3648.08	2716
3649.751	2717
3651.424	2673
3653.094	2690
3654.766	2730
3656.436	2702
3658.106	2626
3659.777	2691
3661.446	2720
3663.115	2662
3664.783	2644
3666.452	2724
3668.121	2717
3669.788	2667
3671.454	2710
3673.121	2675
3674.789	2745
3676.455	2670
3678.12	2660
3679.784	2692
3681.45	2700
3683.114	2620
3684.779	2689
3686.442	2640
3688.105	2653
3689.768	2665
3691.43	2724
3693.093	2631
3694.754	2683
3696.415	2641
3698.076	2676
3699.736	2625
3701.396	2690
3703.057	2693
3704.716	2620
3706.375	2563
3708.034	2673
3709.692	2585
3711.351	2626
3713.008	2610
3714.665	2619
3716.321	2630
3717.977	2661
3719.634	2621
3721.29	2589
3722.945	2527
3724.598	2616
3726.253	2604
3727.907	2579
3729.561	2562
3731.214	2626
3732.867	2566
3734.518	2565
3736.171	2585
3737.824	2531
3739.474	2589
3741.125	2542
3742.775	2553
3744.425	2588
3746.074	2564
3747.725	2599
3749.373	2567
3751.022	2611
3752.669	2539
3754.318	2554
3755.966	2600
3757.612	2550
3759.259	2517
3760.905	2585
3762.55	2540
3764.197	2554
3765.842	2551
3767.486	2569
3769.131	2562
3770.774	2571
3772.417	2565
3774.061	2586
3775.705	2553
3777.347	2472
3778.988	2538
3780.629	2568
3782.271	2586
3783.912	2559
3785.552	2546
3787.192	2496
3788.831	2551
3790.472	2542
3792.112	2508
3793.75	2528
3795.388	2502
3797.024	2464
3798.661	2485
3800.3	2484
3801.936	2493
3803.572	2505
3805.208	2528
3806.844	2479
3808.48	2479
3810.115	2507
3811.748	2522
3813.382	2508
3815.016	2464
3816.649	2536
3818.283	2486
3819.914	2420
3821.547	2482
3823.178	2487
3824.809	2433
3826.441	2460
3828.072	2422
3829.701	2468
3831.331	2482
3832.96	2470
3834.591	2470
3836.219	2469
3837.847	2454
3839.475	2404
3841.102	2420
3842.729	2474
3844.357	2404
3845.984	2481
3847.609	2469
3849.234	2405
3850.86	2468
3852.485	2448
3854.11	2422
3855.734	2409
3857.357	2396
3858.981	2367
3860.603	2486
3862.227	2411
3863.848	2442
3865.471	2398
3867.092	2399
3868.713	2422
3870.334	2358
3871.954	2420
3873.575	2371
3875.194	2421
3876.813	2390
3878.433	2381
3880.051	2405
3881.669	2369
3883.286	2397
3884.904	2428
3886.52	2421
3888.138	2379
3889.754	2418
3891.37	2374
3892.985	2378
3894.6	2402
3896.216	2352
3897.831	2359
3899.444	2387
3901.058	2421
3902.67	2397
3904.283	2359
3905.897	2331
3907.509	2368
3909.121	2311
3910.731	2296
3912.342	2387
3913.954	2402
3915.563	2402
3917.174	2382
3918.783	2345
3920.391	2438
3922.002	2301
3923.611	2372
3925.218	2343
3926.826	2326
3928.432	2342
3930.039	2326
3931.647	2370
3933.253	2423
3934.859	2378
3936.464	2331
3938.068	2319
3939.675	2413
3941.278	2381
3942.883	2340
3944.486	2365
3946.089	2382
3947.692	2337
3949.295	2349
3950.898	2346
3952.499	2378
3954.1	2346
3955.7	2348
3957.303	2312
3958.903	2336
3960.502	2360
3962.101	2327
3963.7	2325
3965.301	2325
3966.899	2302
3968.497	2281
3970.094	2320
3971.691	2327
3973.288	2283
3974.885	2289
3976.481	2248
3978.077	2293
3979.672	2324
3981.267	2256
3982.863	2254
3984.457	2225
3986.051	2294
3987.645	2263
3989.238	2282
3990.831	2263
3992.425	2240
3994.017	2247
3995.607	2247
3997.199	2174
3998.79	2201
4000.382	2281
4001.973	2284
4003.561	2221
4005.151	2250
4006.741	2237
4008.331	2221
4009.918	2212
4011.507	2242
4013.095	2246
4014.681	2262
4016.269	2199
4017.856	2212
4019.443	2177
4021.028	2263
4022.614	2175
4024.199	2200
4025.785	2196
4027.37	2260
4028.953	2203
4030.536	2199
4032.12	2263
4033.704	2230
4035.287	2188
4036.869	2181
4038.45	2132
4040.032	2150
4041.613	2238
4043.195	2188
4044.776	2183
4046.356	2159
4047.935	2203
4049.515	2203
4051.095	2175
4052.674	2188
4054.251	2083
4055.829	2132
4057.406	2178
4058.985	2182
4060.562	2159
4062.139	2196
4063.715	2174
4065.29	2140
4066.865	2184
4068.442	2190
4070.016	2156
4071.59	2184
4073.164	2158
4074.738	2134
4076.312	2154
4077.885	2090
4079.458	2172
4081.03	2124
4082.602	2149
4084.173	2145
4085.745	2058
4087.315	2154
4088.886	2114
4090.456	2146
4092.026	2195
4093.596	2143
4095.165	2143
4096.734	2121
4098.301	2126
4099.869	2152
4101.437	2079
4103.006	2073
4104.572	2090
4106.139	2063
4107.704	2130
4109.27	2125
4110.837	2103
4112.401	2118
4113.966	2070
4115.53	2069
4117.094	2123
4118.659	2057
4120.223	2089
4121.785	2048
4123.347	2079
4124.909	2100
4126.471	2085
4128.034	2072
4129.595	2125
4131.155	2095
4132.716	2102
4134.275	2067
4135.836	2037
4137.395	2129
4138.955	2103
4140.513	2081
4142.071	2038
4143.628	2062
4145.188	2035
4146.745	1997
4148.302	2030
4149.858	2063
4151.414	2047
4152.971	2030
4154.526	1978
4156.081	2066
4157.635	2050
4159.189	2109
4160.745	1982
4162.298	2043
4163.852	2012
4165.405	1993
4166.957	2039
4168.51	2018
4170.063	2009
4171.614	2018
4173.166	2053
4174.717	2024
4176.267	2014
4177.817	2041
4179.368	2012
4180.917	2014
4182.466	2008
4184.016	1987
4185.564	1989
4187.112	1981
4188.66	2029
4190.207	2010
4191.754	2014
4193.301	2041
4194.848	1989
4196.394	1966
4197.94	1991
4199.484	1963
4201.03	1981
4202.575	1941
4204.12	2009
4205.663	1956
4207.207	1992
4208.75	1973
4210.292	1976
4211.836	1949
4213.378	2055
4214.92	2020
4216.46	1969
4218.002	1968
4219.544	1974
4221.083	1984
4222.625	1980
4224.164	1973
4225.703	1954
4227.244	1938
4228.782	1918
4230.32	1948
4231.857	1936
4233.395	1965
4234.933	2020
4236.471	1900
4238.007	1956
4239.542	1957
4241.078	1974
4242.614	1918
4244.15	1976
4245.685	1955
4247.219	1905
4248.753	1905
4250.287	1928
4251.82	1994
4253.354	1955
4254.887	1927
4256.419	1969
4257.951	1959
4259.483	1937
4261.016	1853
4262.547	1909
4264.078	1917
4265.608	1970
4267.137	1950
4268.668	1912
4270.197	1957
4271.727	1950
4273.254	1934
4274.783	1956
4276.311	1956
4277.84	1898
4279.366	1924
4280.894	1939
4282.42	1874
4283.946	1920
4285.473	1899
4286.998	1908
4288.523	1851
4290.047	1890
4291.572	1900
4293.096	1909
4294.622	1886
4296.144	1921
4297.668	1897
4299.19	1955
4300.713	1880
4302.236	1879
4303.758	1892
4305.279	1916
4306.799	1878
4308.321	1852
4309.842	1893
4311.361	1850
4312.882	1875
4314.401	1906
