400.0961	2662
402.6185	2630
405.1424	2668
407.6635	2652
410.1838	2627
412.7035	2707
415.2225	2715
417.7388	2739
420.2585	2848
422.7754	2793
425.2917	2904
427.8072	2805
430.3221	2837
432.8363	2889
435.3498	2770
437.8626	2934
440.3727	2857
442.8841	2833
445.3969	2841
447.907	2918
450.4142	2792
452.9229	2929
455.4289	2814
457.9362	2795
460.4449	2844
462.9488	2893
465.454	2750
467.9566	2842
470.4604	2819
472.9637	2788
475.4662	2882
477.966	2764
480.4671	2706
482.9656	2786
485.4633	2783
487.9645	2776
490.4608	2793
492.9566	2788
495.4536	2844
497.948	2765
500.4437	2792
502.9387	2855
505.431	2817
507.9226	2787
510.4136	2841
512.9079	2839
515.3975	2844
517.8864	2879
520.3746	2867
522.8622	2827
525.3491	2876
527.8394	2892
530.3249	2859
532.8098	2939
535.2939	2877
537.7774	2858
540.2623	2877
542.7444	2871
545.2259	2887
547.7067	2873
550.1868	2882
552.6683	2870
555.147	2811
557.6231	2941
560.1005	2898
562.5773	2878
565.0534	2942
567.5308	2902
570.0056	2988
572.4776	2955
574.951	2978
577.4237	3029
579.8978	3023
582.3671	2991
584.8378	3043
587.3079	3078
589.7773	3086
592.244	3064
594.714	3009
597.1793	3009
599.6461	3038
602.1121	2915
604.5754	2920
607.0421	2971
609.5042	2957
611.9675	2998
614.4282	2926
616.8902	3011
619.3515	2955
621.8122	2976
624.2702	2967
626.7296	2928
629.1863	2957
631.6423	2938
634.1017	3029
636.5563	2953
639.0104	2957
641.4658	2972
643.9185	2935
646.3725	2908
648.8239	2952
651.2766	2915
653.7266	2969
656.176	2997
658.6247	3008
661.0748	2990
663.5242	3007
665.9709	2976
668.417	3000
670.8624	3013
673.3092	3006
675.7533	2965
678.1968	3019
680.6395	3039
683.0817	3090
685.5251	3023
687.9659	3047
690.4061	3024
692.8456	3006
695.2844	3012
697.7226	3088
700.1621	3016
702.599	3038
705.0332	3137
707.4688	3111
709.9036	3101
712.3399	3076
714.7735	3016
717.2044	3013
719.6367	3094
722.0683	3076
724.4993	3093
726.9296	3144
729.3593	3113
731.7883	3131
734.2147	3182
736.6423	3123
739.0714	3178
741.4958	3201
743.9216	3160
746.3447	3138
748.7691	3143
751.1929	3168
753.616	3182
756.0366	3189
758.4584	3228
760.8776	3242
763.2982	3191
765.718	3169
768.1373	3180
770.5539	3238
772.9698	3279
775.3871	3257
777.8038	3305
780.2178	3254
782.6332	3223
785.0459	3183
787.458	3258
789.8714	3242
792.2842	3280
794.6943	3317
797.1038	3259
799.5127	3257
801.9209	3254
804.3324	3144
806.7393	3264
809.1456	3288
811.5513	3312
813.9562	3305
816.3625	3308
818.7663	3348
821.1693	3324
823.5718	3328
825.9735	3347
828.3746	3257
830.7771	3289
833.177	3235
835.5762	3249
837.9747	3318
840.3727	3263
842.772	3323
845.1666	3343
847.5626	3335
849.958	3361
852.3527	3386
854.7488	3407
857.1403	3420
859.5331	3406
861.9253	3349
864.3168	3402
866.7057	3397
869.098	3421
871.4876	3346
873.8746	3385
876.263	3328
878.6487	3346
881.0378	3360
883.4243	3359
885.8081	3341
888.1933	3390
890.5759	3384
892.9598	3359
895.343	3344
897.7256	3367
900.1057	3331
902.4871	3337
904.8659	3335
907.246	3460
909.6254	3419
912.0023	3516
914.3786	3411
916.7562	3553
919.1331	3594
921.5074	3585
923.8831	3659
926.2562	3610
928.6287	3567
931.0005	3546
933.3757	3633
935.7462	3741
938.1162	3734
940.4855	3816
942.8542	3810
945.2242	3824
947.5916	3919
949.9584	4011
952.3266	4274
954.6921	4479
957.0571	4634
959.4233	4882
961.787	5076
964.15	4951
966.5125	4836
968.8742	4451
971.2354	4192
973.5959	3967
975.9559	3806
978.3151	3715
980.6738	3625
983.0338	3547
985.3912	3620
987.7461	3556
990.1022	3488
992.4578	3579
994.8127	3459
997.1689	3528
999.5207	3569
1001.874	3635
1004.226	3592
1006.576	3574
1008.929	3684
1011.28	3470
1013.628	3424
1015.977	3472
1018.324	3535
1020.674	3497
1023.019	3578
1025.366	3513
1027.713	3583
1030.056	3573
1032.399	3644
1034.746	3698
1037.087	3650
1039.431	3640
1041.771	3596
1044.113	3742
1046.454	3756
1048.793	3653
1051.133	3696
1053.471	3559
1055.807	3653
1058.146	3662
1060.483	3650
1062.818	3718
1065.153	3762
1067.489	3708
1069.822	3805
1072.156	3755
1074.488	3678
1076.82	3768
1079.15	3772
1081.48	3720
1083.814	3668
1086.143	3648
1088.471	3683
1090.799	3531
1093.126	3606
1095.452	3655
1097.78	3573
1100.105	3609
1102.43	3623
1104.754	3605
1107.077	3627
1109.4	3592
1111.722	3635
1114.044	3625
1116.365	3622
1118.685	3537
1121.005	3694
1123.324	3589
1125.643	3555
1127.961	3544
1130.278	3568
1132.595	3641
1134.911	3661
1137.226	3614
1139.541	3570
1141.854	3587
1144.167	3558
1146.482	3644
1148.793	3560
1151.105	3576
1153.414	3566
1155.725	3578
1158.033	3584
1160.344	3589
1162.651	3688
1164.959	3587
1167.265	3577
1169.572	3620
1171.878	3550
1174.184	3640
1176.488	3542
1178.79	3578
1181.094	3642
1183.396	3576
1185.699	3632
1188.001	3682
1190.301	3620
1192.6	3496
1194.9	3517
1197.2	3629
1199.497	3674
1201.794	3611
1204.09	3612
1206.387	3662
1208.684	3698
1210.978	3580
1213.272	3600
1215.565	3583
1217.858	3615
1220.15	3695
1222.443	3558
1224.734	3601
1227.024	3676
1229.313	3611
1231.602	3687
1233.892	3691
1236.18	3681
1238.467	3663
1240.754	3711
1243.04	3848
1245.325	3760
1247.612	3800
1249.896	3827
1252.178	3848
1254.461	3838
1256.743	3794
1259.027	3814
1261.308	3867
1263.587	3818
1265.867	3776
1268.146	3771
1270.425	3836
1272.703	3770
1274.981	3873
1277.256	3791
1279.532	3798
1281.808	3714
1284.083	3761
1286.358	3682
1288.63	3702
1290.904	3753
1293.175	3687
1295.449	3683
1297.719	3749
1299.99	3612
1302.259	3741
1304.529	3669
1306.798	3708
1309.065	3713
1311.333	3696
1313.599	3705
1315.866	3718
1318.131	3814
1320.396	3708
1322.66	3767
1324.925	3775
1327.187	3764
1329.448	3786
1331.711	3718
1333.974	3732
1336.234	3711
1338.493	3732
1340.752	3744
1343.01	3674
1345.269	3724
1347.526	3742
1349.784	3717
1352.04	3763
1354.295	3728
1356.552	3801
1358.806	3684
1361.059	3710
1363.312	3702
1365.564	3619
1367.818	3687
1370.069	3739
1372.318	3735
1374.568	3702
1376.817	3736
1379.066	3748
1381.316	3798
1383.564	3755
1385.809	3745
1388.056	3753
1390.301	3712
1392.549	3865
1394.793	3835
1397.036	3801
1399.279	3904
1401.522	3832
1403.763	3860
1406.007	3840
1408.248	3858
1410.487	3909
1412.727	3918
1414.965	3824
1417.205	3837
1419.442	3847
1421.68	3838
1423.915	3874
1426.152	3883
1428.388	3861
1430.623	3811
1432.857	3845
1435.091	3865
1437.323	3881
1439.556	3930
1441.789	3935
1444.019	3879
1446.25	3934
1448.48	3962
1450.708	3883
1452.938	4018
1455.167	4017
1457.394	4019
1459.62	4006
1461.846	3963
1464.073	3913
1466.299	3945
1468.523	3902
1470.746	3933
1472.969	3876
1475.191	3888
1477.415	3858
1479.636	3834
1481.858	3838
1484.078	3826
1486.298	3800
1488.518	3773
1490.736	3798
1492.954	3771
1495.169	3666
1497.386	3755
1499.602	3759
1501.819	3742
1504.034	3661
1506.248	3669
1508.462	3673
1510.675	3806
1512.888	3716
1515.1	3675
1517.311	3737
1519.522	3765
1521.732	3648
1523.942	3752
1526.151	3648
1528.36	3729
1530.566	3694
1532.773	3737
1534.98	3740
1537.187	3746
1539.392	3776
1541.596	3759
1543.801	3814
1546.005	3831
1548.208	3699
1550.411	3739
1552.612	3757
1554.814	3788
1557.013	3704
1559.212	3797
1561.414	3708
1563.612	3809
1565.811	3754
1568.007	3808
1570.203	3864
1572.403	3831
1574.598	3804
1576.792	3757
1578.988	3762
1581.181	3782
1583.376	3895
1585.568	3837
1587.761	3891
1589.952	3839
1592.143	3804
1594.333	3797
1596.524	3892
1598.715	3801
1600.903	3787
1603.091	3847
1605.278	3898
1607.466	3916
1609.652	3901
1611.838	3885
1614.023	3851
1616.207	3948
1618.391	3877
1620.576	3913
1622.759	3914
1624.941	4005
1627.123	3908
1629.304	3899
1631.484	3911
1633.664	3971
1635.844	3967
1638.022	3945
1640.201	3925
1642.38	3974
1644.556	3917
1646.732	3945
1648.908	3899
1651.084	3952
1653.257	3899
1655.433	4008
1657.607	3983
1659.779	3988
1661.951	3957
1664.122	4049
1666.295	4001
1668.467	4040
1670.635	4072
1672.805	4033
1674.973	4012
1677.142	4073
1679.31	3979
1681.478	4048
1683.644	3970
1685.81	4080
1687.975	3933
1690.142	4010
1692.305	3983
1694.468	3957
1696.632	3843
1698.794	3964
1700.957	3903
1703.119	3916
1705.279	3848
1707.439	3884
1709.598	3828
1711.758	3884
1713.917	3842
1716.075	3879
1718.231	3883
1720.388	3872
1722.543	3825
1724.702	3869
1726.856	3864
1729.01	3793
1731.164	3842
1733.317	3836
1735.471	3791
1737.623	3881
1739.774	3899
1741.925	3825
1744.075	3847
1746.225	3792
1748.376	3831
1750.524	3800
1752.672	3806
1754.82	3804
1756.965	3857
1759.113	3846
1761.259	3903
1763.405	3806
1765.549	3922
1767.694	3805
1769.836	3895
1771.981	3888
1774.123	3853
1776.264	3828
1778.405	3857
1780.546	3958
1782.687	3897
1784.827	3951
1786.966	3933
1789.103	3815
1791.242	3824
1793.381	3947
1795.517	3834
1797.653	3888
1799.788	3920
1801.923	3909
1804.057	3976
1806.193	3883
1808.326	3856
1810.457	3857
1812.59	3863
1814.721	3919
1816.855	3767
1818.984	3886
1821.113	3944
1823.244	3838
1825.372	3804
1827.499	3802
1829.63	3875
1831.756	3934
1833.882	3846
1836.007	3863
1838.132	3844
1840.26	3958
1842.384	3827
1844.507	3847
1846.63	3871
1848.752	3925
1850.875	3819
1852.996	3924
1855.118	3856
1857.238	3882
1859.358	3855
1861.477	3784
1863.597	3881
1865.715	3861
1867.832	3861
1869.948	3865
1872.064	3809
1874.181	3929
1876.297	3899
1878.411	3914
1880.526	3894
1882.639	3846
1884.752	3733
1886.865	3880
1888.977	3915
1891.089	3983
1893.2	3870
1895.308	3901
1897.42	3881
1899.53	3862
1901.639	3883
1903.745	3888
1905.853	3884
1907.962	3871
1910.067	4008
1912.174	3885
1914.278	3882
1916.383	3881
1918.486	3871
1920.592	3890
1922.694	3848
1924.797	3911
1926.898	3944
1929	4006
1931.102	3931
1933.203	3945
1935.301	3912
1937.401	3902
1939.499	3993
1941.598	3907
1943.697	3908
1945.793	3847
1947.888	3884
1949.985	3888
1952.08	3910
1954.176	3913
1956.269	3876
1958.364	3854
1960.457	4029
1962.549	3857
1964.642	3912
1966.733	3957
1968.823	3885
1970.913	3915
1973.005	3940
1975.093	3810
1977.184	3878
1979.271	3913
1981.359	3923
1983.446	3955
1985.532	3811
1987.619	3959
1989.705	3851
1991.789	3842
1993.874	3880
1995.956	3923
1998.041	3945
2000.123	3829
2002.206	3855
2004.287	3907
2006.368	3959
2008.449	3839
2010.529	3894
2012.609	3868
2014.688	3838
2016.766	3901
2018.843	3825
2020.922	3844
2022.999	3932
2025.074	3860
2027.15	3850
2029.225	3854
2031.299	3830
2033.375	3877
2035.447	3806
2037.52	3885
2039.592	3870
2041.664	3887
2043.736	3877
2045.807	3884
2047.876	3895
2049.947	3889
2052.015	3884
2054.086	3919
2056.153	3981
2058.221	3883
2060.288	3945
2062.353	3837
2064.42	3863
2066.486	3911
2068.55	3952
2070.614	3879
2072.678	3894
2074.741	3906
2076.805	3845
2078.866	3906
2080.929	3879
2082.99	3879
2085.049	3846
2087.109	3958
2089.17	3929
2091.228	3936
2093.286	3931
2095.344	3949
2097.4	3952
2099.46	3891
2101.516	3894
2103.572	3920
2105.626	3872
2107.679	3877
2109.735	3853
2111.788	3921
2113.841	3761
2115.894	3888
2117.945	3898
2119.997	3827
2122.049	3867
2124.1	3959
2126.148	3873
2128.197	3824
2130.246	3929
2132.296	3886
2134.342	3905
2136.39	3967
2138.437	3986
2140.483	3896
2142.527	3976
2144.574	3915
2146.619	3855
2148.661	3854
2150.705	3893
2152.747	3874
2154.792	3890
2156.832	3812
2158.874	3939
2160.915	3831
2162.954	3819
2164.995	3881
2167.034	3858
2169.072	3830
2171.111	3953
2173.148	3893
2175.186	3852
2177.223	3866
2179.258	3947
2181.294	3899
2183.328	3845
2185.362	3944
2187.398	3776
2189.431	3846
2191.463	3882
2193.495	3923
2195.528	3828
2197.56	3819
2199.59	3887
2201.62	3840
2203.649	3787
2205.678	3802
2207.708	3764
2209.737	3780
2211.764	3811
2213.791	3852
2215.817	3788
2217.843	3845
2219.87	3845
2221.895	3822
2223.919	3805
2225.942	3895
2227.966	3780
2229.988	3829
2232.012	3836
2234.032	3914
2236.054	3829
2238.074	3770
2240.095	3886
2242.116	3909
2244.135	3847
2246.153	3859
2248.171	3737
2250.188	3872
2252.208	3737
2254.223	3816
2256.239	3803
2258.255	3814
2260.269	3836
2262.283	3781
2264.3	3828
2266.312	3850
2268.325	3785
2270.336	3803
2272.349	3809
2274.362	3875
2276.372	3824
2278.383	3804
2280.392	3778
2282.402	3780
2284.409	3838
2286.418	3828
2288.427	3917
2290.433	3800
2292.441	3805
2294.446	3807
2296.453	3798
2298.459	3862
2300.463	3822
2302.466	3787
2304.471	3874
2306.475	3783
2308.477	3853
2310.478	3886
2312.481	3831
2314.481	3812
2316.481	3818
2318.482	3819
2320.482	3850
2322.48	3740
2324.48	3802
2326.478	3796
2328.476	3721
2330.473	3822
2332.469	3759
2334.465	3769
2336.46	3749
2338.454	3731
2340.45	3725
2342.444	3745
2344.437	3713
2346.43	3746
2348.421	3749
2350.414	3834
2352.405	3677
2354.396	3757
2356.386	3775
2358.376	3690
2360.366	3786
2362.355	3764
2364.343	3760
2366.331	3688
2368.317	3774
2370.304	3752
2372.292	3721
2374.278	3768
2376.262	3736
2378.247	3707
2380.23	3771
2382.216	3774
2384.199	3762
2386.181	3667
2388.163	3671
2390.144	3720
2392.127	3767
2394.107	3809
2396.087	3665
2398.066	3744
2400.046	3758
2402.023	3653
2404.004	3674
2405.981	3768
2407.957	3670
2409.934	3688
2411.91	3743
2413.886	3735
2415.862	3687
2417.836	3718
2419.809	3712
2421.784	3713
2423.756	3710
2425.73	3664
2427.701	3658
2429.672	3702
2431.644	3717
2433.615	3724
2435.586	3643
2437.555	3723
2439.523	3673
2441.491	3755
2443.459	3736
2445.428	3745
2447.395	3697
2449.361	3736
2451.327	3705
2453.292	3736
2455.257	3656
2457.223	3740
2459.187	3630
2461.15	3643
2463.113	3705
2465.076	3679
2467.039	3673
2468.999	3695
2470.96	3646
2472.921	3659
2474.881	3678
2476.841	3700
2478.8	3676
2480.759	3657
2482.717	3672
2484.675	3701
2486.63	3657
2488.589	3690
2490.545	3688
2492.5	3652
2494.455	3715
2496.408	3625
2498.364	3718
2500.318	3663
2502.27	3687
2504.223	3640
2506.174	3745
2508.126	3671
2510.078	3703
2512.03	3667
2513.979	3619
2515.927	3655
2517.877	3677
2519.826	3628
2521.775	3613
2523.722	3694
2525.668	3703
2527.616	3662
2529.561	3633
2531.508	3635
2533.452	3728
2535.398	3630
2537.342	3651
2539.284	3675
2541.229	3632
2543.173	3636
2545.114	3707
2547.055	3660
2548.996	3694
2550.938	3626
2552.878	3653
2554.817	3690
2556.756	3673
2558.695	3598
2560.633	3666
2562.572	3528
2564.509	3670
2566.445	3632
2568.382	3628
2570.317	3651
2572.254	3617
2574.189	3691
2576.123	3567
2578.057	3550
2579.99	3632
2581.923	3664
2583.855	3674
2585.788	3667
2587.719	3674
2589.65	3632
2591.579	3701
2593.511	3604
2595.44	3655
2597.37	3630
2599.297	3660
2601.225	3658
2603.153	3653
2605.08	3686
2607.007	3565
2608.932	3665
2610.858	3564
2612.782	3635
2614.709	3570
2616.632	3673
2618.556	3628
2620.478	3606
2622.401	3650
2624.324	3617
2626.247	3578
2628.167	3684
2630.088	3730
2632.008	3712
2633.928	3709
2635.848	3665
2637.766	3636
2639.684	3553
2641.603	3649
2643.519	3642
2645.437	3585
2647.353	3578
2649.27	3596
2651.184	3667
2653.099	3664
2655.014	3658
2656.928	3644
2658.842	3687
2660.755	3572
2662.667	3661
2664.579	3677
2666.491	3578
2668.402	3747
2670.312	3554
2672.222	3537
2674.132	3629
2676.042	3591
2677.951	3650
2679.859	3634
2681.766	3700
2683.674	3715
2685.582	3670
2687.488	3605
2689.392	3653
2691.298	3567
2693.202	3637
2695.107	3516
2697.012	3641
2698.914	3706
2700.817	3698
2702.72	3735
2704.622	3657
2706.524	3610
2708.425	3625
2710.326	3523
2712.225	3658
2714.125	3607
2716.024	3582
2717.923	3580
2719.822	3597
2721.719	3587
2723.616	3592
2725.512	3581
2727.41	3577
2729.305	3558
2731.201	3616
2733.095	3558
2734.99	3642
2736.884	3617
2738.778	3636
2740.67	3633
2742.562	3568
2744.455	3606
2746.346	3569
2748.238	3626
2750.129	3665
2752.018	3605
2753.907	3583
2755.797	3555
2757.687	3584
2759.575	3547
2761.462	3578
2763.349	3509
2765.237	3505
2767.124	3655
2769.009	3566
2770.894	3568
2772.779	3622
2774.663	3575
2776.547	3599
2778.431	3571
2780.314	3619
2782.197	3571
2784.078	3559
2785.96	3586
2787.842	3592
2789.723	3672
2791.603	3564
2793.483	3593
2795.362	3561
2797.241	3518
2799.121	3530
2800.997	3573
2802.874	3604
2804.751	3601
2806.628	3506
2808.506	3577
2810.38	3538
2812.255	3535
2814.13	3534
2816.003	3563
2817.878	3489
2819.752	3579
2821.623	3631
2823.496	3579
2825.368	3573
2827.238	3597
2829.111	3539
2830.98	3566
2832.851	3522
2834.719	3578
2836.589	3608
2838.458	3639
2840.327	3642
2842.193	3490
2844.061	3558
2845.927	3636
2847.794	3573
2849.66	3537
2851.525	3591
2853.39	3626
2855.254	3597
2857.117	3629
2858.983	3684
2860.845	3678
2862.707	3678
2864.569	3739
2866.431	3745
2868.293	3743
2870.154	3768
2872.013	3829
2873.873	3877
2875.733	3865
2877.592	3924
2879.451	3938
2881.309	4007
2883.166	3945
2885.022	4115
2886.879	4074
2888.736	3989
2890.591	4082
2892.446	4058
2894.301	4075
2896.155	4128
2898.009	4026
2899.863	4016
2901.716	4114
2903.568	4043
2905.419	3986
2907.27	4061
2909.123	4065
2910.973	4002
2912.824	4196
2914.673	4189
2916.521	4208
2918.372	4251
2920.22	4276
2922.067	4323
2923.914	4333
2925.761	4441
2927.607	4471
2929.455	4501
2931.301	4514
2933.144	4630
2934.99	4648
2936.833	4708
2938.678	4701
2940.522	4693
2942.364	4777
2944.207	4785
2946.048	4852
2947.891	4823
2949.731	4838
2951.571	4799
2953.412	4767
2955.25	4669
2957.09	4783
2958.93	4621
2960.767	4678
2962.606	4565
2964.443	4551
2966.279	4521
2968.116	4400
2969.953	4361
2971.788	4367
2973.623	4308
2975.457	4264
2977.292	4357
2979.127	4241
2980.959	4292
2982.792	4114
2984.624	4075
2986.455	4138
2988.288	4087
2990.119	4031
2991.949	4064
2993.779	4045
2995.608	4041
2997.439	3986
2999.268	3914
3001.096	3892
3002.923	3886
3004.751	3877
3006.578	3797
3008.406	3833
3010.232	3765
3012.057	3701
3013.883	3646
3015.706	3657
3017.532	3591
3019.356	3553
3021.179	3650
3023.002	3573
3024.823	3542
3026.646	3531
3028.469	3524
3030.289	3534
3032.11	3564
3033.93	3528
3035.749	3437
3037.57	3416
3039.39	3370
3041.207	3470
3043.026	3448
3044.842	3464
3046.661	3453
3048.477	3439
3050.294	3445
3052.109	3493
3053.925	3442
3055.739	3457
3057.555	3350
3059.368	3509
3061.181	3512
3062.995	3384
3064.807	3591
3066.62	3483
3068.433	3468
3070.243	3411
3072.054	3442
3073.865	3351
3075.675	3369
3077.485	3333
3079.293	3371
3081.102	3357
3082.911	3333
3084.719	3346
3086.527	3404
3088.333	3335
3090.139	3336
3091.945	3318
3093.75	3355
3095.557	3354
3097.361	3416
3099.165	3370
3100.969	3333
3102.772	3254
3104.575	3298
3106.379	3330
3108.181	3309
3109.982	3315
3111.783	3324
3113.584	3331
3115.386	3414
3117.186	3330
3118.985	3297
3120.783	3301
3122.582	3294
3124.381	3333
3126.179	3294
3127.975	3298
3129.772	3268
3131.569	3270
3133.365	3252
3135.161	3233
3136.956	3318
3138.751	3341
3140.544	3262
3142.338	3346
3144.132	3278
3145.925	3327
3147.717	3246
3149.509	3213
3151.301	3280
3153.091	3276
3154.884	3229
3156.673	3243
3158.462	3257
3160.252	3338
3162.041	3262
3163.831	3239
3165.618	3209
3167.405	3226
3169.193	3308
3170.979	3179
3172.767	3206
3174.553	3218
3176.338	3293
3178.123	3321
3179.907	3247
3181.692	3242
3183.477	3289
3185.259	3254
3187.042	3217
3188.824	3209
3190.607	3311
3192.389	3259
3194.17	3202
3195.951	3260
3197.73	3156
3199.51	3213
3201.289	3236
3203.07	3260
3204.848	3248
3206.626	3293
3208.403	3279
3210.18	3258
3211.959	3278
3213.735	3288
3215.511	3316
3217.285	3126
3219.06	3205
3220.836	3332
3222.611	3170
3224.384	3244
3226.158	3301
3227.929	3264
3229.702	3306
3231.476	3261
3233.248	3317
3235.018	3236
3236.789	3233
3238.56	3186
3240.33	3313
3242.1	3336
3243.869	3225
3245.637	3244
3247.405	3280
3249.172	3274
3250.941	3210
3252.707	3260
3254.474	3255
3256.24	3315
3258.006	3244
3259.772	3309
3261.537	3289
3263.301	3344
3265.065	3295
3266.828	3295
3268.592	3304
3270.355	3273
3272.117	3273
3273.878	3241
3275.64	3278
3277.401	3265
3279.162	3246
3280.922	3297
3282.682	3290
3284.441	3272
3286.199	3304
3287.959	3303
3289.716	3297
3291.475	3239
3293.232	3309
3294.988	3274
3296.744	3296
3298.501	3285
3300.256	3342
3302.011	3298
3303.766	3302
3305.52	3280
3307.275	3271
3309.028	3312
3310.781	3247
3312.533	3250
3314.285	3330
3316.038	3206
3317.789	3315
3319.54	3293
3321.289	3235
3323.039	3266
3324.789	3245
3326.539	3170
3328.288	3278
3330.035	3270
3331.783	3288
3333.531	3212
3335.28	3211
3337.025	3282
3338.771	3247
3340.518	3273
3342.262	3293
3344.009	3256
3345.753	3269
3347.497	3247
3349.24	3228
3350.983	3174
3352.726	3209
3354.469	3224
3356.212	3259
3357.952	3282
3359.694	3185
3361.434	3214
3363.176	3189
3364.916	3202
3366.654	3150
3368.394	3183
3370.132	3147
3371.871	3249
3373.61	3225
3375.346	3145
3377.083	3182
3378.82	3197
3380.556	3241
3382.292	3192
3384.027	3141
3385.763	3188
3387.497	3134
3389.231	3132
3390.965	3179
3392.698	3215
3394.431	3181
3396.164	3177
3397.896	3167
3399.627	3130
3401.36	3117
3403.09	3220
3404.82	3122
3406.55	3185
3408.279	3131
3410.01	3118
3411.738	3139
3413.467	3099
3415.194	3064
3416.92	3017
3418.647	3140
3420.375	3111
3422.102	3133
3423.827	3082
3425.553	3119
3427.277	3178
3429.003	3085
3430.727	3102
3432.451	3168
3434.173	3142
3435.896	3103
3437.62	3106
3439.343	3071
3441.063	3037
3442.785	3039
3444.505	3061
3446.226	3052
3447.948	3092
3449.666	3089
3451.386	3032
3453.104	3099
3454.823	3052
3456.541	3082
3458.259	2974
3459.976	3015
3461.693	2981
3463.408	3059
3465.125	3049
3466.841	3072
3468.556	3049
3470.271	3020
3471.985	2998
3473.698	2942
3475.414	3002
3477.126	3001
3478.838	2949
3480.55	2971
3482.263	3003
3483.975	2983
3485.686	3007
3487.396	2963
3489.106	2968
3490.817	2926
3492.526	2993
3494.236	2899
3495.944	2951
3497.652	2932
3499.359	2955
3501.066	2953
3502.775	2900
3504.481	2930
3506.187	2943
3507.893	2951
3509.598	2847
3511.304	2862
3513.009	2867
3514.713	2946
3516.417	2898
3518.12	2901
3519.821	2857
3521.525	2820
3523.228	2901
3524.929	2907
3526.631	2802
3528.33	2852
3530.032	2812
3531.733	2872
3533.433	2908
3535.131	2855
3536.83	2865
3538.529	2909
3540.227	2888
3541.925	2884
3543.623	2854
3545.319	2841
3547.016	2831
3548.712	2839
3550.408	2747
3552.103	2775
3553.798	2855
3555.491	2822
3557.188	2770
3558.88	2858
3560.574	2801
3562.266	2782
3563.959	2780
3565.651	2777
3567.343	2720
3569.035	2840
3570.725	2773
3572.415	2763
3574.106	2811
3575.797	2842
3577.485	2773
3579.174	2777
3580.863	2711
3582.551	2698
3584.238	2710
3585.926	2765
3587.613	2779
3589.3	2764
3590.986	2757
3592.671	2749
3594.357	2657
3596.042	2691
3597.726	2635
3599.41	2747
3601.094	2646
3602.778	2695
3604.461	2690
3606.143	2672
3607.825	2673
3609.507	2679
3611.188	2602
3612.87	2636
3614.551	2644
3616.229	2675
3617.909	2666
3619.589	2654
3621.269	2626
3622.948	2657
3624.625	2648
3626.302	2636
3627.98	2617
3629.657	2655
3631.334	2668
3633.01	2646
3634.686	2574
3636.361	2641
3638.036	2643
3639.712	2559
3641.385	2566
3643.06	2591
3644.732	2531
3646.405	2566
3648.08	2549
3649.751	2584
3651.424	2557
3653.094	2633
3654.766	2559
3656.436	2593
3658.106	2567
3659.777	2512
3661.446	2499
3663.115	2566
3664.783	2582
3666.452	2581
3668.121	2539
3669.788	2555
3671.454	2545
3673.121	2533
3674.789	2486
3676.455	2569
3678.12	2580
3679.784	2575
3681.45	2530
3683.114	2573
3684.779	2534
3686.442	2558
3688.105	2549
3689.768	2509
3691.43	2500
3693.093	2464
3694.754	2438
3696.415	2511
3698.076	2484
3699.736	2525
3701.396	2461
3703.057	2491
3704.716	2502
3706.375	2533
3708.034	2513
3709.692	2486
3711.351	2490
3713.008	2447
3714.665	2487
3716.321	2506
3717.977	2492
3719.634	2488
3721.29	2511
3722.945	2470
3724.598	2493
3726.253	2514
3727.907	2444
3729.561	2491
3731.214	2491
3732.867	2462
3734.518	2499
3736.171	2362
3737.824	2548
3739.474	2371
3741.125	2409
3742.775	2410
3744.425	2461
3746.074	2471
3747.725	2418
3749.373	2495
3751.022	2445
3752.669	2334
3754.318	2409
3755.966	2487
3757.612	2383
3759.259	2475
3760.905	2478
3762.55	2455
3764.197	2387
3765.842	2369
3767.486	2415
3769.131	2436
3770.774	2465
3772.417	2396
3774.061	2345
3775.705	2435
3777.347	2388
3778.988	2418
3780.629	2456
3782.271	2421
3783.912	2411
3785.552	2371
3787.192	2419
3788.831	2436
3790.472	2383
3792.112	2345
3793.75	2363
3795.388	2380
3797.024	2402
3798.661	2349
3800.3	2351
3801.936	2325
3803.572	2424
3805.208	2343
3806.844	2347
3808.48	2376
3810.115	2403
3811.748	2338
3813.382	2332
3815.016	2387
3816.649	2372
3818.283	2342
3819.914	2358
3821.547	2316
3823.178	2387
3824.809	2328
3826.441	2329
3828.072	2320
3829.701	2317
3831.331	2322
3832.96	2325
3834.591	2351
3836.219	2311
3837.847	2339
3839.475	2308
3841.102	2345
3842.729	2290
3844.357	2339
3845.984	2335
3847.609	2323
3849.234	2289
3850.86	2370
3852.485	2291
3854.11	2294
3855.734	2237
3857.357	2304
3858.981	2267
3860.603	2329
3862.227	2283
3863.848	2286
3865.471	2239
3867.092	2249
3868.713	2281
3870.334	2308
3871.954	2242
3873.575	2310
3875.194	2288
3876.813	2298
3878.433	2340
3880.051	2266
3881.669	2248
3883.286	2306
3884.904	2231
3886.52	2303
3888.138	2239
3889.754	2291
3891.37	2306
3892.985	2232
3894.6	2234
3896.216	2244
3897.831	2280
3899.444	2323
3901.058	2271
3902.67	2298
3904.283	2235
3905.897	2294
3907.509	2231
3909.121	2311
3910.731	2212
3912.342	2226
3913.954	2234
3915.563	2283
3917.174	2237
3918.783	2264
3920.391	2228
3922.002	2252
3923.611	2237
3925.218	2230
3926.826	2237
3928.432	2234
3930.039	2269
3931.647	2244
3933.253	2213
3934.859	2195
3936.464	2219
3938.068	2246
3939.675	2217
3941.278	2242
3942.883	2238
3944.486	2192
3946.089	2208
3947.692	2241
3949.295	2234
3950.898	2227
3952.499	2216
3954.1	2252
3955.7	2215
3957.303	2235
3958.903	2234
3960.502	2210
3962.101	2147
3963.7	2194
3965.301	2227
3966.899	2190
3968.497	2200
3970.094	2240
3971.691	2183
3973.288	2221
3974.885	2202
3976.481	2171
3978.077	2141
3979.672	2195
3981.267	2175
3982.863	2148
3984.457	2104
3986.051	2181
3987.645	2201
3989.238	2154
3990.831	2169
3992.425	2137
3994.017	2176
3995.607	2183
3997.199	2191
3998.79	2111
4000.382	2144
4001.973	2142
4003.561	2118
4005.151	2120
4006.741	2217
4008.331	2138
4009.918	2172
4011.507	2122
4013.095	2105
4014.681	2128
4016.269	2132
4017.856	2097
4019.443	2055
4021.028	2118
4022.614	2109
4024.199	2094
4025.785	2153
4027.37	2120
4028.953	2082
4030.536	2102
4032.12	2134
4033.704	2050
4035.287	2126
4036.869	2113
4038.45	2081
4040.032	2057
4041.613	2084
4043.195	2067
4044.776	2056
4046.356	2070
4047.935	2116
4049.515	2081
4051.095	2015
4052.674	2055
4054.251	2086
4055.829	2096
4057.406	2060
4058.985	2020
4060.562	2028
4062.139	2094
4063.715	2079
4065.29	2019
4066.865	2008
4068.442	2061
4070.016	2017
4071.59	2052
4073.164	1998
4074.738	2004
4076.312	2033
4077.885	2060
4079.458	2088
4081.03	2067
4082.602	2056
4084.173	2088
4085.745	2055
4087.315	2048
4088.886	2008
4090.456	2011
4092.026	2037
4093.596	2083
4095.165	2050
4096.734	2001
4098.301	2029
4099.869	2055
4101.437	2042
4103.006	2014
4104.572	2014
4106.139	2034
4107.704	2006
4109.27	2054
4110.837	2015
4112.401	1974
4113.966	1983
4115.53	1978
4117.094	1960
4118.659	2017
4120.223	2045
4121.785	2021
4123.347	2027
4124.909	1987
4126.471	2009
4128.034	1969
4129.595	1973
4131.155	1985
4132.716	1985
4134.275	1948
4135.836	1991
4137.395	1957
4138.955	1967
4140.513	1953
4142.071	1938
4143.628	2002
4145.188	1977
4146.745	2021
4148.302	1953
4149.858	1950
4151.414	1898
4152.971	1966
4154.526	1999
4156.081	1927
4157.635	1924
4159.189	1952
4160.745	1934
4162.298	1911
4163.852	1914
4165.405	1914
4166.957	1992
4168.51	1975
4170.063	1913
4171.614	1914
4173.166	1909
4174.717	1914
4176.267	1905
4177.817	1949
4179.368	1860
4180.917	1868
4182.466	1886
4184.016	1974
4185.564	1928
4187.112	1914
4188.66	1851
4190.207	1928
4191.754	1915
4193.301	1910
4194.848	1871
4196.394	1916
4197.94	1902
4199.484	1862
4201.03	1883
4202.575	1934
4204.12	1897
4205.663	1910
4207.207	1905
4208.75	1898
4210.292	1917
4211.836	1824
4213.378	1905
4214.92	1913
4216.46	1852
4218.002	1862
4219.544	1889
4221.083	1899
4222.625	1889
4224.164	1883
4225.703	1819
4227.244	1797
4228.782	1866
4230.32	1902
4231.857	1853
4233.395	1837
4234.933	1822
4236.471	1814
4238.007	1874
4239.542	1860
4241.078	1863
4242.614	1831
4244.15	1830
4245.685	1873
4247.219	1840
4248.753	1817
4250.287	1869
4251.82	1830
4253.354	1886
4254.887	1845
4256.419	1846
4257.951	1859
4259.483	1861
4261.016	1835
4262.547	1864
4264.078	1854
4265.608	1831
4267.137	1817
4268.668	1813
4270.197	1835
4271.727	1798
4273.254	1824
4274.783	1822
4276.311	1820
4277.84	1861
4279.366	1869
4280.894	1762
4282.42	1851
4283.946	1841
4285.473	1837
4286.998	1795
4288.523	1800
4290.047	1827
4291.572	1811
4293.096	1788
4294.622	1718
4296.144	1748
4297.668	1840
4299.19	1732
4300.713	1748
4302.236	1813
4303.758	1801
4305.279	1727
4306.799	1785
4308.321	1783
4309.842	1794
4311.361	1757
4312.882	1747
4314.401	1799
