400.0961	5877
402.6185	5893
405.1424	6027
407.6635	5934
410.1838	5927
412.7035	5963
415.2225	6030
417.7388	6109
420.2585	6193
422.7754	6066
425.2917	6149
427.8072	6238
430.3221	6329
432.8363	6296
435.3498	6339
437.8626	6446
440.3727	6382
442.8841	6264
445.3969	6312
447.907	6441
450.4142	6378
452.9229	6264
455.4289	6453
457.9362	6259
460.4449	6402
462.9488	6429
465.454	6331
467.9566	6452
470.4604	6307
472.9637	6427
475.4662	6455
477.966	6385
480.4671	6480
482.9656	6539
485.4633	6469
487.9645	6491
490.4608	6593
492.9566	6402
495.4536	6384
497.948	6482
500.4437	6552
502.9387	6443
505.431	6536
507.9226	6525
510.4136	6561
512.9079	6607
515.3975	6556
517.8864	6621
520.3746	6704
522.8622	6539
525.3491	6646
527.8394	6625
530.3249	6659
532.8098	6637
535.2939	6653
537.7774	6683
540.2623	6527
542.7444	6656
545.2259	6680
547.7067	6668
550.1868	6747
552.6683	6608
555.147	6702
557.6231	6730
560.1005	6691
562.5773	6710
565.0534	6715
567.5308	6770
570.0056	6747
572.4776	6833
574.951	6780
577.4237	6874
579.8978	6758
582.3671	6975
584.8378	6964
587.3079	6920
589.7773	6823
592.244	7030
594.714	6945
597.1793	6903
599.6461	6923
602.1121	6947
604.5754	6845
607.0421	6921
609.5042	6904
611.9675	6833
614.4282	6805
616.8902	6852
619.3515	6802
621.8122	6852
624.2702	6919
626.7296	6805
629.1863	6904
631.6423	6750
634.1017	6855
636.5563	6774
639.0104	7044
641.4658	6923
643.9185	6702
646.3725	6986
648.8239	6930
651.2766	7039
653.7266	6913
656.176	7124
658.6247	6978
661.0748	7061
663.5242	7084
665.9709	6990
668.417	7027
670.8624	7048
673.3092	7075
675.7533	7069
678.1968	7075
680.6395	7014
683.0817	7131
685.5251	7000
687.9659	7096
690.4061	7166
692.8456	7156
695.2844	7144
697.7226	7142
700.1621	7222
702.599	7180
705.0332	7134
707.4688	7155
709.9036	7147
712.3399	7267
714.7735	7168
717.2044	7250
719.6367	7228
722.0683	7286
724.4993	7309
726.9296	7370
729.3593	7387
731.7883	7327
734.2147	7341
736.6423	7435
739.0714	7384
741.4958	7317
743.9216	7488
746.3447	7638
748.7691	7510
751.1929	7610
753.616	7559
756.0366	7547
758.4584	7597
760.8776	7512
763.2982	7796
765.718	7598
768.1373	7648
770.5539	7668
772.9698	7700
775.3871	7711
777.8038	7659
780.2178	7612
782.6332	7667
785.0459	7637
787.458	7626
789.8714	7672
792.2842	7701
794.6943	7616
797.1038	7640
799.5127	7586
801.9209	7592
804.3324	7706
806.7393	7646
809.1456	7758
811.5513	7731
813.9562	7739
816.3625	7753
818.7663	7693
821.1693	7667
823.5718	7773
825.9735	7806
828.3746	7874
830.7771	7716
833.177	7725
835.5762	7747
837.9747	7898
840.3727	7902
842.772	7738
845.1666	7884
847.5626	7823
849.958	7901
852.3527	7885
854.7488	7936
857.1403	7912
859.5331	8032
861.9253	7861
864.3168	7812
866.7057	7818
869.098	7822
871.4876	7790
873.8746	7916
876.263	7982
878.6487	7907
881.0378	7857
883.4243	7865
885.8081	7818
888.1933	7843
890.5759	7861
892.9598	7886
895.343	7752
897.7256	7932
900.1057	7960
902.4871	7863
904.8659	7940
907.246	7979
909.6254	7945
912.0023	8099
914.3786	8121
916.7562	8175
919.1331	8172
921.5074	8218
923.8831	8404
926.2562	8340
928.6287	8337
931.0005	8146
933.3757	8290
935.7462	8306
938.1162	8327
940.4855	8374
942.8542	8409
945.2242	8392
947.5916	8484
949.9584	8729
952.3266	8907
954.6921	9096
957.0571	9410
959.4233	9661
961.787	9663
964.15	9718
966.5125	9370
968.8742	9093
971.2354	8736
973.5959	8747
975.9559	8487
978.3151	8314
980.6738	8452
983.0338	8417
985.3912	8124
987.7461	8082
990.1022	8209
992.4578	8151
994.8127	8088
997.1689	8181
999.5207	8241
1001.874	8261
1004.226	8174
1006.576	8172
1008.929	8224
1011.28	8205
1013.628	8290
1015.977	8122
1018.324	8169
1020.674	8234
1023.019	8334
1025.366	8216
1027.713	8319
1030.056	8318
1032.399	8306
1034.746	8289
1037.087	8243
1039.431	8224
1041.771	8330
1044.113	8351
1046.454	8285
1048.793	8296
1051.133	8409
1053.471	8315
1055.807	8497
1058.146	8310
1060.483	8355
1062.818	8439
1065.153	8495
1067.489	8348
1069.822	8381
1072.156	8599
1074.488	8518
1076.82	8399
1079.15	8492
1081.48	8416
1083.814	8466
1086.143	8460
1088.471	8448
1090.799	8400
1093.126	8336
1095.452	8432
1097.78	8374
1100.105	8332
1102.43	8245
1104.754	8314
1107.077	8350
1109.4	8356
1111.722	8453
1114.044	8312
1116.365	8393
1118.685	8542
1121.005	8447
1123.324	8442
1125.643	8255
1127.961	8482
1130.278	8447
1132.595	8368
1134.911	8430
1137.226	8406
1139.541	8354
1141.854	8395
1144.167	8392
1146.482	8555
1148.793	8334
1151.105	8456
1153.414	8409
1155.725	8426
1158.033	8417
1160.344	8433
1162.651	8452
1164.959	8595
1167.265	8484
1169.572	8445
1171.878	8487
1174.184	8424
1176.488	8447
1178.79	8369
1181.094	8515
1183.396	8396
1185.699	8520
1188.001	8508
1190.301	8457
1192.6	8457
1194.9	8462
1197.2	8427
1199.497	8467
1201.794	8342
1204.09	8339
1206.387	8456
1208.684	8533
1210.978	8417
1213.272	8574
1215.565	8481
1217.858	8469
1220.15	8572
1222.443	8389
1224.734	8631
1227.024	8501
1229.313	8653
1231.602	8588
1233.892	8572
1236.18	8625
1238.467	8684
1240.754	8962
1243.04	8733
1245.325	8768
1247.612	8782
1249.896	8768
1252.178	8664
1254.461	8821
1256.743	8889
1259.027	8954
1261.308	8710
1263.587	8733
1265.867	8795
1268.146	8724
1270.425	8799
1272.703	8810
1274.981	8917
1277.256	8803
1279.532	8804
1281.808	8799
1284.083	8704
1286.358	8805
1288.63	8822
1290.904	8641
1293.175	8714
1295.449	8688
1297.719	8674
1299.99	8487
1302.259	8621
1304.529	8629
1306.798	8734
1309.065	8594
1311.333	8719
1313.599	8671
1315.866	8619
1318.131	8760
1320.396	8719
1322.66	8654
1324.925	8674
1327.187	8809
1329.448	8579
1331.711	8692
1333.974	8739
1336.234	8626
1338.493	8567
1340.752	8597
1343.01	8624
1345.269	8762
1347.526	8646
1349.784	8849
1352.04	8696
1354.295	8525
1356.552	8643
1358.806	8605
1361.059	8803
1363.312	8593
1365.564	8719
1367.818	8649
1370.069	8740
1372.318	8798
1374.568	8677
1376.817	8795
1379.066	8779
1381.316	8884
1383.564	8738
1385.809	8795
1388.056	8689
1390.301	8829
1392.549	8977
1394.793	8987
1397.036	8945
1399.279	8868
1401.522	9103
1403.763	8896
1406.007	8939
1408.248	8996
1410.487	8952
1412.727	8988
1414.965	8899
1417.205	8938
1419.442	8931
1421.68	8891
1423.915	8992
1426.152	8920
1428.388	9009
1430.623	8917
1432.857	8993
1435.091	9009
1437.323	9009
1439.556	9018
1441.789	9020
1444.019	9040
1446.25	9103
1448.48	9307
1450.708	9165
1452.938	9077
1455.167	9350
1457.394	9219
1459.62	9221
1461.846	9062
1464.073	9161
1466.299	9002
1468.523	8960
1470.746	8919
1472.969	8905
1475.191	8946
1477.415	9016
1479.636	9024
1481.858	8824
1484.078	8707
1486.298	8922
1488.518	8798
1490.736	8701
1492.954	8692
1495.169	8755
1497.386	8780
1499.602	8697
1501.819	8723
1504.034	8680
1506.248	8709
1508.462	8708
1510.675	8780
1512.888	8694
1515.1	8687
1517.311	8742
1519.522	8718
1521.732	8652
1523.942	8720
1526.151	8792
1528.36	8568
1530.566	8719
1532.773	8750
1534.98	8668
1537.187	8623
1539.392	8588
1541.596	8683
1543.801	8793
1546.005	8783
1548.208	8793
1550.411	8787
1552.612	8838
1554.814	8934
1557.013	8638
1559.212	8923
1561.414	8757
1563.612	8855
1565.811	8874
1568.007	8813
1570.203	8881
1572.403	8899
1574.598	8973
1576.792	8961
1578.988	9013
1581.181	8844
1583.376	8909
1585.568	9007
1587.761	8985
1589.952	8949
1592.143	8943
1594.333	8993
1596.524	9093
1598.715	9020
1600.903	9015
1603.091	9063
1605.278	8951
1607.466	8991
1609.652	9057
1611.838	9063
1614.023	9004
1616.207	9166
1618.391	9044
1620.576	8933
1622.759	9043
1624.941	9016
1627.123	8923
1629.304	9236
1631.484	9080
1633.664	9167
1635.844	9303
1638.022	8951
1640.201	9001
1642.38	9131
1644.556	9038
1646.732	9093
1648.908	9132
1651.084	9183
1653.257	9004
1655.433	9036
1657.607	9137
1659.779	9131
1661.951	9166
1664.122	9075
1666.295	9182
1668.467	9191
1670.635	9233
1672.805	9179
1674.973	9093
1677.142	9184
1679.31	9209
1681.478	9171
1683.644	9067
1685.81	9101
1687.975	9012
1690.142	9131
1692.305	9163
1694.468	9093
1696.632	9144
1698.794	9002
1700.957	8930
1703.119	9051
1705.279	8949
1707.439	8885
1709.598	9052
1711.758	9021
1713.917	9080
1716.075	8877
1718.231	9047
1720.388	8911
1722.543	8999
1724.702	8967
1726.856	8855
1729.01	8976
1731.164	8976
1733.317	8898
1735.471	8950
1737.623	8986
1739.774	9097
1741.925	8986
1744.075	9000
1746.225	8972
1748.376	8934
1750.524	9094
1752.672	8918
1754.82	9043
1756.965	9014
1759.113	8939
1761.259	9141
1763.405	9107
1765.549	9055
1767.694	9087
1769.836	9060
1771.981	8993
1774.123	9124
1776.264	8959
1778.405	8983
1780.546	9128
1782.687	9091
1784.827	8942
1786.966	9039
1789.103	9048
1791.242	9076
1793.381	9016
1795.517	9069
1797.653	9014
1799.788	9029
1801.923	9022
1804.057	9055
1806.193	9213
1808.326	9282
1810.457	9041
1812.59	9086
1814.721	9150
1816.855	9012
1818.984	9024
1821.113	9025
1823.244	9021
1825.372	9088
1827.499	9021
1829.63	9023
1831.756	8790
1833.882	9056
1836.007	9079
1838.132	9133
1840.26	9026
1842.384	9064
1844.507	9026
1846.63	8998
1848.752	9034
1850.875	8886
1852.996	9019
1855.118	8920
1857.238	8973
1859.358	8978
1861.477	8915
1863.597	8998
1865.715	8967
1867.832	8998
1869.948	9003
1872.064	8863
1874.181	8902
1876.297	8958
1878.411	9075
1880.526	9052
1882.639	8955
1884.752	8892
1886.865	8944
1888.977	9016
1891.089	9137
1893.2	9108
1895.308	8996
1897.42	9063
1899.53	8970
1901.639	8961
1903.745	8983
1905.853	9075
1907.962	8956
1910.067	9141
1912.174	9006
1914.278	8993
1916.383	9150
1918.486	9027
1920.592	9086
1922.694	9078
1924.797	9038
1926.898	9081
1929	9153
1931.102	9111
1933.203	9167
1935.301	8954
1937.401	8966
1939.499	9131
1941.598	9201
1943.697	8973
1945.793	9133
1947.888	9009
1949.985	9199
1952.08	9007
1954.176	9063
1956.269	9073
1958.364	9106
1960.457	9152
1962.549	9083
1964.642	9091
1966.733	8997
1968.823	9103
1970.913	9022
1973.005	9112
1975.093	9103
1977.184	8977
1979.271	9068
1981.359	9011
1983.446	8954
1985.532	9075
1987.619	9081
1989.705	8969
1991.789	9016
1993.874	8939
1995.956	8895
1998.041	9022
2000.123	8963
2002.206	8986
2004.287	8878
2006.368	8856
2008.449	8916
2010.529	8854
2012.609	8973
2014.688	8853
2016.766	8865
2018.843	8909
2020.922	8960
2022.999	8977
2025.074	9039
2027.15	9038
2029.225	8976
2031.299	8945
2033.375	8999
2035.447	8984
2037.52	8934
2039.592	8783
2041.664	9005
2043.736	8744
2045.807	8952
2047.876	8914
2049.947	8878
2052.015	8921
2054.086	8948
2056.153	8958
2058.221	8884
2060.288	8867
2062.353	8984
2064.42	8868
2066.486	8952
2068.55	9016
2070.614	8852
2072.678	8955
2074.741	8899
2076.805	8911
2078.866	8985
2080.929	8943
2082.99	8848
2085.049	8974
2087.109	9009
2089.17	8892
2091.228	8959
2093.286	8932
2095.344	9054
2097.4	9049
2099.46	8888
2101.516	8894
2103.572	8927
2105.626	8927
2107.679	8868
2109.735	8969
2111.788	8943
2113.841	8877
2115.894	8909
2117.945	8898
2119.997	8903
2122.049	8891
2124.1	8947
2126.148	8880
2128.197	8929
2130.246	8793
2132.296	8896
2134.342	8935
2136.39	8867
2138.437	8996
2140.483	8947
2142.527	8937
2144.574	8964
2146.619	8885
2148.661	9003
2150.705	8915
2152.747	8912
2154.792	8841
2156.832	8926
2158.874	8885
2160.915	8822
2162.954	8845
2164.995	8824
2167.034	8684
2169.072	8871
2171.111	8674
2173.148	8714
2175.186	8822
2177.223	8747
2179.258	8970
2181.294	8817
2183.328	8757
2185.362	8800
2187.398	8727
2189.431	8710
2191.463	8735
2193.495	8659
2195.528	8771
2197.56	8682
2199.59	8616
2201.62	8593
2203.649	8731
2205.678	8732
2207.708	8753
2209.737	8642
2211.764	8646
2213.791	8584
2215.817	8719
2217.843	8565
2219.87	8751
2221.895	8581
2223.919	8701
2225.942	8702
2227.966	8579
2229.988	8604
2232.012	8610
2234.032	8692
2236.054	8793
2238.074	8676
2240.095	8558
2242.116	8647
2244.135	8770
2246.153	8574
2248.171	8578
2250.188	8625
2252.208	8625
2254.223	8641
2256.239	8607
2258.255	8635
2260.269	8571
2262.283	8560
2264.3	8555
2266.312	8578
2268.325	8593
2270.336	8490
2272.349	8580
2274.362	8588
2276.372	8645
2278.383	8564
2280.392	8553
2282.402	8763
2284.409	8546
2286.418	8627
2288.427	8580
2290.433	8655
2292.441	8641
2294.446	8690
2296.453	8564
2298.459	8552
2300.463	8551
2302.466	8505
2304.471	8636
2306.475	8558
2308.477	8481
2310.478	8535
2312.481	8603
2314.481	8603
2316.481	8510
2318.482	8603
2320.482	8587
2322.48	8584
2324.48	8548
2326.478	8458
2328.476	8444
2330.473	8533
2332.469	8538
2334.465	8418
2336.46	8546
2338.454	8495
2340.45	8498
2342.444	8347
2344.437	8555
2346.43	8457
2348.421	8362
2350.414	8457
2352.405	8515
2354.396	8387
2356.386	8554
2358.376	8383
2360.366	8468
2362.355	8363
2364.343	8382
2366.331	8319
2368.317	8411
2370.304	8433
2372.292	8236
2374.278	8320
2376.262	8431
2378.247	8232
2380.23	8262
2382.216	8300
2384.199	8138
2386.181	8364
2388.163	8312
2390.144	8301
2392.127	8268
2394.107	8388
2396.087	8388
2398.066	8160
2400.046	8367
2402.023	8327
2404.004	8202
2405.981	8343
2407.957	8274
2409.934	8149
2411.91	8306
2413.886	8328
2415.862	8256
2417.836	8280
2419.809	8263
2421.784	8394
2423.756	8252
2425.73	8070
2427.701	8335
2429.672	8188
2431.644	8156
2433.615	8290
2435.586	8156
2437.555	8244
2439.523	8258
2441.491	8154
2443.459	8227
2445.428	8295
2447.395	8269
2449.361	8212
2451.327	8098
2453.292	8212
2455.257	8052
2457.223	8134
2459.187	8116
2461.15	8296
2463.113	8117
2465.076	8112
2467.039	8097
2468.999	8112
2470.96	8082
2472.921	8146
2474.881	8196
2476.841	8031
2478.8	8092
2480.759	8143
2482.717	8079
2484.675	8048
2486.63	8203
2488.589	8268
2490.545	8078
2492.5	8052
2494.455	8061
2496.408	8138
2498.364	8054
2500.318	7973
2502.27	8129
2504.223	7990
2506.174	8080
2508.126	8125
2510.078	8006
2512.03	8007
2513.979	8048
2515.927	8111
2517.877	8175
2519.826	7964
2521.775	8043
2523.722	8113
2525.668	8068
2527.616	8149
2529.561	8055
2531.508	7945
2533.452	8112
2535.398	7974
2537.342	7959
2539.284	7871
2541.229	8025
2543.173	8042
2545.114	7951
2547.055	8060
2548.996	7980
2550.938	8063
2552.878	8061
2554.817	7876
2556.756	8069
2558.695	8038
2560.633	8129
2562.572	8054
2564.509	7961
2566.445	8029
2568.382	7968
2570.317	7985
2572.254	7980
2574.189	8077
2576.123	7992
2578.057	7995
2579.99	8062
2581.923	8113
2583.855	8070
2585.788	7959
2587.719	7917
2589.65	8057
2591.579	8003
2593.511	8030
2595.44	8036
2597.37	7888
2599.297	8016
2601.225	8056
2603.153	7964
2605.08	7937
2607.007	8134
2608.932	8015
2610.858	7884
2612.782	7949
2614.709	8098
2616.632	8002
2618.556	7999
2620.478	7887
2622.401	7928
2624.324	8065
2626.247	7986
2628.167	7896
2630.088	8076
2632.008	8097
2633.928	8028
2635.848	8073
2637.766	7893
2639.684	7973
2641.603	8067
2643.519	8037
2645.437	8029
2647.353	7975
2649.27	7802
2651.184	7835
2653.099	7990
2655.014	7924
2656.928	7987
2658.842	7907
2660.755	8033
2662.667	7886
2664.579	7821
2666.491	7931
2668.402	7886
2670.312	7806
2672.222	7900
2674.132	7888
2676.042	7966
2677.951	7957
2679.859	7909
2681.766	7915
2683.674	7901
2685.582	7872
2687.488	7723
2689.392	7856
2691.298	7918
2693.202	7808
2695.107	7818
2697.012	7819
2698.914	7799
2700.817	7867
2702.72	7896
2704.622	7770
2706.524	7824
2708.425	7768
2710.326	7811
2712.225	7920
2714.125	7866
2716.024	7804
2717.923	7714
2719.822	7732
2721.719	7797
2723.616	7743
2725.512	7851
2727.41	7709
2729.305	7659
2731.201	7707
2733.095	7834
2734.99	7692
2736.884	7753
2738.778	7750
2740.67	7720
2742.562	7743
2744.455	7725
2746.346	7620
2748.238	7853
2750.129	7855
2752.018	7733
2753.907	7760
2755.797	7770
2757.687	7701
2759.575	7618
2761.462	7824
2763.349	7695
2765.237	7737
2767.124	7733
2769.009	7771
2770.894	7538
2772.779	7710
2774.663	7773
2776.547	7711
2778.431	7664
2780.314	7699
2782.197	7849
2784.078	7679
2785.96	7585
2787.842	7716
2789.723	7704
2791.603	7679
2793.483	7666
2795.362	7703
2797.241	7690
2799.121	7624
2800.997	7673
2802.874	7542
2804.751	7546
2806.628	7634
2808.506	7643
2810.38	7587
2812.255	7597
2814.13	7643
2816.003	7587
2817.878	7611
2819.752	7652
2821.623	7656
2823.496	7521
2825.368	7794
2827.238	7544
2829.111	7657
2830.98	7720
2832.851	7569
2834.719	7639
2836.589	7643
2838.458	7592
2840.327	7611
2842.193	7599
2844.061	7533
2845.927	7569
2847.794	7662
2849.66	7723
2851.525	7672
2853.39	7630
2855.254	7631
2857.117	7563
2858.983	7626
2860.845	7657
2862.707	7782
2864.569	7787
2866.431	7756
2868.293	7742
2870.154	7766
2872.013	7868
2873.873	7911
2875.733	8017
2877.592	8006
2879.451	8032
2881.309	8112
2883.166	8050
2885.022	8012
2886.879	8197
2888.736	8113
2890.591	8169
2892.446	8222
2894.301	8153
2896.155	8267
2898.009	8138
2899.863	8059
2901.716	8140
2903.568	8137
2905.419	8001
2907.27	8112
2909.123	8112
2910.973	8080
2912.824	8124
2914.673	8039
2916.521	8156
2918.372	8250
2920.22	8455
2922.067	8251
2923.914	8320
2925.761	8513
2927.607	8523
2929.455	8483
2931.301	8493
2933.144	8602
2934.99	8643
2936.833	8697
2938.678	8705
2940.522	8829
2942.364	8945
2944.207	8744
2946.048	8998
2947.891	8963
2949.731	8960
2951.571	9010
2953.412	8954
2955.25	8778
2957.09	8806
2958.93	8664
2960.767	8826
2962.606	8539
2964.443	8583
2966.279	8558
2968.116	8550
2969.953	8359
2971.788	8372
2973.623	8190
2975.457	8129
2977.292	8241
2979.127	8110
2980.959	8118
2982.792	8148
2984.624	8048
2986.455	8028
2988.288	8044
2990.119	7940
2991.949	7882
2993.779	7954
2995.608	7802
2997.439	7835
2999.268	7735
3001.096	7726
3002.923	7541
3004.751	7526
3006.578	7503
3008.406	7591
3010.232	7530
3012.057	7389
3013.883	7415
3015.706	7416
3017.532	7427
3019.356	7334
3021.179	7285
3023.002	7246
3024.823	7266
3026.646	7218
3028.469	7174
3030.289	7232
3032.11	7250
3033.93	7251
3035.749	7192
3037.57	7158
3039.39	7124
3041.207	7187
3043.026	7133
3044.842	7189
3046.661	7099
3048.477	7153
3050.294	7135
3052.109	7107
3053.925	7186
3055.739	7035
3057.555	7109
3059.368	7175
3061.181	7086
3062.995	7038
3064.807	7129
3066.62	7054
3068.433	7162
3070.243	7019
3072.054	7165
3073.865	7108
3075.675	6920
3077.485	7062
3079.293	6970
3081.102	6931
3082.911	6903
3084.719	6891
3086.527	6875
3088.333	7067
3090.139	6938
3091.945	6908
3093.75	6878
3095.557	6754
3097.361	6890
3099.165	6898
3100.969	6796
3102.772	6799
3104.575	6861
3106.379	6842
3108.181	6857
3109.982	6836
3111.783	6818
3113.584	6828
3115.386	6758
3117.186	6837
3118.985	6782
3120.783	6798
3122.582	6734
3124.381	6724
3126.179	6741
3127.975	6788
3129.772	6760
3131.569	6696
3133.365	6752
3135.161	6743
3136.956	6706
3138.751	6817
3140.544	6587
3142.338	6787
3144.132	6623
3145.925	6676
3147.717	6697
3149.509	6638
3151.301	6761
3153.091	6665
3154.884	6673
3156.673	6622
3158.462	6708
3160.252	6584
3162.041	6715
3163.831	6596
3165.618	6704
3167.405	6718
3169.193	6664
3170.979	6563
3172.767	6520
3174.553	6636
3176.338	6676
3178.123	6620
3179.907	6528
3181.692	6520
3183.477	6590
3185.259	6566
3187.042	6617
3188.824	6580
3190.607	6621
3192.389	6601
3194.17	6508
3195.951	6619
3197.73	6616
3199.51	6612
3201.289	6530
3203.07	6509
3204.848	6461
3206.626	6527
3208.403	6478
3210.18	6650
3211.959	6486
3213.735	6553
3215.511	6576
3217.285	6587
3219.06	6466
3220.836	6495
3222.611	6433
3224.384	6367
3226.158	6506
3227.929	6613
3229.702	6400
3231.476	6528
3233.248	6531
3235.018	6425
3236.789	6581
3238.56	6429
3240.33	6396
3242.1	6511
3243.869	6508
3245.637	6518
3247.405	6506
3249.172	6450
3250.941	6471
3252.707	6317
3254.474	6512
3256.24	6532
3258.006	6412
3259.772	6399
3261.537	6460
3263.301	6482
3265.065	6404
3266.828	6475
3268.592	6430
3270.355	6542
3272.117	6483
3273.878	6455
3275.64	6355
3277.401	6508
3279.162	6423
3280.922	6475
3282.682	6394
3284.441	6430
3286.199	6472
3287.959	6490
3289.716	6404
3291.475	6496
3293.232	6498
3294.988	6379
3296.744	6519
3298.501	6393
3300.256	6382
3302.011	6379
3303.766	6330
3305.52	6432
3307.275	6383
3309.028	6426
3310.781	6468
3312.533	6365
3314.285	6396
3316.038	6378
3317.789	6293
3319.54	6248
3321.289	6328
3323.039	6480
3324.789	6350
3326.539	6345
3328.288	6252
3330.035	6397
3331.783	6273
3333.531	6377
3335.28	6304
3337.025	6364
3338.771	6320
3340.518	6464
3342.262	6268
3344.009	6330
3345.753	6241
3347.497	6352
3349.24	6349
3350.983	6260
3352.726	6271
3354.469	6403
3356.212	6281
3357.952	6358
3359.694	6302
3361.434	6196
3363.176	6381
3364.916	6338
3366.654	6176
3368.394	6197
3370.132	6274
3371.871	6241
3373.61	6335
3375.346	6093
3377.083	6257
3378.82	6057
3380.556	6106
3382.292	6105
3384.027	6208
3385.763	6155
3387.497	6092
3389.231	6171
3390.965	6082
3392.698	6078
3394.431	6107
3396.164	6150
3397.896	6137
3399.627	6105
3401.36	6071
3403.09	6242
3404.82	6064
3406.55	6143
3408.279	6027
3410.01	6151
3411.738	6120
3413.467	6120
3415.194	6110
3416.92	6099
3418.647	6085
3420.375	6051
3422.102	6111
3423.827	6079
3425.553	6046
3427.277	6057
3429.003	5947
3430.727	5988
3432.451	5999
3434.173	6074
3435.896	6026
3437.62	6005
3439.343	6139
3441.063	5964
3442.785	5981
3444.505	6009
3446.226	5915
3447.948	5933
3449.666	5939
3451.386	6051
3453.104	5922
3454.823	5904
3456.541	5799
3458.259	5798
3459.976	5834
3461.693	5792
3463.408	5774
3465.125	5826
3466.841	5785
3468.556	5928
3470.271	5803
3471.985	5798
3473.698	5795
3475.414	5828
3477.126	5774
3478.838	5809
3480.55	5700
3482.263	5823
3483.975	5754
3485.686	5840
3487.396	5650
3489.106	5707
3490.817	5677
3492.526	5746
3494.236	5661
3495.944	5794
3497.652	5655
3499.359	5819
3501.066	5667
3502.775	5677
3504.481	5671
3506.187	5579
3507.893	5629
3509.598	5671
3511.304	5699
3513.009	5567
3514.713	5640
3516.417	5584
3518.12	5630
3519.821	5639
3521.525	5621
3523.228	5604
3524.929	5580
3526.631	5515
3528.33	5584
3530.032	5635
3531.733	5493
3533.433	5566
3535.131	5462
3536.83	5539
3538.529	5595
3540.227	5586
3541.925	5610
3543.623	5495
3545.319	5532
3547.016	5508
3548.712	5421
3550.408	5514
3552.103	5469
3553.798	5426
3555.491	5524
3557.188	5471
3558.88	5532
3560.574	5366
3562.266	5469
3563.959	5423
3565.651	5461
3567.343	5473
3569.035	5440
3570.725	5397
3572.415	5431
3574.106	5488
3575.797	5357
3577.485	5412
3579.174	5343
3580.863	5391
3582.551	5350
3584.238	5347
3585.926	5268
3587.613	5317
3589.3	5323
3590.986	5434
3592.671	5353
3594.357	5303
3596.042	5330
3597.726	5304
3599.41	5325
3601.094	5284
3602.778	5343
3604.461	5286
3606.143	5246
3607.825	5277
3609.507	5237
3611.188	5171
3612.87	5273
3614.551	5213
3616.229	5220
3617.909	5287
3619.589	5167
3621.269	5231
3622.948	5190
3624.625	5186
3626.302	5137
3627.98	5202
3629.657	5148
3631.334	5232
3633.01	5119
3634.686	5143
3636.361	5104
3638.036	5143
3639.712	5106
3641.385	5099
3643.06	5054
3644.732	5154
3646.405	5050
3648.08	5119
3649.751	4940
3651.424	5047
3653.094	5117
3654.766	5169
3656.436	5071
3658.106	5055
3659.777	5107
3661.446	4996
3663.115	5104
3664.783	5042
3666.452	5029
3668.121	5018
3669.788	5009
3671.454	5041
3673.121	4999
3674.789	5011
3676.455	4933
3678.12	4939
3679.784	4966
3681.45	4867
3683.114	4947
3684.779	5017
3686.442	4975
3688.105	4918
3689.768	4936
3691.43	4931
3693.093	4908
3694.754	4972
3696.415	4894
3698.076	5001
3699.736	4845
3701.396	4925
3703.057	4871
3704.716	4919
3706.375	4932
3708.034	4879
3709.692	4882
3711.351	4889
3713.008	4940
3714.665	5011
3716.321	4856
3717.977	4911
3719.634	4929
3721.29	4790
3722.945	4793
3724.598	4877
3726.253	4875
3727.907	4859
3729.561	4887
3731.214	4837
3732.867	4777
3734.518	4889
3736.171	4891
3737.824	4785
3739.474	4921
3741.125	4825
3742.775	4803
3744.425	4768
3746.074	4889
3747.725	4756
3749.373	4832
3751.022	4846
3752.669	4762
3754.318	4836
3755.966	4743
3757.612	4843
3759.259	4717
3760.905	4876
3762.55	4732
3764.197	4709
3765.842	4704
3767.486	4752
3769.131	4781
3770.774	4689
3772.417	4730
3774.061	4717
3775.705	4794
3777.347	4730
3778.988	4676
3780.629	4707
3782.271	4633
3783.912	4695
3785.552	4717
3787.192	4662
3788.831	4758
3790.472	4612
3792.112	4715
3793.75	4655
3795.388	4692
3797.024	4656
3798.661	4641
3800.3	4608
3801.936	4693
3803.572	4637
3805.208	4648
3806.844	4690
3808.48	4615
3810.115	4582
3811.748	4597
3813.382	4669
3815.016	4540
3816.649	4603
3818.283	4597
3819.914	4557
3821.547	4572
3823.178	4583
3824.809	4589
3826.441	4496
3828.072	4544
3829.701	4494
3831.331	4525
3832.96	4535
3834.591	4611
3836.219	4461
3837.847	4511
3839.475	4499
3841.102	4513
3842.729	4506
3844.357	4536
3845.984	4576
3847.609	4543
3849.234	4547
3850.86	4508
3852.485	4460
3854.11	4502
3855.734	4521
3857.357	4470
3858.981	4653
3860.603	4466
3862.227	4451
3863.848	4475
3865.471	4466
3867.092	4445
3868.713	4447
3870.334	4404
3871.954	4490
3873.575	4384
3875.194	4402
3876.813	4452
3878.433	4461
3880.051	4371
3881.669	4360
3883.286	4484
3884.904	4395
3886.52	4439
3888.138	4372
3889.754	4402
3891.37	4342
3892.985	4339
3894.6	4409
3896.216	4298
3897.831	4469
3899.444	4412
3901.058	4364
3902.67	4295
3904.283	4308
3905.897	4393
3907.509	4366
3909.121	4376
3910.731	4291
3912.342	4349
3913.954	4383
3915.563	4387
3917.174	4443
3918.783	4362
3920.391	4257
3922.002	4450
3923.611	4309
3925.218	4321
3926.826	4299
3928.432	4366
3930.039	4380
3931.647	4307
3933.253	4204
3934.859	4246
3936.464	4284
3938.068	4308
3939.675	4205
3941.278	4361
3942.883	4251
3944.486	4271
3946.089	4295
3947.692	4206
3949.295	4307
3950.898	4325
3952.499	4289
3954.1	4251
3955.7	4282
3957.303	4200
3958.903	4263
3960.502	4250
3962.101	4134
3963.7	4206
3965.301	4266
3966.899	4146
3968.497	4219
3970.094	4135
3971.691	4251
3973.288	4263
3974.885	4179
3976.481	4225
3978.077	4164
3979.672	4143
3981.267	4183
3982.863	4154
3984.457	4101
3986.051	4185
3987.645	4210
3989.238	4100
3990.831	4051
3992.425	4121
3994.017	4188
3995.607	4096
3997.199	4166
3998.79	4049
4000.382	4032
4001.973	4041
4003.561	4150
4005.151	3975
4006.741	4084
4008.331	4028
4009.918	4017
4011.507	4121
4013.095	4052
4014.681	4079
4016.269	4067
4017.856	4011
4019.443	3982
4021.028	4025
4022.614	3974
4024.199	4152
4025.785	4039
4027.37	4028
4028.953	3983
4030.536	4033
4032.12	3992
4033.704	4004
4035.287	4021
4036.869	3990
4038.45	3970
4040.032	3910
4041.613	4047
4043.195	3912
4044.776	3927
4046.356	3959
4047.935	3871
4049.515	3909
4051.095	3978
4052.674	3926
4054.251	3913
4055.829	3963
4057.406	3894
4058.985	3935
4060.562	3952
4062.139	3902
4063.715	3905
4065.29	3885
4066.865	3888
4068.442	3877
4070.016	3968
4071.59	3948
4073.164	3925
4074.738	3870
4076.312	3989
4077.885	3835
4079.458	3896
4081.03	3857
4082.602	3812
4084.173	3866
4085.745	3771
4087.315	3852
4088.886	3765
4090.456	3867
4092.026	3859
4093.596	3851
4095.165	3858
4096.734	3870
4098.301	3875
4099.869	3977
4101.437	3841
4103.006	3819
4104.572	3712
4106.139	3856
4107.704	3786
4109.27	3848
4110.837	3785
4112.401	3789
4113.966	3774
4115.53	3797
4117.094	3775
4118.659	3820
4120.223	3775
4121.785	3747
4123.347	3812
4124.909	3678
4126.471	3681
4128.034	3783
4129.595	3693
4131.155	3809
4132.716	3729
4134.275	3687
4135.836	3694
4137.395	3620
4138.955	3686
4140.513	3646
4142.071	3664
4143.628	3678
4145.188	3693
4146.745	3642
4148.302	3617
4149.858	3676
4151.414	3728
4152.971	3650
4154.526	3673
4156.081	3664
4157.635	3623
4159.189	3655
4160.745	3696
4162.298	3661
4163.852	3594
4165.405	3544
4166.957	3642
4168.51	3631
4170.063	3577
4171.614	3552
4173.166	3661
4174.717	3587
4176.267	3548
4177.817	3498
4179.368	3579
4180.917	3595
4182.466	3645
4184.016	3578
4185.564	3496
4187.112	3488
4188.66	3532
4190.207	3590
4191.754	3581
4193.301	3588
4194.848	3590
4196.394	3514
4197.94	3458
4199.484	3567
4201.03	3519
4202.575	3521
4204.12	3533
4205.663	3509
4207.207	3472
4208.75	3525
4210.292	3447
4211.836	3466
4213.378	3453
4214.92	3459
4216.46	3483
4218.002	3522
4219.544	3417
4221.083	3493
4222.625	3464
4224.164	3421
4225.703	3412
4227.244	3452
4228.782	3414
4230.32	3554
4231.857	3451
4233.395	3464
4234.933	3468
4236.471	3503
4238.007	3372
4239.542	3483
4241.078	3426
4242.614	3397
4244.15	3450
4245.685	3391
4247.219	3406
4248.753	3363
4250.287	3344
4251.82	3490
4253.354	3380
4254.887	3402
4256.419	3418
4257.951	3381
4259.483	3370
4261.016	3332
4262.547	3389
4264.078	3357
4265.608	3356
4267.137	3388
4268.668	3384
4270.197	3372
4271.727	3322
4273.254	3393
4274.783	3343
4276.311	3397
4277.84	3409
4279.366	3339
4280.894	3275
4282.42	3392
4283.946	3354
4285.473	3321
4286.998	3317
4288.523	3295
4290.047	3365
4291.572	3329
4293.096	3349
4294.622	3374
4296.144	3342
4297.668	3250
4299.19	3351
4300.713	3285
4302.236	3309
4303.758	3250
4305.279	3254
4306.799	3262
4308.321	3256
4309.842	3257
4311.361	3235
4312.882	3285
4314.401	3217
