400.0961	2409
402.6185	2386
405.1424	2409
407.6635	2405
410.1838	2329
412.7035	2332
415.2225	2414
417.7388	2457
420.2585	2541
422.7754	2534
425.2917	2551
427.8072	2621
430.3221	2572
432.8363	2614
435.3498	2585
437.8626	2707
440.3727	2563
442.8841	2588
445.3969	2590
447.907	2581
450.4142	2600
452.9229	2573
455.4289	2544
457.9362	2521
460.4449	2483
462.9488	2519
465.454	2477
467.9566	2532
470.4604	2557
472.9637	2483
475.4662	2490
477.966	2490
480.4671	2463
482.9656	2424
485.4633	2449
487.9645	2535
490.4608	2511
492.9566	2492
495.4536	2533
497.948	2452
500.4437	2522
502.9387	2494
505.431	2504
507.9226	2561
510.4136	2517
512.9079	2546
515.3975	2594
517.8864	2526
520.3746	2526
522.8622	2568
525.3491	2609
527.8394	2551
530.3249	2597
532.8098	2573
535.2939	2584
537.7774	2568
540.2623	2565
542.7444	2556
545.2259	2600
547.7067	2530
550.1868	2565
552.6683	2570
555.147	2589
557.6231	2637
560.1005	2558
562.5773	2575
565.0534	2609
567.5308	2604
570.0056	2620
572.4776	2670
574.951	2668
577.4237	2694
579.8978	2694
582.3671	2762
584.8378	2726
587.3079	2711
589.7773	2709
592.244	2767
594.714	2792
597.1793	2707
599.6461	2607
602.1121	2730
604.5754	2658
607.0421	2637
609.5042	2686
611.9675	2660
614.4282	2599
616.8902	2633
619.3515	2711
621.8122	2649
624.2702	2602
626.7296	2616
629.1863	2585
631.6423	2564
634.1017	2614
636.5563	2593
639.0104	2559
641.4658	2631
643.9185	2623
646.3725	2574
648.8239	2591
651.2766	2645
653.7266	2590
656.176	2623
658.6247	2613
661.0748	2661
663.5242	2700
665.9709	2593
668.417	2665
670.8624	2684
673.3092	2728
675.7533	2669
678.1968	2641
680.6395	2681
683.0817	2709
685.5251	2666
687.9659	2682
690.4061	2748
692.8456	2676
695.2844	2662
697.7226	2764
700.1621	2715
702.599	2678
705.0332	2722
707.4688	2705
709.9036	2748
712.3399	2796
714.7735	2666
717.2044	2715
719.6367	2724
722.0683	2743
724.4993	2742
726.9296	2743
729.3593	2721
731.7883	2761
734.2147	2736
736.6423	2745
739.0714	2776
741.4958	2746
743.9216	2747
746.3447	2880
748.7691	2800
751.1929	2890
753.616	2841
756.0366	2862
758.4584	2836
760.8776	2866
763.2982	2811
765.718	2929
768.1373	2855
770.5539	2862
772.9698	2905
775.3871	2862
777.8038	2837
780.2178	2873
782.6332	2909
785.0459	2897
787.458	2828
789.8714	2870
792.2842	2895
794.6943	2968
797.1038	2901
799.5127	2840
801.9209	2877
804.3324	2931
806.7393	2878
809.1456	2973
811.5513	2911
813.9562	2941
816.3625	2944
818.7663	2887
821.1693	2948
823.5718	2966
825.9735	2925
828.3746	2926
830.7771	2969
833.177	2939
835.5762	2927
837.9747	2909
840.3727	2915
842.772	2976
845.1666	3092
847.5626	3044
849.958	3047
852.3527	3065
854.7488	3052
857.1403	3029
859.5331	3055
861.9253	3047
864.3168	3072
866.7057	2984
869.098	3039
871.4876	3018
873.8746	3027
876.263	3046
878.6487	3031
881.0378	3001
883.4243	3049
885.8081	2980
888.1933	3090
890.5759	2990
892.9598	2986
895.343	2990
897.7256	3024
900.1057	3106
902.4871	2987
904.8659	3028
907.246	3023
909.6254	3059
912.0023	3103
914.3786	3173
916.7562	3138
919.1331	3217
921.5074	3257
923.8831	3186
926.2562	3308
928.6287	3186
931.0005	3288
933.3757	3276
935.7462	3293
938.1162	3355
940.4855	3403
942.8542	3489
945.2242	3569
947.5916	3592
949.9584	3666
952.3266	3839
954.6921	4203
957.0571	4431
959.4233	4551
961.787	4692
964.15	4670
966.5125	4471
968.8742	4136
971.2354	3904
973.5959	3764
975.9559	3481
978.3151	3402
980.6738	3291
983.0338	3249
985.3912	3213
987.7461	3205
990.1022	3177
992.4578	3109
994.8127	3140
997.1689	3166
999.5207	3194
1001.874	3210
1004.226	3256
1006.576	3210
1008.929	3203
1011.28	3210
1013.628	3218
1015.977	3183
1018.324	3089
1020.674	3130
1023.019	3204
1025.366	3275
1027.713	3141
1030.056	3209
1032.399	3209
1034.746	3243
1037.087	3251
1039.431	3249
1041.771	3222
1044.113	3308
1046.454	3288
1048.793	3214
1051.133	3229
1053.471	3268
1055.807	3347
1058.146	3344
1060.483	3326
1062.818	3274
1065.153	3393
1067.489	3402
1069.822	3346
1072.156	3395
1074.488	3344
1076.82	3403
1079.15	3362
1081.48	3270
1083.814	3334
1086.143	3308
1088.471	3173
1090.799	3262
1093.126	3312
1095.452	3253
1097.78	3198
1100.105	3252
1102.43	3233
1104.754	3255
1107.077	3242
1109.4	3222
1111.722	3232
1114.044	3195
1116.365	3198
1118.685	3137
1121.005	3192
1123.324	3180
1125.643	3204
1127.961	3212
1130.278	3234
1132.595	3163
1134.911	3256
1137.226	3166
1139.541	3160
1141.854	3124
1144.167	3193
1146.482	3109
1148.793	3093
1151.105	3116
1153.414	3153
1155.725	3193
1158.033	3179
1160.344	3186
1162.651	3183
1164.959	3255
1167.265	3230
1169.572	3218
1171.878	3261
1174.184	3176
1176.488	3288
1178.79	3202
1181.094	3190
1183.396	3217
1185.699	3237
1188.001	3211
1190.301	3136
1192.6	3228
1194.9	3277
1197.2	3149
1199.497	3226
1201.794	3180
1204.09	3196
1206.387	3189
1208.684	3265
1210.978	3282
1213.272	3255
1215.565	3177
1217.858	3280
1220.15	3297
1222.443	3189
1224.734	3302
1227.024	3312
1229.313	3204
1231.602	3303
1233.892	3302
1236.18	3321
1238.467	3395
1240.754	3403
1243.04	3372
1245.325	3365
1247.612	3389
1249.896	3439
1252.178	3386
1254.461	3408
1256.743	3418
1259.027	3403
1261.308	3362
1263.587	3418
1265.867	3430
1268.146	3435
1270.425	3508
1272.703	3431
1274.981	3499
1277.256	3407
1279.532	3441
1281.808	3318
1284.083	3422
1286.358	3395
1288.63	3391
1290.904	3310
1293.175	3337
1295.449	3334
1297.719	3310
1299.99	3303
1302.259	3281
1304.529	3346
1306.798	3319
1309.065	3285
1311.333	3392
1313.599	3265
1315.866	3301
1318.131	3359
1320.396	3318
1322.66	3314
1324.925	3319
1327.187	3323
1329.448	3336
1331.711	3366
1333.974	3420
1336.234	3311
1338.493	3369
1340.752	3372
1343.01	3357
1345.269	3272
1347.526	3302
1349.784	3276
1352.04	3374
1354.295	3247
1356.552	3396
1358.806	3288
1361.059	3273
1363.312	3293
1365.564	3304
1367.818	3264
1370.069	3228
1372.318	3426
1374.568	3280
1376.817	3358
1379.066	3356
1381.316	3384
1383.564	3386
1385.809	3353
1388.056	3428
1390.301	3376
1392.549	3477
1394.793	3465
1397.036	3415
1399.279	3479
1401.522	3455
1403.763	3441
1406.007	3488
1408.248	3525
1410.487	3466
1412.727	3479
1414.965	3516
1417.205	3504
1419.442	3461
1421.68	3429
1423.915	3456
1426.152	3465
1428.388	3479
1430.623	3499
1432.857	3478
1435.091	3592
1437.323	3509
1439.556	3568
1441.789	3521
1444.019	3543
1446.25	3543
1448.48	3589
1450.708	3684
1452.938	3566
1455.167	3658
1457.394	3658
1459.62	3637
1461.846	3629
1464.073	3613
1466.299	3629
1468.523	3475
1470.746	3535
1472.969	3480
1475.191	3534
1477.415	3400
1479.636	3427
1481.858	3445
1484.078	3401
1486.298	3285
1488.518	3357
1490.736	3269
1492.954	3307
1495.169	3298
1497.386	3286
1499.602	3315
1501.819	3298
1504.034	3228
1506.248	3315
1508.462	3342
1510.675	3289
1512.888	3296
1515.1	3303
1517.311	3277
1519.522	3336
1521.732	3260
1523.942	3299
1526.151	3276
1528.36	3285
1530.566	3250
1532.773	3285
1534.98	3399
1537.187	3319
1539.392	3326
1541.596	3313
1543.801	3279
1546.005	3299
1548.208	3443
1550.411	3410
1552.612	3413
1554.814	3443
1557.013	3324
1559.212	3396
1561.414	3429
1563.612	3369
1565.811	3362
1568.007	3493
1570.203	3431
1572.403	3351
1574.598	3423
1576.792	3439
1578.988	3358
1581.181	3467
1583.376	3355
1585.568	3443
1587.761	3376
1589.952	3378
1592.143	3472
1594.333	3432
1596.524	3457
1598.715	3439
1600.903	3447
1603.091	3333
1605.278	3481
1607.466	3507
1609.652	3446
1611.838	3455
1614.023	3495
1616.207	3443
1618.391	3490
1620.576	3451
1622.759	3503
1624.941	3564
1627.123	3471
1629.304	3520
1631.484	3518
1633.664	3619
1635.844	3487
1638.022	3542
1640.201	3587
1642.38	3579
1644.556	3567
1646.732	3558
1648.908	3598
1651.084	3606
1653.257	3532
1655.433	3579
1657.607	3596
1659.779	3622
1661.951	3662
1664.122	3712
1666.295	3590
1668.467	3681
1670.635	3678
1672.805	3611
1674.973	3555
1677.142	3602
1679.31	3656
1681.478	3612
1683.644	3589
1685.81	3627
1687.975	3593
1690.142	3553
1692.305	3523
1694.468	3566
1696.632	3496
1698.794	3518
1700.957	3456
1703.119	3424
1705.279	3535
1707.439	3470
1709.598	3554
1711.758	3419
1713.917	3384
1716.075	3444
1718.231	3373
1720.388	3402
1722.543	3440
1724.702	3445
1726.856	3425
1729.01	3391
1731.164	3433
1733.317	3405
1735.471	3416
1737.623	3378
1739.774	3424
1741.925	3391
1744.075	3389
1746.225	3366
1748.376	3461
1750.524	3434
1752.672	3418
1754.82	3440
1756.965	3484
1759.113	3495
1761.259	3451
1763.405	3364
1765.549	3404
1767.694	3421
1769.836	3488
1771.981	3416
1774.123	3421
1776.264	3489
1778.405	3522
1780.546	3373
1782.687	3438
1784.827	3477
1786.966	3386
1789.103	3428
1791.242	3405
1793.381	3487
1795.517	3504
1797.653	3391
1799.788	3446
1801.923	3434
1804.057	3462
1806.193	3353
1808.326	3402
1810.457	3458
1812.59	3432
1814.721	3467
1816.855	3427
1818.984	3529
1821.113	3439
1823.244	3419
1825.372	3465
1827.499	3368
1829.63	3492
1831.756	3476
1833.882	3472
1836.007	3364
1838.132	3438
1840.26	3461
1842.384	3461
1844.507	3377
1846.63	3462
1848.752	3430
1850.875	3450
1852.996	3446
1855.118	3444
1857.238	3545
1859.358	3392
1861.477	3452
1863.597	3427
1865.715	3357
1867.832	3469
1869.948	3468
1872.064	3388
1874.181	3468
1876.297	3388
1878.411	3464
1880.526	3499
1882.639	3455
1884.752	3380
1886.865	3432
1888.977	3474
1891.089	3460
1893.2	3449
1895.308	3429
1897.42	3510
1899.53	3415
1901.639	3423
1903.745	3456
1905.853	3530
1907.962	3376
1910.067	3413
1912.174	3419
1914.278	3476
1916.383	3550
1918.486	3486
1920.592	3483
1922.694	3528
1924.797	3501
1926.898	3500
1929	3529
1931.102	3411
1933.203	3445
1935.301	3473
1937.401	3525
1939.499	3524
1941.598	3530
1943.697	3534
1945.793	3466
1947.888	3513
1949.985	3506
1952.08	3402
1954.176	3516
1956.269	3558
1958.364	3478
1960.457	3546
1962.549	3485
1964.642	3526
1966.733	3433
1968.823	3475
1970.913	3485
1973.005	3517
1975.093	3466
1977.184	3436
1979.271	3523
1981.359	3564
1983.446	3467
1985.532	3569
1987.619	3514
1989.705	3506
1991.789	3410
1993.874	3471
1995.956	3538
1998.041	3511
2000.123	3403
2002.206	3424
2004.287	3514
2006.368	3480
2008.449	3415
2010.529	3469
2012.609	3427
2014.688	3503
2016.766	3409
2018.843	3436
2020.922	3516
2022.999	3455
2025.074	3443
2027.15	3446
2029.225	3504
2031.299	3463
2033.375	3394
2035.447	3536
2037.52	3454
2039.592	3445
2041.664	3443
2043.736	3446
2045.807	3453
2047.876	3519
2049.947	3479
2052.015	3491
2054.086	3494
2056.153	3512
2058.221	3522
2060.288	3453
2062.353	3510
2064.42	3404
2066.486	3446
2068.55	3462
2070.614	3450
2072.678	3513
2074.741	3492
2076.805	3519
2078.866	3496
2080.929	3495
2082.99	3576
2085.049	3422
2087.109	3478
2089.17	3459
2091.228	3609
2093.286	3451
2095.344	3516
2097.4	3453
2099.46	3536
2101.516	3481
2103.572	3530
2105.626	3511
2107.679	3449
2109.735	3479
2111.788	3540
2113.841	3440
2115.894	3532
2117.945	3494
2119.997	3544
2122.049	3470
2124.1	3496
2126.148	3573
2128.197	3501
2130.246	3503
2132.296	3446
2134.342	3431
2136.39	3470
2138.437	3486
2140.483	3500
2142.527	3478
2144.574	3462
2146.619	3475
2148.661	3458
2150.705	3452
2152.747	3451
2154.792	3479
2156.832	3450
2158.874	3441
2160.915	3447
2162.954	3494
2164.995	3424
2167.034	3442
2169.072	3501
2171.111	3450
2173.148	3514
2175.186	3477
2177.223	3452
2179.258	3467
2181.294	3443
2183.328	3484
2185.362	3539
2187.398	3452
2189.431	3443
2191.463	3452
2193.495	3495
2195.528	3390
2197.56	3477
2199.59	3398
2201.62	3382
2203.649	3361
2205.678	3394
2207.708	3490
2209.737	3457
2211.764	3400
2213.791	3368
2215.817	3408
2217.843	3386
2219.87	3451
2221.895	3430
2223.919	3455
2225.942	3466
2227.966	3393
2229.988	3381
2232.012	3394
2234.032	3453
2236.054	3433
2238.074	3440
2240.095	3393
2242.116	3443
2244.135	3432
2246.153	3402
2248.171	3488
2250.188	3392
2252.208	3465
2254.223	3438
2256.239	3481
2258.255	3394
2260.269	3411
2262.283	3452
2264.3	3438
2266.312	3357
2268.325	3394
2270.336	3493
2272.349	3470
2274.362	3419
2276.372	3412
2278.383	3467
2280.392	3402
2282.402	3447
2284.409	3356
2286.418	3373
2288.427	3383
2290.433	3535
2292.441	3425
2294.446	3494
2296.453	3426
2298.459	3380
2300.463	3432
2302.466	3430
2304.471	3480
2306.475	3445
2308.477	3324
2310.478	3464
2312.481	3454
2314.481	3465
2316.481	3445
2318.482	3482
2320.482	3436
2322.48	3396
2324.48	3415
2326.478	3438
2328.476	3453
2330.473	3493
2332.469	3396
2334.465	3447
2336.46	3415
2338.454	3450
2340.45	3337
2342.444	3419
2344.437	3369
2346.43	3383
2348.421	3462
2350.414	3380
2352.405	3403
2354.396	3330
2356.386	3322
2358.376	3429
2360.366	3358
2362.355	3307
2364.343	3463
2366.331	3384
2368.317	3397
2370.304	3391
2372.292	3316
2374.278	3378
2376.262	3448
2378.247	3365
2380.23	3310
2382.216	3360
2384.199	3303
2386.181	3319
2388.163	3351
2390.144	3351
2392.127	3274
2394.107	3334
2396.087	3338
2398.066	3397
2400.046	3374
2402.023	3338
2404.004	3386
2405.981	3318
2407.957	3319
2409.934	3296
2411.91	3314
2413.886	3311
2415.862	3314
2417.836	3380
2419.809	3338
2421.784	3361
2423.756	3377
2425.73	3312
2427.701	3288
2429.672	3374
2431.644	3328
2433.615	3399
2435.586	3360
2437.555	3336
2439.523	3352
2441.491	3319
2443.459	3364
2445.428	3352
2447.395	3368
2449.361	3362
2451.327	3401
2453.292	3401
2455.257	3247
2457.223	3314
2459.187	3386
2461.15	3296
2463.113	3267
2465.076	3373
2467.039	3359
2468.999	3431
2470.96	3353
2472.921	3358
2474.881	3301
2476.841	3303
2478.8	3346
2480.759	3354
2482.717	3223
2484.675	3336
2486.63	3352
2488.589	3316
2490.545	3382
2492.5	3377
2494.455	3351
2496.408	3281
2498.364	3330
2500.318	3352
2502.27	3338
2504.223	3268
2506.174	3299
2508.126	3277
2510.078	3254
2512.03	3284
2513.979	3322
2515.927	3276
2517.877	3306
2519.826	3307
2521.775	3294
2523.722	3309
2525.668	3300
2527.616	3313
2529.561	3317
2531.508	3329
2533.452	3244
2535.398	3273
2537.342	3277
2539.284	3277
2541.229	3294
2543.173	3266
2545.114	3275
2547.055	3309
2548.996	3315
2550.938	3317
2552.878	3312
2554.817	3409
2556.756	3362
2558.695	3313
2560.633	3278
2562.572	3339
2564.509	3343
2566.445	3303
2568.382	3324
2570.317	3349
2572.254	3313
2574.189	3275
2576.123	3301
2578.057	3284
2579.99	3268
2581.923	3288
2583.855	3365
2585.788	3275
2587.719	3366
2589.65	3245
2591.579	3294
2593.511	3323
2595.44	3325
2597.37	3293
2599.297	3271
2601.225	3353
2603.153	3337
2605.08	3271
2607.007	3302
2608.932	3266
2610.858	3337
2612.782	3334
2614.709	3298
2616.632	3321
2618.556	3366
2620.478	3357
2622.401	3295
2624.324	3426
2626.247	3314
2628.167	3292
2630.088	3288
2632.008	3347
2633.928	3334
2635.848	3340
2637.766	3357
2639.684	3369
2641.603	3421
2643.519	3342
2645.437	3425
2647.353	3321
2649.27	3265
2651.184	3274
2653.099	3406
2655.014	3276
2656.928	3320
2658.842	3331
2660.755	3348
2662.667	3360
2664.579	3370
2666.491	3395
2668.402	3343
2670.312	3324
2672.222	3302
2674.132	3331
2676.042	3321
2677.951	3332
2679.859	3305
2681.766	3351
2683.674	3328
2685.582	3247
2687.488	3198
2689.392	3264
2691.298	3318
2693.202	3299
2695.107	3275
2697.012	3284
2698.914	3265
2700.817	3287
2702.72	3354
2704.622	3234
2706.524	3336
2708.425	3275
2710.326	3276
2712.225	3286
2714.125	3303
2716.024	3294
2717.923	3322
2719.822	3367
2721.719	3285
2723.616	3274
2725.512	3228
2727.41	3340
2729.305	3277
2731.201	3309
2733.095	3401
2734.99	3326
2736.884	3310
2738.778	3305
2740.67	3366
2742.562	3250
2744.455	3322
2746.346	3290
2748.238	3338
2750.129	3313
2752.018	3289
2753.907	3300
2755.797	3297
2757.687	3321
2759.575	3323
2761.462	3342
2763.349	3259
2765.237	3270
2767.124	3300
2769.009	3353
2770.894	3407
2772.779	3262
2774.663	3263
2776.547	3341
2778.431	3219
2780.314	3285
2782.197	3279
2784.078	3286
2785.96	3302
2787.842	3261
2789.723	3275
2791.603	3327
2793.483	3292
2795.362	3303
2797.241	3271
2799.121	3250
2800.997	3213
2802.874	3354
2804.751	3227
2806.628	3316
2808.506	3279
2810.38	3249
2812.255	3300
2814.13	3313
2816.003	3319
2817.878	3297
2819.752	3284
2821.623	3344
2823.496	3314
2825.368	3298
2827.238	3230
2829.111	3308
2830.98	3308
2832.851	3409
2834.719	3302
2836.589	3308
2838.458	3403
2840.327	3303
2842.193	3374
2844.061	3284
2845.927	3359
2847.794	3322
2849.66	3346
2851.525	3374
2853.39	3320
2855.254	3364
2857.117	3420
2858.983	3390
2860.845	3438
2862.707	3500
2864.569	3570
2866.431	3439
2868.293	3517
2870.154	3588
2872.013	3726
2873.873	3746
2875.733	3657
2877.592	3785
2879.451	3803
2881.309	3865
2883.166	3859
2885.022	3877
2886.879	4029
2888.736	3915
2890.591	3919
2892.446	3923
2894.301	3951
2896.155	3936
2898.009	3845
2899.863	3866
2901.716	3874
2903.568	3932
2905.419	3833
2907.27	3988
2909.123	3973
2910.973	3892
2912.824	3987
2914.673	3987
2916.521	3992
2918.372	4166
2920.22	4233
2922.067	4301
2923.914	4276
2925.761	4371
2927.607	4295
2929.455	4379
2931.301	4511
2933.144	4591
2934.99	4491
2936.833	4595
2938.678	4697
2940.522	4725
2942.364	4897
2944.207	4895
2946.048	4857
2947.891	4940
2949.731	4944
2951.571	4892
2953.412	4855
2955.25	4800
2957.09	4651
2958.93	4656
2960.767	4584
2962.606	4639
2964.443	4485
2966.279	4455
2968.116	4383
2969.953	4317
2971.788	4278
2973.623	4332
2975.457	4153
2977.292	4178
2979.127	4131
2980.959	4066
2982.792	4168
2984.624	4067
2986.455	4161
2988.288	4068
2990.119	4051
2991.949	3935
2993.779	3950
2995.608	3839
2997.439	3941
2999.268	3818
3001.096	3679
3002.923	3706
3004.751	3656
3006.578	3586
3008.406	3585
3010.232	3601
3012.057	3554
3013.883	3572
3015.706	3508
3017.532	3352
3019.356	3419
3021.179	3383
3023.002	3411
3024.823	3308
3026.646	3369
3028.469	3342
3030.289	3334
3032.11	3364
3033.93	3315
3035.749	3230
3037.57	3267
3039.39	3299
3041.207	3236
3043.026	3199
3044.842	3250
3046.661	3193
3048.477	3253
3050.294	3270
3052.109	3194
3053.925	3203
3055.739	3176
3057.555	3240
3059.368	3238
3061.181	3249
3062.995	3256
3064.807	3242
3066.62	3298
3068.433	3235
3070.243	3189
3072.054	3265
3073.865	3257
3075.675	3244
3077.485	3236
3079.293	3236
3081.102	3207
3082.911	3170
3084.719	3202
3086.527	3173
3088.333	3210
3090.139	3212
3091.945	3136
3093.75	3113
3095.557	3129
3097.361	3110
3099.165	3230
3100.969	3175
3102.772	3165
3104.575	3194
3106.379	3152
3108.181	3123
3109.982	3023
3111.783	3152
3113.584	3148
3115.386	3095
3117.186	3153
3118.985	3145
3120.783	3082
3122.582	3122
3124.381	3121
3126.179	3135
3127.975	3059
3129.772	3087
3131.569	3082
3133.365	3068
3135.161	3133
3136.956	3105
3138.751	3051
3140.544	2990
3142.338	3057
3144.132	3072
3145.925	3083
3147.717	3059
3149.509	3040
3151.301	3054
3153.091	3015
3154.884	3112
3156.673	3092
3158.462	3073
3160.252	3077
3162.041	3042
3163.831	3071
3165.618	3136
3167.405	3100
3169.193	3082
3170.979	3080
3172.767	3129
3174.553	3051
3176.338	2999
3178.123	3052
3179.907	3087
3181.692	3094
3183.477	3101
3185.259	3099
3187.042	3090
3188.824	3048
3190.607	3124
3192.389	3059
3194.17	3096
3195.951	3071
3197.73	3001
3199.51	3063
3201.289	3049
3203.07	3042
3204.848	3048
3206.626	3107
3208.403	3079
3210.18	3125
3211.959	3061
3213.735	3070
3215.511	3166
3217.285	3082
3219.06	3060
3220.836	3093
3222.611	3094
3224.384	2983
3226.158	3147
3227.929	2999
3229.702	3151
3231.476	3058
3233.248	3188
3235.018	3052
3236.789	3081
3238.56	3017
3240.33	3089
3242.1	3117
3243.869	3099
3245.637	3076
3247.405	3102
3249.172	3142
3250.941	3118
3252.707	3103
3254.474	3068
3256.24	3063
3258.006	3102
3259.772	3189
3261.537	3188
3263.301	3124
3265.065	3160
3266.828	3136
3268.592	3089
3270.355	3110
3272.117	3084
3273.878	3130
3275.64	3118
3277.401	3215
3279.162	3148
3280.922	3078
3282.682	3155
3284.441	3180
3286.199	3107
3287.959	3164
3289.716	3154
3291.475	3093
3293.232	3215
3294.988	3142
3296.744	3143
3298.501	3169
3300.256	3117
3302.011	3169
3303.766	3155
3305.52	3177
3307.275	3126
3309.028	3159
3310.781	3129
3312.533	3179
3314.285	3146
3316.038	3184
3317.789	3125
3319.54	3061
3321.289	3175
3323.039	3167
3324.789	3144
3326.539	3208
3328.288	3123
3330.035	3218
3331.783	3172
3333.531	3190
3335.28	3195
3337.025	3117
3338.771	3166
3340.518	3179
3342.262	3131
3344.009	3144
3345.753	3101
3347.497	3104
3349.24	3093
3350.983	3116
3352.726	3085
3354.469	3081
3356.212	3106
3357.952	3133
3359.694	3096
3361.434	3134
3363.176	3071
3364.916	3150
3366.654	3114
3368.394	3013
3370.132	3092
3371.871	3054
3373.61	3116
3375.346	3133
3377.083	3087
3378.82	3023
3380.556	3073
3382.292	3025
3384.027	3023
3385.763	3017
3387.497	3015
3389.231	3064
3390.965	3021
3392.698	3007
3394.431	3044
3396.164	2989
3397.896	3025
3399.627	2986
3401.36	2976
3403.09	2971
3404.82	2992
3406.55	2999
3408.279	3031
3410.01	3025
3411.738	3005
3413.467	2972
3415.194	2989
3416.92	2968
3418.647	3050
3420.375	2981
3422.102	2999
3423.827	2951
3425.553	3036
3427.277	2966
3429.003	3024
3430.727	2966
3432.451	2987
3434.173	2995
3435.896	2992
3437.62	2987
3439.343	2978
3441.063	3023
3442.785	3045
3444.505	2982
3446.226	2930
3447.948	2967
3449.666	2903
3451.386	2876
3453.104	2891
3454.823	2883
3456.541	2930
3458.259	2913
3459.976	2918
3461.693	2933
3463.408	2916
3465.125	2871
3466.841	2939
3468.556	2910
3470.271	2861
3471.985	2860
3473.698	2877
3475.414	2872
3477.126	2872
3478.838	2805
3480.55	2816
3482.263	2821
3483.975	2888
3485.686	2928
3487.396	2802
3489.106	2777
3490.817	2840
3492.526	2759
3494.236	2828
3495.944	2763
3497.652	2786
3499.359	2731
3501.066	2779
3502.775	2800
3504.481	2791
3506.187	2869
3507.893	2865
3509.598	2767
3511.304	2935
3513.009	2726
3514.713	2779
3516.417	2817
3518.12	2846
3519.821	2741
3521.525	2736
3523.228	2733
3524.929	2694
3526.631	2740
3528.33	2748
3530.032	2704
3531.733	2715
3533.433	2808
3535.131	2696
3536.83	2729
3538.529	2666
3540.227	2680
3541.925	2621
3543.623	2746
3545.319	2740
3547.016	2728
3548.712	2667
3550.408	2665
3552.103	2686
3553.798	2687
3555.491	2681
3557.188	2728
3558.88	2720
3560.574	2627
3562.266	2627
3563.959	2607
3565.651	2612
3567.343	2708
3569.035	2705
3570.725	2629
3572.415	2611
3574.106	2640
3575.797	2690
3577.485	2648
3579.174	2640
3580.863	2624
3582.551	2598
3584.238	2603
3585.926	2641
3587.613	2655
3589.3	2636
3590.986	2553
3592.671	2594
3594.357	2572
3596.042	2597
3597.726	2594
3599.41	2572
3601.094	2559
3602.778	2530
3604.461	2539
3606.143	2520
3607.825	2477
3609.507	2566
3611.188	2612
3612.87	2537
3614.551	2518
3616.229	2606
3617.909	2558
3619.589	2446
3621.269	2553
3622.948	2546
3624.625	2511
3626.302	2527
3627.98	2429
3629.657	2451
3631.334	2512
3633.01	2510
3634.686	2478
3636.361	2465
3638.036	2507
3639.712	2568
3641.385	2505
3643.06	2441
3644.732	2452
3646.405	2367
3648.08	2474
3649.751	2457
3651.424	2428
3653.094	2463
3654.766	2436
3656.436	2451
3658.106	2386
3659.777	2452
3661.446	2419
3663.115	2420
3664.783	2388
3666.452	2461
3668.121	2385
3669.788	2374
3671.454	2422
3673.121	2412
3674.789	2374
3676.455	2384
3678.12	2392
3679.784	2450
3681.45	2344
3683.114	2428
3684.779	2367
3686.442	2397
3688.105	2331
3689.768	2380
3691.43	2348
3693.093	2359
3694.754	2399
3696.415	2362
3698.076	2387
3699.736	2380
3701.396	2344
3703.057	2345
3704.716	2340
3706.375	2436
3708.034	2340
3709.692	2325
3711.351	2370
3713.008	2341
3714.665	2361
3716.321	2349
3717.977	2313
3719.634	2323
3721.29	2296
3722.945	2319
3724.598	2367
3726.253	2366
3727.907	2364
3729.561	2358
3731.214	2308
3732.867	2343
3734.518	2322
3736.171	2294
3737.824	2351
3739.474	2393
3741.125	2349
3742.775	2346
3744.425	2283
3746.074	2346
3747.725	2291
3749.373	2298
3751.022	2251
3752.669	2302
3754.318	2309
3755.966	2284
3757.612	2334
3759.259	2293
3760.905	2377
3762.55	2304
3764.197	2283
3765.842	2287
3767.486	2360
3769.131	2292
3770.774	2301
3772.417	2265
3774.061	2298
3775.705	2272
3777.347	2275
3778.988	2293
3780.629	2272
3782.271	2262
3783.912	2276
3785.552	2304
3787.192	2343
3788.831	2238
3790.472	2234
3792.112	2300
3793.75	2267
3795.388	2231
3797.024	2278
3798.661	2331
3800.3	2254
3801.936	2266
3803.572	2198
3805.208	2186
3806.844	2200
3808.48	2228
3810.115	2246
3811.748	2201
3813.382	2280
3815.016	2224
3816.649	2219
3818.283	2296
3819.914	2259
3821.547	2216
3823.178	2226
3824.809	2239
3826.441	2203
3828.072	2248
3829.701	2230
3831.331	2260
3832.96	2217
3834.591	2201
3836.219	2212
3837.847	2142
3839.475	2203
3841.102	2271
3842.729	2185
3844.357	2256
3845.984	2201
3847.609	2196
3849.234	2230
3850.86	2179
3852.485	2210
3854.11	2191
3855.734	2165
3857.357	2191
3858.981	2255
3860.603	2173
3862.227	2194
3863.848	2196
3865.471	2203
3867.092	2170
3868.713	2172
3870.334	2158
3871.954	2225
3873.575	2197
3875.194	2200
3876.813	2202
3878.433	2179
3880.051	2136
3881.669	2211
3883.286	2171
3884.904	2166
3886.52	2187
3888.138	2179
3889.754	2132
3891.37	2119
3892.985	2190
3894.6	2199
3896.216	2141
3897.831	2176
3899.444	2142
3901.058	2189
3902.67	2139
3904.283	2190
3905.897	2144
3907.509	2163
3909.121	2188
3910.731	2153
3912.342	2174
3913.954	2137
3915.563	2182
3917.174	2108
3918.783	2121
3920.391	2166
3922.002	2160
3923.611	2147
3925.218	2192
3926.826	2145
3928.432	2213
3930.039	2107
3931.647	2090
3933.253	2135
3934.859	2120
3936.464	2160
3938.068	2167
3939.675	2151
3941.278	2153
3942.883	2107
3944.486	2120
3946.089	2134
3947.692	2122
3949.295	2126
3950.898	2094
3952.499	2168
3954.1	2153
3955.7	2102
3957.303	2102
3958.903	2139
3960.502	2118
3962.101	2100
3963.7	2094
3965.301	2102
3966.899	2095
3968.497	2084
3970.094	2094
3971.691	2080
3973.288	2139
3974.885	2112
3976.481	2066
3978.077	2072
3979.672	2139
3981.267	2114
3982.863	2099
3984.457	2065
3986.051	2063
3987.645	2039
3989.238	2142
3990.831	2095
3992.425	2040
3994.017	2104
3995.607	2089
3997.199	2101
3998.79	2069
4000.382	2082
4001.973	2101
4003.561	2075
4005.151	2088
4006.741	2089
4008.331	2053
4009.918	2066
4011.507	2019
4013.095	2068
4014.681	2070
4016.269	2068
4017.856	2013
4019.443	2033
4021.028	2055
4022.614	2022
4024.199	2056
4025.785	2005
4027.37	1979
4028.953	2012
4030.536	1999
4032.12	2018
4033.704	2078
4035.287	2056
4036.869	1971
4038.45	1959
4040.032	2041
4041.613	1986
4043.195	1995
4044.776	2020
4046.356	2033
4047.935	1974
4049.515	1972
4051.095	1962
4052.674	1950
4054.251	1990
4055.829	1977
4057.406	2011
4058.985	1990
4060.562	1980
4062.139	1988
4063.715	2049
4065.29	1943
4066.865	1984
4068.442	1985
4070.016	1971
4071.59	1962
4073.164	1934
4074.738	1945
4076.312	2007
4077.885	1949
4079.458	1936
4081.03	2009
4082.602	1940
4084.173	1973
4085.745	1951
4087.315	1933
4088.886	1898
4090.456	1956
4092.026	1960
4093.596	1952
4095.165	1943
4096.734	1996
4098.301	1937
4099.869	1940
4101.437	1926
4103.006	1945
4104.572	2032
4106.139	1974
4107.704	2035
4109.27	2015
4110.837	1971
4112.401	1962
4113.966	1978
4115.53	1882
4117.094	1937
4118.659	1953
4120.223	1913
4121.785	1930
4123.347	1927
4124.909	1986
4126.471	1910
4128.034	1937
4129.595	1913
4131.155	1900
4132.716	1904
4134.275	1894
4135.836	1880
4137.395	1875
4138.955	1912
4140.513	1871
4142.071	1880
4143.628	1913
4145.188	1902
4146.745	1938
4148.302	1909
4149.858	1892
4151.414	1872
4152.971	1842
4154.526	1873
4156.081	1872
4157.635	1833
4159.189	1863
4160.745	1900
4162.298	1859
4163.852	1873
4165.405	1898
4166.957	1859
4168.51	1821
4170.063	1922
4171.614	1853
4173.166	1886
4174.717	1834
4176.267	1869
4177.817	1862
4179.368	1850
4180.917	1882
4182.466	1839
4184.016	1897
4185.564	1901
4187.112	1869
4188.66	1777
4190.207	1860
4191.754	1843
4193.301	1807
4194.848	1841
4196.394	1804
4197.94	1840
4199.484	1832
4201.03	1837
4202.575	1864
4204.12	1804
4205.663	1834
4207.207	1884
4208.75	1864
4210.292	1838
4211.836	1855
4213.378	1813
4214.92	1852
4216.46	1859
4218.002	1838
4219.544	1810
4221.083	1840
4222.625	1813
4224.164	1808
4225.703	1846
4227.244	1794
4228.782	1774
4230.32	1858
4231.857	1844
4233.395	1850
4234.933	1811
4236.471	1798
4238.007	1798
4239.542	1821
4241.078	1837
4242.614	1770
4244.15	1830
4245.685	1755
4247.219	1790
4248.753	1787
4250.287	1824
4251.82	1802
4253.354	1798
4254.887	1840
4256.419	1760
4257.951	1801
4259.483	1805
4261.016	1806
4262.547	1770
4264.078	1774
4265.608	1803
4267.137	1802
4268.668	1832
4270.197	1768
4271.727	1777
4273.254	1771
4274.783	1775
4276.311	1757
4277.84	1799
4279.366	1780
4280.894	1745
4282.42	1762
4283.946	1764
4285.473	1760
4286.998	1786
4288.523	1764
4290.047	1762
4291.572	1776
4293.096	1736
4294.622	1766
4296.144	1723
4297.668	1735
4299.19	1730
4300.713	1785
4302.236	1786
4303.758	1715
4305.279	1752
4306.799	1703
4308.321	1761
4309.842	1712
4311.361	1687
4312.882	1727
4314.401	1723
