400.0961	2409
402.6185	2375
405.1424	2420
407.6635	2371
410.1838	2426
412.7035	2472
415.2225	2370
417.7388	2424
420.2585	2446
422.7754	2431
425.2917	2487
427.8072	2542
430.3221	2559
432.8363	2517
435.3498	2566
437.8626	2500
440.3727	2510
442.8841	2538
445.3969	2527
447.907	2566
450.4142	2581
452.9229	2545
455.4289	2472
457.9362	2528
460.4449	2482
462.9488	2514
465.454	2512
467.9566	2463
470.4604	2527
472.9637	2528
475.4662	2516
477.966	2515
480.4671	2513
482.9656	2535
485.4633	2511
487.9645	2566
490.4608	2513
492.9566	2552
495.4536	2567
497.948	2576
500.4437	2562
502.9387	2607
505.431	2554
507.9226	2571
510.4136	2559
512.9079	2583
515.3975	2566
517.8864	2609
520.3746	2596
522.8622	2600
525.3491	2587
527.8394	2627
530.3249	2656
532.8098	2614
535.2939	2572
537.7774	2562
540.2623	2618
542.7444	2631
545.2259	2640
547.7067	2622
550.1868	2600
552.6683	2626
555.147	2586
557.6231	2653
560.1005	2585
562.5773	2540
565.0534	2687
567.5308	2647
570.0056	2786
572.4776	2671
574.951	2685
577.4237	2727
579.8978	2734
582.3671	2675
584.8378	2665
587.3079	2667
589.7773	2710
592.244	2659
594.714	2726
597.1793	2770
599.6461	2643
602.1121	2716
604.5754	2735
607.0421	2756
609.5042	2654
611.9675	2697
614.4282	2696
616.8902	2693
619.3515	2710
621.8122	2702
624.2702	2646
626.7296	2716
629.1863	2698
631.6423	2666
634.1017	2622
636.5563	2698
639.0104	2626
641.4658	2708
643.9185	2682
646.3725	2662
648.8239	2727
651.2766	2675
653.7266	2738
656.176	2698
658.6247	2754
661.0748	2718
663.5242	2725
665.9709	2753
668.417	2767
670.8624	2691
673.3092	2777
675.7533	2738
678.1968	2746
680.6395	2768
683.0817	2749
685.5251	2798
687.9659	2725
690.4061	2768
692.8456	2787
695.2844	2711
697.7226	2754
700.1621	2829
702.599	2820
705.0332	2773
707.4688	2772
709.9036	2820
712.3399	2778
714.7735	2751
717.2044	2816
719.6367	2903
722.0683	2797
724.4993	2841
726.9296	2869
729.3593	2888
731.7883	2814
734.2147	2975
736.6423	2849
739.0714	2903
741.4958	2883
743.9216	2925
746.3447	2839
748.7691	2847
751.1929	2862
753.616	2922
756.0366	2870
758.4584	2930
760.8776	2846
763.2982	2933
765.718	2982
768.1373	2904
770.5539	2939
772.9698	2991
775.3871	2908
777.8038	2930
780.2178	2958
782.6332	3041
785.0459	2881
787.458	2980
789.8714	2920
792.2842	2951
794.6943	2978
797.1038	2921
799.5127	2916
801.9209	2952
804.3324	2982
806.7393	3017
809.1456	2992
811.5513	2968
813.9562	2980
816.3625	2992
818.7663	2995
821.1693	2969
823.5718	3044
825.9735	2984
828.3746	3001
830.7771	3030
833.177	2992
835.5762	2976
837.9747	3015
840.3727	3017
842.772	3073
845.1666	3013
847.5626	3015
849.958	3040
852.3527	3105
854.7488	3057
857.1403	3152
859.5331	3145
861.9253	3049
864.3168	3104
866.7057	3085
869.098	3069
871.4876	3104
873.8746	3076
876.263	3005
878.6487	3013
881.0378	3004
883.4243	3045
885.8081	3015
888.1933	3063
890.5759	3042
892.9598	3029
895.343	3044
897.7256	3051
900.1057	3064
902.4871	3019
904.8659	3058
907.246	3009
909.6254	3099
912.0023	3038
914.3786	3144
916.7562	3171
919.1331	3176
921.5074	3271
923.8831	3257
926.2562	3182
928.6287	3292
931.0005	3246
933.3757	3211
935.7462	3239
938.1162	3272
940.4855	3321
942.8542	3269
945.2242	3243
947.5916	3363
949.9584	3320
952.3266	3491
954.6921	3544
957.0571	3676
959.4233	3920
961.787	3870
964.15	3803
966.5125	3800
968.8742	3593
971.2354	3493
973.5959	3381
975.9559	3382
978.3151	3258
980.6738	3260
983.0338	3181
985.3912	3194
987.7461	3161
990.1022	3118
992.4578	3195
994.8127	3113
997.1689	3240
999.5207	3101
1001.874	3173
1004.226	3210
1006.576	3141
1008.929	3220
1011.28	3134
1013.628	3216
1015.977	3232
1018.324	3202
1020.674	3167
1023.019	3175
1025.366	3253
1027.713	3232
1030.056	3234
1032.399	3223
1034.746	3186
1037.087	3236
1039.431	3172
1041.771	3199
1044.113	3232
1046.454	3159
1048.793	3233
1051.133	3258
1053.471	3183
1055.807	3288
1058.146	3338
1060.483	3240
1062.818	3275
1065.153	3293
1067.489	3314
1069.822	3316
1072.156	3312
1074.488	3231
1076.82	3315
1079.15	3218
1081.48	3302
1083.814	3294
1086.143	3270
1088.471	3229
1090.799	3250
1093.126	3229
1095.452	3245
1097.78	3277
1100.105	3293
1102.43	3287
1104.754	3266
1107.077	3314
1109.4	3352
1111.722	3305
1114.044	3258
1116.365	3304
1118.685	3210
1121.005	3342
1123.324	3279
1125.643	3308
1127.961	3280
1130.278	3255
1132.595	3316
1134.911	3253
1137.226	3301
1139.541	3278
1141.854	3294
1144.167	3193
1146.482	3281
1148.793	3209
1151.105	3241
1153.414	3272
1155.725	3293
1158.033	3246
1160.344	3158
1162.651	3291
1164.959	3283
1167.265	3297
1169.572	3338
1171.878	3255
1174.184	3275
1176.488	3359
1178.79	3286
1181.094	3277
1183.396	3287
1185.699	3300
1188.001	3283
1190.301	3357
1192.6	3303
1194.9	3335
1197.2	3248
1199.497	3308
1201.794	3325
1204.09	3256
1206.387	3320
1208.684	3338
1210.978	3349
1213.272	3336
1215.565	3336
1217.858	3369
1220.15	3331
1222.443	3390
1224.734	3345
1227.024	3383
1229.313	3299
1231.602	3418
1233.892	3399
1236.18	3416
1238.467	3364
1240.754	3484
1243.04	3386
1245.325	3509
1247.612	3409
1249.896	3492
1252.178	3440
1254.461	3405
1256.743	3434
1259.027	3390
1261.308	3453
1263.587	3456
1265.867	3523
1268.146	3562
1270.425	3462
1272.703	3465
1274.981	3510
1277.256	3448
1279.532	3392
1281.808	3468
1284.083	3525
1286.358	3426
1288.63	3437
1290.904	3372
1293.175	3357
1295.449	3436
1297.719	3406
1299.99	3415
1302.259	3487
1304.529	3431
1306.798	3439
1309.065	3385
1311.333	3468
1313.599	3381
1315.866	3516
1318.131	3386
1320.396	3398
1322.66	3475
1324.925	3389
1327.187	3425
1329.448	3458
1331.711	3354
1333.974	3441
1336.234	3414
1338.493	3443
1340.752	3426
1343.01	3442
1345.269	3398
1347.526	3395
1349.784	3477
1352.04	3328
1354.295	3433
1356.552	3406
1358.806	3349
1361.059	3412
1363.312	3457
1365.564	3519
1367.818	3297
1370.069	3431
1372.318	3452
1374.568	3451
1376.817	3460
1379.066	3444
1381.316	3443
1383.564	3478
1385.809	3408
1388.056	3417
1390.301	3490
1392.549	3538
1394.793	3567
1397.036	3527
1399.279	3563
1401.522	3603
1403.763	3539
1406.007	3571
1408.248	3553
1410.487	3505
1412.727	3522
1414.965	3526
1417.205	3470
1419.442	3498
1421.68	3533
1423.915	3585
1426.152	3539
1428.388	3534
1430.623	3525
1432.857	3642
1435.091	3644
1437.323	3547
1439.556	3516
1441.789	3624
1444.019	3620
1446.25	3568
1448.48	3669
1450.708	3625
1452.938	3660
1455.167	3747
1457.394	3644
1459.62	3563
1461.846	3679
1464.073	3675
1466.299	3677
1468.523	3581
1470.746	3578
1472.969	3589
1475.191	3514
1477.415	3607
1479.636	3468
1481.858	3535
1484.078	3488
1486.298	3526
1488.518	3463
1490.736	3427
1492.954	3454
1495.169	3441
1497.386	3454
1499.602	3450
1501.819	3528
1504.034	3492
1506.248	3440
1508.462	3462
1510.675	3437
1512.888	3477
1515.1	3491
1517.311	3483
1519.522	3432
1521.732	3456
1523.942	3421
1526.151	3491
1528.36	3526
1530.566	3451
1532.773	3509
1534.98	3470
1537.187	3490
1539.392	3486
1541.596	3491
1543.801	3510
1546.005	3513
1548.208	3416
1550.411	3566
1552.612	3472
1554.814	3474
1557.013	3504
1559.212	3542
1561.414	3474
1563.612	3471
1565.811	3497
1568.007	3579
1570.203	3510
1572.403	3485
1574.598	3621
1576.792	3459
1578.988	3516
1581.181	3535
1583.376	3485
1585.568	3473
1587.761	3587
1589.952	3540
1592.143	3585
1594.333	3600
1596.524	3640
1598.715	3611
1600.903	3618
1603.091	3562
1605.278	3594
1607.466	3640
1609.652	3562
1611.838	3590
1614.023	3576
1616.207	3571
1618.391	3572
1620.576	3615
1622.759	3617
1624.941	3564
1627.123	3551
1629.304	3598
1631.484	3706
1633.664	3607
1635.844	3588
1638.022	3720
1640.201	3659
1642.38	3640
1644.556	3606
1646.732	3653
1648.908	3659
1651.084	3589
1653.257	3637
1655.433	3644
1657.607	3689
1659.779	3699
1661.951	3687
1664.122	3625
1666.295	3666
1668.467	3645
1670.635	3681
1672.805	3637
1674.973	3665
1677.142	3672
1679.31	3745
1681.478	3666
1683.644	3652
1685.81	3727
1687.975	3687
1690.142	3548
1692.305	3621
1694.468	3642
1696.632	3706
1698.794	3606
1700.957	3571
1703.119	3605
1705.279	3590
1707.439	3634
1709.598	3608
1711.758	3654
1713.917	3635
1716.075	3599
1718.231	3529
1720.388	3516
1722.543	3531
1724.702	3543
1726.856	3499
1729.01	3530
1731.164	3596
1733.317	3510
1735.471	3570
1737.623	3492
1739.774	3595
1741.925	3584
1744.075	3555
1746.225	3600
1748.376	3541
1750.524	3600
1752.672	3509
1754.82	3563
1756.965	3584
1759.113	3621
1761.259	3570
1763.405	3579
1765.549	3594
1767.694	3576
1769.836	3594
1771.981	3589
1774.123	3623
1776.264	3569
1778.405	3625
1780.546	3589
1782.687	3584
1784.827	3672
1786.966	3616
1789.103	3587
1791.242	3635
1793.381	3660
1795.517	3559
1797.653	3627
1799.788	3696
1801.923	3612
1804.057	3664
1806.193	3550
1808.326	3600
1810.457	3627
1812.59	3673
1814.721	3688
1816.855	3631
1818.984	3648
1821.113	3578
1823.244	3555
1825.372	3568
1827.499	3651
1829.63	3557
1831.756	3625
1833.882	3687
1836.007	3546
1838.132	3590
1840.26	3617
1842.384	3583
1844.507	3622
1846.63	3553
1848.752	3640
1850.875	3547
1852.996	3599
1855.118	3645
1857.238	3599
1859.358	3591
1861.477	3574
1863.597	3578
1865.715	3604
1867.832	3641
1869.948	3592
1872.064	3601
1874.181	3550
1876.297	3619
1878.411	3533
1880.526	3668
1882.639	3621
1884.752	3596
1886.865	3661
1888.977	3609
1891.089	3627
1893.2	3672
1895.308	3595
1897.42	3611
1899.53	3541
1901.639	3679
1903.745	3607
1905.853	3629
1907.962	3668
1910.067	3694
1912.174	3642
1914.278	3664
1916.383	3618
1918.486	3652
1920.592	3654
1922.694	3645
1924.797	3685
1926.898	3564
1929	3682
1931.102	3651
1933.203	3727
1935.301	3661
1937.401	3695
1939.499	3672
1941.598	3694
1943.697	3692
1945.793	3640
1947.888	3549
1949.985	3715
1952.08	3717
1954.176	3631
1956.269	3625
1958.364	3628
1960.457	3722
1962.549	3717
1964.642	3647
1966.733	3689
1968.823	3673
1970.913	3612
1973.005	3614
1975.093	3621
1977.184	3641
1979.271	3638
1981.359	3601
1983.446	3719
1985.532	3569
1987.619	3664
1989.705	3627
1991.789	3615
1993.874	3621
1995.956	3686
1998.041	3550
2000.123	3674
2002.206	3634
2004.287	3626
2006.368	3615
2008.449	3614
2010.529	3628
2012.609	3604
2014.688	3650
2016.766	3590
2018.843	3685
2020.922	3667
2022.999	3629
2025.074	3672
2027.15	3775
2029.225	3591
2031.299	3645
2033.375	3666
2035.447	3576
2037.52	3664
2039.592	3660
2041.664	3627
2043.736	3624
2045.807	3673
2047.876	3577
2049.947	3600
2052.015	3665
2054.086	3735
2056.153	3657
2058.221	3664
2060.288	3587
2062.353	3631
2064.42	3682
2066.486	3666
2068.55	3616
2070.614	3691
2072.678	3591
2074.741	3747
2076.805	3587
2078.866	3632
2080.929	3669
2082.99	3685
2085.049	3580
2087.109	3716
2089.17	3660
2091.228	3669
2093.286	3667
2095.344	3691
2097.4	3722
2099.46	3655
2101.516	3627
2103.572	3656
2105.626	3623
2107.679	3665
2109.735	3682
2111.788	3700
2113.841	3705
2115.894	3680
2117.945	3665
2119.997	3739
2122.049	3624
2124.1	3680
2126.148	3736
2128.197	3658
2130.246	3650
2132.296	3707
2134.342	3679
2136.39	3626
2138.437	3634
2140.483	3673
2142.527	3615
2144.574	3652
2146.619	3612
2148.661	3623
2150.705	3625
2152.747	3645
2154.792	3628
2156.832	3680
2158.874	3641
2160.915	3720
2162.954	3657
2164.995	3603
2167.034	3657
2169.072	3646
2171.111	3584
2173.148	3600
2175.186	3643
2177.223	3619
2179.258	3650
2181.294	3630
2183.328	3643
2185.362	3643
2187.398	3630
2189.431	3593
2191.463	3586
2193.495	3576
2195.528	3601
2197.56	3544
2199.59	3638
2201.62	3595
2203.649	3539
2205.678	3649
2207.708	3606
2209.737	3572
2211.764	3551
2213.791	3573
2215.817	3519
2217.843	3540
2219.87	3518
2221.895	3587
2223.919	3637
2225.942	3610
2227.966	3640
2229.988	3627
2232.012	3573
2234.032	3631
2236.054	3610
2238.074	3559
2240.095	3544
2242.116	3637
2244.135	3571
2246.153	3597
2248.171	3634
2250.188	3646
2252.208	3487
2254.223	3600
2256.239	3623
2258.255	3580
2260.269	3551
2262.283	3593
2264.3	3573
2266.312	3578
2268.325	3629
2270.336	3626
2272.349	3601
2274.362	3561
2276.372	3614
2278.383	3595
2280.392	3535
2282.402	3557
2284.409	3546
2286.418	3586
2288.427	3590
2290.433	3596
2292.441	3638
2294.446	3659
2296.453	3641
2298.459	3643
2300.463	3544
2302.466	3579
2304.471	3569
2306.475	3500
2308.477	3486
2310.478	3588
2312.481	3520
2314.481	3484
2316.481	3544
2318.482	3552
2320.482	3617
2322.48	3565
2324.48	3582
2326.478	3572
2328.476	3556
2330.473	3599
2332.469	3643
2334.465	3573
2336.46	3573
2338.454	3600
2340.45	3618
2342.444	3552
2344.437	3552
2346.43	3552
2348.421	3653
2350.414	3519
2352.405	3520
2354.396	3499
2356.386	3494
2358.376	3519
2360.366	3538
2362.355	3570
2364.343	3527
2366.331	3548
2368.317	3623
2370.304	3487
2372.292	3505
2374.278	3566
2376.262	3534
2378.247	3499
2380.23	3554
2382.216	3489
2384.199	3479
2386.181	3495
2388.163	3555
2390.144	3564
2392.127	3470
2394.107	3590
2396.087	3495
2398.066	3451
2400.046	3533
2402.023	3477
2404.004	3493
2405.981	3512
2407.957	3500
2409.934	3501
2411.91	3474
2413.886	3485
2415.862	3549
2417.836	3506
2419.809	3525
2421.784	3546
2423.756	3499
2425.73	3471
2427.701	3500
2429.672	3439
2431.644	3487
2433.615	3546
2435.586	3517
2437.555	3568
2439.523	3447
2441.491	3498
2443.459	3589
2445.428	3652
2447.395	3354
2449.361	3481
2451.327	3459
2453.292	3434
2455.257	3432
2457.223	3514
2459.187	3485
2461.15	3484
2463.113	3499
2465.076	3391
2467.039	3554
2468.999	3512
2470.96	3448
2472.921	3468
2474.881	3511
2476.841	3468
2478.8	3437
2480.759	3470
2482.717	3380
2484.675	3486
2486.63	3471
2488.589	3524
2490.545	3499
2492.5	3486
2494.455	3592
2496.408	3480
2498.364	3427
2500.318	3452
2502.27	3458
2504.223	3433
2506.174	3489
2508.126	3484
2510.078	3453
2512.03	3426
2513.979	3528
2515.927	3406
2517.877	3482
2519.826	3469
2521.775	3449
2523.722	3430
2525.668	3433
2527.616	3520
2529.561	3508
2531.508	3414
2533.452	3442
2535.398	3455
2537.342	3467
2539.284	3408
2541.229	3435
2543.173	3414
2545.114	3442
2547.055	3434
2548.996	3283
2550.938	3468
2552.878	3382
2554.817	3468
2556.756	3440
2558.695	3439
2560.633	3413
2562.572	3476
2564.509	3481
2566.445	3391
2568.382	3444
2570.317	3467
2572.254	3406
2574.189	3472
2576.123	3413
2578.057	3476
2579.99	3435
2581.923	3436
2583.855	3490
2585.788	3499
2587.719	3403
2589.65	3511
2591.579	3464
2593.511	3400
2595.44	3513
2597.37	3485
2599.297	3506
2601.225	3426
2603.153	3449
2605.08	3417
2607.007	3512
2608.932	3447
2610.858	3401
2612.782	3414
2614.709	3477
2616.632	3431
2618.556	3488
2620.478	3413
2622.401	3502
2624.324	3449
2626.247	3371
2628.167	3489
2630.088	3445
2632.008	3502
2633.928	3421
2635.848	3419
2637.766	3437
2639.684	3442
2641.603	3457
2643.519	3440
2645.437	3393
2647.353	3479
2649.27	3488
2651.184	3427
2653.099	3514
2655.014	3466
2656.928	3491
2658.842	3453
2660.755	3457
2662.667	3437
2664.579	3518
2666.491	3433
2668.402	3400
2670.312	3504
2672.222	3490
2674.132	3450
2676.042	3457
2677.951	3466
2679.859	3451
2681.766	3445
2683.674	3380
2685.582	3454
2687.488	3507
2689.392	3386
2691.298	3411
2693.202	3440
2695.107	3420
2697.012	3450
2698.914	3535
2700.817	3533
2702.72	3461
2704.622	3533
2706.524	3421
2708.425	3447
2710.326	3439
2712.225	3446
2714.125	3449
2716.024	3444
2717.923	3522
2719.822	3470
2721.719	3520
2723.616	3346
2725.512	3498
2727.41	3456
2729.305	3383
2731.201	3482
2733.095	3398
2734.99	3452
2736.884	3393
2738.778	3437
2740.67	3388
2742.562	3419
2744.455	3458
2746.346	3347
2748.238	3487
2750.129	3530
2752.018	3448
2753.907	3421
2755.797	3544
2757.687	3446
2759.575	3369
2761.462	3441
2763.349	3503
2765.237	3411
2767.124	3403
2769.009	3415
2770.894	3467
2772.779	3318
2774.663	3364
2776.547	3361
2778.431	3460
2780.314	3539
2782.197	3400
2784.078	3446
2785.96	3503
2787.842	3403
2789.723	3367
2791.603	3382
2793.483	3373
2795.362	3350
2797.241	3446
2799.121	3359
2800.997	3410
2802.874	3408
2804.751	3318
2806.628	3341
2808.506	3413
2810.38	3389
2812.255	3442
2814.13	3352
2816.003	3447
2817.878	3402
2819.752	3306
2821.623	3426
2823.496	3357
2825.368	3348
2827.238	3322
2829.111	3375
2830.98	3449
2832.851	3482
2834.719	3394
2836.589	3413
2838.458	3396
2840.327	3386
2842.193	3431
2844.061	3432
2845.927	3494
2847.794	3437
2849.66	3420
2851.525	3455
2853.39	3427
2855.254	3502
2857.117	3506
2858.983	3468
2860.845	3564
2862.707	3384
2864.569	3526
2866.431	3519
2868.293	3493
2870.154	3571
2872.013	3582
2873.873	3579
2875.733	3752
2877.592	3616
2879.451	3674
2881.309	3660
2883.166	3739
2885.022	3784
2886.879	3701
2888.736	3804
2890.591	3764
2892.446	3782
2894.301	3693
2896.155	3782
2898.009	3838
2899.863	3720
2901.716	3714
2903.568	3814
2905.419	3721
2907.27	3737
2909.123	3825
2910.973	3725
2912.824	3656
2914.673	3864
2916.521	3786
2918.372	3890
2920.22	3840
2922.067	3852
2923.914	3777
2925.761	3982
2927.607	3993
2929.455	3965
2931.301	3978
2933.144	4069
2934.99	4031
2936.833	4014
2938.678	4118
2940.522	4146
2942.364	4192
2944.207	4344
2946.048	4187
2947.891	4183
2949.731	4332
2951.571	4228
2953.412	4203
2955.25	4198
2957.09	4153
2958.93	4187
2960.767	4276
2962.606	4068
2964.443	4080
2966.279	4076
2968.116	3994
2969.953	3986
2971.788	3949
2973.623	3876
2975.457	3902
2977.292	3784
2979.127	3858
2980.959	3933
2982.792	3720
2984.624	3769
2986.455	3765
2988.288	3790
2990.119	3664
2991.949	3674
2993.779	3717
2995.608	3620
2997.439	3667
2999.268	3721
3001.096	3544
3002.923	3582
3004.751	3501
3006.578	3466
3008.406	3415
3010.232	3403
3012.057	3447
3013.883	3429
3015.706	3431
3017.532	3392
3019.356	3385
3021.179	3468
3023.002	3399
3024.823	3317
3026.646	3325
3028.469	3333
3030.289	3326
3032.11	3337
3033.93	3329
3035.749	3354
3037.57	3247
3039.39	3211
3041.207	3290
3043.026	3307
3044.842	3314
3046.661	3297
3048.477	3293
3050.294	3261
3052.109	3246
3053.925	3299
3055.739	3226
3057.555	3291
3059.368	3294
3061.181	3263
3062.995	3239
3064.807	3264
3066.62	3323
3068.433	3293
3070.243	3253
3072.054	3291
3073.865	3313
3075.675	3243
3077.485	3257
3079.293	3293
3081.102	3198
3082.911	3264
3084.719	3202
3086.527	3222
3088.333	3215
3090.139	3182
3091.945	3273
3093.75	3216
3095.557	3111
3097.361	3212
3099.165	3222
3100.969	3244
3102.772	3179
3104.575	3175
3106.379	3106
3108.181	3199
3109.982	3204
3111.783	3121
3113.584	3163
3115.386	3208
3117.186	3176
3118.985	3161
3120.783	3102
3122.582	3174
3124.381	3099
3126.179	3193
3127.975	3111
3129.772	3125
3131.569	3196
3133.365	3097
3135.161	3143
3136.956	3126
3138.751	3171
3140.544	3104
3142.338	3097
3144.132	3146
3145.925	3168
3147.717	3115
3149.509	3138
3151.301	3095
3153.091	3156
3154.884	3078
3156.673	3094
3158.462	3152
3160.252	3162
3162.041	3092
3163.831	3068
3165.618	3063
3167.405	3159
3169.193	3141
3170.979	3080
3172.767	3137
3174.553	3169
3176.338	3147
3178.123	3067
3179.907	3100
3181.692	3045
3183.477	3108
3185.259	3118
3187.042	3069
3188.824	3109
3190.607	2991
3192.389	3153
3194.17	3133
3195.951	3087
3197.73	3144
3199.51	3121
3201.289	3060
3203.07	3094
3204.848	3074
3206.626	3066
3208.403	3077
3210.18	3119
3211.959	3073
3213.735	3112
3215.511	3083
3217.285	3101
3219.06	3094
3220.836	3144
3222.611	3080
3224.384	3098
3226.158	3048
3227.929	3019
3229.702	3085
3231.476	3062
3233.248	3017
3235.018	3005
3236.789	3127
3238.56	3118
3240.33	3060
3242.1	3062
3243.869	3089
3245.637	3105
3247.405	3175
3249.172	3073
3250.941	3061
3252.707	3034
3254.474	3067
3256.24	2980
3258.006	3067
3259.772	3066
3261.537	3076
3263.301	3073
3265.065	3109
3266.828	3013
3268.592	3028
3270.355	3139
3272.117	3137
3273.878	3054
3275.64	3026
3277.401	3023
3279.162	3047
3280.922	3122
3282.682	3139
3284.441	3044
3286.199	3090
3287.959	3075
3289.716	3066
3291.475	3144
3293.232	3138
3294.988	3040
3296.744	3062
3298.501	3071
3300.256	3122
3302.011	3111
3303.766	3123
3305.52	3063
3307.275	3140
3309.028	3160
3310.781	3071
3312.533	3030
3314.285	3079
3316.038	3089
3317.789	3076
3319.54	3072
3321.289	3084
3323.039	3135
3324.789	3021
3326.539	3061
3328.288	3021
3330.035	3046
3331.783	3087
3333.531	3074
3335.28	3022
3337.025	3054
3338.771	3063
3340.518	3075
3342.262	3029
3344.009	3026
3345.753	3099
3347.497	3066
3349.24	3090
3350.983	3056
3352.726	2992
3354.469	3047
3356.212	2975
3357.952	3114
3359.694	3023
3361.434	3015
3363.176	3025
3364.916	3093
3366.654	2981
3368.394	3085
3370.132	2988
3371.871	3071
3373.61	3043
3375.346	3002
3377.083	3053
3378.82	2984
3380.556	3049
3382.292	2937
3384.027	2998
3385.763	3000
3387.497	3065
3389.231	3060
3390.965	3082
3392.698	2963
3394.431	2994
3396.164	2981
3397.896	2954
3399.627	2950
3401.36	2936
3403.09	2959
3404.82	2964
3406.55	2937
3408.279	2942
3410.01	2974
3411.738	2946
3413.467	2912
3415.194	2942
3416.92	2932
3418.647	2968
3420.375	2920
3422.102	3019
3423.827	2901
3425.553	3023
3427.277	3012
3429.003	2869
3430.727	2904
3432.451	2993
3434.173	2927
3435.896	2945
3437.62	2854
3439.343	2953
3441.063	2970
3442.785	2882
3444.505	2834
3446.226	2875
3447.948	2928
3449.666	2933
3451.386	2934
3453.104	2845
3454.823	2913
3456.541	2928
3458.259	2850
3459.976	2809
3461.693	2886
3463.408	2849
3465.125	2799
3466.841	2889
3468.556	2880
3470.271	2880
3471.985	2866
3473.698	2903
3475.414	2860
3477.126	2825
3478.838	2807
3480.55	2871
3482.263	2828
3483.975	2783
3485.686	2847
3487.396	2910
3489.106	2890
3490.817	2858
3492.526	2853
3494.236	2832
3495.944	2818
3497.652	2857
3499.359	2833
3501.066	2843
3502.775	2828
3504.481	2808
3506.187	2827
3507.893	2803
3509.598	2706
3511.304	2764
3513.009	2784
3514.713	2764
3516.417	2754
3518.12	2796
3519.821	2815
3521.525	2798
3523.228	2733
3524.929	2707
3526.631	2742
3528.33	2832
3530.032	2796
3531.733	2788
3533.433	2828
3535.131	2714
3536.83	2745
3538.529	2760
3540.227	2705
3541.925	2707
3543.623	2718
3545.319	2738
3547.016	2773
3548.712	2725
3550.408	2676
3552.103	2807
3553.798	2700
3555.491	2729
3557.188	2723
3558.88	2776
3560.574	2727
3562.266	2712
3563.959	2693
3565.651	2757
3567.343	2730
3569.035	2714
3570.725	2779
3572.415	2641
3574.106	2760
3575.797	2733
3577.485	2763
3579.174	2699
3580.863	2667
3582.551	2741
3584.238	2620
3585.926	2681
3587.613	2623
3589.3	2686
3590.986	2675
3592.671	2628
3594.357	2674
3596.042	2653
3597.726	2681
3599.41	2639
3601.094	2632
3602.778	2662
3604.461	2644
3606.143	2681
3607.825	2585
3609.507	2685
3611.188	2691
3612.87	2602
3614.551	2587
3616.229	2634
3617.909	2612
3619.589	2640
3621.269	2610
3622.948	2652
3624.625	2571
3626.302	2581
3627.98	2583
3629.657	2635
3631.334	2648
3633.01	2527
3634.686	2551
3636.361	2538
3638.036	2548
3639.712	2539
3641.385	2535
3643.06	2561
3644.732	2574
3646.405	2580
3648.08	2570
3649.751	2572
3651.424	2517
3653.094	2546
3654.766	2549
3656.436	2550
3658.106	2528
3659.777	2581
3661.446	2553
3663.115	2619
3664.783	2497
3666.452	2567
3668.121	2552
3669.788	2526
3671.454	2520
3673.121	2614
3674.789	2502
3676.455	2557
3678.12	2487
3679.784	2484
3681.45	2496
3683.114	2501
3684.779	2555
3686.442	2492
3688.105	2481
3689.768	2494
3691.43	2513
3693.093	2543
3694.754	2533
3696.415	2445
3698.076	2485
3699.736	2487
3701.396	2530
3703.057	2502
3704.716	2510
3706.375	2509
3708.034	2471
3709.692	2490
3711.351	2416
3713.008	2472
3714.665	2462
3716.321	2498
3717.977	2511
3719.634	2400
3721.29	2473
3722.945	2503
3724.598	2515
3726.253	2487
3727.907	2450
3729.561	2459
3731.214	2467
3732.867	2535
3734.518	2477
3736.171	2484
3737.824	2446
3739.474	2453
3741.125	2447
3742.775	2423
3744.425	2430
3746.074	2524
3747.725	2452
3749.373	2445
3751.022	2503
3752.669	2442
3754.318	2439
3755.966	2427
3757.612	2425
3759.259	2417
3760.905	2437
3762.55	2474
3764.197	2444
3765.842	2454
3767.486	2389
3769.131	2405
3770.774	2445
3772.417	2391
3774.061	2400
3775.705	2412
3777.347	2349
3778.988	2437
3780.629	2415
3782.271	2455
3783.912	2439
3785.552	2460
3787.192	2428
3788.831	2397
3790.472	2434
3792.112	2413
3793.75	2399
3795.388	2312
3797.024	2428
3798.661	2373
3800.3	2384
3801.936	2415
3803.572	2378
3805.208	2405
3806.844	2434
3808.48	2383
3810.115	2369
3811.748	2383
3813.382	2389
3815.016	2348
3816.649	2366
3818.283	2348
3819.914	2356
3821.547	2356
3823.178	2392
3824.809	2332
3826.441	2376
3828.072	2379
3829.701	2350
3831.331	2341
3832.96	2324
3834.591	2338
3836.219	2320
3837.847	2335
3839.475	2391
3841.102	2343
3842.729	2336
3844.357	2353
3845.984	2284
3847.609	2380
3849.234	2357
3850.86	2332
3852.485	2329
3854.11	2267
3855.734	2351
3857.357	2297
3858.981	2314
3860.603	2342
3862.227	2375
3863.848	2283
3865.471	2319
3867.092	2310
3868.713	2405
3870.334	2332
3871.954	2290
3873.575	2315
3875.194	2296
3876.813	2328
3878.433	2292
3880.051	2289
3881.669	2274
3883.286	2336
3884.904	2314
3886.52	2247
3888.138	2337
3889.754	2339
3891.37	2270
3892.985	2347
3894.6	2244
3896.216	2349
3897.831	2282
3899.444	2291
3901.058	2240
3902.67	2262
3904.283	2261
3905.897	2289
3907.509	2290
3909.121	2296
3910.731	2269
3912.342	2304
3913.954	2245
3915.563	2257
3917.174	2312
3918.783	2289
3920.391	2283
3922.002	2240
3923.611	2239
3925.218	2290
3926.826	2252
3928.432	2288
3930.039	2288
3931.647	2236
3933.253	2324
3934.859	2279
3936.464	2235
3938.068	2184
3939.675	2248
3941.278	2246
3942.883	2202
3944.486	2272
3946.089	2251
3947.692	2236
3949.295	2238
3950.898	2271
3952.499	2258
3954.1	2292
3955.7	2252
3957.303	2192
3958.903	2201
3960.502	2260
3962.101	2269
3963.7	2249
3965.301	2263
3966.899	2267
3968.497	2255
3970.094	2304
3971.691	2185
3973.288	2232
3974.885	2252
3976.481	2226
3978.077	2211
3979.672	2229
3981.267	2239
3982.863	2199
3984.457	2258
3986.051	2198
3987.645	2233
3989.238	2208
3990.831	2249
3992.425	2172
3994.017	2223
3995.607	2212
3997.199	2197
3998.79	2169
4000.382	2161
4001.973	2104
4003.561	2234
4005.151	2193
4006.741	2148
4008.331	2168
4009.918	2244
4011.507	2124
4013.095	2232
4014.681	2183
4016.269	2143
4017.856	2128
4019.443	2213
4021.028	2155
4022.614	2142
4024.199	2205
4025.785	2109
4027.37	2184
4028.953	2126
4030.536	2152
4032.12	2149
4033.704	2123
4035.287	2126
4036.869	2131
4038.45	2112
4040.032	2134
4041.613	2096
4043.195	2163
4044.776	2107
4046.356	2130
4047.935	2155
4049.515	2112
4051.095	2060
4052.674	2123
4054.251	2075
4055.829	2110
4057.406	2143
4058.985	2126
4060.562	2117
4062.139	2080
4063.715	2109
4065.29	2106
4066.865	2113
4068.442	2074
4070.016	2127
4071.59	2080
4073.164	2079
4074.738	2031
4076.312	2099
4077.885	2048
4079.458	2116
4081.03	2076
4082.602	2103
4084.173	2109
4085.745	2127
4087.315	2102
4088.886	2133
4090.456	2066
4092.026	2111
4093.596	2053
4095.165	2079
4096.734	2134
4098.301	2115
4099.869	2046
4101.437	2088
4103.006	2034
4104.572	2081
4106.139	2102
4107.704	2081
4109.27	2083
4110.837	2080
4112.401	2057
4113.966	2141
4115.53	2055
4117.094	2079
4118.659	2088
4120.223	2033
4121.785	2072
4123.347	2068
4124.909	2029
4126.471	2011
4128.034	2066
4129.595	2094
4131.155	2048
4132.716	2056
4134.275	2014
4135.836	2076
4137.395	2081
4138.955	2071
4140.513	1971
4142.071	2093
4143.628	2062
4145.188	2028
4146.745	2040
4148.302	2005
4149.858	2021
4151.414	1918
4152.971	2043
4154.526	2001
4156.081	1983
4157.635	1967
4159.189	1985
4160.745	1995
4162.298	1997
4163.852	2007
4165.405	1936
4166.957	2029
4168.51	1988
4170.063	2026
4171.614	1991
4173.166	1984
4174.717	1986
4176.267	1982
4177.817	1999
4179.368	2013
4180.917	2040
4182.466	2008
4184.016	2013
4185.564	1985
4187.112	1960
4188.66	1973
4190.207	1973
4191.754	1900
4193.301	1982
4194.848	1956
4196.394	1905
4197.94	1951
4199.484	1930
4201.03	1921
4202.575	1990
4204.12	1970
4205.663	2026
4207.207	1911
4208.75	1933
4210.292	1980
4211.836	1896
4213.378	1936
4214.92	1941
4216.46	1921
4218.002	1881
4219.544	1942
4221.083	1875
4222.625	1975
4224.164	1885
4225.703	1981
4227.244	1951
4228.782	1922
4230.32	1951
4231.857	1889
4233.395	1965
4234.933	1903
4236.471	1909
4238.007	1882
4239.542	1954
4241.078	1937
4242.614	1933
4244.15	1992
4245.685	1924
4247.219	1904
4248.753	1920
4250.287	1906
4251.82	1886
4253.354	1943
4254.887	1945
4256.419	1926
4257.951	1925
4259.483	1923
4261.016	1873
4262.547	1904
4264.078	1934
4265.608	1883
4267.137	1941
4268.668	1951
4270.197	1940
4271.727	1886
4273.254	1880
4274.783	1899
4276.311	1873
4277.84	1854
4279.366	1860
4280.894	1889
4282.42	1897
4283.946	1833
4285.473	1902
4286.998	1866
4288.523	1869
4290.047	1899
4291.572	1833
4293.096	1881
4294.622	1849
4296.144	1868
4297.668	1883
4299.19	1888
4300.713	1903
4302.236	1905
4303.758	1861
4305.279	1860
4306.799	1840
4308.321	1883
4309.842	1897
4311.361	1831
4312.882	1825
4314.401	1836
