400.0961	2340
402.6185	2396
405.1424	2417
407.6635	2354
410.1838	2431
412.7035	2397
415.2225	2445
417.7388	2445
420.2585	2472
422.7754	2426
425.2917	2474
427.8072	2553
430.3221	2475
432.8363	2504
435.3498	2533
437.8626	2550
440.3727	2565
442.8841	2517
445.3969	2554
447.907	2489
450.4142	2582
452.9229	2488
455.4289	2580
457.9362	2510
460.4449	2565
462.9488	2539
465.454	2527
467.9566	2543
470.4604	2491
472.9637	2554
475.4662	2539
477.966	2508
480.4671	2571
482.9656	2566
485.4633	2499
487.9645	2561
490.4608	2592
492.9566	2526
495.4536	2581
497.948	2561
500.4437	2573
502.9387	2604
505.431	2611
507.9226	2574
510.4136	2578
512.9079	2550
515.3975	2610
517.8864	2576
520.3746	2606
522.8622	2541
525.3491	2563
527.8394	2642
530.3249	2669
532.8098	2608
535.2939	2581
537.7774	2585
540.2623	2668
542.7444	2584
545.2259	2578
547.7067	2693
550.1868	2612
552.6683	2609
555.147	2607
557.6231	2658
560.1005	2584
562.5773	2596
565.0534	2613
567.5308	2653
570.0056	2655
572.4776	2698
574.951	2711
577.4237	2709
579.8978	2688
582.3671	2705
584.8378	2725
587.3079	2745
589.7773	2674
592.244	2740
594.714	2712
597.1793	2704
599.6461	2752
602.1121	2688
604.5754	2707
607.0421	2745
609.5042	2738
611.9675	2707
614.4282	2742
616.8902	2744
619.3515	2666
621.8122	2672
624.2702	2765
626.7296	2691
629.1863	2657
631.6423	2674
634.1017	2703
636.5563	2686
639.0104	2685
641.4658	2668
643.9185	2663
646.3725	2735
648.8239	2731
651.2766	2670
653.7266	2777
656.176	2721
658.6247	2652
661.0748	2653
663.5242	2771
665.9709	2734
668.417	2780
670.8624	2737
673.3092	2814
675.7533	2678
678.1968	2764
680.6395	2772
683.0817	2758
685.5251	2749
687.9659	2738
690.4061	2828
692.8456	2713
695.2844	2794
697.7226	2781
700.1621	2783
702.599	2746
705.0332	2807
707.4688	2791
709.9036	2799
712.3399	2775
714.7735	2831
717.2044	2799
719.6367	2852
722.0683	2869
724.4993	2772
726.9296	2892
729.3593	2851
731.7883	2770
734.2147	2861
736.6423	2946
739.0714	2925
741.4958	2943
743.9216	2960
746.3447	2910
748.7691	2890
751.1929	2922
753.616	2929
756.0366	2914
758.4584	2991
760.8776	3002
763.2982	2963
765.718	2978
768.1373	2979
770.5539	3017
772.9698	2975
775.3871	2945
777.8038	2948
780.2178	2886
782.6332	2974
785.0459	2982
787.458	2987
789.8714	2958
792.2842	3010
794.6943	2944
797.1038	2959
799.5127	2946
801.9209	3106
804.3324	2936
806.7393	3010
809.1456	2944
811.5513	3016
813.9562	2993
816.3625	3098
818.7663	3030
821.1693	3028
823.5718	3014
825.9735	2903
828.3746	3041
830.7771	3031
833.177	3024
835.5762	2995
837.9747	3081
840.3727	3048
842.772	3078
845.1666	3032
847.5626	3082
849.958	3053
852.3527	3152
854.7488	3075
857.1403	3011
859.5331	3049
861.9253	3053
864.3168	3139
866.7057	3033
869.098	3084
871.4876	3094
873.8746	2978
876.263	3124
878.6487	2999
881.0378	3109
883.4243	3060
885.8081	3107
888.1933	3094
890.5759	3101
892.9598	3030
895.343	3060
897.7256	3100
900.1057	3085
902.4871	3077
904.8659	3064
907.246	3131
909.6254	3141
912.0023	3075
914.3786	3117
916.7562	3191
919.1331	3160
921.5074	3251
923.8831	3184
926.2562	3187
928.6287	3196
931.0005	3180
933.3757	3272
935.7462	3208
938.1162	3277
940.4855	3283
942.8542	3319
945.2242	3315
947.5916	3379
949.9584	3463
952.3266	3460
954.6921	3632
957.0571	3771
959.4233	3869
961.787	3780
964.15	3861
966.5125	3751
968.8742	3625
971.2354	3668
973.5959	3404
975.9559	3319
978.3151	3324
980.6738	3224
983.0338	3241
985.3912	3142
987.7461	3207
990.1022	3156
992.4578	3187
994.8127	3218
997.1689	3211
999.5207	3164
1001.874	3263
1004.226	3236
1006.576	3217
1008.929	3249
1011.28	3177
1013.628	3179
1015.977	3190
1018.324	3250
1020.674	3230
1023.019	3265
1025.366	3331
1027.713	3243
1030.056	3287
1032.399	3251
1034.746	3311
1037.087	3248
1039.431	3314
1041.771	3250
1044.113	3293
1046.454	3296
1048.793	3326
1051.133	3291
1053.471	3301
1055.807	3332
1058.146	3324
1060.483	3260
1062.818	3273
1065.153	3235
1067.489	3270
1069.822	3383
1072.156	3331
1074.488	3316
1076.82	3403
1079.15	3293
1081.48	3335
1083.814	3307
1086.143	3280
1088.471	3279
1090.799	3324
1093.126	3365
1095.452	3334
1097.78	3255
1100.105	3322
1102.43	3289
1104.754	3293
1107.077	3251
1109.4	3323
1111.722	3352
1114.044	3312
1116.365	3321
1118.685	3266
1121.005	3339
1123.324	3363
1125.643	3342
1127.961	3277
1130.278	3344
1132.595	3347
1134.911	3321
1137.226	3347
1139.541	3337
1141.854	3378
1144.167	3324
1146.482	3338
1148.793	3303
1151.105	3316
1153.414	3273
1155.725	3360
1158.033	3388
1160.344	3370
1162.651	3379
1164.959	3363
1167.265	3332
1169.572	3406
1171.878	3322
1174.184	3322
1176.488	3334
1178.79	3313
1181.094	3371
1183.396	3309
1185.699	3344
1188.001	3348
1190.301	3302
1192.6	3361
1194.9	3341
1197.2	3401
1199.497	3336
1201.794	3315
1204.09	3407
1206.387	3311
1208.684	3278
1210.978	3323
1213.272	3424
1215.565	3388
1217.858	3329
1220.15	3374
1222.443	3355
1224.734	3317
1227.024	3395
1229.313	3436
1231.602	3459
1233.892	3458
1236.18	3462
1238.467	3499
1240.754	3434
1243.04	3459
1245.325	3549
1247.612	3490
1249.896	3496
1252.178	3530
1254.461	3540
1256.743	3522
1259.027	3486
1261.308	3416
1263.587	3481
1265.867	3506
1268.146	3481
1270.425	3490
1272.703	3561
1274.981	3634
1277.256	3502
1279.532	3506
1281.808	3475
1284.083	3463
1286.358	3498
1288.63	3506
1290.904	3500
1293.175	3474
1295.449	3490
1297.719	3461
1299.99	3530
1302.259	3520
1304.529	3467
1306.798	3438
1309.065	3429
1311.333	3424
1313.599	3512
1315.866	3430
1318.131	3490
1320.396	3405
1322.66	3467
1324.925	3539
1327.187	3468
1329.448	3373
1331.711	3526
1333.974	3536
1336.234	3536
1338.493	3470
1340.752	3410
1343.01	3492
1345.269	3422
1347.526	3427
1349.784	3508
1352.04	3525
1354.295	3471
1356.552	3470
1358.806	3495
1361.059	3551
1363.312	3554
1365.564	3523
1367.818	3515
1370.069	3512
1372.318	3528
1374.568	3551
1376.817	3556
1379.066	3589
1381.316	3574
1383.564	3625
1385.809	3513
1388.056	3531
1390.301	3566
1392.549	3572
1394.793	3620
1397.036	3592
1399.279	3575
1401.522	3619
1403.763	3641
1406.007	3602
1408.248	3499
1410.487	3599
1412.727	3665
1414.965	3640
1417.205	3522
1419.442	3644
1421.68	3549
1423.915	3626
1426.152	3583
1428.388	3661
1430.623	3654
1432.857	3610
1435.091	3641
1437.323	3642
1439.556	3638
1441.789	3726
1444.019	3648
1446.25	3723
1448.48	3704
1450.708	3656
1452.938	3648
1455.167	3663
1457.394	3745
1459.62	3637
1461.846	3786
1464.073	3683
1466.299	3610
1468.523	3581
1470.746	3690
1472.969	3612
1475.191	3615
1477.415	3593
1479.636	3644
1481.858	3590
1484.078	3631
1486.298	3598
1488.518	3528
1490.736	3557
1492.954	3533
1495.169	3600
1497.386	3459
1499.602	3566
1501.819	3563
1504.034	3565
1506.248	3512
1508.462	3612
1510.675	3600
1512.888	3583
1515.1	3615
1517.311	3550
1519.522	3591
1521.732	3593
1523.942	3631
1526.151	3586
1528.36	3587
1530.566	3571
1532.773	3523
1534.98	3524
1537.187	3593
1539.392	3530
1541.596	3639
1543.801	3656
1546.005	3550
1548.208	3478
1550.411	3668
1552.612	3510
1554.814	3604
1557.013	3587
1559.212	3586
1561.414	3663
1563.612	3682
1565.811	3694
1568.007	3567
1570.203	3532
1572.403	3688
1574.598	3630
1576.792	3635
1578.988	3636
1581.181	3704
1583.376	3759
1585.568	3703
1587.761	3650
1589.952	3667
1592.143	3631
1594.333	3642
1596.524	3651
1598.715	3671
1600.903	3778
1603.091	3659
1605.278	3657
1607.466	3697
1609.652	3748
1611.838	3675
1614.023	3651
1616.207	3695
1618.391	3600
1620.576	3715
1622.759	3692
1624.941	3708
1627.123	3665
1629.304	3684
1631.484	3750
1633.664	3777
1635.844	3785
1638.022	3788
1640.201	3659
1642.38	3717
1644.556	3720
1646.732	3761
1648.908	3604
1651.084	3631
1653.257	3681
1655.433	3844
1657.607	3738
1659.779	3825
1661.951	3698
1664.122	3832
1666.295	3773
1668.467	3796
1670.635	3895
1672.805	3777
1674.973	3781
1677.142	3743
1679.31	3745
1681.478	3786
1683.644	3757
1685.81	3774
1687.975	3837
1690.142	3723
1692.305	3748
1694.468	3741
1696.632	3698
1698.794	3741
1700.957	3738
1703.119	3716
1705.279	3659
1707.439	3695
1709.598	3708
1711.758	3720
1713.917	3677
1716.075	3643
1718.231	3701
1720.388	3709
1722.543	3652
1724.702	3672
1726.856	3688
1729.01	3709
1731.164	3667
1733.317	3619
1735.471	3752
1737.623	3658
1739.774	3722
1741.925	3668
1744.075	3684
1746.225	3735
1748.376	3639
1750.524	3742
1752.672	3752
1754.82	3739
1756.965	3754
1759.113	3747
1761.259	3767
1763.405	3712
1765.549	3724
1767.694	3722
1769.836	3746
1771.981	3808
1774.123	3774
1776.264	3759
1778.405	3754
1780.546	3698
1782.687	3684
1784.827	3783
1786.966	3717
1789.103	3812
1791.242	3645
1793.381	3782
1795.517	3720
1797.653	3731
1799.788	3684
1801.923	3768
1804.057	3724
1806.193	3743
1808.326	3750
1810.457	3754
1812.59	3683
1814.721	3739
1816.855	3757
1818.984	3709
1821.113	3711
1823.244	3715
1825.372	3761
1827.499	3701
1829.63	3695
1831.756	3708
1833.882	3734
1836.007	3707
1838.132	3622
1840.26	3756
1842.384	3727
1844.507	3760
1846.63	3781
1848.752	3683
1850.875	3785
1852.996	3801
1855.118	3711
1857.238	3755
1859.358	3641
1861.477	3713
1863.597	3807
1865.715	3730
1867.832	3732
1869.948	3746
1872.064	3690
1874.181	3765
1876.297	3720
1878.411	3727
1880.526	3840
1882.639	3786
1884.752	3756
1886.865	3759
1888.977	3770
1891.089	3691
1893.2	3704
1895.308	3789
1897.42	3790
1899.53	3740
1901.639	3684
1903.745	3740
1905.853	3774
1907.962	3829
1910.067	3747
1912.174	3737
1914.278	3770
1916.383	3720
1918.486	3819
1920.592	3791
1922.694	3743
1924.797	3733
1926.898	3847
1929	3895
1931.102	3804
1933.203	3876
1935.301	3711
1937.401	3761
1939.499	3816
1941.598	3846
1943.697	3857
1945.793	3819
1947.888	3878
1949.985	3817
1952.08	3891
1954.176	3792
1956.269	3835
1958.364	3923
1960.457	3790
1962.549	3752
1964.642	3880
1966.733	3892
1968.823	3868
1970.913	3844
1973.005	3916
1975.093	3815
1977.184	3848
1979.271	3821
1981.359	3727
1983.446	3865
1985.532	3731
1987.619	3827
1989.705	3822
1991.789	3847
1993.874	3826
1995.956	3821
1998.041	3831
2000.123	3795
2002.206	3781
2004.287	3846
2006.368	3807
2008.449	3775
2010.529	3763
2012.609	3807
2014.688	3817
2016.766	3804
2018.843	3855
2020.922	3850
2022.999	3799
2025.074	3840
2027.15	3805
2029.225	3909
2031.299	3772
2033.375	3788
2035.447	3902
2037.52	3803
2039.592	3803
2041.664	3879
2043.736	3821
2045.807	3859
2047.876	3872
2049.947	3914
2052.015	3851
2054.086	3890
2056.153	3945
2058.221	3844
2060.288	3855
2062.353	3879
2064.42	3903
2066.486	3877
2068.55	3821
2070.614	3944
2072.678	3886
2074.741	3835
2076.805	3916
2078.866	3859
2080.929	3871
2082.99	3843
2085.049	3833
2087.109	3868
2089.17	3963
2091.228	3819
2093.286	3878
2095.344	3944
2097.4	3862
2099.46	3850
2101.516	3792
2103.572	3838
2105.626	3793
2107.679	3861
2109.735	3888
2111.788	3888
2113.841	3882
2115.894	3872
2117.945	3906
2119.997	3840
2122.049	3868
2124.1	3829
2126.148	3901
2128.197	3906
2130.246	3819
2132.296	3802
2134.342	3820
2136.39	3913
2138.437	3880
2140.483	3926
2142.527	3861
2144.574	3869
2146.619	3915
2148.661	3898
2150.705	3853
2152.747	3915
2154.792	3782
2156.832	3859
2158.874	3886
2160.915	3869
2162.954	3897
2164.995	3804
2167.034	3870
2169.072	3890
2171.111	3900
2173.148	3925
2175.186	3872
2177.223	3774
2179.258	3825
2181.294	3864
2183.328	3868
2185.362	3921
2187.398	3782
2189.431	3820
2191.463	3778
2193.495	3743
2195.528	3816
2197.56	3859
2199.59	3832
2201.62	3870
2203.649	3834
2205.678	3857
2207.708	3894
2209.737	3842
2211.764	3747
2213.791	3835
2215.817	3848
2217.843	3774
2219.87	3806
2221.895	3842
2223.919	3736
2225.942	3798
2227.966	3896
2229.988	3760
2232.012	3776
2234.032	3794
2236.054	3783
2238.074	3807
2240.095	3820
2242.116	3809
2244.135	3873
2246.153	3753
2248.171	3790
2250.188	3913
2252.208	3846
2254.223	3852
2256.239	3824
2258.255	3844
2260.269	3839
2262.283	3820
2264.3	3836
2266.312	3896
2268.325	3880
2270.336	3868
2272.349	3837
2274.362	3840
2276.372	3819
2278.383	3836
2280.392	3789
2282.402	3880
2284.409	3871
2286.418	3881
2288.427	3871
2290.433	3841
2292.441	3931
2294.446	3825
2296.453	3851
2298.459	3821
2300.463	3867
2302.466	3787
2304.471	3839
2306.475	3833
2308.477	3902
2310.478	3856
2312.481	3800
2314.481	3860
2316.481	3767
2318.482	3789
2320.482	3893
2322.48	3874
2324.48	3845
2326.478	3809
2328.476	3830
2330.473	3849
2332.469	3780
2334.465	3763
2336.46	3805
2338.454	3871
2340.45	3873
2342.444	3877
2344.437	3805
2346.43	3821
2348.421	3774
2350.414	3785
2352.405	3756
2354.396	3756
2356.386	3722
2358.376	3772
2360.366	3857
2362.355	3786
2364.343	3855
2366.331	3808
2368.317	3773
2370.304	3770
2372.292	3759
2374.278	3832
2376.262	3747
2378.247	3798
2380.23	3806
2382.216	3813
2384.199	3841
2386.181	3771
2388.163	3802
2390.144	3780
2392.127	3767
2394.107	3837
2396.087	3739
2398.066	3746
2400.046	3709
2402.023	3769
2404.004	3756
2405.981	3765
2407.957	3782
2409.934	3702
2411.91	3797
2413.886	3825
2415.862	3762
2417.836	3795
2419.809	3806
2421.784	3711
2423.756	3668
2425.73	3789
2427.701	3832
2429.672	3820
2431.644	3799
2433.615	3788
2435.586	3795
2437.555	3785
2439.523	3813
2441.491	3754
2443.459	3858
2445.428	3824
2447.395	3735
2449.361	3740
2451.327	3821
2453.292	3782
2455.257	3738
2457.223	3784
2459.187	3750
2461.15	3777
2463.113	3741
2465.076	3779
2467.039	3782
2468.999	3715
2470.96	3753
2472.921	3731
2474.881	3811
2476.841	3763
2478.8	3826
2480.759	3743
2482.717	3810
2484.675	3801
2486.63	3811
2488.589	3672
2490.545	3685
2492.5	3744
2494.455	3781
2496.408	3656
2498.364	3752
2500.318	3756
2502.27	3782
2504.223	3749
2506.174	3806
2508.126	3655
2510.078	3791
2512.03	3724
2513.979	3699
2515.927	3806
2517.877	3748
2519.826	3811
2521.775	3752
2523.722	3770
2525.668	3825
2527.616	3684
2529.561	3686
2531.508	3790
2533.452	3789
2535.398	3733
2537.342	3737
2539.284	3807
2541.229	3772
2543.173	3775
2545.114	3768
2547.055	3759
2548.996	3655
2550.938	3710
2552.878	3800
2554.817	3778
2556.756	3677
2558.695	3794
2560.633	3827
2562.572	3818
2564.509	3823
2566.445	3774
2568.382	3777
2570.317	3745
2572.254	3693
2574.189	3731
2576.123	3711
2578.057	3775
2579.99	3831
2581.923	3758
2583.855	3742
2585.788	3777
2587.719	3786
2589.65	3772
2591.579	3752
2593.511	3757
2595.44	3816
2597.37	3773
2599.297	3756
2601.225	3716
2603.153	3745
2605.08	3820
2607.007	3828
2608.932	3776
2610.858	3784
2612.782	3797
2614.709	3821
2616.632	3797
2618.556	3780
2620.478	3787
2622.401	3847
2624.324	3908
2626.247	3796
2628.167	3695
2630.088	3813
2632.008	3815
2633.928	3765
2635.848	3812
2637.766	3793
2639.684	3744
2641.603	3763
2643.519	3781
2645.437	3759
2647.353	3782
2649.27	3757
2651.184	3813
2653.099	3828
2655.014	3819
2656.928	3828
2658.842	3855
2660.755	3777
2662.667	3834
2664.579	3783
2666.491	3853
2668.402	3819
2670.312	3806
2672.222	3808
2674.132	3820
2676.042	3799
2677.951	3839
2679.859	3787
2681.766	3832
2683.674	3816
2685.582	3806
2687.488	3753
2689.392	3791
2691.298	3759
2693.202	3873
2695.107	3821
2697.012	3741
2698.914	3786
2700.817	3756
2702.72	3796
2704.622	3768
2706.524	3836
2708.425	3729
2710.326	3795
2712.225	3833
2714.125	3757
2716.024	3768
2717.923	3807
2719.822	3701
2721.719	3766
2723.616	3765
2725.512	3826
2727.41	3779
2729.305	3830
2731.201	3802
2733.095	3809
2734.99	3840
2736.884	3848
2738.778	3798
2740.67	3761
2742.562	3788
2744.455	3773
2746.346	3777
2748.238	3819
2750.129	3803
2752.018	3767
2753.907	3803
2755.797	3817
2757.687	3710
2759.575	3786
2761.462	3705
2763.349	3812
2765.237	3771
2767.124	3845
2769.009	3704
2770.894	3731
2772.779	3788
2774.663	3823
2776.547	3734
2778.431	3724
2780.314	3789
2782.197	3779
2784.078	3786
2785.96	3750
2787.842	3747
2789.723	3758
2791.603	3710
2793.483	3759
2795.362	3762
2797.241	3802
2799.121	3751
2800.997	3722
2802.874	3814
2804.751	3757
2806.628	3798
2808.506	3800
2810.38	3769
2812.255	3713
2814.13	3826
2816.003	3822
2817.878	3702
2819.752	3757
2821.623	3731
2823.496	3836
2825.368	3772
2827.238	3779
2829.111	3814
2830.98	3716
2832.851	3752
2834.719	3757
2836.589	3758
2838.458	3834
2840.327	3793
2842.193	3740
2844.061	3815
2845.927	3753
2847.794	3762
2849.66	3758
2851.525	3816
2853.39	3898
2855.254	3813
2857.117	3817
2858.983	3828
2860.845	3776
2862.707	3901
2864.569	3936
2866.431	3839
2868.293	3923
2870.154	3941
2872.013	3958
2873.873	3993
2875.733	3926
2877.592	3912
2879.451	3968
2881.309	4016
2883.166	4005
2885.022	4004
2886.879	4126
2888.736	4032
2890.591	3945
2892.446	4031
2894.301	4114
2896.155	4092
2898.009	4176
2899.863	3989
2901.716	4069
2903.568	4055
2905.419	4086
2907.27	4012
2909.123	4095
2910.973	4108
2912.824	4173
2914.673	4161
2916.521	4131
2918.372	4195
2920.22	4180
2922.067	4225
2923.914	4209
2925.761	4247
2927.607	4262
2929.455	4192
2931.301	4288
2933.144	4254
2934.99	4277
2936.833	4308
2938.678	4288
2940.522	4447
2942.364	4486
2944.207	4501
2946.048	4528
2947.891	4615
2949.731	4474
2951.571	4516
2953.412	4504
2955.25	4445
2957.09	4439
2958.93	4449
2960.767	4452
2962.606	4299
2964.443	4315
2966.279	4233
2968.116	4288
2969.953	4241
2971.788	4167
2973.623	4211
2975.457	4223
2977.292	4123
2979.127	4160
2980.959	4104
2982.792	4240
2984.624	4164
2986.455	4039
2988.288	4046
2990.119	3995
2991.949	4047
2993.779	4082
2995.608	4015
2997.439	3957
2999.268	3981
3001.096	3996
3002.923	3895
3004.751	3919
3006.578	3853
3008.406	3885
3010.232	3769
3012.057	3849
3013.883	3897
3015.706	3813
3017.532	3879
3019.356	3799
3021.179	3800
3023.002	3777
3024.823	3818
3026.646	3724
3028.469	3732
3030.289	3800
3032.11	3714
3033.93	3794
3035.749	3707
3037.57	3752
3039.39	3691
3041.207	3681
3043.026	3693
3044.842	3709
3046.661	3665
3048.477	3793
3050.294	3772
3052.109	3660
3053.925	3675
3055.739	3627
3057.555	3786
3059.368	3816
3061.181	3698
3062.995	3613
3064.807	3702
3066.62	3670
3068.433	3761
3070.243	3654
3072.054	3731
3073.865	3661
3075.675	3618
3077.485	3659
3079.293	3648
3081.102	3738
3082.911	3722
3084.719	3613
3086.527	3660
3088.333	3677
3090.139	3596
3091.945	3640
3093.75	3573
3095.557	3649
3097.361	3668
3099.165	3643
3100.969	3634
3102.772	3584
3104.575	3589
3106.379	3586
3108.181	3596
3109.982	3708
3111.783	3540
3113.584	3602
3115.386	3550
3117.186	3577
3118.985	3593
3120.783	3635
3122.582	3503
3124.381	3532
3126.179	3598
3127.975	3574
3129.772	3582
3131.569	3533
3133.365	3512
3135.161	3612
3136.956	3608
3138.751	3571
3140.544	3563
3142.338	3551
3144.132	3594
3145.925	3511
3147.717	3589
3149.509	3552
3151.301	3581
3153.091	3567
3154.884	3527
3156.673	3558
3158.462	3571
3160.252	3542
3162.041	3552
3163.831	3588
3165.618	3540
3167.405	3464
3169.193	3624
3170.979	3512
3172.767	3552
3174.553	3491
3176.338	3600
3178.123	3534
3179.907	3567
3181.692	3490
3183.477	3619
3185.259	3567
3187.042	3476
3188.824	3527
3190.607	3527
3192.389	3650
3194.17	3495
3195.951	3610
3197.73	3520
3199.51	3491
3201.289	3544
3203.07	3572
3204.848	3554
3206.626	3589
3208.403	3609
3210.18	3497
3211.959	3470
3213.735	3566
3215.511	3485
3217.285	3445
3219.06	3564
3220.836	3468
3222.611	3507
3224.384	3567
3226.158	3548
3227.929	3477
3229.702	3546
3231.476	3576
3233.248	3565
3235.018	3513
3236.789	3444
3238.56	3522
3240.33	3468
3242.1	3523
3243.869	3577
3245.637	3506
3247.405	3592
3249.172	3515
3250.941	3608
3252.707	3474
3254.474	3598
3256.24	3551
3258.006	3528
3259.772	3495
3261.537	3553
3263.301	3530
3265.065	3494
3266.828	3437
3268.592	3497
3270.355	3515
3272.117	3551
3273.878	3506
3275.64	3471
3277.401	3558
3279.162	3605
3280.922	3601
3282.682	3580
3284.441	3555
3286.199	3554
3287.959	3525
3289.716	3507
3291.475	3513
3293.232	3558
3294.988	3482
3296.744	3568
3298.501	3496
3300.256	3571
3302.011	3606
3303.766	3484
3305.52	3538
3307.275	3559
3309.028	3512
3310.781	3504
3312.533	3482
3314.285	3582
3316.038	3598
3317.789	3579
3319.54	3534
3321.289	3529
3323.039	3497
3324.789	3544
3326.539	3506
3328.288	3525
3330.035	3555
3331.783	3574
3333.531	3606
3335.28	3491
3337.025	3508
3338.771	3487
3340.518	3511
3342.262	3552
3344.009	3526
3345.753	3491
3347.497	3487
3349.24	3480
3350.983	3500
3352.726	3530
3354.469	3491
3356.212	3492
3357.952	3438
3359.694	3530
3361.434	3531
3363.176	3470
3364.916	3546
3366.654	3483
3368.394	3466
3370.132	3458
3371.871	3484
3373.61	3529
3375.346	3441
3377.083	3470
3378.82	3491
3380.556	3506
3382.292	3504
3384.027	3529
3385.763	3449
3387.497	3446
3389.231	3473
3390.965	3423
3392.698	3448
3394.431	3471
3396.164	3462
3397.896	3469
3399.627	3449
3401.36	3459
3403.09	3416
3404.82	3430
3406.55	3534
3408.279	3449
3410.01	3507
3411.738	3368
3413.467	3472
3415.194	3457
3416.92	3457
3418.647	3445
3420.375	3456
3422.102	3415
3423.827	3455
3425.553	3433
3427.277	3378
3429.003	3393
3430.727	3432
3432.451	3414
3434.173	3455
3435.896	3447
3437.62	3433
3439.343	3440
3441.063	3431
3442.785	3381
3444.505	3400
3446.226	3466
3447.948	3462
3449.666	3382
3451.386	3360
3453.104	3444
3454.823	3398
3456.541	3364
3458.259	3352
3459.976	3335
3461.693	3379
3463.408	3331
3465.125	3388
3466.841	3442
3468.556	3347
3470.271	3359
3471.985	3382
3473.698	3294
3475.414	3352
3477.126	3388
3478.838	3362
3480.55	3324
3482.263	3313
3483.975	3347
3485.686	3367
3487.396	3301
3489.106	3374
3490.817	3355
3492.526	3372
3494.236	3346
3495.944	3309
3497.652	3388
3499.359	3395
3501.066	3294
3502.775	3314
3504.481	3297
3506.187	3293
3507.893	3351
3509.598	3263
3511.304	3277
3513.009	3326
3514.713	3375
3516.417	3319
3518.12	3183
3519.821	3364
3521.525	3264
3523.228	3300
3524.929	3314
3526.631	3331
3528.33	3282
3530.032	3273
3531.733	3255
3533.433	3323
3535.131	3251
3536.83	3263
3538.529	3230
3540.227	3264
3541.925	3244
3543.623	3286
3545.319	3244
3547.016	3210
3548.712	3304
3550.408	3204
3552.103	3297
3553.798	3225
3555.491	3306
3557.188	3246
3558.88	3306
3560.574	3166
3562.266	3360
3563.959	3155
3565.651	3189
3567.343	3260
3569.035	3221
3570.725	3229
3572.415	3276
3574.106	3273
3575.797	3230
3577.485	3260
3579.174	3227
3580.863	3275
3582.551	3105
3584.238	3222
3585.926	3113
3587.613	3159
3589.3	3224
3590.986	3182
3592.671	3172
3594.357	3129
3596.042	3154
3597.726	3125
3599.41	3139
3601.094	3087
3602.778	3112
3604.461	3104
3606.143	3123
3607.825	3166
3609.507	3230
3611.188	3146
3612.87	3142
3614.551	3203
3616.229	3120
3617.909	3111
3619.589	3140
3621.269	3111
3622.948	3127
3624.625	3140
3626.302	3058
3627.98	3130
3629.657	3138
3631.334	3125
3633.01	3070
3634.686	3070
3636.361	3133
3638.036	3098
3639.712	3071
3641.385	3157
3643.06	3128
3644.732	3064
3646.405	3061
3648.08	3098
3649.751	3137
3651.424	3060
3653.094	3075
3654.766	3019
3656.436	3160
3658.106	3084
3659.777	3015
3661.446	3055
3663.115	3042
3664.783	3053
3666.452	3048
3668.121	3064
3669.788	3135
3671.454	3075
3673.121	3099
3674.789	3051
3676.455	3021
3678.12	3027
3679.784	3082
3681.45	3011
3683.114	3015
3684.779	3037
3686.442	3043
3688.105	3030
3689.768	3061
3691.43	3047
3693.093	2999
3694.754	3037
3696.415	3005
3698.076	3041
3699.736	3022
3701.396	2988
3703.057	3130
3704.716	3022
3706.375	3048
3708.034	3051
3709.692	3012
3711.351	3031
3713.008	3021
3714.665	3114
3716.321	3010
3717.977	3024
3719.634	3046
3721.29	3059
3722.945	3054
3724.598	3022
3726.253	3031
3727.907	3019
3729.561	2967
3731.214	3025
3732.867	2987
3734.518	3082
3736.171	2965
3737.824	2965
3739.474	3013
3741.125	3002
3742.775	3005
3744.425	3002
3746.074	2955
3747.725	3017
3749.373	2962
3751.022	2965
3752.669	2996
3754.318	3006
3755.966	2958
3757.612	3069
3759.259	3001
3760.905	2982
3762.55	3047
3764.197	3012
3765.842	3002
3767.486	2927
3769.131	3039
3770.774	3056
3772.417	2956
3774.061	2987
3775.705	3005
3777.347	2940
3778.988	2976
3780.629	3013
3782.271	2956
3783.912	2940
3785.552	3004
3787.192	2988
3788.831	2980
3790.472	2985
3792.112	2940
3793.75	2950
3795.388	2907
3797.024	3007
3798.661	2890
3800.3	2967
3801.936	2909
3803.572	2950
3805.208	2951
3806.844	2989
3808.48	2938
3810.115	2914
3811.748	2937
3813.382	2943
3815.016	2915
3816.649	2969
3818.283	2935
3819.914	2901
3821.547	2861
3823.178	2910
3824.809	2915
3826.441	2944
3828.072	2962
3829.701	2895
3831.331	2938
3832.96	2894
3834.591	2907
3836.219	2881
3837.847	2928
3839.475	2883
3841.102	2918
3842.729	2890
3844.357	2900
3845.984	2922
3847.609	2890
3849.234	2935
3850.86	2896
3852.485	2880
3854.11	2887
3855.734	2880
3857.357	2865
3858.981	2903
3860.603	2927
3862.227	2946
3863.848	2936
3865.471	2896
3867.092	2843
3868.713	2856
3870.334	2793
3871.954	2927
3873.575	2838
3875.194	2836
3876.813	2853
3878.433	2762
3880.051	2881
3881.669	2880
3883.286	2861
3884.904	2868
3886.52	2868
3888.138	2821
3889.754	2836
3891.37	2860
3892.985	2899
3894.6	2867
3896.216	2815
3897.831	2777
3899.444	2877
3901.058	2805
3902.67	2848
3904.283	2841
3905.897	2825
3907.509	2840
3909.121	2880
3910.731	2776
3912.342	2868
3913.954	2840
3915.563	2834
3917.174	2863
3918.783	2936
3920.391	2873
3922.002	2870
3923.611	2829
3925.218	2843
3926.826	2868
3928.432	2835
3930.039	2910
3931.647	2848
3933.253	2845
3934.859	2886
3936.464	2814
3938.068	2819
3939.675	2822
3941.278	2902
3942.883	2853
3944.486	2811
3946.089	2892
3947.692	2792
3949.295	2801
3950.898	2835
3952.499	2823
3954.1	2858
3955.7	2738
3957.303	2801
3958.903	2778
3960.502	2758
3962.101	2833
3963.7	2793
3965.301	2864
3966.899	2883
3968.497	2842
3970.094	2800
3971.691	2760
3973.288	2817
3974.885	2849
3976.481	2840
3978.077	2772
3979.672	2869
3981.267	2818
3982.863	2689
3984.457	2819
3986.051	2759
3987.645	2752
3989.238	2759
3990.831	2723
3992.425	2730
3994.017	2743
3995.607	2700
3997.199	2766
3998.79	2688
4000.382	2741
4001.973	2731
4003.561	2778
4005.151	2703
4006.741	2758
4008.331	2756
4009.918	2795
4011.507	2775
4013.095	2732
4014.681	2751
4016.269	2803
4017.856	2722
4019.443	2709
4021.028	2674
4022.614	2721
4024.199	2779
4025.785	2755
4027.37	2723
4028.953	2731
4030.536	2711
4032.12	2724
4033.704	2723
4035.287	2727
4036.869	2723
4038.45	2680
4040.032	2735
4041.613	2729
4043.195	2646
4044.776	2751
4046.356	2660
4047.935	2724
4049.515	2684
4051.095	2755
4052.674	2717
4054.251	2624
4055.829	2704
4057.406	2667
4058.985	2689
4060.562	2663
4062.139	2674
4063.715	2676
4065.29	2673
4066.865	2733
4068.442	2683
4070.016	2707
4071.59	2691
4073.164	2663
4074.738	2649
4076.312	2648
4077.885	2709
4079.458	2699
4081.03	2669
4082.602	2657
4084.173	2644
4085.745	2702
4087.315	2621
4088.886	2704
4090.456	2694
4092.026	2701
4093.596	2647
4095.165	2695
4096.734	2639
4098.301	2688
4099.869	2650
4101.437	2641
4103.006	2646
4104.572	2623
4106.139	2619
4107.704	2607
4109.27	2622
4110.837	2638
4112.401	2645
4113.966	2634
4115.53	2687
4117.094	2638
4118.659	2673
4120.223	2594
4121.785	2600
4123.347	2604
4124.909	2566
4126.471	2640
4128.034	2644
4129.595	2599
4131.155	2603
4132.716	2623
4134.275	2636
4135.836	2608
4137.395	2573
4138.955	2626
4140.513	2543
4142.071	2673
4143.628	2591
4145.188	2564
4146.745	2571
4148.302	2642
4149.858	2547
4151.414	2627
4152.971	2571
4154.526	2605
4156.081	2592
4157.635	2633
4159.189	2627
4160.745	2538
4162.298	2478
4163.852	2607
4165.405	2538
4166.957	2621
4168.51	2522
4170.063	2552
4171.614	2581
4173.166	2570
4174.717	2561
4176.267	2590
4177.817	2539
4179.368	2599
4180.917	2552
4182.466	2554
4184.016	2593
4185.564	2481
4187.112	2528
4188.66	2581
4190.207	2548
4191.754	2511
4193.301	2461
4194.848	2496
4196.394	2520
4197.94	2519
4199.484	2504
4201.03	2562
4202.575	2503
4204.12	2563
4205.663	2564
4207.207	2527
4208.75	2562
4210.292	2498
4211.836	2551
4213.378	2489
4214.92	2451
4216.46	2528
4218.002	2555
4219.544	2510
4221.083	2523
4222.625	2591
4224.164	2480
4225.703	2496
4227.244	2486
4228.782	2524
4230.32	2553
4231.857	2527
4233.395	2468
4234.933	2555
4236.471	2528
4238.007	2489
4239.542	2537
4241.078	2523
4242.614	2451
4244.15	2445
4245.685	2553
4247.219	2525
4248.753	2508
4250.287	2460
4251.82	2497
4253.354	2533
4254.887	2467
4256.419	2508
4257.951	2494
4259.483	2448
4261.016	2452
4262.547	2492
4264.078	2504
4265.608	2490
4267.137	2540
4268.668	2486
4270.197	2441
4271.727	2451
4273.254	2497
4274.783	2535
4276.311	2470
4277.84	2473
4279.366	2454
4280.894	2437
4282.42	2451
4283.946	2467
4285.473	2403
4286.998	2508
4288.523	2405
4290.047	2470
4291.572	2478
4293.096	2448
4294.622	2493
4296.144	2422
4297.668	2445
4299.19	2473
4300.713	2434
4302.236	2447
4303.758	2439
4305.279	2457
4306.799	2414
4308.321	2437
4309.842	2394
4311.361	2426
4312.882	2440
4314.401	2474
