400.0961	2376
402.6185	2470
405.1424	2510
407.6635	2467
410.1838	2458
412.7035	2427
415.2225	2511
417.7388	2501
420.2585	2549
422.7754	2549
425.2917	2528
427.8072	2654
430.3221	2681
432.8363	2631
435.3498	2619
437.8626	2596
440.3727	2545
442.8841	2637
445.3969	2605
447.907	2576
450.4142	2654
452.9229	2541
455.4289	2570
457.9362	2633
460.4449	2578
462.9488	2612
465.454	2657
467.9566	2586
470.4604	2589
472.9637	2592
475.4662	2590
477.966	2535
480.4671	2545
482.9656	2570
485.4633	2639
487.9645	2599
490.4608	2591
492.9566	2579
495.4536	2596
497.948	2628
500.4437	2649
502.9387	2618
505.431	2657
507.9226	2571
510.4136	2653
512.9079	2623
515.3975	2627
517.8864	2599
520.3746	2621
522.8622	2712
525.3491	2612
527.8394	2650
530.3249	2660
532.8098	2653
535.2939	2692
537.7774	2660
540.2623	2702
542.7444	2643
545.2259	2683
547.7067	2644
550.1868	2660
552.6683	2701
555.147	2661
557.6231	2668
560.1005	2696
562.5773	2722
565.0534	2727
567.5308	2672
570.0056	2763
572.4776	2737
574.951	2778
577.4237	2726
579.8978	2813
582.3671	2822
584.8378	2789
587.3079	2813
589.7773	2935
592.244	2786
594.714	2799
597.1793	2770
599.6461	2749
602.1121	2767
604.5754	2766
607.0421	2766
609.5042	2767
611.9675	2713
614.4282	2684
616.8902	2808
619.3515	2724
621.8122	2747
624.2702	2726
626.7296	2753
629.1863	2750
631.6423	2715
634.1017	2687
636.5563	2721
639.0104	2722
641.4658	2728
643.9185	2710
646.3725	2694
648.8239	2750
651.2766	2730
653.7266	2726
656.176	2724
658.6247	2802
661.0748	2819
663.5242	2795
665.9709	2814
668.417	2832
670.8624	2746
673.3092	2769
675.7533	2812
678.1968	2871
680.6395	2776
683.0817	2785
685.5251	2889
687.9659	2815
690.4061	2821
692.8456	2827
695.2844	2841
697.7226	2832
700.1621	2779
702.599	2839
705.0332	2846
707.4688	2796
709.9036	2869
712.3399	2898
714.7735	2800
717.2044	2860
719.6367	2895
722.0683	2919
724.4993	2865
726.9296	2951
729.3593	2870
731.7883	2857
734.2147	2946
736.6423	2860
739.0714	2929
741.4958	2959
743.9216	2947
746.3447	2922
748.7691	2931
751.1929	3004
753.616	2965
756.0366	2982
758.4584	2951
760.8776	2935
763.2982	2948
765.718	3008
768.1373	3025
770.5539	2984
772.9698	3089
775.3871	3023
777.8038	2981
780.2178	3055
782.6332	3015
785.0459	3004
787.458	2904
789.8714	3017
792.2842	3017
794.6943	2980
797.1038	3075
799.5127	3064
801.9209	3024
804.3324	2971
806.7393	3000
809.1456	3020
811.5513	2990
813.9562	3057
816.3625	3029
818.7663	3127
821.1693	3070
823.5718	3018
825.9735	3089
828.3746	3058
830.7771	3010
833.177	3027
835.5762	3090
837.9747	3071
840.3727	3091
842.772	3128
845.1666	3128
847.5626	3111
849.958	3141
852.3527	3138
854.7488	3105
857.1403	3177
859.5331	3100
861.9253	3180
864.3168	3150
866.7057	3088
869.098	3137
871.4876	3131
873.8746	3083
876.263	3146
878.6487	3089
881.0378	3141
883.4243	3151
885.8081	3105
888.1933	3142
890.5759	3075
892.9598	3067
895.343	3062
897.7256	3128
900.1057	3110
902.4871	3092
904.8659	3138
907.246	3144
909.6254	3231
912.0023	3211
914.3786	3184
916.7562	3243
919.1331	3216
921.5074	3304
923.8831	3228
926.2562	3312
928.6287	3277
931.0005	3242
933.3757	3309
935.7462	3364
938.1162	3373
940.4855	3370
942.8542	3392
945.2242	3482
947.5916	3528
949.9584	3560
952.3266	3673
954.6921	3939
957.0571	3993
959.4233	4137
961.787	4293
964.15	4187
966.5125	4032
968.8742	3862
971.2354	3763
973.5959	3614
975.9559	3470
978.3151	3426
980.6738	3328
983.0338	3279
985.3912	3256
987.7461	3279
990.1022	3238
992.4578	3264
994.8127	3118
997.1689	3276
999.5207	3192
1001.874	3237
1004.226	3325
1006.576	3215
1008.929	3221
1011.28	3219
1013.628	3264
1015.977	3315
1018.324	3174
1020.674	3294
1023.019	3282
1025.366	3246
1027.713	3358
1030.056	3345
1032.399	3283
1034.746	3394
1037.087	3298
1039.431	3336
1041.771	3423
1044.113	3293
1046.454	3392
1048.793	3222
1051.133	3333
1053.471	3332
1055.807	3399
1058.146	3380
1060.483	3403
1062.818	3369
1065.153	3433
1067.489	3380
1069.822	3397
1072.156	3347
1074.488	3452
1076.82	3461
1079.15	3454
1081.48	3405
1083.814	3388
1086.143	3357
1088.471	3328
1090.799	3319
1093.126	3340
1095.452	3341
1097.78	3379
1100.105	3299
1102.43	3300
1104.754	3287
1107.077	3286
1109.4	3260
1111.722	3353
1114.044	3313
1116.365	3264
1118.685	3350
1121.005	3358
1123.324	3269
1125.643	3346
1127.961	3267
1130.278	3301
1132.595	3284
1134.911	3370
1137.226	3327
1139.541	3336
1141.854	3309
1144.167	3311
1146.482	3210
1148.793	3226
1151.105	3391
1153.414	3347
1155.725	3315
1158.033	3379
1160.344	3348
1162.651	3378
1164.959	3310
1167.265	3445
1169.572	3334
1171.878	3330
1174.184	3395
1176.488	3370
1178.79	3329
1181.094	3399
1183.396	3331
1185.699	3279
1188.001	3333
1190.301	3245
1192.6	3348
1194.9	3403
1197.2	3335
1199.497	3351
1201.794	3335
1204.09	3287
1206.387	3336
1208.684	3403
1210.978	3275
1213.272	3358
1215.565	3347
1217.858	3382
1220.15	3314
1222.443	3453
1224.734	3417
1227.024	3465
1229.313	3399
1231.602	3418
1233.892	3506
1236.18	3456
1238.467	3493
1240.754	3466
1243.04	3554
1245.325	3451
1247.612	3498
1249.896	3435
1252.178	3464
1254.461	3568
1256.743	3551
1259.027	3475
1261.308	3509
1263.587	3477
1265.867	3528
1268.146	3506
1270.425	3546
1272.703	3586
1274.981	3505
1277.256	3485
1279.532	3460
1281.808	3497
1284.083	3488
1286.358	3513
1288.63	3471
1290.904	3434
1293.175	3511
1295.449	3420
1297.719	3511
1299.99	3464
1302.259	3499
1304.529	3428
1306.798	3479
1309.065	3545
1311.333	3423
1313.599	3566
1315.866	3417
1318.131	3432
1320.396	3449
1322.66	3528
1324.925	3423
1327.187	3454
1329.448	3473
1331.711	3545
1333.974	3462
1336.234	3451
1338.493	3480
1340.752	3378
1343.01	3447
1345.269	3524
1347.526	3423
1349.784	3493
1352.04	3490
1354.295	3418
1356.552	3472
1358.806	3466
1361.059	3478
1363.312	3475
1365.564	3442
1367.818	3473
1370.069	3525
1372.318	3419
1374.568	3463
1376.817	3420
1379.066	3515
1381.316	3468
1383.564	3491
1385.809	3437
1388.056	3502
1390.301	3491
1392.549	3543
1394.793	3509
1397.036	3569
1399.279	3536
1401.522	3506
1403.763	3551
1406.007	3629
1408.248	3550
1410.487	3596
1412.727	3589
1414.965	3633
1417.205	3597
1419.442	3647
1421.68	3552
1423.915	3519
1426.152	3566
1428.388	3579
1430.623	3597
1432.857	3587
1435.091	3651
1437.323	3558
1439.556	3658
1441.789	3663
1444.019	3660
1446.25	3679
1448.48	3598
1450.708	3604
1452.938	3728
1455.167	3626
1457.394	3627
1459.62	3680
1461.846	3645
1464.073	3622
1466.299	3628
1468.523	3692
1470.746	3615
1472.969	3552
1475.191	3560
1477.415	3605
1479.636	3568
1481.858	3517
1484.078	3554
1486.298	3507
1488.518	3542
1490.736	3475
1492.954	3531
1495.169	3516
1497.386	3461
1499.602	3499
1501.819	3421
1504.034	3467
1506.248	3371
1508.462	3571
1510.675	3430
1512.888	3482
1515.1	3457
1517.311	3416
1519.522	3529
1521.732	3507
1523.942	3430
1526.151	3461
1528.36	3500
1530.566	3450
1532.773	3483
1534.98	3563
1537.187	3462
1539.392	3454
1541.596	3473
1543.801	3542
1546.005	3431
1548.208	3461
1550.411	3471
1552.612	3559
1554.814	3554
1557.013	3461
1559.212	3509
1561.414	3561
1563.612	3569
1565.811	3494
1568.007	3499
1570.203	3574
1572.403	3558
1574.598	3599
1576.792	3598
1578.988	3590
1581.181	3489
1583.376	3577
1585.568	3647
1587.761	3513
1589.952	3570
1592.143	3572
1594.333	3617
1596.524	3565
1598.715	3579
1600.903	3571
1603.091	3643
1605.278	3647
1607.466	3611
1609.652	3614
1611.838	3633
1614.023	3620
1616.207	3588
1618.391	3610
1620.576	3652
1622.759	3634
1624.941	3596
1627.123	3563
1629.304	3669
1631.484	3628
1633.664	3624
1635.844	3613
1638.022	3583
1640.201	3666
1642.38	3673
1644.556	3691
1646.732	3701
1648.908	3710
1651.084	3647
1653.257	3621
1655.433	3762
1657.607	3714
1659.779	3744
1661.951	3698
1664.122	3766
1666.295	3663
1668.467	3664
1670.635	3669
1672.805	3716
1674.973	3725
1677.142	3732
1679.31	3703
1681.478	3664
1683.644	3638
1685.81	3683
1687.975	3727
1690.142	3701
1692.305	3593
1694.468	3634
1696.632	3704
1698.794	3593
1700.957	3631
1703.119	3631
1705.279	3603
1707.439	3621
1709.598	3624
1711.758	3567
1713.917	3612
1716.075	3561
1718.231	3574
1720.388	3585
1722.543	3534
1724.702	3570
1726.856	3567
1729.01	3660
1731.164	3590
1733.317	3566
1735.471	3544
1737.623	3509
1739.774	3643
1741.925	3615
1744.075	3626
1746.225	3567
1748.376	3475
1750.524	3630
1752.672	3580
1754.82	3630
1756.965	3537
1759.113	3612
1761.259	3665
1763.405	3571
1765.549	3610
1767.694	3586
1769.836	3585
1771.981	3607
1774.123	3571
1776.264	3602
1778.405	3624
1780.546	3620
1782.687	3569
1784.827	3713
1786.966	3604
1789.103	3691
1791.242	3568
1793.381	3641
1795.517	3611
1797.653	3670
1799.788	3630
1801.923	3618
1804.057	3690
1806.193	3637
1808.326	3659
1810.457	3619
1812.59	3609
1814.721	3708
1816.855	3550
1818.984	3672
1821.113	3751
1823.244	3600
1825.372	3662
1827.499	3602
1829.63	3553
1831.756	3629
1833.882	3629
1836.007	3657
1838.132	3589
1840.26	3575
1842.384	3598
1844.507	3578
1846.63	3685
1848.752	3591
1850.875	3598
1852.996	3617
1855.118	3600
1857.238	3680
1859.358	3603
1861.477	3484
1863.597	3591
1865.715	3528
1867.832	3514
1869.948	3709
1872.064	3663
1874.181	3619
1876.297	3674
1878.411	3688
1880.526	3632
1882.639	3554
1884.752	3606
1886.865	3657
1888.977	3631
1891.089	3649
1893.2	3577
1895.308	3578
1897.42	3653
1899.53	3632
1901.639	3633
1903.745	3652
1905.853	3670
1907.962	3631
1910.067	3610
1912.174	3695
1914.278	3763
1916.383	3622
1918.486	3704
1920.592	3583
1922.694	3738
1924.797	3579
1926.898	3713
1929	3755
1931.102	3571
1933.203	3722
1935.301	3639
1937.401	3625
1939.499	3702
1941.598	3697
1943.697	3687
1945.793	3630
1947.888	3663
1949.985	3701
1952.08	3715
1954.176	3632
1956.269	3712
1958.364	3656
1960.457	3696
1962.549	3639
1964.642	3711
1966.733	3680
1968.823	3799
1970.913	3664
1973.005	3659
1975.093	3722
1977.184	3696
1979.271	3677
1981.359	3686
1983.446	3693
1985.532	3730
1987.619	3735
1989.705	3654
1991.789	3675
1993.874	3696
1995.956	3655
1998.041	3572
2000.123	3669
2002.206	3700
2004.287	3611
2006.368	3683
2008.449	3621
2010.529	3643
2012.609	3600
2014.688	3578
2016.766	3649
2018.843	3592
2020.922	3592
2022.999	3634
2025.074	3591
2027.15	3666
2029.225	3622
2031.299	3580
2033.375	3671
2035.447	3706
2037.52	3673
2039.592	3726
2041.664	3666
2043.736	3627
2045.807	3645
2047.876	3646
2049.947	3696
2052.015	3620
2054.086	3680
2056.153	3694
2058.221	3645
2060.288	3723
2062.353	3706
2064.42	3645
2066.486	3681
2068.55	3660
2070.614	3696
2072.678	3697
2074.741	3639
2076.805	3602
2078.866	3536
2080.929	3668
2082.99	3582
2085.049	3692
2087.109	3744
2089.17	3706
2091.228	3674
2093.286	3720
2095.344	3601
2097.4	3701
2099.46	3671
2101.516	3689
2103.572	3756
2105.626	3693
2107.679	3614
2109.735	3723
2111.788	3680
2113.841	3654
2115.894	3679
2117.945	3684
2119.997	3695
2122.049	3721
2124.1	3733
2126.148	3687
2128.197	3644
2130.246	3634
2132.296	3671
2134.342	3661
2136.39	3656
2138.437	3613
2140.483	3665
2142.527	3621
2144.574	3580
2146.619	3645
2148.661	3755
2150.705	3700
2152.747	3650
2154.792	3621
2156.832	3707
2158.874	3533
2160.915	3662
2162.954	3634
2164.995	3619
2167.034	3688
2169.072	3589
2171.111	3627
2173.148	3618
2175.186	3643
2177.223	3619
2179.258	3647
2181.294	3581
2183.328	3649
2185.362	3677
2187.398	3565
2189.431	3638
2191.463	3616
2193.495	3722
2195.528	3617
2197.56	3568
2199.59	3507
2201.62	3668
2203.649	3576
2205.678	3647
2207.708	3622
2209.737	3613
2211.764	3647
2213.791	3636
2215.817	3637
2217.843	3567
2219.87	3627
2221.895	3589
2223.919	3591
2225.942	3566
2227.966	3611
2229.988	3557
2232.012	3551
2234.032	3662
2236.054	3619
2238.074	3503
2240.095	3546
2242.116	3536
2244.135	3554
2246.153	3546
2248.171	3580
2250.188	3679
2252.208	3472
2254.223	3663
2256.239	3611
2258.255	3592
2260.269	3544
2262.283	3602
2264.3	3643
2266.312	3561
2268.325	3669
2270.336	3657
2272.349	3522
2274.362	3561
2276.372	3655
2278.383	3628
2280.392	3643
2282.402	3591
2284.409	3623
2286.418	3548
2288.427	3591
2290.433	3597
2292.441	3589
2294.446	3650
2296.453	3589
2298.459	3678
2300.463	3631
2302.466	3572
2304.471	3580
2306.475	3626
2308.477	3610
2310.478	3531
2312.481	3620
2314.481	3594
2316.481	3576
2318.482	3628
2320.482	3640
2322.48	3556
2324.48	3524
2326.478	3573
2328.476	3566
2330.473	3594
2332.469	3590
2334.465	3476
2336.46	3544
2338.454	3593
2340.45	3546
2342.444	3520
2344.437	3528
2346.43	3462
2348.421	3554
2350.414	3472
2352.405	3488
2354.396	3538
2356.386	3616
2358.376	3601
2360.366	3520
2362.355	3540
2364.343	3561
2366.331	3632
2368.317	3574
2370.304	3521
2372.292	3562
2374.278	3529
2376.262	3549
2378.247	3529
2380.23	3531
2382.216	3496
2384.199	3439
2386.181	3550
2388.163	3469
2390.144	3473
2392.127	3509
2394.107	3485
2396.087	3396
2398.066	3509
2400.046	3568
2402.023	3475
2404.004	3528
2405.981	3469
2407.957	3556
2409.934	3450
2411.91	3453
2413.886	3557
2415.862	3425
2417.836	3488
2419.809	3504
2421.784	3566
2423.756	3558
2425.73	3444
2427.701	3482
2429.672	3494
2431.644	3560
2433.615	3440
2435.586	3384
2437.555	3513
2439.523	3543
2441.491	3449
2443.459	3477
2445.428	3534
2447.395	3453
2449.361	3511
2451.327	3441
2453.292	3380
2455.257	3467
2457.223	3491
2459.187	3409
2461.15	3446
2463.113	3445
2465.076	3401
2467.039	3524
2468.999	3555
2470.96	3452
2472.921	3432
2474.881	3448
2476.841	3497
2478.8	3473
2480.759	3476
2482.717	3532
2484.675	3473
2486.63	3411
2488.589	3475
2490.545	3522
2492.5	3465
2494.455	3458
2496.408	3476
2498.364	3456
2500.318	3464
2502.27	3494
2504.223	3446
2506.174	3481
2508.126	3400
2510.078	3465
2512.03	3496
2513.979	3505
2515.927	3452
2517.877	3434
2519.826	3413
2521.775	3491
2523.722	3435
2525.668	3477
2527.616	3417
2529.561	3417
2531.508	3477
2533.452	3509
2535.398	3391
2537.342	3473
2539.284	3453
2541.229	3488
2543.173	3458
2545.114	3413
2547.055	3462
2548.996	3411
2550.938	3447
2552.878	3463
2554.817	3421
2556.756	3467
2558.695	3381
2560.633	3480
2562.572	3466
2564.509	3367
2566.445	3416
2568.382	3484
2570.317	3432
2572.254	3492
2574.189	3388
2576.123	3454
2578.057	3425
2579.99	3429
2581.923	3373
2583.855	3447
2585.788	3522
2587.719	3406
2589.65	3532
2591.579	3423
2593.511	3429
2595.44	3473
2597.37	3460
2599.297	3420
2601.225	3379
2603.153	3406
2605.08	3505
2607.007	3476
2608.932	3438
2610.858	3411
2612.782	3422
2614.709	3512
2616.632	3450
2618.556	3477
2620.478	3349
2622.401	3435
2624.324	3451
2626.247	3410
2628.167	3383
2630.088	3505
2632.008	3480
2633.928	3523
2635.848	3440
2637.766	3505
2639.684	3442
2641.603	3467
2643.519	3474
2645.437	3563
2647.353	3420
2649.27	3486
2651.184	3449
2653.099	3491
2655.014	3478
2656.928	3452
2658.842	3465
2660.755	3389
2662.667	3387
2664.579	3470
2666.491	3435
2668.402	3531
2670.312	3446
2672.222	3400
2674.132	3490
2676.042	3413
2677.951	3441
2679.859	3338
2681.766	3428
2683.674	3476
2685.582	3391
2687.488	3439
2689.392	3482
2691.298	3390
2693.202	3468
2695.107	3436
2697.012	3345
2698.914	3438
2700.817	3511
2702.72	3320
2704.622	3388
2706.524	3422
2708.425	3328
2710.326	3383
2712.225	3432
2714.125	3369
2716.024	3342
2717.923	3430
2719.822	3372
2721.719	3362
2723.616	3405
2725.512	3388
2727.41	3415
2729.305	3444
2731.201	3360
2733.095	3394
2734.99	3450
2736.884	3389
2738.778	3434
2740.67	3444
2742.562	3410
2744.455	3336
2746.346	3367
2748.238	3388
2750.129	3400
2752.018	3384
2753.907	3380
2755.797	3376
2757.687	3379
2759.575	3429
2761.462	3392
2763.349	3409
2765.237	3372
2767.124	3418
2769.009	3375
2770.894	3343
2772.779	3411
2774.663	3373
2776.547	3434
2778.431	3294
2780.314	3390
2782.197	3423
2784.078	3438
2785.96	3407
2787.842	3388
2789.723	3348
2791.603	3412
2793.483	3357
2795.362	3373
2797.241	3395
2799.121	3412
2800.997	3309
2802.874	3319
2804.751	3352
2806.628	3370
2808.506	3320
2810.38	3355
2812.255	3338
2814.13	3387
2816.003	3379
2817.878	3412
2819.752	3362
2821.623	3361
2823.496	3322
2825.368	3429
2827.238	3387
2829.111	3393
2830.98	3409
2832.851	3423
2834.719	3302
2836.589	3282
2838.458	3425
2840.327	3364
2842.193	3345
2844.061	3432
2845.927	3391
2847.794	3409
2849.66	3455
2851.525	3394
2853.39	3418
2855.254	3418
2857.117	3435
2858.983	3459
2860.845	3427
2862.707	3374
2864.569	3463
2866.431	3493
2868.293	3596
2870.154	3573
2872.013	3622
2873.873	3618
2875.733	3601
2877.592	3529
2879.451	3649
2881.309	3791
2883.166	3672
2885.022	3739
2886.879	3775
2888.736	3681
2890.591	3761
2892.446	3797
2894.301	3764
2896.155	3722
2898.009	3733
2899.863	3771
2901.716	3679
2903.568	3720
2905.419	3767
2907.27	3784
2909.123	3692
2910.973	3751
2912.824	3779
2914.673	3784
2916.521	3803
2918.372	3851
2920.22	3903
2922.067	3939
2923.914	3939
2925.761	3931
2927.607	3998
2929.455	4031
2931.301	4066
2933.144	4066
2934.99	4070
2936.833	4200
2938.678	4205
2940.522	4158
2942.364	4224
2944.207	4307
2946.048	4338
2947.891	4392
2949.731	4367
2951.571	4330
2953.412	4261
2955.25	4242
2957.09	4280
2958.93	4204
2960.767	4167
2962.606	4120
2964.443	4045
2966.279	4113
2968.116	4030
2969.953	3998
2971.788	3960
2973.623	3940
2975.457	3875
2977.292	3920
2979.127	3880
2980.959	3911
2982.792	3813
2984.624	3781
2986.455	3754
2988.288	3826
2990.119	3817
2991.949	3709
2993.779	3821
2995.608	3686
2997.439	3648
2999.268	3641
3001.096	3606
3002.923	3576
3004.751	3550
3006.578	3516
3008.406	3466
3010.232	3455
3012.057	3399
3013.883	3455
3015.706	3430
3017.532	3371
3019.356	3348
3021.179	3360
3023.002	3354
3024.823	3358
3026.646	3307
3028.469	3303
3030.289	3260
3032.11	3244
3033.93	3306
3035.749	3255
3037.57	3240
3039.39	3285
3041.207	3304
3043.026	3324
3044.842	3201
3046.661	3231
3048.477	3301
3050.294	3308
3052.109	3167
3053.925	3208
3055.739	3270
3057.555	3202
3059.368	3253
3061.181	3289
3062.995	3277
3064.807	3308
3066.62	3219
3068.433	3244
3070.243	3205
3072.054	3227
3073.865	3201
3075.675	3185
3077.485	3195
3079.293	3190
3081.102	3169
3082.911	3235
3084.719	3196
3086.527	3209
3088.333	3211
3090.139	3231
3091.945	3202
3093.75	3177
3095.557	3159
3097.361	3157
3099.165	3277
3100.969	3194
3102.772	3147
3104.575	3173
3106.379	3182
3108.181	3124
3109.982	3168
3111.783	3126
3113.584	3140
3115.386	3062
3117.186	3141
3118.985	3054
3120.783	3185
3122.582	3096
3124.381	3085
3126.179	3064
3127.975	3120
3129.772	3121
3131.569	3134
3133.365	3152
3135.161	3051
3136.956	3148
3138.751	3119
3140.544	3131
3142.338	3055
3144.132	3111
3145.925	3105
3147.717	3105
3149.509	3115
3151.301	3139
3153.091	3098
3154.884	3053
3156.673	3010
3158.462	3067
3160.252	3081
3162.041	3105
3163.831	3115
3165.618	3007
3167.405	3112
3169.193	3156
3170.979	3061
3172.767	3025
3174.553	3080
3176.338	3050
3178.123	3012
3179.907	3131
3181.692	3123
3183.477	3100
3185.259	3076
3187.042	3074
3188.824	3047
3190.607	3102
3192.389	3055
3194.17	3105
3195.951	3065
3197.73	3052
3199.51	3039
3201.289	2989
3203.07	3119
3204.848	3062
3206.626	3102
3208.403	3105
3210.18	2977
3211.959	3027
3213.735	3091
3215.511	3046
3217.285	3049
3219.06	3047
3220.836	3059
3222.611	3063
3224.384	3119
3226.158	3051
3227.929	3138
3229.702	3071
3231.476	3122
3233.248	3039
3235.018	3067
3236.789	3066
3238.56	3062
3240.33	3055
3242.1	2997
3243.869	3028
3245.637	3124
3247.405	3059
3249.172	3115
3250.941	3011
3252.707	2982
3254.474	3050
3256.24	3045
3258.006	3038
3259.772	3028
3261.537	3121
3263.301	3102
3265.065	3070
3266.828	3014
3268.592	3052
3270.355	3103
3272.117	3054
3273.878	3011
3275.64	3125
3277.401	3066
3279.162	3030
3280.922	3023
3282.682	3055
3284.441	3058
3286.199	3082
3287.959	3063
3289.716	3069
3291.475	3101
3293.232	3130
3294.988	3127
3296.744	3080
3298.501	3067
3300.256	3119
3302.011	3090
3303.766	3118
3305.52	3071
3307.275	3037
3309.028	3095
3310.781	3081
3312.533	3068
3314.285	3137
3316.038	3069
3317.789	3107
3319.54	3026
3321.289	3056
3323.039	3078
3324.789	3067
3326.539	3119
3328.288	3119
3330.035	3047
3331.783	3005
3333.531	3069
3335.28	3042
3337.025	3054
3338.771	3088
3340.518	3093
3342.262	2999
3344.009	3063
3345.753	3064
3347.497	3008
3349.24	2983
3350.983	2984
3352.726	3027
3354.469	3006
3356.212	2997
3357.952	3043
3359.694	3008
3361.434	2977
3363.176	3010
3364.916	3041
3366.654	3030
3368.394	2951
3370.132	3015
3371.871	2984
3373.61	3013
3375.346	3015
3377.083	2943
3378.82	3028
3380.556	3001
3382.292	3032
3384.027	2982
3385.763	2974
3387.497	2919
3389.231	2917
3390.965	2982
3392.698	2926
3394.431	2983
3396.164	2972
3397.896	2945
3399.627	2896
3401.36	2924
3403.09	2917
3404.82	2970
3406.55	2918
3408.279	2925
3410.01	2994
3411.738	2956
3413.467	2964
3415.194	3046
3416.92	2965
3418.647	2936
3420.375	2971
3422.102	2900
3423.827	2926
3425.553	2980
3427.277	2944
3429.003	2920
3430.727	2934
3432.451	2953
3434.173	2941
3435.896	2872
3437.62	2920
3439.343	2944
3441.063	2925
3442.785	2957
3444.505	2880
3446.226	2895
3447.948	2895
3449.666	2874
3451.386	2867
3453.104	2840
3454.823	2860
3456.541	2898
3458.259	2796
3459.976	2890
3461.693	2837
3463.408	2882
3465.125	2892
3466.841	2834
3468.556	2838
3470.271	2803
3471.985	2860
3473.698	2823
3475.414	2820
3477.126	2873
3478.838	2887
3480.55	2850
3482.263	2807
3483.975	2826
3485.686	2837
3487.396	2779
3489.106	2790
3490.817	2801
3492.526	2816
3494.236	2778
3495.944	2817
3497.652	2738
3499.359	2816
3501.066	2803
3502.775	2752
3504.481	2796
3506.187	2768
3507.893	2749
3509.598	2757
3511.304	2692
3513.009	2750
3514.713	2711
3516.417	2687
3518.12	2753
3519.821	2691
3521.525	2732
3523.228	2748
3524.929	2689
3526.631	2694
3528.33	2790
3530.032	2692
3531.733	2754
3533.433	2658
3535.131	2689
3536.83	2774
3538.529	2729
3540.227	2723
3541.925	2749
3543.623	2644
3545.319	2689
3547.016	2653
3548.712	2699
3550.408	2630
3552.103	2744
3553.798	2746
3555.491	2724
3557.188	2660
3558.88	2771
3560.574	2713
3562.266	2665
3563.959	2659
3565.651	2681
3567.343	2633
3569.035	2627
3570.725	2724
3572.415	2653
3574.106	2698
3575.797	2684
3577.485	2665
3579.174	2621
3580.863	2681
3582.551	2657
3584.238	2608
3585.926	2683
3587.613	2628
3589.3	2594
3590.986	2622
3592.671	2588
3594.357	2640
3596.042	2635
3597.726	2563
3599.41	2577
3601.094	2583
3602.778	2559
3604.461	2586
3606.143	2523
3607.825	2565
3609.507	2564
3611.188	2561
3612.87	2615
3614.551	2544
3616.229	2529
3617.909	2566
3619.589	2534
3621.269	2577
3622.948	2544
3624.625	2578
3626.302	2490
3627.98	2486
3629.657	2499
3631.334	2548
3633.01	2508
3634.686	2502
3636.361	2496
3638.036	2491
3639.712	2461
3641.385	2568
3643.06	2438
3644.732	2538
3646.405	2437
3648.08	2456
3649.751	2543
3651.424	2460
3653.094	2496
3654.766	2484
3656.436	2521
3658.106	2459
3659.777	2477
3661.446	2459
3663.115	2385
3664.783	2456
3666.452	2453
3668.121	2491
3669.788	2461
3671.454	2476
3673.121	2406
3674.789	2402
3676.455	2484
3678.12	2450
3679.784	2467
3681.45	2425
3683.114	2467
3684.779	2426
3686.442	2368
3688.105	2403
3689.768	2376
3691.43	2418
3693.093	2416
3694.754	2451
3696.415	2411
3698.076	2406
3699.736	2468
3701.396	2364
3703.057	2422
3704.716	2429
3706.375	2400
3708.034	2405
3709.692	2386
3711.351	2374
3713.008	2400
3714.665	2412
3716.321	2444
3717.977	2440
3719.634	2375
3721.29	2349
3722.945	2322
3724.598	2423
3726.253	2403
3727.907	2371
3729.561	2352
3731.214	2330
3732.867	2362
3734.518	2407
3736.171	2413
3737.824	2413
3739.474	2421
3741.125	2316
3742.775	2327
3744.425	2424
3746.074	2349
3747.725	2405
3749.373	2381
3751.022	2436
3752.669	2382
3754.318	2373
3755.966	2339
3757.612	2348
3759.259	2344
3760.905	2376
3762.55	2329
3764.197	2382
3765.842	2365
3767.486	2307
3769.131	2337
3770.774	2381
3772.417	2361
3774.061	2397
3775.705	2327
3777.347	2344
3778.988	2293
3780.629	2321
3782.271	2281
3783.912	2244
3785.552	2278
3787.192	2383
3788.831	2233
3790.472	2295
3792.112	2283
3793.75	2329
3795.388	2251
3797.024	2276
3798.661	2268
3800.3	2318
3801.936	2256
3803.572	2367
3805.208	2251
3806.844	2342
3808.48	2335
3810.115	2244
3811.748	2307
3813.382	2273
3815.016	2309
3816.649	2259
3818.283	2232
3819.914	2266
3821.547	2302
3823.178	2301
3824.809	2212
3826.441	2303
3828.072	2271
3829.701	2243
3831.331	2226
3832.96	2263
3834.591	2201
3836.219	2167
3837.847	2261
3839.475	2206
3841.102	2319
3842.729	2259
3844.357	2229
3845.984	2228
3847.609	2313
3849.234	2241
3850.86	2241
3852.485	2239
3854.11	2263
3855.734	2242
3857.357	2232
3858.981	2194
3860.603	2296
3862.227	2235
3863.848	2285
3865.471	2207
3867.092	2162
3868.713	2212
3870.334	2200
3871.954	2216
3873.575	2190
3875.194	2257
3876.813	2225
3878.433	2218
3880.051	2177
3881.669	2198
3883.286	2191
3884.904	2283
3886.52	2208
3888.138	2273
3889.754	2173
3891.37	2196
3892.985	2182
3894.6	2191
3896.216	2143
3897.831	2115
3899.444	2208
3901.058	2169
3902.67	2140
3904.283	2197
3905.897	2130
3907.509	2248
3909.121	2132
3910.731	2157
3912.342	2165
3913.954	2237
3915.563	2177
3917.174	2118
3918.783	2193
3920.391	2129
3922.002	2179
3923.611	2197
3925.218	2206
3926.826	2145
3928.432	2132
3930.039	2155
3931.647	2179
3933.253	2220
3934.859	2150
3936.464	2153
3938.068	2108
3939.675	2172
3941.278	2189
3942.883	2194
3944.486	2127
3946.089	2180
3947.692	2179
3949.295	2177
3950.898	2152
3952.499	2160
3954.1	2124
3955.7	2121
3957.303	2107
3958.903	2099
3960.502	2224
3962.101	2153
3963.7	2144
3965.301	2178
3966.899	2134
3968.497	2143
3970.094	2162
3971.691	2122
3973.288	2107
3974.885	2142
3976.481	2118
3978.077	2068
3979.672	2105
3981.267	2143
3982.863	2198
3984.457	2124
3986.051	2154
3987.645	2085
3989.238	2119
3990.831	2130
3992.425	2090
3994.017	2105
3995.607	2090
3997.199	2115
3998.79	2097
4000.382	2122
4001.973	2117
4003.561	2110
4005.151	2112
4006.741	2121
4008.331	2077
4009.918	2091
4011.507	2050
4013.095	2050
4014.681	2051
4016.269	2017
4017.856	2073
4019.443	2045
4021.028	2064
4022.614	2071
4024.199	2019
4025.785	1998
4027.37	2063
4028.953	2113
4030.536	2011
4032.12	2040
4033.704	2028
4035.287	2051
4036.869	2039
4038.45	2028
4040.032	2038
4041.613	2054
4043.195	2023
4044.776	2027
4046.356	1998
4047.935	2069
4049.515	2026
4051.095	2016
4052.674	1953
4054.251	2032
4055.829	1967
4057.406	2054
4058.985	2033
4060.562	2035
4062.139	1946
4063.715	2054
4065.29	2009
4066.865	2018
4068.442	2005
4070.016	2016
4071.59	2021
4073.164	2017
4074.738	1996
4076.312	2024
4077.885	1961
4079.458	1971
4081.03	1996
4082.602	2046
4084.173	1985
4085.745	2032
4087.315	2011
4088.886	1993
4090.456	1982
4092.026	2032
4093.596	2011
4095.165	1990
4096.734	1955
4098.301	1987
4099.869	1975
4101.437	2015
4103.006	1922
4104.572	1960
4106.139	1983
4107.704	1906
4109.27	1921
4110.837	1906
4112.401	1966
4113.966	1947
4115.53	1972
4117.094	1961
4118.659	1920
4120.223	1883
4121.785	1993
4123.347	1946
4124.909	1922
4126.471	1972
4128.034	1910
4129.595	1946
4131.155	1910
4132.716	1924
4134.275	1941
4135.836	1873
4137.395	1889
4138.955	1910
4140.513	1900
4142.071	1943
4143.628	1850
4145.188	1944
4146.745	1890
4148.302	1913
4149.858	1935
4151.414	1891
4152.971	1885
4154.526	1922
4156.081	1886
4157.635	1911
4159.189	1911
4160.745	1912
4162.298	1883
4163.852	1896
4165.405	1867
4166.957	1917
4168.51	1876
4170.063	1871
4171.614	1921
4173.166	1887
4174.717	1898
4176.267	1860
4177.817	1875
4179.368	1853
4180.917	1884
4182.466	1900
4184.016	1882
4185.564	1911
4187.112	1885
4188.66	1860
4190.207	1852
4191.754	1806
4193.301	1832
4194.848	1860
4196.394	1843
4197.94	1837
4199.484	1834
4201.03	1849
4202.575	1872
4204.12	1851
4205.663	1846
4207.207	1803
4208.75	1872
4210.292	1853
4211.836	1811
4213.378	1838
4214.92	1846
4216.46	1813
4218.002	1839
4219.544	1814
4221.083	1821
4222.625	1860
4224.164	1873
4225.703	1850
4227.244	1804
4228.782	1835
4230.32	1792
4231.857	1760
4233.395	1729
4234.933	1887
4236.471	1816
4238.007	1879
4239.542	1786
4241.078	1751
4242.614	1861
4244.15	1798
4245.685	1766
4247.219	1790
4248.753	1791
4250.287	1799
4251.82	1805
4253.354	1810
4254.887	1781
4256.419	1821
4257.951	1790
4259.483	1817
4261.016	1768
4262.547	1792
4264.078	1780
4265.608	1810
4267.137	1812
4268.668	1811
4270.197	1799
4271.727	1757
4273.254	1814
4274.783	1803
4276.311	1781
4277.84	1793
4279.366	1807
4280.894	1822
4282.42	1795
4283.946	1749
4285.473	1793
4286.998	1772
4288.523	1764
4290.047	1777
4291.572	1720
4293.096	1797
4294.622	1782
4296.144	1766
4297.668	1772
4299.19	1763
4300.713	1759
4302.236	1759
4303.758	1741
4305.279	1714
4306.799	1785
4308.321	1791
4309.842	1779
4311.361	1759
4312.882	1728
4314.401	1786
