400.0961	2951
402.6185	2908
405.1424	2958
407.6635	2972
410.1838	2990
412.7035	2934
415.2225	2984
417.7388	3012
420.2585	3054
422.7754	3084
425.2917	3122
427.8072	3157
430.3221	3119
432.8363	3170
435.3498	3168
437.8626	3257
440.3727	3199
442.8841	3174
445.3969	3156
447.907	3070
450.4142	3182
452.9229	3143
455.4289	3168
457.9362	3179
460.4449	3133
462.9488	3056
465.454	3134
467.9566	3089
470.4604	3141
472.9637	3084
475.4662	3140
477.966	3179
480.4671	3053
482.9656	3211
485.4633	3216
487.9645	3173
490.4608	3115
492.9566	3233
495.4536	3148
497.948	3215
500.4437	3156
502.9387	3133
505.431	3184
507.9226	3168
510.4136	3178
512.9079	3241
515.3975	3217
517.8864	3247
520.3746	3219
522.8622	3236
525.3491	3270
527.8394	3221
530.3249	3261
532.8098	3291
535.2939	3167
537.7774	3287
540.2623	3271
542.7444	3224
545.2259	3250
547.7067	3241
550.1868	3227
552.6683	3268
555.147	3264
557.6231	3325
560.1005	3228
562.5773	3323
565.0534	3254
567.5308	3303
570.0056	3269
572.4776	3346
574.951	3331
577.4237	3401
579.8978	3291
582.3671	3380
584.8378	3547
587.3079	3420
589.7773	3342
592.244	3344
594.714	3420
597.1793	3403
599.6461	3341
602.1121	3370
604.5754	3366
607.0421	3372
609.5042	3351
611.9675	3367
614.4282	3325
616.8902	3365
619.3515	3381
621.8122	3287
624.2702	3285
626.7296	3321
629.1863	3257
631.6423	3307
634.1017	3281
636.5563	3312
639.0104	3323
641.4658	3433
643.9185	3283
646.3725	3403
648.8239	3414
651.2766	3350
653.7266	3349
656.176	3451
658.6247	3360
661.0748	3351
663.5242	3371
665.9709	3408
668.417	3456
670.8624	3377
673.3092	3424
675.7533	3451
678.1968	3359
680.6395	3401
683.0817	3370
685.5251	3410
687.9659	3434
690.4061	3430
692.8456	3455
695.2844	3444
697.7226	3451
700.1621	3492
702.599	3442
705.0332	3409
707.4688	3580
709.9036	3452
712.3399	3511
714.7735	3511
717.2044	3518
719.6367	3607
722.0683	3451
724.4993	3479
726.9296	3461
729.3593	3524
731.7883	3568
734.2147	3608
736.6423	3569
739.0714	3501
741.4958	3562
743.9216	3660
746.3447	3573
748.7691	3609
751.1929	3663
753.616	3636
756.0366	3710
758.4584	3695
760.8776	3671
763.2982	3708
765.718	3666
768.1373	3645
770.5539	3634
772.9698	3603
775.3871	3694
777.8038	3656
780.2178	3736
782.6332	3640
785.0459	3687
787.458	3738
789.8714	3682
792.2842	3718
794.6943	3718
797.1038	3691
799.5127	3647
801.9209	3742
804.3324	3705
806.7393	3693
809.1456	3758
811.5513	3756
813.9562	3729
816.3625	3737
818.7663	3728
821.1693	3745
823.5718	3753
825.9735	3676
828.3746	3699
830.7771	3734
833.177	3781
835.5762	3706
837.9747	3700
840.3727	3702
842.772	3781
845.1666	3775
847.5626	3793
849.958	3844
852.3527	3911
854.7488	3854
857.1403	3863
859.5331	3839
861.9253	3871
864.3168	3897
866.7057	3825
869.098	3834
871.4876	3816
873.8746	3777
876.263	3843
878.6487	3760
881.0378	3859
883.4243	3800
885.8081	3695
888.1933	3770
890.5759	3861
892.9598	3808
895.343	3774
897.7256	3798
900.1057	3798
902.4871	3827
904.8659	3799
907.246	3831
909.6254	3841
912.0023	3848
914.3786	3958
916.7562	4004
919.1331	4108
921.5074	4052
923.8831	4109
926.2562	3987
928.6287	4071
931.0005	4082
933.3757	4098
935.7462	4019
938.1162	4058
940.4855	4161
942.8542	4153
945.2242	4171
947.5916	4290
949.9584	4392
952.3266	4549
954.6921	4709
957.0571	4873
959.4233	5103
961.787	5100
964.15	5091
966.5125	5048
968.8742	4788
971.2354	4509
973.5959	4381
975.9559	4285
978.3151	4071
980.6738	4108
983.0338	4063
985.3912	4054
987.7461	4050
990.1022	4039
992.4578	3970
994.8127	3946
997.1689	3982
999.5207	4037
1001.874	4083
1004.226	4013
1006.576	4006
1008.929	3941
1011.28	3991
1013.628	3916
1015.977	3985
1018.324	4001
1020.674	4013
1023.019	4034
1025.366	4032
1027.713	3934
1030.056	4056
1032.399	4056
1034.746	4090
1037.087	4046
1039.431	4018
1041.771	4111
1044.113	4001
1046.454	4099
1048.793	4110
1051.133	4066
1053.471	4105
1055.807	4082
1058.146	4102
1060.483	4086
1062.818	4108
1065.153	4151
1067.489	4107
1069.822	4180
1072.156	4278
1074.488	4204
1076.82	4159
1079.15	4212
1081.48	4139
1083.814	4142
1086.143	4171
1088.471	4132
1090.799	4012
1093.126	4169
1095.452	4158
1097.78	4101
1100.105	4079
1102.43	4064
1104.754	4107
1107.077	4097
1109.4	4051
1111.722	4095
1114.044	4075
1116.365	4062
1118.685	3978
1121.005	4065
1123.324	4019
1125.643	3984
1127.961	3926
1130.278	4098
1132.595	4044
1134.911	4054
1137.226	4058
1139.541	4071
1141.854	4057
1144.167	4034
1146.482	4117
1148.793	4010
1151.105	4054
1153.414	4046
1155.725	4058
1158.033	4104
1160.344	4033
1162.651	4082
1164.959	4080
1167.265	4163
1169.572	4064
1171.878	4069
1174.184	4060
1176.488	4102
1178.79	4066
1181.094	4136
1183.396	4120
1185.699	4092
1188.001	4105
1190.301	4116
1192.6	4064
1194.9	4121
1197.2	4099
1199.497	4034
1201.794	4036
1204.09	4043
1206.387	4088
1208.684	4120
1210.978	4033
1213.272	4155
1215.565	4091
1217.858	4018
1220.15	4061
1222.443	3992
1224.734	4156
1227.024	4196
1229.313	4175
1231.602	4271
1233.892	4255
1236.18	4188
1238.467	4228
1240.754	4165
1243.04	4260
1245.325	4276
1247.612	4308
1249.896	4286
1252.178	4341
1254.461	4336
1256.743	4286
1259.027	4272
1261.308	4289
1263.587	4276
1265.867	4258
1268.146	4304
1270.425	4270
1272.703	4296
1274.981	4258
1277.256	4306
1279.532	4206
1281.808	4141
1284.083	4159
1286.358	4263
1288.63	4268
1290.904	4211
1293.175	4145
1295.449	4225
1297.719	4188
1299.99	4126
1302.259	4204
1304.529	4194
1306.798	4186
1309.065	4163
1311.333	4235
1313.599	4190
1315.866	4126
1318.131	4310
1320.396	4205
1322.66	4175
1324.925	4203
1327.187	4251
1329.448	4221
1331.711	4276
1333.974	4271
1336.234	4272
1338.493	4235
1340.752	4213
1343.01	4190
1345.269	4230
1347.526	4186
1349.784	4183
1352.04	4182
1354.295	4186
1356.552	4323
1358.806	4244
1361.059	4210
1363.312	4199
1365.564	4183
1367.818	4189
1370.069	4173
1372.318	4235
1374.568	4278
1376.817	4232
1379.066	4238
1381.316	4266
1383.564	4286
1385.809	4261
1388.056	4263
1390.301	4260
1392.549	4388
1394.793	4307
1397.036	4344
1399.279	4344
1401.522	4291
1403.763	4373
1406.007	4454
1408.248	4368
1410.487	4483
1412.727	4415
1414.965	4278
1417.205	4417
1419.442	4234
1421.68	4316
1423.915	4460
1426.152	4400
1428.388	4353
1430.623	4341
1432.857	4368
1435.091	4491
1437.323	4414
1439.556	4438
1441.789	4531
1444.019	4339
1446.25	4434
1448.48	4497
1450.708	4550
1452.938	4475
1455.167	4535
1457.394	4505
1459.62	4511
1461.846	4488
1464.073	4436
1466.299	4446
1468.523	4424
1470.746	4460
1472.969	4363
1475.191	4429
1477.415	4327
1479.636	4306
1481.858	4325
1484.078	4314
1486.298	4313
1488.518	4283
1490.736	4321
1492.954	4188
1495.169	4258
1497.386	4266
1499.602	4277
1501.819	4257
1504.034	4194
1506.248	4145
1508.462	4224
1510.675	4203
1512.888	4201
1515.1	4232
1517.311	4263
1519.522	4232
1521.732	4231
1523.942	4244
1526.151	4119
1528.36	4121
1530.566	4224
1532.773	4244
1534.98	4232
1537.187	4257
1539.392	4164
1541.596	4274
1543.801	4194
1546.005	4217
1548.208	4253
1550.411	4200
1552.612	4274
1554.814	4345
1557.013	4283
1559.212	4252
1561.414	4382
1563.612	4263
1565.811	4371
1568.007	4331
1570.203	4282
1572.403	4320
1574.598	4318
1576.792	4348
1578.988	4340
1581.181	4294
1583.376	4369
1585.568	4279
1587.761	4298
1589.952	4334
1592.143	4350
1594.333	4441
1596.524	4300
1598.715	4359
1600.903	4338
1603.091	4332
1605.278	4411
1607.466	4450
1609.652	4433
1611.838	4337
1614.023	4339
1616.207	4413
1618.391	4440
1620.576	4379
1622.759	4413
1624.941	4466
1627.123	4452
1629.304	4418
1631.484	4418
1633.664	4485
1635.844	4373
1638.022	4424
1640.201	4448
1642.38	4459
1644.556	4471
1646.732	4476
1648.908	4473
1651.084	4550
1653.257	4435
1655.433	4483
1657.607	4400
1659.779	4469
1661.951	4486
1664.122	4514
1666.295	4539
1668.467	4466
1670.635	4556
1672.805	4572
1674.973	4473
1677.142	4395
1679.31	4530
1681.478	4527
1683.644	4563
1685.81	4486
1687.975	4446
1690.142	4394
1692.305	4376
1694.468	4460
1696.632	4368
1698.794	4524
1700.957	4405
1703.119	4412
1705.279	4401
1707.439	4371
1709.598	4348
1711.758	4458
1713.917	4408
1716.075	4269
1718.231	4342
1720.388	4307
1722.543	4306
1724.702	4396
1726.856	4328
1729.01	4258
1731.164	4360
1733.317	4323
1735.471	4368
1737.623	4397
1739.774	4338
1741.925	4397
1744.075	4296
1746.225	4438
1748.376	4316
1750.524	4367
1752.672	4333
1754.82	4388
1756.965	4270
1759.113	4384
1761.259	4369
1763.405	4353
1765.549	4360
1767.694	4390
1769.836	4329
1771.981	4380
1774.123	4442
1776.264	4348
1778.405	4352
1780.546	4403
1782.687	4371
1784.827	4446
1786.966	4356
1789.103	4353
1791.242	4402
1793.381	4476
1795.517	4373
1797.653	4415
1799.788	4449
1801.923	4363
1804.057	4306
1806.193	4412
1808.326	4354
1810.457	4369
1812.59	4432
1814.721	4437
1816.855	4382
1818.984	4437
1821.113	4355
1823.244	4347
1825.372	4426
1827.499	4473
1829.63	4313
1831.756	4381
1833.882	4468
1836.007	4396
1838.132	4365
1840.26	4453
1842.384	4370
1844.507	4362
1846.63	4305
1848.752	4519
1850.875	4382
1852.996	4340
1855.118	4327
1857.238	4394
1859.358	4390
1861.477	4291
1863.597	4318
1865.715	4341
1867.832	4302
1869.948	4411
1872.064	4338
1874.181	4330
1876.297	4351
1878.411	4349
1880.526	4426
1882.639	4337
1884.752	4336
1886.865	4377
1888.977	4344
1891.089	4391
1893.2	4415
1895.308	4468
1897.42	4351
1899.53	4447
1901.639	4374
1903.745	4315
1905.853	4487
1907.962	4469
1910.067	4414
1912.174	4441
1914.278	4441
1916.383	4401
1918.486	4484
1920.592	4449
1922.694	4363
1924.797	4506
1926.898	4429
1929	4425
1931.102	4453
1933.203	4460
1935.301	4370
1937.401	4332
1939.499	4431
1941.598	4502
1943.697	4463
1945.793	4434
1947.888	4414
1949.985	4429
1952.08	4455
1954.176	4451
1956.269	4449
1958.364	4341
1960.457	4419
1962.549	4400
1964.642	4381
1966.733	4497
1968.823	4435
1970.913	4426
1973.005	4349
1975.093	4510
1977.184	4403
1979.271	4410
1981.359	4393
1983.446	4449
1985.532	4338
1987.619	4419
1989.705	4385
1991.789	4433
1993.874	4420
1995.956	4355
1998.041	4328
2000.123	4401
2002.206	4466
2004.287	4376
2006.368	4348
2008.449	4399
2010.529	4379
2012.609	4321
2014.688	4344
2016.766	4408
2018.843	4344
2020.922	4344
2022.999	4425
2025.074	4348
2027.15	4536
2029.225	4320
2031.299	4345
2033.375	4357
2035.447	4422
2037.52	4398
2039.592	4401
2041.664	4304
2043.736	4346
2045.807	4376
2047.876	4406
2049.947	4363
2052.015	4474
2054.086	4312
2056.153	4409
2058.221	4435
2060.288	4406
2062.353	4344
2064.42	4325
2066.486	4425
2068.55	4421
2070.614	4384
2072.678	4382
2074.741	4379
2076.805	4376
2078.866	4502
2080.929	4363
2082.99	4406
2085.049	4405
2087.109	4397
2089.17	4428
2091.228	4311
2093.286	4374
2095.344	4417
2097.4	4393
2099.46	4473
2101.516	4400
2103.572	4390
2105.626	4408
2107.679	4370
2109.735	4391
2111.788	4335
2113.841	4365
2115.894	4410
2117.945	4427
2119.997	4368
2122.049	4411
2124.1	4404
2126.148	4433
2128.197	4377
2130.246	4367
2132.296	4346
2134.342	4464
2136.39	4381
2138.437	4264
2140.483	4429
2142.527	4400
2144.574	4366
2146.619	4384
2148.661	4389
2150.705	4399
2152.747	4326
2154.792	4333
2156.832	4477
2158.874	4398
2160.915	4372
2162.954	4305
2164.995	4390
2167.034	4306
2169.072	4401
2171.111	4293
2173.148	4426
2175.186	4289
2177.223	4418
2179.258	4333
2181.294	4311
2183.328	4392
2185.362	4326
2187.398	4344
2189.431	4321
2191.463	4392
2193.495	4264
2195.528	4364
2197.56	4323
2199.59	4282
2201.62	4319
2203.649	4291
2205.678	4324
2207.708	4406
2209.737	4353
2211.764	4334
2213.791	4272
2215.817	4318
2217.843	4311
2219.87	4323
2221.895	4283
2223.919	4293
2225.942	4283
2227.966	4211
2229.988	4346
2232.012	4242
2234.032	4385
2236.054	4280
2238.074	4281
2240.095	4345
2242.116	4273
2244.135	4366
2246.153	4324
2248.171	4387
2250.188	4267
2252.208	4233
2254.223	4289
2256.239	4350
2258.255	4276
2260.269	4316
2262.283	4326
2264.3	4229
2266.312	4277
2268.325	4265
2270.336	4236
2272.349	4377
2274.362	4326
2276.372	4331
2278.383	4251
2280.392	4342
2282.402	4267
2284.409	4345
2286.418	4342
2288.427	4285
2290.433	4331
2292.441	4317
2294.446	4223
2296.453	4302
2298.459	4222
2300.463	4254
2302.466	4312
2304.471	4241
2306.475	4270
2308.477	4314
2310.478	4268
2312.481	4264
2314.481	4270
2316.481	4259
2318.482	4205
2320.482	4208
2322.48	4345
2324.48	4243
2326.478	4246
2328.476	4291
2330.473	4205
2332.469	4244
2334.465	4329
2336.46	4258
2338.454	4199
2340.45	4272
2342.444	4175
2344.437	4149
2346.43	4191
2348.421	4248
2350.414	4217
2352.405	4349
2354.396	4274
2356.386	4210
2358.376	4212
2360.366	4185
2362.355	4250
2364.343	4255
2366.331	4213
2368.317	4224
2370.304	4131
2372.292	4183
2374.278	4229
2376.262	4182
2378.247	4182
2380.23	4279
2382.216	4206
2384.199	4219
2386.181	4194
2388.163	4136
2390.144	4116
2392.127	4145
2394.107	4150
2396.087	4096
2398.066	4100
2400.046	4153
2402.023	4131
2404.004	4112
2405.981	4200
2407.957	4194
2409.934	4097
2411.91	4105
2413.886	4095
2415.862	4023
2417.836	4219
2419.809	4151
2421.784	4159
2423.756	4111
2425.73	4198
2427.701	4084
2429.672	4144
2431.644	4200
2433.615	4132
2435.586	4130
2437.555	4153
2439.523	4058
2441.491	4116
2443.459	4230
2445.428	4146
2447.395	4129
2449.361	4060
2451.327	4185
2453.292	4089
2455.257	4190
2457.223	4093
2459.187	4125
2461.15	4149
2463.113	4083
2465.076	4134
2467.039	4082
2468.999	4109
2470.96	4023
2472.921	4093
2474.881	4228
2476.841	4066
2478.8	4045
2480.759	4135
2482.717	4012
2484.675	4040
2486.63	4061
2488.589	4080
2490.545	4044
2492.5	4080
2494.455	3967
2496.408	4103
2498.364	4122
2500.318	4067
2502.27	4144
2504.223	4072
2506.174	4066
2508.126	4126
2510.078	4057
2512.03	4072
2513.979	4019
2515.927	4006
2517.877	4026
2519.826	4027
2521.775	3985
2523.722	4095
2525.668	4107
2527.616	4076
2529.561	3948
2531.508	4126
2533.452	4131
2535.398	4075
2537.342	4081
2539.284	4058
2541.229	4101
2543.173	4134
2545.114	4039
2547.055	4047
2548.996	4071
2550.938	4123
2552.878	4118
2554.817	4010
2556.756	4081
2558.695	4015
2560.633	4098
2562.572	4096
2564.509	4047
2566.445	4115
2568.382	4038
2570.317	4051
2572.254	4123
2574.189	4099
2576.123	4058
2578.057	4019
2579.99	4141
2581.923	4072
2583.855	4089
2585.788	4051
2587.719	4066
2589.65	4015
2591.579	4063
2593.511	4093
2595.44	4102
2597.37	4042
2599.297	4120
2601.225	4073
2603.153	4081
2605.08	4098
2607.007	3999
2608.932	4070
2610.858	4101
2612.782	4075
2614.709	4019
2616.632	3972
2618.556	3993
2620.478	4005
2622.401	4036
2624.324	4046
2626.247	4106
2628.167	4075
2630.088	4083
2632.008	4058
2633.928	4027
2635.848	4107
2637.766	4146
2639.684	4098
2641.603	4006
2643.519	4126
2645.437	4198
2647.353	4153
2649.27	4068
2651.184	4121
2653.099	4115
2655.014	4077
2656.928	4059
2658.842	4108
2660.755	4143
2662.667	4087
2664.579	4035
2666.491	4002
2668.402	4101
2670.312	4001
2672.222	4076
2674.132	4080
2676.042	4046
2677.951	4078
2679.859	4066
2681.766	4056
2683.674	4011
2685.582	4034
2687.488	4067
2689.392	4090
2691.298	4027
2693.202	3999
2695.107	4013
2697.012	3954
2698.914	4059
2700.817	4040
2702.72	4095
2704.622	3958
2706.524	3980
2708.425	3931
2710.326	3998
2712.225	4024
2714.125	3932
2716.024	3966
2717.923	4017
2719.822	3931
2721.719	4030
2723.616	4006
2725.512	4021
2727.41	4006
2729.305	3981
2731.201	4012
2733.095	4107
2734.99	3963
2736.884	4051
2738.778	4048
2740.67	4033
2742.562	3980
2744.455	4047
2746.346	3911
2748.238	3996
2750.129	3956
2752.018	4012
2753.907	3990
2755.797	4095
2757.687	3907
2759.575	4006
2761.462	4023
2763.349	3974
2765.237	3989
2767.124	3957
2769.009	4006
2770.894	3981
2772.779	4023
2774.663	3998
2776.547	4024
2778.431	3969
2780.314	3980
2782.197	3962
2784.078	3979
2785.96	3966
2787.842	4100
2789.723	3957
2791.603	4051
2793.483	3983
2795.362	3975
2797.241	3995
2799.121	4046
2800.997	3886
2802.874	3931
2804.751	3993
2806.628	3982
2808.506	3997
2810.38	4059
2812.255	3890
2814.13	4045
2816.003	4029
2817.878	3981
2819.752	3888
2821.623	3898
2823.496	3916
2825.368	4033
2827.238	3979
2829.111	3883
2830.98	3941
2832.851	3914
2834.719	3962
2836.589	3946
2838.458	3950
2840.327	3941
2842.193	4010
2844.061	3992
2845.927	3956
2847.794	3967
2849.66	4031
2851.525	3977
2853.39	3982
2855.254	4054
2857.117	4062
2858.983	4025
2860.845	4067
2862.707	4137
2864.569	4133
2866.431	4065
2868.293	4122
2870.154	4187
2872.013	4220
2873.873	4289
2875.733	4294
2877.592	4241
2879.451	4286
2881.309	4309
2883.166	4390
2885.022	4426
2886.879	4397
2888.736	4363
2890.591	4476
2892.446	4500
2894.301	4520
2896.155	4451
2898.009	4549
2899.863	4422
2901.716	4454
2903.568	4402
2905.419	4401
2907.27	4470
2909.123	4383
2910.973	4447
2912.824	4424
2914.673	4532
2916.521	4461
2918.372	4597
2920.22	4617
2922.067	4770
2923.914	4672
2925.761	4714
2927.607	4757
2929.455	4750
2931.301	4836
2933.144	4854
2934.99	4886
2936.833	4963
2938.678	4980
2940.522	4966
2942.364	5139
2944.207	5156
2946.048	5135
2947.891	5156
2949.731	5157
2951.571	5188
2953.412	5129
2955.25	5089
2957.09	5016
2958.93	4987
2960.767	4971
2962.606	4783
2964.443	4840
2966.279	4778
2968.116	4756
2969.953	4749
2971.788	4648
2973.623	4609
2975.457	4538
2977.292	4584
2979.127	4635
2980.959	4439
2982.792	4411
2984.624	4499
2986.455	4399
2988.288	4465
2990.119	4394
2991.949	4339
2993.779	4321
2995.608	4376
2997.439	4318
2999.268	4233
3001.096	4262
3002.923	4211
3004.751	4267
3006.578	4064
3008.406	4109
3010.232	4073
3012.057	4121
3013.883	3967
3015.706	3972
3017.532	3904
3019.356	3950
3021.179	3923
3023.002	3921
3024.823	3882
3026.646	3877
3028.469	3821
3030.289	3816
3032.11	3788
3033.93	3808
3035.749	3816
3037.57	3800
3039.39	3773
3041.207	3740
3043.026	3773
3044.842	3819
3046.661	3812
3048.477	3779
3050.294	3766
3052.109	3816
3053.925	3783
3055.739	3758
3057.555	3695
3059.368	3903
3061.181	3796
3062.995	3777
3064.807	3810
3066.62	3720
3068.433	3873
3070.243	3703
3072.054	3776
3073.865	3782
3075.675	3720
3077.485	3782
3079.293	3684
3081.102	3746
3082.911	3703
3084.719	3689
3086.527	3751
3088.333	3727
3090.139	3759
3091.945	3728
3093.75	3660
3095.557	3692
3097.361	3813
3099.165	3779
3100.969	3720
3102.772	3674
3104.575	3626
3106.379	3632
3108.181	3694
3109.982	3706
3111.783	3607
3113.584	3632
3115.386	3562
3117.186	3684
3118.985	3709
3120.783	3654
3122.582	3559
3124.381	3668
3126.179	3629
3127.975	3629
3129.772	3616
3131.569	3586
3133.365	3578
3135.161	3652
3136.956	3611
3138.751	3681
3140.544	3648
3142.338	3565
3144.132	3628
3145.925	3659
3147.717	3558
3149.509	3607
3151.301	3659
3153.091	3612
3154.884	3595
3156.673	3563
3158.462	3554
3160.252	3586
3162.041	3612
3163.831	3586
3165.618	3506
3167.405	3691
3169.193	3551
3170.979	3614
3172.767	3563
3174.553	3522
3176.338	3505
3178.123	3589
3179.907	3515
3181.692	3586
3183.477	3582
3185.259	3499
3187.042	3571
3188.824	3567
3190.607	3585
3192.389	3414
3194.17	3623
3195.951	3538
3197.73	3503
3199.51	3569
3201.289	3487
3203.07	3558
3204.848	3596
3206.626	3472
3208.403	3543
3210.18	3447
3211.959	3611
3213.735	3640
3215.511	3494
3217.285	3490
3219.06	3477
3220.836	3508
3222.611	3514
3224.384	3505
3226.158	3569
3227.929	3549
3229.702	3587
3231.476	3523
3233.248	3496
3235.018	3578
3236.789	3520
3238.56	3451
3240.33	3491
3242.1	3502
3243.869	3538
3245.637	3526
3247.405	3514
3249.172	3607
3250.941	3591
3252.707	3578
3254.474	3498
3256.24	3439
3258.006	3527
3259.772	3576
3261.537	3541
3263.301	3523
3265.065	3565
3266.828	3556
3268.592	3581
3270.355	3555
3272.117	3562
3273.878	3556
3275.64	3601
3277.401	3559
3279.162	3479
3280.922	3507
3282.682	3537
3284.441	3613
3286.199	3626
3287.959	3575
3289.716	3579
3291.475	3538
3293.232	3604
3294.988	3563
3296.744	3588
3298.501	3592
3300.256	3610
3302.011	3519
3303.766	3600
3305.52	3594
3307.275	3578
3309.028	3522
3310.781	3513
3312.533	3500
3314.285	3577
3316.038	3554
3317.789	3561
3319.54	3485
3321.289	3568
3323.039	3596
3324.789	3540
3326.539	3463
3328.288	3488
3330.035	3570
3331.783	3506
3333.531	3513
3335.28	3584
3337.025	3484
3338.771	3457
3340.518	3508
3342.262	3484
3344.009	3501
3345.753	3451
3347.497	3458
3349.24	3536
3350.983	3535
3352.726	3552
3354.469	3477
3356.212	3442
3357.952	3454
3359.694	3420
3361.434	3455
3363.176	3492
3364.916	3503
3366.654	3495
3368.394	3498
3370.132	3416
3371.871	3458
3373.61	3504
3375.346	3397
3377.083	3427
3378.82	3493
3380.556	3455
3382.292	3458
3384.027	3471
3385.763	3295
3387.497	3410
3389.231	3470
3390.965	3455
3392.698	3507
3394.431	3430
3396.164	3416
3397.896	3438
3399.627	3413
3401.36	3417
3403.09	3394
3404.82	3406
3406.55	3474
3408.279	3356
3410.01	3353
3411.738	3373
3413.467	3499
3415.194	3348
3416.92	3344
3418.647	3437
3420.375	3342
3422.102	3424
3423.827	3360
3425.553	3329
3427.277	3362
3429.003	3372
3430.727	3328
3432.451	3278
3434.173	3411
3435.896	3297
3437.62	3351
3439.343	3314
3441.063	3390
3442.785	3377
3444.505	3395
3446.226	3303
3447.948	3317
3449.666	3330
3451.386	3350
3453.104	3293
3454.823	3344
3456.541	3253
3458.259	3303
3459.976	3250
3461.693	3217
3463.408	3311
3465.125	3218
3466.841	3254
3468.556	3244
3470.271	3156
3471.985	3172
3473.698	3284
3475.414	3268
3477.126	3223
3478.838	3216
3480.55	3174
3482.263	3265
3483.975	3152
3485.686	3189
3487.396	3249
3489.106	3173
3490.817	3209
3492.526	3177
3494.236	3167
3495.944	3112
3497.652	3147
3499.359	3170
3501.066	3142
3502.775	3254
3504.481	3160
3506.187	3190
3507.893	3102
3509.598	3198
3511.304	3130
3513.009	3132
3514.713	3178
3516.417	3125
3518.12	3146
3519.821	3144
3521.525	3131
3523.228	3162
3524.929	3113
3526.631	3133
3528.33	3116
3530.032	3025
3531.733	3167
3533.433	3134
3535.131	3091
3536.83	3065
3538.529	3010
3540.227	3049
3541.925	3140
3543.623	3094
3545.319	3021
3547.016	3094
3548.712	3116
3550.408	3018
3552.103	3023
3553.798	3045
3555.491	3036
3557.188	2995
3558.88	3076
3560.574	3002
3562.266	3015
3563.959	3015
3565.651	3092
3567.343	2988
3569.035	2972
3570.725	3005
3572.415	3009
3574.106	3056
3575.797	3045
3577.485	3005
3579.174	3080
3580.863	2957
3582.551	3003
3584.238	2963
3585.926	3011
3587.613	3003
3589.3	2966
3590.986	2962
3592.671	2954
3594.357	2998
3596.042	2919
3597.726	2980
3599.41	2942
3601.094	2916
3602.778	2928
3604.461	2877
3606.143	2931
3607.825	2881
3609.507	2882
3611.188	2915
3612.87	2845
3614.551	2869
3616.229	2851
3617.909	2923
3619.589	2868
3621.269	2943
3622.948	2839
3624.625	2993
3626.302	2876
3627.98	2862
3629.657	2840
3631.334	2939
3633.01	2843
3634.686	2906
3636.361	2820
3638.036	2830
3639.712	2829
3641.385	2852
3643.06	2881
3644.732	2792
3646.405	2848
3648.08	2886
3649.751	2843
3651.424	2798
3653.094	2818
3654.766	2832
3656.436	2787
3658.106	2823
3659.777	2803
3661.446	2788
3663.115	2786
3664.783	2793
3666.452	2842
3668.121	2798
3669.788	2791
3671.454	2829
3673.121	2774
3674.789	2778
3676.455	2819
3678.12	2723
3679.784	2789
3681.45	2799
3683.114	2681
3684.779	2753
3686.442	2717
3688.105	2800
3689.768	2763
3691.43	2722
3693.093	2780
3694.754	2744
3696.415	2691
3698.076	2702
3699.736	2714
3701.396	2716
3703.057	2718
3704.716	2750
3706.375	2719
3708.034	2757
3709.692	2716
3711.351	2719
3713.008	2666
3714.665	2726
3716.321	2664
3717.977	2716
3719.634	2700
3721.29	2732
3722.945	2661
3724.598	2627
3726.253	2737
3727.907	2664
3729.561	2643
3731.214	2721
3732.867	2740
3734.518	2715
3736.171	2672
3737.824	2700
3739.474	2660
3741.125	2724
3742.775	2647
3744.425	2596
3746.074	2706
3747.725	2649
3749.373	2678
3751.022	2617
3752.669	2613
3754.318	2676
3755.966	2676
3757.612	2614
3759.259	2614
3760.905	2733
3762.55	2624
3764.197	2667
3765.842	2660
3767.486	2632
3769.131	2683
3770.774	2595
3772.417	2597
3774.061	2611
3775.705	2587
3777.347	2615
3778.988	2655
3780.629	2590
3782.271	2588
3783.912	2661
3785.552	2572
3787.192	2585
3788.831	2614
3790.472	2629
3792.112	2559
3793.75	2631
3795.388	2596
3797.024	2599
3798.661	2598
3800.3	2576
3801.936	2616
3803.572	2571
3805.208	2548
3806.844	2643
3808.48	2618
3810.115	2537
3811.748	2536
3813.382	2539
3815.016	2567
3816.649	2551
3818.283	2654
3819.914	2568
3821.547	2594
3823.178	2593
3824.809	2562
3826.441	2540
3828.072	2538
3829.701	2502
3831.331	2577
3832.96	2572
3834.591	2528
3836.219	2549
3837.847	2500
3839.475	2541
3841.102	2546
3842.729	2534
3844.357	2538
3845.984	2447
3847.609	2526
3849.234	2515
3850.86	2518
3852.485	2502
3854.11	2510
3855.734	2585
3857.357	2481
3858.981	2524
3860.603	2463
3862.227	2535
3863.848	2421
3865.471	2495
3867.092	2498
3868.713	2432
3870.334	2462
3871.954	2471
3873.575	2505
3875.194	2433
3876.813	2435
3878.433	2556
3880.051	2475
3881.669	2446
3883.286	2508
3884.904	2485
3886.52	2455
3888.138	2412
3889.754	2519
3891.37	2493
3892.985	2454
3894.6	2473
3896.216	2448
3897.831	2442
3899.444	2438
3901.058	2441
3902.67	2455
3904.283	2492
3905.897	2455
3907.509	2435
3909.121	2396
3910.731	2434
3912.342	2390
3913.954	2458
3915.563	2469
3917.174	2512
3918.783	2420
3920.391	2459
3922.002	2474
3923.611	2432
3925.218	2384
3926.826	2399
3928.432	2344
3930.039	2424
3931.647	2385
3933.253	2396
3934.859	2421
3936.464	2404
3938.068	2433
3939.675	2442
3941.278	2440
3942.883	2399
3944.486	2389
3946.089	2465
3947.692	2386
3949.295	2419
3950.898	2467
3952.499	2426
3954.1	2445
3955.7	2414
3957.303	2432
3958.903	2383
3960.502	2320
3962.101	2388
3963.7	2350
3965.301	2394
3966.899	2387
3968.497	2389
3970.094	2407
3971.691	2332
3973.288	2414
3974.885	2363
3976.481	2351
3978.077	2435
3979.672	2367
3981.267	2355
3982.863	2425
3984.457	2371
3986.051	2307
3987.645	2385
3989.238	2379
3990.831	2319
3992.425	2288
3994.017	2371
3995.607	2310
3997.199	2280
3998.79	2323
4000.382	2303
4001.973	2322
4003.561	2301
4005.151	2308
4006.741	2266
4008.331	2356
4009.918	2369
4011.507	2262
4013.095	2286
4014.681	2319
4016.269	2380
4017.856	2309
4019.443	2277
4021.028	2277
4022.614	2285
4024.199	2262
4025.785	2256
4027.37	2289
4028.953	2263
4030.536	2300
4032.12	2292
4033.704	2215
4035.287	2231
4036.869	2290
4038.45	2200
4040.032	2184
4041.613	2241
4043.195	2228
4044.776	2276
4046.356	2215
4047.935	2213
4049.515	2286
4051.095	2262
4052.674	2288
4054.251	2241
4055.829	2193
4057.406	2264
4058.985	2201
4060.562	2260
4062.139	2234
4063.715	2177
4065.29	2225
4066.865	2196
4068.442	2227
4070.016	2232
4071.59	2245
4073.164	2166
4074.738	2210
4076.312	2188
4077.885	2169
4079.458	2116
4081.03	2204
4082.602	2212
4084.173	2206
4085.745	2239
4087.315	2124
4088.886	2234
4090.456	2195
4092.026	2145
4093.596	2198
4095.165	2177
4096.734	2215
4098.301	2178
4099.869	2137
4101.437	2208
4103.006	2195
4104.572	2143
4106.139	2166
4107.704	2150
4109.27	2191
4110.837	2180
4112.401	2212
4113.966	2119
4115.53	2172
4117.094	2164
4118.659	2171
4120.223	2113
4121.785	2168
4123.347	2203
4124.909	2167
4126.471	2119
4128.034	2133
4129.595	2130
4131.155	2129
4132.716	2165
4134.275	2109
4135.836	2196
4137.395	2120
4138.955	2105
4140.513	2113
4142.071	2116
4143.628	2147
4145.188	2120
4146.745	2048
4148.302	2083
4149.858	2101
4151.414	2088
4152.971	2136
4154.526	2140
4156.081	2110
4157.635	2046
4159.189	2087
4160.745	2130
4162.298	2082
4163.852	2112
4165.405	2088
4166.957	2083
4168.51	2131
4170.063	2057
4171.614	2029
4173.166	2128
4174.717	2072
4176.267	2104
4177.817	2055
4179.368	1986
4180.917	2071
4182.466	2049
4184.016	2062
4185.564	2032
4187.112	2040
4188.66	2069
4190.207	2090
4191.754	2061
4193.301	2026
4194.848	2022
4196.394	2031
4197.94	2068
4199.484	2025
4201.03	2062
4202.575	2017
4204.12	2081
4205.663	2037
4207.207	2010
4208.75	2049
4210.292	1994
4211.836	2035
4213.378	2024
4214.92	2066
4216.46	2031
4218.002	2037
4219.544	1967
4221.083	2037
4222.625	2043
4224.164	1995
4225.703	1980
4227.244	2045
4228.782	2033
4230.32	2013
4231.857	2023
4233.395	2005
4234.933	2005
4236.471	1978
4238.007	2030
4239.542	2019
4241.078	2027
4242.614	1964
4244.15	1967
4245.685	2030
4247.219	1997
4248.753	1964
4250.287	1989
4251.82	2013
4253.354	1960
4254.887	1960
4256.419	1955
4257.951	1928
4259.483	1960
4261.016	1975
4262.547	1975
4264.078	1956
4265.608	1939
4267.137	1999
4268.668	1963
4270.197	1962
4271.727	1900
4273.254	1964
4274.783	1908
4276.311	2012
4277.84	2005
4279.366	1944
4280.894	1950
4282.42	1957
4283.946	1949
4285.473	1946
4286.998	1925
4288.523	2007
4290.047	1976
4291.572	1903
4293.096	1890
4294.622	1931
4296.144	1971
4297.668	1959
4299.19	1914
4300.713	2025
4302.236	1889
4303.758	1930
4305.279	1933
4306.799	1906
4308.321	1909
4309.842	1916
4311.361	1928
4312.882	1945
4314.401	1859
