400.0961	3499
402.6185	3534
405.1424	3513
407.6635	3540
410.1838	3496
412.7035	3527
415.2225	3616
417.7388	3550
420.2585	3678
422.7754	3676
425.2917	3745
427.8072	3670
430.3221	3778
432.8363	3808
435.3498	3808
437.8626	3811
440.3727	3764
442.8841	3822
445.3969	3827
447.907	3807
450.4142	3681
452.9229	3769
455.4289	3732
457.9362	3793
460.4449	3739
462.9488	3773
465.454	3706
467.9566	3737
470.4604	3797
472.9637	3702
475.4662	3737
477.966	3788
480.4671	3695
482.9656	3800
485.4633	3803
487.9645	3747
490.4608	3787
492.9566	3801
495.4536	3641
497.948	3808
500.4437	3866
502.9387	3794
505.431	3825
507.9226	3843
510.4136	3834
512.9079	3868
515.3975	3832
517.8864	3897
520.3746	3821
522.8622	3887
525.3491	3904
527.8394	3889
530.3249	3794
532.8098	3905
535.2939	3834
537.7774	3868
540.2623	3869
542.7444	3932
545.2259	3888
547.7067	3869
550.1868	3960
552.6683	3832
555.147	3863
557.6231	3912
560.1005	3899
562.5773	4043
565.0534	3896
567.5308	3971
570.0056	4031
572.4776	3996
574.951	3931
577.4237	4042
579.8978	4063
582.3671	4044
584.8378	4035
587.3079	4110
589.7773	4077
592.244	4085
594.714	4003
597.1793	3999
599.6461	3994
602.1121	4134
604.5754	4022
607.0421	4001
609.5042	4064
611.9675	3987
614.4282	3948
616.8902	4079
619.3515	3914
621.8122	4049
624.2702	3966
626.7296	3988
629.1863	3995
631.6423	3933
634.1017	3956
636.5563	3895
639.0104	3992
641.4658	3913
643.9185	4041
646.3725	4045
648.8239	3896
651.2766	3907
653.7266	4001
656.176	4035
658.6247	4027
661.0748	4067
663.5242	3980
665.9709	4048
668.417	4057
670.8624	4056
673.3092	4062
675.7533	4102
678.1968	4115
680.6395	4116
683.0817	4092
685.5251	4071
687.9659	4082
690.4061	4134
692.8456	4132
695.2844	4107
697.7226	4192
700.1621	4172
702.599	4100
705.0332	4142
707.4688	4169
709.9036	4134
712.3399	4159
714.7735	4217
717.2044	4246
719.6367	4317
722.0683	4227
724.4993	4212
726.9296	4199
729.3593	4226
731.7883	4236
734.2147	4224
736.6423	4225
739.0714	4253
741.4958	4326
743.9216	4290
746.3447	4280
748.7691	4286
751.1929	4316
753.616	4321
756.0366	4380
758.4584	4353
760.8776	4346
763.2982	4390
765.718	4429
768.1373	4373
770.5539	4350
772.9698	4331
775.3871	4402
777.8038	4430
780.2178	4372
782.6332	4450
785.0459	4353
787.458	4379
789.8714	4452
792.2842	4392
794.6943	4387
797.1038	4384
799.5127	4481
801.9209	4374
804.3324	4443
806.7393	4336
809.1456	4539
811.5513	4511
813.9562	4504
816.3625	4470
818.7663	4414
821.1693	4502
823.5718	4385
825.9735	4588
828.3746	4386
830.7771	4418
833.177	4527
835.5762	4479
837.9747	4545
840.3727	4461
842.772	4430
845.1666	4582
847.5626	4525
849.958	4520
852.3527	4540
854.7488	4557
857.1403	4648
859.5331	4588
861.9253	4557
864.3168	4472
866.7057	4598
869.098	4590
871.4876	4560
873.8746	4515
876.263	4555
878.6487	4547
881.0378	4629
883.4243	4544
885.8081	4555
888.1933	4556
890.5759	4596
892.9598	4501
895.343	4592
897.7256	4571
900.1057	4550
902.4871	4571
904.8659	4595
907.246	4632
909.6254	4670
912.0023	4566
914.3786	4693
916.7562	4699
919.1331	4768
921.5074	4813
923.8831	4863
926.2562	4812
928.6287	4817
931.0005	4761
933.3757	4828
935.7462	4838
938.1162	4799
940.4855	4978
942.8542	4911
945.2242	4984
947.5916	5188
949.9584	5254
952.3266	5489
954.6921	5711
957.0571	5943
959.4233	6134
961.787	6228
964.15	6113
966.5125	5933
968.8742	5792
971.2354	5494
973.5959	5179
975.9559	5003
978.3151	4868
980.6738	4896
983.0338	4785
985.3912	4822
987.7461	4746
990.1022	4809
992.4578	4783
994.8127	4783
997.1689	4764
999.5207	4781
1001.874	4751
1004.226	4800
1006.576	4805
1008.929	4831
1011.28	4761
1013.628	4856
1015.977	4747
1018.324	4797
1020.674	4767
1023.019	4721
1025.366	4875
1027.713	4773
1030.056	4893
1032.399	4871
1034.746	4878
1037.087	4792
1039.431	4841
1041.771	4859
1044.113	4859
1046.454	4915
1048.793	4984
1051.133	4902
1053.471	4890
1055.807	4896
1058.146	4972
1060.483	4950
1062.818	4949
1065.153	4916
1067.489	4967
1069.822	4961
1072.156	4975
1074.488	5048
1076.82	5005
1079.15	5118
1081.48	4960
1083.814	4982
1086.143	4954
1088.471	4853
1090.799	4941
1093.126	4904
1095.452	4978
1097.78	4827
1100.105	4794
1102.43	4864
1104.754	4845
1107.077	4976
1109.4	4908
1111.722	4843
1114.044	4888
1116.365	4849
1118.685	4805
1121.005	4891
1123.324	4895
1125.643	4897
1127.961	5010
1130.278	4868
1132.595	4875
1134.911	4944
1137.226	4804
1139.541	4875
1141.854	4776
1144.167	4801
1146.482	4940
1148.793	4750
1151.105	4884
1153.414	4923
1155.725	4816
1158.033	4834
1160.344	4875
1162.651	4830
1164.959	4829
1167.265	4938
1169.572	4885
1171.878	4813
1174.184	4909
1176.488	4840
1178.79	4960
1181.094	4916
1183.396	4938
1185.699	4962
1188.001	4949
1190.301	4893
1192.6	4843
1194.9	4881
1197.2	4993
1199.497	4997
1201.794	4970
1204.09	4855
1206.387	4854
1208.684	4961
1210.978	4949
1213.272	4942
1215.565	4907
1217.858	4877
1220.15	4947
1222.443	4937
1224.734	4948
1227.024	5022
1229.313	4925
1231.602	5062
1233.892	5070
1236.18	5131
1238.467	5042
1240.754	5125
1243.04	5124
1245.325	5117
1247.612	5059
1249.896	5179
1252.178	5110
1254.461	5180
1256.743	5183
1259.027	5105
1261.308	5176
1263.587	5157
1265.867	5120
1268.146	5225
1270.425	5122
1272.703	5110
1274.981	5070
1277.256	5154
1279.532	5138
1281.808	5140
1284.083	5182
1286.358	5086
1288.63	5043
1290.904	5073
1293.175	5042
1295.449	5141
1297.719	5083
1299.99	5103
1302.259	5126
1304.529	5064
1306.798	4969
1309.065	5003
1311.333	5110
1313.599	5013
1315.866	4965
1318.131	5003
1320.396	4981
1322.66	5107
1324.925	5098
1327.187	5100
1329.448	5099
1331.711	5121
1333.974	5121
1336.234	5110
1338.493	5124
1340.752	5080
1343.01	5172
1345.269	5104
1347.526	5079
1349.784	5072
1352.04	5166
1354.295	5038
1356.552	5127
1358.806	5121
1361.059	5046
1363.312	5078
1365.564	5057
1367.818	5041
1370.069	5006
1372.318	5067
1374.568	5041
1376.817	5097
1379.066	5069
1381.316	5101
1383.564	5111
1385.809	5073
1388.056	5138
1390.301	5164
1392.549	5228
1394.793	5154
1397.036	5267
1399.279	5233
1401.522	5149
1403.763	5194
1406.007	5172
1408.248	5162
1410.487	5252
1412.727	5278
1414.965	5191
1417.205	5176
1419.442	5240
1421.68	5199
1423.915	5191
1426.152	5204
1428.388	5246
1430.623	5144
1432.857	5256
1435.091	5270
1437.323	5290
1439.556	5261
1441.789	5350
1444.019	5348
1446.25	5309
1448.48	5293
1450.708	5337
1452.938	5367
1455.167	5308
1457.394	5246
1459.62	5342
1461.846	5300
1464.073	5414
1466.299	5348
1468.523	5223
1470.746	5282
1472.969	5246
1475.191	5224
1477.415	5155
1479.636	5265
1481.858	5063
1484.078	5171
1486.298	5207
1488.518	5089
1490.736	5036
1492.954	5037
1495.169	5138
1497.386	5137
1499.602	5144
1501.819	5010
1504.034	5109
1506.248	5132
1508.462	5077
1510.675	5149
1512.888	5143
1515.1	5026
1517.311	5099
1519.522	5132
1521.732	4987
1523.942	5122
1526.151	5081
1528.36	5084
1530.566	5033
1532.773	5045
1534.98	5156
1537.187	5100
1539.392	5049
1541.596	5010
1543.801	5000
1546.005	5129
1548.208	5155
1550.411	5111
1552.612	5193
1554.814	5097
1557.013	5065
1559.212	5154
1561.414	5167
1563.612	5223
1565.811	5226
1568.007	5274
1570.203	5287
1572.403	5180
1574.598	5242
1576.792	5173
1578.988	5238
1581.181	5250
1583.376	5223
1585.568	5195
1587.761	5253
1589.952	5222
1592.143	5275
1594.333	5169
1596.524	5183
1598.715	5279
1600.903	5269
1603.091	5213
1605.278	5317
1607.466	5249
1609.652	5358
1611.838	5336
1614.023	5320
1616.207	5246
1618.391	5271
1620.576	5265
1622.759	5358
1624.941	5338
1627.123	5204
1629.304	5356
1631.484	5346
1633.664	5405
1635.844	5312
1638.022	5364
1640.201	5338
1642.38	5331
1644.556	5293
1646.732	5352
1648.908	5335
1651.084	5418
1653.257	5381
1655.433	5307
1657.607	5272
1659.779	5467
1661.951	5402
1664.122	5335
1666.295	5302
1668.467	5469
1670.635	5360
1672.805	5389
1674.973	5345
1677.142	5406
1679.31	5407
1681.478	5422
1683.644	5258
1685.81	5319
1687.975	5402
1690.142	5344
1692.305	5405
1694.468	5279
1696.632	5408
1698.794	5334
1700.957	5286
1703.119	5343
1705.279	5293
1707.439	5341
1709.598	5402
1711.758	5197
1713.917	5320
1716.075	5110
1718.231	5282
1720.388	5210
1722.543	5193
1724.702	5382
1726.856	5262
1729.01	5271
1731.164	5164
1733.317	5182
1735.471	5217
1737.623	5223
1739.774	5271
1741.925	5279
1744.075	5248
1746.225	5172
1748.376	5299
1750.524	5308
1752.672	5168
1754.82	5216
1756.965	5257
1759.113	5256
1761.259	5247
1763.405	5342
1765.549	5259
1767.694	5254
1769.836	5290
1771.981	5307
1774.123	5286
1776.264	5197
1778.405	5274
1780.546	5348
1782.687	5227
1784.827	5330
1786.966	5297
1789.103	5339
1791.242	5369
1793.381	5342
1795.517	5303
1797.653	5296
1799.788	5279
1801.923	5272
1804.057	5356
1806.193	5271
1808.326	5267
1810.457	5354
1812.59	5248
1814.721	5371
1816.855	5262
1818.984	5295
1821.113	5393
1823.244	5265
1825.372	5305
1827.499	5289
1829.63	5284
1831.756	5372
1833.882	5318
1836.007	5287
1838.132	5342
1840.26	5221
1842.384	5121
1844.507	5340
1846.63	5327
1848.752	5299
1850.875	5164
1852.996	5279
1855.118	5198
1857.238	5307
1859.358	5210
1861.477	5259
1863.597	5251
1865.715	5233
1867.832	5227
1869.948	5244
1872.064	5248
1874.181	5284
1876.297	5148
1878.411	5229
1880.526	5276
1882.639	5185
1884.752	5355
1886.865	5268
1888.977	5168
1891.089	5306
1893.2	5210
1895.308	5301
1897.42	5312
1899.53	5265
1901.639	5315
1903.745	5308
1905.853	5247
1907.962	5289
1910.067	5320
1912.174	5320
1914.278	5211
1916.383	5267
1918.486	5401
1920.592	5323
1922.694	5296
1924.797	5399
1926.898	5393
1929	5432
1931.102	5350
1933.203	5337
1935.301	5358
1937.401	5277
1939.499	5384
1941.598	5369
1943.697	5344
1945.793	5289
1947.888	5402
1949.985	5367
1952.08	5379
1954.176	5314
1956.269	5352
1958.364	5320
1960.457	5307
1962.549	5366
1964.642	5333
1966.733	5366
1968.823	5372
1970.913	5369
1973.005	5277
1975.093	5312
1977.184	5401
1979.271	5277
1981.359	5279
1983.446	5333
1985.532	5292
1987.619	5262
1989.705	5366
1991.789	5248
1993.874	5269
1995.956	5292
1998.041	5380
2000.123	5236
2002.206	5293
2004.287	5348
2006.368	5297
2008.449	5280
2010.529	5242
2012.609	5318
2014.688	5319
2016.766	5376
2018.843	5332
2020.922	5228
2022.999	5293
2025.074	5257
2027.15	5228
2029.225	5236
2031.299	5308
2033.375	5311
2035.447	5217
2037.52	5153
2039.592	5297
2041.664	5232
2043.736	5293
2045.807	5294
2047.876	5188
2049.947	5275
2052.015	5257
2054.086	5236
2056.153	5281
2058.221	5385
2060.288	5257
2062.353	5266
2064.42	5276
2066.486	5405
2068.55	5332
2070.614	5302
2072.678	5366
2074.741	5303
2076.805	5188
2078.866	5370
2080.929	5320
2082.99	5309
2085.049	5291
2087.109	5262
2089.17	5308
2091.228	5244
2093.286	5203
2095.344	5316
2097.4	5239
2099.46	5271
2101.516	5360
2103.572	5351
2105.626	5299
2107.679	5339
2109.735	5147
2111.788	5249
2113.841	5308
2115.894	5345
2117.945	5334
2119.997	5277
2122.049	5343
2124.1	5285
2126.148	5227
2128.197	5323
2130.246	5202
2132.296	5247
2134.342	5287
2136.39	5311
2138.437	5225
2140.483	5358
2142.527	5324
2144.574	5261
2146.619	5234
2148.661	5283
2150.705	5182
2152.747	5227
2154.792	5225
2156.832	5320
2158.874	5258
2160.915	5265
2162.954	5215
2164.995	5245
2167.034	5264
2169.072	5289
2171.111	5277
2173.148	5167
2175.186	5307
2177.223	5170
2179.258	5189
2181.294	5086
2183.328	5303
2185.362	5185
2187.398	5156
2189.431	5236
2191.463	5261
2193.495	5213
2195.528	5249
2197.56	5270
2199.59	5041
2201.62	5185
2203.649	5079
2205.678	5179
2207.708	5237
2209.737	5123
2211.764	5170
2213.791	5159
2215.817	5156
2217.843	5152
2219.87	5232
2221.895	5138
2223.919	5097
2225.942	5194
2227.966	5135
2229.988	5232
2232.012	5132
2234.032	5156
2236.054	5142
2238.074	5086
2240.095	5196
2242.116	5155
2244.135	5181
2246.153	5135
2248.171	5027
2250.188	5094
2252.208	5133
2254.223	5127
2256.239	5051
2258.255	5245
2260.269	5220
2262.283	5139
2264.3	5135
2266.312	5158
2268.325	5132
2270.336	5195
2272.349	5176
2274.362	5063
2276.372	5108
2278.383	5142
2280.392	5076
2282.402	5178
2284.409	5093
2286.418	5125
2288.427	5180
2290.433	5177
2292.441	5227
2294.446	5190
2296.453	5188
2298.459	5161
2300.463	5226
2302.466	5152
2304.471	5150
2306.475	5176
2308.477	5127
2310.478	5178
2312.481	5183
2314.481	5082
2316.481	4994
2318.482	5090
2320.482	5181
2322.48	5069
2324.48	5202
2326.478	5081
2328.476	5142
2330.473	5104
2332.469	5178
2334.465	5134
2336.46	5095
2338.454	5100
2340.45	5037
2342.444	5051
2344.437	5151
2346.43	5051
2348.421	5081
2350.414	5023
2352.405	5006
2354.396	5028
2356.386	5004
2358.376	5093
2360.366	5005
2362.355	5130
2364.343	4927
2366.331	5097
2368.317	5061
2370.304	5001
2372.292	5110
2374.278	4966
2376.262	5019
2378.247	5025
2380.23	4962
2382.216	5029
2384.199	5005
2386.181	4986
2388.163	4945
2390.144	4997
2392.127	5038
2394.107	4959
2396.087	5031
2398.066	5033
2400.046	5019
2402.023	4996
2404.004	4954
2405.981	4955
2407.957	4978
2409.934	4993
2411.91	4939
2413.886	5063
2415.862	4848
2417.836	5040
2419.809	4885
2421.784	4961
2423.756	5058
2425.73	4857
2427.701	5013
2429.672	4990
2431.644	4998
2433.615	4952
2435.586	4986
2437.555	4841
2439.523	5031
2441.491	5042
2443.459	5009
2445.428	5033
2447.395	4959
2449.361	4853
2451.327	4961
2453.292	4951
2455.257	4943
2457.223	5021
2459.187	5027
2461.15	5004
2463.113	5013
2465.076	5010
2467.039	4888
2468.999	4853
2470.96	4966
2472.921	5047
2474.881	4917
2476.841	4911
2478.8	5045
2480.759	4916
2482.717	4922
2484.675	4935
2486.63	4957
2488.589	4966
2490.545	4994
2492.5	4954
2494.455	4894
2496.408	4996
2498.364	4921
2500.318	4908
2502.27	4948
2504.223	4762
2506.174	4920
2508.126	4910
2510.078	4785
2512.03	4917
2513.979	4870
2515.927	4791
2517.877	4904
2519.826	4895
2521.775	4939
2523.722	4759
2525.668	4825
2527.616	4900
2529.561	4832
2531.508	4911
2533.452	4899
2535.398	4809
2537.342	4935
2539.284	4894
2541.229	4907
2543.173	4939
2545.114	4867
2547.055	4879
2548.996	4801
2550.938	4789
2552.878	4895
2554.817	4870
2556.756	4991
2558.695	4872
2560.633	4889
2562.572	4829
2564.509	5023
2566.445	4822
2568.382	4850
2570.317	4866
2572.254	4894
2574.189	4939
2576.123	4910
2578.057	4823
2579.99	4947
2581.923	4896
2583.855	4781
2585.788	4966
2587.719	4873
2589.65	4948
2591.579	4857
2593.511	4933
2595.44	4922
2597.37	4821
2599.297	4931
2601.225	4905
2603.153	4862
2605.08	4872
2607.007	4912
2608.932	4841
2610.858	4919
2612.782	4857
2614.709	4915
2616.632	4925
2618.556	4978
2620.478	4766
2622.401	4883
2624.324	4880
2626.247	4909
2628.167	4890
2630.088	4902
2632.008	4891
2633.928	4974
2635.848	4879
2637.766	4925
2639.684	4882
2641.603	4894
2643.519	4858
2645.437	4969
2647.353	4977
2649.27	4808
2651.184	4956
2653.099	4899
2655.014	4932
2656.928	4848
2658.842	5001
2660.755	4841
2662.667	4943
2664.579	4819
2666.491	4798
2668.402	4885
2670.312	4788
2672.222	4937
2674.132	4845
2676.042	4877
2677.951	4809
2679.859	4873
2681.766	4943
2683.674	4809
2685.582	4814
2687.488	4821
2689.392	4876
2691.298	4728
2693.202	4863
2695.107	4829
2697.012	4827
2698.914	4930
2700.817	4851
2702.72	4809
2704.622	4843
2706.524	4788
2708.425	4774
2710.326	4817
2712.225	4872
2714.125	4780
2716.024	4824
2717.923	4855
2719.822	4721
2721.719	4765
2723.616	4728
2725.512	4774
2727.41	4804
2729.305	4865
2731.201	4793
2733.095	4792
2734.99	4774
2736.884	4803
2738.778	4844
2740.67	4786
2742.562	4816
2744.455	4810
2746.346	4803
2748.238	4789
2750.129	4764
2752.018	4750
2753.907	4730
2755.797	4777
2757.687	4829
2759.575	4735
2761.462	4810
2763.349	4851
2765.237	4743
2767.124	4792
2769.009	4805
2770.894	4756
2772.779	4751
2774.663	4713
2776.547	4733
2778.431	4787
2780.314	4774
2782.197	4855
2784.078	4768
2785.96	4737
2787.842	4734
2789.723	4682
2791.603	4874
2793.483	4744
2795.362	4730
2797.241	4826
2799.121	4725
2800.997	4724
2802.874	4762
2804.751	4775
2806.628	4768
2808.506	4672
2810.38	4704
2812.255	4618
2814.13	4589
2816.003	4821
2817.878	4708
2819.752	4709
2821.623	4794
2823.496	4587
2825.368	4735
2827.238	4675
2829.111	4747
2830.98	4618
2832.851	4792
2834.719	4747
2836.589	4701
2838.458	4713
2840.327	4724
2842.193	4708
2844.061	4678
2845.927	4679
2847.794	4641
2849.66	4778
2851.525	4774
2853.39	4698
2855.254	4860
2857.117	4740
2858.983	4855
2860.845	4813
2862.707	4816
2864.569	4897
2866.431	4949
2868.293	4874
2870.154	4861
2872.013	5010
2873.873	5009
2875.733	5036
2877.592	4963
2879.451	5136
2881.309	5085
2883.166	5086
2885.022	5121
2886.879	5104
2888.736	5111
2890.591	5108
2892.446	5111
2894.301	5269
2896.155	5130
2898.009	5103
2899.863	5114
2901.716	5059
2903.568	5159
2905.419	5159
2907.27	5205
2909.123	5122
2910.973	5175
2912.824	5211
2914.673	5255
2916.521	5164
2918.372	5327
2920.22	5361
2922.067	5448
2923.914	5347
2925.761	5482
2927.607	5384
2929.455	5532
2931.301	5447
2933.144	5526
2934.99	5532
2936.833	5589
2938.678	5727
2940.522	5622
2942.364	5770
2944.207	5920
2946.048	5769
2947.891	5892
2949.731	5877
2951.571	5647
2953.412	5765
2955.25	5682
2957.09	5688
2958.93	5612
2960.767	5683
2962.606	5519
2964.443	5581
2966.279	5446
2968.116	5495
2969.953	5327
2971.788	5341
2973.623	5399
2975.457	5358
2977.292	5233
2979.127	5167
2980.959	5218
2982.792	5054
2984.624	5180
2986.455	5143
2988.288	5170
2990.119	5168
2991.949	5141
2993.779	5025
2995.608	4975
2997.439	5025
2999.268	4999
3001.096	4922
3002.923	4874
3004.751	4890
3006.578	4772
3008.406	4956
3010.232	4795
3012.057	4850
3013.883	4725
3015.706	4832
3017.532	4641
3019.356	4653
3021.179	4642
3023.002	4690
3024.823	4623
3026.646	4590
3028.469	4665
3030.289	4664
3032.11	4520
3033.93	4638
3035.749	4528
3037.57	4480
3039.39	4491
3041.207	4512
3043.026	4531
3044.842	4467
3046.661	4555
3048.477	4531
3050.294	4478
3052.109	4515
3053.925	4492
3055.739	4482
3057.555	4592
3059.368	4500
3061.181	4532
3062.995	4421
3064.807	4488
3066.62	4353
3068.433	4473
3070.243	4378
3072.054	4495
3073.865	4457
3075.675	4485
3077.485	4416
3079.293	4359
3081.102	4399
3082.911	4431
3084.719	4371
3086.527	4504
3088.333	4414
3090.139	4511
3091.945	4340
3093.75	4403
3095.557	4380
3097.361	4378
3099.165	4385
3100.969	4325
3102.772	4370
3104.575	4367
3106.379	4345
3108.181	4330
3109.982	4402
3111.783	4433
3113.584	4365
3115.386	4405
3117.186	4368
3118.985	4399
3120.783	4290
3122.582	4342
3124.381	4335
3126.179	4250
3127.975	4371
3129.772	4297
3131.569	4281
3133.365	4227
3135.161	4283
3136.956	4239
3138.751	4295
3140.544	4256
3142.338	4279
3144.132	4258
3145.925	4254
3147.717	4313
3149.509	4292
3151.301	4231
3153.091	4234
3154.884	4232
3156.673	4277
3158.462	4262
3160.252	4303
3162.041	4201
3163.831	4279
3165.618	4240
3167.405	4170
3169.193	4263
3170.979	4373
3172.767	4271
3174.553	4261
3176.338	4174
3178.123	4291
3179.907	4190
3181.692	4215
3183.477	4279
3185.259	4252
3187.042	4222
3188.824	4277
3190.607	4172
3192.389	4244
3194.17	4181
3195.951	4217
3197.73	4194
3199.51	4218
3201.289	4205
3203.07	4166
3204.848	4229
3206.626	4220
3208.403	4139
3210.18	4181
3211.959	4239
3213.735	4206
3215.511	4246
3217.285	4106
3219.06	4186
3220.836	4173
3222.611	4179
3224.384	4201
3226.158	4289
3227.929	4199
3229.702	4209
3231.476	4129
3233.248	4218
3235.018	4231
3236.789	4282
3238.56	4078
3240.33	4141
3242.1	4101
3243.869	4155
3245.637	4166
3247.405	4129
3249.172	4180
3250.941	4132
3252.707	4147
3254.474	4226
3256.24	4163
3258.006	4162
3259.772	4190
3261.537	4207
3263.301	4124
3265.065	4191
3266.828	4150
3268.592	4219
3270.355	4227
3272.117	4197
3273.878	4188
3275.64	4260
3277.401	4209
3279.162	4193
3280.922	4106
3282.682	4261
3284.441	4280
3286.199	4143
3287.959	4207
3289.716	4075
3291.475	4195
3293.232	4225
3294.988	4191
3296.744	4239
3298.501	4134
3300.256	4170
3302.011	4172
3303.766	4222
3305.52	4192
3307.275	4134
3309.028	4143
3310.781	4158
3312.533	4196
3314.285	4271
3316.038	4099
3317.789	4206
3319.54	4199
3321.289	4176
3323.039	4129
3324.789	4162
3326.539	4214
3328.288	4219
3330.035	4198
3331.783	4145
3333.531	4186
3335.28	4191
3337.025	4140
3338.771	4198
3340.518	4172
3342.262	4113
3344.009	4212
3345.753	4076
3347.497	4153
3349.24	4118
3350.983	4121
3352.726	4115
3354.469	4097
3356.212	4112
3357.952	4183
3359.694	4101
3361.434	4099
3363.176	4136
3364.916	4177
3366.654	4099
3368.394	4086
3370.132	4123
3371.871	4030
3373.61	4037
3375.346	4015
3377.083	4057
3378.82	4019
3380.556	4071
3382.292	4117
3384.027	3950
3385.763	4074
3387.497	4006
3389.231	4075
3390.965	4058
3392.698	4039
3394.431	4003
3396.164	3941
3397.896	3978
3399.627	4043
3401.36	3923
3403.09	3999
3404.82	4140
3406.55	4005
3408.279	3975
3410.01	4028
3411.738	3959
3413.467	3993
3415.194	4027
3416.92	4006
3418.647	3892
3420.375	3956
3422.102	3976
3423.827	3849
3425.553	3887
3427.277	3933
3429.003	3968
3430.727	3960
3432.451	4087
3434.173	3877
3435.896	3921
3437.62	3901
3439.343	3941
3441.063	3941
3442.785	3936
3444.505	3819
3446.226	3824
3447.948	3885
3449.666	3865
3451.386	3907
3453.104	3949
3454.823	3967
3456.541	3878
3458.259	3915
3459.976	3921
3461.693	3899
3463.408	3756
3465.125	3882
3466.841	3860
3468.556	3807
3470.271	3849
3471.985	3804
3473.698	3867
3475.414	3787
3477.126	3840
3478.838	3838
3480.55	3811
3482.263	3794
3483.975	3884
3485.686	3817
3487.396	3819
3489.106	3743
3490.817	3759
3492.526	3732
3494.236	3822
3495.944	3739
3497.652	3705
3499.359	3774
3501.066	3728
3502.775	3678
3504.481	3767
3506.187	3746
3507.893	3746
3509.598	3704
3511.304	3776
3513.009	3706
3514.713	3713
3516.417	3733
3518.12	3675
3519.821	3723
3521.525	3639
3523.228	3658
3524.929	3731
3526.631	3570
3528.33	3673
3530.032	3635
3531.733	3613
3533.433	3697
3535.131	3592
3536.83	3668
3538.529	3646
3540.227	3698
3541.925	3609
3543.623	3636
3545.319	3657
3547.016	3557
3548.712	3562
3550.408	3626
3552.103	3671
3553.798	3591
3555.491	3594
3557.188	3586
3558.88	3689
3560.574	3545
3562.266	3586
3563.959	3589
3565.651	3640
3567.343	3560
3569.035	3581
3570.725	3577
3572.415	3601
3574.106	3567
3575.797	3633
3577.485	3561
3579.174	3612
3580.863	3602
3582.551	3546
3584.238	3574
3585.926	3571
3587.613	3496
3589.3	3428
3590.986	3523
3592.671	3483
3594.357	3532
3596.042	3447
3597.726	3474
3599.41	3525
3601.094	3478
3602.778	3473
3604.461	3453
3606.143	3513
3607.825	3456
3609.507	3416
3611.188	3493
3612.87	3487
3614.551	3557
3616.229	3429
3617.909	3378
3619.589	3406
3621.269	3502
3622.948	3465
3624.625	3404
3626.302	3402
3627.98	3401
3629.657	3412
3631.334	3400
3633.01	3372
3634.686	3428
3636.361	3380
3638.036	3346
3639.712	3414
3641.385	3326
3643.06	3304
3644.732	3324
3646.405	3434
3648.08	3350
3649.751	3325
3651.424	3351
3653.094	3354
3654.766	3303
3656.436	3316
3658.106	3288
3659.777	3322
3661.446	3397
3663.115	3327
3664.783	3290
3666.452	3325
3668.121	3351
3669.788	3262
3671.454	3249
3673.121	3240
3674.789	3294
3676.455	3287
3678.12	3226
3679.784	3281
3681.45	3323
3683.114	3261
3684.779	3294
3686.442	3232
3688.105	3252
3689.768	3353
3691.43	3223
3693.093	3236
3694.754	3252
3696.415	3248
3698.076	3314
3699.736	3204
3701.396	3207
3703.057	3241
3704.716	3222
3706.375	3274
3708.034	3305
3709.692	3200
3711.351	3265
3713.008	3212
3714.665	3215
3716.321	3202
3717.977	3213
3719.634	3197
3721.29	3233
3722.945	3279
3724.598	3203
3726.253	3229
3727.907	3206
3729.561	3103
3731.214	3147
3732.867	3205
3734.518	3187
3736.171	3131
3737.824	3205
3739.474	3169
3741.125	3232
3742.775	3213
3744.425	3188
3746.074	3187
3747.725	3104
3749.373	3154
3751.022	3234
3752.669	3167
3754.318	3164
3755.966	3108
3757.612	3135
3759.259	3215
3760.905	3194
3762.55	3225
3764.197	3142
3765.842	3111
3767.486	3173
3769.131	3130
3770.774	3181
3772.417	3148
3774.061	3082
3775.705	3115
3777.347	3156
3778.988	3099
3780.629	3151
3782.271	3098
3783.912	3113
3785.552	3098
3787.192	3094
3788.831	3026
3790.472	3056
3792.112	3114
3793.75	3103
3795.388	3108
3797.024	3098
3798.661	3129
3800.3	3034
3801.936	3062
3803.572	3080
3805.208	3101
3806.844	3052
3808.48	3025
3810.115	3069
3811.748	2996
3813.382	3103
3815.016	3037
3816.649	3041
3818.283	3025
3819.914	3092
3821.547	3036
3823.178	3084
3824.809	3032
3826.441	3042
3828.072	3047
3829.701	2978
3831.331	3052
3832.96	3023
3834.591	3060
3836.219	3021
3837.847	2993
3839.475	3000
3841.102	2981
3842.729	3125
3844.357	2993
3845.984	2975
3847.609	2948
3849.234	3002
3850.86	2913
3852.485	2983
3854.11	2939
3855.734	2935
3857.357	3041
3858.981	3057
3860.603	3063
3862.227	2988
3863.848	2981
3865.471	3022
3867.092	2962
3868.713	2927
3870.334	3004
3871.954	3019
3873.575	2931
3875.194	2961
3876.813	2942
3878.433	3002
3880.051	2993
3881.669	2938
3883.286	2946
3884.904	2923
3886.52	2916
3888.138	2915
3889.754	2929
3891.37	2924
3892.985	2868
3894.6	2952
3896.216	2926
3897.831	2889
3899.444	2882
3901.058	2931
3902.67	2927
3904.283	2916
3905.897	2966
3907.509	2949
3909.121	2864
3910.731	2908
3912.342	2950
3913.954	2879
3915.563	2920
3917.174	2949
3918.783	2911
3920.391	2935
3922.002	2921
3923.611	2976
3925.218	2912
3926.826	2931
3928.432	2838
3930.039	2872
3931.647	2908
3933.253	2922
3934.859	2862
3936.464	2836
3938.068	2828
3939.675	2884
3941.278	2836
3942.883	2864
3944.486	2835
3946.089	2890
3947.692	2866
3949.295	2875
3950.898	2859
3952.499	2815
3954.1	2886
3955.7	2907
3957.303	2856
3958.903	2831
3960.502	2863
3962.101	2833
3963.7	2815
3965.301	2834
3966.899	2866
3968.497	2811
3970.094	2850
3971.691	2835
3973.288	2818
3974.885	2855
3976.481	2730
3978.077	2825
3979.672	2822
3981.267	2841
3982.863	2841
3984.457	2747
3986.051	2815
3987.645	2788
3989.238	2776
3990.831	2830
3992.425	2782
3994.017	2708
3995.607	2795
3997.199	2772
3998.79	2734
4000.382	2754
4001.973	2784
4003.561	2764
4005.151	2837
4006.741	2707
4008.331	2727
4009.918	2733
4011.507	2759
4013.095	2741
4014.681	2845
4016.269	2725
4017.856	2780
4019.443	2744
4021.028	2656
4022.614	2726
4024.199	2700
4025.785	2805
4027.37	2688
4028.953	2692
4030.536	2701
4032.12	2680
4033.704	2674
4035.287	2753
4036.869	2670
4038.45	2589
4040.032	2617
4041.613	2634
4043.195	2618
4044.776	2675
4046.356	2642
4047.935	2674
4049.515	2647
4051.095	2731
4052.674	2676
4054.251	2656
4055.829	2672
4057.406	2672
4058.985	2633
4060.562	2663
4062.139	2653
4063.715	2659
4065.29	2566
4066.865	2696
4068.442	2615
4070.016	2627
4071.59	2566
4073.164	2640
4074.738	2633
4076.312	2714
4077.885	2622
4079.458	2708
4081.03	2574
4082.602	2635
4084.173	2676
4085.745	2665
4087.315	2630
4088.886	2692
4090.456	2574
4092.026	2578
4093.596	2580
4095.165	2610
4096.734	2586
4098.301	2658
4099.869	2605
4101.437	2539
4103.006	2582
4104.572	2626
4106.139	2552
4107.704	2643
4109.27	2615
4110.837	2571
4112.401	2569
4113.966	2583
4115.53	2572
4117.094	2564
4118.659	2588
4120.223	2528
4121.785	2535
4123.347	2595
4124.909	2603
4126.471	2589
4128.034	2580
4129.595	2559
4131.155	2537
4132.716	2516
4134.275	2499
4135.836	2528
4137.395	2511
4138.955	2472
4140.513	2543
4142.071	2533
4143.628	2491
4145.188	2551
4146.745	2505
4148.302	2556
4149.858	2579
4151.414	2548
4152.971	2518
4154.526	2479
4156.081	2476
4157.635	2453
4159.189	2476
4160.745	2511
4162.298	2525
4163.852	2446
4165.405	2531
4166.957	2545
4168.51	2446
4170.063	2462
4171.614	2422
4173.166	2476
4174.717	2408
4176.267	2440
4177.817	2508
4179.368	2460
4180.917	2450
4182.466	2425
4184.016	2521
4185.564	2442
4187.112	2455
4188.66	2436
4190.207	2382
4191.754	2468
4193.301	2415
4194.848	2440
4196.394	2483
4197.94	2453
4199.484	2420
4201.03	2456
4202.575	2431
4204.12	2384
4205.663	2453
4207.207	2394
4208.75	2441
4210.292	2356
4211.836	2417
4213.378	2404
4214.92	2411
4216.46	2412
4218.002	2388
4219.544	2458
4221.083	2362
4222.625	2363
4224.164	2424
4225.703	2323
4227.244	2380
4228.782	2374
4230.32	2370
4231.857	2385
4233.395	2369
4234.933	2374
4236.471	2376
4238.007	2345
4239.542	2422
4241.078	2397
4242.614	2416
4244.15	2367
4245.685	2397
4247.219	2426
4248.753	2318
4250.287	2281
4251.82	2401
4253.354	2316
4254.887	2356
4256.419	2361
4257.951	2396
4259.483	2391
4261.016	2362
4262.547	2335
4264.078	2320
4265.608	2259
4267.137	2342
4268.668	2273
4270.197	2348
4271.727	2322
4273.254	2290
4274.783	2345
4276.311	2406
4277.84	2364
4279.366	2311
4280.894	2311
4282.42	2345
4283.946	2291
4285.473	2303
4286.998	2324
4288.523	2298
4290.047	2294
4291.572	2328
4293.096	2270
4294.622	2317
4296.144	2292
4297.668	2316
4299.19	2331
4300.713	2356
4302.236	2267
4303.758	2319
4305.279	2320
4306.799	2254
4308.321	2280
4309.842	2301
4311.361	2335
4312.882	2279
4314.401	2229
