400.0961	2637
402.6185	2721
405.1424	2660
407.6635	2594
410.1838	2710
412.7035	2679
415.2225	2670
417.7388	2757
420.2585	2679
422.7754	2772
425.2917	2853
427.8072	2876
430.3221	2828
432.8363	2893
435.3498	2860
437.8626	2890
440.3727	2849
442.8841	2829
445.3969	2831
447.907	2778
450.4142	2846
452.9229	2787
455.4289	2740
457.9362	2779
460.4449	2821
462.9488	2793
465.454	2753
467.9566	2756
470.4604	2732
472.9637	2765
475.4662	2732
477.966	2707
480.4671	2754
482.9656	2751
485.4633	2799
487.9645	2768
490.4608	2842
492.9566	2730
495.4536	2741
497.948	2850
500.4437	2758
502.9387	2830
505.431	2823
507.9226	2750
510.4136	2806
512.9079	2758
515.3975	2767
517.8864	2790
520.3746	2799
522.8622	2770
525.3491	2782
527.8394	2740
530.3249	2864
532.8098	2851
535.2939	2775
537.7774	2820
540.2623	2874
542.7444	2823
545.2259	2858
547.7067	2787
550.1868	2844
552.6683	2941
555.147	2867
557.6231	2855
560.1005	2896
562.5773	2896
565.0534	2893
567.5308	2882
570.0056	2966
572.4776	2938
574.951	2964
577.4237	2936
579.8978	3040
582.3671	3028
584.8378	3058
587.3079	2978
589.7773	3031
592.244	3047
594.714	3002
597.1793	3034
599.6461	2964
602.1121	2929
604.5754	3021
607.0421	2989
609.5042	3035
611.9675	2977
614.4282	3007
616.8902	2960
619.3515	2996
621.8122	2997
624.2702	2918
626.7296	2917
629.1863	2859
631.6423	2926
634.1017	2872
636.5563	2887
639.0104	2938
641.4658	2917
643.9185	2885
646.3725	2900
648.8239	2936
651.2766	2972
653.7266	2861
656.176	2939
658.6247	2880
661.0748	2976
663.5242	2954
665.9709	2950
668.417	2877
670.8624	2984
673.3092	3000
675.7533	2994
678.1968	3006
680.6395	3009
683.0817	2921
685.5251	2986
687.9659	3010
690.4061	2977
692.8456	2923
695.2844	2987
697.7226	3065
700.1621	2998
702.599	2988
705.0332	3039
707.4688	3036
709.9036	3000
712.3399	3081
714.7735	3029
717.2044	3025
719.6367	3014
722.0683	3067
724.4993	3011
726.9296	3103
729.3593	3079
731.7883	3079
734.2147	3031
736.6423	3115
739.0714	3128
741.4958	3080
743.9216	3152
746.3447	3039
748.7691	3142
751.1929	3098
753.616	3133
756.0366	3192
758.4584	3205
760.8776	3169
763.2982	3270
765.718	3182
768.1373	3237
770.5539	3246
772.9698	3190
775.3871	3204
777.8038	3172
780.2178	3248
782.6332	3192
785.0459	3195
787.458	3152
789.8714	3225
792.2842	3141
794.6943	3230
797.1038	3194
799.5127	3147
801.9209	3223
804.3324	3098
806.7393	3266
809.1456	3233
811.5513	3221
813.9562	3281
816.3625	3233
818.7663	3215
821.1693	3270
823.5718	3246
825.9735	3164
828.3746	3209
830.7771	3187
833.177	3322
835.5762	3258
837.9747	3278
840.3727	3227
842.772	3215
845.1666	3302
847.5626	3280
849.958	3271
852.3527	3398
854.7488	3375
857.1403	3414
859.5331	3442
861.9253	3320
864.3168	3383
866.7057	3429
869.098	3404
871.4876	3348
873.8746	3359
876.263	3365
878.6487	3318
881.0378	3378
883.4243	3332
885.8081	3310
888.1933	3337
890.5759	3305
892.9598	3309
895.343	3366
897.7256	3330
900.1057	3324
902.4871	3319
904.8659	3326
907.246	3419
909.6254	3323
912.0023	3466
914.3786	3461
916.7562	3498
919.1331	3540
921.5074	3621
923.8831	3581
926.2562	3695
928.6287	3663
931.0005	3537
933.3757	3652
935.7462	3694
938.1162	3607
940.4855	3779
942.8542	3698
945.2242	3857
947.5916	3981
949.9584	4028
952.3266	4293
954.6921	4639
957.0571	4893
959.4233	5082
961.787	5184
964.15	5075
966.5125	4962
968.8742	4658
971.2354	4396
973.5959	3940
975.9559	3927
978.3151	3706
980.6738	3671
983.0338	3630
985.3912	3554
987.7461	3431
990.1022	3503
992.4578	3488
994.8127	3473
997.1689	3471
999.5207	3516
1001.874	3510
1004.226	3585
1006.576	3564
1008.929	3593
1011.28	3517
1013.628	3516
1015.977	3443
1018.324	3434
1020.674	3508
1023.019	3596
1025.366	3561
1027.713	3640
1030.056	3625
1032.399	3567
1034.746	3640
1037.087	3564
1039.431	3595
1041.771	3578
1044.113	3604
1046.454	3649
1048.793	3572
1051.133	3574
1053.471	3548
1055.807	3585
1058.146	3648
1060.483	3658
1062.818	3668
1065.153	3698
1067.489	3721
1069.822	3797
1072.156	3719
1074.488	3728
1076.82	3737
1079.15	3684
1081.48	3673
1083.814	3604
1086.143	3593
1088.471	3611
1090.799	3594
1093.126	3542
1095.452	3557
1097.78	3588
1100.105	3580
1102.43	3569
1104.754	3544
1107.077	3578
1109.4	3558
1111.722	3611
1114.044	3602
1116.365	3509
1118.685	3503
1121.005	3481
1123.324	3576
1125.643	3520
1127.961	3555
1130.278	3567
1132.595	3557
1134.911	3566
1137.226	3489
1139.541	3475
1141.854	3505
1144.167	3541
1146.482	3533
1148.793	3489
1151.105	3460
1153.414	3511
1155.725	3436
1158.033	3551
1160.344	3543
1162.651	3563
1164.959	3549
1167.265	3569
1169.572	3530
1171.878	3554
1174.184	3569
1176.488	3478
1178.79	3568
1181.094	3602
1183.396	3487
1185.699	3547
1188.001	3560
1190.301	3581
1192.6	3441
1194.9	3598
1197.2	3512
1199.497	3473
1201.794	3435
1204.09	3563
1206.387	3512
1208.684	3536
1210.978	3559
1213.272	3539
1215.565	3569
1217.858	3494
1220.15	3523
1222.443	3635
1224.734	3601
1227.024	3614
1229.313	3639
1231.602	3669
1233.892	3658
1236.18	3691
1238.467	3735
1240.754	3656
1243.04	3717
1245.325	3720
1247.612	3762
1249.896	3771
1252.178	3752
1254.461	3733
1256.743	3767
1259.027	3701
1261.308	3771
1263.587	3714
1265.867	3821
1268.146	3765
1270.425	3717
1272.703	3723
1274.981	3678
1277.256	3737
1279.532	3740
1281.808	3799
1284.083	3632
1286.358	3757
1288.63	3747
1290.904	3731
1293.175	3751
1295.449	3688
1297.719	3729
1299.99	3692
1302.259	3581
1304.529	3652
1306.798	3721
1309.065	3621
1311.333	3545
1313.599	3567
1315.866	3612
1318.131	3647
1320.396	3756
1322.66	3592
1324.925	3733
1327.187	3623
1329.448	3656
1331.711	3730
1333.974	3668
1336.234	3619
1338.493	3746
1340.752	3701
1343.01	3659
1345.269	3666
1347.526	3673
1349.784	3712
1352.04	3647
1354.295	3695
1356.552	3669
1358.806	3698
1361.059	3595
1363.312	3559
1365.564	3639
1367.818	3661
1370.069	3775
1372.318	3713
1374.568	3597
1376.817	3714
1379.066	3642
1381.316	3708
1383.564	3748
1385.809	3724
1388.056	3649
1390.301	3796
1392.549	3703
1394.793	3834
1397.036	3831
1399.279	3823
1401.522	3885
1403.763	3824
1406.007	3850
1408.248	3844
1410.487	3782
1412.727	3814
1414.965	3832
1417.205	3889
1419.442	3863
1421.68	3821
1423.915	3758
1426.152	3870
1428.388	3829
1430.623	3809
1432.857	3760
1435.091	3906
1437.323	3893
1439.556	3937
1441.789	3977
1444.019	3962
1446.25	3922
1448.48	3885
1450.708	3965
1452.938	3967
1455.167	4024
1457.394	3996
1459.62	3951
1461.846	3873
1464.073	3985
1466.299	3941
1468.523	3857
1470.746	3899
1472.969	3880
1475.191	3798
1477.415	3726
1479.636	3804
1481.858	3681
1484.078	3732
1486.298	3765
1488.518	3622
1490.736	3729
1492.954	3696
1495.169	3681
1497.386	3620
1499.602	3603
1501.819	3656
1504.034	3634
1506.248	3601
1508.462	3641
1510.675	3516
1512.888	3649
1515.1	3637
1517.311	3587
1519.522	3759
1521.732	3548
1523.942	3636
1526.151	3622
1528.36	3670
1530.566	3657
1532.773	3594
1534.98	3658
1537.187	3610
1539.392	3661
1541.596	3723
1543.801	3620
1546.005	3738
1548.208	3632
1550.411	3692
1552.612	3668
1554.814	3638
1557.013	3722
1559.212	3683
1561.414	3756
1563.612	3674
1565.811	3761
1568.007	3801
1570.203	3726
1572.403	3639
1574.598	3707
1576.792	3734
1578.988	3661
1581.181	3728
1583.376	3740
1585.568	3733
1587.761	3783
1589.952	3758
1592.143	3822
1594.333	3803
1596.524	3658
1598.715	3756
1600.903	3751
1603.091	3758
1605.278	3814
1607.466	3736
1609.652	3810
1611.838	3743
1614.023	3825
1616.207	3757
1618.391	3778
1620.576	3684
1622.759	3856
1624.941	3812
1627.123	3857
1629.304	3902
1631.484	3849
1633.664	3895
1635.844	3932
1638.022	3922
1640.201	3867
1642.38	3903
1644.556	3910
1646.732	4028
1648.908	3956
1651.084	3843
1653.257	3917
1655.433	3945
1657.607	3847
1659.779	4042
1661.951	3991
1664.122	3999
1666.295	3972
1668.467	3981
1670.635	3931
1672.805	4097
1674.973	4025
1677.142	4054
1679.31	3955
1681.478	4028
1683.644	3959
1685.81	4000
1687.975	3888
1690.142	3876
1692.305	3855
1694.468	3990
1696.632	3838
1698.794	3872
1700.957	3827
1703.119	3800
1705.279	3801
1707.439	3829
1709.598	3780
1711.758	3702
1713.917	3725
1716.075	3721
1718.231	3749
1720.388	3781
1722.543	3767
1724.702	3770
1726.856	3711
1729.01	3769
1731.164	3736
1733.317	3780
1735.471	3769
1737.623	3687
1739.774	3758
1741.925	3785
1744.075	3756
1746.225	3820
1748.376	3654
1750.524	3732
1752.672	3737
1754.82	3767
1756.965	3752
1759.113	3765
1761.259	3747
1763.405	3737
1765.549	3823
1767.694	3729
1769.836	3776
1771.981	3808
1774.123	3751
1776.264	3752
1778.405	3861
1780.546	3813
1782.687	3698
1784.827	3739
1786.966	3790
1789.103	3757
1791.242	3850
1793.381	3899
1795.517	3874
1797.653	3792
1799.788	3763
1801.923	3787
1804.057	3728
1806.193	3768
1808.326	3820
1810.457	3790
1812.59	3830
1814.721	3791
1816.855	3762
1818.984	3815
1821.113	3834
1823.244	3782
1825.372	3783
1827.499	3860
1829.63	3809
1831.756	3716
1833.882	3791
1836.007	3801
1838.132	3807
1840.26	3790
1842.384	3759
1844.507	3767
1846.63	3764
1848.752	3773
1850.875	3790
1852.996	3800
1855.118	3787
1857.238	3813
1859.358	3811
1861.477	3752
1863.597	3781
1865.715	3707
1867.832	3791
1869.948	3737
1872.064	3739
1874.181	3727
1876.297	3745
1878.411	3813
1880.526	3793
1882.639	3752
1884.752	3783
1886.865	3716
1888.977	3751
1891.089	3812
1893.2	3709
1895.308	3819
1897.42	3825
1899.53	3777
1901.639	3829
1903.745	3747
1905.853	3777
1907.962	3877
1910.067	3812
1912.174	3770
1914.278	3759
1916.383	3887
1918.486	3778
1920.592	3855
1922.694	3898
1924.797	3768
1926.898	3855
1929	3933
1931.102	3810
1933.203	3838
1935.301	3749
1937.401	3765
1939.499	3802
1941.598	3848
1943.697	4009
1945.793	3779
1947.888	3874
1949.985	3783
1952.08	3797
1954.176	3805
1956.269	3891
1958.364	3908
1960.457	3850
1962.549	3769
1964.642	3846
1966.733	3792
1968.823	3894
1970.913	3762
1973.005	3862
1975.093	3800
1977.184	3808
1979.271	3853
1981.359	3849
1983.446	3845
1985.532	3785
1987.619	3845
1989.705	3777
1991.789	3698
1993.874	3823
1995.956	3879
1998.041	3854
2000.123	3870
2002.206	3803
2004.287	3774
2006.368	3757
2008.449	3814
2010.529	3781
2012.609	3759
2014.688	3826
2016.766	3760
2018.843	3821
2020.922	3771
2022.999	3797
2025.074	3785
2027.15	3800
2029.225	3806
2031.299	3874
2033.375	3765
2035.447	3779
2037.52	3783
2039.592	3808
2041.664	3850
2043.736	3805
2045.807	3741
2047.876	3833
2049.947	3814
2052.015	3840
2054.086	3874
2056.153	3836
2058.221	3732
2060.288	3771
2062.353	3795
2064.42	3814
2066.486	3803
2068.55	3774
2070.614	3789
2072.678	3860
2074.741	3800
2076.805	3858
2078.866	3866
2080.929	3742
2082.99	3892
2085.049	3832
2087.109	3797
2089.17	3763
2091.228	3857
2093.286	3785
2095.344	3873
2097.4	3754
2099.46	3816
2101.516	3806
2103.572	3792
2105.626	3784
2107.679	3758
2109.735	3882
2111.788	3749
2113.841	3745
2115.894	3782
2117.945	3873
2119.997	3819
2122.049	3889
2124.1	3696
2126.148	3807
2128.197	3803
2130.246	3807
2132.296	3779
2134.342	3841
2136.39	3747
2138.437	3773
2140.483	3749
2142.527	3864
2144.574	3792
2146.619	3803
2148.661	3887
2150.705	3851
2152.747	3803
2154.792	3796
2156.832	3830
2158.874	3899
2160.915	3799
2162.954	3790
2164.995	3819
2167.034	3820
2169.072	3767
2171.111	3716
2173.148	3703
2175.186	3817
2177.223	3797
2179.258	3808
2181.294	3779
2183.328	3806
2185.362	3862
2187.398	3770
2189.431	3709
2191.463	3766
2193.495	3722
2195.528	3728
2197.56	3792
2199.59	3762
2201.62	3765
2203.649	3708
2205.678	3752
2207.708	3703
2209.737	3786
2211.764	3716
2213.791	3714
2215.817	3697
2217.843	3680
2219.87	3772
2221.895	3725
2223.919	3747
2225.942	3666
2227.966	3723
2229.988	3681
2232.012	3728
2234.032	3682
2236.054	3699
2238.074	3707
2240.095	3776
2242.116	3786
2244.135	3802
2246.153	3744
2248.171	3775
2250.188	3721
2252.208	3711
2254.223	3798
2256.239	3740
2258.255	3690
2260.269	3790
2262.283	3697
2264.3	3706
2266.312	3747
2268.325	3728
2270.336	3723
2272.349	3784
2274.362	3795
2276.372	3698
2278.383	3773
2280.392	3732
2282.402	3799
2284.409	3771
2286.418	3799
2288.427	3762
2290.433	3779
2292.441	3736
2294.446	3745
2296.453	3760
2298.459	3688
2300.463	3689
2302.466	3779
2304.471	3741
2306.475	3727
2308.477	3704
2310.478	3730
2312.481	3718
2314.481	3707
2316.481	3610
2318.482	3706
2320.482	3724
2322.48	3764
2324.48	3646
2326.478	3641
2328.476	3764
2330.473	3727
2332.469	3750
2334.465	3782
2336.46	3712
2338.454	3730
2340.45	3699
2342.444	3677
2344.437	3703
2346.43	3667
2348.421	3699
2350.414	3701
2352.405	3698
2354.396	3666
2356.386	3692
2358.376	3679
2360.366	3715
2362.355	3622
2364.343	3614
2366.331	3676
2368.317	3727
2370.304	3691
2372.292	3705
2374.278	3659
2376.262	3709
2378.247	3636
2380.23	3657
2382.216	3631
2384.199	3741
2386.181	3655
2388.163	3599
2390.144	3594
2392.127	3623
2394.107	3596
2396.087	3676
2398.066	3563
2400.046	3692
2402.023	3635
2404.004	3626
2405.981	3669
2407.957	3666
2409.934	3578
2411.91	3706
2413.886	3658
2415.862	3608
2417.836	3663
2419.809	3586
2421.784	3627
2423.756	3583
2425.73	3690
2427.701	3622
2429.672	3607
2431.644	3652
2433.615	3614
2435.586	3596
2437.555	3649
2439.523	3648
2441.491	3677
2443.459	3603
2445.428	3576
2447.395	3642
2449.361	3535
2451.327	3634
2453.292	3615
2455.257	3598
2457.223	3671
2459.187	3679
2461.15	3623
2463.113	3536
2465.076	3583
2467.039	3679
2468.999	3600
2470.96	3547
2472.921	3615
2474.881	3622
2476.841	3588
2478.8	3599
2480.759	3583
2482.717	3631
2484.675	3616
2486.63	3632
2488.589	3607
2490.545	3621
2492.5	3544
2494.455	3550
2496.408	3546
2498.364	3582
2500.318	3532
2502.27	3637
2504.223	3525
2506.174	3615
2508.126	3594
2510.078	3554
2512.03	3577
2513.979	3555
2515.927	3586
2517.877	3647
2519.826	3527
2521.775	3594
2523.722	3599
2525.668	3483
2527.616	3599
2529.561	3513
2531.508	3621
2533.452	3587
2535.398	3576
2537.342	3550
2539.284	3552
2541.229	3619
2543.173	3611
2545.114	3491
2547.055	3574
2548.996	3597
2550.938	3567
2552.878	3597
2554.817	3522
2556.756	3587
2558.695	3588
2560.633	3570
2562.572	3516
2564.509	3542
2566.445	3578
2568.382	3560
2570.317	3571
2572.254	3599
2574.189	3643
2576.123	3552
2578.057	3605
2579.99	3695
2581.923	3586
2583.855	3594
2585.788	3525
2587.719	3572
2589.65	3610
2591.579	3581
2593.511	3604
2595.44	3535
2597.37	3586
2599.297	3541
2601.225	3571
2603.153	3593
2605.08	3616
2607.007	3609
2608.932	3586
2610.858	3630
2612.782	3539
2614.709	3535
2616.632	3606
2618.556	3534
2620.478	3622
2622.401	3637
2624.324	3552
2626.247	3548
2628.167	3597
2630.088	3646
2632.008	3581
2633.928	3609
2635.848	3602
2637.766	3589
2639.684	3591
2641.603	3625
2643.519	3590
2645.437	3573
2647.353	3657
2649.27	3552
2651.184	3603
2653.099	3635
2655.014	3595
2656.928	3643
2658.842	3486
2660.755	3561
2662.667	3583
2664.579	3589
2666.491	3546
2668.402	3650
2670.312	3535
2672.222	3623
2674.132	3565
2676.042	3572
2677.951	3566
2679.859	3464
2681.766	3499
2683.674	3606
2685.582	3601
2687.488	3581
2689.392	3594
2691.298	3559
2693.202	3537
2695.107	3543
2697.012	3498
2698.914	3553
2700.817	3501
2702.72	3572
2704.622	3581
2706.524	3543
2708.425	3490
2710.326	3540
2712.225	3576
2714.125	3542
2716.024	3576
2717.923	3584
2719.822	3566
2721.719	3627
2723.616	3500
2725.512	3565
2727.41	3507
2729.305	3549
2731.201	3612
2733.095	3599
2734.99	3547
2736.884	3499
2738.778	3555
2740.67	3520
2742.562	3516
2744.455	3545
2746.346	3581
2748.238	3513
2750.129	3524
2752.018	3534
2753.907	3516
2755.797	3607
2757.687	3554
2759.575	3538
2761.462	3531
2763.349	3612
2765.237	3601
2767.124	3555
2769.009	3556
2770.894	3538
2772.779	3462
2774.663	3646
2776.547	3584
2778.431	3521
2780.314	3533
2782.197	3472
2784.078	3574
2785.96	3459
2787.842	3467
2789.723	3485
2791.603	3559
2793.483	3453
2795.362	3525
2797.241	3577
2799.121	3557
2800.997	3551
2802.874	3570
2804.751	3422
2806.628	3507
2808.506	3485
2810.38	3531
2812.255	3559
2814.13	3620
2816.003	3525
2817.878	3487
2819.752	3532
2821.623	3506
2823.496	3551
2825.368	3486
2827.238	3490
2829.111	3630
2830.98	3492
2832.851	3432
2834.719	3497
2836.589	3574
2838.458	3535
2840.327	3589
2842.193	3564
2844.061	3577
2845.927	3613
2847.794	3578
2849.66	3579
2851.525	3656
2853.39	3583
2855.254	3676
2857.117	3651
2858.983	3625
2860.845	3711
2862.707	3772
2864.569	3803
2866.431	3735
2868.293	3799
2870.154	3836
2872.013	3809
2873.873	4009
2875.733	4026
2877.592	4012
2879.451	3989
2881.309	4123
2883.166	4191
2885.022	4233
2886.879	4118
2888.736	4127
2890.591	4113
2892.446	4242
2894.301	4229
2896.155	4185
2898.009	4162
2899.863	4298
2901.716	4193
2903.568	4192
2905.419	4202
2907.27	4139
2909.123	4251
2910.973	4226
2912.824	4245
2914.673	4261
2916.521	4199
2918.372	4328
2920.22	4513
2922.067	4434
2923.914	4471
2925.761	4602
2927.607	4738
2929.455	4676
2931.301	4806
2933.144	4875
2934.99	4823
2936.833	4935
2938.678	4817
2940.522	4990
2942.364	5007
2944.207	5119
2946.048	5194
2947.891	5213
2949.731	5180
2951.571	5167
2953.412	5122
2955.25	5025
2957.09	4932
2958.93	5007
2960.767	4955
2962.606	4757
2964.443	4753
2966.279	4705
2968.116	4635
2969.953	4616
2971.788	4486
2973.623	4469
2975.457	4491
2977.292	4480
2979.127	4327
2980.959	4390
2982.792	4365
2984.624	4320
2986.455	4309
2988.288	4324
2990.119	4291
2991.949	4194
2993.779	4177
2995.608	4142
2997.439	4068
2999.268	4009
3001.096	3998
3002.923	3954
3004.751	3888
3006.578	3808
3008.406	3854
3010.232	3799
3012.057	3771
3013.883	3669
3015.706	3718
3017.532	3597
3019.356	3585
3021.179	3643
3023.002	3594
3024.823	3543
3026.646	3618
3028.469	3519
3030.289	3603
3032.11	3579
3033.93	3468
3035.749	3468
3037.57	3524
3039.39	3476
3041.207	3456
3043.026	3489
3044.842	3466
3046.661	3477
3048.477	3422
3050.294	3484
3052.109	3423
3053.925	3548
3055.739	3434
3057.555	3427
3059.368	3423
3061.181	3465
3062.995	3475
3064.807	3537
3066.62	3474
3068.433	3445
3070.243	3423
3072.054	3489
3073.865	3490
3075.675	3532
3077.485	3519
3079.293	3454
3081.102	3440
3082.911	3410
3084.719	3335
3086.527	3403
3088.333	3390
3090.139	3413
3091.945	3405
3093.75	3409
3095.557	3376
3097.361	3407
3099.165	3269
3100.969	3417
3102.772	3356
3104.575	3343
3106.379	3354
3108.181	3324
3109.982	3305
3111.783	3342
3113.584	3319
3115.386	3318
3117.186	3390
3118.985	3303
3120.783	3335
3122.582	3248
3124.381	3306
3126.179	3345
3127.975	3278
3129.772	3339
3131.569	3378
3133.365	3245
3135.161	3334
3136.956	3333
3138.751	3213
3140.544	3284
3142.338	3368
3144.132	3192
3145.925	3301
3147.717	3315
3149.509	3316
3151.301	3278
3153.091	3291
3154.884	3213
3156.673	3332
3158.462	3294
3160.252	3212
3162.041	3327
3163.831	3278
3165.618	3286
3167.405	3310
3169.193	3275
3170.979	3216
3172.767	3370
3174.553	3242
3176.338	3279
3178.123	3224
3179.907	3311
3181.692	3333
3183.477	3307
3185.259	3272
3187.042	3287
3188.824	3286
3190.607	3233
3192.389	3309
3194.17	3207
3195.951	3279
3197.73	3266
3199.51	3218
3201.289	3335
3203.07	3274
3204.848	3378
3206.626	3166
3208.403	3246
3210.18	3300
3211.959	3334
3213.735	3291
3215.511	3272
3217.285	3323
3219.06	3331
3220.836	3324
3222.611	3293
3224.384	3294
3226.158	3333
3227.929	3269
3229.702	3332
3231.476	3401
3233.248	3278
3235.018	3246
3236.789	3354
3238.56	3336
3240.33	3312
3242.1	3342
3243.869	3281
3245.637	3291
3247.405	3256
3249.172	3326
3250.941	3332
3252.707	3332
3254.474	3324
3256.24	3297
3258.006	3329
3259.772	3276
3261.537	3271
3263.301	3309
3265.065	3376
3266.828	3391
3268.592	3278
3270.355	3394
3272.117	3296
3273.878	3309
3275.64	3306
3277.401	3266
3279.162	3344
3280.922	3322
3282.682	3388
3284.441	3410
3286.199	3348
3287.959	3357
3289.716	3352
3291.475	3402
3293.232	3315
3294.988	3391
3296.744	3276
3298.501	3372
3300.256	3393
3302.011	3328
3303.766	3301
3305.52	3367
3307.275	3362
3309.028	3424
3310.781	3322
3312.533	3360
3314.285	3331
3316.038	3358
3317.789	3284
3319.54	3377
3321.289	3383
3323.039	3338
3324.789	3325
3326.539	3350
3328.288	3379
3330.035	3340
3331.783	3372
3333.531	3340
3335.28	3431
3337.025	3311
3338.771	3344
3340.518	3315
3342.262	3326
3344.009	3313
3345.753	3263
3347.497	3313
3349.24	3317
3350.983	3320
3352.726	3312
3354.469	3303
3356.212	3261
3357.952	3359
3359.694	3211
3361.434	3233
3363.176	3240
3364.916	3239
3366.654	3325
3368.394	3299
3370.132	3276
3371.871	3270
3373.61	3212
3375.346	3289
3377.083	3240
3378.82	3281
3380.556	3235
3382.292	3245
3384.027	3245
3385.763	3184
3387.497	3256
3389.231	3272
3390.965	3250
3392.698	3286
3394.431	3307
3396.164	3234
3397.896	3228
3399.627	3161
3401.36	3189
3403.09	3201
3404.82	3147
3406.55	3190
3408.279	3229
3410.01	3218
3411.738	3153
3413.467	3213
3415.194	3248
3416.92	3123
3418.647	3156
3420.375	3166
3422.102	3149
3423.827	3172
3425.553	3198
3427.277	3155
3429.003	3181
3430.727	3136
3432.451	3156
3434.173	3109
3435.896	3152
3437.62	3145
3439.343	3089
3441.063	3117
3442.785	3138
3444.505	3063
3446.226	3154
3447.948	3102
3449.666	3077
3451.386	3108
3453.104	3039
3454.823	3083
3456.541	3058
3458.259	3024
3459.976	3089
3461.693	3070
3463.408	3033
3465.125	3049
3466.841	3060
3468.556	3072
3470.271	3039
3471.985	3091
3473.698	3078
3475.414	3061
3477.126	3001
3478.838	2970
3480.55	3006
3482.263	3001
3483.975	3027
3485.686	3046
3487.396	3007
3489.106	2998
3490.817	2975
3492.526	2964
3494.236	2927
3495.944	2937
3497.652	3010
3499.359	2960
3501.066	2957
3502.775	3035
3504.481	3001
3506.187	2990
3507.893	2959
3509.598	2952
3511.304	2950
3513.009	2984
3514.713	2968
3516.417	2884
3518.12	2919
3519.821	2893
3521.525	2916
3523.228	2912
3524.929	2865
3526.631	2891
3528.33	2954
3530.032	2894
3531.733	2945
3533.433	2876
3535.131	2824
3536.83	2893
3538.529	2822
3540.227	2855
3541.925	2855
3543.623	2909
3545.319	2869
3547.016	2866
3548.712	2841
3550.408	2780
3552.103	2902
3553.798	2843
3555.491	2789
3557.188	2887
3558.88	2831
3560.574	2799
3562.266	2843
3563.959	2861
3565.651	2783
3567.343	2812
3569.035	2847
3570.725	2773
3572.415	2821
3574.106	2796
3575.797	2773
3577.485	2828
3579.174	2820
3580.863	2739
3582.551	2787
3584.238	2768
3585.926	2782
3587.613	2872
3589.3	2743
3590.986	2795
3592.671	2805
3594.357	2770
3596.042	2737
3597.726	2696
3599.41	2821
3601.094	2775
3602.778	2737
3604.461	2721
3606.143	2659
3607.825	2764
3609.507	2706
3611.188	2696
3612.87	2746
3614.551	2731
3616.229	2728
3617.909	2684
3619.589	2651
3621.269	2661
3622.948	2695
3624.625	2676
3626.302	2606
3627.98	2681
3629.657	2642
3631.334	2637
3633.01	2621
3634.686	2609
3636.361	2577
3638.036	2615
3639.712	2588
3641.385	2616
3643.06	2596
3644.732	2593
3646.405	2573
3648.08	2594
3649.751	2652
3651.424	2555
3653.094	2545
3654.766	2570
3656.436	2633
3658.106	2605
3659.777	2594
3661.446	2562
3663.115	2568
3664.783	2588
3666.452	2625
3668.121	2632
3669.788	2593
3671.454	2557
3673.121	2513
3674.789	2460
3676.455	2559
3678.12	2568
3679.784	2572
3681.45	2499
3683.114	2591
3684.779	2517
3686.442	2541
3688.105	2505
3689.768	2482
3691.43	2485
3693.093	2534
3694.754	2555
3696.415	2500
3698.076	2531
3699.736	2459
3701.396	2548
3703.057	2465
3704.716	2523
3706.375	2504
3708.034	2531
3709.692	2500
3711.351	2433
3713.008	2515
3714.665	2480
3716.321	2505
3717.977	2453
3719.634	2452
3721.29	2495
3722.945	2511
3724.598	2550
3726.253	2414
3727.907	2438
3729.561	2501
3731.214	2400
3732.867	2442
3734.518	2463
3736.171	2447
3737.824	2548
3739.474	2441
3741.125	2466
3742.775	2428
3744.425	2504
3746.074	2482
3747.725	2493
3749.373	2459
3751.022	2447
3752.669	2502
3754.318	2380
3755.966	2443
3757.612	2400
3759.259	2421
3760.905	2453
3762.55	2431
3764.197	2426
3765.842	2394
3767.486	2456
3769.131	2411
3770.774	2416
3772.417	2427
3774.061	2408
3775.705	2380
3777.347	2362
3778.988	2384
3780.629	2401
3782.271	2375
3783.912	2438
3785.552	2416
3787.192	2389
3788.831	2436
3790.472	2412
3792.112	2367
3793.75	2350
3795.388	2390
3797.024	2336
3798.661	2386
3800.3	2359
3801.936	2391
3803.572	2390
3805.208	2301
3806.844	2411
3808.48	2417
3810.115	2399
3811.748	2342
3813.382	2367
3815.016	2371
3816.649	2352
3818.283	2375
3819.914	2376
3821.547	2365
3823.178	2336
3824.809	2304
3826.441	2343
3828.072	2339
3829.701	2386
3831.331	2308
3832.96	2335
3834.591	2282
3836.219	2350
3837.847	2397
3839.475	2315
3841.102	2293
3842.729	2352
3844.357	2231
3845.984	2347
3847.609	2360
3849.234	2292
3850.86	2304
3852.485	2299
3854.11	2352
3855.734	2303
3857.357	2291
3858.981	2321
3860.603	2310
3862.227	2323
3863.848	2296
3865.471	2332
3867.092	2316
3868.713	2287
3870.334	2315
3871.954	2318
3873.575	2304
3875.194	2348
3876.813	2260
3878.433	2323
3880.051	2214
3881.669	2222
3883.286	2264
3884.904	2207
3886.52	2308
3888.138	2270
3889.754	2294
3891.37	2292
3892.985	2209
3894.6	2278
3896.216	2274
3897.831	2278
3899.444	2278
3901.058	2365
3902.67	2253
3904.283	2275
3905.897	2215
3907.509	2221
3909.121	2263
3910.731	2261
3912.342	2273
3913.954	2317
3915.563	2215
3917.174	2286
3918.783	2200
3920.391	2225
3922.002	2257
3923.611	2262
3925.218	2260
3926.826	2251
3928.432	2262
3930.039	2232
3931.647	2264
3933.253	2297
3934.859	2208
3936.464	2247
3938.068	2257
3939.675	2214
3941.278	2247
3942.883	2233
3944.486	2161
3946.089	2236
3947.692	2249
3949.295	2219
3950.898	2214
3952.499	2226
3954.1	2226
3955.7	2162
3957.303	2253
3958.903	2188
3960.502	2217
3962.101	2173
3963.7	2146
3965.301	2216
3966.899	2173
3968.497	2211
3970.094	2197
3971.691	2223
3973.288	2154
3974.885	2221
3976.481	2171
3978.077	2153
3979.672	2226
3981.267	2224
3982.863	2108
3984.457	2123
3986.051	2132
3987.645	2190
3989.238	2163
3990.831	2154
3992.425	2215
3994.017	2174
3995.607	2207
3997.199	2179
3998.79	2189
4000.382	2179
4001.973	2173
4003.561	2203
4005.151	2131
4006.741	2161
4008.331	2147
4009.918	2117
4011.507	2133
4013.095	2103
4014.681	2100
4016.269	2135
4017.856	2085
4019.443	2159
4021.028	2136
4022.614	2103
4024.199	2108
4025.785	2094
4027.37	2140
4028.953	2122
4030.536	2133
4032.12	2104
4033.704	2059
4035.287	2132
4036.869	2171
4038.45	2055
4040.032	2118
4041.613	2160
4043.195	2126
4044.776	2118
4046.356	2101
4047.935	2068
4049.515	2076
4051.095	2039
4052.674	2067
4054.251	2085
4055.829	2093
4057.406	2082
4058.985	2094
4060.562	2114
4062.139	2038
4063.715	2081
4065.29	2042
4066.865	2055
4068.442	2023
4070.016	2019
4071.59	2073
4073.164	2018
4074.738	2082
4076.312	1993
4077.885	2041
4079.458	2099
4081.03	2074
4082.602	2089
4084.173	2082
4085.745	2012
4087.315	2048
4088.886	2034
4090.456	2035
4092.026	2063
4093.596	2025
4095.165	2065
4096.734	2026
4098.301	2023
4099.869	2039
4101.437	2023
4103.006	2022
4104.572	2075
4106.139	2021
4107.704	2022
4109.27	2031
4110.837	2042
4112.401	2054
4113.966	1984
4115.53	1976
4117.094	1999
4118.659	2030
4120.223	1987
4121.785	1944
4123.347	1971
4124.909	2013
4126.471	1999
4128.034	1980
4129.595	2025
4131.155	2000
4132.716	1990
4134.275	2028
4135.836	2076
4137.395	2006
4138.955	1922
4140.513	1950
4142.071	1991
4143.628	1975
4145.188	2005
4146.745	1948
4148.302	1967
4149.858	1961
4151.414	1924
4152.971	1993
4154.526	1974
4156.081	1998
4157.635	1963
4159.189	1970
4160.745	1949
4162.298	1862
4163.852	1957
4165.405	1930
4166.957	1921
4168.51	1936
4170.063	1982
4171.614	1963
4173.166	1897
4174.717	1916
4176.267	1976
4177.817	1958
4179.368	1923
4180.917	1962
4182.466	1947
4184.016	1969
4185.564	1902
4187.112	1936
4188.66	1911
4190.207	1859
4191.754	1942
4193.301	1891
4194.848	1890
4196.394	1884
4197.94	1963
4199.484	1909
4201.03	1909
4202.575	1857
4204.12	1915
4205.663	1923
4207.207	1888
4208.75	1881
4210.292	1910
4211.836	1911
4213.378	1889
4214.92	1887
4216.46	1848
4218.002	1917
4219.544	1858
4221.083	1869
4222.625	1907
4224.164	1916
4225.703	1892
4227.244	1869
4228.782	1884
4230.32	1881
4231.857	1930
4233.395	1905
4234.933	1844
4236.471	1894
4238.007	1884
4239.542	1856
4241.078	1856
4242.614	1855
4244.15	1877
4245.685	1864
4247.219	1874
4248.753	1922
4250.287	1842
4251.82	1870
4253.354	1829
4254.887	1834
4256.419	1882
4257.951	1964
4259.483	1837
4261.016	1856
4262.547	1826
4264.078	1871
4265.608	1862
4267.137	1874
4268.668	1853
4270.197	1855
4271.727	1850
4273.254	1844
4274.783	1861
4276.311	1869
4277.84	1822
4279.366	1831
4280.894	1791
4282.42	1848
4283.946	1801
4285.473	1826
4286.998	1735
4288.523	1846
4290.047	1825
4291.572	1824
4293.096	1844
4294.622	1826
4296.144	1783
4297.668	1852
4299.19	1818
4300.713	1793
4302.236	1816
4303.758	1784
4305.279	1818
4306.799	1816
4308.321	1834
4309.842	1816
4311.361	1786
4312.882	1824
4314.401	1805
