400.0961	3232
402.6185	3252
405.1424	3277
407.6635	3214
410.1838	3306
412.7035	3282
415.2225	3297
417.7388	3340
420.2585	3397
422.7754	3365
425.2917	3484
427.8072	3466
430.3221	3571
432.8363	3505
435.3498	3440
437.8626	3483
440.3727	3527
442.8841	3452
445.3969	3534
447.907	3517
450.4142	3463
452.9229	3445
455.4289	3541
457.9362	3442
460.4449	3467
462.9488	3432
465.454	3472
467.9566	3482
470.4604	3493
472.9637	3450
475.4662	3373
477.966	3477
480.4671	3471
482.9656	3470
485.4633	3434
487.9645	3456
490.4608	3513
492.9566	3491
495.4536	3510
497.948	3485
500.4437	3451
502.9387	3464
505.431	3503
507.9226	3530
510.4136	3567
512.9079	3457
515.3975	3530
517.8864	3637
520.3746	3516
522.8622	3601
525.3491	3548
527.8394	3591
530.3249	3597
532.8098	3587
535.2939	3621
537.7774	3580
540.2623	3604
542.7444	3477
545.2259	3588
547.7067	3603
550.1868	3637
552.6683	3567
555.147	3591
557.6231	3612
560.1005	3672
562.5773	3623
565.0534	3598
567.5308	3660
570.0056	3623
572.4776	3651
574.951	3712
577.4237	3689
579.8978	3747
582.3671	3729
584.8378	3786
587.3079	3764
589.7773	3710
592.244	3716
594.714	3753
597.1793	3739
599.6461	3789
602.1121	3731
604.5754	3716
607.0421	3735
609.5042	3614
611.9675	3699
614.4282	3669
616.8902	3746
619.3515	3657
621.8122	3644
624.2702	3691
626.7296	3710
629.1863	3610
631.6423	3696
634.1017	3691
636.5563	3614
639.0104	3621
641.4658	3684
643.9185	3623
646.3725	3583
648.8239	3617
651.2766	3676
653.7266	3647
656.176	3606
658.6247	3752
661.0748	3725
663.5242	3711
665.9709	3704
668.417	3719
670.8624	3805
673.3092	3728
675.7533	3758
678.1968	3725
680.6395	3738
683.0817	3723
685.5251	3738
687.9659	3774
690.4061	3765
692.8456	3774
695.2844	3833
697.7226	3810
700.1621	3744
702.599	3793
705.0332	3847
707.4688	3801
709.9036	3789
712.3399	3766
714.7735	3838
717.2044	3785
719.6367	3877
722.0683	3861
724.4993	3814
726.9296	3902
729.3593	3976
731.7883	3862
734.2147	3906
736.6423	3917
739.0714	3859
741.4958	3883
743.9216	3960
746.3447	3954
748.7691	4000
751.1929	3992
753.616	3984
756.0366	4057
758.4584	3968
760.8776	3995
763.2982	4018
765.718	4015
768.1373	4060
770.5539	4019
772.9698	4088
775.3871	3999
777.8038	4048
780.2178	4054
782.6332	4065
785.0459	4034
787.458	4067
789.8714	4060
792.2842	4017
794.6943	4069
797.1038	4007
799.5127	4037
801.9209	4050
804.3324	3974
806.7393	4152
809.1456	4076
811.5513	4052
813.9562	4085
816.3625	4071
818.7663	4031
821.1693	4089
823.5718	4115
825.9735	4084
828.3746	4078
830.7771	4078
833.177	4108
835.5762	4180
837.9747	4117
840.3727	4104
842.772	4224
845.1666	4158
847.5626	4184
849.958	4212
852.3527	4206
854.7488	4269
857.1403	4295
859.5331	4325
861.9253	4300
864.3168	4245
866.7057	4200
869.098	4280
871.4876	4156
873.8746	4235
876.263	4140
878.6487	4186
881.0378	4222
883.4243	4245
885.8081	4228
888.1933	4250
890.5759	4251
892.9598	4202
895.343	4138
897.7256	4195
900.1057	4180
902.4871	4207
904.8659	4275
907.246	4156
909.6254	4249
912.0023	4248
914.3786	4184
916.7562	4317
919.1331	4450
921.5074	4466
923.8831	4469
926.2562	4503
928.6287	4460
931.0005	4390
933.3757	4436
935.7462	4517
938.1162	4609
940.4855	4637
942.8542	4612
945.2242	4660
947.5916	4789
949.9584	4928
952.3266	5060
954.6921	5362
957.0571	5505
959.4233	5815
961.787	5939
964.15	5960
966.5125	5761
968.8742	5403
971.2354	5096
973.5959	4879
975.9559	4790
978.3151	4517
980.6738	4498
983.0338	4546
985.3912	4412
987.7461	4408
990.1022	4352
992.4578	4355
994.8127	4412
997.1689	4331
999.5207	4386
1001.874	4410
1004.226	4455
1006.576	4448
1008.929	4402
1011.28	4439
1013.628	4410
1015.977	4422
1018.324	4390
1020.674	4499
1023.019	4482
1025.366	4438
1027.713	4427
1030.056	4500
1032.399	4384
1034.746	4415
1037.087	4420
1039.431	4531
1041.771	4515
1044.113	4526
1046.454	4521
1048.793	4479
1051.133	4387
1053.471	4492
1055.807	4533
1058.146	4579
1060.483	4614
1062.818	4601
1065.153	4622
1067.489	4631
1069.822	4588
1072.156	4692
1074.488	4678
1076.82	4635
1079.15	4585
1081.48	4566
1083.814	4616
1086.143	4553
1088.471	4544
1090.799	4539
1093.126	4526
1095.452	4550
1097.78	4453
1100.105	4543
1102.43	4614
1104.754	4547
1107.077	4515
1109.4	4535
1111.722	4534
1114.044	4504
1116.365	4539
1118.685	4446
1121.005	4545
1123.324	4426
1125.643	4388
1127.961	4576
1130.278	4436
1132.595	4461
1134.911	4504
1137.226	4587
1139.541	4526
1141.854	4456
1144.167	4478
1146.482	4565
1148.793	4525
1151.105	4478
1153.414	4487
1155.725	4496
1158.033	4533
1160.344	4489
1162.651	4457
1164.959	4489
1167.265	4511
1169.572	4497
1171.878	4471
1174.184	4482
1176.488	4453
1178.79	4482
1181.094	4678
1183.396	4551
1185.699	4439
1188.001	4563
1190.301	4417
1192.6	4527
1194.9	4540
1197.2	4465
1199.497	4529
1201.794	4609
1204.09	4520
1206.387	4549
1208.684	4523
1210.978	4455
1213.272	4591
1215.565	4567
1217.858	4487
1220.15	4607
1222.443	4630
1224.734	4593
1227.024	4586
1229.313	4605
1231.602	4671
1233.892	4626
1236.18	4675
1238.467	4691
1240.754	4716
1243.04	4718
1245.325	4822
1247.612	4736
1249.896	4802
1252.178	4724
1254.461	4744
1256.743	4767
1259.027	4766
1261.308	4827
1263.587	4772
1265.867	4751
1268.146	4701
1270.425	4772
1272.703	4759
1274.981	4859
1277.256	4825
1279.532	4794
1281.808	4734
1284.083	4799
1286.358	4717
1288.63	4661
1290.904	4615
1293.175	4648
1295.449	4678
1297.719	4572
1299.99	4669
1302.259	4638
1304.529	4600
1306.798	4664
1309.065	4656
1311.333	4623
1313.599	4607
1315.866	4633
1318.131	4598
1320.396	4736
1322.66	4715
1324.925	4678
1327.187	4632
1329.448	4595
1331.711	4715
1333.974	4737
1336.234	4654
1338.493	4707
1340.752	4752
1343.01	4598
1345.269	4634
1347.526	4673
1349.784	4653
1352.04	4661
1354.295	4623
1356.552	4659
1358.806	4631
1361.059	4653
1363.312	4678
1365.564	4648
1367.818	4742
1370.069	4644
1372.318	4662
1374.568	4779
1376.817	4721
1379.066	4718
1381.316	4822
1383.564	4733
1385.809	4706
1388.056	4735
1390.301	4765
1392.549	4815
1394.793	4799
1397.036	4853
1399.279	4880
1401.522	4831
1403.763	4819
1406.007	4872
1408.248	4885
1410.487	4796
1412.727	4817
1414.965	4964
1417.205	4862
1419.442	4890
1421.68	4854
1423.915	4826
1426.152	4873
1428.388	4741
1430.623	4855
1432.857	4877
1435.091	4889
1437.323	4896
1439.556	4864
1441.789	4867
1444.019	4970
1446.25	4978
1448.48	4926
1450.708	4889
1452.938	5077
1455.167	5071
1457.394	4995
1459.62	5004
1461.846	5031
1464.073	4997
1466.299	4934
1468.523	4930
1470.746	4863
1472.969	4833
1475.191	4899
1477.415	4837
1479.636	4826
1481.858	4782
1484.078	4671
1486.298	4781
1488.518	4769
1490.736	4716
1492.954	4773
1495.169	4684
1497.386	4688
1499.602	4787
1501.819	4681
1504.034	4625
1506.248	4696
1508.462	4623
1510.675	4692
1512.888	4624
1515.1	4669
1517.311	4692
1519.522	4599
1521.732	4647
1523.942	4670
1526.151	4693
1528.36	4694
1530.566	4582
1532.773	4694
1534.98	4771
1537.187	4714
1539.392	4673
1541.596	4679
1543.801	4661
1546.005	4700
1548.208	4813
1550.411	4825
1552.612	4808
1554.814	4787
1557.013	4778
1559.212	4777
1561.414	4834
1563.612	4803
1565.811	4822
1568.007	4873
1570.203	4748
1572.403	4730
1574.598	4853
1576.792	4818
1578.988	4790
1581.181	4756
1583.376	4824
1585.568	4888
1587.761	4925
1589.952	4813
1592.143	4888
1594.333	4813
1596.524	4795
1598.715	4861
1600.903	4765
1603.091	4898
1605.278	4881
1607.466	4913
1609.652	4892
1611.838	4814
1614.023	4948
1616.207	4840
1618.391	4861
1620.576	4849
1622.759	4954
1624.941	4956
1627.123	4968
1629.304	4855
1631.484	4951
1633.664	4943
1635.844	4985
1638.022	4943
1640.201	4970
1642.38	4989
1644.556	4993
1646.732	4877
1648.908	4942
1651.084	5025
1653.257	4958
1655.433	5016
1657.607	5098
1659.779	5032
1661.951	4986
1664.122	5080
1666.295	5011
1668.467	5038
1670.635	5040
1672.805	4996
1674.973	4998
1677.142	5034
1679.31	5087
1681.478	4925
1683.644	5053
1685.81	5095
1687.975	5072
1690.142	4938
1692.305	5005
1694.468	4988
1696.632	4916
1698.794	4986
1700.957	4895
1703.119	4871
1705.279	4891
1707.439	4875
1709.598	4989
1711.758	4817
1713.917	4793
1716.075	4864
1718.231	4841
1720.388	4804
1722.543	4821
1724.702	4847
1726.856	4881
1729.01	4791
1731.164	4827
1733.317	4771
1735.471	4820
1737.623	4865
1739.774	4839
1741.925	4857
1744.075	4758
1746.225	4826
1748.376	4834
1750.524	4849
1752.672	4786
1754.82	4913
1756.965	4875
1759.113	4879
1761.259	4816
1763.405	4873
1765.549	4877
1767.694	4798
1769.836	4892
1771.981	4835
1774.123	4870
1776.264	4894
1778.405	4867
1780.546	4856
1782.687	4858
1784.827	4942
1786.966	4866
1789.103	4844
1791.242	4854
1793.381	4954
1795.517	4887
1797.653	4862
1799.788	4943
1801.923	4922
1804.057	4962
1806.193	4873
1808.326	4901
1810.457	4905
1812.59	4793
1814.721	4915
1816.855	4905
1818.984	4786
1821.113	4856
1823.244	4937
1825.372	4909
1827.499	4897
1829.63	4785
1831.756	4888
1833.882	4770
1836.007	4916
1838.132	4813
1840.26	4828
1842.384	4843
1844.507	4960
1846.63	4927
1848.752	4863
1850.875	4914
1852.996	4861
1855.118	4864
1857.238	4844
1859.358	4885
1861.477	4807
1863.597	4856
1865.715	4859
1867.832	4797
1869.948	4841
1872.064	4834
1874.181	4806
1876.297	4841
1878.411	4735
1880.526	4876
1882.639	4829
1884.752	4822
1886.865	4851
1888.977	4749
1891.089	4876
1893.2	4834
1895.308	4866
1897.42	4901
1899.53	4950
1901.639	4883
1903.745	4908
1905.853	4917
1907.962	4927
1910.067	4926
1912.174	4876
1914.278	4891
1916.383	4876
1918.486	4834
1920.592	4844
1922.694	4919
1924.797	5023
1926.898	5019
1929	4872
1931.102	4942
1933.203	4886
1935.301	4856
1937.401	4924
1939.499	4949
1941.598	4916
1943.697	4913
1945.793	4936
1947.888	5008
1949.985	4885
1952.08	4909
1954.176	4896
1956.269	4933
1958.364	4920
1960.457	4831
1962.549	4986
1964.642	4820
1966.733	4969
1968.823	4937
1970.913	4913
1973.005	4903
1975.093	4933
1977.184	4846
1979.271	4808
1981.359	4877
1983.446	4914
1985.532	4922
1987.619	4940
1989.705	4883
1991.789	4808
1993.874	4980
1995.956	4868
1998.041	4946
2000.123	4841
2002.206	4835
2004.287	4926
2006.368	4825
2008.449	4835
2010.529	4923
2012.609	4848
2014.688	4808
2016.766	4883
2018.843	4851
2020.922	4935
2022.999	4846
2025.074	4807
2027.15	4834
2029.225	4861
2031.299	4905
2033.375	4962
2035.447	4965
2037.52	4935
2039.592	4942
2041.664	4917
2043.736	4837
2045.807	4900
2047.876	4981
2049.947	4977
2052.015	4890
2054.086	4877
2056.153	4941
2058.221	4872
2060.288	4909
2062.353	4894
2064.42	4847
2066.486	4695
2068.55	4913
2070.614	4865
2072.678	4962
2074.741	4966
2076.805	4797
2078.866	4956
2080.929	4801
2082.99	4837
2085.049	4818
2087.109	4927
2089.17	4876
2091.228	4873
2093.286	4850
2095.344	4971
2097.4	4831
2099.46	4934
2101.516	4931
2103.572	4791
2105.626	4962
2107.679	4873
2109.735	4872
2111.788	4834
2113.841	4846
2115.894	4874
2117.945	4893
2119.997	4917
2122.049	4853
2124.1	4948
2126.148	4916
2128.197	4828
2130.246	4903
2132.296	4825
2134.342	4926
2136.39	4918
2138.437	4834
2140.483	4930
2142.527	4852
2144.574	4902
2146.619	4833
2148.661	4807
2150.705	4803
2152.747	4834
2154.792	4892
2156.832	4932
2158.874	4823
2160.915	4808
2162.954	4825
2164.995	4795
2167.034	4929
2169.072	4846
2171.111	4871
2173.148	4809
2175.186	4842
2177.223	4746
2179.258	4796
2181.294	4745
2183.328	4738
2185.362	4748
2187.398	4835
2189.431	4833
2191.463	4793
2193.495	4805
2195.528	4692
2197.56	4692
2199.59	4835
2201.62	4817
2203.649	4698
2205.678	4705
2207.708	4669
2209.737	4738
2211.764	4770
2213.791	4730
2215.817	4858
2217.843	4762
2219.87	4718
2221.895	4796
2223.919	4768
2225.942	4741
2227.966	4686
2229.988	4697
2232.012	4693
2234.032	4827
2236.054	4727
2238.074	4725
2240.095	4728
2242.116	4770
2244.135	4769
2246.153	4801
2248.171	4771
2250.188	4718
2252.208	4824
2254.223	4721
2256.239	4653
2258.255	4711
2260.269	4733
2262.283	4757
2264.3	4769
2266.312	4814
2268.325	4776
2270.336	4742
2272.349	4770
2274.362	4750
2276.372	4767
2278.383	4745
2280.392	4775
2282.402	4684
2284.409	4805
2286.418	4768
2288.427	4795
2290.433	4711
2292.441	4728
2294.446	4746
2296.453	4740
2298.459	4805
2300.463	4739
2302.466	4752
2304.471	4640
2306.475	4688
2308.477	4698
2310.478	4741
2312.481	4746
2314.481	4711
2316.481	4702
2318.482	4663
2320.482	4640
2322.48	4747
2324.48	4676
2326.478	4744
2328.476	4659
2330.473	4668
2332.469	4686
2334.465	4745
2336.46	4649
2338.454	4728
2340.45	4627
2342.444	4668
2344.437	4685
2346.43	4641
2348.421	4729
2350.414	4667
2352.405	4657
2354.396	4692
2356.386	4688
2358.376	4683
2360.366	4572
2362.355	4644
2364.343	4625
2366.331	4692
2368.317	4671
2370.304	4662
2372.292	4704
2374.278	4720
2376.262	4669
2378.247	4669
2380.23	4689
2382.216	4658
2384.199	4567
2386.181	4650
2388.163	4618
2390.144	4560
2392.127	4760
2394.107	4579
2396.087	4590
2398.066	4654
2400.046	4629
2402.023	4568
2404.004	4620
2405.981	4573
2407.957	4580
2409.934	4644
2411.91	4665
2413.886	4545
2415.862	4610
2417.836	4562
2419.809	4630
2421.784	4614
2423.756	4585
2425.73	4597
2427.701	4555
2429.672	4573
2431.644	4576
2433.615	4593
2435.586	4581
2437.555	4456
2439.523	4599
2441.491	4566
2443.459	4654
2445.428	4592
2447.395	4561
2449.361	4642
2451.327	4578
2453.292	4478
2455.257	4575
2457.223	4588
2459.187	4593
2461.15	4530
2463.113	4469
2465.076	4502
2467.039	4483
2468.999	4584
2470.96	4478
2472.921	4583
2474.881	4629
2476.841	4627
2478.8	4577
2480.759	4671
2482.717	4478
2484.675	4558
2486.63	4592
2488.589	4463
2490.545	4606
2492.5	4547
2494.455	4465
2496.408	4582
2498.364	4405
2500.318	4522
2502.27	4468
2504.223	4472
2506.174	4557
2508.126	4591
2510.078	4510
2512.03	4493
2513.979	4557
2515.927	4472
2517.877	4479
2519.826	4481
2521.775	4551
2523.722	4572
2525.668	4496
2527.616	4390
2529.561	4528
2531.508	4513
2533.452	4495
2535.398	4464
2537.342	4442
2539.284	4542
2541.229	4370
2543.173	4507
2545.114	4525
2547.055	4525
2548.996	4473
2550.938	4499
2552.878	4486
2554.817	4485
2556.756	4454
2558.695	4535
2560.633	4468
2562.572	4425
2564.509	4501
2566.445	4483
2568.382	4474
2570.317	4557
2572.254	4496
2574.189	4532
2576.123	4391
2578.057	4512
2579.99	4461
2581.923	4488
2583.855	4420
2585.788	4512
2587.719	4491
2589.65	4571
2591.579	4465
2593.511	4544
2595.44	4550
2597.37	4511
2599.297	4476
2601.225	4362
2603.153	4460
2605.08	4528
2607.007	4431
2608.932	4524
2610.858	4430
2612.782	4564
2614.709	4452
2616.632	4568
2618.556	4456
2620.478	4586
2622.401	4512
2624.324	4594
2626.247	4562
2628.167	4583
2630.088	4508
2632.008	4519
2633.928	4592
2635.848	4566
2637.766	4509
2639.684	4542
2641.603	4504
2643.519	4590
2645.437	4499
2647.353	4526
2649.27	4494
2651.184	4457
2653.099	4594
2655.014	4393
2656.928	4647
2658.842	4523
2660.755	4507
2662.667	4458
2664.579	4509
2666.491	4506
2668.402	4471
2670.312	4443
2672.222	4445
2674.132	4523
2676.042	4541
2677.951	4566
2679.859	4409
2681.766	4490
2683.674	4468
2685.582	4394
2687.488	4470
2689.392	4533
2691.298	4496
2693.202	4463
2695.107	4393
2697.012	4443
2698.914	4404
2700.817	4363
2702.72	4476
2704.622	4497
2706.524	4425
2708.425	4401
2710.326	4568
2712.225	4488
2714.125	4380
2716.024	4424
2717.923	4536
2719.822	4368
2721.719	4370
2723.616	4418
2725.512	4525
2727.41	4485
2729.305	4460
2731.201	4415
2733.095	4450
2734.99	4430
2736.884	4403
2738.778	4486
2740.67	4427
2742.562	4401
2744.455	4464
2746.346	4366
2748.238	4462
2750.129	4418
2752.018	4476
2753.907	4390
2755.797	4460
2757.687	4418
2759.575	4427
2761.462	4385
2763.349	4367
2765.237	4419
2767.124	4455
2769.009	4385
2770.894	4469
2772.779	4310
2774.663	4324
2776.547	4418
2778.431	4439
2780.314	4404
2782.197	4298
2784.078	4409
2785.96	4357
2787.842	4404
2789.723	4387
2791.603	4390
2793.483	4409
2795.362	4423
2797.241	4359
2799.121	4370
2800.997	4303
2802.874	4416
2804.751	4301
2806.628	4356
2808.506	4405
2810.38	4398
2812.255	4461
2814.13	4365
2816.003	4198
2817.878	4277
2819.752	4368
2821.623	4396
2823.496	4352
2825.368	4431
2827.238	4353
2829.111	4392
2830.98	4402
2832.851	4385
2834.719	4355
2836.589	4271
2838.458	4373
2840.327	4308
2842.193	4357
2844.061	4332
2845.927	4381
2847.794	4419
2849.66	4449
2851.525	4353
2853.39	4424
2855.254	4453
2857.117	4505
2858.983	4421
2860.845	4562
2862.707	4465
2864.569	4473
2866.431	4536
2868.293	4572
2870.154	4576
2872.013	4605
2873.873	4615
2875.733	4768
2877.592	4668
2879.451	4766
2881.309	4862
2883.166	4796
2885.022	4878
2886.879	4857
2888.736	4914
2890.591	4935
2892.446	4865
2894.301	4871
2896.155	4902
2898.009	4855
2899.863	4868
2901.716	4844
2903.568	4862
2905.419	4754
2907.27	4772
2909.123	4827
2910.973	4791
2912.824	4900
2914.673	4918
2916.521	5020
2918.372	4998
2920.22	4988
2922.067	4994
2923.914	4978
2925.761	5184
2927.607	5357
2929.455	5185
2931.301	5400
2933.144	5375
2934.99	5307
2936.833	5357
2938.678	5456
2940.522	5400
2942.364	5597
2944.207	5528
2946.048	5526
2947.891	5656
2949.731	5625
2951.571	5640
2953.412	5649
2955.25	5463
2957.09	5433
2958.93	5570
2960.767	5368
2962.606	5359
2964.443	5372
2966.279	5278
2968.116	5229
2969.953	5185
2971.788	5093
2973.623	5134
2975.457	5022
2977.292	5106
2979.127	5120
2980.959	4993
2982.792	4970
2984.624	4933
2986.455	4946
2988.288	4904
2990.119	4877
2991.949	4814
2993.779	4783
2995.608	4694
2997.439	4771
2999.268	4680
3001.096	4682
3002.923	4607
3004.751	4502
3006.578	4496
3008.406	4512
3010.232	4518
3012.057	4477
3013.883	4487
3015.706	4322
3017.532	4471
3019.356	4324
3021.179	4335
3023.002	4310
3024.823	4382
3026.646	4182
3028.469	4211
3030.289	4278
3032.11	4081
3033.93	4218
3035.749	4216
3037.57	4199
3039.39	4160
3041.207	4311
3043.026	4228
3044.842	4254
3046.661	4226
3048.477	4266
3050.294	4192
3052.109	4144
3053.925	4160
3055.739	4196
3057.555	4167
3059.368	4085
3061.181	4131
3062.995	4155
3064.807	4246
3066.62	4201
3068.433	4193
3070.243	4149
3072.054	4169
3073.865	4112
3075.675	4098
3077.485	4165
3079.293	4087
3081.102	4128
3082.911	4091
3084.719	4088
3086.527	4042
3088.333	4144
3090.139	4054
3091.945	4061
3093.75	4116
3095.557	4060
3097.361	3994
3099.165	4132
3100.969	4028
3102.772	4004
3104.575	4153
3106.379	4083
3108.181	3998
3109.982	4070
3111.783	4011
3113.584	3968
3115.386	4045
3117.186	3989
3118.985	3957
3120.783	4009
3122.582	3983
3124.381	3986
3126.179	4002
3127.975	3988
3129.772	3996
3131.569	4048
3133.365	4082
3135.161	3996
3136.956	3916
3138.751	3976
3140.544	4053
3142.338	4011
3144.132	3948
3145.925	3982
3147.717	3926
3149.509	3917
3151.301	3924
3153.091	3917
3154.884	4037
3156.673	3933
3158.462	3997
3160.252	3906
3162.041	3951
3163.831	3917
3165.618	3853
3167.405	3910
3169.193	3947
3170.979	3862
3172.767	3942
3174.553	3940
3176.338	3924
3178.123	3867
3179.907	3856
3181.692	3831
3183.477	3866
3185.259	3900
3187.042	3901
3188.824	3958
3190.607	3983
3192.389	4047
3194.17	3887
3195.951	3864
3197.73	3910
3199.51	3947
3201.289	3922
3203.07	3904
3204.848	3846
3206.626	3976
3208.403	3902
3210.18	3875
3211.959	3877
3213.735	3922
3215.511	3867
3217.285	3898
3219.06	3813
3220.836	3912
3222.611	3848
3224.384	3872
3226.158	3924
3227.929	3805
3229.702	3933
3231.476	3873
3233.248	3874
3235.018	3859
3236.789	3871
3238.56	3947
3240.33	3978
3242.1	3957
3243.869	3884
3245.637	3941
3247.405	3859
3249.172	3882
3250.941	3835
3252.707	3896
3254.474	3910
3256.24	3895
3258.006	3924
3259.772	3941
3261.537	3874
3263.301	3904
3265.065	3897
3266.828	3905
3268.592	3946
3270.355	3923
3272.117	3953
3273.878	3890
3275.64	3909
3277.401	3933
3279.162	3855
3280.922	3866
3282.682	3896
3284.441	3935
3286.199	3907
3287.959	3894
3289.716	3863
3291.475	3998
3293.232	3846
3294.988	3899
3296.744	3912
3298.501	3910
3300.256	3910
3302.011	3954
3303.766	3830
3305.52	3888
3307.275	3930
3309.028	3858
3310.781	3983
3312.533	3873
3314.285	3843
3316.038	3866
3317.789	3932
3319.54	3885
3321.289	3959
3323.039	3820
3324.789	3825
3326.539	3862
3328.288	3837
3330.035	3929
3331.783	3904
3333.531	3914
3335.28	3920
3337.025	3859
3338.771	3865
3340.518	3943
3342.262	3798
3344.009	3882
3345.753	3825
3347.497	3834
3349.24	3818
3350.983	3815
3352.726	3766
3354.469	3863
3356.212	3844
3357.952	3811
3359.694	3816
3361.434	3778
3363.176	3803
3364.916	3852
3366.654	3709
3368.394	3787
3370.132	3844
3371.871	3830
3373.61	3810
3375.346	3787
3377.083	3808
3378.82	3755
3380.556	3833
3382.292	3732
3384.027	3713
3385.763	3805
3387.497	3740
3389.231	3696
3390.965	3721
3392.698	3751
3394.431	3764
3396.164	3745
3397.896	3745
3399.627	3690
3401.36	3733
3403.09	3747
3404.82	3751
3406.55	3765
3408.279	3681
3410.01	3740
3411.738	3699
3413.467	3792
3415.194	3674
3416.92	3737
3418.647	3780
3420.375	3687
3422.102	3735
3423.827	3702
3425.553	3656
3427.277	3653
3429.003	3767
3430.727	3611
3432.451	3684
3434.173	3766
3435.896	3739
3437.62	3639
3439.343	3697
3441.063	3675
3442.785	3731
3444.505	3592
3446.226	3706
3447.948	3624
3449.666	3590
3451.386	3692
3453.104	3570
3454.823	3680
3456.541	3616
3458.259	3561
3459.976	3589
3461.693	3613
3463.408	3590
3465.125	3553
3466.841	3570
3468.556	3576
3470.271	3614
3471.985	3590
3473.698	3528
3475.414	3545
3477.126	3591
3478.838	3562
3480.55	3474
3482.263	3567
3483.975	3471
3485.686	3507
3487.396	3550
3489.106	3562
3490.817	3504
3492.526	3512
3494.236	3488
3495.944	3465
3497.652	3626
3499.359	3496
3501.066	3490
3502.775	3505
3504.481	3525
3506.187	3533
3507.893	3527
3509.598	3384
3511.304	3529
3513.009	3511
3514.713	3400
3516.417	3481
3518.12	3437
3519.821	3411
3521.525	3454
3523.228	3423
3524.929	3415
3526.631	3447
3528.33	3471
3530.032	3355
3531.733	3447
3533.433	3430
3535.131	3465
3536.83	3373
3538.529	3364
3540.227	3450
3541.925	3400
3543.623	3389
3545.319	3374
3547.016	3416
3548.712	3357
3550.408	3320
3552.103	3329
3553.798	3327
3555.491	3333
3557.188	3334
3558.88	3317
3560.574	3309
3562.266	3314
3563.959	3285
3565.651	3267
3567.343	3317
3569.035	3368
3570.725	3232
3572.415	3283
3574.106	3329
3575.797	3241
3577.485	3332
3579.174	3320
3580.863	3336
3582.551	3300
3584.238	3293
3585.926	3311
3587.613	3234
3589.3	3167
3590.986	3319
3592.671	3259
3594.357	3241
3596.042	3254
3597.726	3254
3599.41	3260
3601.094	3260
3602.778	3209
3604.461	3236
3606.143	3112
3607.825	3179
3609.507	3288
3611.188	3088
3612.87	3143
3614.551	3183
3616.229	3137
3617.909	3160
3619.589	3139
3621.269	3157
3622.948	3160
3624.625	3152
3626.302	3157
3627.98	3160
3629.657	3210
3631.334	3193
3633.01	3127
3634.686	3045
3636.361	3108
3638.036	3076
3639.712	3124
3641.385	3148
3643.06	3088
3644.732	3128
3646.405	3176
3648.08	3152
3649.751	3145
3651.424	3056
3653.094	3117
3654.766	3056
3656.436	3127
3658.106	3039
3659.777	3057
3661.446	2915
3663.115	3002
3664.783	3015
3666.452	3085
3668.121	3031
3669.788	3045
3671.454	3059
3673.121	3019
3674.789	3017
3676.455	3079
3678.12	3059
3679.784	3028
3681.45	3030
3683.114	2981
3684.779	2967
3686.442	3053
3688.105	3002
3689.768	3033
3691.43	3043
3693.093	3005
3694.754	2952
3696.415	2952
3698.076	2969
3699.736	3041
3701.396	2969
3703.057	3004
3704.716	2981
3706.375	2934
3708.034	2958
3709.692	2992
3711.351	2973
3713.008	3047
3714.665	2976
3716.321	2976
3717.977	2942
3719.634	2942
3721.29	3022
3722.945	2991
3724.598	2936
3726.253	3012
3727.907	3057
3729.561	2922
3731.214	2907
3732.867	2931
3734.518	2932
3736.171	2952
3737.824	2936
3739.474	2905
3741.125	2934
3742.775	2961
3744.425	2927
3746.074	2914
3747.725	2917
3749.373	2978
3751.022	2956
3752.669	2871
3754.318	2876
3755.966	2931
3757.612	2939
3759.259	2940
3760.905	2924
3762.55	2859
3764.197	2888
3765.842	2908
3767.486	2813
3769.131	2862
3770.774	2865
3772.417	2777
3774.061	2889
3775.705	2910
3777.347	2897
3778.988	2862
3780.629	2889
3782.271	2921
3783.912	2866
3785.552	2823
3787.192	2876
3788.831	2910
3790.472	2884
3792.112	2760
3793.75	2852
3795.388	2883
3797.024	2922
3798.661	2803
3800.3	2837
3801.936	2870
3803.572	2828
3805.208	2770
3806.844	2841
3808.48	2844
3810.115	2837
3811.748	2863
3813.382	2825
3815.016	2824
3816.649	2869
3818.283	2832
3819.914	2808
3821.547	2742
3823.178	2712
3824.809	2876
3826.441	2778
3828.072	2793
3829.701	2893
3831.331	2835
3832.96	2827
3834.591	2762
3836.219	2765
3837.847	2706
3839.475	2762
3841.102	2805
3842.729	2754
3844.357	2749
3845.984	2778
3847.609	2769
3849.234	2722
3850.86	2761
3852.485	2800
3854.11	2784
3855.734	2702
3857.357	2746
3858.981	2749
3860.603	2796
3862.227	2725
3863.848	2753
3865.471	2752
3867.092	2717
3868.713	2680
3870.334	2729
3871.954	2719
3873.575	2666
3875.194	2769
3876.813	2726
3878.433	2689
3880.051	2748
3881.669	2729
3883.286	2753
3884.904	2687
3886.52	2702
3888.138	2713
3889.754	2632
3891.37	2770
3892.985	2695
3894.6	2705
3896.216	2751
3897.831	2656
3899.444	2696
3901.058	2690
3902.67	2722
3904.283	2676
3905.897	2789
3907.509	2695
3909.121	2678
3910.731	2663
3912.342	2718
3913.954	2649
3915.563	2658
3917.174	2703
3918.783	2642
3920.391	2738
3922.002	2658
3923.611	2707
3925.218	2640
3926.826	2652
3928.432	2658
3930.039	2636
3931.647	2637
3933.253	2663
3934.859	2672
3936.464	2733
3938.068	2611
3939.675	2634
3941.278	2647
3942.883	2640
3944.486	2656
3946.089	2686
3947.692	2560
3949.295	2641
3950.898	2655
3952.499	2611
3954.1	2625
3955.7	2558
3957.303	2669
3958.903	2588
3960.502	2612
3962.101	2633
3963.7	2628
3965.301	2643
3966.899	2527
3968.497	2673
3970.094	2609
3971.691	2547
3973.288	2590
3974.885	2679
3976.481	2617
3978.077	2573
3979.672	2615
3981.267	2642
3982.863	2606
3984.457	2618
3986.051	2509
3987.645	2565
3989.238	2604
3990.831	2539
3992.425	2573
3994.017	2559
3995.607	2570
3997.199	2633
3998.79	2534
4000.382	2510
4001.973	2552
4003.561	2558
4005.151	2538
4006.741	2524
4008.331	2519
4009.918	2550
4011.507	2456
4013.095	2551
4014.681	2494
4016.269	2522
4017.856	2479
4019.443	2515
4021.028	2516
4022.614	2479
4024.199	2491
4025.785	2445
4027.37	2467
4028.953	2430
4030.536	2460
4032.12	2507
4033.704	2497
4035.287	2447
4036.869	2462
4038.45	2493
4040.032	2468
4041.613	2440
4043.195	2439
4044.776	2475
4046.356	2481
4047.935	2473
4049.515	2451
4051.095	2440
4052.674	2510
4054.251	2410
4055.829	2475
4057.406	2428
4058.985	2402
4060.562	2447
4062.139	2433
4063.715	2450
4065.29	2393
4066.865	2444
4068.442	2408
4070.016	2442
4071.59	2380
4073.164	2463
4074.738	2418
4076.312	2410
4077.885	2407
4079.458	2427
4081.03	2388
4082.602	2373
4084.173	2436
4085.745	2365
4087.315	2424
4088.886	2403
4090.456	2359
4092.026	2354
4093.596	2423
4095.165	2368
4096.734	2397
4098.301	2389
4099.869	2412
4101.437	2439
4103.006	2392
4104.572	2340
4106.139	2393
4107.704	2366
4109.27	2405
4110.837	2423
4112.401	2400
4113.966	2447
4115.53	2348
4117.094	2400
4118.659	2377
4120.223	2401
4121.785	2390
4123.347	2349
4124.909	2368
4126.471	2415
4128.034	2280
4129.595	2300
4131.155	2301
4132.716	2291
4134.275	2317
4135.836	2308
4137.395	2331
4138.955	2304
4140.513	2316
4142.071	2349
4143.628	2270
4145.188	2248
4146.745	2259
4148.302	2321
4149.858	2274
4151.414	2303
4152.971	2298
4154.526	2276
4156.081	2349
4157.635	2328
4159.189	2277
4160.745	2304
4162.298	2272
4163.852	2279
4165.405	2284
4166.957	2353
4168.51	2270
4170.063	2252
4171.614	2312
4173.166	2185
4174.717	2269
4176.267	2297
4177.817	2219
4179.368	2229
4180.917	2233
4182.466	2182
4184.016	2364
4185.564	2267
4187.112	2264
4188.66	2205
4190.207	2260
4191.754	2294
4193.301	2235
4194.848	2241
4196.394	2241
4197.94	2227
4199.484	2243
4201.03	2207
4202.575	2188
4204.12	2246
4205.663	2161
4207.207	2205
4208.75	2176
4210.292	2179
4211.836	2258
4213.378	2238
4214.92	2237
4216.46	2195
4218.002	2176
4219.544	2223
4221.083	2153
4222.625	2230
4224.164	2237
4225.703	2223
4227.244	2238
4228.782	2180
4230.32	2224
4231.857	2246
4233.395	2186
4234.933	2168
4236.471	2239
4238.007	2183
4239.542	2181
4241.078	2188
4242.614	2245
4244.15	2218
4245.685	2211
4247.219	2149
4248.753	2175
4250.287	2177
4251.82	2201
4253.354	2161
4254.887	2200
4256.419	2154
4257.951	2181
4259.483	2193
4261.016	2183
4262.547	2144
4264.078	2204
4265.608	2168
4267.137	2188
4268.668	2104
4270.197	2181
4271.727	2176
4273.254	2172
4274.783	2147
4276.311	2095
4277.84	2134
4279.366	2173
4280.894	2165
4282.42	2136
4283.946	2213
4285.473	2138
4286.998	2152
4288.523	2206
4290.047	2124
4291.572	2084
4293.096	2104
4294.622	2175
4296.144	2057
4297.668	2132
4299.19	2113
4300.713	2129
4302.236	2144
4303.758	2103
4305.279	2121
4306.799	2062
4308.321	2109
4309.842	2115
4311.361	2152
4312.882	2152
4314.401	2128
