400.0961	2507
402.6185	2486
405.1424	2444
407.6635	2484
410.1838	2541
412.7035	2557
415.2225	2547
417.7388	2508
420.2585	2597
422.7754	2564
425.2917	2564
427.8072	2647
430.3221	2665
432.8363	2675
435.3498	2659
437.8626	2645
440.3727	2691
442.8841	2660
445.3969	2604
447.907	2610
450.4142	2631
452.9229	2664
455.4289	2664
457.9362	2680
460.4449	2622
462.9488	2612
465.454	2615
467.9566	2604
470.4604	2590
472.9637	2531
475.4662	2589
477.966	2606
480.4671	2607
482.9656	2636
485.4633	2607
487.9645	2605
490.4608	2648
492.9566	2649
495.4536	2622
497.948	2561
500.4437	2604
502.9387	2652
505.431	2611
507.9226	2618
510.4136	2665
512.9079	2660
515.3975	2609
517.8864	2693
520.3746	2679
522.8622	2693
525.3491	2668
527.8394	2692
530.3249	2682
532.8098	2740
535.2939	2691
537.7774	2672
540.2623	2685
542.7444	2725
545.2259	2649
547.7067	2729
550.1868	2691
552.6683	2729
555.147	2683
557.6231	2667
560.1005	2765
562.5773	2668
565.0534	2751
567.5308	2701
570.0056	2731
572.4776	2778
574.951	2850
577.4237	2826
579.8978	2818
582.3671	2760
584.8378	2845
587.3079	2864
589.7773	2831
592.244	2850
594.714	2841
597.1793	2824
599.6461	2768
602.1121	2748
604.5754	2782
607.0421	2842
609.5042	2766
611.9675	2879
614.4282	2770
616.8902	2765
619.3515	2803
621.8122	2712
624.2702	2740
626.7296	2828
629.1863	2790
631.6423	2766
634.1017	2762
636.5563	2735
639.0104	2747
641.4658	2773
643.9185	2757
646.3725	2775
648.8239	2783
651.2766	2720
653.7266	2740
656.176	2807
658.6247	2823
661.0748	2775
663.5242	2795
665.9709	2781
668.417	2752
670.8624	2758
673.3092	2812
675.7533	2788
678.1968	2815
680.6395	2865
683.0817	2857
685.5251	2813
687.9659	2856
690.4061	2802
692.8456	2817
695.2844	2825
697.7226	2843
700.1621	2735
702.599	2826
705.0332	2828
707.4688	2917
709.9036	2945
712.3399	2845
714.7735	2891
717.2044	2852
719.6367	2878
722.0683	2918
724.4993	2921
726.9296	2916
729.3593	2917
731.7883	2908
734.2147	2883
736.6423	2904
739.0714	2893
741.4958	2934
743.9216	2928
746.3447	3008
748.7691	2905
751.1929	2921
753.616	3060
756.0366	2963
758.4584	3022
760.8776	3053
763.2982	2999
765.718	2968
768.1373	3036
770.5539	3061
772.9698	3016
775.3871	3010
777.8038	3020
780.2178	2985
782.6332	2973
785.0459	2987
787.458	2940
789.8714	3021
792.2842	3031
794.6943	3089
797.1038	3077
799.5127	3049
801.9209	3079
804.3324	3078
806.7393	3058
809.1456	3035
811.5513	3082
813.9562	3047
816.3625	2982
818.7663	3068
821.1693	3022
823.5718	3038
825.9735	3102
828.3746	3037
830.7771	3035
833.177	3050
835.5762	2990
837.9747	3125
840.3727	3088
842.772	3145
845.1666	3164
847.5626	3161
849.958	3181
852.3527	3116
854.7488	3209
857.1403	3160
859.5331	3190
861.9253	3087
864.3168	3224
866.7057	3233
869.098	3158
871.4876	3172
873.8746	3164
876.263	3148
878.6487	3192
881.0378	3119
883.4243	3143
885.8081	3220
888.1933	3126
890.5759	3203
892.9598	3164
895.343	3135
897.7256	3120
900.1057	3134
902.4871	3119
904.8659	3197
907.246	3136
909.6254	3224
912.0023	3188
914.3786	3264
916.7562	3293
919.1331	3289
921.5074	3331
923.8831	3377
926.2562	3446
928.6287	3318
931.0005	3363
933.3757	3380
935.7462	3360
938.1162	3419
940.4855	3427
942.8542	3407
945.2242	3510
947.5916	3540
949.9584	3690
952.3266	3694
954.6921	4015
957.0571	4007
959.4233	4282
961.787	4253
964.15	4264
966.5125	4058
968.8742	3915
971.2354	3759
973.5959	3592
975.9559	3468
978.3151	3450
980.6738	3440
983.0338	3339
985.3912	3353
987.7461	3334
990.1022	3290
992.4578	3300
994.8127	3191
997.1689	3265
999.5207	3257
1001.874	3254
1004.226	3208
1006.576	3350
1008.929	3317
1011.28	3249
1013.628	3333
1015.977	3256
1018.324	3270
1020.674	3270
1023.019	3331
1025.366	3275
1027.713	3337
1030.056	3321
1032.399	3323
1034.746	3379
1037.087	3346
1039.431	3264
1041.771	3369
1044.113	3380
1046.454	3368
1048.793	3324
1051.133	3292
1053.471	3328
1055.807	3329
1058.146	3349
1060.483	3386
1062.818	3384
1065.153	3431
1067.489	3422
1069.822	3424
1072.156	3412
1074.488	3305
1076.82	3438
1079.15	3505
1081.48	3443
1083.814	3404
1086.143	3410
1088.471	3380
1090.799	3386
1093.126	3374
1095.452	3344
1097.78	3376
1100.105	3315
1102.43	3365
1104.754	3338
1107.077	3378
1109.4	3336
1111.722	3353
1114.044	3278
1116.365	3365
1118.685	3316
1121.005	3356
1123.324	3422
1125.643	3295
1127.961	3316
1130.278	3363
1132.595	3357
1134.911	3309
1137.226	3350
1139.541	3402
1141.854	3213
1144.167	3335
1146.482	3320
1148.793	3347
1151.105	3371
1153.414	3305
1155.725	3399
1158.033	3368
1160.344	3374
1162.651	3413
1164.959	3365
1167.265	3410
1169.572	3366
1171.878	3355
1174.184	3366
1176.488	3271
1178.79	3403
1181.094	3437
1183.396	3376
1185.699	3413
1188.001	3423
1190.301	3325
1192.6	3385
1194.9	3394
1197.2	3400
1199.497	3392
1201.794	3450
1204.09	3395
1206.387	3423
1208.684	3373
1210.978	3376
1213.272	3359
1215.565	3371
1217.858	3346
1220.15	3427
1222.443	3375
1224.734	3389
1227.024	3403
1229.313	3483
1231.602	3488
1233.892	3522
1236.18	3477
1238.467	3529
1240.754	3563
1243.04	3623
1245.325	3537
1247.612	3579
1249.896	3510
1252.178	3537
1254.461	3661
1256.743	3573
1259.027	3548
1261.308	3569
1263.587	3543
1265.867	3547
1268.146	3560
1270.425	3534
1272.703	3570
1274.981	3633
1277.256	3514
1279.532	3515
1281.808	3576
1284.083	3562
1286.358	3530
1288.63	3446
1290.904	3465
1293.175	3481
1295.449	3476
1297.719	3574
1299.99	3444
1302.259	3436
1304.529	3449
1306.798	3526
1309.065	3496
1311.333	3428
1313.599	3454
1315.866	3599
1318.131	3471
1320.396	3509
1322.66	3489
1324.925	3579
1327.187	3469
1329.448	3514
1331.711	3529
1333.974	3507
1336.234	3504
1338.493	3607
1340.752	3589
1343.01	3516
1345.269	3531
1347.526	3554
1349.784	3517
1352.04	3493
1354.295	3462
1356.552	3481
1358.806	3518
1361.059	3483
1363.312	3494
1365.564	3538
1367.818	3514
1370.069	3530
1372.318	3526
1374.568	3547
1376.817	3582
1379.066	3589
1381.316	3601
1383.564	3543
1385.809	3596
1388.056	3516
1390.301	3530
1392.549	3629
1394.793	3646
1397.036	3687
1399.279	3676
1401.522	3692
1403.763	3668
1406.007	3695
1408.248	3666
1410.487	3714
1412.727	3766
1414.965	3682
1417.205	3681
1419.442	3661
1421.68	3715
1423.915	3684
1426.152	3679
1428.388	3623
1430.623	3658
1432.857	3660
1435.091	3694
1437.323	3632
1439.556	3699
1441.789	3714
1444.019	3729
1446.25	3780
1448.48	3715
1450.708	3749
1452.938	3756
1455.167	3810
1457.394	3752
1459.62	3723
1461.846	3809
1464.073	3740
1466.299	3767
1468.523	3754
1470.746	3637
1472.969	3648
1475.191	3591
1477.415	3619
1479.636	3619
1481.858	3529
1484.078	3601
1486.298	3621
1488.518	3663
1490.736	3540
1492.954	3561
1495.169	3527
1497.386	3508
1499.602	3489
1501.819	3503
1504.034	3583
1506.248	3493
1508.462	3491
1510.675	3527
1512.888	3552
1515.1	3470
1517.311	3510
1519.522	3507
1521.732	3484
1523.942	3486
1526.151	3547
1528.36	3469
1530.566	3573
1532.773	3548
1534.98	3529
1537.187	3436
1539.392	3563
1541.596	3677
1543.801	3463
1546.005	3544
1548.208	3580
1550.411	3549
1552.612	3527
1554.814	3639
1557.013	3629
1559.212	3659
1561.414	3623
1563.612	3614
1565.811	3622
1568.007	3617
1570.203	3581
1572.403	3670
1574.598	3543
1576.792	3708
1578.988	3669
1581.181	3621
1583.376	3603
1585.568	3615
1587.761	3633
1589.952	3692
1592.143	3615
1594.333	3610
1596.524	3702
1598.715	3637
1600.903	3675
1603.091	3652
1605.278	3693
1607.466	3723
1609.652	3665
1611.838	3724
1614.023	3691
1616.207	3672
1618.391	3679
1620.576	3756
1622.759	3707
1624.941	3666
1627.123	3640
1629.304	3731
1631.484	3621
1633.664	3676
1635.844	3694
1638.022	3735
1640.201	3800
1642.38	3662
1644.556	3718
1646.732	3699
1648.908	3673
1651.084	3797
1653.257	3696
1655.433	3758
1657.607	3688
1659.779	3785
1661.951	3864
1664.122	3715
1666.295	3721
1668.467	3852
1670.635	3740
1672.805	3735
1674.973	3796
1677.142	3805
1679.31	3794
1681.478	3776
1683.644	3768
1685.81	3737
1687.975	3778
1690.142	3766
1692.305	3691
1694.468	3694
1696.632	3748
1698.794	3688
1700.957	3654
1703.119	3722
1705.279	3669
1707.439	3655
1709.598	3683
1711.758	3620
1713.917	3686
1716.075	3674
1718.231	3656
1720.388	3653
1722.543	3697
1724.702	3610
1726.856	3610
1729.01	3655
1731.164	3718
1733.317	3663
1735.471	3736
1737.623	3650
1739.774	3614
1741.925	3714
1744.075	3743
1746.225	3686
1748.376	3687
1750.524	3800
1752.672	3565
1754.82	3712
1756.965	3664
1759.113	3667
1761.259	3746
1763.405	3761
1765.549	3643
1767.694	3670
1769.836	3650
1771.981	3622
1774.123	3728
1776.264	3685
1778.405	3715
1780.546	3706
1782.687	3688
1784.827	3650
1786.966	3747
1789.103	3670
1791.242	3733
1793.381	3746
1795.517	3690
1797.653	3674
1799.788	3711
1801.923	3668
1804.057	3668
1806.193	3717
1808.326	3698
1810.457	3731
1812.59	3720
1814.721	3724
1816.855	3747
1818.984	3735
1821.113	3720
1823.244	3715
1825.372	3676
1827.499	3720
1829.63	3657
1831.756	3667
1833.882	3692
1836.007	3752
1838.132	3667
1840.26	3695
1842.384	3668
1844.507	3676
1846.63	3734
1848.752	3656
1850.875	3628
1852.996	3714
1855.118	3732
1857.238	3725
1859.358	3729
1861.477	3688
1863.597	3684
1865.715	3628
1867.832	3649
1869.948	3654
1872.064	3651
1874.181	3726
1876.297	3659
1878.411	3686
1880.526	3638
1882.639	3612
1884.752	3633
1886.865	3676
1888.977	3778
1891.089	3771
1893.2	3720
1895.308	3652
1897.42	3630
1899.53	3705
1901.639	3675
1903.745	3716
1905.853	3843
1907.962	3783
1910.067	3732
1912.174	3752
1914.278	3825
1916.383	3749
1918.486	3754
1920.592	3731
1922.694	3738
1924.797	3713
1926.898	3727
1929	3754
1931.102	3707
1933.203	3739
1935.301	3673
1937.401	3769
1939.499	3707
1941.598	3713
1943.697	3793
1945.793	3724
1947.888	3655
1949.985	3794
1952.08	3766
1954.176	3808
1956.269	3733
1958.364	3790
1960.457	3695
1962.549	3750
1964.642	3731
1966.733	3732
1968.823	3724
1970.913	3726
1973.005	3700
1975.093	3774
1977.184	3682
1979.271	3743
1981.359	3693
1983.446	3720
1985.532	3708
1987.619	3731
1989.705	3711
1991.789	3627
1993.874	3764
1995.956	3649
1998.041	3615
2000.123	3730
2002.206	3782
2004.287	3694
2006.368	3709
2008.449	3688
2010.529	3761
2012.609	3742
2014.688	3716
2016.766	3810
2018.843	3682
2020.922	3720
2022.999	3766
2025.074	3793
2027.15	3655
2029.225	3826
2031.299	3665
2033.375	3677
2035.447	3747
2037.52	3790
2039.592	3765
2041.664	3707
2043.736	3669
2045.807	3864
2047.876	3721
2049.947	3691
2052.015	3775
2054.086	3689
2056.153	3719
2058.221	3719
2060.288	3774
2062.353	3768
2064.42	3724
2066.486	3718
2068.55	3744
2070.614	3780
2072.678	3741
2074.741	3714
2076.805	3742
2078.866	3780
2080.929	3707
2082.99	3747
2085.049	3636
2087.109	3829
2089.17	3787
2091.228	3757
2093.286	3727
2095.344	3832
2097.4	3731
2099.46	3779
2101.516	3802
2103.572	3737
2105.626	3824
2107.679	3759
2109.735	3682
2111.788	3772
2113.841	3812
2115.894	3751
2117.945	3673
2119.997	3786
2122.049	3738
2124.1	3735
2126.148	3737
2128.197	3860
2130.246	3795
2132.296	3717
2134.342	3705
2136.39	3769
2138.437	3794
2140.483	3754
2142.527	3795
2144.574	3750
2146.619	3726
2148.661	3784
2150.705	3641
2152.747	3689
2154.792	3711
2156.832	3706
2158.874	3629
2160.915	3714
2162.954	3730
2164.995	3756
2167.034	3751
2169.072	3653
2171.111	3662
2173.148	3694
2175.186	3740
2177.223	3725
2179.258	3744
2181.294	3679
2183.328	3662
2185.362	3676
2187.398	3669
2189.431	3693
2191.463	3691
2193.495	3711
2195.528	3663
2197.56	3715
2199.59	3685
2201.62	3677
2203.649	3657
2205.678	3603
2207.708	3694
2209.737	3663
2211.764	3743
2213.791	3756
2215.817	3720
2217.843	3704
2219.87	3665
2221.895	3834
2223.919	3718
2225.942	3702
2227.966	3676
2229.988	3815
2232.012	3653
2234.032	3764
2236.054	3631
2238.074	3714
2240.095	3629
2242.116	3680
2244.135	3758
2246.153	3689
2248.171	3660
2250.188	3723
2252.208	3709
2254.223	3588
2256.239	3684
2258.255	3668
2260.269	3691
2262.283	3632
2264.3	3676
2266.312	3660
2268.325	3628
2270.336	3643
2272.349	3685
2274.362	3684
2276.372	3667
2278.383	3637
2280.392	3638
2282.402	3687
2284.409	3648
2286.418	3731
2288.427	3696
2290.433	3730
2292.441	3811
2294.446	3695
2296.453	3668
2298.459	3701
2300.463	3708
2302.466	3644
2304.471	3735
2306.475	3632
2308.477	3625
2310.478	3726
2312.481	3696
2314.481	3644
2316.481	3639
2318.482	3755
2320.482	3593
2322.48	3663
2324.48	3581
2326.478	3656
2328.476	3651
2330.473	3700
2332.469	3614
2334.465	3629
2336.46	3619
2338.454	3650
2340.45	3621
2342.444	3690
2344.437	3748
2346.43	3670
2348.421	3663
2350.414	3651
2352.405	3605
2354.396	3536
2356.386	3624
2358.376	3693
2360.366	3687
2362.355	3638
2364.343	3647
2366.331	3642
2368.317	3592
2370.304	3618
2372.292	3584
2374.278	3595
2376.262	3602
2378.247	3580
2380.23	3689
2382.216	3622
2384.199	3581
2386.181	3540
2388.163	3649
2390.144	3597
2392.127	3578
2394.107	3542
2396.087	3599
2398.066	3542
2400.046	3593
2402.023	3664
2404.004	3573
2405.981	3536
2407.957	3611
2409.934	3548
2411.91	3619
2413.886	3612
2415.862	3616
2417.836	3596
2419.809	3569
2421.784	3556
2423.756	3564
2425.73	3558
2427.701	3540
2429.672	3714
2431.644	3564
2433.615	3572
2435.586	3684
2437.555	3623
2439.523	3623
2441.491	3487
2443.459	3551
2445.428	3500
2447.395	3550
2449.361	3506
2451.327	3578
2453.292	3583
2455.257	3534
2457.223	3628
2459.187	3542
2461.15	3548
2463.113	3525
2465.076	3633
2467.039	3643
2468.999	3641
2470.96	3561
2472.921	3583
2474.881	3594
2476.841	3568
2478.8	3581
2480.759	3557
2482.717	3566
2484.675	3648
2486.63	3609
2488.589	3542
2490.545	3573
2492.5	3615
2494.455	3563
2496.408	3574
2498.364	3461
2500.318	3547
2502.27	3458
2504.223	3533
2506.174	3593
2508.126	3597
2510.078	3574
2512.03	3540
2513.979	3550
2515.927	3569
2517.877	3606
2519.826	3515
2521.775	3496
2523.722	3585
2525.668	3504
2527.616	3564
2529.561	3540
2531.508	3512
2533.452	3598
2535.398	3574
2537.342	3519
2539.284	3582
2541.229	3530
2543.173	3506
2545.114	3540
2547.055	3582
2548.996	3622
2550.938	3501
2552.878	3582
2554.817	3616
2556.756	3537
2558.695	3630
2560.633	3487
2562.572	3506
2564.509	3599
2566.445	3530
2568.382	3581
2570.317	3543
2572.254	3500
2574.189	3488
2576.123	3549
2578.057	3614
2579.99	3497
2581.923	3552
2583.855	3526
2585.788	3577
2587.719	3623
2589.65	3508
2591.579	3672
2593.511	3516
2595.44	3532
2597.37	3554
2599.297	3620
2601.225	3512
2603.153	3539
2605.08	3466
2607.007	3534
2608.932	3534
2610.858	3500
2612.782	3526
2614.709	3545
2616.632	3557
2618.556	3485
2620.478	3593
2622.401	3562
2624.324	3530
2626.247	3503
2628.167	3582
2630.088	3560
2632.008	3564
2633.928	3620
2635.848	3564
2637.766	3520
2639.684	3654
2641.603	3571
2643.519	3552
2645.437	3627
2647.353	3534
2649.27	3464
2651.184	3594
2653.099	3569
2655.014	3523
2656.928	3589
2658.842	3607
2660.755	3521
2662.667	3537
2664.579	3484
2666.491	3633
2668.402	3548
2670.312	3519
2672.222	3522
2674.132	3557
2676.042	3621
2677.951	3627
2679.859	3642
2681.766	3593
2683.674	3526
2685.582	3582
2687.488	3515
2689.392	3590
2691.298	3558
2693.202	3527
2695.107	3528
2697.012	3465
2698.914	3586
2700.817	3545
2702.72	3444
2704.622	3538
2706.524	3499
2708.425	3495
2710.326	3519
2712.225	3471
2714.125	3565
2716.024	3524
2717.923	3525
2719.822	3522
2721.719	3440
2723.616	3504
2725.512	3573
2727.41	3457
2729.305	3490
2731.201	3564
2733.095	3563
2734.99	3557
2736.884	3527
2738.778	3469
2740.67	3548
2742.562	3556
2744.455	3489
2746.346	3535
2748.238	3539
2750.129	3600
2752.018	3529
2753.907	3530
2755.797	3495
2757.687	3476
2759.575	3498
2761.462	3536
2763.349	3553
2765.237	3501
2767.124	3492
2769.009	3528
2770.894	3568
2772.779	3506
2774.663	3545
2776.547	3562
2778.431	3524
2780.314	3474
2782.197	3492
2784.078	3514
2785.96	3575
2787.842	3560
2789.723	3569
2791.603	3459
2793.483	3504
2795.362	3551
2797.241	3518
2799.121	3500
2800.997	3520
2802.874	3572
2804.751	3519
2806.628	3477
2808.506	3572
2810.38	3470
2812.255	3539
2814.13	3459
2816.003	3502
2817.878	3574
2819.752	3447
2821.623	3531
2823.496	3440
2825.368	3604
2827.238	3423
2829.111	3534
2830.98	3459
2832.851	3582
2834.719	3528
2836.589	3497
2838.458	3510
2840.327	3548
2842.193	3509
2844.061	3575
2845.927	3528
2847.794	3556
2849.66	3565
2851.525	3526
2853.39	3517
2855.254	3611
2857.117	3584
2858.983	3613
2860.845	3610
2862.707	3693
2864.569	3621
2866.431	3667
2868.293	3692
2870.154	3644
2872.013	3711
2873.873	3743
2875.733	3711
2877.592	3845
2879.451	3724
2881.309	3818
2883.166	3884
2885.022	3886
2886.879	4087
2888.736	3881
2890.591	3963
2892.446	3954
2894.301	4001
2896.155	3917
2898.009	3996
2899.863	3947
2901.716	3969
2903.568	3940
2905.419	3871
2907.27	3899
2909.123	3988
2910.973	3883
2912.824	3943
2914.673	4127
2916.521	4052
2918.372	4101
2920.22	4165
2922.067	4176
2923.914	4182
2925.761	4244
2927.607	4250
2929.455	4215
2931.301	4285
2933.144	4325
2934.99	4398
2936.833	4396
2938.678	4388
2940.522	4466
2942.364	4519
2944.207	4492
2946.048	4559
2947.891	4563
2949.731	4555
2951.571	4724
2953.412	4696
2955.25	4547
2957.09	4474
2958.93	4554
2960.767	4482
2962.606	4433
2964.443	4390
2966.279	4425
2968.116	4391
2969.953	4266
2971.788	4188
2973.623	4162
2975.457	4118
2977.292	4057
2979.127	4099
2980.959	4007
2982.792	3918
2984.624	3962
2986.455	3966
2988.288	3911
2990.119	3881
2991.949	3954
2993.779	3840
2995.608	3927
2997.439	3810
2999.268	3782
3001.096	3849
3002.923	3772
3004.751	3658
3006.578	3770
3008.406	3686
3010.232	3661
3012.057	3556
3013.883	3611
3015.706	3532
3017.532	3577
3019.356	3597
3021.179	3575
3023.002	3557
3024.823	3514
3026.646	3521
3028.469	3426
3030.289	3449
3032.11	3480
3033.93	3469
3035.749	3531
3037.57	3507
3039.39	3470
3041.207	3509
3043.026	3420
3044.842	3389
3046.661	3415
3048.477	3419
3050.294	3344
3052.109	3477
3053.925	3435
3055.739	3391
3057.555	3409
3059.368	3392
3061.181	3419
3062.995	3374
3064.807	3453
3066.62	3369
3068.433	3466
3070.243	3466
3072.054	3407
3073.865	3420
3075.675	3374
3077.485	3379
3079.293	3335
3081.102	3383
3082.911	3490
3084.719	3313
3086.527	3377
3088.333	3319
3090.139	3323
3091.945	3354
3093.75	3333
3095.557	3344
3097.361	3286
3099.165	3464
3100.969	3360
3102.772	3327
3104.575	3359
3106.379	3348
3108.181	3312
3109.982	3315
3111.783	3275
3113.584	3357
3115.386	3290
3117.186	3291
3118.985	3270
3120.783	3345
3122.582	3302
3124.381	3336
3126.179	3271
3127.975	3303
3129.772	3307
3131.569	3294
3133.365	3230
3135.161	3302
3136.956	3260
3138.751	3267
3140.544	3257
3142.338	3222
3144.132	3235
3145.925	3291
3147.717	3243
3149.509	3307
3151.301	3262
3153.091	3255
3154.884	3251
3156.673	3288
3158.462	3226
3160.252	3288
3162.041	3253
3163.831	3290
3165.618	3250
3167.405	3262
3169.193	3235
3170.979	3273
3172.767	3329
3174.553	3241
3176.338	3191
3178.123	3230
3179.907	3247
3181.692	3268
3183.477	3373
3185.259	3210
3187.042	3263
3188.824	3285
3190.607	3246
3192.389	3254
3194.17	3256
3195.951	3343
3197.73	3212
3199.51	3189
3201.289	3327
3203.07	3209
3204.848	3268
3206.626	3236
3208.403	3259
3210.18	3192
3211.959	3216
3213.735	3168
3215.511	3253
3217.285	3217
3219.06	3223
3220.836	3222
3222.611	3169
3224.384	3287
3226.158	3251
3227.929	3136
3229.702	3131
3231.476	3226
3233.248	3243
3235.018	3177
3236.789	3145
3238.56	3249
3240.33	3310
3242.1	3248
3243.869	3296
3245.637	3292
3247.405	3191
3249.172	3268
3250.941	3280
3252.707	3283
3254.474	3252
3256.24	3268
3258.006	3232
3259.772	3286
3261.537	3145
3263.301	3208
3265.065	3185
3266.828	3185
3268.592	3226
3270.355	3251
3272.117	3239
3273.878	3290
3275.64	3227
3277.401	3292
3279.162	3263
3280.922	3232
3282.682	3279
3284.441	3222
3286.199	3135
3287.959	3347
3289.716	3190
3291.475	3251
3293.232	3314
3294.988	3238
3296.744	3174
3298.501	3210
3300.256	3240
3302.011	3243
3303.766	3146
3305.52	3263
3307.275	3214
3309.028	3211
3310.781	3268
3312.533	3197
3314.285	3209
3316.038	3202
3317.789	3173
3319.54	3204
3321.289	3229
3323.039	3214
3324.789	3289
3326.539	3222
3328.288	3212
3330.035	3227
3331.783	3200
3333.531	3221
3335.28	3113
3337.025	3210
3338.771	3230
3340.518	3197
3342.262	3129
3344.009	3217
3345.753	3278
3347.497	3189
3349.24	3249
3350.983	3243
3352.726	3175
3354.469	3148
3356.212	3166
3357.952	3140
3359.694	3186
3361.434	3166
3363.176	3118
3364.916	3157
3366.654	3136
3368.394	3146
3370.132	3140
3371.871	3114
3373.61	3160
3375.346	3118
3377.083	3055
3378.82	3174
3380.556	3205
3382.292	3069
3384.027	3151
3385.763	3109
3387.497	3121
3389.231	3095
3390.965	3077
3392.698	3122
3394.431	3129
3396.164	3073
3397.896	3179
3399.627	3149
3401.36	3031
3403.09	3124
3404.82	3115
3406.55	3088
3408.279	3070
3410.01	3108
3411.738	3046
3413.467	3086
3415.194	3085
3416.92	3077
3418.647	3123
3420.375	3018
3422.102	3082
3423.827	3046
3425.553	3073
3427.277	3093
3429.003	3036
3430.727	3098
3432.451	3045
3434.173	3102
3435.896	2978
3437.62	3073
3439.343	3016
3441.063	3030
3442.785	3080
3444.505	3028
3446.226	3023
3447.948	3034
3449.666	3024
3451.386	2998
3453.104	3052
3454.823	3074
3456.541	3037
3458.259	2984
3459.976	3006
3461.693	2997
3463.408	2982
3465.125	2984
3466.841	2989
3468.556	2924
3470.271	2911
3471.985	2977
3473.698	2934
3475.414	2996
3477.126	2980
3478.838	3021
3480.55	2960
3482.263	2918
3483.975	2950
3485.686	2920
3487.396	2840
3489.106	2964
3490.817	2890
3492.526	2984
3494.236	2990
3495.944	2935
3497.652	2903
3499.359	2886
3501.066	2873
3502.775	2903
3504.481	2928
3506.187	2914
3507.893	2906
3509.598	2886
3511.304	2951
3513.009	2874
3514.713	2957
3516.417	2908
3518.12	2877
3519.821	2936
3521.525	2847
3523.228	2912
3524.929	2903
3526.631	2872
3528.33	2857
3530.032	2869
3531.733	2791
3533.433	2841
3535.131	2790
3536.83	2807
3538.529	2870
3540.227	2826
3541.925	2805
3543.623	2864
3545.319	2840
3547.016	2781
3548.712	2821
3550.408	2845
3552.103	2794
3553.798	2915
3555.491	2777
3557.188	2693
3558.88	2835
3560.574	2783
3562.266	2828
3563.959	2827
3565.651	2830
3567.343	2853
3569.035	2740
3570.725	2786
3572.415	2807
3574.106	2725
3575.797	2825
3577.485	2781
3579.174	2778
3580.863	2741
3582.551	2747
3584.238	2756
3585.926	2793
3587.613	2743
3589.3	2714
3590.986	2719
3592.671	2741
3594.357	2732
3596.042	2672
3597.726	2679
3599.41	2728
3601.094	2656
3602.778	2714
3604.461	2703
3606.143	2702
3607.825	2780
3609.507	2662
3611.188	2776
3612.87	2749
3614.551	2679
3616.229	2701
3617.909	2683
3619.589	2655
3621.269	2715
3622.948	2577
3624.625	2741
3626.302	2679
3627.98	2591
3629.657	2659
3631.334	2655
3633.01	2614
3634.686	2681
3636.361	2614
3638.036	2574
3639.712	2637
3641.385	2592
3643.06	2674
3644.732	2688
3646.405	2649
3648.08	2678
3649.751	2608
3651.424	2632
3653.094	2628
3654.766	2616
3656.436	2630
3658.106	2568
3659.777	2590
3661.446	2584
3663.115	2549
3664.783	2550
3666.452	2575
3668.121	2572
3669.788	2599
3671.454	2526
3673.121	2587
3674.789	2569
3676.455	2591
3678.12	2616
3679.784	2583
3681.45	2590
3683.114	2593
3684.779	2621
3686.442	2602
3688.105	2563
3689.768	2600
3691.43	2593
3693.093	2562
3694.754	2600
3696.415	2514
3698.076	2592
3699.736	2581
3701.396	2521
3703.057	2508
3704.716	2554
3706.375	2582
3708.034	2578
3709.692	2522
3711.351	2496
3713.008	2616
3714.665	2568
3716.321	2526
3717.977	2507
3719.634	2548
3721.29	2564
3722.945	2517
3724.598	2544
3726.253	2482
3727.907	2530
3729.561	2579
3731.214	2496
3732.867	2527
3734.518	2501
3736.171	2563
3737.824	2559
3739.474	2544
3741.125	2520
3742.775	2578
3744.425	2512
3746.074	2565
3747.725	2482
3749.373	2475
3751.022	2467
3752.669	2504
3754.318	2474
3755.966	2552
3757.612	2538
3759.259	2433
3760.905	2469
3762.55	2510
3764.197	2505
3765.842	2521
3767.486	2512
3769.131	2482
3770.774	2526
3772.417	2496
3774.061	2490
3775.705	2448
3777.347	2487
3778.988	2459
3780.629	2422
3782.271	2420
3783.912	2466
3785.552	2434
3787.192	2481
3788.831	2445
3790.472	2432
3792.112	2480
3793.75	2451
3795.388	2490
3797.024	2472
3798.661	2398
3800.3	2474
3801.936	2442
3803.572	2447
3805.208	2408
3806.844	2431
3808.48	2462
3810.115	2425
3811.748	2444
3813.382	2467
3815.016	2480
3816.649	2414
3818.283	2448
3819.914	2465
3821.547	2388
3823.178	2390
3824.809	2469
3826.441	2431
3828.072	2388
3829.701	2392
3831.331	2388
3832.96	2416
3834.591	2402
3836.219	2372
3837.847	2400
3839.475	2362
3841.102	2405
3842.729	2413
3844.357	2394
3845.984	2391
3847.609	2365
3849.234	2330
3850.86	2376
3852.485	2369
3854.11	2384
3855.734	2367
3857.357	2383
3858.981	2361
3860.603	2417
3862.227	2353
3863.848	2393
3865.471	2364
3867.092	2398
3868.713	2322
3870.334	2324
3871.954	2339
3873.575	2332
3875.194	2349
3876.813	2360
3878.433	2284
3880.051	2305
3881.669	2324
3883.286	2340
3884.904	2411
3886.52	2333
3888.138	2349
3889.754	2358
3891.37	2297
3892.985	2350
3894.6	2279
3896.216	2328
3897.831	2315
3899.444	2303
3901.058	2367
3902.67	2349
3904.283	2293
3905.897	2315
3907.509	2407
3909.121	2397
3910.731	2318
3912.342	2300
3913.954	2354
3915.563	2335
3917.174	2323
3918.783	2281
3920.391	2349
3922.002	2351
3923.611	2372
3925.218	2399
3926.826	2350
3928.432	2324
3930.039	2282
3931.647	2300
3933.253	2298
3934.859	2326
3936.464	2294
3938.068	2305
3939.675	2364
3941.278	2269
3942.883	2352
3944.486	2297
3946.089	2283
3947.692	2256
3949.295	2312
3950.898	2302
3952.499	2283
3954.1	2278
3955.7	2274
3957.303	2366
3958.903	2280
3960.502	2376
3962.101	2285
3963.7	2296
3965.301	2334
3966.899	2291
3968.497	2268
3970.094	2211
3971.691	2257
3973.288	2290
3974.885	2218
3976.481	2173
3978.077	2290
3979.672	2225
3981.267	2253
3982.863	2226
3984.457	2271
3986.051	2223
3987.645	2215
3989.238	2308
3990.831	2243
3992.425	2274
3994.017	2280
3995.607	2325
3997.199	2172
3998.79	2245
4000.382	2219
4001.973	2265
4003.561	2229
4005.151	2249
4006.741	2237
4008.331	2169
4009.918	2249
4011.507	2181
4013.095	2200
4014.681	2151
4016.269	2139
4017.856	2200
4019.443	2212
4021.028	2142
4022.614	2233
4024.199	2184
4025.785	2165
4027.37	2142
4028.953	2202
4030.536	2217
4032.12	2133
4033.704	2167
4035.287	2169
4036.869	2209
4038.45	2156
4040.032	2143
4041.613	2185
4043.195	2202
4044.776	2126
4046.356	2139
4047.935	2144
4049.515	2139
4051.095	2150
4052.674	2229
4054.251	2132
4055.829	2126
4057.406	2118
4058.985	2150
4060.562	2123
4062.139	2111
4063.715	2079
4065.29	2107
4066.865	2171
4068.442	2071
4070.016	2176
4071.59	2143
4073.164	2129
4074.738	2091
4076.312	2162
4077.885	2136
4079.458	2140
4081.03	2106
4082.602	2176
4084.173	2127
4085.745	2082
4087.315	2100
4088.886	2142
4090.456	2121
4092.026	2137
4093.596	2124
4095.165	2154
4096.734	2082
4098.301	2125
4099.869	2126
4101.437	2146
4103.006	2030
4104.572	2129
4106.139	2054
4107.704	2112
4109.27	2055
4110.837	2116
4112.401	2077
4113.966	2069
4115.53	2073
4117.094	2106
4118.659	2078
4120.223	2045
4121.785	2139
4123.347	2084
4124.909	2076
4126.471	2126
4128.034	2073
4129.595	2062
4131.155	2098
4132.716	2109
4134.275	2078
4135.836	2091
4137.395	2050
4138.955	2102
4140.513	2054
4142.071	2024
4143.628	2072
4145.188	2065
4146.745	2061
4148.302	2051
4149.858	2012
4151.414	2017
4152.971	2067
4154.526	2033
4156.081	2047
4157.635	2082
4159.189	2073
4160.745	2020
4162.298	2008
4163.852	2084
4165.405	1998
4166.957	2018
4168.51	2070
4170.063	2001
4171.614	2090
4173.166	2011
4174.717	2009
4176.267	2012
4177.817	1981
4179.368	1950
4180.917	2055
4182.466	1971
4184.016	2055
4185.564	1992
4187.112	2046
4188.66	2015
4190.207	2042
4191.754	2007
4193.301	2056
4194.848	2029
4196.394	2034
4197.94	1972
4199.484	2033
4201.03	1985
4202.575	2002
4204.12	1948
4205.663	1963
4207.207	1943
4208.75	2024
4210.292	1985
4211.836	1959
4213.378	1986
4214.92	1974
4216.46	1940
4218.002	1983
4219.544	2029
4221.083	1946
4222.625	2002
4224.164	1965
4225.703	1971
4227.244	1909
4228.782	1985
4230.32	1963
4231.857	1956
4233.395	1975
4234.933	1996
4236.471	1960
4238.007	1963
4239.542	1982
4241.078	1916
4242.614	1956
4244.15	1910
4245.685	1927
4247.219	1966
4248.753	1950
4250.287	1968
4251.82	1973
4253.354	1939
4254.887	1969
4256.419	1901
4257.951	1958
4259.483	1950
4261.016	1931
4262.547	1979
4264.078	1935
4265.608	1913
4267.137	1892
4268.668	1921
4270.197	1940
4271.727	1971
4273.254	1942
4274.783	1890
4276.311	1904
4277.84	1922
4279.366	1948
4280.894	1880
4282.42	1928
4283.946	1934
4285.473	1919
4286.998	1896
4288.523	1950
4290.047	1983
4291.572	1912
4293.096	1936
4294.622	1935
4296.144	1918
4297.668	1860
4299.19	1860
4300.713	1895
4302.236	1894
4303.758	1913
4305.279	1938
4306.799	1872
4308.321	1889
4309.842	1893
4311.361	1910
4312.882	1932
4314.401	1902
