400.0961	3183
402.6185	3203
405.1424	3137
407.6635	3157
410.1838	3208
412.7035	3189
415.2225	3203
417.7388	3239
420.2585	3250
422.7754	3232
425.2917	3305
427.8072	3297
430.3221	3357
432.8363	3376
435.3498	3351
437.8626	3367
440.3727	3330
442.8841	3336
445.3969	3384
447.907	3383
450.4142	3357
452.9229	3302
455.4289	3345
457.9362	3360
460.4449	3339
462.9488	3290
465.454	3295
467.9566	3317
470.4604	3270
472.9637	3310
475.4662	3346
477.966	3305
480.4671	3379
482.9656	3314
485.4633	3398
487.9645	3319
490.4608	3324
492.9566	3319
495.4536	3357
497.948	3366
500.4437	3374
502.9387	3325
505.431	3406
507.9226	3395
510.4136	3425
512.9079	3365
515.3975	3404
517.8864	3403
520.3746	3443
522.8622	3470
525.3491	3365
527.8394	3391
530.3249	3411
532.8098	3410
535.2939	3455
537.7774	3402
540.2623	3410
542.7444	3481
545.2259	3334
547.7067	3417
550.1868	3462
552.6683	3493
555.147	3454
557.6231	3427
560.1005	3458
562.5773	3422
565.0534	3494
567.5308	3504
570.0056	3533
572.4776	3543
574.951	3535
577.4237	3579
579.8978	3531
582.3671	3497
584.8378	3658
587.3079	3592
589.7773	3560
592.244	3572
594.714	3540
597.1793	3549
599.6461	3567
602.1121	3561
604.5754	3605
607.0421	3561
609.5042	3551
611.9675	3541
614.4282	3554
616.8902	3550
619.3515	3606
621.8122	3514
624.2702	3566
626.7296	3470
629.1863	3519
631.6423	3556
634.1017	3503
636.5563	3462
639.0104	3433
641.4658	3580
643.9185	3510
646.3725	3511
648.8239	3509
651.2766	3447
653.7266	3463
656.176	3672
658.6247	3522
661.0748	3526
663.5242	3558
665.9709	3587
668.417	3496
670.8624	3600
673.3092	3564
675.7533	3580
678.1968	3673
680.6395	3680
683.0817	3574
685.5251	3645
687.9659	3640
690.4061	3642
692.8456	3627
695.2844	3594
697.7226	3613
700.1621	3631
702.599	3658
705.0332	3683
707.4688	3743
709.9036	3659
712.3399	3675
714.7735	3715
717.2044	3638
719.6367	3764
722.0683	3701
724.4993	3749
726.9296	3766
729.3593	3786
731.7883	3743
734.2147	3783
736.6423	3813
739.0714	3736
741.4958	3776
743.9216	3853
746.3447	3769
748.7691	3805
751.1929	3830
753.616	3893
756.0366	3826
758.4584	3841
760.8776	3931
763.2982	3881
765.718	3804
768.1373	3890
770.5539	3866
772.9698	3901
775.3871	3884
777.8038	3850
780.2178	3902
782.6332	3959
785.0459	3913
787.458	3854
789.8714	3872
792.2842	3884
794.6943	3828
797.1038	3903
799.5127	3913
801.9209	3873
804.3324	3828
806.7393	3878
809.1456	3882
811.5513	4044
813.9562	3975
816.3625	3922
818.7663	3872
821.1693	4041
823.5718	3972
825.9735	4002
828.3746	3897
830.7771	3989
833.177	3919
835.5762	4015
837.9747	3996
840.3727	4000
842.772	3991
845.1666	4019
847.5626	4065
849.958	4101
852.3527	4097
854.7488	4086
857.1403	4037
859.5331	4038
861.9253	4118
864.3168	4119
866.7057	4029
869.098	4097
871.4876	4038
873.8746	4027
876.263	3952
878.6487	4024
881.0378	4002
883.4243	4017
885.8081	4022
888.1933	4009
890.5759	3928
892.9598	4054
895.343	4012
897.7256	3992
900.1057	3972
902.4871	4059
904.8659	4044
907.246	4109
909.6254	4088
912.0023	4100
914.3786	4212
916.7562	4233
919.1331	4366
921.5074	4370
923.8831	4372
926.2562	4425
928.6287	4390
931.0005	4349
933.3757	4276
935.7462	4341
938.1162	4308
940.4855	4414
942.8542	4406
945.2242	4424
947.5916	4448
949.9584	4615
952.3266	4693
954.6921	4813
957.0571	5049
959.4233	5229
961.787	5270
964.15	5224
966.5125	5147
968.8742	4917
971.2354	4711
973.5959	4594
975.9559	4420
978.3151	4334
980.6738	4290
983.0338	4324
985.3912	4208
987.7461	4190
990.1022	4229
992.4578	4221
994.8127	4088
997.1689	4202
999.5207	4163
1001.874	4280
1004.226	4249
1006.576	4189
1008.929	4093
1011.28	4290
1013.628	4148
1015.977	4220
1018.324	4172
1020.674	4207
1023.019	4256
1025.366	4324
1027.713	4207
1030.056	4214
1032.399	4257
1034.746	4232
1037.087	4295
1039.431	4275
1041.771	4267
1044.113	4311
1046.454	4332
1048.793	4322
1051.133	4271
1053.471	4296
1055.807	4216
1058.146	4340
1060.483	4289
1062.818	4322
1065.153	4300
1067.489	4385
1069.822	4460
1072.156	4383
1074.488	4428
1076.82	4413
1079.15	4268
1081.48	4346
1083.814	4333
1086.143	4371
1088.471	4310
1090.799	4327
1093.126	4262
1095.452	4254
1097.78	4228
1100.105	4267
1102.43	4375
1104.754	4361
1107.077	4305
1109.4	4262
1111.722	4330
1114.044	4378
1116.365	4380
1118.685	4386
1121.005	4307
1123.324	4297
1125.643	4338
1127.961	4286
1130.278	4287
1132.595	4236
1134.911	4385
1137.226	4274
1139.541	4277
1141.854	4219
1144.167	4283
1146.482	4221
1148.793	4252
1151.105	4350
1153.414	4328
1155.725	4221
1158.033	4378
1160.344	4303
1162.651	4276
1164.959	4287
1167.265	4348
1169.572	4457
1171.878	4328
1174.184	4270
1176.488	4375
1178.79	4385
1181.094	4355
1183.396	4358
1185.699	4315
1188.001	4327
1190.301	4272
1192.6	4346
1194.9	4267
1197.2	4260
1199.497	4362
1201.794	4359
1204.09	4256
1206.387	4275
1208.684	4330
1210.978	4353
1213.272	4348
1215.565	4315
1217.858	4366
1220.15	4300
1222.443	4200
1224.734	4396
1227.024	4298
1229.313	4407
1231.602	4500
1233.892	4500
1236.18	4470
1238.467	4411
1240.754	4610
1243.04	4466
1245.325	4537
1247.612	4570
1249.896	4516
1252.178	4549
1254.461	4636
1256.743	4536
1259.027	4597
1261.308	4586
1263.587	4516
1265.867	4567
1268.146	4533
1270.425	4558
1272.703	4592
1274.981	4642
1277.256	4551
1279.532	4505
1281.808	4483
1284.083	4452
1286.358	4449
1288.63	4464
1290.904	4501
1293.175	4429
1295.449	4510
1297.719	4510
1299.99	4387
1302.259	4445
1304.529	4444
1306.798	4467
1309.065	4527
1311.333	4442
1313.599	4479
1315.866	4509
1318.131	4513
1320.396	4479
1322.66	4498
1324.925	4475
1327.187	4402
1329.448	4502
1331.711	4437
1333.974	4487
1336.234	4539
1338.493	4519
1340.752	4408
1343.01	4467
1345.269	4413
1347.526	4416
1349.784	4469
1352.04	4434
1354.295	4442
1356.552	4404
1358.806	4420
1361.059	4527
1363.312	4474
1365.564	4526
1367.818	4444
1370.069	4472
1372.318	4459
1374.568	4494
1376.817	4530
1379.066	4440
1381.316	4595
1383.564	4488
1385.809	4549
1388.056	4529
1390.301	4625
1392.549	4624
1394.793	4711
1397.036	4739
1399.279	4743
1401.522	4922
1403.763	4809
1406.007	4744
1408.248	4658
1410.487	4645
1412.727	4601
1414.965	4709
1417.205	4751
1419.442	4740
1421.68	4704
1423.915	4677
1426.152	4646
1428.388	4641
1430.623	4735
1432.857	4856
1435.091	4671
1437.323	4725
1439.556	4761
1441.789	4764
1444.019	4713
1446.25	4750
1448.48	4824
1450.708	4807
1452.938	4785
1455.167	4887
1457.394	4819
1459.62	4867
1461.846	4848
1464.073	4730
1466.299	4788
1468.523	4728
1470.746	4550
1472.969	4675
1475.191	4640
1477.415	4631
1479.636	4517
1481.858	4539
1484.078	4506
1486.298	4482
1488.518	4531
1490.736	4502
1492.954	4508
1495.169	4435
1497.386	4464
1499.602	4533
1501.819	4418
1504.034	4466
1506.248	4544
1508.462	4417
1510.675	4462
1512.888	4512
1515.1	4402
1517.311	4450
1519.522	4424
1521.732	4409
1523.942	4383
1526.151	4498
1528.36	4501
1530.566	4496
1532.773	4478
1534.98	4534
1537.187	4406
1539.392	4439
1541.596	4459
1543.801	4427
1546.005	4487
1548.208	4510
1550.411	4442
1552.612	4509
1554.814	4516
1557.013	4601
1559.212	4613
1561.414	4551
1563.612	4576
1565.811	4621
1568.007	4605
1570.203	4526
1572.403	4560
1574.598	4624
1576.792	4505
1578.988	4648
1581.181	4657
1583.376	4621
1585.568	4537
1587.761	4549
1589.952	4616
1592.143	4562
1594.333	4711
1596.524	4612
1598.715	4489
1600.903	4584
1603.091	4646
1605.278	4653
1607.466	4591
1609.652	4632
1611.838	4674
1614.023	4633
1616.207	4667
1618.391	4710
1620.576	4607
1622.759	4693
1624.941	4638
1627.123	4782
1629.304	4633
1631.484	4641
1633.664	4676
1635.844	4661
1638.022	4746
1640.201	4681
1642.38	4689
1644.556	4689
1646.732	4701
1648.908	4729
1651.084	4610
1653.257	4652
1655.433	4750
1657.607	4652
1659.779	4800
1661.951	4716
1664.122	4829
1666.295	4771
1668.467	4836
1670.635	4784
1672.805	4767
1674.973	4830
1677.142	4880
1679.31	4753
1681.478	4691
1683.644	4878
1685.81	4727
1687.975	4750
1690.142	4698
1692.305	4735
1694.468	4792
1696.632	4668
1698.794	4718
1700.957	4631
1703.119	4676
1705.279	4595
1707.439	4747
1709.598	4554
1711.758	4639
1713.917	4607
1716.075	4602
1718.231	4673
1720.388	4592
1722.543	4511
1724.702	4572
1726.856	4625
1729.01	4593
1731.164	4510
1733.317	4577
1735.471	4622
1737.623	4634
1739.774	4602
1741.925	4659
1744.075	4637
1746.225	4647
1748.376	4606
1750.524	4551
1752.672	4533
1754.82	4564
1756.965	4580
1759.113	4622
1761.259	4606
1763.405	4613
1765.549	4568
1767.694	4678
1769.836	4649
1771.981	4541
1774.123	4669
1776.264	4602
1778.405	4616
1780.546	4685
1782.687	4580
1784.827	4678
1786.966	4719
1789.103	4557
1791.242	4725
1793.381	4657
1795.517	4636
1797.653	4685
1799.788	4693
1801.923	4542
1804.057	4660
1806.193	4709
1808.326	4718
1810.457	4597
1812.59	4677
1814.721	4642
1816.855	4554
1818.984	4614
1821.113	4606
1823.244	4607
1825.372	4642
1827.499	4570
1829.63	4603
1831.756	4679
1833.882	4608
1836.007	4585
1838.132	4610
1840.26	4702
1842.384	4615
1844.507	4681
1846.63	4553
1848.752	4557
1850.875	4610
1852.996	4587
1855.118	4668
1857.238	4686
1859.358	4485
1861.477	4570
1863.597	4642
1865.715	4556
1867.832	4570
1869.948	4586
1872.064	4700
1874.181	4583
1876.297	4552
1878.411	4602
1880.526	4586
1882.639	4659
1884.752	4572
1886.865	4600
1888.977	4613
1891.089	4610
1893.2	4588
1895.308	4627
1897.42	4612
1899.53	4697
1901.639	4698
1903.745	4653
1905.853	4708
1907.962	4683
1910.067	4729
1912.174	4623
1914.278	4644
1916.383	4616
1918.486	4662
1920.592	4618
1922.694	4675
1924.797	4660
1926.898	4758
1929	4715
1931.102	4654
1933.203	4624
1935.301	4773
1937.401	4706
1939.499	4732
1941.598	4691
1943.697	4609
1945.793	4715
1947.888	4662
1949.985	4547
1952.08	4630
1954.176	4688
1956.269	4730
1958.364	4672
1960.457	4668
1962.549	4686
1964.642	4649
1966.733	4762
1968.823	4691
1970.913	4594
1973.005	4587
1975.093	4697
1977.184	4667
1979.271	4641
1981.359	4656
1983.446	4672
1985.532	4655
1987.619	4705
1989.705	4640
1991.789	4654
1993.874	4649
1995.956	4637
1998.041	4569
2000.123	4597
2002.206	4738
2004.287	4707
2006.368	4656
2008.449	4657
2010.529	4658
2012.609	4671
2014.688	4673
2016.766	4638
2018.843	4627
2020.922	4606
2022.999	4604
2025.074	4698
2027.15	4641
2029.225	4687
2031.299	4610
2033.375	4602
2035.447	4569
2037.52	4471
2039.592	4621
2041.664	4692
2043.736	4567
2045.807	4583
2047.876	4670
2049.947	4711
2052.015	4612
2054.086	4679
2056.153	4668
2058.221	4630
2060.288	4576
2062.353	4597
2064.42	4662
2066.486	4696
2068.55	4630
2070.614	4665
2072.678	4595
2074.741	4584
2076.805	4575
2078.866	4612
2080.929	4599
2082.99	4626
2085.049	4677
2087.109	4592
2089.17	4639
2091.228	4718
2093.286	4592
2095.344	4705
2097.4	4636
2099.46	4642
2101.516	4668
2103.572	4590
2105.626	4659
2107.679	4685
2109.735	4535
2111.788	4544
2113.841	4693
2115.894	4657
2117.945	4520
2119.997	4573
2122.049	4674
2124.1	4662
2126.148	4665
2128.197	4565
2130.246	4606
2132.296	4659
2134.342	4698
2136.39	4649
2138.437	4694
2140.483	4690
2142.527	4585
2144.574	4578
2146.619	4608
2148.661	4695
2150.705	4671
2152.747	4594
2154.792	4531
2156.832	4624
2158.874	4604
2160.915	4635
2162.954	4679
2164.995	4593
2167.034	4639
2169.072	4565
2171.111	4668
2173.148	4523
2175.186	4596
2177.223	4559
2179.258	4671
2181.294	4658
2183.328	4521
2185.362	4587
2187.398	4533
2189.431	4499
2191.463	4456
2193.495	4549
2195.528	4480
2197.56	4492
2199.59	4455
2201.62	4584
2203.649	4446
2205.678	4622
2207.708	4550
2209.737	4492
2211.764	4619
2213.791	4475
2215.817	4605
2217.843	4536
2219.87	4542
2221.895	4571
2223.919	4554
2225.942	4528
2227.966	4593
2229.988	4462
2232.012	4506
2234.032	4615
2236.054	4449
2238.074	4425
2240.095	4531
2242.116	4419
2244.135	4495
2246.153	4519
2248.171	4543
2250.188	4492
2252.208	4541
2254.223	4552
2256.239	4506
2258.255	4457
2260.269	4618
2262.283	4578
2264.3	4629
2266.312	4571
2268.325	4479
2270.336	4489
2272.349	4497
2274.362	4549
2276.372	4416
2278.383	4536
2280.392	4579
2282.402	4518
2284.409	4591
2286.418	4479
2288.427	4576
2290.433	4487
2292.441	4451
2294.446	4409
2296.453	4518
2298.459	4508
2300.463	4552
2302.466	4469
2304.471	4614
2306.475	4574
2308.477	4564
2310.478	4489
2312.481	4526
2314.481	4489
2316.481	4510
2318.482	4556
2320.482	4467
2322.48	4470
2324.48	4502
2326.478	4487
2328.476	4504
2330.473	4499
2332.469	4408
2334.465	4464
2336.46	4577
2338.454	4507
2340.45	4476
2342.444	4540
2344.437	4384
2346.43	4473
2348.421	4370
2350.414	4545
2352.405	4419
2354.396	4379
2356.386	4417
2358.376	4423
2360.366	4495
2362.355	4361
2364.343	4436
2366.331	4436
2368.317	4431
2370.304	4392
2372.292	4569
2374.278	4295
2376.262	4351
2378.247	4465
2380.23	4450
2382.216	4419
2384.199	4439
2386.181	4423
2388.163	4337
2390.144	4319
2392.127	4335
2394.107	4397
2396.087	4301
2398.066	4380
2400.046	4508
2402.023	4368
2404.004	4370
2405.981	4298
2407.957	4320
2409.934	4294
2411.91	4374
2413.886	4384
2415.862	4438
2417.836	4308
2419.809	4435
2421.784	4353
2423.756	4470
2425.73	4377
2427.701	4305
2429.672	4434
2431.644	4403
2433.615	4401
2435.586	4368
2437.555	4325
2439.523	4373
2441.491	4312
2443.459	4391
2445.428	4360
2447.395	4408
2449.361	4350
2451.327	4360
2453.292	4318
2455.257	4225
2457.223	4368
2459.187	4393
2461.15	4290
2463.113	4333
2465.076	4366
2467.039	4301
2468.999	4315
2470.96	4258
2472.921	4412
2474.881	4358
2476.841	4302
2478.8	4361
2480.759	4316
2482.717	4320
2484.675	4294
2486.63	4326
2488.589	4322
2490.545	4274
2492.5	4221
2494.455	4293
2496.408	4385
2498.364	4285
2500.318	4360
2502.27	4351
2504.223	4355
2506.174	4326
2508.126	4327
2510.078	4275
2512.03	4228
2513.979	4238
2515.927	4328
2517.877	4308
2519.826	4230
2521.775	4248
2523.722	4315
2525.668	4243
2527.616	4279
2529.561	4328
2531.508	4304
2533.452	4329
2535.398	4232
2537.342	4318
2539.284	4235
2541.229	4385
2543.173	4204
2545.114	4316
2547.055	4348
2548.996	4266
2550.938	4220
2552.878	4245
2554.817	4341
2556.756	4207
2558.695	4258
2560.633	4305
2562.572	4202
2564.509	4265
2566.445	4339
2568.382	4300
2570.317	4325
2572.254	4226
2574.189	4319
2576.123	4280
2578.057	4324
2579.99	4235
2581.923	4252
2583.855	4266
2585.788	4309
2587.719	4304
2589.65	4315
2591.579	4296
2593.511	4312
2595.44	4290
2597.37	4313
2599.297	4276
2601.225	4282
2603.153	4289
2605.08	4301
2607.007	4313
2608.932	4175
2610.858	4229
2612.782	4331
2614.709	4235
2616.632	4257
2618.556	4245
2620.478	4296
2622.401	4266
2624.324	4347
2626.247	4298
2628.167	4232
2630.088	4336
2632.008	4245
2633.928	4306
2635.848	4343
2637.766	4252
2639.684	4345
2641.603	4307
2643.519	4316
2645.437	4319
2647.353	4274
2649.27	4279
2651.184	4300
2653.099	4354
2655.014	4386
2656.928	4366
2658.842	4262
2660.755	4306
2662.667	4323
2664.579	4266
2666.491	4292
2668.402	4304
2670.312	4316
2672.222	4236
2674.132	4262
2676.042	4228
2677.951	4223
2679.859	4320
2681.766	4236
2683.674	4240
2685.582	4311
2687.488	4183
2689.392	4372
2691.298	4269
2693.202	4316
2695.107	4235
2697.012	4200
2698.914	4277
2700.817	4264
2702.72	4290
2704.622	4231
2706.524	4229
2708.425	4165
2710.326	4215
2712.225	4280
2714.125	4248
2716.024	4291
2717.923	4192
2719.822	4249
2721.719	4210
2723.616	4168
2725.512	4275
2727.41	4155
2729.305	4286
2731.201	4242
2733.095	4201
2734.99	4229
2736.884	4312
2738.778	4244
2740.67	4216
2742.562	4232
2744.455	4211
2746.346	4267
2748.238	4188
2750.129	4196
2752.018	4136
2753.907	4271
2755.797	4225
2757.687	4174
2759.575	4234
2761.462	4178
2763.349	4132
2765.237	4122
2767.124	4241
2769.009	4135
2770.894	4138
2772.779	4152
2774.663	4292
2776.547	4212
2778.431	4143
2780.314	4186
2782.197	4174
2784.078	4179
2785.96	4120
2787.842	4206
2789.723	4165
2791.603	4214
2793.483	4179
2795.362	4109
2797.241	4227
2799.121	4126
2800.997	4102
2802.874	4229
2804.751	4183
2806.628	4184
2808.506	4163
2810.38	4166
2812.255	4167
2814.13	4194
2816.003	4193
2817.878	4077
2819.752	4131
2821.623	4194
2823.496	4153
2825.368	4256
2827.238	4137
2829.111	4243
2830.98	4234
2832.851	4281
2834.719	4171
2836.589	4199
2838.458	4193
2840.327	4153
2842.193	4228
2844.061	4238
2845.927	4244
2847.794	4264
2849.66	4267
2851.525	4315
2853.39	4305
2855.254	4326
2857.117	4324
2858.983	4380
2860.845	4391
2862.707	4347
2864.569	4379
2866.431	4451
2868.293	4440
2870.154	4482
2872.013	4599
2873.873	4535
2875.733	4629
2877.592	4614
2879.451	4698
2881.309	4720
2883.166	4763
2885.022	4765
2886.879	4794
2888.736	4845
2890.591	4842
2892.446	4922
2894.301	4795
2896.155	4881
2898.009	4828
2899.863	4848
2901.716	4775
2903.568	4861
2905.419	4774
2907.27	4814
2909.123	4805
2910.973	4730
2912.824	4984
2914.673	4923
2916.521	4870
2918.372	4975
2920.22	5088
2922.067	5016
2923.914	5120
2925.761	5164
2927.607	5135
2929.455	5172
2931.301	5106
2933.144	5296
2934.99	5280
2936.833	5274
2938.678	5390
2940.522	5356
2942.364	5521
2944.207	5605
2946.048	5547
2947.891	5755
2949.731	5718
2951.571	5657
2953.412	5720
2955.25	5708
2957.09	5562
2958.93	5533
2960.767	5531
2962.606	5438
2964.443	5345
2966.279	5364
2968.116	5213
2969.953	5165
2971.788	5091
2973.623	5020
2975.457	4957
2977.292	5026
2979.127	4901
2980.959	4868
2982.792	4867
2984.624	4830
2986.455	4845
2988.288	4879
2990.119	4746
2991.949	4716
2993.779	4626
2995.608	4653
2997.439	4545
2999.268	4540
3001.096	4477
3002.923	4516
3004.751	4465
3006.578	4315
3008.406	4397
3010.232	4331
3012.057	4260
3013.883	4283
3015.706	4207
3017.532	4181
3019.356	4243
3021.179	4138
3023.002	4135
3024.823	4082
3026.646	4121
3028.469	4072
3030.289	4103
3032.11	4038
3033.93	4069
3035.749	4069
3037.57	4022
3039.39	3970
3041.207	4008
3043.026	4043
3044.842	4029
3046.661	4104
3048.477	4020
3050.294	3984
3052.109	4032
3053.925	3976
3055.739	3996
3057.555	4042
3059.368	4033
3061.181	4031
3062.995	3960
3064.807	4059
3066.62	3956
3068.433	3928
3070.243	4005
3072.054	3997
3073.865	3942
3075.675	3971
3077.485	4052
3079.293	3941
3081.102	4021
3082.911	3910
3084.719	3943
3086.527	3956
3088.333	3966
3090.139	3967
3091.945	3930
3093.75	3951
3095.557	3849
3097.361	3927
3099.165	3898
3100.969	3987
3102.772	3938
3104.575	3826
3106.379	3798
3108.181	3862
3109.982	3786
3111.783	3886
3113.584	3806
3115.386	3871
3117.186	3841
3118.985	3878
3120.783	3858
3122.582	3811
3124.381	3803
3126.179	3775
3127.975	3829
3129.772	3910
3131.569	3818
3133.365	3806
3135.161	3841
3136.956	3839
3138.751	3776
3140.544	3785
3142.338	3855
3144.132	3831
3145.925	3748
3147.717	3783
3149.509	3781
3151.301	3721
3153.091	3829
3154.884	3817
3156.673	3865
3158.462	3768
3160.252	3833
3162.041	3716
3163.831	3799
3165.618	3831
3167.405	3790
3169.193	3860
3170.979	3725
3172.767	3719
3174.553	3687
3176.338	3853
3178.123	3742
3179.907	3778
3181.692	3722
3183.477	3785
3185.259	3812
3187.042	3834
3188.824	3770
3190.607	3796
3192.389	3857
3194.17	3782
3195.951	3790
3197.73	3672
3199.51	3799
3201.289	3788
3203.07	3699
3204.848	3709
3206.626	3766
3208.403	3743
3210.18	3714
3211.959	3676
3213.735	3776
3215.511	3720
3217.285	3725
3219.06	3756
3220.836	3703
3222.611	3824
3224.384	3736
3226.158	3853
3227.929	3703
3229.702	3746
3231.476	3853
3233.248	3827
3235.018	3737
3236.789	3780
3238.56	3677
3240.33	3717
3242.1	3783
3243.869	3801
3245.637	3720
3247.405	3731
3249.172	3809
3250.941	3812
3252.707	3814
3254.474	3772
3256.24	3811
3258.006	3744
3259.772	3784
3261.537	3726
3263.301	3719
3265.065	3745
3266.828	3802
3268.592	3695
3270.355	3799
3272.117	3778
3273.878	3803
3275.64	3757
3277.401	3798
3279.162	3701
3280.922	3778
3282.682	3728
3284.441	3783
3286.199	3829
3287.959	3771
3289.716	3761
3291.475	3725
3293.232	3838
3294.988	3825
3296.744	3793
3298.501	3763
3300.256	3813
3302.011	3783
3303.766	3783
3305.52	3809
3307.275	3778
3309.028	3792
3310.781	3747
3312.533	3797
3314.285	3710
3316.038	3777
3317.789	3770
3319.54	3706
3321.289	3738
3323.039	3846
3324.789	3756
3326.539	3816
3328.288	3740
3330.035	3818
3331.783	3760
3333.531	3769
3335.28	3656
3337.025	3748
3338.771	3716
3340.518	3777
3342.262	3783
3344.009	3824
3345.753	3759
3347.497	3690
3349.24	3721
3350.983	3705
3352.726	3738
3354.469	3748
3356.212	3768
3357.952	3613
3359.694	3712
3361.434	3680
3363.176	3660
3364.916	3786
3366.654	3718
3368.394	3641
3370.132	3663
3371.871	3583
3373.61	3639
3375.346	3675
3377.083	3615
3378.82	3654
3380.556	3702
3382.292	3634
3384.027	3622
3385.763	3655
3387.497	3610
3389.231	3605
3390.965	3583
3392.698	3554
3394.431	3537
3396.164	3603
3397.896	3599
3399.627	3692
3401.36	3585
3403.09	3623
3404.82	3570
3406.55	3619
3408.279	3577
3410.01	3493
3411.738	3511
3413.467	3640
3415.194	3633
3416.92	3661
3418.647	3598
3420.375	3535
3422.102	3502
3423.827	3497
3425.553	3578
3427.277	3496
3429.003	3542
3430.727	3485
3432.451	3565
3434.173	3483
3435.896	3509
3437.62	3529
3439.343	3550
3441.063	3566
3442.785	3455
3444.505	3529
3446.226	3532
3447.948	3537
3449.666	3480
3451.386	3505
3453.104	3448
3454.823	3424
3456.541	3489
3458.259	3365
3459.976	3460
3461.693	3495
3463.408	3457
3465.125	3435
3466.841	3452
3468.556	3516
3470.271	3481
3471.985	3451
3473.698	3329
3475.414	3404
3477.126	3428
3478.838	3363
3480.55	3383
3482.263	3381
3483.975	3372
3485.686	3371
3487.396	3400
3489.106	3423
3490.817	3328
3492.526	3315
3494.236	3340
3495.944	3394
3497.652	3417
3499.359	3391
3501.066	3322
3502.775	3359
3504.481	3403
3506.187	3337
3507.893	3305
3509.598	3254
3511.304	3310
3513.009	3324
3514.713	3350
3516.417	3307
3518.12	3255
3519.821	3317
3521.525	3287
3523.228	3284
3524.929	3193
3526.631	3301
3528.33	3264
3530.032	3236
3531.733	3267
3533.433	3234
3535.131	3208
3536.83	3230
3538.529	3259
3540.227	3262
3541.925	3193
3543.623	3237
3545.319	3191
3547.016	3250
3548.712	3198
3550.408	3151
3552.103	3276
3553.798	3220
3555.491	3210
3557.188	3196
3558.88	3201
3560.574	3172
3562.266	3198
3563.959	3183
3565.651	3219
3567.343	3227
3569.035	3236
3570.725	3140
3572.415	3163
3574.106	3177
3575.797	3077
3577.485	3126
3579.174	3171
3580.863	3188
3582.551	3081
3584.238	3154
3585.926	3176
3587.613	3131
3589.3	3164
3590.986	3125
3592.671	3121
3594.357	3114
3596.042	3094
3597.726	3089
3599.41	3144
3601.094	3089
3602.778	3097
3604.461	3105
3606.143	3086
3607.825	3108
3609.507	2948
3611.188	3068
3612.87	3070
3614.551	3072
3616.229	3027
3617.909	3045
3619.589	3029
3621.269	2996
3622.948	2990
3624.625	3023
3626.302	2993
3627.98	2954
3629.657	2998
3631.334	2982
3633.01	3013
3634.686	3012
3636.361	2977
3638.036	2938
3639.712	2944
3641.385	2981
3643.06	2981
3644.732	2886
3646.405	2987
3648.08	2971
3649.751	2991
3651.424	2899
3653.094	2925
3654.766	2957
3656.436	2996
3658.106	2933
3659.777	2925
3661.446	2968
3663.115	2910
3664.783	2920
3666.452	2911
3668.121	2918
3669.788	2850
3671.454	2910
3673.121	2994
3674.789	2951
3676.455	2892
3678.12	2872
3679.784	2884
3681.45	2927
3683.114	2942
3684.779	2914
3686.442	2863
3688.105	2838
3689.768	2848
3691.43	2820
3693.093	2851
3694.754	2835
3696.415	2863
3698.076	2915
3699.736	2842
3701.396	2881
3703.057	2899
3704.716	2881
3706.375	2835
3708.034	2869
3709.692	2779
3711.351	2884
3713.008	2865
3714.665	2886
3716.321	2781
3717.977	2740
3719.634	2911
3721.29	2812
3722.945	2757
3724.598	2887
3726.253	2829
3727.907	2854
3729.561	2827
3731.214	2737
3732.867	2729
3734.518	2724
3736.171	2812
3737.824	2769
3739.474	2792
3741.125	2864
3742.775	2786
3744.425	2757
3746.074	2831
3747.725	2784
3749.373	2795
3751.022	2740
3752.669	2874
3754.318	2795
3755.966	2795
3757.612	2742
3759.259	2780
3760.905	2799
3762.55	2765
3764.197	2787
3765.842	2798
3767.486	2830
3769.131	2714
3770.774	2772
3772.417	2779
3774.061	2697
3775.705	2794
3777.347	2745
3778.988	2818
3780.629	2722
3782.271	2717
3783.912	2680
3785.552	2754
3787.192	2796
3788.831	2713
3790.472	2729
3792.112	2736
3793.75	2731
3795.388	2791
3797.024	2742
3798.661	2732
3800.3	2707
3801.936	2704
3803.572	2739
3805.208	2640
3806.844	2733
3808.48	2740
3810.115	2726
3811.748	2702
3813.382	2720
3815.016	2684
3816.649	2671
3818.283	2681
3819.914	2713
3821.547	2645
3823.178	2694
3824.809	2691
3826.441	2632
3828.072	2670
3829.701	2640
3831.331	2726
3832.96	2636
3834.591	2601
3836.219	2681
3837.847	2615
3839.475	2620
3841.102	2651
3842.729	2564
3844.357	2749
3845.984	2647
3847.609	2638
3849.234	2618
3850.86	2603
3852.485	2621
3854.11	2629
3855.734	2584
3857.357	2590
3858.981	2655
3860.603	2643
3862.227	2619
3863.848	2574
3865.471	2659
3867.092	2648
3868.713	2590
3870.334	2614
3871.954	2620
3873.575	2628
3875.194	2570
3876.813	2587
3878.433	2587
3880.051	2527
3881.669	2623
3883.286	2611
3884.904	2519
3886.52	2608
3888.138	2551
3889.754	2504
3891.37	2588
3892.985	2560
3894.6	2572
3896.216	2554
3897.831	2571
3899.444	2550
3901.058	2508
3902.67	2582
3904.283	2574
3905.897	2559
3907.509	2596
3909.121	2576
3910.731	2659
3912.342	2546
3913.954	2575
3915.563	2614
3917.174	2543
3918.783	2557
3920.391	2523
3922.002	2574
3923.611	2579
3925.218	2486
3926.826	2540
3928.432	2554
3930.039	2573
3931.647	2517
3933.253	2546
3934.859	2500
3936.464	2560
3938.068	2502
3939.675	2606
3941.278	2506
3942.883	2504
3944.486	2588
3946.089	2524
3947.692	2471
3949.295	2578
3950.898	2502
3952.499	2509
3954.1	2547
3955.7	2568
3957.303	2535
3958.903	2476
3960.502	2470
3962.101	2458
3963.7	2504
3965.301	2558
3966.899	2477
3968.497	2523
3970.094	2463
3971.691	2467
3973.288	2449
3974.885	2424
3976.481	2461
3978.077	2444
3979.672	2446
3981.267	2481
3982.863	2441
3984.457	2475
3986.051	2421
3987.645	2471
3989.238	2537
3990.831	2508
3992.425	2492
3994.017	2437
3995.607	2481
3997.199	2406
3998.79	2461
4000.382	2361
4001.973	2497
4003.561	2451
4005.151	2465
4006.741	2405
4008.331	2370
4009.918	2434
4011.507	2362
4013.095	2430
4014.681	2388
4016.269	2414
4017.856	2359
4019.443	2432
4021.028	2399
4022.614	2421
4024.199	2425
4025.785	2370
4027.37	2405
4028.953	2387
4030.536	2382
4032.12	2330
4033.704	2396
4035.287	2404
4036.869	2354
4038.45	2302
4040.032	2374
4041.613	2358
4043.195	2325
4044.776	2365
4046.356	2270
4047.935	2340
4049.515	2332
4051.095	2387
4052.674	2346
4054.251	2346
4055.829	2317
4057.406	2362
4058.985	2324
4060.562	2344
4062.139	2368
4063.715	2339
4065.29	2395
4066.865	2353
4068.442	2299
4070.016	2316
4071.59	2294
4073.164	2359
4074.738	2300
4076.312	2361
4077.885	2285
4079.458	2326
4081.03	2353
4082.602	2345
4084.173	2267
4085.745	2282
4087.315	2314
4088.886	2332
4090.456	2308
4092.026	2311
4093.596	2337
4095.165	2344
4096.734	2367
4098.301	2308
4099.869	2336
4101.437	2279
4103.006	2273
4104.572	2259
4106.139	2324
4107.704	2280
4109.27	2221
4110.837	2294
4112.401	2246
4113.966	2285
4115.53	2285
4117.094	2253
4118.659	2255
4120.223	2248
4121.785	2328
4123.347	2278
4124.909	2294
4126.471	2286
4128.034	2252
4129.595	2255
4131.155	2211
4132.716	2241
4134.275	2225
4135.836	2257
4137.395	2164
4138.955	2247
4140.513	2265
4142.071	2188
4143.628	2144
4145.188	2202
4146.745	2229
4148.302	2213
4149.858	2235
4151.414	2229
4152.971	2189
4154.526	2113
4156.081	2216
4157.635	2273
4159.189	2136
4160.745	2187
4162.298	2206
4163.852	2193
4165.405	2241
4166.957	2166
4168.51	2196
4170.063	2168
4171.614	2164
4173.166	2156
4174.717	2166
4176.267	2168
4177.817	2225
4179.368	2102
4180.917	2191
4182.466	2154
4184.016	2203
4185.564	2154
4187.112	2171
4188.66	2145
4190.207	2178
4191.754	2171
4193.301	2131
4194.848	2063
4196.394	2187
4197.94	2122
4199.484	2105
4201.03	2130
4202.575	2070
4204.12	2143
4205.663	2207
4207.207	2130
4208.75	2145
4210.292	2125
4211.836	2097
4213.378	2122
4214.92	2094
4216.46	2066
4218.002	2085
4219.544	2094
4221.083	2044
4222.625	2101
4224.164	2128
4225.703	2173
4227.244	2120
4228.782	2033
4230.32	2085
4231.857	2097
4233.395	2156
4234.933	2106
4236.471	2122
4238.007	2055
4239.542	2059
4241.078	2162
4242.614	2102
4244.15	2096
4245.685	2063
4247.219	2105
4248.753	2102
4250.287	2080
4251.82	2113
4253.354	2091
4254.887	2088
4256.419	2056
4257.951	2117
4259.483	2077
4261.016	2060
4262.547	2092
4264.078	2040
4265.608	2085
4267.137	2055
4268.668	2062
4270.197	1994
4271.727	2067
4273.254	2039
4274.783	2046
4276.311	2051
4277.84	2160
4279.366	2081
4280.894	2025
4282.42	2091
4283.946	2058
4285.473	2067
4286.998	2068
4288.523	2030
4290.047	2006
4291.572	2014
4293.096	2082
4294.622	2024
4296.144	2036
4297.668	2032
4299.19	2037
4300.713	2037
4302.236	2020
4303.758	2017
4305.279	1985
4306.799	2017
4308.321	2056
4309.842	2005
4311.361	1984
4312.882	1981
4314.401	1983
