400.0961	2823
402.6185	2840
405.1424	2833
407.6635	2850
410.1838	2876
412.7035	2878
415.2225	2881
417.7388	2950
420.2585	2943
422.7754	2870
425.2917	3032
427.8072	2981
430.3221	3049
432.8363	3101
435.3498	3016
437.8626	3036
440.3727	3042
442.8841	3006
445.3969	3049
447.907	3021
450.4142	3117
452.9229	3066
455.4289	2989
457.9362	2982
460.4449	3046
462.9488	2982
465.454	2978
467.9566	2983
470.4604	3088
472.9637	2996
475.4662	2985
477.966	2970
480.4671	3075
482.9656	3022
485.4633	3005
487.9645	3033
490.4608	3099
492.9566	3091
495.4536	3053
497.948	3104
500.4437	3098
502.9387	3156
505.431	3039
507.9226	3042
510.4136	3118
512.9079	3048
515.3975	3027
517.8864	3086
520.3746	3120
522.8622	3100
525.3491	3146
527.8394	3105
530.3249	3013
532.8098	3157
535.2939	3125
537.7774	3032
540.2623	3161
542.7444	3122
545.2259	3132
547.7067	3085
550.1868	3062
552.6683	3125
555.147	3179
557.6231	3188
560.1005	3113
562.5773	3203
565.0534	3169
567.5308	3271
570.0056	3197
572.4776	3218
574.951	3258
577.4237	3181
579.8978	3238
582.3671	3249
584.8378	3243
587.3079	3253
589.7773	3210
592.244	3237
594.714	3245
597.1793	3247
599.6461	3226
602.1121	3243
604.5754	3187
607.0421	3242
609.5042	3180
611.9675	3210
614.4282	3269
616.8902	3236
619.3515	3182
621.8122	3188
624.2702	3240
626.7296	3159
629.1863	3216
631.6423	3240
634.1017	3160
636.5563	3207
639.0104	3166
641.4658	3157
643.9185	3162
646.3725	3218
648.8239	3232
651.2766	3251
653.7266	3213
656.176	3233
658.6247	3298
661.0748	3278
663.5242	3289
665.9709	3263
668.417	3301
670.8624	3302
673.3092	3233
675.7533	3333
678.1968	3261
680.6395	3417
683.0817	3244
685.5251	3252
687.9659	3292
690.4061	3301
692.8456	3332
695.2844	3261
697.7226	3312
700.1621	3266
702.599	3253
705.0332	3338
707.4688	3342
709.9036	3339
712.3399	3356
714.7735	3392
717.2044	3366
719.6367	3388
722.0683	3418
724.4993	3334
726.9296	3410
729.3593	3542
731.7883	3405
734.2147	3475
736.6423	3488
739.0714	3434
741.4958	3434
743.9216	3450
746.3447	3449
748.7691	3495
751.1929	3644
753.616	3560
756.0366	3552
758.4584	3520
760.8776	3484
763.2982	3484
765.718	3612
768.1373	3490
770.5539	3484
772.9698	3586
775.3871	3467
777.8038	3517
780.2178	3519
782.6332	3536
785.0459	3568
787.458	3535
789.8714	3540
792.2842	3561
794.6943	3552
797.1038	3525
799.5127	3559
801.9209	3522
804.3324	3530
806.7393	3559
809.1456	3612
811.5513	3574
813.9562	3584
816.3625	3600
818.7663	3622
821.1693	3594
823.5718	3601
825.9735	3620
828.3746	3555
830.7771	3638
833.177	3589
835.5762	3577
837.9747	3540
840.3727	3610
842.772	3660
845.1666	3605
847.5626	3613
849.958	3557
852.3527	3689
854.7488	3653
857.1403	3739
859.5331	3718
861.9253	3632
864.3168	3688
866.7057	3681
869.098	3699
871.4876	3661
873.8746	3717
876.263	3734
878.6487	3659
881.0378	3723
883.4243	3615
885.8081	3577
888.1933	3634
890.5759	3651
892.9598	3650
895.343	3671
897.7256	3656
900.1057	3624
902.4871	3684
904.8659	3714
907.246	3697
909.6254	3719
912.0023	3717
914.3786	3750
916.7562	3799
919.1331	3846
921.5074	3817
923.8831	3862
926.2562	3896
928.6287	3814
931.0005	3811
933.3757	3869
935.7462	3871
938.1162	3905
940.4855	3910
942.8542	4046
945.2242	3986
947.5916	4123
949.9584	4195
952.3266	4359
954.6921	4559
957.0571	4720
959.4233	4815
961.787	4904
964.15	4924
966.5125	4633
968.8742	4610
971.2354	4262
973.5959	4215
975.9559	4023
978.3151	3937
980.6738	3920
983.0338	3919
985.3912	3857
987.7461	3777
990.1022	3757
992.4578	3801
994.8127	3862
997.1689	3848
999.5207	3800
1001.874	3797
1004.226	3879
1006.576	3822
1008.929	3831
1011.28	3839
1013.628	3722
1015.977	3727
1018.324	3829
1020.674	3830
1023.019	3845
1025.366	3863
1027.713	3891
1030.056	3863
1032.399	3889
1034.746	3940
1037.087	3922
1039.431	3876
1041.771	3978
1044.113	3890
1046.454	3891
1048.793	3956
1051.133	3934
1053.471	3872
1055.807	3897
1058.146	3930
1060.483	3945
1062.818	3942
1065.153	3948
1067.489	4041
1069.822	4012
1072.156	4028
1074.488	4141
1076.82	4029
1079.15	4014
1081.48	4003
1083.814	3952
1086.143	3966
1088.471	3913
1090.799	3894
1093.126	3866
1095.452	3920
1097.78	3930
1100.105	3891
1102.43	3937
1104.754	3883
1107.077	3999
1109.4	3909
1111.722	3892
1114.044	3998
1116.365	3861
1118.685	3880
1121.005	3974
1123.324	3898
1125.643	3922
1127.961	3941
1130.278	3923
1132.595	3980
1134.911	3910
1137.226	3941
1139.541	3870
1141.854	3865
1144.167	3973
1146.482	3917
1148.793	3930
1151.105	3893
1153.414	3909
1155.725	3943
1158.033	3884
1160.344	3877
1162.651	3852
1164.959	3907
1167.265	3861
1169.572	3960
1171.878	3875
1174.184	3980
1176.488	3939
1178.79	3924
1181.094	3897
1183.396	3959
1185.699	3891
1188.001	3880
1190.301	3937
1192.6	3925
1194.9	3889
1197.2	3973
1199.497	3886
1201.794	3923
1204.09	3954
1206.387	4038
1208.684	3986
1210.978	3947
1213.272	3965
1215.565	3905
1217.858	3891
1220.15	3930
1222.443	3868
1224.734	3932
1227.024	4037
1229.313	4021
1231.602	4048
1233.892	4028
1236.18	4062
1238.467	4009
1240.754	4038
1243.04	4082
1245.325	4135
1247.612	4172
1249.896	4212
1252.178	4177
1254.461	4091
1256.743	4001
1259.027	4135
1261.308	4115
1263.587	4217
1265.867	4076
1268.146	4103
1270.425	4084
1272.703	4087
1274.981	4126
1277.256	4096
1279.532	4114
1281.808	4139
1284.083	4064
1286.358	4098
1288.63	4041
1290.904	4017
1293.175	4078
1295.449	3974
1297.719	4088
1299.99	4100
1302.259	4050
1304.529	3983
1306.798	4048
1309.065	3996
1311.333	4060
1313.599	4063
1315.866	4135
1318.131	4041
1320.396	4074
1322.66	4039
1324.925	4150
1327.187	4004
1329.448	4043
1331.711	4090
1333.974	3966
1336.234	4026
1338.493	4137
1340.752	4149
1343.01	4063
1345.269	3983
1347.526	4008
1349.784	4076
1352.04	3995
1354.295	3945
1356.552	4079
1358.806	4145
1361.059	3980
1363.312	4081
1365.564	4034
1367.818	4125
1370.069	4027
1372.318	4046
1374.568	4081
1376.817	4147
1379.066	4121
1381.316	4030
1383.564	4150
1385.809	4126
1388.056	4067
1390.301	4232
1392.549	4102
1394.793	4222
1397.036	4111
1399.279	4212
1401.522	4164
1403.763	4179
1406.007	4148
1408.248	4122
1410.487	4122
1412.727	4243
1414.965	4184
1417.205	4160
1419.442	4188
1421.68	4273
1423.915	4152
1426.152	4189
1428.388	4234
1430.623	4187
1432.857	4135
1435.091	4203
1437.323	4147
1439.556	4336
1441.789	4172
1444.019	4285
1446.25	4184
1448.48	4298
1450.708	4312
1452.938	4254
1455.167	4296
1457.394	4318
1459.62	4241
1461.846	4330
1464.073	4262
1466.299	4355
1468.523	4248
1470.746	4235
1472.969	4192
1475.191	4214
1477.415	4236
1479.636	4148
1481.858	4161
1484.078	4146
1486.298	4086
1488.518	4089
1490.736	4191
1492.954	4042
1495.169	4086
1497.386	4089
1499.602	4042
1501.819	4070
1504.034	4078
1506.248	4073
1508.462	4031
1510.675	4065
1512.888	4043
1515.1	3956
1517.311	4081
1519.522	4154
1521.732	4038
1523.942	4053
1526.151	4063
1528.36	4043
1530.566	4080
1532.773	4129
1534.98	4139
1537.187	4046
1539.392	4009
1541.596	4059
1543.801	4075
1546.005	4110
1548.208	4115
1550.411	4191
1552.612	4046
1554.814	4171
1557.013	4107
1559.212	4093
1561.414	4121
1563.612	4123
1565.811	4233
1568.007	4190
1570.203	4146
1572.403	4131
1574.598	4185
1576.792	4074
1578.988	4286
1581.181	4256
1583.376	4206
1585.568	4133
1587.761	4190
1589.952	4184
1592.143	4101
1594.333	4257
1596.524	4175
1598.715	4222
1600.903	4225
1603.091	4205
1605.278	4159
1607.466	4151
1609.652	4200
1611.838	4290
1614.023	4209
1616.207	4274
1618.391	4277
1620.576	4298
1622.759	4183
1624.941	4189
1627.123	4345
1629.304	4272
1631.484	4342
1633.664	4247
1635.844	4310
1638.022	4327
1640.201	4352
1642.38	4228
1644.556	4246
1646.732	4294
1648.908	4281
1651.084	4308
1653.257	4317
1655.433	4306
1657.607	4392
1659.779	4268
1661.951	4283
1664.122	4426
1666.295	4363
1668.467	4399
1670.635	4356
1672.805	4340
1674.973	4420
1677.142	4343
1679.31	4367
1681.478	4322
1683.644	4333
1685.81	4276
1687.975	4361
1690.142	4238
1692.305	4325
1694.468	4353
1696.632	4298
1698.794	4245
1700.957	4312
1703.119	4346
1705.279	4303
1707.439	4260
1709.598	4250
1711.758	4243
1713.917	4191
1716.075	4255
1718.231	4204
1720.388	4242
1722.543	4250
1724.702	4229
1726.856	4237
1729.01	4237
1731.164	4235
1733.317	4336
1735.471	4229
1737.623	4224
1739.774	4194
1741.925	4184
1744.075	4231
1746.225	4325
1748.376	4193
1750.524	4262
1752.672	4259
1754.82	4213
1756.965	4361
1759.113	4219
1761.259	4312
1763.405	4297
1765.549	4249
1767.694	4251
1769.836	4274
1771.981	4326
1774.123	4202
1776.264	4266
1778.405	4262
1780.546	4291
1782.687	4262
1784.827	4218
1786.966	4297
1789.103	4277
1791.242	4275
1793.381	4234
1795.517	4374
1797.653	4212
1799.788	4272
1801.923	4317
1804.057	4232
1806.193	4287
1808.326	4383
1810.457	4226
1812.59	4275
1814.721	4293
1816.855	4269
1818.984	4320
1821.113	4174
1823.244	4280
1825.372	4283
1827.499	4269
1829.63	4224
1831.756	4314
1833.882	4275
1836.007	4301
1838.132	4217
1840.26	4307
1842.384	4287
1844.507	4207
1846.63	4217
1848.752	4199
1850.875	4230
1852.996	4222
1855.118	4242
1857.238	4172
1859.358	4278
1861.477	4195
1863.597	4269
1865.715	4157
1867.832	4278
1869.948	4281
1872.064	4216
1874.181	4224
1876.297	4187
1878.411	4176
1880.526	4238
1882.639	4245
1884.752	4315
1886.865	4269
1888.977	4221
1891.089	4217
1893.2	4307
1895.308	4257
1897.42	4336
1899.53	4232
1901.639	4316
1903.745	4278
1905.853	4308
1907.962	4359
1910.067	4360
1912.174	4299
1914.278	4299
1916.383	4333
1918.486	4280
1920.592	4263
1922.694	4329
1924.797	4285
1926.898	4231
1929	4262
1931.102	4258
1933.203	4272
1935.301	4263
1937.401	4358
1939.499	4326
1941.598	4374
1943.697	4389
1945.793	4272
1947.888	4329
1949.985	4405
1952.08	4273
1954.176	4322
1956.269	4293
1958.364	4275
1960.457	4276
1962.549	4379
1964.642	4322
1966.733	4343
1968.823	4293
1970.913	4245
1973.005	4243
1975.093	4305
1977.184	4272
1979.271	4293
1981.359	4306
1983.446	4369
1985.532	4319
1987.619	4398
1989.705	4160
1991.789	4258
1993.874	4305
1995.956	4316
1998.041	4225
2000.123	4342
2002.206	4319
2004.287	4211
2006.368	4339
2008.449	4245
2010.529	4256
2012.609	4236
2014.688	4293
2016.766	4329
2018.843	4334
2020.922	4226
2022.999	4301
2025.074	4275
2027.15	4330
2029.225	4254
2031.299	4208
2033.375	4240
2035.447	4322
2037.52	4263
2039.592	4244
2041.664	4294
2043.736	4229
2045.807	4272
2047.876	4248
2049.947	4308
2052.015	4324
2054.086	4258
2056.153	4242
2058.221	4300
2060.288	4287
2062.353	4307
2064.42	4261
2066.486	4270
2068.55	4192
2070.614	4284
2072.678	4363
2074.741	4322
2076.805	4258
2078.866	4330
2080.929	4326
2082.99	4343
2085.049	4227
2087.109	4226
2089.17	4341
2091.228	4363
2093.286	4246
2095.344	4315
2097.4	4293
2099.46	4294
2101.516	4351
2103.572	4302
2105.626	4366
2107.679	4274
2109.735	4329
2111.788	4297
2113.841	4273
2115.894	4295
2117.945	4223
2119.997	4321
2122.049	4294
2124.1	4283
2126.148	4252
2128.197	4213
2130.246	4289
2132.296	4329
2134.342	4294
2136.39	4328
2138.437	4222
2140.483	4289
2142.527	4258
2144.574	4317
2146.619	4262
2148.661	4164
2150.705	4255
2152.747	4269
2154.792	4301
2156.832	4300
2158.874	4324
2160.915	4206
2162.954	4220
2164.995	4210
2167.034	4285
2169.072	4280
2171.111	4213
2173.148	4329
2175.186	4168
2177.223	4190
2179.258	4156
2181.294	4266
2183.328	4129
2185.362	4250
2187.398	4201
2189.431	4239
2191.463	4202
2193.495	4232
2195.528	4171
2197.56	4325
2199.59	4187
2201.62	4237
2203.649	4187
2205.678	4188
2207.708	4215
2209.737	4250
2211.764	4170
2213.791	4279
2215.817	4257
2217.843	4121
2219.87	4277
2221.895	4190
2223.919	4176
2225.942	4162
2227.966	4180
2229.988	4179
2232.012	4151
2234.032	4195
2236.054	4173
2238.074	4225
2240.095	4152
2242.116	4217
2244.135	4211
2246.153	4185
2248.171	4183
2250.188	4142
2252.208	4121
2254.223	4170
2256.239	4202
2258.255	4232
2260.269	4191
2262.283	4226
2264.3	4211
2266.312	4312
2268.325	4194
2270.336	4121
2272.349	4265
2274.362	4281
2276.372	4183
2278.383	4201
2280.392	4248
2282.402	4243
2284.409	4154
2286.418	4223
2288.427	4150
2290.433	4216
2292.441	4242
2294.446	4251
2296.453	4213
2298.459	4256
2300.463	4203
2302.466	4239
2304.471	4137
2306.475	4134
2308.477	4171
2310.478	4228
2312.481	4167
2314.481	4235
2316.481	4182
2318.482	4109
2320.482	4165
2322.48	4164
2324.48	4315
2326.478	4159
2328.476	4191
2330.473	4237
2332.469	4183
2334.465	4166
2336.46	4175
2338.454	4121
2340.45	4111
2342.444	4204
2344.437	4153
2346.43	4179
2348.421	4078
2350.414	4131
2352.405	4213
2354.396	4121
2356.386	4038
2358.376	4059
2360.366	4110
2362.355	4148
2364.343	4166
2366.331	4136
2368.317	4032
2370.304	4116
2372.292	4116
2374.278	4042
2376.262	4072
2378.247	4151
2380.23	4123
2382.216	4097
2384.199	4114
2386.181	4084
2388.163	4042
2390.144	4036
2392.127	4180
2394.107	4085
2396.087	4048
2398.066	3955
2400.046	4099
2402.023	4020
2404.004	4094
2405.981	4057
2407.957	3984
2409.934	4089
2411.91	4141
2413.886	4091
2415.862	4062
2417.836	4089
2419.809	4107
2421.784	4127
2423.756	4041
2425.73	3997
2427.701	4010
2429.672	4049
2431.644	4074
2433.615	4141
2435.586	4123
2437.555	4096
2439.523	3971
2441.491	4051
2443.459	4121
2445.428	4025
2447.395	4028
2449.361	4111
2451.327	3979
2453.292	4035
2455.257	4061
2457.223	4039
2459.187	4013
2461.15	4137
2463.113	4066
2465.076	4098
2467.039	4008
2468.999	4117
2470.96	3975
2472.921	4039
2474.881	4066
2476.841	4079
2478.8	4073
2480.759	3981
2482.717	4024
2484.675	4009
2486.63	4032
2488.589	4068
2490.545	4000
2492.5	4042
2494.455	3947
2496.408	4030
2498.364	3970
2500.318	3989
2502.27	3977
2504.223	4089
2506.174	3976
2508.126	3976
2510.078	3951
2512.03	4109
2513.979	3991
2515.927	4035
2517.877	3983
2519.826	3952
2521.775	4068
2523.722	4012
2525.668	3917
2527.616	4001
2529.561	4067
2531.508	3950
2533.452	4004
2535.398	3995
2537.342	3960
2539.284	3989
2541.229	4035
2543.173	3946
2545.114	4047
2547.055	3954
2548.996	4030
2550.938	4086
2552.878	3993
2554.817	3960
2556.756	3951
2558.695	4014
2560.633	3922
2562.572	3964
2564.509	4073
2566.445	3908
2568.382	4115
2570.317	3999
2572.254	3992
2574.189	4044
2576.123	4029
2578.057	4001
2579.99	4100
2581.923	4019
2583.855	3974
2585.788	3994
2587.719	3978
2589.65	4073
2591.579	4067
2593.511	3991
2595.44	4000
2597.37	4063
2599.297	4104
2601.225	3984
2603.153	3952
2605.08	4013
2607.007	4076
2608.932	4032
2610.858	3983
2612.782	3891
2614.709	4035
2616.632	4091
2618.556	3996
2620.478	4013
2622.401	4083
2624.324	4023
2626.247	4037
2628.167	4012
2630.088	4027
2632.008	4022
2633.928	4055
2635.848	4008
2637.766	4037
2639.684	3995
2641.603	3935
2643.519	3940
2645.437	3916
2647.353	4076
2649.27	3967
2651.184	3997
2653.099	4019
2655.014	4040
2656.928	4024
2658.842	3901
2660.755	3907
2662.667	4026
2664.579	3963
2666.491	3970
2668.402	3955
2670.312	4060
2672.222	3987
2674.132	4040
2676.042	4028
2677.951	3993
2679.859	3990
2681.766	3966
2683.674	3972
2685.582	3957
2687.488	3924
2689.392	4011
2691.298	3958
2693.202	3997
2695.107	3861
2697.012	3960
2698.914	3995
2700.817	4007
2702.72	3969
2704.622	4062
2706.524	3979
2708.425	3938
2710.326	3994
2712.225	3891
2714.125	3970
2716.024	3930
2717.923	3990
2719.822	3876
2721.719	3912
2723.616	3921
2725.512	3970
2727.41	3940
2729.305	3975
2731.201	3925
2733.095	3962
2734.99	3910
2736.884	3914
2738.778	3889
2740.67	3927
2742.562	3944
2744.455	3925
2746.346	3982
2748.238	3986
2750.129	3951
2752.018	3933
2753.907	3970
2755.797	3948
2757.687	3935
2759.575	3919
2761.462	3897
2763.349	3891
2765.237	3921
2767.124	3924
2769.009	3938
2770.894	3883
2772.779	4007
2774.663	3886
2776.547	3920
2778.431	3906
2780.314	3869
2782.197	3889
2784.078	3918
2785.96	3884
2787.842	3932
2789.723	3819
2791.603	3872
2793.483	3869
2795.362	3903
2797.241	3798
2799.121	3917
2800.997	4002
2802.874	3851
2804.751	3904
2806.628	3891
2808.506	3843
2810.38	3926
2812.255	3892
2814.13	3835
2816.003	3882
2817.878	3837
2819.752	3945
2821.623	3890
2823.496	3927
2825.368	3905
2827.238	3833
2829.111	3867
2830.98	3969
2832.851	3927
2834.719	3951
2836.589	3888
2838.458	3896
2840.327	3838
2842.193	3893
2844.061	3933
2845.927	3884
2847.794	3920
2849.66	3964
2851.525	3956
2853.39	3865
2855.254	3998
2857.117	3864
2858.983	4003
2860.845	3942
2862.707	3924
2864.569	3921
2866.431	4057
2868.293	3981
2870.154	4032
2872.013	4070
2873.873	4074
2875.733	4159
2877.592	4217
2879.451	4211
2881.309	4261
2883.166	4262
2885.022	4320
2886.879	4283
2888.736	4160
2890.591	4241
2892.446	4319
2894.301	4352
2896.155	4189
2898.009	4294
2899.863	4254
2901.716	4211
2903.568	4217
2905.419	4241
2907.27	4144
2909.123	4168
2910.973	4206
2912.824	4311
2914.673	4251
2916.521	4297
2918.372	4371
2920.22	4432
2922.067	4392
2923.914	4502
2925.761	4502
2927.607	4512
2929.455	4605
2931.301	4473
2933.144	4616
2934.99	4655
2936.833	4622
2938.678	4683
2940.522	4682
2942.364	4661
2944.207	4862
2946.048	4817
2947.891	4821
2949.731	4824
2951.571	4813
2953.412	4806
2955.25	4778
2957.09	4694
2958.93	4666
2960.767	4697
2962.606	4662
2964.443	4539
2966.279	4657
2968.116	4407
2969.953	4452
2971.788	4460
2973.623	4359
2975.457	4339
2977.292	4374
2979.127	4376
2980.959	4357
2982.792	4321
2984.624	4405
2986.455	4271
2988.288	4277
2990.119	4118
2991.949	4161
2993.779	4195
2995.608	4199
2997.439	4122
2999.268	4106
3001.096	4155
3002.923	4130
3004.751	4053
3006.578	3956
3008.406	3951
3010.232	3959
3012.057	3936
3013.883	3896
3015.706	3951
3017.532	3906
3019.356	3899
3021.179	3863
3023.002	3846
3024.823	3805
3026.646	3738
3028.469	3768
3030.289	3774
3032.11	3759
3033.93	3773
3035.749	3770
3037.57	3711
3039.39	3774
3041.207	3704
3043.026	3813
3044.842	3770
3046.661	3711
3048.477	3729
3050.294	3720
3052.109	3784
3053.925	3731
3055.739	3665
3057.555	3806
3059.368	3675
3061.181	3663
3062.995	3648
3064.807	3741
3066.62	3690
3068.433	3667
3070.243	3772
3072.054	3665
3073.865	3706
3075.675	3728
3077.485	3759
3079.293	3683
3081.102	3702
3082.911	3613
3084.719	3689
3086.527	3632
3088.333	3608
3090.139	3711
3091.945	3557
3093.75	3632
3095.557	3627
3097.361	3613
3099.165	3646
3100.969	3626
3102.772	3590
3104.575	3601
3106.379	3543
3108.181	3561
3109.982	3638
3111.783	3597
3113.584	3612
3115.386	3600
3117.186	3530
3118.985	3594
3120.783	3534
3122.582	3490
3124.381	3639
3126.179	3598
3127.975	3579
3129.772	3519
3131.569	3562
3133.365	3422
3135.161	3613
3136.956	3552
3138.751	3564
3140.544	3482
3142.338	3596
3144.132	3529
3145.925	3498
3147.717	3522
3149.509	3544
3151.301	3542
3153.091	3496
3154.884	3626
3156.673	3533
3158.462	3531
3160.252	3628
3162.041	3493
3163.831	3574
3165.618	3508
3167.405	3491
3169.193	3489
3170.979	3545
3172.767	3558
3174.553	3554
3176.338	3504
3178.123	3578
3179.907	3501
3181.692	3480
3183.477	3553
3185.259	3584
3187.042	3489
3188.824	3450
3190.607	3579
3192.389	3597
3194.17	3479
3195.951	3549
3197.73	3481
3199.51	3596
3201.289	3416
3203.07	3508
3204.848	3494
3206.626	3463
3208.403	3465
3210.18	3555
3211.959	3432
3213.735	3461
3215.511	3441
3217.285	3438
3219.06	3497
3220.836	3570
3222.611	3506
3224.384	3465
3226.158	3590
3227.929	3467
3229.702	3470
3231.476	3481
3233.248	3466
3235.018	3462
3236.789	3517
3238.56	3562
3240.33	3445
3242.1	3486
3243.869	3479
3245.637	3544
3247.405	3459
3249.172	3490
3250.941	3497
3252.707	3413
3254.474	3509
3256.24	3512
3258.006	3490
3259.772	3513
3261.537	3535
3263.301	3487
3265.065	3423
3266.828	3447
3268.592	3561
3270.355	3394
3272.117	3509
3273.878	3535
3275.64	3429
3277.401	3508
3279.162	3475
3280.922	3392
3282.682	3469
3284.441	3532
3286.199	3453
3287.959	3501
3289.716	3479
3291.475	3489
3293.232	3409
3294.988	3471
3296.744	3483
3298.501	3462
3300.256	3525
3302.011	3434
3303.766	3416
3305.52	3464
3307.275	3505
3309.028	3441
3310.781	3416
3312.533	3502
3314.285	3543
3316.038	3448
3317.789	3404
3319.54	3536
3321.289	3516
3323.039	3517
3324.789	3448
3326.539	3454
3328.288	3499
3330.035	3501
3331.783	3477
3333.531	3443
3335.28	3572
3337.025	3435
3338.771	3409
3340.518	3408
3342.262	3372
3344.009	3501
3345.753	3460
3347.497	3493
3349.24	3513
3350.983	3483
3352.726	3364
3354.469	3438
3356.212	3466
3357.952	3382
3359.694	3364
3361.434	3423
3363.176	3424
3364.916	3369
3366.654	3425
3368.394	3382
3370.132	3393
3371.871	3400
3373.61	3421
3375.346	3372
3377.083	3341
3378.82	3334
3380.556	3386
3382.292	3443
3384.027	3354
3385.763	3369
3387.497	3350
3389.231	3387
3390.965	3386
3392.698	3289
3394.431	3384
3396.164	3333
3397.896	3449
3399.627	3374
3401.36	3429
3403.09	3422
3404.82	3339
3406.55	3367
3408.279	3287
3410.01	3313
3411.738	3268
3413.467	3314
3415.194	3309
3416.92	3310
3418.647	3340
3420.375	3301
3422.102	3320
3423.827	3300
3425.553	3289
3427.277	3329
3429.003	3278
3430.727	3266
3432.451	3299
3434.173	3381
3435.896	3287
3437.62	3268
3439.343	3364
3441.063	3290
3442.785	3292
3444.505	3242
3446.226	3226
3447.948	3268
3449.666	3241
3451.386	3269
3453.104	3242
3454.823	3248
3456.541	3251
3458.259	3174
3459.976	3199
3461.693	3183
3463.408	3123
3465.125	3236
3466.841	3155
3468.556	3209
3470.271	3179
3471.985	3185
3473.698	3142
3475.414	3200
3477.126	3152
3478.838	3206
3480.55	3126
3482.263	3200
3483.975	3123
3485.686	3131
3487.396	3079
3489.106	3148
3490.817	3195
3492.526	3100
3494.236	3109
3495.944	3141
3497.652	3137
3499.359	3200
3501.066	3108
3502.775	3136
3504.481	3156
3506.187	3166
3507.893	3065
3509.598	3097
3511.304	3077
3513.009	3110
3514.713	3074
3516.417	3107
3518.12	3015
3519.821	3156
3521.525	3027
3523.228	3118
3524.929	3051
3526.631	3065
3528.33	3025
3530.032	3075
3531.733	3039
3533.433	3072
3535.131	3021
3536.83	3026
3538.529	3112
3540.227	3010
3541.925	3065
3543.623	3058
3545.319	3060
3547.016	3030
3548.712	3027
3550.408	2993
3552.103	3031
3553.798	3000
3555.491	3010
3557.188	2997
3558.88	2968
3560.574	2987
3562.266	3071
3563.959	3027
3565.651	3080
3567.343	2915
3569.035	2977
3570.725	2985
3572.415	2951
3574.106	3001
3575.797	2965
3577.485	2994
3579.174	2951
3580.863	3034
3582.551	2948
3584.238	3028
3585.926	3019
3587.613	2961
3589.3	2907
3590.986	2931
3592.671	2974
3594.357	2952
3596.042	3017
3597.726	2935
3599.41	2998
3601.094	2872
3602.778	2929
3604.461	2926
3606.143	2987
3607.825	2892
3609.507	2907
3611.188	2872
3612.87	2881
3614.551	2843
3616.229	2919
3617.909	2911
3619.589	2873
3621.269	2891
3622.948	2880
3624.625	2929
3626.302	2817
3627.98	2846
3629.657	2910
3631.334	2870
3633.01	2833
3634.686	2825
3636.361	2884
3638.036	2806
3639.712	2820
3641.385	2820
3643.06	2782
3644.732	2822
3646.405	2847
3648.08	2761
3649.751	2845
3651.424	2893
3653.094	2851
3654.766	2787
3656.436	2834
3658.106	2797
3659.777	2778
3661.446	2806
3663.115	2825
3664.783	2817
3666.452	2799
3668.121	2771
3669.788	2754
3671.454	2739
3673.121	2736
3674.789	2777
3676.455	2790
3678.12	2802
3679.784	2796
3681.45	2779
3683.114	2711
3684.779	2780
3686.442	2741
3688.105	2676
3689.768	2743
3691.43	2763
3693.093	2760
3694.754	2700
3696.415	2650
3698.076	2774
3699.736	2757
3701.396	2807
3703.057	2747
3704.716	2658
3706.375	2740
3708.034	2775
3709.692	2701
3711.351	2714
3713.008	2741
3714.665	2740
3716.321	2626
3717.977	2694
3719.634	2704
3721.29	2703
3722.945	2679
3724.598	2725
3726.253	2724
3727.907	2650
3729.561	2667
3731.214	2761
3732.867	2609
3734.518	2659
3736.171	2694
3737.824	2683
3739.474	2722
3741.125	2732
3742.775	2675
3744.425	2719
3746.074	2661
3747.725	2715
3749.373	2658
3751.022	2724
3752.669	2664
3754.318	2673
3755.966	2696
3757.612	2672
3759.259	2636
3760.905	2629
3762.55	2683
3764.197	2661
3765.842	2650
3767.486	2682
3769.131	2611
3770.774	2657
3772.417	2615
3774.061	2630
3775.705	2689
3777.347	2614
3778.988	2690
3780.629	2611
3782.271	2656
3783.912	2609
3785.552	2665
3787.192	2603
3788.831	2591
3790.472	2632
3792.112	2629
3793.75	2601
3795.388	2580
3797.024	2589
3798.661	2610
3800.3	2593
3801.936	2555
3803.572	2571
3805.208	2498
3806.844	2575
3808.48	2575
3810.115	2560
3811.748	2626
3813.382	2497
3815.016	2530
3816.649	2558
3818.283	2550
3819.914	2560
3821.547	2515
3823.178	2573
3824.809	2508
3826.441	2533
3828.072	2565
3829.701	2464
3831.331	2532
3832.96	2561
3834.591	2548
3836.219	2579
3837.847	2530
3839.475	2494
3841.102	2508
3842.729	2513
3844.357	2588
3845.984	2554
3847.609	2572
3849.234	2602
3850.86	2469
3852.485	2481
3854.11	2482
3855.734	2539
3857.357	2566
3858.981	2513
3860.603	2556
3862.227	2549
3863.848	2455
3865.471	2466
3867.092	2512
3868.713	2499
3870.334	2477
3871.954	2416
3873.575	2550
3875.194	2550
3876.813	2452
3878.433	2514
3880.051	2433
3881.669	2533
3883.286	2460
3884.904	2447
3886.52	2500
3888.138	2479
3889.754	2431
3891.37	2501
3892.985	2460
3894.6	2477
3896.216	2519
3897.831	2489
3899.444	2463
3901.058	2473
3902.67	2492
3904.283	2463
3905.897	2477
3907.509	2483
3909.121	2478
3910.731	2470
3912.342	2516
3913.954	2485
3915.563	2545
3917.174	2475
3918.783	2439
3920.391	2392
3922.002	2396
3923.611	2470
3925.218	2449
3926.826	2471
3928.432	2401
3930.039	2538
3931.647	2450
3933.253	2433
3934.859	2410
3936.464	2433
3938.068	2425
3939.675	2434
3941.278	2437
3942.883	2451
3944.486	2393
3946.089	2397
3947.692	2465
3949.295	2461
3950.898	2406
3952.499	2445
3954.1	2441
3955.7	2432
3957.303	2410
3958.903	2451
3960.502	2467
3962.101	2455
3963.7	2324
3965.301	2415
3966.899	2385
3968.497	2370
3970.094	2409
3971.691	2346
3973.288	2390
3974.885	2344
3976.481	2339
3978.077	2430
3979.672	2342
3981.267	2355
3982.863	2360
3984.457	2355
3986.051	2361
3987.645	2316
3989.238	2351
3990.831	2343
3992.425	2391
3994.017	2372
3995.607	2355
3997.199	2339
3998.79	2344
4000.382	2275
4001.973	2359
4003.561	2336
4005.151	2335
4006.741	2312
4008.331	2339
4009.918	2368
4011.507	2369
4013.095	2336
4014.681	2310
4016.269	2314
4017.856	2301
4019.443	2314
4021.028	2276
4022.614	2292
4024.199	2295
4025.785	2305
4027.37	2293
4028.953	2324
4030.536	2298
4032.12	2189
4033.704	2318
4035.287	2279
4036.869	2332
4038.45	2273
4040.032	2319
4041.613	2232
4043.195	2309
4044.776	2309
4046.356	2328
4047.935	2286
4049.515	2255
4051.095	2255
4052.674	2249
4054.251	2310
4055.829	2318
4057.406	2253
4058.985	2287
4060.562	2262
4062.139	2198
4063.715	2247
4065.29	2190
4066.865	2227
4068.442	2227
4070.016	2199
4071.59	2237
4073.164	2227
4074.738	2263
4076.312	2226
4077.885	2251
4079.458	2259
4081.03	2281
4082.602	2189
4084.173	2228
4085.745	2191
4087.315	2247
4088.886	2253
4090.456	2214
4092.026	2198
4093.596	2198
4095.165	2235
4096.734	2239
4098.301	2171
4099.869	2202
4101.437	2197
4103.006	2240
4104.572	2199
4106.139	2162
4107.704	2177
4109.27	2202
4110.837	2233
4112.401	2130
4113.966	2204
4115.53	2199
4117.094	2132
4118.659	2177
4120.223	2157
4121.785	2181
4123.347	2156
4124.909	2163
4126.471	2149
4128.034	2159
4129.595	2202
4131.155	2151
4132.716	2142
4134.275	2143
4135.836	2173
4137.395	2133
4138.955	2181
4140.513	2124
4142.071	2139
4143.628	2151
4145.188	2127
4146.745	2146
4148.302	2142
4149.858	2109
4151.414	2116
4152.971	2103
4154.526	2181
4156.081	2102
4157.635	2148
4159.189	2062
4160.745	2116
4162.298	2100
4163.852	2109
4165.405	2109
4166.957	2098
4168.51	2135
4170.063	2094
4171.614	2098
4173.166	2071
4174.717	2087
4176.267	2120
4177.817	2134
4179.368	2132
4180.917	2085
4182.466	2045
4184.016	2148
4185.564	2038
4187.112	2126
4188.66	2069
4190.207	2039
4191.754	2085
4193.301	2091
4194.848	2084
4196.394	2032
4197.94	2078
4199.484	2075
4201.03	2159
4202.575	2035
4204.12	2035
4205.663	2081
4207.207	2049
4208.75	2003
4210.292	2062
4211.836	2080
4213.378	2035
4214.92	2000
4216.46	2023
4218.002	2004
4219.544	2009
4221.083	2023
4222.625	2093
4224.164	2063
4225.703	2061
4227.244	2017
4228.782	1972
4230.32	1999
4231.857	2085
4233.395	2011
4234.933	1971
4236.471	2041
4238.007	2006
4239.542	2033
4241.078	2058
4242.614	2018
4244.15	2067
4245.685	2084
4247.219	2067
4248.753	1986
4250.287	2005
4251.82	2040
4253.354	2036
4254.887	2074
4256.419	1991
4257.951	1988
4259.483	1989
4261.016	1977
4262.547	1976
4264.078	2054
4265.608	1984
4267.137	2040
4268.668	2050
4270.197	2011
4271.727	1926
4273.254	1935
4274.783	1993
4276.311	2009
4277.84	1964
4279.366	1970
4280.894	1972
4282.42	1986
4283.946	1965
4285.473	2019
4286.998	1978
4288.523	1891
4290.047	1954
4291.572	1975
4293.096	2006
4294.622	1948
4296.144	1924
4297.668	1971
4299.19	1955
4300.713	1963
4302.236	1982
4303.758	1912
4305.279	1984
4306.799	1929
4308.321	1951
4309.842	2001
4311.361	1942
4312.882	1940
4314.401	1938
