400.0961	2488
402.6185	2526
405.1424	2532
407.6635	2606
410.1838	2500
412.7035	2580
415.2225	2546
417.7388	2568
420.2585	2589
422.7754	2677
425.2917	2661
427.8072	2652
430.3221	2742
432.8363	2681
435.3498	2723
437.8626	2736
440.3727	2689
442.8841	2673
445.3969	2728
447.907	2712
450.4142	2698
452.9229	2729
455.4289	2642
457.9362	2662
460.4449	2616
462.9488	2619
465.454	2645
467.9566	2647
470.4604	2612
472.9637	2586
475.4662	2570
477.966	2633
480.4671	2626
482.9656	2622
485.4633	2682
487.9645	2576
490.4608	2663
492.9566	2570
495.4536	2666
497.948	2703
500.4437	2717
502.9387	2647
505.431	2675
507.9226	2638
510.4136	2595
512.9079	2634
515.3975	2700
517.8864	2626
520.3746	2686
522.8622	2656
525.3491	2703
527.8394	2690
530.3249	2711
532.8098	2716
535.2939	2700
537.7774	2681
540.2623	2737
542.7444	2728
545.2259	2736
547.7067	2689
550.1868	2712
552.6683	2751
555.147	2743
557.6231	2716
560.1005	2722
562.5773	2797
565.0534	2694
567.5308	2757
570.0056	2792
572.4776	2792
574.951	2834
577.4237	2821
579.8978	2877
582.3671	2871
584.8378	2928
587.3079	2837
589.7773	2806
592.244	2856
594.714	2871
597.1793	2876
599.6461	2868
602.1121	2810
604.5754	2843
607.0421	2815
609.5042	2826
611.9675	2811
614.4282	2830
616.8902	2875
619.3515	2856
621.8122	2812
624.2702	2766
626.7296	2822
629.1863	2803
631.6423	2743
634.1017	2830
636.5563	2767
639.0104	2706
641.4658	2782
643.9185	2762
646.3725	2760
648.8239	2735
651.2766	2740
653.7266	2778
656.176	2802
658.6247	2816
661.0748	2709
663.5242	2790
665.9709	2727
668.417	2824
670.8624	2828
673.3092	2758
675.7533	2776
678.1968	2888
680.6395	2827
683.0817	2873
685.5251	2824
687.9659	2813
690.4061	2919
692.8456	2856
695.2844	2836
697.7226	2835
700.1621	2935
702.599	2907
705.0332	2963
707.4688	2836
709.9036	2844
712.3399	2916
714.7735	2897
717.2044	2891
719.6367	2920
722.0683	2869
724.4993	2910
726.9296	2883
729.3593	2872
731.7883	2999
734.2147	2902
736.6423	2946
739.0714	2999
741.4958	2956
743.9216	2942
746.3447	2908
748.7691	2982
751.1929	2974
753.616	3069
756.0366	3002
758.4584	3041
760.8776	3032
763.2982	3048
765.718	2968
768.1373	2995
770.5539	2994
772.9698	3027
775.3871	3036
777.8038	3054
780.2178	3004
782.6332	2997
785.0459	3013
787.458	3129
789.8714	3022
792.2842	2999
794.6943	3010
797.1038	2995
799.5127	3042
801.9209	3052
804.3324	3022
806.7393	3065
809.1456	2996
811.5513	3077
813.9562	3111
816.3625	3033
818.7663	3105
821.1693	3083
823.5718	3130
825.9735	3054
828.3746	3134
830.7771	3048
833.177	3063
835.5762	3077
837.9747	3075
840.3727	3079
842.772	3076
845.1666	3178
847.5626	3138
849.958	3090
852.3527	3207
854.7488	3177
857.1403	3224
859.5331	3295
861.9253	3217
864.3168	3219
866.7057	3204
869.098	3133
871.4876	3227
873.8746	3092
876.263	3185
878.6487	3137
881.0378	3178
883.4243	3214
885.8081	3214
888.1933	3159
890.5759	3163
892.9598	3137
895.343	3012
897.7256	3147
900.1057	3230
902.4871	3169
904.8659	3135
907.246	3147
909.6254	3315
912.0023	3237
914.3786	3323
916.7562	3299
919.1331	3370
921.5074	3366
923.8831	3430
926.2562	3510
928.6287	3486
931.0005	3396
933.3757	3442
935.7462	3398
938.1162	3478
940.4855	3447
942.8542	3553
945.2242	3684
947.5916	3656
949.9584	3833
952.3266	3891
954.6921	4147
957.0571	4391
959.4233	4490
961.787	4677
964.15	4539
966.5125	4359
968.8742	4146
971.2354	3946
973.5959	3712
975.9559	3618
978.3151	3536
980.6738	3449
983.0338	3345
985.3912	3330
987.7461	3305
990.1022	3354
992.4578	3362
994.8127	3237
997.1689	3360
999.5207	3351
1001.874	3396
1004.226	3395
1006.576	3272
1008.929	3398
1011.28	3348
1013.628	3256
1015.977	3313
1018.324	3409
1020.674	3332
1023.019	3279
1025.366	3302
1027.713	3313
1030.056	3334
1032.399	3361
1034.746	3368
1037.087	3407
1039.431	3363
1041.771	3406
1044.113	3395
1046.454	3421
1048.793	3378
1051.133	3394
1053.471	3347
1055.807	3373
1058.146	3403
1060.483	3489
1062.818	3445
1065.153	3428
1067.489	3446
1069.822	3516
1072.156	3448
1074.488	3506
1076.82	3554
1079.15	3502
1081.48	3477
1083.814	3430
1086.143	3478
1088.471	3417
1090.799	3352
1093.126	3324
1095.452	3399
1097.78	3382
1100.105	3279
1102.43	3385
1104.754	3378
1107.077	3377
1109.4	3398
1111.722	3327
1114.044	3409
1116.365	3396
1118.685	3350
1121.005	3323
1123.324	3379
1125.643	3416
1127.961	3414
1130.278	3394
1132.595	3339
1134.911	3393
1137.226	3310
1139.541	3396
1141.854	3355
1144.167	3394
1146.482	3378
1148.793	3312
1151.105	3305
1153.414	3325
1155.725	3332
1158.033	3408
1160.344	3353
1162.651	3377
1164.959	3389
1167.265	3363
1169.572	3357
1171.878	3393
1174.184	3357
1176.488	3380
1178.79	3471
1181.094	3408
1183.396	3346
1185.699	3469
1188.001	3385
1190.301	3434
1192.6	3307
1194.9	3346
1197.2	3348
1199.497	3368
1201.794	3320
1204.09	3419
1206.387	3401
1208.684	3304
1210.978	3415
1213.272	3427
1215.565	3353
1217.858	3344
1220.15	3359
1222.443	3417
1224.734	3508
1227.024	3374
1229.313	3457
1231.602	3500
1233.892	3510
1236.18	3461
1238.467	3537
1240.754	3514
1243.04	3551
1245.325	3519
1247.612	3577
1249.896	3584
1252.178	3637
1254.461	3549
1256.743	3601
1259.027	3542
1261.308	3591
1263.587	3575
1265.867	3537
1268.146	3595
1270.425	3573
1272.703	3626
1274.981	3574
1277.256	3645
1279.532	3583
1281.808	3593
1284.083	3619
1286.358	3543
1288.63	3502
1290.904	3538
1293.175	3462
1295.449	3515
1297.719	3531
1299.99	3480
1302.259	3483
1304.529	3419
1306.798	3518
1309.065	3554
1311.333	3570
1313.599	3573
1315.866	3424
1318.131	3495
1320.396	3529
1322.66	3423
1324.925	3526
1327.187	3594
1329.448	3550
1331.711	3683
1333.974	3552
1336.234	3601
1338.493	3530
1340.752	3490
1343.01	3523
1345.269	3527
1347.526	3556
1349.784	3481
1352.04	3550
1354.295	3535
1356.552	3478
1358.806	3464
1361.059	3451
1363.312	3521
1365.564	3464
1367.818	3477
1370.069	3473
1372.318	3537
1374.568	3557
1376.817	3623
1379.066	3567
1381.316	3576
1383.564	3590
1385.809	3530
1388.056	3555
1390.301	3540
1392.549	3617
1394.793	3735
1397.036	3729
1399.279	3769
1401.522	3718
1403.763	3800
1406.007	3748
1408.248	3722
1410.487	3777
1412.727	3728
1414.965	3704
1417.205	3718
1419.442	3708
1421.68	3637
1423.915	3733
1426.152	3722
1428.388	3715
1430.623	3672
1432.857	3747
1435.091	3707
1437.323	3695
1439.556	3679
1441.789	3787
1444.019	3821
1446.25	3705
1448.48	3776
1450.708	3757
1452.938	3855
1455.167	3815
1457.394	3749
1459.62	3735
1461.846	3869
1464.073	3812
1466.299	3671
1468.523	3707
1470.746	3701
1472.969	3629
1475.191	3549
1477.415	3631
1479.636	3631
1481.858	3520
1484.078	3521
1486.298	3548
1488.518	3511
1490.736	3453
1492.954	3471
1495.169	3530
1497.386	3468
1499.602	3461
1501.819	3460
1504.034	3499
1506.248	3546
1508.462	3522
1510.675	3493
1512.888	3475
1515.1	3496
1517.311	3462
1519.522	3474
1521.732	3423
1523.942	3482
1526.151	3464
1528.36	3472
1530.566	3536
1532.773	3475
1534.98	3508
1537.187	3475
1539.392	3546
1541.596	3532
1543.801	3494
1546.005	3582
1548.208	3435
1550.411	3554
1552.612	3530
1554.814	3536
1557.013	3549
1559.212	3618
1561.414	3534
1563.612	3546
1565.811	3621
1568.007	3621
1570.203	3591
1572.403	3571
1574.598	3563
1576.792	3532
1578.988	3616
1581.181	3540
1583.376	3650
1585.568	3626
1587.761	3612
1589.952	3709
1592.143	3597
1594.333	3488
1596.524	3657
1598.715	3519
1600.903	3598
1603.091	3607
1605.278	3567
1607.466	3678
1609.652	3693
1611.838	3642
1614.023	3591
1616.207	3540
1618.391	3624
1620.576	3580
1622.759	3706
1624.941	3625
1627.123	3641
1629.304	3709
1631.484	3732
1633.664	3693
1635.844	3826
1638.022	3677
1640.201	3758
1642.38	3698
1644.556	3710
1646.732	3805
1648.908	3679
1651.084	3758
1653.257	3780
1655.433	3762
1657.607	3682
1659.779	3783
1661.951	3821
1664.122	3761
1666.295	3874
1668.467	3778
1670.635	3764
1672.805	3804
1674.973	3776
1677.142	3783
1679.31	3814
1681.478	3719
1683.644	3767
1685.81	3844
1687.975	3818
1690.142	3771
1692.305	3702
1694.468	3719
1696.632	3761
1698.794	3705
1700.957	3690
1703.119	3624
1705.279	3645
1707.439	3674
1709.598	3635
1711.758	3660
1713.917	3587
1716.075	3524
1718.231	3661
1720.388	3635
1722.543	3635
1724.702	3620
1726.856	3610
1729.01	3607
1731.164	3639
1733.317	3618
1735.471	3622
1737.623	3632
1739.774	3641
1741.925	3676
1744.075	3657
1746.225	3709
1748.376	3720
1750.524	3640
1752.672	3656
1754.82	3530
1756.965	3635
1759.113	3618
1761.259	3592
1763.405	3616
1765.549	3702
1767.694	3666
1769.836	3621
1771.981	3672
1774.123	3718
1776.264	3635
1778.405	3696
1780.546	3698
1782.687	3700
1784.827	3643
1786.966	3660
1789.103	3697
1791.242	3709
1793.381	3670
1795.517	3715
1797.653	3662
1799.788	3663
1801.923	3646
1804.057	3672
1806.193	3619
1808.326	3693
1810.457	3639
1812.59	3673
1814.721	3639
1816.855	3704
1818.984	3642
1821.113	3573
1823.244	3663
1825.372	3719
1827.499	3704
1829.63	3666
1831.756	3617
1833.882	3654
1836.007	3719
1838.132	3667
1840.26	3655
1842.384	3677
1844.507	3644
1846.63	3680
1848.752	3604
1850.875	3620
1852.996	3655
1855.118	3706
1857.238	3646
1859.358	3603
1861.477	3577
1863.597	3691
1865.715	3638
1867.832	3558
1869.948	3630
1872.064	3631
1874.181	3669
1876.297	3616
1878.411	3633
1880.526	3679
1882.639	3607
1884.752	3571
1886.865	3632
1888.977	3658
1891.089	3687
1893.2	3616
1895.308	3669
1897.42	3729
1899.53	3709
1901.639	3770
1903.745	3642
1905.853	3797
1907.962	3769
1910.067	3691
1912.174	3673
1914.278	3679
1916.383	3748
1918.486	3712
1920.592	3703
1922.694	3705
1924.797	3672
1926.898	3662
1929	3699
1931.102	3664
1933.203	3771
1935.301	3747
1937.401	3694
1939.499	3737
1941.598	3701
1943.697	3818
1945.793	3737
1947.888	3747
1949.985	3688
1952.08	3734
1954.176	3664
1956.269	3719
1958.364	3648
1960.457	3714
1962.549	3752
1964.642	3714
1966.733	3720
1968.823	3672
1970.913	3717
1973.005	3685
1975.093	3698
1977.184	3712
1979.271	3782
1981.359	3691
1983.446	3697
1985.532	3646
1987.619	3720
1989.705	3699
1991.789	3693
1993.874	3694
1995.956	3720
1998.041	3750
2000.123	3642
2002.206	3788
2004.287	3635
2006.368	3678
2008.449	3730
2010.529	3661
2012.609	3717
2014.688	3673
2016.766	3695
2018.843	3648
2020.922	3672
2022.999	3768
2025.074	3740
2027.15	3650
2029.225	3814
2031.299	3685
2033.375	3701
2035.447	3724
2037.52	3736
2039.592	3706
2041.664	3719
2043.736	3671
2045.807	3620
2047.876	3707
2049.947	3693
2052.015	3719
2054.086	3701
2056.153	3709
2058.221	3705
2060.288	3665
2062.353	3751
2064.42	3737
2066.486	3717
2068.55	3632
2070.614	3630
2072.678	3691
2074.741	3716
2076.805	3757
2078.866	3720
2080.929	3682
2082.99	3700
2085.049	3705
2087.109	3674
2089.17	3745
2091.228	3659
2093.286	3707
2095.344	3702
2097.4	3810
2099.46	3708
2101.516	3677
2103.572	3677
2105.626	3647
2107.679	3709
2109.735	3692
2111.788	3678
2113.841	3703
2115.894	3740
2117.945	3685
2119.997	3764
2122.049	3709
2124.1	3707
2126.148	3730
2128.197	3646
2130.246	3707
2132.296	3700
2134.342	3695
2136.39	3660
2138.437	3730
2140.483	3626
2142.527	3762
2144.574	3742
2146.619	3723
2148.661	3667
2150.705	3618
2152.747	3706
2154.792	3728
2156.832	3712
2158.874	3745
2160.915	3644
2162.954	3846
2164.995	3746
2167.034	3653
2169.072	3626
2171.111	3635
2173.148	3712
2175.186	3731
2177.223	3714
2179.258	3709
2181.294	3720
2183.328	3631
2185.362	3727
2187.398	3646
2189.431	3627
2191.463	3691
2193.495	3719
2195.528	3648
2197.56	3664
2199.59	3678
2201.62	3624
2203.649	3613
2205.678	3626
2207.708	3617
2209.737	3700
2211.764	3679
2213.791	3623
2215.817	3642
2217.843	3626
2219.87	3653
2221.895	3611
2223.919	3660
2225.942	3628
2227.966	3647
2229.988	3646
2232.012	3618
2234.032	3727
2236.054	3723
2238.074	3663
2240.095	3616
2242.116	3712
2244.135	3616
2246.153	3680
2248.171	3611
2250.188	3681
2252.208	3588
2254.223	3638
2256.239	3646
2258.255	3542
2260.269	3677
2262.283	3678
2264.3	3587
2266.312	3607
2268.325	3548
2270.336	3660
2272.349	3582
2274.362	3660
2276.372	3608
2278.383	3683
2280.392	3658
2282.402	3596
2284.409	3680
2286.418	3602
2288.427	3587
2290.433	3608
2292.441	3705
2294.446	3698
2296.453	3656
2298.459	3716
2300.463	3632
2302.466	3598
2304.471	3615
2306.475	3637
2308.477	3655
2310.478	3658
2312.481	3620
2314.481	3657
2316.481	3662
2318.482	3609
2320.482	3617
2322.48	3550
2324.48	3650
2326.478	3663
2328.476	3675
2330.473	3686
2332.469	3621
2334.465	3678
2336.46	3655
2338.454	3591
2340.45	3569
2342.444	3592
2344.437	3622
2346.43	3654
2348.421	3645
2350.414	3562
2352.405	3561
2354.396	3559
2356.386	3601
2358.376	3505
2360.366	3581
2362.355	3543
2364.343	3553
2366.331	3561
2368.317	3599
2370.304	3596
2372.292	3567
2374.278	3544
2376.262	3465
2378.247	3595
2380.23	3547
2382.216	3536
2384.199	3642
2386.181	3514
2388.163	3593
2390.144	3550
2392.127	3537
2394.107	3610
2396.087	3588
2398.066	3619
2400.046	3585
2402.023	3583
2404.004	3538
2405.981	3619
2407.957	3537
2409.934	3540
2411.91	3538
2413.886	3584
2415.862	3572
2417.836	3527
2419.809	3528
2421.784	3585
2423.756	3530
2425.73	3578
2427.701	3516
2429.672	3547
2431.644	3508
2433.615	3590
2435.586	3496
2437.555	3593
2439.523	3611
2441.491	3530
2443.459	3550
2445.428	3557
2447.395	3501
2449.361	3693
2451.327	3578
2453.292	3551
2455.257	3590
2457.223	3503
2459.187	3631
2461.15	3534
2463.113	3589
2465.076	3506
2467.039	3555
2468.999	3516
2470.96	3500
2472.921	3567
2474.881	3522
2476.841	3503
2478.8	3547
2480.759	3467
2482.717	3483
2484.675	3536
2486.63	3559
2488.589	3440
2490.545	3530
2492.5	3518
2494.455	3504
2496.408	3558
2498.364	3522
2500.318	3503
2502.27	3534
2504.223	3518
2506.174	3531
2508.126	3541
2510.078	3512
2512.03	3563
2513.979	3463
2515.927	3486
2517.877	3561
2519.826	3589
2521.775	3484
2523.722	3565
2525.668	3527
2527.616	3495
2529.561	3485
2531.508	3546
2533.452	3525
2535.398	3523
2537.342	3485
2539.284	3517
2541.229	3469
2543.173	3479
2545.114	3441
2547.055	3525
2548.996	3463
2550.938	3622
2552.878	3454
2554.817	3469
2556.756	3411
2558.695	3472
2560.633	3493
2562.572	3504
2564.509	3508
2566.445	3548
2568.382	3537
2570.317	3486
2572.254	3457
2574.189	3583
2576.123	3438
2578.057	3425
2579.99	3414
2581.923	3575
2583.855	3471
2585.788	3574
2587.719	3483
2589.65	3566
2591.579	3463
2593.511	3532
2595.44	3584
2597.37	3513
2599.297	3583
2601.225	3525
2603.153	3506
2605.08	3540
2607.007	3488
2608.932	3567
2610.858	3518
2612.782	3498
2614.709	3529
2616.632	3563
2618.556	3577
2620.478	3507
2622.401	3520
2624.324	3565
2626.247	3552
2628.167	3564
2630.088	3525
2632.008	3590
2633.928	3494
2635.848	3545
2637.766	3562
2639.684	3573
2641.603	3539
2643.519	3587
2645.437	3511
2647.353	3526
2649.27	3476
2651.184	3521
2653.099	3618
2655.014	3562
2656.928	3541
2658.842	3612
2660.755	3538
2662.667	3604
2664.579	3539
2666.491	3507
2668.402	3489
2670.312	3440
2672.222	3492
2674.132	3531
2676.042	3602
2677.951	3485
2679.859	3511
2681.766	3527
2683.674	3438
2685.582	3591
2687.488	3457
2689.392	3471
2691.298	3516
2693.202	3496
2695.107	3473
2697.012	3544
2698.914	3489
2700.817	3491
2702.72	3484
2704.622	3459
2706.524	3521
2708.425	3542
2710.326	3532
2712.225	3528
2714.125	3470
2716.024	3548
2717.923	3463
2719.822	3491
2721.719	3383
2723.616	3418
2725.512	3476
2727.41	3518
2729.305	3481
2731.201	3511
2733.095	3536
2734.99	3462
2736.884	3495
2738.778	3556
2740.67	3474
2742.562	3448
2744.455	3502
2746.346	3515
2748.238	3470
2750.129	3522
2752.018	3486
2753.907	3465
2755.797	3492
2757.687	3507
2759.575	3480
2761.462	3555
2763.349	3524
2765.237	3529
2767.124	3504
2769.009	3476
2770.894	3465
2772.779	3478
2774.663	3486
2776.547	3469
2778.431	3465
2780.314	3492
2782.197	3586
2784.078	3553
2785.96	3464
2787.842	3481
2789.723	3467
2791.603	3505
2793.483	3517
2795.362	3503
2797.241	3544
2799.121	3512
2800.997	3499
2802.874	3413
2804.751	3486
2806.628	3542
2808.506	3491
2810.38	3588
2812.255	3458
2814.13	3411
2816.003	3525
2817.878	3462
2819.752	3465
2821.623	3495
2823.496	3440
2825.368	3431
2827.238	3490
2829.111	3572
2830.98	3444
2832.851	3480
2834.719	3547
2836.589	3453
2838.458	3553
2840.327	3496
2842.193	3471
2844.061	3501
2845.927	3546
2847.794	3538
2849.66	3495
2851.525	3576
2853.39	3624
2855.254	3594
2857.117	3686
2858.983	3568
2860.845	3601
2862.707	3691
2864.569	3653
2866.431	3688
2868.293	3707
2870.154	3738
2872.013	3716
2873.873	3723
2875.733	3831
2877.592	3862
2879.451	3901
2881.309	3942
2883.166	3964
2885.022	4072
2886.879	4037
2888.736	4050
2890.591	4034
2892.446	4048
2894.301	4108
2896.155	4106
2898.009	4057
2899.863	4110
2901.716	4028
2903.568	4040
2905.419	3976
2907.27	4110
2909.123	3983
2910.973	4202
2912.824	4152
2914.673	4062
2916.521	4222
2918.372	4242
2920.22	4229
2922.067	4358
2923.914	4386
2925.761	4369
2927.607	4404
2929.455	4355
2931.301	4511
2933.144	4474
2934.99	4568
2936.833	4639
2938.678	4582
2940.522	4687
2942.364	4739
2944.207	4834
2946.048	4858
2947.891	4907
2949.731	4987
2951.571	4874
2953.412	4930
2955.25	4856
2957.09	4769
2958.93	4807
2960.767	4806
2962.606	4683
2964.443	4638
2966.279	4673
2968.116	4473
2969.953	4397
2971.788	4422
2973.623	4343
2975.457	4231
2977.292	4293
2979.127	4243
2980.959	4194
2982.792	4147
2984.624	4089
2986.455	4211
2988.288	4076
2990.119	3983
2991.949	4019
2993.779	4012
2995.608	4029
2997.439	3961
2999.268	3923
3001.096	3905
3002.923	3903
3004.751	3814
3006.578	3709
3008.406	3753
3010.232	3730
3012.057	3581
3013.883	3640
3015.706	3552
3017.532	3537
3019.356	3594
3021.179	3556
3023.002	3502
3024.823	3472
3026.646	3467
3028.469	3570
3030.289	3434
3032.11	3482
3033.93	3526
3035.749	3485
3037.57	3439
3039.39	3483
3041.207	3452
3043.026	3449
3044.842	3450
3046.661	3398
3048.477	3455
3050.294	3393
3052.109	3405
3053.925	3415
3055.739	3409
3057.555	3322
3059.368	3458
3061.181	3468
3062.995	3412
3064.807	3471
3066.62	3403
3068.433	3501
3070.243	3403
3072.054	3407
3073.865	3416
3075.675	3390
3077.485	3349
3079.293	3404
3081.102	3373
3082.911	3319
3084.719	3365
3086.527	3366
3088.333	3390
3090.139	3367
3091.945	3370
3093.75	3366
3095.557	3329
3097.361	3323
3099.165	3356
3100.969	3266
3102.772	3340
3104.575	3365
3106.379	3340
3108.181	3268
3109.982	3350
3111.783	3338
3113.584	3267
3115.386	3312
3117.186	3235
3118.985	3309
3120.783	3261
3122.582	3304
3124.381	3324
3126.179	3322
3127.975	3304
3129.772	3280
3131.569	3315
3133.365	3226
3135.161	3253
3136.956	3300
3138.751	3281
3140.544	3206
3142.338	3226
3144.132	3226
3145.925	3230
3147.717	3255
3149.509	3255
3151.301	3182
3153.091	3227
3154.884	3202
3156.673	3270
3158.462	3292
3160.252	3209
3162.041	3279
3163.831	3283
3165.618	3228
3167.405	3212
3169.193	3333
3170.979	3204
3172.767	3222
3174.553	3159
3176.338	3245
3178.123	3228
3179.907	3237
3181.692	3213
3183.477	3220
3185.259	3216
3187.042	3296
3188.824	3232
3190.607	3192
3192.389	3290
3194.17	3247
3195.951	3265
3197.73	3232
3199.51	3265
3201.289	3208
3203.07	3255
3204.848	3197
3206.626	3241
3208.403	3192
3210.18	3324
3211.959	3212
3213.735	3274
3215.511	3215
3217.285	3268
3219.06	3205
3220.836	3166
3222.611	3217
3224.384	3241
3226.158	3186
3227.929	3177
3229.702	3267
3231.476	3197
3233.248	3255
3235.018	3209
3236.789	3207
3238.56	3209
3240.33	3194
3242.1	3254
3243.869	3255
3245.637	3243
3247.405	3304
3249.172	3302
3250.941	3278
3252.707	3257
3254.474	3318
3256.24	3170
3258.006	3188
3259.772	3149
3261.537	3248
3263.301	3296
3265.065	3212
3266.828	3251
3268.592	3273
3270.355	3308
3272.117	3270
3273.878	3210
3275.64	3388
3277.401	3277
3279.162	3264
3280.922	3153
3282.682	3143
3284.441	3274
3286.199	3246
3287.959	3332
3289.716	3252
3291.475	3281
3293.232	3374
3294.988	3249
3296.744	3283
3298.501	3277
3300.256	3241
3302.011	3238
3303.766	3293
3305.52	3321
3307.275	3236
3309.028	3233
3310.781	3360
3312.533	3261
3314.285	3283
3316.038	3256
3317.789	3248
3319.54	3242
3321.289	3224
3323.039	3245
3324.789	3332
3326.539	3229
3328.288	3232
3330.035	3273
3331.783	3305
3333.531	3279
3335.28	3187
3337.025	3222
3338.771	3223
3340.518	3223
3342.262	3203
3344.009	3267
3345.753	3154
3347.497	3214
3349.24	3247
3350.983	3205
3352.726	3243
3354.469	3186
3356.212	3187
3357.952	3173
3359.694	3183
3361.434	3183
3363.176	3213
3364.916	3201
3366.654	3201
3368.394	3136
3370.132	3216
3371.871	3216
3373.61	3165
3375.346	3095
3377.083	3247
3378.82	3107
3380.556	3149
3382.292	3184
3384.027	3162
3385.763	3138
3387.497	3222
3389.231	3080
3390.965	3118
3392.698	3198
3394.431	3194
3396.164	3152
3397.896	3164
3399.627	3079
3401.36	3092
3403.09	3142
3404.82	3125
3406.55	3156
3408.279	3081
3410.01	3184
3411.738	3092
3413.467	3175
3415.194	3094
3416.92	3108
3418.647	3127
3420.375	3147
3422.102	3016
3423.827	3072
3425.553	3114
3427.277	3061
3429.003	3049
3430.727	3082
3432.451	3015
3434.173	3080
3435.896	3047
3437.62	3040
3439.343	3028
3441.063	3059
3442.785	3070
3444.505	3014
3446.226	3022
3447.948	3014
3449.666	3009
3451.386	3087
3453.104	2949
3454.823	3051
3456.541	3112
3458.259	2995
3459.976	2961
3461.693	2984
3463.408	3070
3465.125	3019
3466.841	2968
3468.556	2998
3470.271	2954
3471.985	2952
3473.698	2929
3475.414	2940
3477.126	2972
3478.838	2902
3480.55	2996
3482.263	2967
3483.975	3002
3485.686	3020
3487.396	2924
3489.106	2928
3490.817	2849
3492.526	3020
3494.236	2871
3495.944	2907
3497.652	2997
3499.359	2934
3501.066	2952
3502.775	2940
3504.481	2955
3506.187	2942
3507.893	2951
3509.598	2809
3511.304	2878
3513.009	2880
3514.713	2885
3516.417	2843
3518.12	2876
3519.821	2870
3521.525	2861
3523.228	2886
3524.929	2804
3526.631	2840
3528.33	2859
3530.032	2848
3531.733	2783
3533.433	2877
3535.131	2799
3536.83	2861
3538.529	2782
3540.227	2826
3541.925	2786
3543.623	2817
3545.319	2837
3547.016	2836
3548.712	2785
3550.408	2762
3552.103	2824
3553.798	2829
3555.491	2786
3557.188	2746
3558.88	2784
3560.574	2828
3562.266	2751
3563.959	2768
3565.651	2741
3567.343	2787
3569.035	2825
3570.725	2780
3572.415	2757
3574.106	2706
3575.797	2693
3577.485	2696
3579.174	2757
3580.863	2683
3582.551	2739
3584.238	2765
3585.926	2746
3587.613	2686
3589.3	2692
3590.986	2754
3592.671	2670
3594.357	2690
3596.042	2733
3597.726	2656
3599.41	2622
3601.094	2690
3602.778	2760
3604.461	2683
3606.143	2697
3607.825	2754
3609.507	2659
3611.188	2656
3612.87	2650
3614.551	2675
3616.229	2636
3617.909	2647
3619.589	2710
3621.269	2700
3622.948	2629
3624.625	2601
3626.302	2627
3627.98	2595
3629.657	2627
3631.334	2649
3633.01	2589
3634.686	2651
3636.361	2562
3638.036	2591
3639.712	2578
3641.385	2545
3643.06	2563
3644.732	2613
3646.405	2636
3648.08	2588
3649.751	2604
3651.424	2557
3653.094	2577
3654.766	2563
3656.436	2623
3658.106	2547
3659.777	2590
3661.446	2527
3663.115	2541
3664.783	2618
3666.452	2561
3668.121	2550
3669.788	2605
3671.454	2553
3673.121	2566
3674.789	2531
3676.455	2550
3678.12	2555
3679.784	2500
3681.45	2531
3683.114	2573
3684.779	2465
3686.442	2550
3688.105	2517
3689.768	2492
3691.43	2531
3693.093	2489
3694.754	2521
3696.415	2516
3698.076	2579
3699.736	2490
3701.396	2535
3703.057	2480
3704.716	2550
3706.375	2437
3708.034	2539
3709.692	2511
3711.351	2512
3713.008	2485
3714.665	2519
3716.321	2467
3717.977	2491
3719.634	2542
3721.29	2466
3722.945	2456
3724.598	2454
3726.253	2488
3727.907	2516
3729.561	2417
3731.214	2467
3732.867	2475
3734.518	2392
3736.171	2537
3737.824	2501
3739.474	2424
3741.125	2518
3742.775	2454
3744.425	2435
3746.074	2481
3747.725	2475
3749.373	2459
3751.022	2487
3752.669	2396
3754.318	2485
3755.966	2504
3757.612	2438
3759.259	2461
3760.905	2509
3762.55	2400
3764.197	2448
3765.842	2409
3767.486	2336
3769.131	2434
3770.774	2456
3772.417	2449
3774.061	2412
3775.705	2424
3777.347	2378
3778.988	2421
3780.629	2409
3782.271	2422
3783.912	2482
3785.552	2374
3787.192	2459
3788.831	2464
3790.472	2392
3792.112	2379
3793.75	2396
3795.388	2485
3797.024	2397
3798.661	2440
3800.3	2349
3801.936	2398
3803.572	2391
3805.208	2427
3806.844	2407
3808.48	2438
3810.115	2363
3811.748	2326
3813.382	2398
3815.016	2444
3816.649	2364
3818.283	2359
3819.914	2350
3821.547	2319
3823.178	2304
3824.809	2340
3826.441	2386
3828.072	2367
3829.701	2376
3831.331	2341
3832.96	2339
3834.591	2388
3836.219	2294
3837.847	2340
3839.475	2366
3841.102	2351
3842.729	2351
3844.357	2404
3845.984	2356
3847.609	2390
3849.234	2351
3850.86	2316
3852.485	2330
3854.11	2358
3855.734	2321
3857.357	2313
3858.981	2285
3860.603	2303
3862.227	2301
3863.848	2266
3865.471	2253
3867.092	2294
3868.713	2355
3870.334	2304
3871.954	2296
3873.575	2300
3875.194	2238
3876.813	2267
3878.433	2304
3880.051	2314
3881.669	2275
3883.286	2294
3884.904	2310
3886.52	2293
3888.138	2338
3889.754	2326
3891.37	2297
3892.985	2350
3894.6	2269
3896.216	2317
3897.831	2289
3899.444	2315
3901.058	2268
3902.67	2295
3904.283	2251
3905.897	2291
3907.509	2285
3909.121	2313
3910.731	2273
3912.342	2266
3913.954	2287
3915.563	2343
3917.174	2276
3918.783	2245
3920.391	2274
3922.002	2317
3923.611	2279
3925.218	2282
3926.826	2246
3928.432	2322
3930.039	2259
3931.647	2272
3933.253	2289
3934.859	2293
3936.464	2287
3938.068	2301
3939.675	2273
3941.278	2233
3942.883	2290
3944.486	2291
3946.089	2219
3947.692	2268
3949.295	2257
3950.898	2243
3952.499	2264
3954.1	2226
3955.7	2186
3957.303	2237
3958.903	2295
3960.502	2276
3962.101	2229
3963.7	2237
3965.301	2224
3966.899	2233
3968.497	2270
3970.094	2212
3971.691	2225
3973.288	2194
3974.885	2199
3976.481	2208
3978.077	2226
3979.672	2206
3981.267	2199
3982.863	2181
3984.457	2188
3986.051	2163
3987.645	2243
3989.238	2195
3990.831	2182
3992.425	2171
3994.017	2196
3995.607	2184
3997.199	2179
3998.79	2161
4000.382	2157
4001.973	2188
4003.561	2231
4005.151	2173
4006.741	2147
4008.331	2140
4009.918	2163
4011.507	2170
4013.095	2161
4014.681	2171
4016.269	2087
4017.856	2147
4019.443	2151
4021.028	2117
4022.614	2172
4024.199	2198
4025.785	2123
4027.37	2178
4028.953	2091
4030.536	2113
4032.12	2117
4033.704	2138
4035.287	2123
4036.869	2114
4038.45	2146
4040.032	2102
4041.613	2069
4043.195	2075
4044.776	2092
4046.356	2124
4047.935	2111
4049.515	2203
4051.095	2119
4052.674	2117
4054.251	2129
4055.829	2126
4057.406	2111
4058.985	2124
4060.562	2135
4062.139	2129
4063.715	2101
4065.29	2095
4066.865	2201
4068.442	2086
4070.016	2103
4071.59	2093
4073.164	2108
4074.738	2078
4076.312	2075
4077.885	2074
4079.458	2050
4081.03	2057
4082.602	2116
4084.173	2065
4085.745	2018
4087.315	2045
4088.886	2085
4090.456	2054
4092.026	2099
4093.596	2111
4095.165	2097
4096.734	2069
4098.301	2029
4099.869	2076
4101.437	2034
4103.006	2052
4104.572	2111
4106.139	2047
4107.704	2063
4109.27	2001
4110.837	2035
4112.401	2073
4113.966	2052
4115.53	2066
4117.094	2070
4118.659	2084
4120.223	2042
4121.785	2043
4123.347	2073
4124.909	2039
4126.471	2003
4128.034	2023
4129.595	2046
4131.155	1987
4132.716	2021
4134.275	1980
4135.836	1989
4137.395	2064
4138.955	2026
4140.513	1995
4142.071	2031
4143.628	1979
4145.188	2044
4146.745	2005
4148.302	2064
4149.858	1985
4151.414	1956
4152.971	2020
4154.526	1998
4156.081	2001
4157.635	1966
4159.189	1987
4160.745	2038
4162.298	1956
4163.852	1972
4165.405	2033
4166.957	1963
4168.51	1969
4170.063	2004
4171.614	1913
4173.166	1981
4174.717	1979
4176.267	1988
4177.817	1941
4179.368	1948
4180.917	1932
4182.466	1934
4184.016	2010
4185.564	1990
4187.112	1960
4188.66	1944
4190.207	1934
4191.754	1976
4193.301	2003
4194.848	1934
4196.394	1957
4197.94	1937
4199.484	1938
4201.03	1957
4202.575	1961
4204.12	1907
4205.663	1968
4207.207	1902
4208.75	1944
4210.292	1923
4211.836	1936
4213.378	1939
4214.92	1913
4216.46	1926
4218.002	1913
4219.544	1886
4221.083	1918
4222.625	1974
4224.164	1908
4225.703	1957
4227.244	1945
4228.782	1937
4230.32	1947
4231.857	1871
4233.395	1900
4234.933	1926
4236.471	1943
4238.007	1875
4239.542	1935
4241.078	1939
4242.614	1934
4244.15	1884
4245.685	1899
4247.219	1921
4248.753	1897
4250.287	1868
4251.82	1854
4253.354	1888
4254.887	1905
4256.419	1858
4257.951	1867
4259.483	1935
4261.016	1903
4262.547	1868
4264.078	1900
4265.608	1900
4267.137	1927
4268.668	1884
4270.197	1818
4271.727	1880
4273.254	1904
4274.783	1875
4276.311	1870
4277.84	1885
4279.366	1820
4280.894	1857
4282.42	1838
4283.946	1846
4285.473	1873
4286.998	1909
4288.523	1836
4290.047	1907
4291.572	1842
4293.096	1857
4294.622	1862
4296.144	1833
4297.668	1826
4299.19	1894
4300.713	1850
4302.236	1872
4303.758	1850
4305.279	1816
4306.799	1889
4308.321	1795
4309.842	1851
4311.361	1861
4312.882	1816
4314.401	1814
