400.0961	3173
402.6185	3225
405.1424	3126
407.6635	3161
410.1838	3234
412.7035	3185
415.2225	3302
417.7388	3270
420.2585	3306
422.7754	3445
425.2917	3331
427.8072	3391
430.3221	3421
432.8363	3479
435.3498	3404
437.8626	3417
440.3727	3482
442.8841	3365
445.3969	3433
447.907	3416
450.4142	3353
452.9229	3413
455.4289	3383
457.9362	3341
460.4449	3388
462.9488	3344
465.454	3272
467.9566	3292
470.4604	3358
472.9637	3359
475.4662	3394
477.966	3327
480.4671	3381
482.9656	3296
485.4633	3435
487.9645	3434
490.4608	3378
492.9566	3460
495.4536	3454
497.948	3424
500.4437	3364
502.9387	3400
505.431	3389
507.9226	3443
510.4136	3494
512.9079	3427
515.3975	3349
517.8864	3450
520.3746	3441
522.8622	3509
525.3491	3475
527.8394	3407
530.3249	3486
532.8098	3495
535.2939	3449
537.7774	3407
540.2623	3463
542.7444	3506
545.2259	3528
547.7067	3575
550.1868	3497
552.6683	3469
555.147	3506
557.6231	3591
560.1005	3486
562.5773	3610
565.0534	3517
567.5308	3571
570.0056	3591
572.4776	3561
574.951	3612
577.4237	3629
579.8978	3665
582.3671	3614
584.8378	3603
587.3079	3549
589.7773	3667
592.244	3616
594.714	3591
597.1793	3609
599.6461	3545
602.1121	3659
604.5754	3564
607.0421	3596
609.5042	3627
611.9675	3627
614.4282	3567
616.8902	3694
619.3515	3496
621.8122	3577
624.2702	3697
626.7296	3555
629.1863	3644
631.6423	3635
634.1017	3573
636.5563	3573
639.0104	3653
641.4658	3583
643.9185	3659
646.3725	3571
648.8239	3566
651.2766	3612
653.7266	3559
656.176	3722
658.6247	3617
661.0748	3640
663.5242	3504
665.9709	3719
668.417	3649
670.8624	3613
673.3092	3687
675.7533	3654
678.1968	3728
680.6395	3707
683.0817	3677
685.5251	3742
687.9659	3654
690.4061	3680
692.8456	3754
695.2844	3774
697.7226	3754
700.1621	3811
702.599	3782
705.0332	3794
707.4688	3789
709.9036	3809
712.3399	3741
714.7735	3741
717.2044	3877
719.6367	3788
722.0683	3808
724.4993	3799
726.9296	3828
729.3593	3773
731.7883	3796
734.2147	3837
736.6423	3916
739.0714	3890
741.4958	3873
743.9216	3902
746.3447	3824
748.7691	3995
751.1929	3954
753.616	3854
756.0366	3929
758.4584	3944
760.8776	3901
763.2982	3942
765.718	3978
768.1373	3931
770.5539	4060
772.9698	3948
775.3871	3961
777.8038	3970
780.2178	3970
782.6332	3924
785.0459	3970
787.458	3933
789.8714	3936
792.2842	3896
794.6943	3895
797.1038	3956
799.5127	3912
801.9209	3976
804.3324	3955
806.7393	4032
809.1456	3968
811.5513	4021
813.9562	3983
816.3625	4029
818.7663	4007
821.1693	4041
823.5718	4066
825.9735	3964
828.3746	4067
830.7771	4040
833.177	4026
835.5762	4011
837.9747	4062
840.3727	4070
842.772	4033
845.1666	4048
847.5626	4066
849.958	4083
852.3527	4166
854.7488	4186
857.1403	4144
859.5331	4192
861.9253	4147
864.3168	4153
866.7057	4078
869.098	4133
871.4876	4087
873.8746	4139
876.263	4139
878.6487	4191
881.0378	4151
883.4243	4173
885.8081	4138
888.1933	4090
890.5759	4147
892.9598	4196
895.343	4066
897.7256	4157
900.1057	4044
902.4871	4235
904.8659	4060
907.246	4191
909.6254	4034
912.0023	4196
914.3786	4196
916.7562	4245
919.1331	4257
921.5074	4291
923.8831	4344
926.2562	4367
928.6287	4349
931.0005	4422
933.3757	4277
935.7462	4417
938.1162	4357
940.4855	4542
942.8542	4461
945.2242	4609
947.5916	4582
949.9584	4702
952.3266	4778
954.6921	4987
957.0571	5163
959.4233	5380
961.787	5420
964.15	5505
966.5125	5382
968.8742	5106
971.2354	4985
973.5959	4661
975.9559	4638
978.3151	4457
980.6738	4345
983.0338	4267
985.3912	4249
987.7461	4268
990.1022	4296
992.4578	4311
994.8127	4250
997.1689	4316
999.5207	4200
1001.874	4264
1004.226	4256
1006.576	4309
1008.929	4233
1011.28	4356
1013.628	4230
1015.977	4278
1018.324	4288
1020.674	4310
1023.019	4301
1025.366	4331
1027.713	4356
1030.056	4422
1032.399	4350
1034.746	4269
1037.087	4448
1039.431	4319
1041.771	4320
1044.113	4391
1046.454	4359
1048.793	4424
1051.133	4330
1053.471	4355
1055.807	4404
1058.146	4359
1060.483	4382
1062.818	4319
1065.153	4437
1067.489	4422
1069.822	4474
1072.156	4469
1074.488	4516
1076.82	4447
1079.15	4502
1081.48	4378
1083.814	4464
1086.143	4503
1088.471	4503
1090.799	4328
1093.126	4360
1095.452	4420
1097.78	4305
1100.105	4338
1102.43	4419
1104.754	4355
1107.077	4471
1109.4	4329
1111.722	4414
1114.044	4430
1116.365	4315
1118.685	4329
1121.005	4409
1123.324	4463
1125.643	4450
1127.961	4396
1130.278	4331
1132.595	4527
1134.911	4427
1137.226	4303
1139.541	4341
1141.854	4393
1144.167	4435
1146.482	4386
1148.793	4367
1151.105	4405
1153.414	4404
1155.725	4328
1158.033	4362
1160.344	4433
1162.651	4463
1164.959	4393
1167.265	4463
1169.572	4413
1171.878	4438
1174.184	4477
1176.488	4405
1178.79	4322
1181.094	4396
1183.396	4430
1185.699	4447
1188.001	4366
1190.301	4439
1192.6	4435
1194.9	4353
1197.2	4388
1199.497	4407
1201.794	4342
1204.09	4460
1206.387	4497
1208.684	4506
1210.978	4416
1213.272	4446
1215.565	4521
1217.858	4429
1220.15	4402
1222.443	4477
1224.734	4431
1227.024	4515
1229.313	4507
1231.602	4523
1233.892	4523
1236.18	4494
1238.467	4621
1240.754	4603
1243.04	4572
1245.325	4657
1247.612	4603
1249.896	4634
1252.178	4593
1254.461	4600
1256.743	4638
1259.027	4477
1261.308	4519
1263.587	4621
1265.867	4669
1268.146	4611
1270.425	4643
1272.703	4610
1274.981	4540
1277.256	4553
1279.532	4571
1281.808	4604
1284.083	4590
1286.358	4601
1288.63	4535
1290.904	4534
1293.175	4571
1295.449	4470
1297.719	4545
1299.99	4609
1302.259	4622
1304.529	4469
1306.798	4538
1309.065	4544
1311.333	4661
1313.599	4586
1315.866	4484
1318.131	4562
1320.396	4500
1322.66	4541
1324.925	4490
1327.187	4556
1329.448	4543
1331.711	4522
1333.974	4607
1336.234	4634
1338.493	4585
1340.752	4548
1343.01	4540
1345.269	4550
1347.526	4595
1349.784	4561
1352.04	4454
1354.295	4486
1356.552	4603
1358.806	4577
1361.059	4503
1363.312	4533
1365.564	4610
1367.818	4492
1370.069	4583
1372.318	4566
1374.568	4536
1376.817	4649
1379.066	4570
1381.316	4625
1383.564	4562
1385.809	4560
1388.056	4650
1390.301	4660
1392.549	4687
1394.793	4708
1397.036	4681
1399.279	4639
1401.522	4744
1403.763	4658
1406.007	4651
1408.248	4725
1410.487	4647
1412.727	4687
1414.965	4655
1417.205	4689
1419.442	4700
1421.68	4700
1423.915	4693
1426.152	4714
1428.388	4701
1430.623	4750
1432.857	4640
1435.091	4673
1437.323	4709
1439.556	4718
1441.789	4720
1444.019	4744
1446.25	4670
1448.48	4806
1450.708	4726
1452.938	4831
1455.167	4830
1457.394	4909
1459.62	4801
1461.846	4825
1464.073	4863
1466.299	4804
1468.523	4732
1470.746	4736
1472.969	4729
1475.191	4671
1477.415	4754
1479.636	4604
1481.858	4619
1484.078	4708
1486.298	4623
1488.518	4581
1490.736	4634
1492.954	4556
1495.169	4474
1497.386	4534
1499.602	4615
1501.819	4514
1504.034	4651
1506.248	4639
1508.462	4610
1510.675	4576
1512.888	4678
1515.1	4591
1517.311	4502
1519.522	4564
1521.732	4541
1523.942	4624
1526.151	4583
1528.36	4475
1530.566	4600
1532.773	4581
1534.98	4563
1537.187	4676
1539.392	4665
1541.596	4554
1543.801	4639
1546.005	4592
1548.208	4606
1550.411	4533
1552.612	4625
1554.814	4655
1557.013	4663
1559.212	4653
1561.414	4691
1563.612	4607
1565.811	4688
1568.007	4641
1570.203	4688
1572.403	4660
1574.598	4663
1576.792	4724
1578.988	4653
1581.181	4735
1583.376	4732
1585.568	4694
1587.761	4717
1589.952	4660
1592.143	4748
1594.333	4674
1596.524	4711
1598.715	4669
1600.903	4823
1603.091	4715
1605.278	4777
1607.466	4724
1609.652	4810
1611.838	4823
1614.023	4720
1616.207	4683
1618.391	4748
1620.576	4734
1622.759	4776
1624.941	4822
1627.123	4780
1629.304	4842
1631.484	4796
1633.664	4819
1635.844	4823
1638.022	4808
1640.201	4842
1642.38	4859
1644.556	4877
1646.732	4852
1648.908	4805
1651.084	4851
1653.257	4805
1655.433	4927
1657.607	4779
1659.779	4908
1661.951	4930
1664.122	4836
1666.295	4901
1668.467	4833
1670.635	4881
1672.805	4891
1674.973	4834
1677.142	4789
1679.31	4782
1681.478	4856
1683.644	4852
1685.81	4848
1687.975	4870
1690.142	4813
1692.305	4791
1694.468	4827
1696.632	4849
1698.794	4760
1700.957	4766
1703.119	4768
1705.279	4792
1707.439	4697
1709.598	4712
1711.758	4673
1713.917	4760
1716.075	4744
1718.231	4728
1720.388	4785
1722.543	4774
1724.702	4730
1726.856	4711
1729.01	4649
1731.164	4721
1733.317	4721
1735.471	4735
1737.623	4669
1739.774	4751
1741.925	4635
1744.075	4685
1746.225	4727
1748.376	4676
1750.524	4713
1752.672	4677
1754.82	4773
1756.965	4694
1759.113	4657
1761.259	4745
1763.405	4833
1765.549	4741
1767.694	4754
1769.836	4792
1771.981	4815
1774.123	4708
1776.264	4736
1778.405	4771
1780.546	4857
1782.687	4702
1784.827	4817
1786.966	4907
1789.103	4868
1791.242	4788
1793.381	4793
1795.517	4710
1797.653	4870
1799.788	4739
1801.923	4776
1804.057	4786
1806.193	4733
1808.326	4739
1810.457	4752
1812.59	4804
1814.721	4776
1816.855	4792
1818.984	4762
1821.113	4811
1823.244	4823
1825.372	4692
1827.499	4766
1829.63	4760
1831.756	4783
1833.882	4820
1836.007	4687
1838.132	4760
1840.26	4785
1842.384	4797
1844.507	4808
1846.63	4734
1848.752	4746
1850.875	4707
1852.996	4783
1855.118	4785
1857.238	4822
1859.358	4735
1861.477	4744
1863.597	4612
1865.715	4732
1867.832	4745
1869.948	4746
1872.064	4739
1874.181	4715
1876.297	4811
1878.411	4703
1880.526	4759
1882.639	4708
1884.752	4692
1886.865	4728
1888.977	4811
1891.089	4743
1893.2	4778
1895.308	4721
1897.42	4769
1899.53	4723
1901.639	4865
1903.745	4773
1905.853	4780
1907.962	4775
1910.067	4651
1912.174	4808
1914.278	4759
1916.383	4837
1918.486	4874
1920.592	4826
1922.694	4865
1924.797	4775
1926.898	4779
1929	4764
1931.102	4848
1933.203	4824
1935.301	4844
1937.401	4757
1939.499	4789
1941.598	4820
1943.697	4825
1945.793	4853
1947.888	4835
1949.985	4823
1952.08	4832
1954.176	4812
1956.269	4824
1958.364	4752
1960.457	4731
1962.549	4853
1964.642	4808
1966.733	4796
1968.823	4768
1970.913	4795
1973.005	4726
1975.093	4827
1977.184	4793
1979.271	4873
1981.359	4838
1983.446	4850
1985.532	4666
1987.619	4784
1989.705	4771
1991.789	4821
1993.874	4752
1995.956	4823
1998.041	4771
2000.123	4766
2002.206	4801
2004.287	4761
2006.368	4704
2008.449	4820
2010.529	4839
2012.609	4755
2014.688	4754
2016.766	4771
2018.843	4808
2020.922	4734
2022.999	4748
2025.074	4775
2027.15	4743
2029.225	4746
2031.299	4852
2033.375	4738
2035.447	4903
2037.52	4757
2039.592	4817
2041.664	4811
2043.736	4813
2045.807	4748
2047.876	4776
2049.947	4747
2052.015	4846
2054.086	4754
2056.153	4767
2058.221	4794
2060.288	4836
2062.353	4815
2064.42	4817
2066.486	4775
2068.55	4832
2070.614	4843
2072.678	4865
2074.741	4819
2076.805	4726
2078.866	4788
2080.929	4782
2082.99	4723
2085.049	4825
2087.109	4751
2089.17	4722
2091.228	4780
2093.286	4768
2095.344	4765
2097.4	4821
2099.46	4779
2101.516	4844
2103.572	4821
2105.626	4705
2107.679	4788
2109.735	4798
2111.788	4863
2113.841	4859
2115.894	4774
2117.945	4726
2119.997	4705
2122.049	4839
2124.1	4817
2126.148	4789
2128.197	4772
2130.246	4791
2132.296	4741
2134.342	4762
2136.39	4821
2138.437	4700
2140.483	4703
2142.527	4688
2144.574	4722
2146.619	4730
2148.661	4749
2150.705	4679
2152.747	4693
2154.792	4669
2156.832	4701
2158.874	4813
2160.915	4700
2162.954	4764
2164.995	4753
2167.034	4710
2169.072	4709
2171.111	4733
2173.148	4717
2175.186	4663
2177.223	4751
2179.258	4748
2181.294	4692
2183.328	4662
2185.362	4703
2187.398	4735
2189.431	4647
2191.463	4665
2193.495	4749
2195.528	4665
2197.56	4773
2199.59	4657
2201.62	4759
2203.649	4661
2205.678	4698
2207.708	4655
2209.737	4728
2211.764	4682
2213.791	4725
2215.817	4675
2217.843	4646
2219.87	4618
2221.895	4698
2223.919	4575
2225.942	4742
2227.966	4639
2229.988	4569
2232.012	4682
2234.032	4678
2236.054	4694
2238.074	4694
2240.095	4662
2242.116	4663
2244.135	4696
2246.153	4636
2248.171	4673
2250.188	4648
2252.208	4628
2254.223	4610
2256.239	4623
2258.255	4720
2260.269	4674
2262.283	4639
2264.3	4600
2266.312	4646
2268.325	4679
2270.336	4622
2272.349	4675
2274.362	4640
2276.372	4665
2278.383	4675
2280.392	4675
2282.402	4674
2284.409	4725
2286.418	4744
2288.427	4684
2290.433	4673
2292.441	4747
2294.446	4620
2296.453	4593
2298.459	4727
2300.463	4637
2302.466	4694
2304.471	4644
2306.475	4630
2308.477	4651
2310.478	4613
2312.481	4666
2314.481	4651
2316.481	4593
2318.482	4632
2320.482	4671
2322.48	4655
2324.48	4661
2326.478	4611
2328.476	4657
2330.473	4588
2332.469	4556
2334.465	4624
2336.46	4587
2338.454	4479
2340.45	4559
2342.444	4636
2344.437	4645
2346.43	4623
2348.421	4556
2350.414	4533
2352.405	4600
2354.396	4663
2356.386	4492
2358.376	4562
2360.366	4537
2362.355	4504
2364.343	4592
2366.331	4636
2368.317	4643
2370.304	4458
2372.292	4601
2374.278	4451
2376.262	4603
2378.247	4459
2380.23	4523
2382.216	4585
2384.199	4496
2386.181	4479
2388.163	4583
2390.144	4499
2392.127	4447
2394.107	4427
2396.087	4553
2398.066	4648
2400.046	4637
2402.023	4519
2404.004	4575
2405.981	4516
2407.957	4546
2409.934	4467
2411.91	4547
2413.886	4528
2415.862	4463
2417.836	4456
2419.809	4508
2421.784	4537
2423.756	4452
2425.73	4591
2427.701	4536
2429.672	4500
2431.644	4495
2433.615	4488
2435.586	4510
2437.555	4522
2439.523	4443
2441.491	4571
2443.459	4561
2445.428	4539
2447.395	4545
2449.361	4484
2451.327	4465
2453.292	4388
2455.257	4590
2457.223	4481
2459.187	4621
2461.15	4522
2463.113	4470
2465.076	4512
2467.039	4463
2468.999	4482
2470.96	4456
2472.921	4512
2474.881	4473
2476.841	4426
2478.8	4569
2480.759	4455
2482.717	4394
2484.675	4500
2486.63	4469
2488.589	4531
2490.545	4470
2492.5	4419
2494.455	4437
2496.408	4445
2498.364	4396
2500.318	4444
2502.27	4469
2504.223	4387
2506.174	4356
2508.126	4494
2510.078	4383
2512.03	4437
2513.979	4406
2515.927	4337
2517.877	4498
2519.826	4474
2521.775	4330
2523.722	4405
2525.668	4444
2527.616	4435
2529.561	4349
2531.508	4455
2533.452	4393
2535.398	4343
2537.342	4404
2539.284	4381
2541.229	4406
2543.173	4428
2545.114	4453
2547.055	4375
2548.996	4361
2550.938	4386
2552.878	4393
2554.817	4431
2556.756	4498
2558.695	4454
2560.633	4390
2562.572	4432
2564.509	4456
2566.445	4462
2568.382	4415
2570.317	4347
2572.254	4386
2574.189	4432
2576.123	4400
2578.057	4348
2579.99	4439
2581.923	4347
2583.855	4357
2585.788	4481
2587.719	4393
2589.65	4354
2591.579	4384
2593.511	4442
2595.44	4325
2597.37	4341
2599.297	4450
2601.225	4360
2603.153	4342
2605.08	4394
2607.007	4376
2608.932	4446
2610.858	4349
2612.782	4376
2614.709	4409
2616.632	4377
2618.556	4490
2620.478	4425
2622.401	4381
2624.324	4410
2626.247	4454
2628.167	4399
2630.088	4459
2632.008	4393
2633.928	4417
2635.848	4422
2637.766	4352
2639.684	4380
2641.603	4529
2643.519	4406
2645.437	4427
2647.353	4456
2649.27	4461
2651.184	4470
2653.099	4550
2655.014	4410
2656.928	4400
2658.842	4460
2660.755	4409
2662.667	4502
2664.579	4398
2666.491	4451
2668.402	4333
2670.312	4316
2672.222	4461
2674.132	4430
2676.042	4360
2677.951	4433
2679.859	4401
2681.766	4412
2683.674	4344
2685.582	4309
2687.488	4445
2689.392	4353
2691.298	4404
2693.202	4398
2695.107	4261
2697.012	4399
2698.914	4395
2700.817	4356
2702.72	4444
2704.622	4328
2706.524	4443
2708.425	4333
2710.326	4375
2712.225	4361
2714.125	4285
2716.024	4411
2717.923	4421
2719.822	4318
2721.719	4300
2723.616	4412
2725.512	4345
2727.41	4339
2729.305	4341
2731.201	4328
2733.095	4380
2734.99	4369
2736.884	4240
2738.778	4352
2740.67	4280
2742.562	4279
2744.455	4232
2746.346	4197
2748.238	4306
2750.129	4440
2752.018	4343
2753.907	4352
2755.797	4332
2757.687	4444
2759.575	4385
2761.462	4316
2763.349	4394
2765.237	4384
2767.124	4375
2769.009	4248
2770.894	4234
2772.779	4341
2774.663	4322
2776.547	4382
2778.431	4265
2780.314	4354
2782.197	4276
2784.078	4297
2785.96	4260
2787.842	4385
2789.723	4318
2791.603	4327
2793.483	4214
2795.362	4271
2797.241	4332
2799.121	4237
2800.997	4299
2802.874	4365
2804.751	4284
2806.628	4206
2808.506	4221
2810.38	4274
2812.255	4271
2814.13	4214
2816.003	4322
2817.878	4261
2819.752	4317
2821.623	4237
2823.496	4230
2825.368	4287
2827.238	4232
2829.111	4249
2830.98	4224
2832.851	4317
2834.719	4240
2836.589	4286
2838.458	4292
2840.327	4268
2842.193	4328
2844.061	4345
2845.927	4286
2847.794	4300
2849.66	4382
2851.525	4355
2853.39	4363
2855.254	4355
2857.117	4344
2858.983	4397
2860.845	4388
2862.707	4356
2864.569	4411
2866.431	4446
2868.293	4499
2870.154	4527
2872.013	4526
2873.873	4485
2875.733	4521
2877.592	4643
2879.451	4600
2881.309	4644
2883.166	4639
2885.022	4680
2886.879	4750
2888.736	4674
2890.591	4719
2892.446	4764
2894.301	4668
2896.155	4721
2898.009	4720
2899.863	4737
2901.716	4715
2903.568	4730
2905.419	4701
2907.27	4621
2909.123	4732
2910.973	4661
2912.824	4768
2914.673	4783
2916.521	4829
2918.372	4891
2920.22	4875
2922.067	4798
2923.914	4917
2925.761	4996
2927.607	4973
2929.455	5004
2931.301	5023
2933.144	5054
2934.99	5046
2936.833	5291
2938.678	5178
2940.522	5243
2942.364	5335
2944.207	5422
2946.048	5365
2947.891	5372
2949.731	5385
2951.571	5260
2953.412	5380
2955.25	5274
2957.09	5276
2958.93	5265
2960.767	5212
2962.606	5163
2964.443	5079
2966.279	5012
2968.116	4974
2969.953	4929
2971.788	4977
2973.623	4895
2975.457	4882
2977.292	4882
2979.127	4851
2980.959	4874
2982.792	4733
2984.624	4706
2986.455	4690
2988.288	4816
2990.119	4753
2991.949	4684
2993.779	4649
2995.608	4622
2997.439	4564
2999.268	4498
3001.096	4550
3002.923	4538
3004.751	4435
3006.578	4385
3008.406	4420
3010.232	4281
3012.057	4379
3013.883	4316
3015.706	4323
3017.532	4249
3019.356	4230
3021.179	4260
3023.002	4176
3024.823	4146
3026.646	4078
3028.469	4216
3030.289	4083
3032.11	4146
3033.93	4121
3035.749	4076
3037.57	4076
3039.39	4120
3041.207	4096
3043.026	4110
3044.842	4046
3046.661	4109
3048.477	4096
3050.294	4084
3052.109	4152
3053.925	4147
3055.739	4052
3057.555	4112
3059.368	4053
3061.181	4093
3062.995	4001
3064.807	4047
3066.62	4043
3068.433	4160
3070.243	4055
3072.054	4089
3073.865	4015
3075.675	4098
3077.485	4054
3079.293	4111
3081.102	4012
3082.911	4029
3084.719	4022
3086.527	4070
3088.333	4037
3090.139	4055
3091.945	3987
3093.75	3930
3095.557	3996
3097.361	3959
3099.165	3960
3100.969	3900
3102.772	3957
3104.575	4006
3106.379	3935
3108.181	3927
3109.982	3992
3111.783	3927
3113.584	3982
3115.386	3965
3117.186	3913
3118.985	3897
3120.783	3910
3122.582	3874
3124.381	3881
3126.179	3907
3127.975	3955
3129.772	3873
3131.569	3900
3133.365	3917
3135.161	3904
3136.956	3908
3138.751	3849
3140.544	3882
3142.338	3869
3144.132	3956
3145.925	3887
3147.717	3887
3149.509	3877
3151.301	3816
3153.091	3792
3154.884	3806
3156.673	3881
3158.462	3863
3160.252	3772
3162.041	3783
3163.831	3801
3165.618	3785
3167.405	3814
3169.193	3812
3170.979	3873
3172.767	3839
3174.553	3829
3176.338	3770
3178.123	3866
3179.907	3801
3181.692	3861
3183.477	3836
3185.259	3716
3187.042	3863
3188.824	3801
3190.607	3821
3192.389	3843
3194.17	3818
3195.951	3870
3197.73	3830
3199.51	3783
3201.289	3803
3203.07	3848
3204.848	3842
3206.626	3764
3208.403	3727
3210.18	3800
3211.959	3839
3213.735	3828
3215.511	3748
3217.285	3829
3219.06	3762
3220.836	3836
3222.611	3845
3224.384	3735
3226.158	3876
3227.929	3884
3229.702	3744
3231.476	3822
3233.248	3817
3235.018	3774
3236.789	3822
3238.56	3839
3240.33	3703
3242.1	3802
3243.869	3819
3245.637	3820
3247.405	3885
3249.172	3835
3250.941	3876
3252.707	3828
3254.474	3843
3256.24	3894
3258.006	3754
3259.772	3796
3261.537	3793
3263.301	3786
3265.065	3779
3266.828	3759
3268.592	3835
3270.355	3845
3272.117	3842
3273.878	3767
3275.64	3767
3277.401	3811
3279.162	3841
3280.922	3780
3282.682	3754
3284.441	3845
3286.199	3827
3287.959	3788
3289.716	3816
3291.475	3847
3293.232	3857
3294.988	3854
3296.744	3830
3298.501	3756
3300.256	3816
3302.011	3752
3303.766	3794
3305.52	3746
3307.275	3809
3309.028	3871
3310.781	3855
3312.533	3769
3314.285	3760
3316.038	3815
3317.789	3864
3319.54	3762
3321.289	3820
3323.039	3864
3324.789	3834
3326.539	3859
3328.288	3803
3330.035	3825
3331.783	3787
3333.531	3796
3335.28	3694
3337.025	3755
3338.771	3783
3340.518	3716
3342.262	3782
3344.009	3711
3345.753	3756
3347.497	3752
3349.24	3770
3350.983	3775
3352.726	3703
3354.469	3662
3356.212	3758
3357.952	3726
3359.694	3744
3361.434	3761
3363.176	3739
3364.916	3750
3366.654	3661
3368.394	3771
3370.132	3697
3371.871	3684
3373.61	3676
3375.346	3677
3377.083	3693
3378.82	3651
3380.556	3659
3382.292	3664
3384.027	3604
3385.763	3657
3387.497	3645
3389.231	3636
3390.965	3662
3392.698	3712
3394.431	3663
3396.164	3658
3397.896	3667
3399.627	3620
3401.36	3688
3403.09	3788
3404.82	3641
3406.55	3601
3408.279	3700
3410.01	3653
3411.738	3618
3413.467	3646
3415.194	3626
3416.92	3659
3418.647	3679
3420.375	3559
3422.102	3618
3423.827	3613
3425.553	3629
3427.277	3632
3429.003	3608
3430.727	3546
3432.451	3721
3434.173	3559
3435.896	3554
3437.62	3596
3439.343	3571
3441.063	3575
3442.785	3543
3444.505	3540
3446.226	3589
3447.948	3528
3449.666	3586
3451.386	3455
3453.104	3561
3454.823	3553
3456.541	3612
3458.259	3562
3459.976	3473
3461.693	3536
3463.408	3571
3465.125	3514
3466.841	3459
3468.556	3446
3470.271	3529
3471.985	3495
3473.698	3503
3475.414	3466
3477.126	3499
3478.838	3438
3480.55	3437
3482.263	3447
3483.975	3411
3485.686	3443
3487.396	3403
3489.106	3482
3490.817	3396
3492.526	3484
3494.236	3501
3495.944	3362
3497.652	3509
3499.359	3452
3501.066	3431
3502.775	3391
3504.481	3394
3506.187	3393
3507.893	3447
3509.598	3370
3511.304	3291
3513.009	3339
3514.713	3334
3516.417	3297
3518.12	3371
3519.821	3359
3521.525	3393
3523.228	3331
3524.929	3339
3526.631	3334
3528.33	3366
3530.032	3395
3531.733	3378
3533.433	3379
3535.131	3335
3536.83	3374
3538.529	3299
3540.227	3251
3541.925	3230
3543.623	3264
3545.319	3396
3547.016	3340
3548.712	3255
3550.408	3313
3552.103	3305
3553.798	3275
3555.491	3347
3557.188	3273
3558.88	3369
3560.574	3249
3562.266	3278
3563.959	3241
3565.651	3215
3567.343	3220
3569.035	3235
3570.725	3241
3572.415	3223
3574.106	3247
3575.797	3235
3577.485	3268
3579.174	3257
3580.863	3174
3582.551	3200
3584.238	3264
3585.926	3259
3587.613	3321
3589.3	3200
3590.986	3233
3592.671	3182
3594.357	3209
3596.042	3130
3597.726	3170
3599.41	3257
3601.094	3123
3602.778	3209
3604.461	3214
3606.143	3133
3607.825	3171
3609.507	3080
3611.188	3143
3612.87	3161
3614.551	3159
3616.229	3121
3617.909	3135
3619.589	3168
3621.269	3100
3622.948	3157
3624.625	3121
3626.302	3107
3627.98	3149
3629.657	3199
3631.334	3135
3633.01	3001
3634.686	3059
3636.361	3048
3638.036	3145
3639.712	3060
3641.385	3032
3643.06	3012
3644.732	3009
3646.405	3091
3648.08	3044
3649.751	3019
3651.424	3026
3653.094	3034
3654.766	3032
3656.436	2969
3658.106	3016
3659.777	2986
3661.446	2963
3663.115	2926
3664.783	2924
3666.452	3067
3668.121	3002
3669.788	3051
3671.454	3084
3673.121	3037
3674.789	3066
3676.455	2932
3678.12	2962
3679.784	3018
3681.45	3016
3683.114	2970
3684.779	3095
3686.442	3002
3688.105	3018
3689.768	2991
3691.43	3057
3693.093	2972
3694.754	2989
3696.415	2950
3698.076	2992
3699.736	2986
3701.396	2975
3703.057	3018
3704.716	2874
3706.375	2909
3708.034	2921
3709.692	2929
3711.351	2926
3713.008	2929
3714.665	3017
3716.321	2961
3717.977	2951
3719.634	2911
3721.29	2968
3722.945	2955
3724.598	2905
3726.253	2958
3727.907	2898
3729.561	2934
3731.214	2891
3732.867	2927
3734.518	2890
3736.171	2881
3737.824	2880
3739.474	2892
3741.125	2972
3742.775	2884
3744.425	2969
3746.074	2926
3747.725	2831
3749.373	2855
3751.022	2871
3752.669	2882
3754.318	2921
3755.966	2828
3757.612	2871
3759.259	2863
3760.905	2841
3762.55	2837
3764.197	2895
3765.842	2847
3767.486	2818
3769.131	2817
3770.774	2882
3772.417	2800
3774.061	2916
3775.705	2818
3777.347	2923
3778.988	2834
3780.629	2819
3782.271	2819
3783.912	2858
3785.552	2784
3787.192	2892
3788.831	2869
3790.472	2846
3792.112	2846
3793.75	2730
3795.388	2802
3797.024	2766
3798.661	2887
3800.3	2848
3801.936	2822
3803.572	2892
3805.208	2763
3806.844	2753
3808.48	2745
3810.115	2824
3811.748	2731
3813.382	2807
3815.016	2841
3816.649	2824
3818.283	2802
3819.914	2810
3821.547	2763
3823.178	2768
3824.809	2748
3826.441	2708
3828.072	2727
3829.701	2756
3831.331	2795
3832.96	2735
3834.591	2731
3836.219	2741
3837.847	2792
3839.475	2775
3841.102	2730
3842.729	2816
3844.357	2721
3845.984	2791
3847.609	2763
3849.234	2794
3850.86	2753
3852.485	2701
3854.11	2678
3855.734	2733
3857.357	2773
3858.981	2757
3860.603	2649
3862.227	2750
3863.848	2705
3865.471	2670
3867.092	2713
3868.713	2667
3870.334	2636
3871.954	2692
3873.575	2720
3875.194	2663
3876.813	2716
3878.433	2667
3880.051	2716
3881.669	2661
3883.286	2677
3884.904	2673
3886.52	2681
3888.138	2759
3889.754	2651
3891.37	2742
3892.985	2701
3894.6	2665
3896.216	2694
3897.831	2697
3899.444	2672
3901.058	2708
3902.67	2724
3904.283	2740
3905.897	2602
3907.509	2645
3909.121	2665
3910.731	2708
3912.342	2625
3913.954	2704
3915.563	2659
3917.174	2631
3918.783	2634
3920.391	2683
3922.002	2650
3923.611	2623
3925.218	2588
3926.826	2668
3928.432	2652
3930.039	2636
3931.647	2721
3933.253	2643
3934.859	2623
3936.464	2652
3938.068	2632
3939.675	2589
3941.278	2619
3942.883	2609
3944.486	2538
3946.089	2623
3947.692	2637
3949.295	2555
3950.898	2654
3952.499	2678
3954.1	2648
3955.7	2594
3957.303	2572
3958.903	2642
3960.502	2614
3962.101	2618
3963.7	2560
3965.301	2593
3966.899	2578
3968.497	2623
3970.094	2636
3971.691	2535
3973.288	2541
3974.885	2555
3976.481	2564
3978.077	2544
3979.672	2579
3981.267	2552
3982.863	2545
3984.457	2608
3986.051	2568
3987.645	2560
3989.238	2527
3990.831	2498
3992.425	2545
3994.017	2527
3995.607	2555
3997.199	2551
3998.79	2590
4000.382	2547
4001.973	2469
4003.561	2536
4005.151	2578
4006.741	2495
4008.331	2508
4009.918	2524
4011.507	2494
4013.095	2451
4014.681	2506
4016.269	2461
4017.856	2443
4019.443	2501
4021.028	2483
4022.614	2448
4024.199	2486
4025.785	2456
4027.37	2458
4028.953	2444
4030.536	2474
4032.12	2405
4033.704	2384
4035.287	2387
4036.869	2488
4038.45	2471
4040.032	2517
4041.613	2421
4043.195	2401
4044.776	2466
4046.356	2394
4047.935	2464
4049.515	2465
4051.095	2481
4052.674	2383
4054.251	2394
4055.829	2434
4057.406	2478
4058.985	2474
4060.562	2417
4062.139	2418
4063.715	2398
4065.29	2397
4066.865	2423
4068.442	2316
4070.016	2451
4071.59	2434
4073.164	2350
4074.738	2408
4076.312	2436
4077.885	2407
4079.458	2362
4081.03	2348
4082.602	2398
4084.173	2413
4085.745	2382
4087.315	2374
4088.886	2384
4090.456	2425
4092.026	2440
4093.596	2360
4095.165	2378
4096.734	2376
4098.301	2379
4099.869	2373
4101.437	2370
4103.006	2354
4104.572	2406
4106.139	2325
4107.704	2404
4109.27	2364
4110.837	2416
4112.401	2348
4113.966	2351
4115.53	2359
4117.094	2300
4118.659	2357
4120.223	2356
4121.785	2354
4123.347	2374
4124.909	2357
4126.471	2298
4128.034	2363
4129.595	2300
4131.155	2315
4132.716	2357
4134.275	2322
4135.836	2319
4137.395	2316
4138.955	2325
4140.513	2273
4142.071	2303
4143.628	2278
4145.188	2275
4146.745	2317
4148.302	2297
4149.858	2244
4151.414	2324
4152.971	2236
4154.526	2309
4156.081	2237
4157.635	2296
4159.189	2244
4160.745	2263
4162.298	2238
4163.852	2306
4165.405	2287
4166.957	2264
4168.51	2293
4170.063	2277
4171.614	2252
4173.166	2270
4174.717	2240
4176.267	2260
4177.817	2319
4179.368	2248
4180.917	2273
4182.466	2272
4184.016	2240
4185.564	2221
4187.112	2273
4188.66	2214
4190.207	2235
4191.754	2255
4193.301	2255
4194.848	2226
4196.394	2222
4197.94	2226
4199.484	2165
4201.03	2250
4202.575	2202
4204.12	2212
4205.663	2248
4207.207	2160
4208.75	2153
4210.292	2202
4211.836	2207
4213.378	2146
4214.92	2200
4216.46	2187
4218.002	2233
4219.544	2183
4221.083	2205
4222.625	2180
4224.164	2158
4225.703	2186
4227.244	2220
4228.782	2253
4230.32	2158
4231.857	2218
4233.395	2174
4234.933	2185
4236.471	2141
4238.007	2145
4239.542	2167
4241.078	2153
4242.614	2165
4244.15	2188
4245.685	2176
4247.219	2170
4248.753	2144
4250.287	2102
4251.82	2206
4253.354	2111
4254.887	2194
4256.419	2191
4257.951	2131
4259.483	2106
4261.016	2118
4262.547	2206
4264.078	2168
4265.608	2146
4267.137	2193
4268.668	2121
4270.197	2158
4271.727	2188
4273.254	2146
4274.783	2096
4276.311	2109
4277.84	2106
4279.366	2109
4280.894	2155
4282.42	2157
4283.946	2095
4285.473	2126
4286.998	2092
4288.523	2091
4290.047	2133
4291.572	2110
4293.096	2053
4294.622	2102
4296.144	2155
4297.668	2084
4299.19	2094
4300.713	2113
4302.236	2115
4303.758	2070
4305.279	2134
4306.799	2054
4308.321	2120
4309.842	2063
4311.361	2058
4312.882	2064
4314.401	2066
