400.0961	8867
402.6185	8843
405.1424	8774
407.6635	8805
410.1838	8988
412.7035	8941
415.2225	8936
417.7388	8946
420.2585	9142
422.7754	9056
425.2917	9120
427.8072	9187
430.3221	9221
432.8363	9269
435.3498	9496
437.8626	9357
440.3727	9182
442.8841	9336
445.3969	9370
447.907	9387
450.4142	9503
452.9229	9452
455.4289	9515
457.9362	9483
460.4449	9488
462.9488	9411
465.454	9465
467.9566	9658
470.4604	9475
472.9637	9476
475.4662	9571
477.966	9684
480.4671	9562
482.9656	9531
485.4633	9863
487.9645	9743
490.4608	9599
492.9566	9718
495.4536	9858
497.948	9878
500.4437	9978
502.9387	9770
505.431	9859
507.9226	9922
510.4136	9895
512.9079	9917
515.3975	9900
517.8864	10029
520.3746	9869
522.8622	9980
525.3491	9944
527.8394	10009
530.3249	9879
532.8098	9931
535.2939	9900
537.7774	9990
540.2623	10049
542.7444	9858
545.2259	9865
547.7067	9978
550.1868	9928
552.6683	10002
555.147	10026
557.6231	10004
560.1005	10069
562.5773	10032
565.0534	10050
567.5308	10201
570.0056	10101
572.4776	10097
574.951	10140
577.4237	10048
579.8978	10260
582.3671	10203
584.8378	10333
587.3079	10188
589.7773	10212
592.244	10272
594.714	10249
597.1793	10274
599.6461	10323
602.1121	10262
604.5754	10173
607.0421	10359
609.5042	10234
611.9675	10421
614.4282	10341
616.8902	10342
619.3515	10476
621.8122	10271
624.2702	10304
626.7296	10251
629.1863	10324
631.6423	10339
634.1017	10376
636.5563	10362
639.0104	10371
641.4658	10274
643.9185	10340
646.3725	10484
648.8239	10411
651.2766	10357
653.7266	10467
656.176	10554
658.6247	10682
661.0748	10602
663.5242	10561
665.9709	10552
668.417	10604
670.8624	10684
673.3092	10716
675.7533	10699
678.1968	10667
680.6395	10667
683.0817	10835
685.5251	10652
687.9659	10807
690.4061	10760
692.8456	10645
695.2844	10755
697.7226	10824
700.1621	10961
702.599	10738
705.0332	10758
707.4688	10896
709.9036	10893
712.3399	10862
714.7735	10908
717.2044	11024
719.6367	10939
722.0683	11055
724.4993	10978
726.9296	11071
729.3593	11042
731.7883	11019
734.2147	11187
736.6423	11183
739.0714	11310
741.4958	11246
743.9216	11261
746.3447	11203
748.7691	11413
751.1929	11328
753.616	11400
756.0366	11434
758.4584	11449
760.8776	11365
763.2982	11426
765.718	11554
768.1373	11497
770.5539	11565
772.9698	11593
775.3871	11459
777.8038	11413
780.2178	11460
782.6332	11528
785.0459	11527
787.458	11475
789.8714	11406
792.2842	11584
794.6943	11439
797.1038	11692
799.5127	11531
801.9209	11495
804.3324	11673
806.7393	11699
809.1456	11548
811.5513	11714
813.9562	11703
816.3625	11874
818.7663	11695
821.1693	11609
823.5718	11645
825.9735	11627
828.3746	11546
830.7771	11799
833.177	11748
835.5762	11847
837.9747	11632
840.3727	11671
842.772	11946
845.1666	11691
847.5626	11776
849.958	12004
852.3527	11949
854.7488	11919
857.1403	11976
859.5331	11898
861.9253	11891
864.3168	11766
866.7057	11731
869.098	11862
871.4876	11923
873.8746	11615
876.263	11900
878.6487	11936
881.0378	11743
883.4243	11756
885.8081	11909
888.1933	11725
890.5759	11709
892.9598	11844
895.343	11935
897.7256	11815
900.1057	11767
902.4871	11917
904.8659	11885
907.246	12023
909.6254	11821
912.0023	12042
914.3786	12145
916.7562	12118
919.1331	12307
921.5074	12416
923.8831	12496
926.2562	12265
928.6287	12337
931.0005	12252
933.3757	12186
935.7462	12370
938.1162	12376
940.4855	12380
942.8542	12399
945.2242	12349
947.5916	12528
949.9584	12785
952.3266	12756
954.6921	12936
957.0571	13030
959.4233	13305
961.787	13402
964.15	13163
966.5125	13036
968.8742	12957
971.2354	12694
973.5959	12541
975.9559	12459
978.3151	12335
980.6738	12319
983.0338	12346
985.3912	12114
987.7461	12248
990.1022	12231
992.4578	12112
994.8127	12278
997.1689	12297
999.5207	12229
1001.874	12317
1004.226	12255
1006.576	12348
1008.929	12255
1011.28	12330
1013.628	12265
1015.977	12372
1018.324	12225
1020.674	12398
1023.019	12277
1025.366	12385
1027.713	12462
1030.056	12365
1032.399	12311
1034.746	12334
1037.087	12394
1039.431	12277
1041.771	12349
1044.113	12531
1046.454	12494
1048.793	12527
1051.133	12423
1053.471	12402
1055.807	12408
1058.146	12356
1060.483	12540
1062.818	12472
1065.153	12609
1067.489	12544
1069.822	12515
1072.156	12609
1074.488	12405
1076.82	12601
1079.15	12564
1081.48	12579
1083.814	12480
1086.143	12588
1088.471	12541
1090.799	12441
1093.126	12403
1095.452	12623
1097.78	12468
1100.105	12700
1102.43	12617
1104.754	12757
1107.077	12672
1109.4	12582
1111.722	12658
1114.044	12708
1116.365	12722
1118.685	12537
1121.005	12800
1123.324	12675
1125.643	12836
1127.961	12847
1130.278	12608
1132.595	12748
1134.911	12839
1137.226	12856
1139.541	12559
1141.854	12765
1144.167	12694
1146.482	12734
1148.793	12640
1151.105	12860
1153.414	12721
1155.725	12579
1158.033	12855
1160.344	12794
1162.651	12742
1164.959	12666
1167.265	12617
1169.572	12685
1171.878	12816
1174.184	12688
1176.488	12899
1178.79	12749
1181.094	12690
1183.396	12835
1185.699	12814
1188.001	12812
1190.301	12794
1192.6	12692
1194.9	12873
1197.2	12763
1199.497	12801
1201.794	12785
1204.09	12748
1206.387	12853
1208.684	12876
1210.978	12798
1213.272	12911
1215.565	12773
1217.858	12781
1220.15	12745
1222.443	12704
1224.734	12865
1227.024	12897
1229.313	12841
1231.602	12964
1233.892	12932
1236.18	13170
1238.467	13029
1240.754	12978
1243.04	13165
1245.325	13074
1247.612	13096
1249.896	13208
1252.178	13101
1254.461	13105
1256.743	13232
1259.027	13187
1261.308	13116
1263.587	13233
1265.867	12973
1268.146	13408
1270.425	13279
1272.703	13104
1274.981	13145
1277.256	13188
1279.532	13188
1281.808	13119
1284.083	13085
1286.358	13189
1288.63	13123
1290.904	13063
1293.175	13042
1295.449	13008
1297.719	13225
1299.99	12920
1302.259	13269
1304.529	12964
1306.798	12971
1309.065	13120
1311.333	13004
1313.599	13039
1315.866	13064
1318.131	13036
1320.396	13255
1322.66	13011
1324.925	13049
1327.187	13039
1329.448	12955
1331.711	13106
1333.974	13220
1336.234	12909
1338.493	13063
1340.752	13020
1343.01	13053
1345.269	13159
1347.526	13266
1349.784	13092
1352.04	13164
1354.295	13132
1356.552	13181
1358.806	13149
1361.059	13141
1363.312	13077
1365.564	13095
1367.818	13267
1370.069	13174
1372.318	13218
1374.568	12979
1376.817	13245
1379.066	13346
1381.316	13098
1383.564	13199
1385.809	13271
1388.056	13275
1390.301	13268
1392.549	13301
1394.793	13522
1397.036	13329
1399.279	13560
1401.522	13432
1403.763	13439
1406.007	13485
1408.248	13522
1410.487	13312
1412.727	13458
1414.965	13376
1417.205	13514
1419.442	13516
1421.68	13429
1423.915	13554
1426.152	13467
1428.388	13344
1430.623	13528
1432.857	13575
1435.091	13416
1437.323	13750
1439.556	13583
1441.789	13658
1444.019	13562
1446.25	13571
1448.48	13634
1450.708	13508
1452.938	13880
1455.167	13679
1457.394	13615
1459.62	13639
1461.846	13679
1464.073	13808
1466.299	13491
1468.523	13582
1470.746	13624
1472.969	13329
1475.191	13320
1477.415	13387
1479.636	13415
1481.858	13318
1484.078	13414
1486.298	13330
1488.518	13464
1490.736	13148
1492.954	13238
1495.169	13224
1497.386	13254
1499.602	13250
1501.819	13419
1504.034	13213
1506.248	13152
1508.462	12850
1510.675	13226
1512.888	13066
1515.1	13339
1517.311	13042
1519.522	13153
1521.732	12933
1523.942	13238
1526.151	13192
1528.36	12970
1530.566	13007
1532.773	13191
1534.98	13230
1537.187	13206
1539.392	13232
1541.596	13322
1543.801	13383
1546.005	13297
1548.208	13465
1550.411	13445
1552.612	13366
1554.814	13483
1557.013	13337
1559.212	13513
1561.414	13299
1563.612	13264
1565.811	13277
1568.007	13389
1570.203	13575
1572.403	13510
1574.598	13588
1576.792	13523
1578.988	13575
1581.181	13465
1583.376	13475
1585.568	13479
1587.761	13502
1589.952	13497
1592.143	13581
1594.333	13668
1596.524	13670
1598.715	13586
1600.903	13676
1603.091	13695
1605.278	13845
1607.466	13556
1609.652	13694
1611.838	13750
1614.023	13683
1616.207	13635
1618.391	13621
1620.576	13650
1622.759	13483
1624.941	13584
1627.123	13653
1629.304	13714
1631.484	13703
1633.664	13680
1635.844	13785
1638.022	13546
1640.201	13726
1642.38	13737
1644.556	13706
1646.732	13719
1648.908	13558
1651.084	13897
1653.257	13727
1655.433	13612
1657.607	13781
1659.779	13716
1661.951	13690
1664.122	13573
1666.295	13727
1668.467	13812
1670.635	13662
1672.805	13641
1674.973	13753
1677.142	13780
1679.31	13663
1681.478	13680
1683.644	13799
1685.81	13781
1687.975	13572
1690.142	13633
1692.305	13701
1694.468	13643
1696.632	13753
1698.794	13566
1700.957	13638
1703.119	13652
1705.279	13667
1707.439	13667
1709.598	13691
1711.758	13594
1713.917	13615
1716.075	13423
1718.231	13481
1720.388	13520
1722.543	13508
1724.702	13613
1726.856	13426
1729.01	13529
1731.164	13438
1733.317	13548
1735.471	13620
1737.623	13552
1739.774	13569
1741.925	13620
1744.075	13515
1746.225	13670
1748.376	13570
1750.524	13666
1752.672	13461
1754.82	13589
1756.965	13561
1759.113	13541
1761.259	13643
1763.405	13660
1765.549	13668
1767.694	13654
1769.836	13751
1771.981	13632
1774.123	13621
1776.264	13628
1778.405	13820
1780.546	13686
1782.687	13693
1784.827	13744
1786.966	13682
1789.103	13785
1791.242	13651
1793.381	13680
1795.517	13829
1797.653	13665
1799.788	13785
1801.923	13559
1804.057	13586
1806.193	13654
1808.326	13522
1810.457	13570
1812.59	13521
1814.721	13788
1816.855	13646
1818.984	13693
1821.113	13648
1823.244	13666
1825.372	13624
1827.499	13720
1829.63	13494
1831.756	13817
1833.882	13725
1836.007	13565
1838.132	13641
1840.26	13607
1842.384	13620
1844.507	13645
1846.63	13474
1848.752	13522
1850.875	13398
1852.996	13271
1855.118	13313
1857.238	13641
1859.358	13614
1861.477	13522
1863.597	13454
1865.715	13453
1867.832	13537
1869.948	13488
1872.064	13418
1874.181	13661
1876.297	13418
1878.411	13417
1880.526	13573
1882.639	13537
1884.752	13475
1886.865	13488
1888.977	13399
1891.089	13555
1893.2	13355
1895.308	13461
1897.42	13604
1899.53	13517
1901.639	13590
1903.745	13598
1905.853	13475
1907.962	13465
1910.067	13473
1912.174	13651
1914.278	13546
1916.383	13658
1918.486	13799
1920.592	13742
1922.694	13627
1924.797	13515
1926.898	13626
1929	13719
1931.102	13366
1933.203	13623
1935.301	13777
1937.401	13631
1939.499	13635
1941.598	13411
1943.697	13796
1945.793	13707
1947.888	13866
1949.985	13829
1952.08	13464
1954.176	13593
1956.269	13657
1958.364	13482
1960.457	13503
1962.549	13752
1964.642	13633
1966.733	13624
1968.823	13568
1970.913	13640
1973.005	13583
1975.093	13615
1977.184	13534
1979.271	13546
1981.359	13448
1983.446	13399
1985.532	13455
1987.619	13533
1989.705	13467
1991.789	13539
1993.874	13580
1995.956	13605
1998.041	13568
2000.123	13503
2002.206	13465
2004.287	13573
2006.368	13330
2008.449	13323
2010.529	13476
2012.609	13394
2014.688	13389
2016.766	13352
2018.843	13537
2020.922	13212
2022.999	13450
2025.074	13531
2027.15	13344
2029.225	13331
2031.299	13311
2033.375	13393
2035.447	13483
2037.52	13415
2039.592	13379
2041.664	13519
2043.736	13441
2045.807	13344
2047.876	13568
2049.947	13565
2052.015	13298
2054.086	13409
2056.153	13360
2058.221	13258
2060.288	13452
2062.353	13562
2064.42	13441
2066.486	13581
2068.55	13468
2070.614	13336
2072.678	13333
2074.741	13433
2076.805	13456
2078.866	13325
2080.929	13552
2082.99	13409
2085.049	13550
2087.109	13327
2089.17	13497
2091.228	13392
2093.286	13456
2095.344	13576
2097.4	13424
2099.46	13360
2101.516	13355
2103.572	13422
2105.626	13378
2107.679	13340
2109.735	13246
2111.788	13252
2113.841	13340
2115.894	13365
2117.945	13287
2119.997	13297
2122.049	13304
2124.1	13383
2126.148	13317
2128.197	13414
2130.246	13305
2132.296	13261
2134.342	13254
2136.39	13329
2138.437	13403
2140.483	13283
2142.527	13237
2144.574	13447
2146.619	13225
2148.661	13097
2150.705	13203
2152.747	13079
2154.792	13003
2156.832	13356
2158.874	13288
2160.915	13052
2162.954	13184
2164.995	13176
2167.034	13219
2169.072	12992
2171.111	13143
2173.148	13084
2175.186	13208
2177.223	13155
2179.258	13051
2181.294	13189
2183.328	13089
2185.362	13045
2187.398	13046
2189.431	12906
2191.463	12898
2193.495	13091
2195.528	13002
2197.56	13374
2199.59	12933
2201.62	13030
2203.649	12961
2205.678	12914
2207.708	12916
2209.737	12919
2211.764	12885
2213.791	13006
2215.817	12870
2217.843	12928
2219.87	12964
2221.895	12888
2223.919	12868
2225.942	12675
2227.966	12839
2229.988	12911
2232.012	12847
2234.032	12941
2236.054	13046
2238.074	12828
2240.095	12917
2242.116	12925
2244.135	12778
2246.153	12872
2248.171	12835
2250.188	12864
2252.208	12803
2254.223	12873
2256.239	12847
2258.255	12632
2260.269	12740
2262.283	12906
2264.3	12683
2266.312	12869
2268.325	12849
2270.336	12757
2272.349	12915
2274.362	12837
2276.372	12904
2278.383	12894
2280.392	12952
2282.402	12789
2284.409	12869
2286.418	12697
2288.427	12894
2290.433	12775
2292.441	12899
2294.446	12832
2296.453	12671
2298.459	12755
2300.463	12780
2302.466	12834
2304.471	12796
2306.475	12804
2308.477	12738
2310.478	12666
2312.481	12690
2314.481	12814
2316.481	12696
2318.482	12525
2320.482	12726
2322.48	12620
2324.48	12535
2326.478	12634
2328.476	12670
2330.473	12558
2332.469	12605
2334.465	12522
2336.46	12574
2338.454	12537
2340.45	12591
2342.444	12524
2344.437	12585
2346.43	12732
2348.421	12507
2350.414	12433
2352.405	12592
2354.396	12481
2356.386	12508
2358.376	12262
2360.366	12527
2362.355	12461
2364.343	12402
2366.331	12354
2368.317	12495
2370.304	12416
2372.292	12186
2374.278	12446
2376.262	12438
2378.247	12587
2380.23	12333
2382.216	12480
2384.199	12383
2386.181	12356
2388.163	12335
2390.144	12432
2392.127	12321
2394.107	12242
2396.087	12220
2398.066	12249
2400.046	12340
2402.023	12387
2404.004	12301
2405.981	12210
2407.957	12264
2409.934	12189
2411.91	12199
2413.886	12322
2415.862	12202
2417.836	12251
2419.809	12261
2421.784	12187
2423.756	12170
2425.73	12170
2427.701	12130
2429.672	12296
2431.644	12132
2433.615	12174
2435.586	12165
2437.555	12298
2439.523	12201
2441.491	12297
2443.459	12180
2445.428	12294
2447.395	12241
2449.361	12130
2451.327	12041
2453.292	12086
2455.257	12085
2457.223	12110
2459.187	12014
2461.15	12076
2463.113	12048
2465.076	11968
2467.039	12018
2468.999	12084
2470.96	11993
2472.921	12025
2474.881	12125
2476.841	11899
2478.8	12094
2480.759	12035
2482.717	11834
2484.675	12137
2486.63	11827
2488.589	12095
2490.545	12069
2492.5	11984
2494.455	12085
2496.408	11911
2498.364	12041
2500.318	11890
2502.27	11970
2504.223	11910
2506.174	11886
2508.126	11976
2510.078	11842
2512.03	11823
2513.979	11959
2515.927	11882
2517.877	12041
2519.826	11769
2521.775	11904
2523.722	11954
2525.668	11746
2527.616	11807
2529.561	11818
2531.508	11935
2533.452	11795
2535.398	11661
2537.342	11905
2539.284	11723
2541.229	11918
2543.173	11890
2545.114	11786
2547.055	11721
2548.996	11977
2550.938	11798
2552.878	11735
2554.817	11811
2556.756	11899
2558.695	11753
2560.633	11698
2562.572	11659
2564.509	11822
2566.445	11753
2568.382	11712
2570.317	11710
2572.254	11782
2574.189	11900
2576.123	11698
2578.057	11819
2579.99	11758
2581.923	11714
2583.855	11845
2585.788	11854
2587.719	11828
2589.65	11969
2591.579	11623
2593.511	11766
2595.44	11838
2597.37	11946
2599.297	11805
2601.225	11793
2603.153	11784
2605.08	11759
2607.007	11849
2608.932	11727
2610.858	11731
2612.782	11669
2614.709	11695
2616.632	11727
2618.556	11784
2620.478	11886
2622.401	11716
2624.324	11914
2626.247	11579
2628.167	11842
2630.088	11891
2632.008	11710
2633.928	11866
2635.848	11610
2637.766	11671
2639.684	11872
2641.603	11656
2643.519	11659
2645.437	11703
2647.353	11853
2649.27	11644
2651.184	11854
2653.099	11662
2655.014	11646
2656.928	11745
2658.842	11796
2660.755	11744
2662.667	11869
2664.579	11675
2666.491	11718
2668.402	11664
2670.312	11715
2672.222	11682
2674.132	11591
2676.042	11611
2677.951	11681
2679.859	11510
2681.766	11413
2683.674	11561
2685.582	11542
2687.488	11529
2689.392	11653
2691.298	11520
2693.202	11599
2695.107	11548
2697.012	11504
2698.914	11651
2700.817	11427
2702.72	11444
2704.622	11517
2706.524	11484
2708.425	11422
2710.326	11449
2712.225	11387
2714.125	11327
2716.024	11515
2717.923	11333
2719.822	11297
2721.719	11390
2723.616	11426
2725.512	11417
2727.41	11425
2729.305	11273
2731.201	11273
2733.095	11321
2734.99	11261
2736.884	11307
2738.778	11359
2740.67	11306
2742.562	11277
2744.455	11485
2746.346	11300
2748.238	11369
2750.129	11478
2752.018	11250
2753.907	11231
2755.797	11301
2757.687	11406
2759.575	11362
2761.462	11329
2763.349	11238
2765.237	11333
2767.124	11349
2769.009	11117
2770.894	11237
2772.779	11149
2774.663	11360
2776.547	11265
2778.431	11211
2780.314	11505
2782.197	11270
2784.078	11245
2785.96	11243
2787.842	11353
2789.723	11102
2791.603	11161
2793.483	11115
2795.362	11235
2797.241	11167
2799.121	11159
2800.997	11081
2802.874	11019
2804.751	10996
2806.628	10897
2808.506	11256
2810.38	11079
2812.255	11121
2814.13	11034
2816.003	11199
2817.878	11062
2819.752	11200
2821.623	11206
2823.496	11006
2825.368	11242
2827.238	11071
2829.111	11234
2830.98	11048
2832.851	11100
2834.719	11061
2836.589	11161
2838.458	11172
2840.327	11024
2842.193	10998
2844.061	10909
2845.927	11070
2847.794	11063
2849.66	11177
2851.525	11051
2853.39	11095
2855.254	11042
2857.117	10984
2858.983	11167
2860.845	11042
2862.707	11110
2864.569	11349
2866.431	11126
2868.293	11183
2870.154	11231
2872.013	11495
2873.873	11146
2875.733	11266
2877.592	11313
2879.451	11367
2881.309	11473
2883.166	11524
2885.022	11477
2886.879	11591
2888.736	11602
2890.591	11446
2892.446	11522
2894.301	11501
2896.155	11487
2898.009	11543
2899.863	11632
2901.716	11270
2903.568	11342
2905.419	11455
2907.27	11480
2909.123	11457
2910.973	11448
2912.824	11513
2914.673	11620
2916.521	11426
2918.372	11606
2920.22	11628
2922.067	11600
2923.914	11688
2925.761	11726
2927.607	11792
2929.455	11747
2931.301	11816
2933.144	11808
2934.99	11781
2936.833	11950
2938.678	11811
2940.522	11816
2942.364	11980
2944.207	12035
2946.048	12164
2947.891	12164
2949.731	12251
2951.571	12168
2953.412	12100
2955.25	12203
2957.09	11947
2958.93	11758
2960.767	11889
2962.606	11882
2964.443	11861
2966.279	11645
2968.116	11682
2969.953	11478
2971.788	11486
2973.623	11494
2975.457	11453
2977.292	11419
2979.127	11293
2980.959	11391
2982.792	11127
2984.624	11124
2986.455	11032
2988.288	11197
2990.119	11089
2991.949	11143
2993.779	11117
2995.608	11053
2997.439	10998
2999.268	10936
3001.096	10828
3002.923	10705
3004.751	10690
3006.578	10802
3008.406	10648
3010.232	10728
3012.057	10630
3013.883	10412
3015.706	10642
3017.532	10537
3019.356	10372
3021.179	10391
3023.002	10509
3024.823	10393
3026.646	10424
3028.469	10235
3030.289	10469
3032.11	10253
3033.93	10251
3035.749	10409
3037.57	10217
3039.39	10345
3041.207	10324
3043.026	10234
3044.842	10285
3046.661	10248
3048.477	10260
3050.294	10423
3052.109	10274
3053.925	10091
3055.739	10127
3057.555	10348
3059.368	10134
3061.181	10226
3062.995	10023
3064.807	10321
3066.62	10082
3068.433	10328
3070.243	10214
3072.054	10176
3073.865	10096
3075.675	10005
3077.485	10184
3079.293	9975
3081.102	10020
3082.911	9928
3084.719	9962
3086.527	10007
3088.333	9916
3090.139	9985
3091.945	9903
3093.75	9947
3095.557	9938
3097.361	9897
3099.165	10125
3100.969	9884
3102.772	9778
3104.575	9837
3106.379	9776
3108.181	9813
3109.982	9735
3111.783	9738
3113.584	9865
3115.386	9842
3117.186	9750
3118.985	9855
3120.783	9730
3122.582	9899
3124.381	9678
3126.179	9712
3127.975	9799
3129.772	9742
3131.569	9667
3133.365	9702
3135.161	9605
3136.956	9627
3138.751	9697
3140.544	9546
3142.338	9602
3144.132	9740
3145.925	9531
3147.717	9547
3149.509	9603
3151.301	9584
3153.091	9529
3154.884	9543
3156.673	9321
3158.462	9524
3160.252	9464
3162.041	9486
3163.831	9553
3165.618	9526
3167.405	9524
3169.193	9345
3170.979	9556
3172.767	9372
3174.553	9513
3176.338	9431
3178.123	9488
3179.907	9201
3181.692	9457
3183.477	9459
3185.259	9459
3187.042	9305
3188.824	9411
3190.607	9381
3192.389	9268
3194.17	9229
3195.951	9386
3197.73	9187
3199.51	9295
3201.289	9373
3203.07	9379
3204.848	9297
3206.626	9287
3208.403	9291
3210.18	9401
3211.959	9261
3213.735	9226
3215.511	9190
3217.285	9403
3219.06	9314
3220.836	9227
3222.611	9326
3224.384	9342
3226.158	9249
3227.929	9089
3229.702	9281
3231.476	9324
3233.248	9287
3235.018	9243
3236.789	9294
3238.56	9145
3240.33	9153
3242.1	9167
3243.869	9157
3245.637	9254
3247.405	9121
3249.172	9220
3250.941	9207
3252.707	9240
3254.474	9182
3256.24	9194
3258.006	9194
3259.772	9357
3261.537	9189
3263.301	9200
3265.065	9012
3266.828	9102
3268.592	9115
3270.355	9207
3272.117	9087
3273.878	8996
3275.64	9136
3277.401	9072
3279.162	9096
3280.922	9151
3282.682	9053
3284.441	9076
3286.199	9107
3287.959	9097
3289.716	9166
3291.475	9099
3293.232	9020
3294.988	8964
3296.744	9008
3298.501	9103
3300.256	8970
3302.011	9036
3303.766	8988
3305.52	9017
3307.275	8968
3309.028	9018
3310.781	9049
3312.533	9110
3314.285	9063
3316.038	8977
3317.789	8949
3319.54	8884
3321.289	9048
3323.039	9055
3324.789	8888
3326.539	8950
3328.288	8994
3330.035	9111
3331.783	8867
3333.531	8894
3335.28	8751
3337.025	8781
3338.771	8831
3340.518	8839
3342.262	8840
3344.009	8899
3345.753	8839
3347.497	8727
3349.24	8948
3350.983	8701
3352.726	8841
3354.469	8966
3356.212	8859
3357.952	8805
3359.694	8904
3361.434	8821
3363.176	8689
3364.916	8739
3366.654	8693
3368.394	8779
3370.132	8611
3371.871	8777
3373.61	8747
3375.346	8683
3377.083	8680
3378.82	8681
3380.556	8668
3382.292	8703
3384.027	8688
3385.763	8538
3387.497	8632
3389.231	8619
3390.965	8482
3392.698	8663
3394.431	8647
3396.164	8571
3397.896	8759
3399.627	8683
3401.36	8613
3403.09	8639
3404.82	8579
3406.55	8542
3408.279	8552
3410.01	8553
3411.738	8579
3413.467	8676
3415.194	8481
3416.92	8577
3418.647	8717
3420.375	8425
3422.102	8538
3423.827	8481
3425.553	8555
3427.277	8420
3429.003	8366
3430.727	8503
3432.451	8491
3434.173	8410
3435.896	8451
3437.62	8387
3439.343	8324
3441.063	8401
3442.785	8370
3444.505	8290
3446.226	8347
3447.948	8342
3449.666	8285
3451.386	8264
3453.104	8315
3454.823	8346
3456.541	8390
3458.259	8237
3459.976	8329
3461.693	8142
3463.408	8166
3465.125	8173
3466.841	8250
3468.556	8036
3470.271	8088
3471.985	8123
3473.698	8156
3475.414	8099
3477.126	8156
3478.838	8073
3480.55	8080
3482.263	8106
3483.975	8111
3485.686	8169
3487.396	7973
3489.106	8056
3490.817	8046
3492.526	8118
3494.236	8127
3495.944	7955
3497.652	8095
3499.359	8045
3501.066	8074
3502.775	7960
3504.481	8039
3506.187	8065
3507.893	8031
3509.598	7928
3511.304	8017
3513.009	7988
3514.713	7975
3516.417	7877
3518.12	7875
3519.821	8006
3521.525	7863
3523.228	7845
3524.929	7951
3526.631	7873
3528.33	7904
3530.032	7848
3531.733	7982
3533.433	7766
3535.131	7842
3536.83	7828
3538.529	7852
3540.227	7795
3541.925	7785
3543.623	7843
3545.319	7887
3547.016	7818
3548.712	7779
3550.408	7665
3552.103	7662
3553.798	7825
3555.491	7705
3557.188	7798
3558.88	7740
3560.574	7703
3562.266	7664
3563.959	7737
3565.651	7613
3567.343	7584
3569.035	7691
3570.725	7648
3572.415	7677
3574.106	7652
3575.797	7611
3577.485	7665
3579.174	7574
3580.863	7624
3582.551	7535
3584.238	7747
3585.926	7499
3587.613	7650
3589.3	7629
3590.986	7560
3592.671	7481
3594.357	7556
3596.042	7456
3597.726	7366
3599.41	7470
3601.094	7544
3602.778	7445
3604.461	7457
3606.143	7395
3607.825	7368
3609.507	7385
3611.188	7499
3612.87	7294
3614.551	7441
3616.229	7499
3617.909	7321
3619.589	7346
3621.269	7273
3622.948	7328
3624.625	7389
3626.302	7425
3627.98	7238
3629.657	7204
3631.334	7243
3633.01	7318
3634.686	7296
3636.361	7102
3638.036	7269
3639.712	7286
3641.385	7177
3643.06	7295
3644.732	7194
3646.405	7240
3648.08	7090
3649.751	7114
3651.424	7064
3653.094	7213
3654.766	7144
3656.436	7092
3658.106	7128
3659.777	7060
3661.446	7098
3663.115	7143
3664.783	7082
3666.452	7177
3668.121	7074
3669.788	7116
3671.454	7053
3673.121	7134
3674.789	7005
3676.455	7229
3678.12	7119
3679.784	7088
3681.45	7090
3683.114	7107
3684.779	7064
3686.442	7103
3688.105	7059
3689.768	7063
3691.43	7066
3693.093	6924
3694.754	6972
3696.415	7049
3698.076	7019
3699.736	7105
3701.396	7035
3703.057	7057
3704.716	7025
3706.375	6953
3708.034	6927
3709.692	6980
3711.351	7013
3713.008	7006
3714.665	6918
3716.321	6946
3717.977	6885
3719.634	6921
3721.29	6926
3722.945	6914
3724.598	6813
3726.253	6941
3727.907	6850
3729.561	6917
3731.214	6939
3732.867	6869
3734.518	6812
3736.171	6821
3737.824	6931
3739.474	6835
3741.125	6832
3742.775	6794
3744.425	6756
3746.074	6779
3747.725	6741
3749.373	6703
3751.022	6845
3752.669	6890
3754.318	6842
3755.966	6681
3757.612	6727
3759.259	6745
3760.905	6879
3762.55	6696
3764.197	6683
3765.842	6798
3767.486	6635
3769.131	6675
3770.774	6744
3772.417	6644
3774.061	6667
3775.705	6587
3777.347	6654
3778.988	6621
3780.629	6750
3782.271	6545
3783.912	6611
3785.552	6573
3787.192	6604
3788.831	6640
3790.472	6614
3792.112	6520
3793.75	6641
3795.388	6632
3797.024	6554
3798.661	6581
3800.3	6579
3801.936	6519
3803.572	6572
3805.208	6562
3806.844	6620
3808.48	6522
3810.115	6492
3811.748	6463
3813.382	6489
3815.016	6506
3816.649	6442
3818.283	6524
3819.914	6446
3821.547	6428
3823.178	6479
3824.809	6555
3826.441	6618
3828.072	6389
3829.701	6469
3831.331	6414
3832.96	6422
3834.591	6410
3836.219	6383
3837.847	6446
3839.475	6398
3841.102	6472
3842.729	6429
3844.357	6268
3845.984	6400
3847.609	6339
3849.234	6438
3850.86	6295
3852.485	6374
3854.11	6362
3855.734	6345
3857.357	6339
3858.981	6421
3860.603	6267
3862.227	6228
3863.848	6282
3865.471	6288
3867.092	6277
3868.713	6268
3870.334	6241
3871.954	6335
3873.575	6282
3875.194	6280
3876.813	6123
3878.433	6237
3880.051	6238
3881.669	6206
3883.286	6036
3884.904	6270
3886.52	6167
3888.138	6225
3889.754	6219
3891.37	6138
3892.985	6155
3894.6	6157
3896.216	6151
3897.831	6157
3899.444	6159
3901.058	6301
3902.67	6093
3904.283	6147
3905.897	6165
3907.509	6204
3909.121	6106
3910.731	6115
3912.342	6191
3913.954	6127
3915.563	6054
3917.174	6063
3918.783	6149
3920.391	6156
3922.002	6017
3923.611	6056
3925.218	6000
3926.826	6013
3928.432	6074
3930.039	6079
3931.647	6045
3933.253	6085
3934.859	6026
3936.464	6026
3938.068	6123
3939.675	6020
3941.278	5939
3942.883	6192
3944.486	6081
3946.089	5973
3947.692	5929
3949.295	5967
3950.898	6033
3952.499	5932
3954.1	5968
3955.7	5960
3957.303	5999
3958.903	5887
3960.502	5979
3962.101	5835
3963.7	5949
3965.301	5923
3966.899	5929
3968.497	5968
3970.094	5926
3971.691	5840
3973.288	5839
3974.885	5846
3976.481	5777
3978.077	5866
3979.672	5759
3981.267	5957
3982.863	5896
3984.457	5774
3986.051	5806
3987.645	5829
3989.238	5746
3990.831	5754
3992.425	5738
3994.017	5742
3995.607	5750
3997.199	5741
3998.79	5785
4000.382	5749
4001.973	5716
4003.561	5731
4005.151	5691
4006.741	5785
4008.331	5677
4009.918	5693
4011.507	5610
4013.095	5651
4014.681	5542
4016.269	5583
4017.856	5561
4019.443	5643
4021.028	5565
4022.614	5575
4024.199	5638
4025.785	5485
4027.37	5612
4028.953	5589
4030.536	5650
4032.12	5555
4033.704	5615
4035.287	5460
4036.869	5511
4038.45	5553
4040.032	5541
4041.613	5464
4043.195	5423
4044.776	5465
4046.356	5594
4047.935	5454
4049.515	5414
4051.095	5428
4052.674	5529
4054.251	5492
4055.829	5453
4057.406	5598
4058.985	5371
4060.562	5501
4062.139	5435
4063.715	5480
4065.29	5275
4066.865	5403
4068.442	5368
4070.016	5510
4071.59	5400
4073.164	5321
4074.738	5357
4076.312	5456
4077.885	5371
4079.458	5408
4081.03	5471
4082.602	5375
4084.173	5341
4085.745	5333
4087.315	5304
4088.886	5417
4090.456	5330
4092.026	5305
4093.596	5297
4095.165	5446
4096.734	5183
4098.301	5286
4099.869	5293
4101.437	5358
4103.006	5282
4104.572	5315
4106.139	5261
4107.704	5379
4109.27	5307
4110.837	5282
4112.401	5241
4113.966	5191
4115.53	5217
4117.094	5292
4118.659	5223
4120.223	5256
4121.785	5186
4123.347	5222
4124.909	5214
4126.471	5225
4128.034	5131
4129.595	5213
4131.155	5155
4132.716	5103
4134.275	5220
4135.836	5216
4137.395	5086
4138.955	5051
4140.513	5145
4142.071	5140
4143.628	5077
4145.188	5118
4146.745	4956
4148.302	5085
4149.858	5029
4151.414	5033
4152.971	5103
4154.526	5144
4156.081	5045
4157.635	4931
4159.189	5012
4160.745	5003
4162.298	5081
4163.852	5066
4165.405	5009
4166.957	5052
4168.51	4962
4170.063	5000
4171.614	4962
4173.166	4873
4174.717	4985
4176.267	4980
4177.817	5042
4179.368	4832
4180.917	4953
4182.466	4956
4184.016	4946
4185.564	4915
4187.112	4887
4188.66	4848
4190.207	4932
4191.754	4871
4193.301	4942
4194.848	4931
4196.394	4863
4197.94	4866
4199.484	4933
4201.03	4793
4202.575	4824
4204.12	4848
4205.663	4820
4207.207	4815
4208.75	4870
4210.292	4751
4211.836	4848
4213.378	4768
4214.92	4844
4216.46	4846
4218.002	4890
4219.544	4802
4221.083	4846
4222.625	4748
4224.164	4814
4225.703	4818
4227.244	4763
4228.782	4766
4230.32	4802
4231.857	4730
4233.395	4754
4234.933	4829
4236.471	4750
4238.007	4719
4239.542	4706
4241.078	4692
4242.614	4789
4244.15	4689
4245.685	4617
4247.219	4716
4248.753	4653
4250.287	4650
4251.82	4720
4253.354	4670
4254.887	4646
4256.419	4706
4257.951	4724
4259.483	4696
4261.016	4667
4262.547	4778
4264.078	4609
4265.608	4597
4267.137	4650
4268.668	4714
4270.197	4599
4271.727	4617
4273.254	4596
4274.783	4608
4276.311	4619
4277.84	4565
4279.366	4708
4280.894	4555
4282.42	4682
4283.946	4600
4285.473	4614
4286.998	4707
4288.523	4672
4290.047	4610
4291.572	4470
4293.096	4584
4294.622	4612
4296.144	4515
4297.668	4446
4299.19	4552
4300.713	4583
4302.236	4496
4303.758	4544
4305.279	4559
4306.799	4505
4308.321	4490
4309.842	4410
4311.361	4512
4312.882	4567
4314.401	4411
