400.0961	3478
402.6185	3489
405.1424	3527
407.6635	3469
410.1838	3476
412.7035	3436
415.2225	3541
417.7388	3564
420.2585	3585
422.7754	3665
425.2917	3759
427.8072	3741
430.3221	3820
432.8363	3767
435.3498	3790
437.8626	3756
440.3727	3666
442.8841	3843
445.3969	3688
447.907	3670
450.4142	3732
452.9229	3686
455.4289	3683
457.9362	3687
460.4449	3687
462.9488	3701
465.454	3663
467.9566	3725
470.4604	3676
472.9637	3596
475.4662	3650
477.966	3545
480.4671	3670
482.9656	3687
485.4633	3640
487.9645	3666
490.4608	3688
492.9566	3615
495.4536	3706
497.948	3703
500.4437	3703
502.9387	3747
505.431	3734
507.9226	3701
510.4136	3808
512.9079	3778
515.3975	3689
517.8864	3798
520.3746	3811
522.8622	3704
525.3491	3788
527.8394	3801
530.3249	3777
532.8098	3842
535.2939	3780
537.7774	3723
540.2623	3862
542.7444	3820
545.2259	3701
547.7067	3854
550.1868	3917
552.6683	3803
555.147	3811
557.6231	3864
560.1005	3853
562.5773	3880
565.0534	3843
567.5308	3906
570.0056	3984
572.4776	3993
574.951	3943
577.4237	3994
579.8978	3987
582.3671	4083
584.8378	4042
587.3079	4043
589.7773	3976
592.244	4038
594.714	4020
597.1793	3998
599.6461	4042
602.1121	3963
604.5754	3949
607.0421	3936
609.5042	3832
611.9675	3890
614.4282	3919
616.8902	3997
619.3515	3987
621.8122	3898
624.2702	3884
626.7296	3922
629.1863	3930
631.6423	3853
634.1017	3832
636.5563	3887
639.0104	3862
641.4658	3908
643.9185	3883
646.3725	3921
648.8239	3924
651.2766	3940
653.7266	3851
656.176	3881
658.6247	3869
661.0748	3958
663.5242	3939
665.9709	3923
668.417	3956
670.8624	3972
673.3092	3937
675.7533	3931
678.1968	4043
680.6395	4014
683.0817	4000
685.5251	3960
687.9659	4069
690.4061	4054
692.8456	4060
695.2844	4057
697.7226	4076
700.1621	4013
702.599	4094
705.0332	3965
707.4688	4071
709.9036	4132
712.3399	4089
714.7735	4126
717.2044	4030
719.6367	4090
722.0683	4090
724.4993	4130
726.9296	4103
729.3593	4167
731.7883	4126
734.2147	4190
736.6423	4123
739.0714	4176
741.4958	4161
743.9216	4236
746.3447	4201
748.7691	4286
751.1929	4193
753.616	4224
756.0366	4323
758.4584	4206
760.8776	4233
763.2982	4273
765.718	4313
768.1373	4348
770.5539	4301
772.9698	4253
775.3871	4311
777.8038	4333
780.2178	4254
782.6332	4288
785.0459	4262
787.458	4239
789.8714	4307
792.2842	4308
794.6943	4240
797.1038	4239
799.5127	4292
801.9209	4333
804.3324	4311
806.7393	4292
809.1456	4395
811.5513	4386
813.9562	4309
816.3625	4333
818.7663	4342
821.1693	4387
823.5718	4436
825.9735	4374
828.3746	4415
830.7771	4425
833.177	4420
835.5762	4300
837.9747	4423
840.3727	4402
842.772	4458
845.1666	4470
847.5626	4546
849.958	4511
852.3527	4572
854.7488	4518
857.1403	4498
859.5331	4582
861.9253	4592
864.3168	4496
866.7057	4447
869.098	4522
871.4876	4562
873.8746	4459
876.263	4577
878.6487	4435
881.0378	4462
883.4243	4477
885.8081	4547
888.1933	4532
890.5759	4492
892.9598	4431
895.343	4507
897.7256	4546
900.1057	4456
902.4871	4493
904.8659	4504
907.246	4453
909.6254	4542
912.0023	4549
914.3786	4622
916.7562	4570
919.1331	4745
921.5074	4678
923.8831	4846
926.2562	4648
928.6287	4781
931.0005	4786
933.3757	4765
935.7462	4845
938.1162	4850
940.4855	4930
942.8542	4947
945.2242	5182
947.5916	5233
949.9584	5410
952.3266	5641
954.6921	5951
957.0571	6260
959.4233	6484
961.787	6570
964.15	6575
966.5125	6351
968.8742	5991
971.2354	5569
973.5959	5261
975.9559	4990
978.3151	4958
980.6738	4798
983.0338	4680
985.3912	4722
987.7461	4639
990.1022	4662
992.4578	4579
994.8127	4688
997.1689	4726
999.5207	4710
1001.874	4748
1004.226	4740
1006.576	4757
1008.929	4751
1011.28	4585
1013.628	4609
1015.977	4735
1018.324	4676
1020.674	4794
1023.019	4786
1025.366	4776
1027.713	4878
1030.056	4763
1032.399	4826
1034.746	4825
1037.087	4890
1039.431	4842
1041.771	4835
1044.113	4847
1046.454	4759
1048.793	4774
1051.133	4853
1053.471	4696
1055.807	4763
1058.146	4844
1060.483	4936
1062.818	4897
1065.153	4911
1067.489	4945
1069.822	4926
1072.156	4960
1074.488	4993
1076.82	4985
1079.15	4968
1081.48	4935
1083.814	4877
1086.143	4955
1088.471	4852
1090.799	4817
1093.126	4737
1095.452	4861
1097.78	4836
1100.105	4803
1102.43	4791
1104.754	4848
1107.077	4804
1109.4	4719
1111.722	4846
1114.044	4843
1116.365	4742
1118.685	4725
1121.005	4803
1123.324	4737
1125.643	4799
1127.961	4742
1130.278	4816
1132.595	4785
1134.911	4728
1137.226	4720
1139.541	4793
1141.854	4806
1144.167	4712
1146.482	4696
1148.793	4773
1151.105	4691
1153.414	4786
1155.725	4793
1158.033	4742
1160.344	4671
1162.651	4815
1164.959	4849
1167.265	4800
1169.572	4816
1171.878	4703
1174.184	4868
1176.488	4806
1178.79	4772
1181.094	4779
1183.396	4893
1185.699	4781
1188.001	4746
1190.301	4785
1192.6	4789
1194.9	4746
1197.2	4735
1199.497	4769
1201.794	4831
1204.09	4799
1206.387	4854
1208.684	4784
1210.978	4776
1213.272	4851
1215.565	4733
1217.858	4855
1220.15	4814
1222.443	4809
1224.734	4845
1227.024	4915
1229.313	4902
1231.602	4897
1233.892	5080
1236.18	4976
1238.467	5017
1240.754	5062
1243.04	5102
1245.325	5165
1247.612	5057
1249.896	5042
1252.178	5119
1254.461	5062
1256.743	5048
1259.027	5051
1261.308	5018
1263.587	5168
1265.867	5043
1268.146	5111
1270.425	5084
1272.703	5042
1274.981	5064
1277.256	4998
1279.532	4931
1281.808	5083
1284.083	5056
1286.358	4966
1288.63	5042
1290.904	4914
1293.175	5020
1295.449	4999
1297.719	4974
1299.99	4982
1302.259	4932
1304.529	4892
1306.798	4967
1309.065	5075
1311.333	4943
1313.599	5017
1315.866	4970
1318.131	5039
1320.396	4787
1322.66	4988
1324.925	4958
1327.187	4937
1329.448	5017
1331.711	5062
1333.974	4845
1336.234	4982
1338.493	4982
1340.752	4921
1343.01	4981
1345.269	4853
1347.526	4961
1349.784	4887
1352.04	4902
1354.295	4992
1356.552	4947
1358.806	4932
1361.059	4921
1363.312	4935
1365.564	4938
1367.818	5018
1370.069	4868
1372.318	4980
1374.568	4921
1376.817	5001
1379.066	5021
1381.316	5002
1383.564	4942
1385.809	5087
1388.056	5082
1390.301	5011
1392.549	5058
1394.793	5202
1397.036	5009
1399.279	5009
1401.522	5090
1403.763	5106
1406.007	5086
1408.248	5139
1410.487	5071
1412.727	5089
1414.965	5196
1417.205	5125
1419.442	5237
1421.68	5083
1423.915	5124
1426.152	5172
1428.388	5180
1430.623	5142
1432.857	5133
1435.091	5174
1437.323	5147
1439.556	5308
1441.789	5246
1444.019	5276
1446.25	5228
1448.48	5249
1450.708	5326
1452.938	5208
1455.167	5382
1457.394	5210
1459.62	5292
1461.846	5224
1464.073	5251
1466.299	5160
1468.523	5240
1470.746	5174
1472.969	5275
1475.191	5037
1477.415	5144
1479.636	5187
1481.858	5011
1484.078	5021
1486.298	5021
1488.518	5062
1490.736	5000
1492.954	4996
1495.169	4910
1497.386	4982
1499.602	5001
1501.819	4966
1504.034	4887
1506.248	5038
1508.462	4953
1510.675	4971
1512.888	4934
1515.1	4939
1517.311	4939
1519.522	4948
1521.732	4965
1523.942	5005
1526.151	4863
1528.36	4915
1530.566	4898
1532.773	4863
1534.98	4939
1537.187	4949
1539.392	4950
1541.596	5117
1543.801	4975
1546.005	4991
1548.208	4997
1550.411	5058
1552.612	5014
1554.814	5025
1557.013	5007
1559.212	5025
1561.414	4988
1563.612	4973
1565.811	5065
1568.007	5019
1570.203	5152
1572.403	5088
1574.598	5032
1576.792	5064
1578.988	5005
1581.181	5151
1583.376	5091
1585.568	5055
1587.761	5068
1589.952	5214
1592.143	5197
1594.333	5095
1596.524	5192
1598.715	5100
1600.903	5147
1603.091	5151
1605.278	5153
1607.466	5126
1609.652	5055
1611.838	5169
1614.023	5127
1616.207	5109
1618.391	5100
1620.576	5108
1622.759	5174
1624.941	5242
1627.123	5100
1629.304	5300
1631.484	5208
1633.664	5243
1635.844	5118
1638.022	5237
1640.201	5283
1642.38	5367
1644.556	5152
1646.732	5223
1648.908	5214
1651.084	5327
1653.257	5345
1655.433	5376
1657.607	5298
1659.779	5344
1661.951	5200
1664.122	5326
1666.295	5307
1668.467	5356
1670.635	5348
1672.805	5397
1674.973	5434
1677.142	5294
1679.31	5394
1681.478	5252
1683.644	5278
1685.81	5316
1687.975	5275
1690.142	5247
1692.305	5201
1694.468	5289
1696.632	5194
1698.794	5185
1700.957	5184
1703.119	5254
1705.279	5199
1707.439	5145
1709.598	5118
1711.758	5085
1713.917	5116
1716.075	5058
1718.231	4996
1720.388	5112
1722.543	5010
1724.702	5136
1726.856	5083
1729.01	5063
1731.164	5139
1733.317	5101
1735.471	5085
1737.623	5071
1739.774	5146
1741.925	5129
1744.075	5159
1746.225	5116
1748.376	5140
1750.524	5110
1752.672	5053
1754.82	5142
1756.965	5158
1759.113	5099
1761.259	5073
1763.405	5116
1765.549	5178
1767.694	5123
1769.836	5093
1771.981	5075
1774.123	5113
1776.264	5221
1778.405	5197
1780.546	5088
1782.687	5114
1784.827	5088
1786.966	5248
1789.103	5156
1791.242	5143
1793.381	5134
1795.517	5240
1797.653	5111
1799.788	5191
1801.923	5131
1804.057	5177
1806.193	5199
1808.326	5169
1810.457	5091
1812.59	5172
1814.721	5144
1816.855	5087
1818.984	5162
1821.113	5186
1823.244	5154
1825.372	5125
1827.499	5127
1829.63	5043
1831.756	5148
1833.882	5183
1836.007	5136
1838.132	5079
1840.26	5141
1842.384	5057
1844.507	5140
1846.63	5155
1848.752	5130
1850.875	5141
1852.996	5079
1855.118	5151
1857.238	5055
1859.358	5053
1861.477	5108
1863.597	5109
1865.715	5113
1867.832	5107
1869.948	5013
1872.064	5016
1874.181	5128
1876.297	5124
1878.411	5188
1880.526	5167
1882.639	5202
1884.752	5145
1886.865	5088
1888.977	5146
1891.089	5117
1893.2	5156
1895.308	5006
1897.42	5169
1899.53	5135
1901.639	5208
1903.745	5147
1905.853	5208
1907.962	5210
1910.067	5191
1912.174	5175
1914.278	5087
1916.383	5176
1918.486	5133
1920.592	5212
1922.694	5156
1924.797	5160
1926.898	5222
1929	5195
1931.102	5225
1933.203	5284
1935.301	5197
1937.401	5210
1939.499	5098
1941.598	5201
1943.697	5214
1945.793	5264
1947.888	5256
1949.985	5227
1952.08	5184
1954.176	5280
1956.269	5154
1958.364	5218
1960.457	5233
1962.549	5222
1964.642	5230
1966.733	5170
1968.823	5139
1970.913	5191
1973.005	5182
1975.093	5178
1977.184	5162
1979.271	5204
1981.359	5110
1983.446	5105
1985.532	5169
1987.619	5168
1989.705	5204
1991.789	5231
1993.874	5189
1995.956	5209
1998.041	5235
2000.123	5175
2002.206	5162
2004.287	5176
2006.368	5023
2008.449	5089
2010.529	5164
2012.609	5133
2014.688	5168
2016.766	5212
2018.843	5103
2020.922	5155
2022.999	5198
2025.074	5204
2027.15	5120
2029.225	5088
2031.299	5176
2033.375	5169
2035.447	5150
2037.52	5179
2039.592	5143
2041.664	5156
2043.736	5136
2045.807	5064
2047.876	5163
2049.947	5089
2052.015	5220
2054.086	5114
2056.153	5134
2058.221	5129
2060.288	5156
2062.353	5128
2064.42	5189
2066.486	5208
2068.55	5147
2070.614	5162
2072.678	5043
2074.741	5144
2076.805	5208
2078.866	5203
2080.929	5069
2082.99	5240
2085.049	5121
2087.109	5146
2089.17	5238
2091.228	5135
2093.286	5103
2095.344	5238
2097.4	5176
2099.46	5204
2101.516	5080
2103.572	5156
2105.626	5056
2107.679	5244
2109.735	5217
2111.788	5037
2113.841	5198
2115.894	5210
2117.945	5138
2119.997	5056
2122.049	5194
2124.1	5175
2126.148	5080
2128.197	5196
2130.246	5212
2132.296	5208
2134.342	5067
2136.39	5067
2138.437	5192
2140.483	5168
2142.527	5192
2144.574	5007
2146.619	5144
2148.661	5147
2150.705	5128
2152.747	5168
2154.792	5104
2156.832	5177
2158.874	5095
2160.915	5129
2162.954	5116
2164.995	5110
2167.034	5198
2169.072	5160
2171.111	5140
2173.148	5084
2175.186	5225
2177.223	5050
2179.258	5107
2181.294	5131
2183.328	5057
2185.362	5093
2187.398	5063
2189.431	5079
2191.463	5214
2193.495	5140
2195.528	5079
2197.56	5082
2199.59	5153
2201.62	5058
2203.649	5065
2205.678	5074
2207.708	4982
2209.737	5014
2211.764	5008
2213.791	5046
2215.817	5065
2217.843	4987
2219.87	5100
2221.895	5132
2223.919	5034
2225.942	4977
2227.966	5139
2229.988	5036
2232.012	5006
2234.032	5063
2236.054	4972
2238.074	4998
2240.095	5117
2242.116	5027
2244.135	5034
2246.153	4996
2248.171	4932
2250.188	4881
2252.208	4976
2254.223	5011
2256.239	5047
2258.255	5033
2260.269	5075
2262.283	4900
2264.3	5057
2266.312	5105
2268.325	5040
2270.336	5087
2272.349	5049
2274.362	5079
2276.372	5044
2278.383	4991
2280.392	5059
2282.402	5038
2284.409	4969
2286.418	5058
2288.427	5053
2290.433	4986
2292.441	5018
2294.446	5030
2296.453	5026
2298.459	5042
2300.463	5048
2302.466	4964
2304.471	5058
2306.475	5039
2308.477	4917
2310.478	4903
2312.481	5046
2314.481	4989
2316.481	4978
2318.482	4912
2320.482	4953
2322.48	5052
2324.48	5107
2326.478	4934
2328.476	4985
2330.473	4950
2332.469	4925
2334.465	4888
2336.46	4931
2338.454	4937
2340.45	5065
2342.444	4972
2344.437	4914
2346.43	4978
2348.421	4843
2350.414	4891
2352.405	4984
2354.396	4920
2356.386	4979
2358.376	5003
2360.366	5016
2362.355	4952
2364.343	4918
2366.331	4981
2368.317	4834
2370.304	4871
2372.292	4882
2374.278	4934
2376.262	4847
2378.247	4928
2380.23	4963
2382.216	4920
2384.199	4927
2386.181	4897
2388.163	4921
2390.144	4917
2392.127	4904
2394.107	4917
2396.087	4905
2398.066	4868
2400.046	4867
2402.023	4842
2404.004	4900
2405.981	4881
2407.957	4889
2409.934	4892
2411.91	4930
2413.886	4893
2415.862	4907
2417.836	4935
2419.809	4889
2421.784	4867
2423.756	4897
2425.73	4919
2427.701	4798
2429.672	4928
2431.644	4993
2433.615	4955
2435.586	4808
2437.555	4895
2439.523	4832
2441.491	4901
2443.459	4955
2445.428	4816
2447.395	4792
2449.361	4867
2451.327	4912
2453.292	4792
2455.257	4784
2457.223	4889
2459.187	4918
2461.15	4805
2463.113	4742
2465.076	4876
2467.039	4838
2468.999	4785
2470.96	4832
2472.921	4806
2474.881	4866
2476.841	4880
2478.8	4827
2480.759	4816
2482.717	4721
2484.675	4873
2486.63	4790
2488.589	4885
2490.545	4871
2492.5	4805
2494.455	4707
2496.408	4780
2498.364	4761
2500.318	4822
2502.27	4747
2504.223	4704
2506.174	4841
2508.126	4828
2510.078	4776
2512.03	4780
2513.979	4662
2515.927	4850
2517.877	4880
2519.826	4766
2521.775	4856
2523.722	4794
2525.668	4761
2527.616	4753
2529.561	4813
2531.508	4789
2533.452	4746
2535.398	4795
2537.342	4694
2539.284	4800
2541.229	4804
2543.173	4881
2545.114	4761
2547.055	4839
2548.996	4706
2550.938	4787
2552.878	4809
2554.817	4675
2556.756	4713
2558.695	4832
2560.633	4825
2562.572	4725
2564.509	4821
2566.445	4756
2568.382	4788
2570.317	4773
2572.254	4831
2574.189	4900
2576.123	4806
2578.057	4785
2579.99	4733
2581.923	4722
2583.855	4754
2585.788	4867
2587.719	4810
2589.65	4701
2591.579	4780
2593.511	4866
2595.44	4829
2597.37	4759
2599.297	4841
2601.225	4801
2603.153	4742
2605.08	4832
2607.007	4771
2608.932	4710
2610.858	4726
2612.782	4735
2614.709	4783
2616.632	4852
2618.556	4868
2620.478	4812
2622.401	4712
2624.324	4869
2626.247	4764
2628.167	4856
2630.088	4802
2632.008	4849
2633.928	4883
2635.848	4851
2637.766	4847
2639.684	4786
2641.603	4757
2643.519	4794
2645.437	4769
2647.353	4772
2649.27	4904
2651.184	4776
2653.099	4868
2655.014	4721
2656.928	4725
2658.842	4969
2660.755	4759
2662.667	4826
2664.579	4780
2666.491	4761
2668.402	4744
2670.312	4807
2672.222	4744
2674.132	4818
2676.042	4809
2677.951	4842
2679.859	4828
2681.766	4800
2683.674	4710
2685.582	4726
2687.488	4746
2689.392	4801
2691.298	4783
2693.202	4793
2695.107	4753
2697.012	4667
2698.914	4721
2700.817	4726
2702.72	4828
2704.622	4780
2706.524	4739
2708.425	4716
2710.326	4701
2712.225	4783
2714.125	4643
2716.024	4813
2717.923	4775
2719.822	4709
2721.719	4683
2723.616	4740
2725.512	4767
2727.41	4681
2729.305	4721
2731.201	4770
2733.095	4687
2734.99	4718
2736.884	4694
2738.778	4683
2740.67	4708
2742.562	4657
2744.455	4727
2746.346	4758
2748.238	4672
2750.129	4666
2752.018	4742
2753.907	4702
2755.797	4746
2757.687	4652
2759.575	4653
2761.462	4736
2763.349	4719
2765.237	4757
2767.124	4720
2769.009	4696
2770.894	4688
2772.779	4656
2774.663	4649
2776.547	4738
2778.431	4603
2780.314	4645
2782.197	4629
2784.078	4762
2785.96	4572
2787.842	4744
2789.723	4645
2791.603	4665
2793.483	4591
2795.362	4632
2797.241	4661
2799.121	4640
2800.997	4799
2802.874	4552
2804.751	4621
2806.628	4650
2808.506	4681
2810.38	4607
2812.255	4721
2814.13	4691
2816.003	4561
2817.878	4668
2819.752	4704
2821.623	4671
2823.496	4723
2825.368	4633
2827.238	4658
2829.111	4666
2830.98	4696
2832.851	4622
2834.719	4741
2836.589	4730
2838.458	4662
2840.327	4773
2842.193	4663
2844.061	4799
2845.927	4594
2847.794	4718
2849.66	4745
2851.525	4707
2853.39	4663
2855.254	4759
2857.117	4733
2858.983	4796
2860.845	4830
2862.707	4835
2864.569	4800
2866.431	4862
2868.293	4887
2870.154	4900
2872.013	4961
2873.873	5032
2875.733	5027
2877.592	5068
2879.451	5205
2881.309	5191
2883.166	5290
2885.022	5252
2886.879	5315
2888.736	5299
2890.591	5422
2892.446	5368
2894.301	5364
2896.155	5331
2898.009	5304
2899.863	5182
2901.716	5354
2903.568	5271
2905.419	5161
2907.27	5237
2909.123	5321
2910.973	5273
2912.824	5381
2914.673	5485
2916.521	5445
2918.372	5480
2920.22	5587
2922.067	5615
2923.914	5654
2925.761	5769
2927.607	5819
2929.455	5835
2931.301	5922
2933.144	6030
2934.99	6055
2936.833	6192
2938.678	6165
2940.522	6221
2942.364	6196
2944.207	6304
2946.048	6351
2947.891	6241
2949.731	6341
2951.571	6241
2953.412	6250
2955.25	6162
2957.09	6108
2958.93	5972
2960.767	5925
2962.606	5876
2964.443	5805
2966.279	5797
2968.116	5780
2969.953	5697
2971.788	5658
2973.623	5631
2975.457	5527
2977.292	5457
2979.127	5641
2980.959	5458
2982.792	5444
2984.624	5564
2986.455	5491
2988.288	5517
2990.119	5222
2991.949	5277
2993.779	5275
2995.608	5290
2997.439	5089
2999.268	5123
3001.096	5081
3002.923	5072
3004.751	5092
3006.578	4955
3008.406	4998
3010.232	4885
3012.057	4895
3013.883	4809
3015.706	4779
3017.532	4720
3019.356	4622
3021.179	4633
3023.002	4725
3024.823	4546
3026.646	4525
3028.469	4491
3030.289	4578
3032.11	4636
3033.93	4533
3035.749	4493
3037.57	4443
3039.39	4545
3041.207	4461
3043.026	4536
3044.842	4565
3046.661	4490
3048.477	4524
3050.294	4472
3052.109	4500
3053.925	4482
3055.739	4419
3057.555	4466
3059.368	4480
3061.181	4462
3062.995	4491
3064.807	4530
3066.62	4428
3068.433	4619
3070.243	4443
3072.054	4570
3073.865	4423
3075.675	4480
3077.485	4458
3079.293	4447
3081.102	4383
3082.911	4412
3084.719	4339
3086.527	4414
3088.333	4409
3090.139	4398
3091.945	4376
3093.75	4332
3095.557	4320
3097.361	4353
3099.165	4414
3100.969	4384
3102.772	4306
3104.575	4302
3106.379	4421
3108.181	4256
3109.982	4282
3111.783	4387
3113.584	4263
3115.386	4306
3117.186	4262
3118.985	4366
3120.783	4291
3122.582	4325
3124.381	4294
3126.179	4312
3127.975	4257
3129.772	4290
3131.569	4361
3133.365	4146
3135.161	4224
3136.956	4207
3138.751	4203
3140.544	4188
3142.338	4199
3144.132	4286
3145.925	4256
3147.717	4205
3149.509	4220
3151.301	4161
3153.091	4227
3154.884	4182
3156.673	4202
3158.462	4319
3160.252	4188
3162.041	4281
3163.831	4174
3165.618	4129
3167.405	4205
3169.193	4237
3170.979	4191
3172.767	4227
3174.553	4236
3176.338	4218
3178.123	4187
3179.907	4181
3181.692	4164
3183.477	4194
3185.259	4166
3187.042	4200
3188.824	4234
3190.607	4204
3192.389	4211
3194.17	4238
3195.951	4168
3197.73	4247
3199.51	4214
3201.289	4214
3203.07	4150
3204.848	4244
3206.626	4135
3208.403	4271
3210.18	4115
3211.959	4205
3213.735	4211
3215.511	4188
3217.285	4186
3219.06	4193
3220.836	4198
3222.611	4153
3224.384	4244
3226.158	4173
3227.929	4210
3229.702	4190
3231.476	4244
3233.248	4240
3235.018	4171
3236.789	4116
3238.56	4243
3240.33	4147
3242.1	4160
3243.869	4151
3245.637	4216
3247.405	4212
3249.172	4283
3250.941	4256
3252.707	4196
3254.474	4095
3256.24	4205
3258.006	4258
3259.772	4209
3261.537	4214
3263.301	4205
3265.065	4228
3266.828	4227
3268.592	4207
3270.355	4253
3272.117	4167
3273.878	4255
3275.64	4260
3277.401	4239
3279.162	4241
3280.922	4202
3282.682	4232
3284.441	4147
3286.199	4146
3287.959	4276
3289.716	4258
3291.475	4237
3293.232	4229
3294.988	4249
3296.744	4285
3298.501	4253
3300.256	4186
3302.011	4220
3303.766	4236
3305.52	4173
3307.275	4322
3309.028	4199
3310.781	4332
3312.533	4321
3314.285	4255
3316.038	4243
3317.789	4260
3319.54	4300
3321.289	4352
3323.039	4197
3324.789	4145
3326.539	4311
3328.288	4130
3330.035	4249
3331.783	4132
3333.531	4279
3335.28	4200
3337.025	4133
3338.771	4249
3340.518	4275
3342.262	4215
3344.009	4162
3345.753	4137
3347.497	4164
3349.24	4260
3350.983	4165
3352.726	4222
3354.469	4075
3356.212	4194
3357.952	4182
3359.694	4143
3361.434	4182
3363.176	4149
3364.916	4109
3366.654	4167
3368.394	4139
3370.132	4167
3371.871	4076
3373.61	4069
3375.346	4114
3377.083	4095
3378.82	4135
3380.556	4151
3382.292	4046
3384.027	4125
3385.763	4067
3387.497	4068
3389.231	4144
3390.965	4160
3392.698	4051
3394.431	4037
3396.164	3977
3397.896	4043
3399.627	4156
3401.36	4082
3403.09	3978
3404.82	4152
3406.55	4051
3408.279	4115
3410.01	3976
3411.738	3979
3413.467	4040
3415.194	4087
3416.92	4006
3418.647	4143
3420.375	3938
3422.102	3979
3423.827	4045
3425.553	3999
3427.277	3954
3429.003	4051
3430.727	4011
3432.451	4060
3434.173	4006
3435.896	3982
3437.62	3991
3439.343	3883
3441.063	3942
3442.785	4089
3444.505	3941
3446.226	3923
3447.948	3989
3449.666	3928
3451.386	3871
3453.104	3948
3454.823	3962
3456.541	3977
3458.259	3819
3459.976	3847
3461.693	3856
3463.408	3948
3465.125	3887
3466.841	3852
3468.556	3938
3470.271	3873
3471.985	3837
3473.698	3863
3475.414	3848
3477.126	3838
3478.838	3832
3480.55	3913
3482.263	3801
3483.975	3839
3485.686	3792
3487.396	3787
3489.106	3795
3490.817	3843
3492.526	3831
3494.236	3736
3495.944	3773
3497.652	3719
3499.359	3820
3501.066	3766
3502.775	3762
3504.481	3769
3506.187	3790
3507.893	3778
3509.598	3736
3511.304	3782
3513.009	3683
3514.713	3711
3516.417	3705
3518.12	3795
3519.821	3726
3521.525	3750
3523.228	3732
3524.929	3669
3526.631	3756
3528.33	3711
3530.032	3624
3531.733	3722
3533.433	3668
3535.131	3595
3536.83	3607
3538.529	3642
3540.227	3560
3541.925	3549
3543.623	3697
3545.319	3690
3547.016	3655
3548.712	3624
3550.408	3665
3552.103	3691
3553.798	3652
3555.491	3609
3557.188	3613
3558.88	3540
3560.574	3593
3562.266	3516
3563.959	3525
3565.651	3545
3567.343	3550
3569.035	3595
3570.725	3608
3572.415	3604
3574.106	3591
3575.797	3565
3577.485	3532
3579.174	3608
3580.863	3489
3582.551	3532
3584.238	3497
3585.926	3442
3587.613	3476
3589.3	3557
3590.986	3537
3592.671	3510
3594.357	3477
3596.042	3488
3597.726	3443
3599.41	3487
3601.094	3454
3602.778	3544
3604.461	3487
3606.143	3462
3607.825	3509
3609.507	3449
3611.188	3430
3612.87	3437
3614.551	3425
3616.229	3424
3617.909	3444
3619.589	3446
3621.269	3405
3622.948	3291
3624.625	3431
3626.302	3444
3627.98	3424
3629.657	3353
3631.334	3392
3633.01	3365
3634.686	3294
3636.361	3368
3638.036	3261
3639.712	3326
3641.385	3322
3643.06	3361
3644.732	3293
3646.405	3325
3648.08	3345
3649.751	3312
3651.424	3296
3653.094	3343
3654.766	3265
3656.436	3311
3658.106	3246
3659.777	3251
3661.446	3335
3663.115	3300
3664.783	3235
3666.452	3292
3668.121	3257
3669.788	3212
3671.454	3285
3673.121	3296
3674.789	3217
3676.455	3284
3678.12	3220
3679.784	3254
3681.45	3341
3683.114	3240
3684.779	3304
3686.442	3280
3688.105	3175
3689.768	3193
3691.43	3209
3693.093	3252
3694.754	3208
3696.415	3239
3698.076	3210
3699.736	3216
3701.396	3225
3703.057	3222
3704.716	3112
3706.375	3180
3708.034	3251
3709.692	3204
3711.351	3187
3713.008	3170
3714.665	3205
3716.321	3148
3717.977	3111
3719.634	3198
3721.29	3144
3722.945	3198
3724.598	3196
3726.253	3140
3727.907	3065
3729.561	3071
3731.214	3145
3732.867	3153
3734.518	3190
3736.171	3182
3737.824	3139
3739.474	3213
3741.125	3139
3742.775	3110
3744.425	3134
3746.074	3175
3747.725	3018
3749.373	3186
3751.022	3105
3752.669	3165
3754.318	3127
3755.966	3121
3757.612	3059
3759.259	3144
3760.905	3082
3762.55	3189
3764.197	3043
3765.842	3049
3767.486	2990
3769.131	3098
3770.774	3074
3772.417	3044
3774.061	3082
3775.705	3063
3777.347	3129
3778.988	3025
3780.629	2986
3782.271	3041
3783.912	3055
3785.552	3083
3787.192	3049
3788.831	3041
3790.472	3081
3792.112	3137
3793.75	3045
3795.388	3100
3797.024	3033
3798.661	3078
3800.3	3028
3801.936	2976
3803.572	2995
3805.208	3001
3806.844	3108
3808.48	2943
3810.115	3055
3811.748	2974
3813.382	2983
3815.016	3015
3816.649	3011
3818.283	3016
3819.914	3027
3821.547	3008
3823.178	2974
3824.809	3010
3826.441	3034
3828.072	2986
3829.701	2988
3831.331	2966
3832.96	2943
3834.591	2969
3836.219	2969
3837.847	2956
3839.475	2928
3841.102	2981
3842.729	2937
3844.357	2861
3845.984	2993
3847.609	2928
3849.234	2955
3850.86	3000
3852.485	2933
3854.11	2928
3855.734	2877
3857.357	2975
3858.981	2901
3860.603	2984
3862.227	2990
3863.848	2960
3865.471	2973
3867.092	2896
3868.713	2962
3870.334	2890
3871.954	2861
3873.575	2848
3875.194	2941
3876.813	2908
3878.433	2913
3880.051	2871
3881.669	2893
3883.286	2950
3884.904	2878
3886.52	2931
3888.138	2905
3889.754	2888
3891.37	2873
3892.985	2890
3894.6	2834
3896.216	2926
3897.831	2871
3899.444	2895
3901.058	2903
3902.67	2873
3904.283	2880
3905.897	2846
3907.509	2860
3909.121	2906
3910.731	2803
3912.342	2857
3913.954	2881
3915.563	2823
3917.174	2858
3918.783	2838
3920.391	2816
3922.002	2893
3923.611	2909
3925.218	2824
3926.826	2815
3928.432	2832
3930.039	2789
3931.647	2822
3933.253	2867
3934.859	2837
3936.464	2848
3938.068	2900
3939.675	2857
3941.278	2864
3942.883	2843
3944.486	2841
3946.089	2850
3947.692	2850
3949.295	2833
3950.898	2833
3952.499	2777
3954.1	2901
3955.7	2782
3957.303	2802
3958.903	2807
3960.502	2772
3962.101	2734
3963.7	2821
3965.301	2794
3966.899	2761
3968.497	2804
3970.094	2847
3971.691	2752
3973.288	2801
3974.885	2740
3976.481	2767
3978.077	2788
3979.672	2739
3981.267	2706
3982.863	2774
3984.457	2760
3986.051	2772
3987.645	2706
3989.238	2770
3990.831	2763
3992.425	2757
3994.017	2800
3995.607	2733
3997.199	2649
3998.79	2664
4000.382	2715
4001.973	2717
4003.561	2647
4005.151	2750
4006.741	2655
4008.331	2694
4009.918	2703
4011.507	2708
4013.095	2703
4014.681	2660
4016.269	2705
4017.856	2693
4019.443	2664
4021.028	2684
4022.614	2646
4024.199	2606
4025.785	2607
4027.37	2664
4028.953	2651
4030.536	2610
4032.12	2717
4033.704	2643
4035.287	2687
4036.869	2601
4038.45	2703
4040.032	2578
4041.613	2688
4043.195	2651
4044.776	2615
4046.356	2629
4047.935	2585
4049.515	2598
4051.095	2621
4052.674	2596
4054.251	2613
4055.829	2578
4057.406	2632
4058.985	2586
4060.562	2687
4062.139	2642
4063.715	2581
4065.29	2586
4066.865	2645
4068.442	2591
4070.016	2581
4071.59	2692
4073.164	2611
4074.738	2585
4076.312	2520
4077.885	2607
4079.458	2609
4081.03	2547
4082.602	2543
4084.173	2600
4085.745	2613
4087.315	2550
4088.886	2569
4090.456	2576
4092.026	2614
4093.596	2504
4095.165	2583
4096.734	2595
4098.301	2621
4099.869	2569
4101.437	2553
4103.006	2587
4104.572	2529
4106.139	2538
4107.704	2549
4109.27	2533
4110.837	2558
4112.401	2577
4113.966	2591
4115.53	2506
4117.094	2486
4118.659	2520
4120.223	2530
4121.785	2498
4123.347	2581
4124.909	2465
4126.471	2486
4128.034	2485
4129.595	2554
4131.155	2481
4132.716	2460
4134.275	2498
4135.836	2508
4137.395	2519
4138.955	2531
4140.513	2527
4142.071	2453
4143.628	2458
4145.188	2467
4146.745	2460
4148.302	2492
4149.858	2465
4151.414	2421
4152.971	2508
4154.526	2512
4156.081	2444
4157.635	2476
4159.189	2444
4160.745	2404
4162.298	2450
4163.852	2444
4165.405	2422
4166.957	2498
4168.51	2427
4170.063	2455
4171.614	2435
4173.166	2431
4174.717	2421
4176.267	2336
4177.817	2463
4179.368	2409
4180.917	2347
4182.466	2406
4184.016	2385
4185.564	2472
4187.112	2427
4188.66	2359
4190.207	2415
4191.754	2410
4193.301	2420
4194.848	2417
4196.394	2385
4197.94	2430
4199.484	2390
4201.03	2390
4202.575	2360
4204.12	2384
4205.663	2359
4207.207	2389
4208.75	2370
4210.292	2370
4211.836	2363
4213.378	2408
4214.92	2313
4216.46	2397
4218.002	2316
4219.544	2352
4221.083	2377
4222.625	2373
4224.164	2373
4225.703	2401
4227.244	2336
4228.782	2309
4230.32	2272
4231.857	2332
4233.395	2345
4234.933	2323
4236.471	2312
4238.007	2321
4239.542	2322
4241.078	2380
4242.614	2356
4244.15	2330
4245.685	2383
4247.219	2275
4248.753	2268
4250.287	2317
4251.82	2232
4253.354	2300
4254.887	2314
4256.419	2323
4257.951	2355
4259.483	2268
4261.016	2267
4262.547	2323
4264.078	2344
4265.608	2264
4267.137	2341
4268.668	2312
4270.197	2325
4271.727	2327
4273.254	2292
4274.783	2255
4276.311	2261
4277.84	2274
4279.366	2265
4280.894	2298
4282.42	2183
4283.946	2238
4285.473	2262
4286.998	2332
4288.523	2186
4290.047	2264
4291.572	2295
4293.096	2240
4294.622	2300
4296.144	2271
4297.668	2288
4299.19	2283
4300.713	2203
4302.236	2295
4303.758	2227
4305.279	2223
4306.799	2195
4308.321	2280
4309.842	2184
4311.361	2258
4312.882	2204
4314.401	2236
