400.0961	3173
402.6185	3258
405.1424	3221
407.6635	3228
410.1838	3184
412.7035	3328
415.2225	3246
417.7388	3264
420.2585	3267
422.7754	3333
425.2917	3253
427.8072	3371
430.3221	3373
432.8363	3413
435.3498	3329
437.8626	3444
440.3727	3480
442.8841	3371
445.3969	3433
447.907	3413
450.4142	3387
452.9229	3388
455.4289	3362
457.9362	3363
460.4449	3360
462.9488	3382
465.454	3422
467.9566	3366
470.4604	3280
472.9637	3383
475.4662	3346
477.966	3391
480.4671	3492
482.9656	3420
485.4633	3363
487.9645	3395
490.4608	3386
492.9566	3455
495.4536	3513
497.948	3469
500.4437	3402
502.9387	3429
505.431	3472
507.9226	3454
510.4136	3538
512.9079	3455
515.3975	3487
517.8864	3439
520.3746	3568
522.8622	3490
525.3491	3562
527.8394	3503
530.3249	3498
532.8098	3518
535.2939	3573
537.7774	3434
540.2623	3572
542.7444	3526
545.2259	3445
547.7067	3493
550.1868	3517
552.6683	3479
555.147	3551
557.6231	3576
560.1005	3519
562.5773	3551
565.0534	3485
567.5308	3596
570.0056	3581
572.4776	3588
574.951	3517
577.4237	3603
579.8978	3603
582.3671	3635
584.8378	3599
587.3079	3687
589.7773	3689
592.244	3740
594.714	3620
597.1793	3643
599.6461	3625
602.1121	3635
604.5754	3674
607.0421	3597
609.5042	3596
611.9675	3659
614.4282	3653
616.8902	3702
619.3515	3643
621.8122	3718
624.2702	3542
626.7296	3617
629.1863	3552
631.6423	3607
634.1017	3561
636.5563	3603
639.0104	3648
641.4658	3595
643.9185	3573
646.3725	3588
648.8239	3661
651.2766	3609
653.7266	3612
656.176	3666
658.6247	3658
661.0748	3630
663.5242	3710
665.9709	3682
668.417	3664
670.8624	3750
673.3092	3641
675.7533	3626
678.1968	3677
680.6395	3825
683.0817	3649
685.5251	3691
687.9659	3740
690.4061	3788
692.8456	3788
695.2844	3738
697.7226	3771
700.1621	3785
702.599	3716
705.0332	3747
707.4688	3744
709.9036	3784
712.3399	3865
714.7735	3868
717.2044	3932
719.6367	3872
722.0683	3868
724.4993	3774
726.9296	3846
729.3593	3857
731.7883	3919
734.2147	3848
736.6423	3848
739.0714	3878
741.4958	3861
743.9216	3889
746.3447	3842
748.7691	3894
751.1929	3986
753.616	3917
756.0366	3977
758.4584	3973
760.8776	3915
763.2982	4005
765.718	3905
768.1373	3956
770.5539	3991
772.9698	3970
775.3871	3968
777.8038	3984
780.2178	3971
782.6332	4101
785.0459	3980
787.458	4050
789.8714	4075
792.2842	4022
794.6943	4010
797.1038	3980
799.5127	3990
801.9209	3970
804.3324	3975
806.7393	3961
809.1456	4008
811.5513	4054
813.9562	4058
816.3625	4034
818.7663	4021
821.1693	3998
823.5718	4089
825.9735	4051
828.3746	4085
830.7771	3991
833.177	4181
835.5762	4023
837.9747	4101
840.3727	4069
842.772	4065
845.1666	4182
847.5626	4106
849.958	4154
852.3527	4243
854.7488	4172
857.1403	4205
859.5331	4238
861.9253	4170
864.3168	4243
866.7057	4071
869.098	4123
871.4876	4065
873.8746	4215
876.263	4186
878.6487	4147
881.0378	4145
883.4243	4220
885.8081	4063
888.1933	4194
890.5759	4155
892.9598	4105
895.343	4144
897.7256	4166
900.1057	4051
902.4871	4184
904.8659	4223
907.246	4190
909.6254	4175
912.0023	4195
914.3786	4241
916.7562	4378
919.1331	4353
921.5074	4359
923.8831	4525
926.2562	4405
928.6287	4459
931.0005	4468
933.3757	4480
935.7462	4422
938.1162	4390
940.4855	4390
942.8542	4334
945.2242	4483
947.5916	4601
949.9584	4620
952.3266	4621
954.6921	4742
957.0571	4939
959.4233	5059
961.787	5214
964.15	5045
966.5125	5016
968.8742	4840
971.2354	4708
973.5959	4551
975.9559	4463
978.3151	4373
980.6738	4352
983.0338	4301
985.3912	4348
987.7461	4301
990.1022	4304
992.4578	4214
994.8127	4280
997.1689	4357
999.5207	4305
1001.874	4368
1004.226	4365
1006.576	4295
1008.929	4292
1011.28	4260
1013.628	4322
1015.977	4346
1018.324	4302
1020.674	4288
1023.019	4373
1025.366	4298
1027.713	4385
1030.056	4340
1032.399	4331
1034.746	4310
1037.087	4422
1039.431	4408
1041.771	4291
1044.113	4379
1046.454	4437
1048.793	4416
1051.133	4308
1053.471	4340
1055.807	4369
1058.146	4381
1060.483	4392
1062.818	4328
1065.153	4382
1067.489	4460
1069.822	4433
1072.156	4512
1074.488	4576
1076.82	4459
1079.15	4372
1081.48	4474
1083.814	4395
1086.143	4474
1088.471	4300
1090.799	4372
1093.126	4370
1095.452	4419
1097.78	4390
1100.105	4423
1102.43	4446
1104.754	4412
1107.077	4454
1109.4	4477
1111.722	4422
1114.044	4408
1116.365	4381
1118.685	4417
1121.005	4451
1123.324	4406
1125.643	4520
1127.961	4490
1130.278	4365
1132.595	4469
1134.911	4364
1137.226	4417
1139.541	4402
1141.854	4451
1144.167	4513
1146.482	4418
1148.793	4416
1151.105	4408
1153.414	4378
1155.725	4418
1158.033	4360
1160.344	4505
1162.651	4440
1164.959	4357
1167.265	4386
1169.572	4483
1171.878	4459
1174.184	4429
1176.488	4469
1178.79	4432
1181.094	4435
1183.396	4499
1185.699	4439
1188.001	4508
1190.301	4453
1192.6	4409
1194.9	4514
1197.2	4459
1199.497	4467
1201.794	4421
1204.09	4386
1206.387	4556
1208.684	4512
1210.978	4459
1213.272	4417
1215.565	4542
1217.858	4436
1220.15	4538
1222.443	4582
1224.734	4467
1227.024	4506
1229.313	4472
1231.602	4589
1233.892	4610
1236.18	4571
1238.467	4560
1240.754	4654
1243.04	4610
1245.325	4711
1247.612	4679
1249.896	4666
1252.178	4650
1254.461	4771
1256.743	4569
1259.027	4636
1261.308	4619
1263.587	4664
1265.867	4730
1268.146	4790
1270.425	4644
1272.703	4689
1274.981	4594
1277.256	4662
1279.532	4563
1281.808	4695
1284.083	4661
1286.358	4647
1288.63	4596
1290.904	4541
1293.175	4608
1295.449	4587
1297.719	4579
1299.99	4563
1302.259	4562
1304.529	4519
1306.798	4551
1309.065	4626
1311.333	4625
1313.599	4640
1315.866	4696
1318.131	4619
1320.396	4573
1322.66	4655
1324.925	4582
1327.187	4602
1329.448	4593
1331.711	4746
1333.974	4742
1336.234	4663
1338.493	4724
1340.752	4597
1343.01	4696
1345.269	4584
1347.526	4467
1349.784	4637
1352.04	4580
1354.295	4621
1356.552	4639
1358.806	4588
1361.059	4557
1363.312	4459
1365.564	4666
1367.818	4607
1370.069	4567
1372.318	4516
1374.568	4554
1376.817	4548
1379.066	4553
1381.316	4663
1383.564	4680
1385.809	4702
1388.056	4656
1390.301	4719
1392.549	4776
1394.793	4701
1397.036	4730
1399.279	4811
1401.522	4781
1403.763	4858
1406.007	4692
1408.248	4732
1410.487	4835
1412.727	4812
1414.965	4769
1417.205	4812
1419.442	4822
1421.68	4814
1423.915	4866
1426.152	4851
1428.388	4740
1430.623	4770
1432.857	4741
1435.091	4822
1437.323	4891
1439.556	4888
1441.789	4884
1444.019	4751
1446.25	4884
1448.48	4896
1450.708	4919
1452.938	4939
1455.167	4968
1457.394	4996
1459.62	4969
1461.846	4928
1464.073	4844
1466.299	4860
1468.523	4957
1470.746	4840
1472.969	4775
1475.191	4765
1477.415	4745
1479.636	4796
1481.858	4736
1484.078	4694
1486.298	4611
1488.518	4605
1490.736	4532
1492.954	4607
1495.169	4610
1497.386	4584
1499.602	4515
1501.819	4561
1504.034	4550
1506.248	4546
1508.462	4573
1510.675	4475
1512.888	4596
1515.1	4537
1517.311	4641
1519.522	4661
1521.732	4587
1523.942	4647
1526.151	4515
1528.36	4555
1530.566	4554
1532.773	4644
1534.98	4653
1537.187	4571
1539.392	4710
1541.596	4605
1543.801	4615
1546.005	4612
1548.208	4597
1550.411	4631
1552.612	4608
1554.814	4632
1557.013	4605
1559.212	4745
1561.414	4701
1563.612	4581
1565.811	4698
1568.007	4672
1570.203	4777
1572.403	4797
1574.598	4802
1576.792	4688
1578.988	4756
1581.181	4768
1583.376	4728
1585.568	4747
1587.761	4746
1589.952	4592
1592.143	4774
1594.333	4688
1596.524	4686
1598.715	4751
1600.903	4784
1603.091	4715
1605.278	4816
1607.466	4714
1609.652	4837
1611.838	4812
1614.023	4856
1616.207	4747
1618.391	4774
1620.576	4647
1622.759	4864
1624.941	4874
1627.123	4781
1629.304	4802
1631.484	4822
1633.664	4893
1635.844	4864
1638.022	4875
1640.201	4873
1642.38	4781
1644.556	4871
1646.732	4869
1648.908	4842
1651.084	4845
1653.257	4773
1655.433	4789
1657.607	4860
1659.779	4963
1661.951	4796
1664.122	4962
1666.295	4936
1668.467	4914
1670.635	4948
1672.805	4882
1674.973	4978
1677.142	4867
1679.31	4911
1681.478	4812
1683.644	4812
1685.81	4960
1687.975	4866
1690.142	4796
1692.305	4904
1694.468	4835
1696.632	4792
1698.794	4786
1700.957	4723
1703.119	4831
1705.279	4783
1707.439	4831
1709.598	4782
1711.758	4771
1713.917	4806
1716.075	4690
1718.231	4744
1720.388	4571
1722.543	4877
1724.702	4696
1726.856	4748
1729.01	4620
1731.164	4714
1733.317	4706
1735.471	4752
1737.623	4690
1739.774	4684
1741.925	4711
1744.075	4839
1746.225	4650
1748.376	4713
1750.524	4667
1752.672	4795
1754.82	4746
1756.965	4825
1759.113	4765
1761.259	4731
1763.405	4725
1765.549	4712
1767.694	4712
1769.836	4805
1771.981	4856
1774.123	4765
1776.264	4709
1778.405	4788
1780.546	4782
1782.687	4800
1784.827	4823
1786.966	4763
1789.103	4804
1791.242	4845
1793.381	4744
1795.517	4868
1797.653	4875
1799.788	4757
1801.923	4682
1804.057	4745
1806.193	4744
1808.326	4896
1810.457	4774
1812.59	4749
1814.721	4785
1816.855	4722
1818.984	4830
1821.113	4719
1823.244	4788
1825.372	4763
1827.499	4840
1829.63	4782
1831.756	4743
1833.882	4801
1836.007	4838
1838.132	4710
1840.26	4705
1842.384	4716
1844.507	4767
1846.63	4693
1848.752	4701
1850.875	4674
1852.996	4815
1855.118	4745
1857.238	4740
1859.358	4742
1861.477	4801
1863.597	4739
1865.715	4752
1867.832	4727
1869.948	4711
1872.064	4734
1874.181	4731
1876.297	4761
1878.411	4787
1880.526	4726
1882.639	4819
1884.752	4690
1886.865	4723
1888.977	4819
1891.089	4837
1893.2	4754
1895.308	4773
1897.42	4842
1899.53	4786
1901.639	4764
1903.745	4869
1905.853	4769
1907.962	4839
1910.067	4710
1912.174	4741
1914.278	4854
1916.383	4797
1918.486	4770
1920.592	4780
1922.694	4710
1924.797	4798
1926.898	4791
1929	4799
1931.102	4783
1933.203	4801
1935.301	4853
1937.401	4730
1939.499	4822
1941.598	4746
1943.697	4855
1945.793	4862
1947.888	4863
1949.985	4894
1952.08	4918
1954.176	4751
1956.269	4740
1958.364	4717
1960.457	4886
1962.549	4828
1964.642	4845
1966.733	4810
1968.823	4750
1970.913	4820
1973.005	4792
1975.093	4756
1977.184	4821
1979.271	4774
1981.359	4738
1983.446	4807
1985.532	4768
1987.619	4732
1989.705	4849
1991.789	4713
1993.874	4791
1995.956	4807
1998.041	4805
2000.123	4786
2002.206	4762
2004.287	4810
2006.368	4793
2008.449	4680
2010.529	4820
2012.609	4760
2014.688	4764
2016.766	4717
2018.843	4778
2020.922	4733
2022.999	4683
2025.074	4821
2027.15	4840
2029.225	4704
2031.299	4693
2033.375	4690
2035.447	4732
2037.52	4785
2039.592	4748
2041.664	4732
2043.736	4785
2045.807	4772
2047.876	4819
2049.947	4712
2052.015	4834
2054.086	4762
2056.153	4739
2058.221	4777
2060.288	4640
2062.353	4740
2064.42	4785
2066.486	4803
2068.55	4786
2070.614	4765
2072.678	4813
2074.741	4804
2076.805	4771
2078.866	4754
2080.929	4816
2082.99	4760
2085.049	4681
2087.109	4751
2089.17	4812
2091.228	4884
2093.286	4710
2095.344	4795
2097.4	4803
2099.46	4725
2101.516	4727
2103.572	4770
2105.626	4680
2107.679	4871
2109.735	4742
2111.788	4712
2113.841	4805
2115.894	4774
2117.945	4741
2119.997	4728
2122.049	4774
2124.1	4712
2126.148	4853
2128.197	4727
2130.246	4741
2132.296	4777
2134.342	4774
2136.39	4747
2138.437	4775
2140.483	4678
2142.527	4711
2144.574	4774
2146.619	4790
2148.661	4648
2150.705	4750
2152.747	4693
2154.792	4678
2156.832	4727
2158.874	4783
2160.915	4678
2162.954	4721
2164.995	4760
2167.034	4738
2169.072	4675
2171.111	4807
2173.148	4695
2175.186	4729
2177.223	4760
2179.258	4805
2181.294	4683
2183.328	4710
2185.362	4715
2187.398	4685
2189.431	4754
2191.463	4660
2193.495	4698
2195.528	4647
2197.56	4709
2199.59	4711
2201.62	4651
2203.649	4805
2205.678	4708
2207.708	4637
2209.737	4677
2211.764	4697
2213.791	4673
2215.817	4660
2217.843	4661
2219.87	4578
2221.895	4660
2223.919	4610
2225.942	4721
2227.966	4772
2229.988	4671
2232.012	4679
2234.032	4687
2236.054	4669
2238.074	4646
2240.095	4642
2242.116	4601
2244.135	4672
2246.153	4645
2248.171	4594
2250.188	4625
2252.208	4653
2254.223	4529
2256.239	4603
2258.255	4596
2260.269	4639
2262.283	4635
2264.3	4633
2266.312	4701
2268.325	4609
2270.336	4677
2272.349	4671
2274.362	4651
2276.372	4579
2278.383	4628
2280.392	4664
2282.402	4632
2284.409	4666
2286.418	4577
2288.427	4620
2290.433	4595
2292.441	4707
2294.446	4634
2296.453	4552
2298.459	4636
2300.463	4614
2302.466	4619
2304.471	4634
2306.475	4705
2308.477	4661
2310.478	4595
2312.481	4613
2314.481	4670
2316.481	4635
2318.482	4588
2320.482	4578
2322.48	4541
2324.48	4555
2326.478	4539
2328.476	4567
2330.473	4629
2332.469	4603
2334.465	4582
2336.46	4579
2338.454	4561
2340.45	4560
2342.444	4523
2344.437	4538
2346.43	4561
2348.421	4560
2350.414	4572
2352.405	4526
2354.396	4481
2356.386	4610
2358.376	4636
2360.366	4460
2362.355	4648
2364.343	4500
2366.331	4548
2368.317	4509
2370.304	4537
2372.292	4495
2374.278	4565
2376.262	4448
2378.247	4531
2380.23	4586
2382.216	4584
2384.199	4497
2386.181	4475
2388.163	4486
2390.144	4517
2392.127	4543
2394.107	4480
2396.087	4490
2398.066	4397
2400.046	4434
2402.023	4491
2404.004	4538
2405.981	4452
2407.957	4485
2409.934	4535
2411.91	4466
2413.886	4404
2415.862	4466
2417.836	4485
2419.809	4444
2421.784	4454
2423.756	4435
2425.73	4450
2427.701	4490
2429.672	4459
2431.644	4465
2433.615	4520
2435.586	4519
2437.555	4457
2439.523	4613
2441.491	4445
2443.459	4503
2445.428	4559
2447.395	4421
2449.361	4456
2451.327	4486
2453.292	4489
2455.257	4477
2457.223	4465
2459.187	4459
2461.15	4507
2463.113	4454
2465.076	4383
2467.039	4412
2468.999	4460
2470.96	4413
2472.921	4451
2474.881	4436
2476.841	4394
2478.8	4462
2480.759	4413
2482.717	4448
2484.675	4475
2486.63	4321
2488.589	4442
2490.545	4449
2492.5	4410
2494.455	4405
2496.408	4388
2498.364	4384
2500.318	4451
2502.27	4456
2504.223	4436
2506.174	4426
2508.126	4377
2510.078	4420
2512.03	4409
2513.979	4429
2515.927	4330
2517.877	4371
2519.826	4323
2521.775	4387
2523.722	4382
2525.668	4433
2527.616	4388
2529.561	4459
2531.508	4333
2533.452	4406
2535.398	4382
2537.342	4397
2539.284	4344
2541.229	4423
2543.173	4344
2545.114	4460
2547.055	4358
2548.996	4433
2550.938	4370
2552.878	4315
2554.817	4357
2556.756	4469
2558.695	4373
2560.633	4279
2562.572	4352
2564.509	4392
2566.445	4396
2568.382	4339
2570.317	4322
2572.254	4450
2574.189	4475
2576.123	4298
2578.057	4318
2579.99	4200
2581.923	4335
2583.855	4384
2585.788	4434
2587.719	4486
2589.65	4374
2591.579	4389
2593.511	4373
2595.44	4356
2597.37	4343
2599.297	4366
2601.225	4405
2603.153	4362
2605.08	4457
2607.007	4452
2608.932	4361
2610.858	4375
2612.782	4384
2614.709	4352
2616.632	4332
2618.556	4365
2620.478	4307
2622.401	4295
2624.324	4416
2626.247	4315
2628.167	4341
2630.088	4404
2632.008	4450
2633.928	4437
2635.848	4473
2637.766	4362
2639.684	4476
2641.603	4390
2643.519	4351
2645.437	4452
2647.353	4339
2649.27	4452
2651.184	4346
2653.099	4406
2655.014	4340
2656.928	4315
2658.842	4349
2660.755	4318
2662.667	4406
2664.579	4363
2666.491	4402
2668.402	4350
2670.312	4403
2672.222	4462
2674.132	4389
2676.042	4351
2677.951	4306
2679.859	4361
2681.766	4324
2683.674	4402
2685.582	4238
2687.488	4283
2689.392	4285
2691.298	4295
2693.202	4281
2695.107	4274
2697.012	4272
2698.914	4314
2700.817	4303
2702.72	4247
2704.622	4353
2706.524	4330
2708.425	4333
2710.326	4336
2712.225	4330
2714.125	4303
2716.024	4283
2717.923	4268
2719.822	4249
2721.719	4287
2723.616	4321
2725.512	4285
2727.41	4232
2729.305	4337
2731.201	4296
2733.095	4258
2734.99	4329
2736.884	4271
2738.778	4394
2740.67	4368
2742.562	4252
2744.455	4189
2746.346	4331
2748.238	4233
2750.129	4320
2752.018	4312
2753.907	4262
2755.797	4255
2757.687	4315
2759.575	4307
2761.462	4369
2763.349	4295
2765.237	4306
2767.124	4253
2769.009	4222
2770.894	4266
2772.779	4241
2774.663	4229
2776.547	4295
2778.431	4286
2780.314	4252
2782.197	4308
2784.078	4327
2785.96	4276
2787.842	4312
2789.723	4313
2791.603	4311
2793.483	4231
2795.362	4239
2797.241	4309
2799.121	4338
2800.997	4109
2802.874	4348
2804.751	4211
2806.628	4304
2808.506	4201
2810.38	4299
2812.255	4299
2814.13	4263
2816.003	4257
2817.878	4171
2819.752	4246
2821.623	4359
2823.496	4301
2825.368	4321
2827.238	4194
2829.111	4336
2830.98	4289
2832.851	4284
2834.719	4267
2836.589	4283
2838.458	4278
2840.327	4265
2842.193	4301
2844.061	4336
2845.927	4204
2847.794	4304
2849.66	4350
2851.525	4275
2853.39	4354
2855.254	4343
2857.117	4340
2858.983	4396
2860.845	4345
2862.707	4455
2864.569	4517
2866.431	4430
2868.293	4390
2870.154	4472
2872.013	4524
2873.873	4630
2875.733	4574
2877.592	4653
2879.451	4631
2881.309	4701
2883.166	4746
2885.022	4780
2886.879	4788
2888.736	4759
2890.591	4806
2892.446	4895
2894.301	4930
2896.155	4760
2898.009	4755
2899.863	4714
2901.716	4781
2903.568	4754
2905.419	4818
2907.27	4780
2909.123	4861
2910.973	4785
2912.824	4865
2914.673	4900
2916.521	4907
2918.372	4909
2920.22	4981
2922.067	4948
2923.914	5090
2925.761	5037
2927.607	5144
2929.455	5172
2931.301	5115
2933.144	5224
2934.99	5139
2936.833	5124
2938.678	5409
2940.522	5274
2942.364	5517
2944.207	5439
2946.048	5483
2947.891	5506
2949.731	5708
2951.571	5641
2953.412	5640
2955.25	5593
2957.09	5534
2958.93	5466
2960.767	5509
2962.606	5394
2964.443	5253
2966.279	5317
2968.116	5214
2969.953	5114
2971.788	5101
2973.623	4981
2975.457	4945
2977.292	4872
2979.127	4844
2980.959	4883
2982.792	4824
2984.624	4821
2986.455	4755
2988.288	4699
2990.119	4698
2991.949	4680
2993.779	4671
2995.608	4657
2997.439	4612
2999.268	4578
3001.096	4484
3002.923	4503
3004.751	4440
3006.578	4350
3008.406	4284
3010.232	4444
3012.057	4240
3013.883	4251
3015.706	4339
3017.532	4185
3019.356	4261
3021.179	4196
3023.002	4113
3024.823	4141
3026.646	4136
3028.469	4171
3030.289	4146
3032.11	4143
3033.93	4193
3035.749	4092
3037.57	4088
3039.39	4161
3041.207	4054
3043.026	4018
3044.842	4094
3046.661	4017
3048.477	4038
3050.294	4017
3052.109	4042
3053.925	4083
3055.739	4131
3057.555	3993
3059.368	4018
3061.181	4075
3062.995	4007
3064.807	4137
3066.62	4062
3068.433	4145
3070.243	3950
3072.054	3958
3073.865	4007
3075.675	4131
3077.485	4077
3079.293	4153
3081.102	3997
3082.911	3961
3084.719	3979
3086.527	3961
3088.333	4080
3090.139	4028
3091.945	3966
3093.75	3818
3095.557	3927
3097.361	3996
3099.165	3915
3100.969	3877
3102.772	3941
3104.575	3853
3106.379	3966
3108.181	3902
3109.982	3990
3111.783	3805
3113.584	3830
3115.386	3848
3117.186	3891
3118.985	3854
3120.783	3891
3122.582	3804
3124.381	3861
3126.179	3862
3127.975	3826
3129.772	3775
3131.569	3892
3133.365	3862
3135.161	3737
3136.956	3860
3138.751	3888
3140.544	3802
3142.338	3843
3144.132	3876
3145.925	3789
3147.717	3826
3149.509	3789
3151.301	3797
3153.091	3843
3154.884	3768
3156.673	3838
3158.462	3810
3160.252	3767
3162.041	3827
3163.831	3801
3165.618	3729
3167.405	3818
3169.193	3810
3170.979	3792
3172.767	3827
3174.553	3808
3176.338	3843
3178.123	3784
3179.907	3708
3181.692	3741
3183.477	3803
3185.259	3783
3187.042	3811
3188.824	3731
3190.607	3840
3192.389	3792
3194.17	3815
3195.951	3737
3197.73	3778
3199.51	3736
3201.289	3788
3203.07	3797
3204.848	3809
3206.626	3821
3208.403	3739
3210.18	3733
3211.959	3804
3213.735	3693
3215.511	3823
3217.285	3707
3219.06	3746
3220.836	3725
3222.611	3788
3224.384	3735
3226.158	3794
3227.929	3834
3229.702	3738
3231.476	3686
3233.248	3788
3235.018	3797
3236.789	3885
3238.56	3765
3240.33	3813
3242.1	3776
3243.869	3713
3245.637	3825
3247.405	3848
3249.172	3715
3250.941	3674
3252.707	3724
3254.474	3732
3256.24	3728
3258.006	3745
3259.772	3744
3261.537	3736
3263.301	3834
3265.065	3851
3266.828	3748
3268.592	3754
3270.355	3756
3272.117	3762
3273.878	3742
3275.64	3783
3277.401	3817
3279.162	3735
3280.922	3788
3282.682	3773
3284.441	3782
3286.199	3778
3287.959	3767
3289.716	3787
3291.475	3821
3293.232	3720
3294.988	3707
3296.744	3845
3298.501	3765
3300.256	3757
3302.011	3755
3303.766	3815
3305.52	3799
3307.275	3808
3309.028	3647
3310.781	3734
3312.533	3741
3314.285	3797
3316.038	3769
3317.789	3737
3319.54	3799
3321.289	3757
3323.039	3776
3324.789	3842
3326.539	3704
3328.288	3775
3330.035	3830
3331.783	3695
3333.531	3675
3335.28	3659
3337.025	3783
3338.771	3704
3340.518	3727
3342.262	3674
3344.009	3718
3345.753	3745
3347.497	3600
3349.24	3595
3350.983	3779
3352.726	3601
3354.469	3693
3356.212	3776
3357.952	3703
3359.694	3672
3361.434	3650
3363.176	3583
3364.916	3620
3366.654	3597
3368.394	3694
3370.132	3635
3371.871	3640
3373.61	3612
3375.346	3643
3377.083	3649
3378.82	3662
3380.556	3653
3382.292	3642
3384.027	3597
3385.763	3575
3387.497	3601
3389.231	3621
3390.965	3596
3392.698	3667
3394.431	3675
3396.164	3576
3397.896	3606
3399.627	3519
3401.36	3563
3403.09	3626
3404.82	3544
3406.55	3574
3408.279	3598
3410.01	3479
3411.738	3492
3413.467	3557
3415.194	3586
3416.92	3582
3418.647	3574
3420.375	3607
3422.102	3517
3423.827	3537
3425.553	3489
3427.277	3524
3429.003	3510
3430.727	3517
3432.451	3496
3434.173	3533
3435.896	3491
3437.62	3513
3439.343	3564
3441.063	3587
3442.785	3490
3444.505	3474
3446.226	3490
3447.948	3476
3449.666	3413
3451.386	3453
3453.104	3515
3454.823	3485
3456.541	3408
3458.259	3478
3459.976	3422
3461.693	3464
3463.408	3453
3465.125	3428
3466.841	3416
3468.556	3424
3470.271	3413
3471.985	3379
3473.698	3424
3475.414	3452
3477.126	3348
3478.838	3428
3480.55	3336
3482.263	3393
3483.975	3380
3485.686	3352
3487.396	3349
3489.106	3342
3490.817	3301
3492.526	3444
3494.236	3284
3495.944	3357
3497.652	3388
3499.359	3393
3501.066	3400
3502.775	3336
3504.481	3337
3506.187	3384
3507.893	3280
3509.598	3353
3511.304	3258
3513.009	3357
3514.713	3363
3516.417	3298
3518.12	3290
3519.821	3291
3521.525	3384
3523.228	3308
3524.929	3203
3526.631	3213
3528.33	3260
3530.032	3268
3531.733	3244
3533.433	3247
3535.131	3209
3536.83	3231
3538.529	3265
3540.227	3183
3541.925	3225
3543.623	3227
3545.319	3243
3547.016	3219
3548.712	3163
3550.408	3228
3552.103	3234
3553.798	3235
3555.491	3160
3557.188	3144
3558.88	3243
3560.574	3268
3562.266	3166
3563.959	3142
3565.651	3181
3567.343	3155
3569.035	3182
3570.725	3179
3572.415	3159
3574.106	3201
3575.797	3149
3577.485	3194
3579.174	3162
3580.863	3126
3582.551	3160
3584.238	3107
3585.926	3166
3587.613	3144
3589.3	3165
3590.986	3100
3592.671	3083
3594.357	3181
3596.042	3051
3597.726	3132
3599.41	3176
3601.094	3066
3602.778	3061
3604.461	3111
3606.143	3105
3607.825	3173
3609.507	2989
3611.188	3058
3612.87	3025
3614.551	3031
3616.229	3039
3617.909	3056
3619.589	3041
3621.269	3021
3622.948	2988
3624.625	2984
3626.302	3050
3627.98	3016
3629.657	2973
3631.334	3014
3633.01	3087
3634.686	3043
3636.361	3073
3638.036	3027
3639.712	2978
3641.385	2941
3643.06	2964
3644.732	2922
3646.405	2900
3648.08	2966
3649.751	3033
3651.424	2970
3653.094	2965
3654.766	3022
3656.436	2955
3658.106	2908
3659.777	3000
3661.446	2896
3663.115	2956
3664.783	2892
3666.452	2920
3668.121	2905
3669.788	2897
3671.454	3000
3673.121	2920
3674.789	2915
3676.455	2932
3678.12	2914
3679.784	2881
3681.45	2926
3683.114	2880
3684.779	2975
3686.442	2839
3688.105	2942
3689.768	2895
3691.43	2855
3693.093	2872
3694.754	2914
3696.415	2891
3698.076	2814
3699.736	2866
3701.396	2935
3703.057	2836
3704.716	2865
3706.375	2865
3708.034	2948
3709.692	2865
3711.351	2962
3713.008	2815
3714.665	2904
3716.321	2808
3717.977	2894
3719.634	2832
3721.29	2822
3722.945	2807
3724.598	2843
3726.253	2890
3727.907	2797
3729.561	2886
3731.214	2852
3732.867	2792
3734.518	2864
3736.171	2811
3737.824	2799
3739.474	2767
3741.125	2842
3742.775	2859
3744.425	2768
3746.074	2825
3747.725	2807
3749.373	2855
3751.022	2832
3752.669	2814
3754.318	2735
3755.966	2752
3757.612	2847
3759.259	2825
3760.905	2792
3762.55	2870
3764.197	2855
3765.842	2813
3767.486	2772
3769.131	2826
3770.774	2789
3772.417	2755
3774.061	2767
3775.705	2747
3777.347	2705
3778.988	2747
3780.629	2733
3782.271	2766
3783.912	2730
3785.552	2703
3787.192	2783
3788.831	2730
3790.472	2670
3792.112	2713
3793.75	2796
3795.388	2770
3797.024	2790
3798.661	2659
3800.3	2684
3801.936	2684
3803.572	2756
3805.208	2706
3806.844	2717
3808.48	2704
3810.115	2672
3811.748	2672
3813.382	2716
3815.016	2649
3816.649	2682
3818.283	2693
3819.914	2693
3821.547	2695
3823.178	2712
3824.809	2745
3826.441	2730
3828.072	2706
3829.701	2730
3831.331	2640
3832.96	2692
3834.591	2673
3836.219	2618
3837.847	2668
3839.475	2637
3841.102	2661
3842.729	2697
3844.357	2650
3845.984	2714
3847.609	2672
3849.234	2649
3850.86	2688
3852.485	2675
3854.11	2586
3855.734	2632
3857.357	2626
3858.981	2679
3860.603	2629
3862.227	2637
3863.848	2638
3865.471	2632
3867.092	2644
3868.713	2627
3870.334	2621
3871.954	2615
3873.575	2718
3875.194	2608
3876.813	2624
3878.433	2576
3880.051	2613
3881.669	2601
3883.286	2557
3884.904	2609
3886.52	2650
3888.138	2572
3889.754	2547
3891.37	2564
3892.985	2621
3894.6	2550
3896.216	2550
3897.831	2539
3899.444	2595
3901.058	2559
3902.67	2589
3904.283	2597
3905.897	2584
3907.509	2571
3909.121	2568
3910.731	2524
3912.342	2549
3913.954	2569
3915.563	2597
3917.174	2558
3918.783	2561
3920.391	2558
3922.002	2592
3923.611	2507
3925.218	2549
3926.826	2610
3928.432	2519
3930.039	2569
3931.647	2532
3933.253	2504
3934.859	2537
3936.464	2530
3938.068	2493
3939.675	2520
3941.278	2577
3942.883	2515
3944.486	2509
3946.089	2505
3947.692	2480
3949.295	2566
3950.898	2537
3952.499	2511
3954.1	2484
3955.7	2513
3957.303	2491
3958.903	2497
3960.502	2435
3962.101	2482
3963.7	2483
3965.301	2545
3966.899	2530
3968.497	2530
3970.094	2452
3971.691	2463
3973.288	2458
3974.885	2457
3976.481	2521
3978.077	2417
3979.672	2471
3981.267	2361
3982.863	2496
3984.457	2512
3986.051	2440
3987.645	2442
3989.238	2484
3990.831	2471
3992.425	2444
3994.017	2474
3995.607	2481
3997.199	2443
3998.79	2461
4000.382	2457
4001.973	2440
4003.561	2399
4005.151	2405
4006.741	2483
4008.331	2395
4009.918	2477
4011.507	2480
4013.095	2428
4014.681	2441
4016.269	2514
4017.856	2363
4019.443	2424
4021.028	2446
4022.614	2378
4024.199	2453
4025.785	2354
4027.37	2406
4028.953	2351
4030.536	2357
4032.12	2359
4033.704	2367
4035.287	2332
4036.869	2409
4038.45	2425
4040.032	2478
4041.613	2371
4043.195	2370
4044.776	2348
4046.356	2398
4047.935	2348
4049.515	2333
4051.095	2335
4052.674	2400
4054.251	2358
4055.829	2336
4057.406	2352
4058.985	2288
4060.562	2304
4062.139	2377
4063.715	2370
4065.29	2285
4066.865	2405
4068.442	2277
4070.016	2330
4071.59	2339
4073.164	2251
4074.738	2292
4076.312	2291
4077.885	2290
4079.458	2317
4081.03	2289
4082.602	2357
4084.173	2320
4085.745	2290
4087.315	2311
4088.886	2386
4090.456	2330
4092.026	2322
4093.596	2327
4095.165	2278
4096.734	2326
4098.301	2266
4099.869	2266
4101.437	2346
4103.006	2319
4104.572	2273
4106.139	2280
4107.704	2284
4109.27	2323
4110.837	2294
4112.401	2257
4113.966	2287
4115.53	2242
4117.094	2269
4118.659	2254
4120.223	2236
4121.785	2258
4123.347	2216
4124.909	2235
4126.471	2284
4128.034	2268
4129.595	2241
4131.155	2270
4132.716	2241
4134.275	2218
4135.836	2261
4137.395	2164
4138.955	2214
4140.513	2235
4142.071	2172
4143.628	2186
4145.188	2247
4146.745	2180
4148.302	2280
4149.858	2269
4151.414	2185
4152.971	2191
4154.526	2199
4156.081	2225
4157.635	2204
4159.189	2198
4160.745	2199
4162.298	2171
4163.852	2175
4165.405	2139
4166.957	2124
4168.51	2157
4170.063	2239
4171.614	2175
4173.166	2184
4174.717	2195
4176.267	2130
4177.817	2182
4179.368	2173
4180.917	2143
4182.466	2156
4184.016	2153
4185.564	2137
4187.112	2177
4188.66	2161
4190.207	2171
4191.754	2152
4193.301	2168
4194.848	2159
4196.394	2120
4197.94	2149
4199.484	2154
4201.03	2153
4202.575	2095
4204.12	2148
4205.663	2131
4207.207	2107
4208.75	2113
4210.292	2128
4211.836	2170
4213.378	2126
4214.92	2110
4216.46	2169
4218.002	2116
4219.544	2143
4221.083	2091
4222.625	2091
4224.164	2088
4225.703	2117
4227.244	2108
4228.782	2130
4230.32	2066
4231.857	2075
4233.395	2103
4234.933	2088
4236.471	2108
4238.007	2058
4239.542	2062
4241.078	2082
4242.614	2127
4244.15	2053
4245.685	2054
4247.219	2126
4248.753	2072
4250.287	2013
4251.82	2092
4253.354	2071
4254.887	2039
4256.419	2136
4257.951	2083
4259.483	2161
4261.016	2076
4262.547	2044
4264.078	2074
4265.608	2053
4267.137	2071
4268.668	2086
4270.197	2067
4271.727	2079
4273.254	2068
4274.783	2119
4276.311	2087
4277.84	2049
4279.366	2072
4280.894	1993
4282.42	2025
4283.946	2043
4285.473	2015
4286.998	2058
4288.523	1978
4290.047	2032
4291.572	2037
4293.096	2069
4294.622	2009
4296.144	2000
4297.668	1976
4299.19	2001
4300.713	2051
4302.236	2034
4303.758	2027
4305.279	1980
4306.799	2040
4308.321	1997
4309.842	1983
4311.361	2053
4312.882	2022
4314.401	2003
