400.0961	4046
402.6185	3980
405.1424	4041
407.6635	4017
410.1838	4030
412.7035	4166
415.2225	4187
417.7388	4073
420.2585	4204
422.7754	4212
425.2917	4313
427.8072	4208
430.3221	4260
432.8363	4287
435.3498	4398
437.8626	4389
440.3727	4367
442.8841	4362
445.3969	4261
447.907	4269
450.4142	4409
452.9229	4352
455.4289	4359
457.9362	4371
460.4449	4286
462.9488	4242
465.454	4268
467.9566	4328
470.4604	4216
472.9637	4336
475.4662	4284
477.966	4336
480.4671	4262
482.9656	4371
485.4633	4333
487.9645	4352
490.4608	4301
492.9566	4271
495.4536	4318
497.948	4301
500.4437	4457
502.9387	4363
505.431	4379
507.9226	4410
510.4136	4378
512.9079	4432
515.3975	4498
517.8864	4412
520.3746	4412
522.8622	4509
525.3491	4401
527.8394	4461
530.3249	4405
532.8098	4413
535.2939	4381
537.7774	4421
540.2623	4453
542.7444	4429
545.2259	4509
547.7067	4432
550.1868	4367
552.6683	4452
555.147	4417
557.6231	4510
560.1005	4462
562.5773	4513
565.0534	4504
567.5308	4565
570.0056	4497
572.4776	4586
574.951	4679
577.4237	4569
579.8978	4694
582.3671	4640
584.8378	4684
587.3079	4640
589.7773	4703
592.244	4723
594.714	4663
597.1793	4601
599.6461	4678
602.1121	4655
604.5754	4618
607.0421	4625
609.5042	4595
611.9675	4623
614.4282	4556
616.8902	4599
619.3515	4558
621.8122	4606
624.2702	4561
626.7296	4537
629.1863	4597
631.6423	4510
634.1017	4610
636.5563	4604
639.0104	4552
641.4658	4576
643.9185	4604
646.3725	4642
648.8239	4619
651.2766	4585
653.7266	4637
656.176	4706
658.6247	4646
661.0748	4612
663.5242	4705
665.9709	4675
668.417	4659
670.8624	4677
673.3092	4659
675.7533	4666
678.1968	4695
680.6395	4715
683.0817	4735
685.5251	4761
687.9659	4687
690.4061	4764
692.8456	4750
695.2844	4745
697.7226	4786
700.1621	4643
702.599	4788
705.0332	4781
707.4688	4818
709.9036	4839
712.3399	4809
714.7735	4788
717.2044	4803
719.6367	4873
722.0683	4817
724.4993	4897
726.9296	4869
729.3593	4923
731.7883	4877
734.2147	4966
736.6423	4892
739.0714	4946
741.4958	4900
743.9216	5069
746.3447	4981
748.7691	5030
751.1929	4939
753.616	5027
756.0366	5000
758.4584	5012
760.8776	5063
763.2982	5060
765.718	4992
768.1373	5031
770.5539	5018
772.9698	5117
775.3871	4994
777.8038	5051
780.2178	5020
782.6332	5125
785.0459	5021
787.458	5159
789.8714	5107
792.2842	4984
794.6943	5102
797.1038	5136
799.5127	5137
801.9209	5084
804.3324	5125
806.7393	5273
809.1456	5220
811.5513	5159
813.9562	5039
816.3625	5130
818.7663	5202
821.1693	5170
823.5718	5149
825.9735	5219
828.3746	5119
830.7771	5072
833.177	5137
835.5762	5154
837.9747	5193
840.3727	5225
842.772	5296
845.1666	5227
847.5626	5197
849.958	5289
852.3527	5315
854.7488	5327
857.1403	5286
859.5331	5329
861.9253	5322
864.3168	5332
866.7057	5340
869.098	5271
871.4876	5197
873.8746	5211
876.263	5271
878.6487	5313
881.0378	5277
883.4243	5189
885.8081	5223
888.1933	5231
890.5759	5209
892.9598	5314
895.343	5208
897.7256	5274
900.1057	5277
902.4871	5286
904.8659	5236
907.246	5219
909.6254	5208
912.0023	5354
914.3786	5412
916.7562	5464
919.1331	5464
921.5074	5646
923.8831	5494
926.2562	5572
928.6287	5552
931.0005	5511
933.3757	5575
935.7462	5641
938.1162	5548
940.4855	5604
942.8542	5630
945.2242	5757
947.5916	5906
949.9584	5934
952.3266	6216
954.6921	6338
957.0571	6632
959.4233	6810
961.787	6812
964.15	6841
966.5125	6719
968.8742	6411
971.2354	6119
973.5959	5946
975.9559	5876
978.3151	5622
980.6738	5569
983.0338	5546
985.3912	5348
987.7461	5433
990.1022	5449
992.4578	5448
994.8127	5452
997.1689	5393
999.5207	5447
1001.874	5496
1004.226	5506
1006.576	5510
1008.929	5443
1011.28	5453
1013.628	5376
1015.977	5485
1018.324	5450
1020.674	5440
1023.019	5571
1025.366	5495
1027.713	5600
1030.056	5529
1032.399	5492
1034.746	5611
1037.087	5597
1039.431	5561
1041.771	5681
1044.113	5554
1046.454	5565
1048.793	5580
1051.133	5515
1053.471	5638
1055.807	5610
1058.146	5587
1060.483	5586
1062.818	5621
1065.153	5675
1067.489	5737
1069.822	5797
1072.156	5667
1074.488	5833
1076.82	5647
1079.15	5588
1081.48	5742
1083.814	5672
1086.143	5683
1088.471	5626
1090.799	5637
1093.126	5515
1095.452	5637
1097.78	5605
1100.105	5556
1102.43	5585
1104.754	5645
1107.077	5545
1109.4	5610
1111.722	5644
1114.044	5530
1116.365	5656
1118.685	5571
1121.005	5617
1123.324	5582
1125.643	5652
1127.961	5700
1130.278	5498
1132.595	5608
1134.911	5613
1137.226	5615
1139.541	5490
1141.854	5586
1144.167	5566
1146.482	5584
1148.793	5656
1151.105	5582
1153.414	5578
1155.725	5643
1158.033	5570
1160.344	5696
1162.651	5648
1164.959	5618
1167.265	5589
1169.572	5558
1171.878	5619
1174.184	5605
1176.488	5666
1178.79	5551
1181.094	5555
1183.396	5671
1185.699	5596
1188.001	5620
1190.301	5660
1192.6	5627
1194.9	5691
1197.2	5676
1199.497	5602
1201.794	5672
1204.09	5653
1206.387	5631
1208.684	5565
1210.978	5663
1213.272	5645
1215.565	5567
1217.858	5634
1220.15	5658
1222.443	5599
1224.734	5770
1227.024	5681
1229.313	5682
1231.602	5745
1233.892	5943
1236.18	5789
1238.467	5795
1240.754	5888
1243.04	5825
1245.325	5763
1247.612	5852
1249.896	5913
1252.178	5968
1254.461	6029
1256.743	5895
1259.027	5882
1261.308	5828
1263.587	5835
1265.867	5987
1268.146	5894
1270.425	5846
1272.703	5917
1274.981	5877
1277.256	5845
1279.532	5901
1281.808	5881
1284.083	5921
1286.358	5805
1288.63	5850
1290.904	5826
1293.175	5758
1295.449	5956
1297.719	5786
1299.99	5799
1302.259	5813
1304.529	5758
1306.798	5768
1309.065	5692
1311.333	5839
1313.599	5795
1315.866	5789
1318.131	5866
1320.396	5940
1322.66	5727
1324.925	5924
1327.187	5761
1329.448	5911
1331.711	5812
1333.974	5848
1336.234	5729
1338.493	5867
1340.752	5798
1343.01	5773
1345.269	5670
1347.526	5853
1349.784	5744
1352.04	5757
1354.295	5797
1356.552	5801
1358.806	5786
1361.059	5771
1363.312	5818
1365.564	5891
1367.818	5970
1370.069	5812
1372.318	5948
1374.568	5758
1376.817	5791
1379.066	5896
1381.316	5818
1383.564	5916
1385.809	5926
1388.056	5790
1390.301	5914
1392.549	5894
1394.793	5952
1397.036	6134
1399.279	6048
1401.522	5999
1403.763	6087
1406.007	6021
1408.248	5984
1410.487	5968
1412.727	5997
1414.965	5928
1417.205	6044
1419.442	6017
1421.68	6129
1423.915	6112
1426.152	5912
1428.388	6081
1430.623	6015
1432.857	6009
1435.091	5990
1437.323	6090
1439.556	6034
1441.789	6136
1444.019	6060
1446.25	6044
1448.48	6101
1450.708	6075
1452.938	6155
1455.167	6184
1457.394	6134
1459.62	6205
1461.846	6180
1464.073	6221
1466.299	6085
1468.523	6083
1470.746	6067
1472.969	6030
1475.191	5950
1477.415	5982
1479.636	5865
1481.858	5846
1484.078	5809
1486.298	5885
1488.518	5958
1490.736	5912
1492.954	5812
1495.169	5832
1497.386	5881
1499.602	5818
1501.819	5932
1504.034	5877
1506.248	5832
1508.462	5722
1510.675	5849
1512.888	5726
1515.1	5849
1517.311	5822
1519.522	5855
1521.732	5745
1523.942	5723
1526.151	5819
1528.36	5735
1530.566	5788
1532.773	5796
1534.98	5785
1537.187	5860
1539.392	5837
1541.596	5817
1543.801	5931
1546.005	5785
1548.208	5967
1550.411	5937
1552.612	5983
1554.814	5904
1557.013	5851
1559.212	5873
1561.414	5794
1563.612	5809
1565.811	5946
1568.007	5852
1570.203	5929
1572.403	5921
1574.598	6004
1576.792	5939
1578.988	5930
1581.181	5894
1583.376	6054
1585.568	6082
1587.761	5971
1589.952	6012
1592.143	5982
1594.333	6036
1596.524	5974
1598.715	6109
1600.903	6014
1603.091	6080
1605.278	6108
1607.466	6035
1609.652	6041
1611.838	6040
1614.023	6022
1616.207	6031
1618.391	5968
1620.576	6003
1622.759	6071
1624.941	6046
1627.123	5926
1629.304	6094
1631.484	6183
1633.664	6074
1635.844	6079
1638.022	5960
1640.201	6118
1642.38	6170
1644.556	6137
1646.732	6134
1648.908	6043
1651.084	6103
1653.257	6082
1655.433	6118
1657.607	6157
1659.779	6123
1661.951	6152
1664.122	6171
1666.295	6170
1668.467	6203
1670.635	6240
1672.805	6247
1674.973	6183
1677.142	6222
1679.31	6033
1681.478	6190
1683.644	6135
1685.81	6128
1687.975	6181
1690.142	6128
1692.305	6049
1694.468	6079
1696.632	6033
1698.794	6068
1700.957	5956
1703.119	6066
1705.279	6028
1707.439	5970
1709.598	6066
1711.758	5861
1713.917	5942
1716.075	6027
1718.231	5956
1720.388	6069
1722.543	5977
1724.702	6037
1726.856	5958
1729.01	5905
1731.164	5975
1733.317	5997
1735.471	6027
1737.623	6038
1739.774	6002
1741.925	5835
1744.075	5939
1746.225	5969
1748.376	5970
1750.524	5939
1752.672	5990
1754.82	6046
1756.965	6037
1759.113	6041
1761.259	5974
1763.405	5935
1765.549	6058
1767.694	6040
1769.836	5948
1771.981	6002
1774.123	5974
1776.264	6008
1778.405	6090
1780.546	6102
1782.687	6018
1784.827	6060
1786.966	6085
1789.103	6070
1791.242	6001
1793.381	6071
1795.517	6041
1797.653	6161
1799.788	6077
1801.923	6098
1804.057	6004
1806.193	5973
1808.326	6035
1810.457	6046
1812.59	6085
1814.721	6046
1816.855	6019
1818.984	5991
1821.113	6073
1823.244	5962
1825.372	6009
1827.499	6017
1829.63	6064
1831.756	6094
1833.882	6090
1836.007	6057
1838.132	5981
1840.26	6034
1842.384	6013
1844.507	6030
1846.63	6029
1848.752	5992
1850.875	6041
1852.996	5894
1855.118	5971
1857.238	5985
1859.358	5952
1861.477	5962
1863.597	6099
1865.715	6069
1867.832	6056
1869.948	5849
1872.064	5888
1874.181	5959
1876.297	5943
1878.411	5943
1880.526	5923
1882.639	5910
1884.752	5960
1886.865	6004
1888.977	6056
1891.089	6029
1893.2	6082
1895.308	6100
1897.42	6089
1899.53	5920
1901.639	6007
1903.745	6065
1905.853	6089
1907.962	6019
1910.067	6043
1912.174	5971
1914.278	6096
1916.383	6141
1918.486	6064
1920.592	6175
1922.694	6100
1924.797	5949
1926.898	6107
1929	6129
1931.102	6008
1933.203	6159
1935.301	6120
1937.401	6066
1939.499	6006
1941.598	6121
1943.697	6101
1945.793	6032
1947.888	6103
1949.985	6000
1952.08	6061
1954.176	6088
1956.269	6160
1958.364	6151
1960.457	6135
1962.549	6066
1964.642	6074
1966.733	6207
1968.823	6041
1970.913	6002
1973.005	6047
1975.093	6042
1977.184	6083
1979.271	6006
1981.359	5966
1983.446	6008
1985.532	6139
1987.619	5994
1989.705	6085
1991.789	6096
1993.874	6000
1995.956	5979
1998.041	6056
2000.123	5894
2002.206	5996
2004.287	6054
2006.368	5889
2008.449	5959
2010.529	6055
2012.609	5987
2014.688	6008
2016.766	5985
2018.843	6114
2020.922	5927
2022.999	6054
2025.074	6002
2027.15	6074
2029.225	6072
2031.299	6051
2033.375	6109
2035.447	6129
2037.52	5892
2039.592	6106
2041.664	6144
2043.736	6048
2045.807	6067
2047.876	6004
2049.947	6007
2052.015	5982
2054.086	5967
2056.153	6123
2058.221	6012
2060.288	6063
2062.353	6054
2064.42	6006
2066.486	6077
2068.55	6080
2070.614	6001
2072.678	6160
2074.741	5989
2076.805	5949
2078.866	6042
2080.929	5990
2082.99	6108
2085.049	6114
2087.109	6046
2089.17	6003
2091.228	5987
2093.286	5996
2095.344	6015
2097.4	6033
2099.46	5910
2101.516	6009
2103.572	5994
2105.626	6093
2107.679	6071
2109.735	5984
2111.788	5931
2113.841	6015
2115.894	6044
2117.945	6112
2119.997	6126
2122.049	6010
2124.1	5971
2126.148	6028
2128.197	6009
2130.246	6061
2132.296	5959
2134.342	6037
2136.39	6059
2138.437	6021
2140.483	6008
2142.527	5881
2144.574	6032
2146.619	5958
2148.661	5951
2150.705	5960
2152.747	5921
2154.792	5954
2156.832	6062
2158.874	5982
2160.915	5923
2162.954	5992
2164.995	5984
2167.034	5921
2169.072	5887
2171.111	6067
2173.148	5868
2175.186	6073
2177.223	5769
2179.258	6033
2181.294	5900
2183.328	5881
2185.362	5900
2187.398	5896
2189.431	5842
2191.463	5911
2193.495	5885
2195.528	5916
2197.56	5844
2199.59	5866
2201.62	5926
2203.649	5804
2205.678	5787
2207.708	5813
2209.737	5910
2211.764	5768
2213.791	5870
2215.817	5761
2217.843	5863
2219.87	5884
2221.895	5845
2223.919	5825
2225.942	5957
2227.966	5911
2229.988	5926
2232.012	5842
2234.032	5802
2236.054	5858
2238.074	5711
2240.095	5768
2242.116	5859
2244.135	5931
2246.153	5841
2248.171	5802
2250.188	5853
2252.208	5853
2254.223	5913
2256.239	5984
2258.255	5868
2260.269	5859
2262.283	5788
2264.3	5763
2266.312	5898
2268.325	5891
2270.336	5780
2272.349	5900
2274.362	5851
2276.372	5871
2278.383	5890
2280.392	5873
2282.402	5876
2284.409	5885
2286.418	5895
2288.427	5880
2290.433	5864
2292.441	5896
2294.446	5709
2296.453	5882
2298.459	5821
2300.463	5703
2302.466	5856
2304.471	5845
2306.475	5755
2308.477	5589
2310.478	5765
2312.481	5823
2314.481	5820
2316.481	5819
2318.482	5783
2320.482	5713
2322.48	5807
2324.48	5771
2326.478	5821
2328.476	5867
2330.473	5812
2332.469	5710
2334.465	5794
2336.46	5716
2338.454	5741
2340.45	5684
2342.444	5665
2344.437	5651
2346.43	5765
2348.421	5864
2350.414	5769
2352.405	5693
2354.396	5724
2356.386	5779
2358.376	5730
2360.366	5770
2362.355	5738
2364.343	5790
2366.331	5682
2368.317	5816
2370.304	5799
2372.292	5685
2374.278	5706
2376.262	5762
2378.247	5696
2380.23	5715
2382.216	5658
2384.199	5666
2386.181	5633
2388.163	5721
2390.144	5661
2392.127	5643
2394.107	5700
2396.087	5678
2398.066	5594
2400.046	5715
2402.023	5645
2404.004	5739
2405.981	5607
2407.957	5612
2409.934	5642
2411.91	5613
2413.886	5615
2415.862	5699
2417.836	5558
2419.809	5669
2421.784	5581
2423.756	5634
2425.73	5586
2427.701	5562
2429.672	5663
2431.644	5632
2433.615	5684
2435.586	5607
2437.555	5687
2439.523	5620
2441.491	5598
2443.459	5646
2445.428	5638
2447.395	5584
2449.361	5609
2451.327	5616
2453.292	5645
2455.257	5477
2457.223	5546
2459.187	5589
2461.15	5597
2463.113	5523
2465.076	5531
2467.039	5584
2468.999	5666
2470.96	5414
2472.921	5617
2474.881	5501
2476.841	5595
2478.8	5547
2480.759	5576
2482.717	5591
2484.675	5480
2486.63	5618
2488.589	5491
2490.545	5574
2492.5	5511
2494.455	5494
2496.408	5522
2498.364	5557
2500.318	5543
2502.27	5493
2504.223	5578
2506.174	5564
2508.126	5505
2510.078	5544
2512.03	5549
2513.979	5567
2515.927	5553
2517.877	5472
2519.826	5429
2521.775	5500
2523.722	5426
2525.668	5496
2527.616	5613
2529.561	5445
2531.508	5452
2533.452	5468
2535.398	5559
2537.342	5629
2539.284	5453
2541.229	5460
2543.173	5424
2545.114	5450
2547.055	5456
2548.996	5525
2550.938	5474
2552.878	5441
2554.817	5420
2556.756	5479
2558.695	5449
2560.633	5437
2562.572	5390
2564.509	5520
2566.445	5512
2568.382	5397
2570.317	5478
2572.254	5562
2574.189	5479
2576.123	5409
2578.057	5434
2579.99	5445
2581.923	5477
2583.855	5497
2585.788	5505
2587.719	5397
2589.65	5538
2591.579	5499
2593.511	5481
2595.44	5544
2597.37	5477
2599.297	5481
2601.225	5503
2603.153	5460
2605.08	5504
2607.007	5600
2608.932	5592
2610.858	5440
2612.782	5598
2614.709	5515
2616.632	5464
2618.556	5375
2620.478	5590
2622.401	5428
2624.324	5455
2626.247	5441
2628.167	5510
2630.088	5508
2632.008	5528
2633.928	5467
2635.848	5417
2637.766	5414
2639.684	5576
2641.603	5472
2643.519	5464
2645.437	5521
2647.353	5539
2649.27	5518
2651.184	5444
2653.099	5457
2655.014	5550
2656.928	5442
2658.842	5489
2660.755	5472
2662.667	5457
2664.579	5376
2666.491	5527
2668.402	5441
2670.312	5447
2672.222	5484
2674.132	5487
2676.042	5353
2677.951	5508
2679.859	5498
2681.766	5433
2683.674	5434
2685.582	5474
2687.488	5339
2689.392	5531
2691.298	5387
2693.202	5493
2695.107	5459
2697.012	5409
2698.914	5372
2700.817	5483
2702.72	5391
2704.622	5432
2706.524	5416
2708.425	5473
2710.326	5449
2712.225	5445
2714.125	5370
2716.024	5488
2717.923	5405
2719.822	5309
2721.719	5374
2723.616	5359
2725.512	5344
2727.41	5342
2729.305	5452
2731.201	5361
2733.095	5450
2734.99	5519
2736.884	5304
2738.778	5410
2740.67	5329
2742.562	5362
2744.455	5413
2746.346	5283
2748.238	5292
2750.129	5313
2752.018	5221
2753.907	5325
2755.797	5404
2757.687	5319
2759.575	5281
2761.462	5387
2763.349	5414
2765.237	5419
2767.124	5317
2769.009	5376
2770.894	5323
2772.779	5347
2774.663	5363
2776.547	5316
2778.431	5330
2780.314	5361
2782.197	5301
2784.078	5324
2785.96	5293
2787.842	5416
2789.723	5284
2791.603	5338
2793.483	5254
2795.362	5339
2797.241	5337
2799.121	5236
2800.997	5228
2802.874	5357
2804.751	5258
2806.628	5361
2808.506	5307
2810.38	5136
2812.255	5400
2814.13	5311
2816.003	5311
2817.878	5359
2819.752	5359
2821.623	5331
2823.496	5230
2825.368	5225
2827.238	5289
2829.111	5336
2830.98	5316
2832.851	5317
2834.719	5299
2836.589	5333
2838.458	5304
2840.327	5260
2842.193	5235
2844.061	5464
2845.927	5227
2847.794	5242
2849.66	5414
2851.525	5435
2853.39	5338
2855.254	5354
2857.117	5322
2858.983	5414
2860.845	5448
2862.707	5368
2864.569	5458
2866.431	5562
2868.293	5476
2870.154	5479
2872.013	5582
2873.873	5628
2875.733	5698
2877.592	5692
2879.451	5704
2881.309	5841
2883.166	5762
2885.022	5860
2886.879	5943
2888.736	5890
2890.591	6003
2892.446	5817
2894.301	5817
2896.155	5888
2898.009	5718
2899.863	5885
2901.716	5802
2903.568	5830
2905.419	5877
2907.27	5852
2909.123	5817
2910.973	5895
2912.824	5868
2914.673	6063
2916.521	6015
2918.372	5912
2920.22	6007
2922.067	6111
2923.914	6116
2925.761	6254
2927.607	6283
2929.455	6311
2931.301	6291
2933.144	6343
2934.99	6462
2936.833	6458
2938.678	6526
2940.522	6385
2942.364	6659
2944.207	6638
2946.048	6672
2947.891	6752
2949.731	6660
2951.571	6626
2953.412	6682
2955.25	6677
2957.09	6480
2958.93	6540
2960.767	6482
2962.606	6382
2964.443	6237
2966.279	6326
2968.116	6154
2969.953	6146
2971.788	6140
2973.623	6134
2975.457	6034
2977.292	5961
2979.127	5904
2980.959	5945
2982.792	5889
2984.624	5820
2986.455	5783
2988.288	5773
2990.119	5824
2991.949	5712
2993.779	5797
2995.608	5748
2997.439	5610
2999.268	5586
3001.096	5521
3002.923	5477
3004.751	5483
3006.578	5319
3008.406	5479
3010.232	5407
3012.057	5249
3013.883	5065
3015.706	5363
3017.532	5309
3019.356	5259
3021.179	5351
3023.002	5195
3024.823	5053
3026.646	5117
3028.469	5105
3030.289	5097
3032.11	5074
3033.93	5116
3035.749	5018
3037.57	4970
3039.39	4954
3041.207	5044
3043.026	4969
3044.842	5050
3046.661	5026
3048.477	5067
3050.294	5002
3052.109	4993
3053.925	4980
3055.739	4979
3057.555	5077
3059.368	5028
3061.181	4977
3062.995	4955
3064.807	4976
3066.62	4898
3068.433	5001
3070.243	4990
3072.054	4980
3073.865	4954
3075.675	5019
3077.485	4968
3079.293	5040
3081.102	5034
3082.911	4912
3084.719	4875
3086.527	4936
3088.333	4876
3090.139	4964
3091.945	4884
3093.75	4912
3095.557	4889
3097.361	4974
3099.165	4887
3100.969	4928
3102.772	4789
3104.575	4835
3106.379	4898
3108.181	4741
3109.982	4949
3111.783	4791
3113.584	4853
3115.386	4912
3117.186	4871
3118.985	4829
3120.783	4797
3122.582	4879
3124.381	4722
3126.179	4817
3127.975	4829
3129.772	4688
3131.569	4800
3133.365	4698
3135.161	4768
3136.956	4738
3138.751	4710
3140.544	4610
3142.338	4926
3144.132	4757
3145.925	4655
3147.717	4837
3149.509	4800
3151.301	4753
3153.091	4791
3154.884	4738
3156.673	4636
3158.462	4724
3160.252	4713
3162.041	4711
3163.831	4676
3165.618	4774
3167.405	4816
3169.193	4732
3170.979	4633
3172.767	4609
3174.553	4678
3176.338	4660
3178.123	4740
3179.907	4652
3181.692	4697
3183.477	4667
3185.259	4738
3187.042	4586
3188.824	4695
3190.607	4658
3192.389	4720
3194.17	4649
3195.951	4681
3197.73	4586
3199.51	4640
3201.289	4821
3203.07	4704
3204.848	4665
3206.626	4740
3208.403	4693
3210.18	4710
3211.959	4648
3213.735	4717
3215.511	4601
3217.285	4665
3219.06	4638
3220.836	4642
3222.611	4716
3224.384	4596
3226.158	4639
3227.929	4667
3229.702	4634
3231.476	4633
3233.248	4562
3235.018	4648
3236.789	4663
3238.56	4626
3240.33	4623
3242.1	4683
3243.869	4614
3245.637	4712
3247.405	4621
3249.172	4691
3250.941	4621
3252.707	4687
3254.474	4701
3256.24	4603
3258.006	4713
3259.772	4687
3261.537	4614
3263.301	4729
3265.065	4631
3266.828	4706
3268.592	4585
3270.355	4683
3272.117	4549
3273.878	4714
3275.64	4661
3277.401	4641
3279.162	4588
3280.922	4607
3282.682	4721
3284.441	4619
3286.199	4638
3287.959	4673
3289.716	4734
3291.475	4762
3293.232	4603
3294.988	4685
3296.744	4661
3298.501	4592
3300.256	4636
3302.011	4649
3303.766	4617
3305.52	4704
3307.275	4635
3309.028	4632
3310.781	4640
3312.533	4701
3314.285	4631
3316.038	4655
3317.789	4706
3319.54	4542
3321.289	4619
3323.039	4745
3324.789	4640
3326.539	4721
3328.288	4621
3330.035	4574
3331.783	4562
3333.531	4486
3335.28	4635
3337.025	4666
3338.771	4658
3340.518	4629
3342.262	4618
3344.009	4593
3345.753	4622
3347.497	4486
3349.24	4583
3350.983	4532
3352.726	4545
3354.469	4624
3356.212	4593
3357.952	4558
3359.694	4460
3361.434	4569
3363.176	4523
3364.916	4567
3366.654	4454
3368.394	4453
3370.132	4628
3371.871	4503
3373.61	4512
3375.346	4523
3377.083	4538
3378.82	4490
3380.556	4550
3382.292	4487
3384.027	4499
3385.763	4413
3387.497	4538
3389.231	4426
3390.965	4500
3392.698	4478
3394.431	4427
3396.164	4428
3397.896	4471
3399.627	4443
3401.36	4421
3403.09	4529
3404.82	4429
3406.55	4500
3408.279	4415
3410.01	4390
3411.738	4325
3413.467	4442
3415.194	4360
3416.92	4364
3418.647	4558
3420.375	4406
3422.102	4476
3423.827	4398
3425.553	4354
3427.277	4444
3429.003	4401
3430.727	4303
3432.451	4370
3434.173	4422
3435.896	4247
3437.62	4259
3439.343	4362
3441.063	4369
3442.785	4246
3444.505	4413
3446.226	4324
3447.948	4362
3449.666	4363
3451.386	4292
3453.104	4277
3454.823	4307
3456.541	4300
3458.259	4248
3459.976	4331
3461.693	4223
3463.408	4278
3465.125	4245
3466.841	4241
3468.556	4184
3470.271	4201
3471.985	4157
3473.698	4152
3475.414	4288
3477.126	4249
3478.838	4162
3480.55	4229
3482.263	4276
3483.975	4200
3485.686	4219
3487.396	4063
3489.106	4176
3490.817	4123
3492.526	4177
3494.236	4138
3495.944	4072
3497.652	4174
3499.359	4114
3501.066	3956
3502.775	4186
3504.481	4044
3506.187	4068
3507.893	4036
3509.598	4111
3511.304	4012
3513.009	4112
3514.713	4090
3516.417	4012
3518.12	4007
3519.821	4004
3521.525	4055
3523.228	4024
3524.929	4051
3526.631	4024
3528.33	4008
3530.032	4014
3531.733	4064
3533.433	4016
3535.131	4037
3536.83	4069
3538.529	3998
3540.227	3966
3541.925	3888
3543.623	3951
3545.319	3893
3547.016	3997
3548.712	3995
3550.408	3991
3552.103	3934
3553.798	3956
3555.491	3899
3557.188	3893
3558.88	3927
3560.574	3967
3562.266	3910
3563.959	3950
3565.651	3891
3567.343	3848
3569.035	3899
3570.725	3870
3572.415	3962
3574.106	3903
3575.797	3887
3577.485	3795
3579.174	3910
3580.863	4030
3582.551	3892
3584.238	3784
3585.926	3874
3587.613	3898
3589.3	3936
3590.986	3930
3592.671	3859
3594.357	3909
3596.042	3801
3597.726	3753
3599.41	3857
3601.094	3741
3602.778	3744
3604.461	3781
3606.143	3803
3607.825	3878
3609.507	3769
3611.188	3728
3612.87	3817
3614.551	3759
3616.229	3725
3617.909	3762
3619.589	3708
3621.269	3722
3622.948	3694
3624.625	3831
3626.302	3728
3627.98	3604
3629.657	3724
3631.334	3786
3633.01	3703
3634.686	3631
3636.361	3624
3638.036	3680
3639.712	3742
3641.385	3664
3643.06	3682
3644.732	3661
3646.405	3637
3648.08	3730
3649.751	3681
3651.424	3690
3653.094	3639
3654.766	3628
3656.436	3646
3658.106	3689
3659.777	3625
3661.446	3719
3663.115	3581
3664.783	3577
3666.452	3650
3668.121	3722
3669.788	3599
3671.454	3603
3673.121	3560
3674.789	3625
3676.455	3517
3678.12	3585
3679.784	3594
3681.45	3584
3683.114	3622
3684.779	3530
3686.442	3627
3688.105	3553
3689.768	3610
3691.43	3539
3693.093	3580
3694.754	3594
3696.415	3481
3698.076	3514
3699.736	3534
3701.396	3492
3703.057	3573
3704.716	3444
3706.375	3606
3708.034	3499
3709.692	3512
3711.351	3399
3713.008	3542
3714.665	3571
3716.321	3562
3717.977	3471
3719.634	3491
3721.29	3506
3722.945	3553
3724.598	3574
3726.253	3494
3727.907	3489
3729.561	3453
3731.214	3515
3732.867	3462
3734.518	3481
3736.171	3475
3737.824	3513
3739.474	3516
3741.125	3432
3742.775	3467
3744.425	3525
3746.074	3504
3747.725	3536
3749.373	3403
3751.022	3501
3752.669	3428
3754.318	3448
3755.966	3465
3757.612	3391
3759.259	3396
3760.905	3479
3762.55	3487
3764.197	3451
3765.842	3427
3767.486	3373
3769.131	3421
3770.774	3418
3772.417	3457
3774.061	3492
3775.705	3356
3777.347	3387
3778.988	3467
3780.629	3350
3782.271	3395
3783.912	3389
3785.552	3450
3787.192	3458
3788.831	3370
3790.472	3437
3792.112	3324
3793.75	3319
3795.388	3470
3797.024	3344
3798.661	3284
3800.3	3396
3801.936	3390
3803.572	3339
3805.208	3310
3806.844	3391
3808.48	3311
3810.115	3351
3811.748	3268
3813.382	3253
3815.016	3286
3816.649	3266
3818.283	3369
3819.914	3289
3821.547	3311
3823.178	3379
3824.809	3262
3826.441	3265
3828.072	3314
3829.701	3312
3831.331	3248
3832.96	3334
3834.591	3299
3836.219	3275
3837.847	3273
3839.475	3253
3841.102	3251
3842.729	3290
3844.357	3241
3845.984	3266
3847.609	3150
3849.234	3192
3850.86	3190
3852.485	3235
3854.11	3238
3855.734	3249
3857.357	3260
3858.981	3243
3860.603	3262
3862.227	3283
3863.848	3192
3865.471	3236
3867.092	3239
3868.713	3207
3870.334	3251
3871.954	3240
3873.575	3199
3875.194	3212
3876.813	3181
3878.433	3157
3880.051	3210
3881.669	3159
3883.286	3248
3884.904	3217
3886.52	3155
3888.138	3156
3889.754	3191
3891.37	3215
3892.985	3221
3894.6	3199
3896.216	3197
3897.831	3140
3899.444	3147
3901.058	3180
3902.67	3254
3904.283	3190
3905.897	3207
3907.509	3140
3909.121	3159
3910.731	3163
3912.342	3203
3913.954	3144
3915.563	3124
3917.174	3177
3918.783	3118
3920.391	3117
3922.002	3142
3923.611	3126
3925.218	3157
3926.826	3118
3928.432	3091
3930.039	3182
3931.647	3065
3933.253	3077
3934.859	3125
3936.464	3102
3938.068	3078
3939.675	3213
3941.278	3132
3942.883	3145
3944.486	3168
3946.089	3167
3947.692	3103
3949.295	3076
3950.898	3084
3952.499	3037
3954.1	3115
3955.7	3154
3957.303	3057
3958.903	3100
3960.502	3054
3962.101	3107
3963.7	3082
3965.301	3062
3966.899	3116
3968.497	3072
3970.094	3003
3971.691	3020
3973.288	3037
3974.885	3086
3976.481	2962
3978.077	3035
3979.672	3081
3981.267	2998
3982.863	3015
3984.457	3115
3986.051	3061
3987.645	2917
3989.238	3032
3990.831	3033
3992.425	2921
3994.017	2982
3995.607	2979
3997.199	3035
3998.79	2993
4000.382	3062
4001.973	2991
4003.561	2914
4005.151	2984
4006.741	2964
4008.331	2958
4009.918	2967
4011.507	3046
4013.095	2979
4014.681	2897
4016.269	2958
4017.856	2923
4019.443	2932
4021.028	2936
4022.614	2908
4024.199	2926
4025.785	2898
4027.37	2908
4028.953	2971
4030.536	2918
4032.12	2964
4033.704	2953
4035.287	2930
4036.869	2882
4038.45	2939
4040.032	2961
4041.613	2823
4043.195	2970
4044.776	2908
4046.356	2836
4047.935	2832
4049.515	2925
4051.095	2830
4052.674	2824
4054.251	2835
4055.829	2941
4057.406	2786
4058.985	2868
4060.562	2889
4062.139	2843
4063.715	2781
4065.29	2894
4066.865	2850
4068.442	2844
4070.016	2866
4071.59	2835
4073.164	2833
4074.738	2855
4076.312	2828
4077.885	2816
4079.458	2828
4081.03	2869
4082.602	2844
4084.173	2805
4085.745	2815
4087.315	2743
4088.886	2816
4090.456	2853
4092.026	2843
4093.596	2800
4095.165	2856
4096.734	2810
4098.301	2803
4099.869	2796
4101.437	2842
4103.006	2867
4104.572	2806
4106.139	2856
4107.704	2755
4109.27	2774
4110.837	2838
4112.401	2766
4113.966	2802
4115.53	2756
4117.094	2720
4118.659	2857
4120.223	2717
4121.785	2787
4123.347	2729
4124.909	2733
4126.471	2765
4128.034	2707
4129.595	2718
4131.155	2712
4132.716	2737
4134.275	2726
4135.836	2693
4137.395	2734
4138.955	2715
4140.513	2691
4142.071	2739
4143.628	2697
4145.188	2740
4146.745	2722
4148.302	2751
4149.858	2663
4151.414	2737
4152.971	2712
4154.526	2611
4156.081	2756
4157.635	2646
4159.189	2623
4160.745	2674
4162.298	2764
4163.852	2671
4165.405	2692
4166.957	2659
4168.51	2695
4170.063	2665
4171.614	2653
4173.166	2643
4174.717	2630
4176.267	2667
4177.817	2621
4179.368	2642
4180.917	2665
4182.466	2596
4184.016	2597
4185.564	2655
4187.112	2552
4188.66	2623
4190.207	2613
4191.754	2553
4193.301	2647
4194.848	2614
4196.394	2564
4197.94	2559
4199.484	2587
4201.03	2633
4202.575	2581
4204.12	2568
4205.663	2622
4207.207	2583
4208.75	2606
4210.292	2604
4211.836	2605
4213.378	2660
4214.92	2546
4216.46	2585
4218.002	2544
4219.544	2572
4221.083	2580
4222.625	2614
4224.164	2569
4225.703	2580
4227.244	2543
4228.782	2534
4230.32	2517
4231.857	2571
4233.395	2516
4234.933	2506
4236.471	2509
4238.007	2526
4239.542	2572
4241.078	2588
4242.614	2585
4244.15	2504
4245.685	2580
4247.219	2549
4248.753	2486
4250.287	2513
4251.82	2498
4253.354	2590
4254.887	2529
4256.419	2548
4257.951	2509
4259.483	2550
4261.016	2485
4262.547	2564
4264.078	2481
4265.608	2506
4267.137	2507
4268.668	2514
4270.197	2579
4271.727	2472
4273.254	2503
4274.783	2422
4276.311	2525
4277.84	2500
4279.366	2482
4280.894	2459
4282.42	2453
4283.946	2470
4285.473	2480
4286.998	2469
4288.523	2411
4290.047	2469
4291.572	2489
4293.096	2391
4294.622	2516
4296.144	2420
4297.668	2426
4299.19	2508
4300.713	2408
4302.236	2439
4303.758	2397
4305.279	2414
4306.799	2417
4308.321	2442
4309.842	2403
4311.361	2462
4312.882	2442
4314.401	2481
