400.0961	2589
402.6185	2601
405.1424	2553
407.6635	2623
410.1838	2599
412.7035	2619
415.2225	2670
417.7388	2668
420.2585	2664
422.7754	2735
425.2917	2720
427.8072	2747
430.3221	2790
432.8363	2783
435.3498	2765
437.8626	2760
440.3727	2803
442.8841	2801
445.3969	2801
447.907	2805
450.4142	2778
452.9229	2703
455.4289	2746
457.9362	2742
460.4449	2763
462.9488	2709
465.454	2763
467.9566	2701
470.4604	2778
472.9637	2731
475.4662	2716
477.966	2739
480.4671	2741
482.9656	2781
485.4633	2686
487.9645	2723
490.4608	2799
492.9566	2725
495.4536	2809
497.948	2812
500.4437	2878
502.9387	2795
505.431	2774
507.9226	2746
510.4136	2811
512.9079	2801
515.3975	2776
517.8864	2828
520.3746	2823
522.8622	2832
525.3491	2827
527.8394	2863
530.3249	2833
532.8098	2832
535.2939	2900
537.7774	2851
540.2623	2782
542.7444	2878
545.2259	2850
547.7067	2817
550.1868	2831
552.6683	2812
555.147	2877
557.6231	2863
560.1005	2830
562.5773	2901
565.0534	2893
567.5308	2937
570.0056	2890
572.4776	2959
574.951	2936
577.4237	2988
579.8978	2958
582.3671	2991
584.8378	2983
587.3079	2927
589.7773	2961
592.244	3018
594.714	3031
597.1793	2925
599.6461	2931
602.1121	2904
604.5754	2942
607.0421	2919
609.5042	2892
611.9675	2948
614.4282	2900
616.8902	2997
619.3515	2877
621.8122	2935
624.2702	2894
626.7296	2916
629.1863	2882
631.6423	2942
634.1017	2882
636.5563	2950
639.0104	2862
641.4658	2944
643.9185	2898
646.3725	2979
648.8239	2896
651.2766	2939
653.7266	2878
656.176	2886
658.6247	2880
661.0748	2973
663.5242	2840
665.9709	2957
668.417	2952
670.8624	3027
673.3092	2948
675.7533	3001
678.1968	2929
680.6395	3004
683.0817	2970
685.5251	2979
687.9659	3039
690.4061	3016
692.8456	3008
695.2844	3059
697.7226	3047
700.1621	3079
702.599	2993
705.0332	3087
707.4688	3080
709.9036	3107
712.3399	3037
714.7735	3081
717.2044	3076
719.6367	3000
722.0683	3132
724.4993	3087
726.9296	3048
729.3593	3137
731.7883	3049
734.2147	3140
736.6423	3137
739.0714	3099
741.4958	3132
743.9216	3149
746.3447	3144
748.7691	3132
751.1929	3183
753.616	3111
756.0366	3214
758.4584	3150
760.8776	3200
763.2982	3193
765.718	3233
768.1373	3231
770.5539	3122
772.9698	3203
775.3871	3231
777.8038	3210
780.2178	3215
782.6332	3270
785.0459	3211
787.458	3232
789.8714	3264
792.2842	3287
794.6943	3194
797.1038	3195
799.5127	3187
801.9209	3219
804.3324	3187
806.7393	3211
809.1456	3256
811.5513	3257
813.9562	3226
816.3625	3350
818.7663	3297
821.1693	3270
823.5718	3185
825.9735	3272
828.3746	3297
830.7771	3232
833.177	3273
835.5762	3232
837.9747	3272
840.3727	3258
842.772	3311
845.1666	3333
847.5626	3335
849.958	3268
852.3527	3389
854.7488	3387
857.1403	3373
859.5331	3364
861.9253	3391
864.3168	3329
866.7057	3335
869.098	3390
871.4876	3408
873.8746	3382
876.263	3393
878.6487	3355
881.0378	3288
883.4243	3287
885.8081	3307
888.1933	3364
890.5759	3304
892.9598	3290
895.343	3318
897.7256	3367
900.1057	3278
902.4871	3358
904.8659	3329
907.246	3333
909.6254	3327
912.0023	3330
914.3786	3440
916.7562	3397
919.1331	3466
921.5074	3593
923.8831	3574
926.2562	3520
928.6287	3597
931.0005	3577
933.3757	3612
935.7462	3652
938.1162	3587
940.4855	3632
942.8542	3644
945.2242	3726
947.5916	3770
949.9584	3795
952.3266	3843
954.6921	4015
957.0571	4213
959.4233	4383
961.787	4425
964.15	4333
966.5125	4268
968.8742	4145
971.2354	3950
973.5959	3733
975.9559	3679
978.3151	3611
980.6738	3634
983.0338	3528
985.3912	3458
987.7461	3506
990.1022	3538
992.4578	3459
994.8127	3447
997.1689	3494
999.5207	3516
1001.874	3494
1004.226	3573
1006.576	3454
1008.929	3526
1011.28	3457
1013.628	3440
1015.977	3476
1018.324	3526
1020.674	3522
1023.019	3557
1025.366	3523
1027.713	3507
1030.056	3542
1032.399	3543
1034.746	3459
1037.087	3564
1039.431	3622
1041.771	3528
1044.113	3575
1046.454	3632
1048.793	3574
1051.133	3639
1053.471	3511
1055.807	3573
1058.146	3583
1060.483	3558
1062.818	3609
1065.153	3613
1067.489	3677
1069.822	3670
1072.156	3713
1074.488	3629
1076.82	3640
1079.15	3626
1081.48	3719
1083.814	3766
1086.143	3621
1088.471	3507
1090.799	3586
1093.126	3663
1095.452	3539
1097.78	3614
1100.105	3592
1102.43	3619
1104.754	3621
1107.077	3582
1109.4	3563
1111.722	3588
1114.044	3683
1116.365	3529
1118.685	3628
1121.005	3585
1123.324	3643
1125.643	3587
1127.961	3631
1130.278	3577
1132.595	3649
1134.911	3662
1137.226	3612
1139.541	3590
1141.854	3624
1144.167	3603
1146.482	3635
1148.793	3511
1151.105	3652
1153.414	3587
1155.725	3595
1158.033	3648
1160.344	3641
1162.651	3647
1164.959	3568
1167.265	3661
1169.572	3604
1171.878	3668
1174.184	3639
1176.488	3649
1178.79	3612
1181.094	3695
1183.396	3698
1185.699	3646
1188.001	3688
1190.301	3709
1192.6	3647
1194.9	3638
1197.2	3674
1199.497	3659
1201.794	3660
1204.09	3623
1206.387	3714
1208.684	3675
1210.978	3669
1213.272	3706
1215.565	3678
1217.858	3645
1220.15	3672
1222.443	3726
1224.734	3730
1227.024	3830
1229.313	3732
1231.602	3744
1233.892	3763
1236.18	3821
1238.467	3888
1240.754	3884
1243.04	3901
1245.325	3914
1247.612	3912
1249.896	3913
1252.178	3918
1254.461	3839
1256.743	3963
1259.027	3862
1261.308	3929
1263.587	3851
1265.867	3818
1268.146	3913
1270.425	3889
1272.703	3921
1274.981	4004
1277.256	3933
1279.532	3865
1281.808	3828
1284.083	3847
1286.358	3890
1288.63	3900
1290.904	3753
1293.175	3889
1295.449	3824
1297.719	3827
1299.99	3861
1302.259	3829
1304.529	3773
1306.798	3876
1309.065	3803
1311.333	3844
1313.599	3846
1315.866	3863
1318.131	3994
1320.396	3867
1322.66	3860
1324.925	3835
1327.187	3855
1329.448	3885
1331.711	3900
1333.974	3882
1336.234	3872
1338.493	3980
1340.752	3901
1343.01	3866
1345.269	3793
1347.526	3950
1349.784	3898
1352.04	3804
1354.295	3825
1356.552	3836
1358.806	3882
1361.059	3866
1363.312	3881
1365.564	3974
1367.818	3948
1370.069	3928
1372.318	3972
1374.568	3915
1376.817	3930
1379.066	3902
1381.316	3948
1383.564	4008
1385.809	3972
1388.056	3975
1390.301	4023
1392.549	4017
1394.793	4022
1397.036	4056
1399.279	4078
1401.522	4113
1403.763	4129
1406.007	4073
1408.248	4011
1410.487	4144
1412.727	4080
1414.965	4046
1417.205	4018
1419.442	4046
1421.68	3985
1423.915	4075
1426.152	4091
1428.388	4040
1430.623	4043
1432.857	4131
1435.091	4126
1437.323	4056
1439.556	4105
1441.789	4168
1444.019	4118
1446.25	4147
1448.48	4143
1450.708	4226
1452.938	4221
1455.167	4148
1457.394	4186
1459.62	4157
1461.846	4096
1464.073	4208
1466.299	4180
1468.523	4095
1470.746	4098
1472.969	4140
1475.191	4047
1477.415	4016
1479.636	4009
1481.858	4034
1484.078	4054
1486.298	4028
1488.518	3862
1490.736	3961
1492.954	3956
1495.169	4046
1497.386	3998
1499.602	3957
1501.819	3983
1504.034	3917
1506.248	3941
1508.462	3846
1510.675	3945
1512.888	3931
1515.1	3884
1517.311	3975
1519.522	3878
1521.732	3889
1523.942	3917
1526.151	3857
1528.36	3880
1530.566	3854
1532.773	3923
1534.98	3980
1537.187	3945
1539.392	4023
1541.596	3922
1543.801	3981
1546.005	3942
1548.208	3986
1550.411	3948
1552.612	4002
1554.814	3970
1557.013	4084
1559.212	3922
1561.414	3964
1563.612	4087
1565.811	4013
1568.007	3930
1570.203	4031
1572.403	4048
1574.598	4089
1576.792	3983
1578.988	4161
1581.181	4037
1583.376	4097
1585.568	4026
1587.761	4123
1589.952	4020
1592.143	4131
1594.333	4114
1596.524	4021
1598.715	4044
1600.903	4028
1603.091	4073
1605.278	4049
1607.466	4171
1609.652	4137
1611.838	4057
1614.023	4134
1616.207	4105
1618.391	4062
1620.576	4146
1622.759	4078
1624.941	4109
1627.123	4166
1629.304	4125
1631.484	4154
1633.664	4158
1635.844	4178
1638.022	4162
1640.201	4107
1642.38	4131
1644.556	4121
1646.732	4160
1648.908	4124
1651.084	4168
1653.257	4165
1655.433	4235
1657.607	4182
1659.779	4185
1661.951	4151
1664.122	4250
1666.295	4220
1668.467	4188
1670.635	4193
1672.805	4216
1674.973	4228
1677.142	4224
1679.31	4201
1681.478	4194
1683.644	4187
1685.81	4235
1687.975	4075
1690.142	4128
1692.305	4148
1694.468	4093
1696.632	4059
1698.794	4118
1700.957	4138
1703.119	4094
1705.279	4099
1707.439	4079
1709.598	4044
1711.758	4081
1713.917	4094
1716.075	4050
1718.231	3975
1720.388	4019
1722.543	4020
1724.702	4084
1726.856	4031
1729.01	4009
1731.164	4013
1733.317	4047
1735.471	4103
1737.623	4116
1739.774	4060
1741.925	4068
1744.075	4042
1746.225	4127
1748.376	4036
1750.524	4055
1752.672	4109
1754.82	4054
1756.965	4114
1759.113	3991
1761.259	4036
1763.405	4109
1765.549	4100
1767.694	4123
1769.836	4068
1771.981	4046
1774.123	4097
1776.264	4134
1778.405	4137
1780.546	4089
1782.687	4091
1784.827	4020
1786.966	4046
1789.103	4117
1791.242	4039
1793.381	4075
1795.517	4189
1797.653	4148
1799.788	4091
1801.923	4137
1804.057	4053
1806.193	4084
1808.326	4122
1810.457	4143
1812.59	4072
1814.721	4132
1816.855	4094
1818.984	4147
1821.113	4120
1823.244	4044
1825.372	4060
1827.499	4021
1829.63	4061
1831.756	4114
1833.882	4074
1836.007	3997
1838.132	3992
1840.26	4068
1842.384	4149
1844.507	4049
1846.63	4080
1848.752	4002
1850.875	4051
1852.996	4114
1855.118	3966
1857.238	4058
1859.358	4116
1861.477	4105
1863.597	4108
1865.715	4072
1867.832	4091
1869.948	3988
1872.064	4061
1874.181	4153
1876.297	4070
1878.411	4009
1880.526	4032
1882.639	4169
1884.752	4082
1886.865	4088
1888.977	4130
1891.089	4118
1893.2	4047
1895.308	3999
1897.42	4087
1899.53	4143
1901.639	4161
1903.745	4062
1905.853	4164
1907.962	4134
1910.067	4121
1912.174	4157
1914.278	4225
1916.383	4119
1918.486	4096
1920.592	4148
1922.694	4183
1924.797	4189
1926.898	4157
1929	4133
1931.102	4159
1933.203	4103
1935.301	4152
1937.401	4157
1939.499	4119
1941.598	4247
1943.697	4196
1945.793	4210
1947.888	4185
1949.985	4127
1952.08	4114
1954.176	4296
1956.269	4188
1958.364	4181
1960.457	4173
1962.549	4147
1964.642	4129
1966.733	4185
1968.823	4117
1970.913	4186
1973.005	4144
1975.093	4158
1977.184	4216
1979.271	4219
1981.359	4178
1983.446	4155
1985.532	4152
1987.619	4077
1989.705	4102
1991.789	4159
1993.874	4121
1995.956	4163
1998.041	4162
2000.123	4148
2002.206	4099
2004.287	4158
2006.368	4113
2008.449	4179
2010.529	4176
2012.609	4078
2014.688	4170
2016.766	4169
2018.843	4113
2020.922	4181
2022.999	4144
2025.074	4134
2027.15	3994
2029.225	4129
2031.299	4119
2033.375	4145
2035.447	4108
2037.52	4123
2039.592	4186
2041.664	4181
2043.736	4175
2045.807	4190
2047.876	4077
2049.947	4061
2052.015	4137
2054.086	4201
2056.153	4119
2058.221	4125
2060.288	4156
2062.353	4152
2064.42	4084
2066.486	4124
2068.55	4149
2070.614	4161
2072.678	4199
2074.741	4193
2076.805	4190
2078.866	4267
2080.929	4213
2082.99	4207
2085.049	4140
2087.109	4125
2089.17	4194
2091.228	4140
2093.286	4074
2095.344	4183
2097.4	4203
2099.46	4219
2101.516	4123
2103.572	4183
2105.626	4174
2107.679	4235
2109.735	4189
2111.788	4228
2113.841	4180
2115.894	4162
2117.945	4210
2119.997	4071
2122.049	4131
2124.1	4167
2126.148	4173
2128.197	4265
2130.246	4197
2132.296	4102
2134.342	4121
2136.39	4151
2138.437	4128
2140.483	4144
2142.527	4148
2144.574	4124
2146.619	4229
2148.661	4106
2150.705	4182
2152.747	4142
2154.792	4176
2156.832	4265
2158.874	4199
2160.915	4056
2162.954	4019
2164.995	4108
2167.034	4125
2169.072	4158
2171.111	4205
2173.148	4121
2175.186	4112
2177.223	4163
2179.258	4174
2181.294	4136
2183.328	4164
2185.362	4126
2187.398	4038
2189.431	4156
2191.463	4100
2193.495	4019
2195.528	4154
2197.56	4105
2199.59	4149
2201.62	4058
2203.649	4025
2205.678	4084
2207.708	4066
2209.737	4152
2211.764	4062
2213.791	4092
2215.817	4095
2217.843	4141
2219.87	4126
2221.895	4036
2223.919	4157
2225.942	4200
2227.966	4084
2229.988	4151
2232.012	4172
2234.032	4115
2236.054	4048
2238.074	4100
2240.095	4169
2242.116	4026
2244.135	4097
2246.153	4146
2248.171	4127
2250.188	4163
2252.208	4011
2254.223	4164
2256.239	4198
2258.255	4078
2260.269	4124
2262.283	4091
2264.3	4066
2266.312	4149
2268.325	4027
2270.336	4131
2272.349	4127
2274.362	4194
2276.372	4121
2278.383	4033
2280.392	4104
2282.402	4084
2284.409	4069
2286.418	4064
2288.427	4120
2290.433	4002
2292.441	4128
2294.446	4069
2296.453	4033
2298.459	4118
2300.463	4113
2302.466	4160
2304.471	4150
2306.475	4134
2308.477	4107
2310.478	4070
2312.481	4217
2314.481	4088
2316.481	4112
2318.482	4149
2320.482	4110
2322.48	4058
2324.48	4042
2326.478	4094
2328.476	4108
2330.473	4038
2332.469	4152
2334.465	4105
2336.46	4104
2338.454	4017
2340.45	4011
2342.444	4014
2344.437	4106
2346.43	4110
2348.421	4061
2350.414	4020
2352.405	4082
2354.396	4114
2356.386	4035
2358.376	4044
2360.366	4114
2362.355	4000
2364.343	3993
2366.331	4102
2368.317	4188
2370.304	4111
2372.292	4097
2374.278	4069
2376.262	4140
2378.247	4015
2380.23	4109
2382.216	4059
2384.199	4065
2386.181	4093
2388.163	4064
2390.144	4124
2392.127	4026
2394.107	3941
2396.087	4040
2398.066	4047
2400.046	4024
2402.023	4035
2404.004	3989
2405.981	4077
2407.957	4007
2409.934	4021
2411.91	4055
2413.886	4079
2415.862	4038
2417.836	4014
2419.809	4014
2421.784	4050
2423.756	4053
2425.73	4065
2427.701	4044
2429.672	4111
2431.644	4073
2433.615	4038
2435.586	4087
2437.555	4051
2439.523	4103
2441.491	4049
2443.459	4063
2445.428	4103
2447.395	3892
2449.361	4124
2451.327	4080
2453.292	4096
2455.257	4023
2457.223	3996
2459.187	4029
2461.15	4057
2463.113	4038
2465.076	4079
2467.039	4064
2468.999	3984
2470.96	4057
2472.921	4055
2474.881	4064
2476.841	4051
2478.8	4052
2480.759	4063
2482.717	3976
2484.675	3988
2486.63	4011
2488.589	4017
2490.545	4105
2492.5	4080
2494.455	3999
2496.408	4004
2498.364	4078
2500.318	4052
2502.27	3984
2504.223	3954
2506.174	4007
2508.126	4056
2510.078	4040
2512.03	4085
2513.979	4059
2515.927	3901
2517.877	4015
2519.826	3923
2521.775	3996
2523.722	3929
2525.668	4004
2527.616	4015
2529.561	3975
2531.508	3995
2533.452	3961
2535.398	4005
2537.342	3928
2539.284	3953
2541.229	4015
2543.173	3968
2545.114	4049
2547.055	4067
2548.996	4055
2550.938	4013
2552.878	4002
2554.817	4047
2556.756	4005
2558.695	4022
2560.633	3992
2562.572	4085
2564.509	4115
2566.445	4049
2568.382	4001
2570.317	4060
2572.254	4071
2574.189	4120
2576.123	4038
2578.057	4106
2579.99	4028
2581.923	3989
2583.855	4059
2585.788	4051
2587.719	4044
2589.65	4071
2591.579	4057
2593.511	3968
2595.44	4089
2597.37	3984
2599.297	4082
2601.225	4047
2603.153	4050
2605.08	4152
2607.007	4072
2608.932	4195
2610.858	4044
2612.782	4130
2614.709	4019
2616.632	4094
2618.556	4018
2620.478	4088
2622.401	4149
2624.324	4142
2626.247	4077
2628.167	4149
2630.088	4042
2632.008	4100
2633.928	4138
2635.848	4059
2637.766	4074
2639.684	4181
2641.603	4050
2643.519	4141
2645.437	4072
2647.353	4181
2649.27	4104
2651.184	4074
2653.099	4105
2655.014	4108
2656.928	4101
2658.842	4163
2660.755	4059
2662.667	4058
2664.579	4086
2666.491	4054
2668.402	4094
2670.312	4133
2672.222	4119
2674.132	4065
2676.042	4094
2677.951	4162
2679.859	4005
2681.766	4057
2683.674	4044
2685.582	4072
2687.488	4075
2689.392	4156
2691.298	4023
2693.202	4042
2695.107	4109
2697.012	4016
2698.914	4183
2700.817	4078
2702.72	4017
2704.622	4017
2706.524	4063
2708.425	4053
2710.326	4140
2712.225	4090
2714.125	4080
2716.024	4093
2717.923	4106
2719.822	4055
2721.719	4060
2723.616	4089
2725.512	4077
2727.41	4107
2729.305	4077
2731.201	4015
2733.095	4074
2734.99	4071
2736.884	4085
2738.778	4101
2740.67	4110
2742.562	4060
2744.455	4033
2746.346	4122
2748.238	4088
2750.129	4167
2752.018	4012
2753.907	4088
2755.797	4146
2757.687	4103
2759.575	4188
2761.462	4089
2763.349	4110
2765.237	4118
2767.124	4123
2769.009	4048
2770.894	4072
2772.779	4152
2774.663	4116
2776.547	4086
2778.431	4052
2780.314	4095
2782.197	4098
2784.078	4105
2785.96	4097
2787.842	4154
2789.723	4097
2791.603	4039
2793.483	4050
2795.362	4017
2797.241	4097
2799.121	4089
2800.997	4051
2802.874	4077
2804.751	4035
2806.628	4139
2808.506	3972
2810.38	4019
2812.255	4142
2814.13	4104
2816.003	4096
2817.878	4076
2819.752	4062
2821.623	4159
2823.496	4086
2825.368	4137
2827.238	4076
2829.111	4098
2830.98	4092
2832.851	4106
2834.719	4119
2836.589	4054
2838.458	4183
2840.327	4084
2842.193	4190
2844.061	4152
2845.927	4041
2847.794	4130
2849.66	4121
2851.525	4289
2853.39	4218
2855.254	4093
2857.117	4299
2858.983	4254
2860.845	4328
2862.707	4142
2864.569	4303
2866.431	4280
2868.293	4307
2870.154	4313
2872.013	4485
2873.873	4436
2875.733	4442
2877.592	4463
2879.451	4553
2881.309	4581
2883.166	4590
2885.022	4560
2886.879	4648
2888.736	4634
2890.591	4611
2892.446	4658
2894.301	4610
2896.155	4648
2898.009	4668
2899.863	4743
2901.716	4660
2903.568	4716
2905.419	4599
2907.27	4604
2909.123	4583
2910.973	4556
2912.824	4674
2914.673	4709
2916.521	4620
2918.372	4706
2920.22	4898
2922.067	4758
2923.914	4847
2925.761	4964
2927.607	5026
2929.455	4898
2931.301	5039
2933.144	5078
2934.99	4983
2936.833	5065
2938.678	5068
2940.522	5144
2942.364	5324
2944.207	5237
2946.048	5281
2947.891	5424
2949.731	5438
2951.571	5378
2953.412	5384
2955.25	5326
2957.09	5267
2958.93	5046
2960.767	5335
2962.606	5222
2964.443	5102
2966.279	5031
2968.116	5067
2969.953	5010
2971.788	4935
2973.623	4861
2975.457	4911
2977.292	4854
2979.127	4801
2980.959	4887
2982.792	4803
2984.624	4643
2986.455	4645
2988.288	4589
2990.119	4637
2991.949	4655
2993.779	4551
2995.608	4477
2997.439	4493
2999.268	4528
3001.096	4410
3002.923	4407
3004.751	4370
3006.578	4250
3008.406	4299
3010.232	4282
3012.057	4255
3013.883	4144
3015.706	4270
3017.532	4260
3019.356	4147
3021.179	4092
3023.002	4209
3024.823	4133
3026.646	4089
3028.469	4023
3030.289	4133
3032.11	3980
3033.93	4029
3035.749	4057
3037.57	4090
3039.39	4009
3041.207	4025
3043.026	4034
3044.842	4092
3046.661	4107
3048.477	4060
3050.294	4043
3052.109	3993
3053.925	3974
3055.739	3916
3057.555	4037
3059.368	4032
3061.181	4028
3062.995	3922
3064.807	4034
3066.62	3966
3068.433	4020
3070.243	3950
3072.054	4054
3073.865	3990
3075.675	3993
3077.485	3952
3079.293	3968
3081.102	4024
3082.911	3834
3084.719	3852
3086.527	3988
3088.333	3878
3090.139	3966
3091.945	3910
3093.75	3957
3095.557	3907
3097.361	3976
3099.165	3911
3100.969	3928
3102.772	3923
3104.575	3827
3106.379	3937
3108.181	3833
3109.982	3917
3111.783	3912
3113.584	3852
3115.386	3909
3117.186	3918
3118.985	3816
3120.783	3845
3122.582	3868
3124.381	3941
3126.179	3906
3127.975	3834
3129.772	3838
3131.569	3925
3133.365	3846
3135.161	3872
3136.956	3891
3138.751	3868
3140.544	3859
3142.338	3820
3144.132	3830
3145.925	3772
3147.717	3836
3149.509	3772
3151.301	3861
3153.091	3856
3154.884	3798
3156.673	3829
3158.462	3798
3160.252	3837
3162.041	3913
3163.831	3790
3165.618	3818
3167.405	3752
3169.193	3827
3170.979	3760
3172.767	3819
3174.553	3771
3176.338	3818
3178.123	3804
3179.907	3888
3181.692	3785
3183.477	3937
3185.259	3792
3187.042	3841
3188.824	3770
3190.607	3839
3192.389	3800
3194.17	3837
3195.951	3812
3197.73	3820
3199.51	3743
3201.289	3754
3203.07	3800
3204.848	3778
3206.626	3732
3208.403	3846
3210.18	3749
3211.959	3822
3213.735	3813
3215.511	3796
3217.285	3789
3219.06	3838
3220.836	3792
3222.611	3810
3224.384	3778
3226.158	3734
3227.929	3765
3229.702	3752
3231.476	3842
3233.248	3820
3235.018	3758
3236.789	3827
3238.56	3806
3240.33	3812
3242.1	3844
3243.869	3816
3245.637	3790
3247.405	3807
3249.172	3846
3250.941	3695
3252.707	3834
3254.474	3845
3256.24	3762
3258.006	3812
3259.772	3754
3261.537	3819
3263.301	3807
3265.065	3740
3266.828	3836
3268.592	3788
3270.355	3718
3272.117	3876
3273.878	3780
3275.64	3758
3277.401	3834
3279.162	3762
3280.922	3728
3282.682	3914
3284.441	3820
3286.199	3918
3287.959	3825
3289.716	3785
3291.475	3815
3293.232	3782
3294.988	3812
3296.744	3846
3298.501	3784
3300.256	3745
3302.011	3841
3303.766	3799
3305.52	3852
3307.275	3804
3309.028	3768
3310.781	3867
3312.533	3817
3314.285	3863
3316.038	3712
3317.789	3806
3319.54	3821
3321.289	3845
3323.039	3792
3324.789	3844
3326.539	3889
3328.288	3778
3330.035	3901
3331.783	3700
3333.531	3850
3335.28	3845
3337.025	3775
3338.771	3887
3340.518	3823
3342.262	3819
3344.009	3780
3345.753	3750
3347.497	3783
3349.24	3771
3350.983	3740
3352.726	3829
3354.469	3840
3356.212	3782
3357.952	3775
3359.694	3791
3361.434	3801
3363.176	3733
3364.916	3753
3366.654	3782
3368.394	3762
3370.132	3788
3371.871	3732
3373.61	3763
3375.346	3834
3377.083	3702
3378.82	3765
3380.556	3787
3382.292	3719
3384.027	3678
3385.763	3661
3387.497	3606
3389.231	3717
3390.965	3757
3392.698	3694
3394.431	3658
3396.164	3762
3397.896	3712
3399.627	3736
3401.36	3568
3403.09	3826
3404.82	3762
3406.55	3675
3408.279	3625
3410.01	3680
3411.738	3733
3413.467	3679
3415.194	3689
3416.92	3658
3418.647	3760
3420.375	3651
3422.102	3700
3423.827	3683
3425.553	3707
3427.277	3695
3429.003	3692
3430.727	3678
3432.451	3661
3434.173	3676
3435.896	3700
3437.62	3670
3439.343	3690
3441.063	3648
3442.785	3680
3444.505	3672
3446.226	3665
3447.948	3624
3449.666	3668
3451.386	3618
3453.104	3658
3454.823	3531
3456.541	3591
3458.259	3611
3459.976	3587
3461.693	3532
3463.408	3692
3465.125	3589
3466.841	3579
3468.556	3527
3470.271	3612
3471.985	3573
3473.698	3617
3475.414	3586
3477.126	3520
3478.838	3516
3480.55	3489
3482.263	3549
3483.975	3570
3485.686	3535
3487.396	3472
3489.106	3515
3490.817	3489
3492.526	3539
3494.236	3538
3495.944	3478
3497.652	3486
3499.359	3600
3501.066	3549
3502.775	3430
3504.481	3388
3506.187	3556
3507.893	3523
3509.598	3443
3511.304	3436
3513.009	3407
3514.713	3503
3516.417	3418
3518.12	3409
3519.821	3442
3521.525	3410
3523.228	3472
3524.929	3462
3526.631	3457
3528.33	3440
3530.032	3450
3531.733	3363
3533.433	3456
3535.131	3393
3536.83	3468
3538.529	3473
3540.227	3475
3541.925	3525
3543.623	3462
3545.319	3399
3547.016	3372
3548.712	3406
3550.408	3424
3552.103	3355
3553.798	3346
3555.491	3434
3557.188	3407
3558.88	3448
3560.574	3398
3562.266	3333
3563.959	3388
3565.651	3324
3567.343	3399
3569.035	3375
3570.725	3376
3572.415	3394
3574.106	3332
3575.797	3376
3577.485	3455
3579.174	3313
3580.863	3363
3582.551	3315
3584.238	3292
3585.926	3336
3587.613	3327
3589.3	3376
3590.986	3254
3592.671	3265
3594.357	3362
3596.042	3305
3597.726	3360
3599.41	3240
3601.094	3280
3602.778	3276
3604.461	3266
3606.143	3271
3607.825	3278
3609.507	3289
3611.188	3384
3612.87	3304
3614.551	3322
3616.229	3272
3617.909	3237
3619.589	3318
3621.269	3249
3622.948	3225
3624.625	3239
3626.302	3264
3627.98	3257
3629.657	3247
3631.334	3236
3633.01	3231
3634.686	3168
3636.361	3134
3638.036	3225
3639.712	3237
3641.385	3253
3643.06	3233
3644.732	3254
3646.405	3266
3648.08	3230
3649.751	3203
3651.424	3246
3653.094	3171
3654.766	3185
3656.436	3183
3658.106	3157
3659.777	3198
3661.446	3216
3663.115	3110
3664.783	3184
3666.452	3179
3668.121	3109
3669.788	3202
3671.454	3153
3673.121	3171
3674.789	3132
3676.455	3138
3678.12	3143
3679.784	3236
3681.45	3191
3683.114	3146
3684.779	3191
3686.442	3093
3688.105	3194
3689.768	3184
3691.43	3211
3693.093	3079
3694.754	3119
3696.415	3037
3698.076	3129
3699.736	3129
3701.396	3189
3703.057	3119
3704.716	3178
3706.375	3145
3708.034	3192
3709.692	3124
3711.351	3135
3713.008	3156
3714.665	3153
3716.321	3126
3717.977	3111
3719.634	3152
3721.29	3130
3722.945	3041
3724.598	3113
3726.253	3147
3727.907	3108
3729.561	3102
3731.214	3141
3732.867	3163
3734.518	3051
3736.171	3038
3737.824	3130
3739.474	3095
3741.125	3131
3742.775	3072
3744.425	3047
3746.074	3167
3747.725	3086
3749.373	3101
3751.022	3118
3752.669	2993
3754.318	3112
3755.966	3188
3757.612	3049
3759.259	3094
3760.905	3075
3762.55	3057
3764.197	3029
3765.842	3093
3767.486	3056
3769.131	3090
3770.774	3084
3772.417	3006
3774.061	3098
3775.705	3063
3777.347	3020
3778.988	3093
3780.629	3095
3782.271	3081
3783.912	2965
3785.552	3101
3787.192	3056
3788.831	3006
3790.472	3009
3792.112	3015
3793.75	3006
3795.388	3041
3797.024	3076
3798.661	3045
3800.3	3018
3801.936	3031
3803.572	3031
3805.208	2955
3806.844	2994
3808.48	3080
3810.115	3010
3811.748	2997
3813.382	2999
3815.016	2955
3816.649	3034
3818.283	3029
3819.914	2995
3821.547	2988
3823.178	3025
3824.809	2953
3826.441	3021
3828.072	3014
3829.701	2989
3831.331	3011
3832.96	3027
3834.591	2941
3836.219	3022
3837.847	3038
3839.475	3014
3841.102	2985
3842.729	2951
3844.357	2959
3845.984	2891
3847.609	2948
3849.234	2942
3850.86	2975
3852.485	3012
3854.11	2974
3855.734	2902
3857.357	2964
3858.981	3014
3860.603	2882
3862.227	2934
3863.848	2961
3865.471	2960
3867.092	2988
3868.713	2975
3870.334	2975
3871.954	2934
3873.575	2906
3875.194	2952
3876.813	2924
3878.433	2935
3880.051	2957
3881.669	2899
3883.286	2915
3884.904	2920
3886.52	2906
3888.138	2952
3889.754	2918
3891.37	2911
3892.985	2910
3894.6	2919
3896.216	2946
3897.831	2884
3899.444	2891
3901.058	2987
3902.67	2965
3904.283	2945
3905.897	2929
3907.509	2889
3909.121	2933
3910.731	2893
3912.342	2986
3913.954	2939
3915.563	2926
3917.174	2912
3918.783	2951
3920.391	2904
3922.002	2904
3923.611	2930
3925.218	2960
3926.826	2953
3928.432	2936
3930.039	2918
3931.647	2961
3933.253	2913
3934.859	2920
3936.464	2899
3938.068	2836
3939.675	2877
3941.278	2896
3942.883	2887
3944.486	2857
3946.089	3001
3947.692	2877
3949.295	2899
3950.898	2878
3952.499	2895
3954.1	2890
3955.7	2809
3957.303	2924
3958.903	2808
3960.502	2894
3962.101	2922
3963.7	2850
3965.301	2831
3966.899	2905
3968.497	2893
3970.094	2793
3971.691	2860
3973.288	2770
3974.885	2849
3976.481	2848
3978.077	2843
3979.672	2746
3981.267	2892
3982.863	2803
3984.457	2833
3986.051	2868
3987.645	2815
3989.238	2799
3990.831	2838
3992.425	2778
3994.017	2850
3995.607	2840
3997.199	2800
3998.79	2734
4000.382	2737
4001.973	2819
4003.561	2840
4005.151	2812
4006.741	2845
4008.331	2785
4009.918	2832
4011.507	2758
4013.095	2808
4014.681	2780
4016.269	2727
4017.856	2755
4019.443	2824
4021.028	2723
4022.614	2773
4024.199	2729
4025.785	2771
4027.37	2785
4028.953	2834
4030.536	2743
4032.12	2753
4033.704	2769
4035.287	2758
4036.869	2761
4038.45	2701
4040.032	2829
4041.613	2705
4043.195	2744
4044.776	2748
4046.356	2712
4047.935	2749
4049.515	2683
4051.095	2780
4052.674	2787
4054.251	2765
4055.829	2729
4057.406	2706
4058.985	2687
4060.562	2700
4062.139	2780
4063.715	2754
4065.29	2779
4066.865	2806
4068.442	2744
4070.016	2772
4071.59	2668
4073.164	2692
4074.738	2686
4076.312	2775
4077.885	2724
4079.458	2740
4081.03	2712
4082.602	2741
4084.173	2718
4085.745	2752
4087.315	2684
4088.886	2699
4090.456	2661
4092.026	2705
4093.596	2695
4095.165	2847
4096.734	2680
4098.301	2667
4099.869	2716
4101.437	2707
4103.006	2720
4104.572	2668
4106.139	2704
4107.704	2686
4109.27	2666
4110.837	2668
4112.401	2675
4113.966	2679
4115.53	2677
4117.094	2745
4118.659	2642
4120.223	2590
4121.785	2724
4123.347	2655
4124.909	2655
4126.471	2676
4128.034	2641
4129.595	2691
4131.155	2549
4132.716	2658
4134.275	2649
4135.836	2652
4137.395	2570
4138.955	2609
4140.513	2617
4142.071	2598
4143.628	2665
4145.188	2594
4146.745	2633
4148.302	2637
4149.858	2574
4151.414	2631
4152.971	2615
4154.526	2652
4156.081	2625
4157.635	2586
4159.189	2577
4160.745	2577
4162.298	2661
4163.852	2526
4165.405	2564
4166.957	2619
4168.51	2581
4170.063	2620
4171.614	2574
4173.166	2632
4174.717	2609
4176.267	2636
4177.817	2626
4179.368	2566
4180.917	2604
4182.466	2550
4184.016	2545
4185.564	2552
4187.112	2621
4188.66	2564
4190.207	2544
4191.754	2542
4193.301	2576
4194.848	2545
4196.394	2505
4197.94	2522
4199.484	2548
4201.03	2534
4202.575	2602
4204.12	2606
4205.663	2592
4207.207	2540
4208.75	2614
4210.292	2560
4211.836	2535
4213.378	2537
4214.92	2600
4216.46	2599
4218.002	2548
4219.544	2475
4221.083	2572
4222.625	2496
4224.164	2565
4225.703	2496
4227.244	2580
4228.782	2455
4230.32	2544
4231.857	2439
4233.395	2529
4234.933	2510
4236.471	2529
4238.007	2575
4239.542	2500
4241.078	2524
4242.614	2444
4244.15	2535
4245.685	2501
4247.219	2486
4248.753	2595
4250.287	2490
4251.82	2490
4253.354	2452
4254.887	2465
4256.419	2532
4257.951	2515
4259.483	2438
4261.016	2474
4262.547	2461
4264.078	2467
4265.608	2442
4267.137	2465
4268.668	2489
4270.197	2441
4271.727	2517
4273.254	2478
4274.783	2461
4276.311	2486
4277.84	2500
4279.366	2510
4280.894	2499
4282.42	2465
4283.946	2484
4285.473	2523
4286.998	2491
4288.523	2471
4290.047	2499
4291.572	2517
4293.096	2453
4294.622	2421
4296.144	2484
4297.668	2454
4299.19	2450
4300.713	2483
4302.236	2449
4303.758	2468
4305.279	2509
4306.799	2495
4308.321	2487
4309.842	2478
4311.361	2461
4312.882	2523
4314.401	2440
