400.0961	2844
402.6185	2848
405.1424	2934
407.6635	2845
410.1838	2876
412.7035	2843
415.2225	2997
417.7388	2882
420.2585	2996
422.7754	3022
425.2917	3032
427.8072	3029
430.3221	3013
432.8363	3098
435.3498	3091
437.8626	3093
440.3727	3080
442.8841	3057
445.3969	3083
447.907	3111
450.4142	3058
452.9229	3084
455.4289	3041
457.9362	3089
460.4449	3012
462.9488	3031
465.454	3027
467.9566	3010
470.4604	3017
472.9637	3019
475.4662	3025
477.966	3038
480.4671	3086
482.9656	2997
485.4633	3135
487.9645	3041
490.4608	3062
492.9566	3097
495.4536	3016
497.948	3060
500.4437	3042
502.9387	3106
505.431	3103
507.9226	3137
510.4136	3177
512.9079	3101
515.3975	3099
517.8864	3075
520.3746	3102
522.8622	3104
525.3491	3101
527.8394	3099
530.3249	3113
532.8098	3144
535.2939	3169
537.7774	3083
540.2623	3071
542.7444	3119
545.2259	3181
547.7067	3137
550.1868	3163
552.6683	3111
555.147	3157
557.6231	3124
560.1005	3160
562.5773	3089
565.0534	3208
567.5308	3191
570.0056	3197
572.4776	3194
574.951	3203
577.4237	3242
579.8978	3275
582.3671	3282
584.8378	3364
587.3079	3260
589.7773	3316
592.244	3319
594.714	3309
597.1793	3247
599.6461	3275
602.1121	3251
604.5754	3237
607.0421	3242
609.5042	3184
611.9675	3352
614.4282	3164
616.8902	3275
619.3515	3210
621.8122	3293
624.2702	3202
626.7296	3162
629.1863	3192
631.6423	3198
634.1017	3228
636.5563	3178
639.0104	3188
641.4658	3218
643.9185	3200
646.3725	3205
648.8239	3179
651.2766	3165
653.7266	3197
656.176	3246
658.6247	3340
661.0748	3246
663.5242	3269
665.9709	3229
668.417	3288
670.8624	3226
673.3092	3308
675.7533	3241
678.1968	3255
680.6395	3330
683.0817	3261
685.5251	3254
687.9659	3332
690.4061	3378
692.8456	3292
695.2844	3312
697.7226	3346
700.1621	3319
702.599	3325
705.0332	3304
707.4688	3328
709.9036	3370
712.3399	3370
714.7735	3382
717.2044	3313
719.6367	3402
722.0683	3381
724.4993	3419
726.9296	3452
729.3593	3362
731.7883	3345
734.2147	3401
736.6423	3419
739.0714	3465
741.4958	3475
743.9216	3471
746.3447	3492
748.7691	3378
751.1929	3409
753.616	3497
756.0366	3540
758.4584	3541
760.8776	3484
763.2982	3571
765.718	3495
768.1373	3494
770.5539	3524
772.9698	3588
775.3871	3568
777.8038	3528
780.2178	3581
782.6332	3578
785.0459	3522
787.458	3570
789.8714	3518
792.2842	3518
794.6943	3527
797.1038	3411
799.5127	3537
801.9209	3485
804.3324	3623
806.7393	3549
809.1456	3564
811.5513	3547
813.9562	3551
816.3625	3592
818.7663	3570
821.1693	3608
823.5718	3619
825.9735	3633
828.3746	3555
830.7771	3548
833.177	3576
835.5762	3576
837.9747	3578
840.3727	3662
842.772	3612
845.1666	3606
847.5626	3675
849.958	3741
852.3527	3623
854.7488	3759
857.1403	3710
859.5331	3747
861.9253	3715
864.3168	3737
866.7057	3742
869.098	3712
871.4876	3664
873.8746	3663
876.263	3711
878.6487	3673
881.0378	3680
883.4243	3670
885.8081	3714
888.1933	3669
890.5759	3728
892.9598	3622
895.343	3650
897.7256	3750
900.1057	3718
902.4871	3748
904.8659	3743
907.246	3696
909.6254	3725
912.0023	3750
914.3786	3865
916.7562	3797
919.1331	3934
921.5074	3970
923.8831	4000
926.2562	3918
928.6287	3905
931.0005	4004
933.3757	3937
935.7462	3964
938.1162	3995
940.4855	3973
942.8542	4071
945.2242	4135
947.5916	4318
949.9584	4358
952.3266	4477
954.6921	4689
957.0571	5033
959.4233	5182
961.787	5216
964.15	5213
966.5125	5027
968.8742	4779
971.2354	4483
973.5959	4339
975.9559	4202
978.3151	4142
980.6738	4014
983.0338	3955
985.3912	3862
987.7461	3884
990.1022	3902
992.4578	3787
994.8127	3902
997.1689	3805
999.5207	3806
1001.874	3935
1004.226	3920
1006.576	3889
1008.929	3949
1011.28	3920
1013.628	3929
1015.977	3882
1018.324	3832
1020.674	3889
1023.019	3889
1025.366	3947
1027.713	3852
1030.056	3961
1032.399	4015
1034.746	3886
1037.087	4025
1039.431	4027
1041.771	3944
1044.113	3956
1046.454	3947
1048.793	3995
1051.133	3893
1053.471	3938
1055.807	4006
1058.146	4018
1060.483	3977
1062.818	4108
1065.153	4002
1067.489	4139
1069.822	3982
1072.156	4177
1074.488	4040
1076.82	4148
1079.15	3964
1081.48	4034
1083.814	3996
1086.143	4034
1088.471	4015
1090.799	3963
1093.126	3970
1095.452	3974
1097.78	3942
1100.105	4028
1102.43	4019
1104.754	3957
1107.077	3932
1109.4	4003
1111.722	4045
1114.044	3931
1116.365	3947
1118.685	3954
1121.005	3985
1123.324	3897
1125.643	3974
1127.961	3985
1130.278	3963
1132.595	3949
1134.911	3899
1137.226	3951
1139.541	3992
1141.854	3983
1144.167	3937
1146.482	3921
1148.793	3833
1151.105	3983
1153.414	3992
1155.725	3951
1158.033	3957
1160.344	3950
1162.651	3952
1164.959	4022
1167.265	3988
1169.572	4012
1171.878	3976
1174.184	3972
1176.488	3988
1178.79	3944
1181.094	4016
1183.396	3966
1185.699	3999
1188.001	3965
1190.301	4004
1192.6	3930
1194.9	4078
1197.2	3958
1199.497	3938
1201.794	4032
1204.09	3927
1206.387	3993
1208.684	4053
1210.978	3998
1213.272	3967
1215.565	4064
1217.858	4011
1220.15	4054
1222.443	3929
1224.734	3973
1227.024	4060
1229.313	4110
1231.602	4074
1233.892	4077
1236.18	4096
1238.467	4097
1240.754	4139
1243.04	4251
1245.325	4218
1247.612	4230
1249.896	4320
1252.178	4135
1254.461	4207
1256.743	4060
1259.027	4280
1261.308	4314
1263.587	4175
1265.867	4084
1268.146	4275
1270.425	4262
1272.703	4230
1274.981	4199
1277.256	4123
1279.532	4171
1281.808	4228
1284.083	4164
1286.358	4144
1288.63	4111
1290.904	4077
1293.175	4139
1295.449	4166
1297.719	4164
1299.99	4096
1302.259	4040
1304.529	4066
1306.798	4108
1309.065	4116
1311.333	4173
1313.599	4184
1315.866	4204
1318.131	4229
1320.396	4155
1322.66	4126
1324.925	4132
1327.187	4165
1329.448	4146
1331.711	4145
1333.974	4128
1336.234	4070
1338.493	4145
1340.752	4116
1343.01	4131
1345.269	4164
1347.526	4125
1349.784	4112
1352.04	4109
1354.295	4100
1356.552	4121
1358.806	4105
1361.059	4132
1363.312	4140
1365.564	4071
1367.818	4073
1370.069	4189
1372.318	4092
1374.568	4128
1376.817	4117
1379.066	4281
1381.316	4250
1383.564	4121
1385.809	4128
1388.056	4164
1390.301	4227
1392.549	4236
1394.793	4321
1397.036	4341
1399.279	4264
1401.522	4375
1403.763	4275
1406.007	4252
1408.248	4225
1410.487	4300
1412.727	4383
1414.965	4266
1417.205	4249
1419.442	4257
1421.68	4282
1423.915	4231
1426.152	4269
1428.388	4282
1430.623	4204
1432.857	4237
1435.091	4267
1437.323	4300
1439.556	4372
1441.789	4334
1444.019	4319
1446.25	4380
1448.48	4367
1450.708	4399
1452.938	4469
1455.167	4434
1457.394	4324
1459.62	4528
1461.846	4398
1464.073	4367
1466.299	4362
1468.523	4275
1470.746	4265
1472.969	4201
1475.191	4209
1477.415	4305
1479.636	4292
1481.858	4064
1484.078	4247
1486.298	4211
1488.518	4114
1490.736	4171
1492.954	4083
1495.169	4090
1497.386	4077
1499.602	4159
1501.819	4158
1504.034	4080
1506.248	4095
1508.462	4033
1510.675	4081
1512.888	4049
1515.1	4129
1517.311	4093
1519.522	4210
1521.732	4125
1523.942	4164
1526.151	4131
1528.36	4128
1530.566	4153
1532.773	4154
1534.98	4044
1537.187	4122
1539.392	4089
1541.596	4147
1543.801	4117
1546.005	4126
1548.208	4185
1550.411	4153
1552.612	4148
1554.814	4170
1557.013	4117
1559.212	4159
1561.414	4160
1563.612	4168
1565.811	4227
1568.007	4267
1570.203	4174
1572.403	4274
1574.598	4248
1576.792	4153
1578.988	4197
1581.181	4235
1583.376	4245
1585.568	4244
1587.761	4283
1589.952	4280
1592.143	4257
1594.333	4251
1596.524	4291
1598.715	4322
1600.903	4312
1603.091	4302
1605.278	4327
1607.466	4271
1609.652	4241
1611.838	4209
1614.023	4262
1616.207	4304
1618.391	4306
1620.576	4257
1622.759	4289
1624.941	4287
1627.123	4302
1629.304	4230
1631.484	4390
1633.664	4376
1635.844	4390
1638.022	4394
1640.201	4350
1642.38	4405
1644.556	4322
1646.732	4343
1648.908	4249
1651.084	4347
1653.257	4419
1655.433	4435
1657.607	4407
1659.779	4352
1661.951	4393
1664.122	4409
1666.295	4341
1668.467	4395
1670.635	4487
1672.805	4482
1674.973	4456
1677.142	4399
1679.31	4382
1681.478	4270
1683.644	4315
1685.81	4398
1687.975	4356
1690.142	4366
1692.305	4377
1694.468	4258
1696.632	4319
1698.794	4320
1700.957	4288
1703.119	4329
1705.279	4347
1707.439	4291
1709.598	4194
1711.758	4309
1713.917	4267
1716.075	4200
1718.231	4279
1720.388	4295
1722.543	4239
1724.702	4175
1726.856	4247
1729.01	4217
1731.164	4241
1733.317	4217
1735.471	4232
1737.623	4237
1739.774	4281
1741.925	4235
1744.075	4266
1746.225	4226
1748.376	4236
1750.524	4272
1752.672	4285
1754.82	4264
1756.965	4256
1759.113	4178
1761.259	4256
1763.405	4258
1765.549	4223
1767.694	4304
1769.836	4141
1771.981	4316
1774.123	4184
1776.264	4222
1778.405	4250
1780.546	4273
1782.687	4200
1784.827	4340
1786.966	4307
1789.103	4293
1791.242	4324
1793.381	4267
1795.517	4262
1797.653	4294
1799.788	4345
1801.923	4259
1804.057	4248
1806.193	4323
1808.326	4360
1810.457	4299
1812.59	4429
1814.721	4338
1816.855	4230
1818.984	4309
1821.113	4277
1823.244	4282
1825.372	4297
1827.499	4289
1829.63	4280
1831.756	4366
1833.882	4236
1836.007	4194
1838.132	4211
1840.26	4277
1842.384	4287
1844.507	4195
1846.63	4240
1848.752	4252
1850.875	4343
1852.996	4293
1855.118	4298
1857.238	4170
1859.358	4192
1861.477	4214
1863.597	4367
1865.715	4275
1867.832	4267
1869.948	4261
1872.064	4237
1874.181	4251
1876.297	4173
1878.411	4206
1880.526	4171
1882.639	4215
1884.752	4232
1886.865	4257
1888.977	4191
1891.089	4243
1893.2	4257
1895.308	4340
1897.42	4281
1899.53	4203
1901.639	4291
1903.745	4276
1905.853	4232
1907.962	4313
1910.067	4374
1912.174	4280
1914.278	4236
1916.383	4320
1918.486	4271
1920.592	4235
1922.694	4340
1924.797	4315
1926.898	4304
1929	4308
1931.102	4276
1933.203	4319
1935.301	4323
1937.401	4332
1939.499	4383
1941.598	4232
1943.697	4326
1945.793	4283
1947.888	4294
1949.985	4311
1952.08	4330
1954.176	4352
1956.269	4270
1958.364	4300
1960.457	4330
1962.549	4353
1964.642	4224
1966.733	4284
1968.823	4319
1970.913	4309
1973.005	4199
1975.093	4349
1977.184	4204
1979.271	4251
1981.359	4340
1983.446	4217
1985.532	4422
1987.619	4251
1989.705	4253
1991.789	4266
1993.874	4284
1995.956	4229
1998.041	4391
2000.123	4285
2002.206	4246
2004.287	4197
2006.368	4229
2008.449	4299
2010.529	4355
2012.609	4177
2014.688	4291
2016.766	4197
2018.843	4305
2020.922	4319
2022.999	4255
2025.074	4297
2027.15	4313
2029.225	4295
2031.299	4329
2033.375	4278
2035.447	4258
2037.52	4267
2039.592	4289
2041.664	4344
2043.736	4168
2045.807	4285
2047.876	4363
2049.947	4311
2052.015	4333
2054.086	4236
2056.153	4273
2058.221	4288
2060.288	4315
2062.353	4351
2064.42	4257
2066.486	4240
2068.55	4285
2070.614	4209
2072.678	4301
2074.741	4264
2076.805	4333
2078.866	4284
2080.929	4290
2082.99	4281
2085.049	4289
2087.109	4314
2089.17	4332
2091.228	4278
2093.286	4241
2095.344	4286
2097.4	4342
2099.46	4260
2101.516	4228
2103.572	4192
2105.626	4323
2107.679	4253
2109.735	4279
2111.788	4322
2113.841	4328
2115.894	4313
2117.945	4357
2119.997	4222
2122.049	4262
2124.1	4154
2126.148	4263
2128.197	4238
2130.246	4351
2132.296	4300
2134.342	4296
2136.39	4308
2138.437	4253
2140.483	4353
2142.527	4278
2144.574	4330
2146.619	4263
2148.661	4242
2150.705	4333
2152.747	4199
2154.792	4246
2156.832	4247
2158.874	4224
2160.915	4276
2162.954	4238
2164.995	4185
2167.034	4273
2169.072	4192
2171.111	4164
2173.148	4302
2175.186	4281
2177.223	4159
2179.258	4187
2181.294	4355
2183.328	4315
2185.362	4258
2187.398	4289
2189.431	4184
2191.463	4254
2193.495	4282
2195.528	4239
2197.56	4159
2199.59	4223
2201.62	4128
2203.649	4209
2205.678	4217
2207.708	4058
2209.737	4203
2211.764	4210
2213.791	4203
2215.817	4242
2217.843	4163
2219.87	4188
2221.895	4219
2223.919	4147
2225.942	4210
2227.966	4231
2229.988	4213
2232.012	4182
2234.032	4167
2236.054	4186
2238.074	4200
2240.095	4104
2242.116	4221
2244.135	4200
2246.153	4217
2248.171	4152
2250.188	4207
2252.208	4249
2254.223	4286
2256.239	4260
2258.255	4160
2260.269	4186
2262.283	4140
2264.3	4232
2266.312	4199
2268.325	4251
2270.336	4220
2272.349	4183
2274.362	4165
2276.372	4198
2278.383	4141
2280.392	4160
2282.402	4112
2284.409	4254
2286.418	4200
2288.427	4170
2290.433	4149
2292.441	4215
2294.446	4213
2296.453	4225
2298.459	4175
2300.463	4178
2302.466	4198
2304.471	4148
2306.475	4194
2308.477	4114
2310.478	4123
2312.481	4177
2314.481	4236
2316.481	4206
2318.482	4144
2320.482	4195
2322.48	4164
2324.48	4210
2326.478	4165
2328.476	4127
2330.473	4144
2332.469	4106
2334.465	4153
2336.46	4157
2338.454	4074
2340.45	4218
2342.444	4182
2344.437	3997
2346.43	4208
2348.421	4176
2350.414	4166
2352.405	4074
2354.396	4191
2356.386	4153
2358.376	4157
2360.366	4070
2362.355	4089
2364.343	4109
2366.331	4118
2368.317	4076
2370.304	4103
2372.292	4075
2374.278	4145
2376.262	4123
2378.247	4101
2380.23	4148
2382.216	4124
2384.199	4093
2386.181	4162
2388.163	4138
2390.144	4040
2392.127	4107
2394.107	4032
2396.087	4135
2398.066	4070
2400.046	4109
2402.023	4096
2404.004	4048
2405.981	4019
2407.957	4115
2409.934	4071
2411.91	4023
2413.886	4078
2415.862	4112
2417.836	4058
2419.809	4127
2421.784	4100
2423.756	4041
2425.73	4086
2427.701	4025
2429.672	4076
2431.644	4044
2433.615	4063
2435.586	3908
2437.555	4121
2439.523	4105
2441.491	4080
2443.459	4091
2445.428	4050
2447.395	4000
2449.361	4080
2451.327	4108
2453.292	4018
2455.257	4108
2457.223	4120
2459.187	4125
2461.15	4031
2463.113	4100
2465.076	3999
2467.039	4114
2468.999	3981
2470.96	4044
2472.921	3990
2474.881	4083
2476.841	4044
2478.8	4030
2480.759	4006
2482.717	4076
2484.675	4075
2486.63	3993
2488.589	3976
2490.545	4026
2492.5	4020
2494.455	4121
2496.408	4059
2498.364	4002
2500.318	4053
2502.27	3957
2504.223	3953
2506.174	4079
2508.126	4005
2510.078	3993
2512.03	4020
2513.979	4104
2515.927	3987
2517.877	3993
2519.826	3932
2521.775	4044
2523.722	4018
2525.668	3991
2527.616	4014
2529.561	4116
2531.508	4020
2533.452	3948
2535.398	4025
2537.342	3967
2539.284	3964
2541.229	4103
2543.173	4006
2545.114	3995
2547.055	3999
2548.996	3996
2550.938	3968
2552.878	4014
2554.817	3981
2556.756	4003
2558.695	4072
2560.633	4022
2562.572	4026
2564.509	3969
2566.445	3916
2568.382	3972
2570.317	3952
2572.254	3988
2574.189	4105
2576.123	3954
2578.057	3982
2579.99	4098
2581.923	3983
2583.855	3934
2585.788	4038
2587.719	4076
2589.65	4047
2591.579	3965
2593.511	4004
2595.44	3967
2597.37	3959
2599.297	4108
2601.225	4029
2603.153	4047
2605.08	4007
2607.007	4114
2608.932	4017
2610.858	3995
2612.782	3996
2614.709	4044
2616.632	4019
2618.556	4033
2620.478	4000
2622.401	4076
2624.324	4029
2626.247	3943
2628.167	4040
2630.088	4036
2632.008	4014
2633.928	3968
2635.848	4058
2637.766	4061
2639.684	4131
2641.603	4015
2643.519	4051
2645.437	3992
2647.353	4022
2649.27	3960
2651.184	4036
2653.099	4091
2655.014	4090
2656.928	4068
2658.842	4084
2660.755	3985
2662.667	4014
2664.579	4029
2666.491	4052
2668.402	3918
2670.312	4103
2672.222	4031
2674.132	4053
2676.042	3903
2677.951	4010
2679.859	4065
2681.766	3998
2683.674	3965
2685.582	4024
2687.488	4091
2689.392	3978
2691.298	3919
2693.202	4018
2695.107	3947
2697.012	3923
2698.914	3985
2700.817	4041
2702.72	3912
2704.622	3959
2706.524	3961
2708.425	4031
2710.326	4054
2712.225	3955
2714.125	3850
2716.024	3932
2717.923	3905
2719.822	3933
2721.719	3964
2723.616	3923
2725.512	3950
2727.41	3875
2729.305	3932
2731.201	4044
2733.095	3946
2734.99	4002
2736.884	3972
2738.778	4004
2740.67	3877
2742.562	3949
2744.455	3973
2746.346	3899
2748.238	3917
2750.129	3937
2752.018	3949
2753.907	3938
2755.797	3950
2757.687	3906
2759.575	3957
2761.462	3929
2763.349	3988
2765.237	3917
2767.124	3933
2769.009	3989
2770.894	3966
2772.779	3999
2774.663	3903
2776.547	3873
2778.431	3930
2780.314	3809
2782.197	4020
2784.078	3940
2785.96	3877
2787.842	3947
2789.723	4035
2791.603	3971
2793.483	3918
2795.362	3912
2797.241	3936
2799.121	3936
2800.997	3855
2802.874	3930
2804.751	4062
2806.628	3956
2808.506	3874
2810.38	3967
2812.255	3910
2814.13	3878
2816.003	3918
2817.878	4015
2819.752	3869
2821.623	3885
2823.496	3939
2825.368	3961
2827.238	3879
2829.111	3982
2830.98	3873
2832.851	3958
2834.719	3909
2836.589	3879
2838.458	3963
2840.327	3941
2842.193	3926
2844.061	3837
2845.927	3999
2847.794	3984
2849.66	3930
2851.525	4000
2853.39	4003
2855.254	4061
2857.117	4035
2858.983	4025
2860.845	4082
2862.707	4122
2864.569	4102
2866.431	4077
2868.293	4177
2870.154	4184
2872.013	4213
2873.873	4259
2875.733	4334
2877.592	4304
2879.451	4350
2881.309	4408
2883.166	4390
2885.022	4472
2886.879	4482
2888.736	4554
2890.591	4540
2892.446	4588
2894.301	4438
2896.155	4553
2898.009	4500
2899.863	4542
2901.716	4487
2903.568	4469
2905.419	4478
2907.27	4509
2909.123	4423
2910.973	4404
2912.824	4446
2914.673	4614
2916.521	4670
2918.372	4748
2920.22	4627
2922.067	4708
2923.914	4720
2925.761	4743
2927.607	4860
2929.455	4886
2931.301	5025
2933.144	4920
2934.99	4963
2936.833	5025
2938.678	5130
2940.522	5097
2942.364	5282
2944.207	5220
2946.048	5287
2947.891	5293
2949.731	5284
2951.571	5251
2953.412	5320
2955.25	5048
2957.09	5073
2958.93	5029
2960.767	5163
2962.606	5018
2964.443	4933
2966.279	4912
2968.116	4829
2969.953	4821
2971.788	4730
2973.623	4682
2975.457	4796
2977.292	4661
2979.127	4608
2980.959	4654
2982.792	4496
2984.624	4523
2986.455	4497
2988.288	4507
2990.119	4444
2991.949	4406
2993.779	4404
2995.608	4401
2997.439	4287
2999.268	4358
3001.096	4253
3002.923	4202
3004.751	4169
3006.578	4127
3008.406	4110
3010.232	4142
3012.057	4068
3013.883	4143
3015.706	4002
3017.532	3874
3019.356	3974
3021.179	3895
3023.002	3898
3024.823	3874
3026.646	3835
3028.469	3824
3030.289	3843
3032.11	3822
3033.93	3803
3035.749	3863
3037.57	3805
3039.39	3827
3041.207	3867
3043.026	3736
3044.842	3818
3046.661	3742
3048.477	3679
3050.294	3794
3052.109	3794
3053.925	3851
3055.739	3693
3057.555	3861
3059.368	3703
3061.181	3687
3062.995	3754
3064.807	3837
3066.62	3733
3068.433	3881
3070.243	3674
3072.054	3777
3073.865	3772
3075.675	3776
3077.485	3773
3079.293	3708
3081.102	3701
3082.911	3748
3084.719	3716
3086.527	3651
3088.333	3709
3090.139	3647
3091.945	3637
3093.75	3745
3095.557	3666
3097.361	3675
3099.165	3668
3100.969	3633
3102.772	3629
3104.575	3772
3106.379	3632
3108.181	3674
3109.982	3620
3111.783	3565
3113.584	3739
3115.386	3588
3117.186	3611
3118.985	3609
3120.783	3595
3122.582	3579
3124.381	3637
3126.179	3527
3127.975	3679
3129.772	3571
3131.569	3601
3133.365	3546
3135.161	3578
3136.956	3596
3138.751	3612
3140.544	3589
3142.338	3656
3144.132	3512
3145.925	3500
3147.717	3530
3149.509	3601
3151.301	3587
3153.091	3541
3154.884	3563
3156.673	3537
3158.462	3515
3160.252	3529
3162.041	3590
3163.831	3635
3165.618	3561
3167.405	3588
3169.193	3570
3170.979	3546
3172.767	3534
3174.553	3574
3176.338	3615
3178.123	3607
3179.907	3611
3181.692	3601
3183.477	3570
3185.259	3596
3187.042	3484
3188.824	3496
3190.607	3465
3192.389	3550
3194.17	3508
3195.951	3644
3197.73	3540
3199.51	3545
3201.289	3535
3203.07	3554
3204.848	3577
3206.626	3524
3208.403	3477
3210.18	3481
3211.959	3599
3213.735	3504
3215.511	3519
3217.285	3544
3219.06	3519
3220.836	3537
3222.611	3479
3224.384	3536
3226.158	3625
3227.929	3564
3229.702	3649
3231.476	3582
3233.248	3579
3235.018	3569
3236.789	3457
3238.56	3462
3240.33	3485
3242.1	3476
3243.869	3529
3245.637	3665
3247.405	3567
3249.172	3554
3250.941	3502
3252.707	3679
3254.474	3533
3256.24	3522
3258.006	3513
3259.772	3495
3261.537	3541
3263.301	3540
3265.065	3572
3266.828	3616
3268.592	3531
3270.355	3600
3272.117	3584
3273.878	3573
3275.64	3601
3277.401	3657
3279.162	3532
3280.922	3539
3282.682	3524
3284.441	3626
3286.199	3580
3287.959	3499
3289.716	3563
3291.475	3528
3293.232	3495
3294.988	3548
3296.744	3585
3298.501	3504
3300.256	3572
3302.011	3484
3303.766	3585
3305.52	3598
3307.275	3472
3309.028	3505
3310.781	3534
3312.533	3600
3314.285	3648
3316.038	3535
3317.789	3672
3319.54	3536
3321.289	3590
3323.039	3617
3324.789	3538
3326.539	3598
3328.288	3593
3330.035	3547
3331.783	3558
3333.531	3581
3335.28	3596
3337.025	3581
3338.771	3558
3340.518	3566
3342.262	3548
3344.009	3542
3345.753	3525
3347.497	3510
3349.24	3484
3350.983	3478
3352.726	3534
3354.469	3521
3356.212	3523
3357.952	3524
3359.694	3546
3361.434	3489
3363.176	3451
3364.916	3486
3366.654	3473
3368.394	3521
3370.132	3474
3371.871	3426
3373.61	3450
3375.346	3509
3377.083	3505
3378.82	3481
3380.556	3465
3382.292	3465
3384.027	3409
3385.763	3460
3387.497	3423
3389.231	3417
3390.965	3446
3392.698	3487
3394.431	3478
3396.164	3419
3397.896	3398
3399.627	3414
3401.36	3396
3403.09	3454
3404.82	3454
3406.55	3438
3408.279	3362
3410.01	3423
3411.738	3373
3413.467	3359
3415.194	3477
3416.92	3378
3418.647	3472
3420.375	3349
3422.102	3381
3423.827	3358
3425.553	3409
3427.277	3437
3429.003	3304
3430.727	3341
3432.451	3358
3434.173	3354
3435.896	3303
3437.62	3325
3439.343	3398
3441.063	3375
3442.785	3335
3444.505	3351
3446.226	3316
3447.948	3296
3449.666	3310
3451.386	3370
3453.104	3343
3454.823	3340
3456.541	3269
3458.259	3303
3459.976	3265
3461.693	3270
3463.408	3258
3465.125	3279
3466.841	3292
3468.556	3237
3470.271	3299
3471.985	3234
3473.698	3239
3475.414	3221
3477.126	3263
3478.838	3265
3480.55	3263
3482.263	3226
3483.975	3184
3485.686	3335
3487.396	3259
3489.106	3191
3490.817	3141
3492.526	3191
3494.236	3200
3495.944	3195
3497.652	3184
3499.359	3230
3501.066	3232
3502.775	3185
3504.481	3148
3506.187	3121
3507.893	3210
3509.598	3130
3511.304	3147
3513.009	3082
3514.713	3196
3516.417	3153
3518.12	3135
3519.821	3159
3521.525	3070
3523.228	3126
3524.929	3145
3526.631	3092
3528.33	3196
3530.032	3058
3531.733	3113
3533.433	3109
3535.131	3068
3536.83	3111
3538.529	3104
3540.227	3056
3541.925	3068
3543.623	3081
3545.319	3059
3547.016	3164
3548.712	3083
3550.408	3069
3552.103	3007
3553.798	3039
3555.491	3084
3557.188	3116
3558.88	3114
3560.574	3052
3562.266	3039
3563.959	3129
3565.651	3072
3567.343	2985
3569.035	3007
3570.725	2988
3572.415	3002
3574.106	2977
3575.797	2989
3577.485	3021
3579.174	2968
3580.863	3054
3582.551	2957
3584.238	3042
3585.926	3034
3587.613	3032
3589.3	3030
3590.986	3017
3592.671	3020
3594.357	2929
3596.042	3000
3597.726	2965
3599.41	2953
3601.094	2974
3602.778	2982
3604.461	2944
3606.143	2952
3607.825	2962
3609.507	2922
3611.188	2891
3612.87	2878
3614.551	2938
3616.229	2866
3617.909	2902
3619.589	2871
3621.269	2915
3622.948	2875
3624.625	2971
3626.302	2829
3627.98	2904
3629.657	2876
3631.334	2806
3633.01	2840
3634.686	2812
3636.361	2825
3638.036	2913
3639.712	2738
3641.385	2856
3643.06	2803
3644.732	2820
3646.405	2789
3648.08	2831
3649.751	2820
3651.424	2771
3653.094	2756
3654.766	2801
3656.436	2783
3658.106	2820
3659.777	2816
3661.446	2760
3663.115	2796
3664.783	2820
3666.452	2798
3668.121	2882
3669.788	2759
3671.454	2803
3673.121	2775
3674.789	2798
3676.455	2755
3678.12	2795
3679.784	2814
3681.45	2753
3683.114	2768
3684.779	2741
3686.442	2715
3688.105	2807
3689.768	2775
3691.43	2732
3693.093	2743
3694.754	2746
3696.415	2699
3698.076	2670
3699.736	2703
3701.396	2756
3703.057	2754
3704.716	2629
3706.375	2761
3708.034	2679
3709.692	2677
3711.351	2740
3713.008	2697
3714.665	2716
3716.321	2807
3717.977	2703
3719.634	2712
3721.29	2713
3722.945	2683
3724.598	2670
3726.253	2668
3727.907	2652
3729.561	2640
3731.214	2670
3732.867	2653
3734.518	2661
3736.171	2715
3737.824	2681
3739.474	2662
3741.125	2646
3742.775	2647
3744.425	2707
3746.074	2689
3747.725	2623
3749.373	2642
3751.022	2695
3752.669	2673
3754.318	2639
3755.966	2724
3757.612	2625
3759.259	2632
3760.905	2667
3762.55	2609
3764.197	2691
3765.842	2636
3767.486	2631
3769.131	2687
3770.774	2617
3772.417	2632
3774.061	2687
3775.705	2630
3777.347	2582
3778.988	2607
3780.629	2630
3782.271	2551
3783.912	2662
3785.552	2636
3787.192	2613
3788.831	2639
3790.472	2575
3792.112	2558
3793.75	2608
3795.388	2654
3797.024	2579
3798.661	2525
3800.3	2595
3801.936	2606
3803.572	2583
3805.208	2598
3806.844	2609
3808.48	2637
3810.115	2593
3811.748	2614
3813.382	2596
3815.016	2594
3816.649	2514
3818.283	2537
3819.914	2540
3821.547	2565
3823.178	2563
3824.809	2562
3826.441	2592
3828.072	2523
3829.701	2576
3831.331	2528
3832.96	2585
3834.591	2487
3836.219	2544
3837.847	2540
3839.475	2520
3841.102	2531
3842.729	2526
3844.357	2557
3845.984	2560
3847.609	2524
3849.234	2516
3850.86	2464
3852.485	2516
3854.11	2513
3855.734	2582
3857.357	2535
3858.981	2506
3860.603	2493
3862.227	2504
3863.848	2522
3865.471	2468
3867.092	2536
3868.713	2523
3870.334	2566
3871.954	2457
3873.575	2431
3875.194	2411
3876.813	2559
3878.433	2501
3880.051	2520
3881.669	2469
3883.286	2521
3884.904	2488
3886.52	2409
3888.138	2410
3889.754	2471
3891.37	2446
3892.985	2462
3894.6	2476
3896.216	2452
3897.831	2440
3899.444	2462
3901.058	2477
3902.67	2452
3904.283	2486
3905.897	2395
3907.509	2469
3909.121	2490
3910.731	2394
3912.342	2458
3913.954	2490
3915.563	2398
3917.174	2438
3918.783	2509
3920.391	2455
3922.002	2411
3923.611	2451
3925.218	2431
3926.826	2463
3928.432	2377
3930.039	2476
3931.647	2466
3933.253	2479
3934.859	2482
3936.464	2392
3938.068	2481
3939.675	2465
3941.278	2471
3942.883	2456
3944.486	2459
3946.089	2407
3947.692	2393
3949.295	2383
3950.898	2402
3952.499	2437
3954.1	2385
3955.7	2446
3957.303	2377
3958.903	2442
3960.502	2394
3962.101	2469
3963.7	2378
3965.301	2413
3966.899	2412
3968.497	2446
3970.094	2369
3971.691	2434
3973.288	2384
3974.885	2385
3976.481	2328
3978.077	2303
3979.672	2349
3981.267	2408
3982.863	2340
3984.457	2322
3986.051	2288
3987.645	2357
3989.238	2361
3990.831	2425
3992.425	2363
3994.017	2372
3995.607	2296
3997.199	2384
3998.79	2329
4000.382	2366
4001.973	2334
4003.561	2265
4005.151	2246
4006.741	2328
4008.331	2339
4009.918	2322
4011.507	2310
4013.095	2341
4014.681	2248
4016.269	2340
4017.856	2257
4019.443	2295
4021.028	2302
4022.614	2272
4024.199	2316
4025.785	2267
4027.37	2262
4028.953	2296
4030.536	2322
4032.12	2319
4033.704	2261
4035.287	2270
4036.869	2314
4038.45	2240
4040.032	2261
4041.613	2323
4043.195	2264
4044.776	2266
4046.356	2271
4047.935	2283
4049.515	2260
4051.095	2263
4052.674	2241
4054.251	2263
4055.829	2247
4057.406	2280
4058.985	2248
4060.562	2269
4062.139	2237
4063.715	2265
4065.29	2237
4066.865	2213
4068.442	2260
4070.016	2245
4071.59	2263
4073.164	2169
4074.738	2204
4076.312	2240
4077.885	2271
4079.458	2215
4081.03	2251
4082.602	2193
4084.173	2192
4085.745	2202
4087.315	2279
4088.886	2204
4090.456	2251
4092.026	2177
4093.596	2243
4095.165	2203
4096.734	2205
4098.301	2164
4099.869	2240
4101.437	2198
4103.006	2245
4104.572	2149
4106.139	2183
4107.704	2198
4109.27	2225
4110.837	2163
4112.401	2207
4113.966	2173
4115.53	2182
4117.094	2172
4118.659	2207
4120.223	2207
4121.785	2211
4123.347	2192
4124.909	2144
4126.471	2146
4128.034	2168
4129.595	2173
4131.155	2130
4132.716	2079
4134.275	2172
4135.836	2132
4137.395	2173
4138.955	2136
4140.513	2118
4142.071	2125
4143.628	2122
4145.188	2203
4146.745	2160
4148.302	2167
4149.858	2113
4151.414	2098
4152.971	2139
4154.526	2087
4156.081	2112
4157.635	2101
4159.189	2132
4160.745	2061
4162.298	2122
4163.852	2099
4165.405	2129
4166.957	2083
4168.51	2124
4170.063	2131
4171.614	2098
4173.166	2075
4174.717	2136
4176.267	2110
4177.817	2097
4179.368	2024
4180.917	2055
4182.466	2111
4184.016	2100
4185.564	2040
4187.112	2065
4188.66	2052
4190.207	2076
4191.754	2087
4193.301	2069
4194.848	2072
4196.394	2078
4197.94	2084
4199.484	2035
4201.03	2127
4202.575	2023
4204.12	2043
4205.663	2046
4207.207	2010
4208.75	2119
4210.292	2026
4211.836	2064
4213.378	2086
4214.92	2041
4216.46	2006
4218.002	2013
4219.544	2003
4221.083	2023
4222.625	2030
4224.164	2034
4225.703	2043
4227.244	2022
4228.782	2066
4230.32	2072
4231.857	1998
4233.395	2010
4234.933	2019
4236.471	2001
4238.007	2071
4239.542	2015
4241.078	2045
4242.614	1938
4244.15	2021
4245.685	2032
4247.219	2008
4248.753	2012
4250.287	1988
4251.82	2037
4253.354	2013
4254.887	1987
4256.419	2011
4257.951	1967
4259.483	1978
4261.016	2050
4262.547	1994
4264.078	1978
4265.608	2049
4267.137	2006
4268.668	1994
4270.197	1982
4271.727	1973
4273.254	2022
4274.783	2089
4276.311	1972
4277.84	1999
4279.366	1920
4280.894	1992
4282.42	1889
4283.946	1971
4285.473	1988
4286.998	1960
4288.523	2000
4290.047	1934
4291.572	1959
4293.096	1995
4294.622	1976
4296.144	1961
4297.668	1964
4299.19	1995
4300.713	1958
4302.236	1919
4303.758	1941
4305.279	1997
4306.799	1947
4308.321	1932
4309.842	1928
4311.361	1926
4312.882	1953
4314.401	1915
