400.0961	2561
402.6185	2600
405.1424	2641
407.6635	2604
410.1838	2610
412.7035	2684
415.2225	2707
417.7388	2689
420.2585	2760
422.7754	2798
425.2917	2776
427.8072	2844
430.3221	2875
432.8363	2839
435.3498	2871
437.8626	2862
440.3727	2804
442.8841	2865
445.3969	2854
447.907	2842
450.4142	2816
452.9229	2776
455.4289	2849
457.9362	2837
460.4449	2777
462.9488	2790
465.454	2706
467.9566	2824
470.4604	2813
472.9637	2763
475.4662	2772
477.966	2743
480.4671	2752
482.9656	2774
485.4633	2787
487.9645	2809
490.4608	2797
492.9566	2855
495.4536	2849
497.948	2773
500.4437	2811
502.9387	2794
505.431	2836
507.9226	2814
510.4136	2851
512.9079	2836
515.3975	2791
517.8864	2797
520.3746	2807
522.8622	2797
525.3491	2828
527.8394	2788
530.3249	2833
532.8098	2848
535.2939	2876
537.7774	2856
540.2623	2943
542.7444	2880
545.2259	2778
547.7067	2920
550.1868	2786
552.6683	2902
555.147	2848
557.6231	2872
560.1005	2892
562.5773	2924
565.0534	2933
567.5308	2905
570.0056	2976
572.4776	2937
574.951	2990
577.4237	2935
579.8978	3016
582.3671	3038
584.8378	3081
587.3079	3011
589.7773	3022
592.244	3024
594.714	3041
597.1793	2965
599.6461	3022
602.1121	2952
604.5754	2974
607.0421	2956
609.5042	2896
611.9675	3017
614.4282	3035
616.8902	3029
619.3515	2905
621.8122	2972
624.2702	2936
626.7296	2966
629.1863	3000
631.6423	2868
634.1017	2889
636.5563	2957
639.0104	2926
641.4658	2915
643.9185	2836
646.3725	2928
648.8239	2999
651.2766	2957
653.7266	2926
656.176	2965
658.6247	2960
661.0748	2983
663.5242	2988
665.9709	2958
668.417	3076
670.8624	3033
673.3092	2954
675.7533	2967
678.1968	2977
680.6395	3069
683.0817	3036
685.5251	2955
687.9659	3045
690.4061	3056
692.8456	3039
695.2844	3070
697.7226	3039
700.1621	3038
702.599	3031
705.0332	3094
707.4688	3152
709.9036	3009
712.3399	3067
714.7735	3060
717.2044	3118
719.6367	3110
722.0683	2987
724.4993	3082
726.9296	3067
729.3593	3059
731.7883	3136
734.2147	3139
736.6423	3092
739.0714	3054
741.4958	3135
743.9216	3108
746.3447	3110
748.7691	3142
751.1929	3264
753.616	3198
756.0366	3202
758.4584	3226
760.8776	3163
763.2982	3195
765.718	3222
768.1373	3193
770.5539	3217
772.9698	3224
775.3871	3192
777.8038	3191
780.2178	3240
782.6332	3286
785.0459	3324
787.458	3200
789.8714	3178
792.2842	3270
794.6943	3238
797.1038	3200
799.5127	3174
801.9209	3200
804.3324	3183
806.7393	3294
809.1456	3166
811.5513	3238
813.9562	3237
816.3625	3243
818.7663	3290
821.1693	3322
823.5718	3321
825.9735	3262
828.3746	3355
830.7771	3275
833.177	3302
835.5762	3298
837.9747	3290
840.3727	3336
842.772	3382
845.1666	3278
847.5626	3344
849.958	3386
852.3527	3346
854.7488	3343
857.1403	3388
859.5331	3453
861.9253	3422
864.3168	3437
866.7057	3285
869.098	3406
871.4876	3406
873.8746	3368
876.263	3428
878.6487	3425
881.0378	3355
883.4243	3310
885.8081	3382
888.1933	3377
890.5759	3337
892.9598	3427
895.343	3420
897.7256	3428
900.1057	3344
902.4871	3344
904.8659	3367
907.246	3488
909.6254	3530
912.0023	3426
914.3786	3456
916.7562	3453
919.1331	3494
921.5074	3566
923.8831	3569
926.2562	3525
928.6287	3469
931.0005	3584
933.3757	3579
935.7462	3543
938.1162	3558
940.4855	3702
942.8542	3623
945.2242	3692
947.5916	3822
949.9584	4038
952.3266	4156
954.6921	4292
957.0571	4606
959.4233	4776
961.787	4913
964.15	4765
966.5125	4628
968.8742	4324
971.2354	4232
973.5959	3917
975.9559	3733
978.3151	3772
980.6738	3630
983.0338	3567
985.3912	3557
987.7461	3545
990.1022	3522
992.4578	3520
994.8127	3478
997.1689	3468
999.5207	3512
1001.874	3522
1004.226	3607
1006.576	3578
1008.929	3556
1011.28	3496
1013.628	3533
1015.977	3531
1018.324	3521
1020.674	3548
1023.019	3569
1025.366	3558
1027.713	3576
1030.056	3555
1032.399	3523
1034.746	3544
1037.087	3552
1039.431	3645
1041.771	3622
1044.113	3590
1046.454	3569
1048.793	3639
1051.133	3615
1053.471	3631
1055.807	3588
1058.146	3650
1060.483	3639
1062.818	3615
1065.153	3621
1067.489	3663
1069.822	3728
1072.156	3707
1074.488	3669
1076.82	3681
1079.15	3682
1081.48	3789
1083.814	3674
1086.143	3646
1088.471	3681
1090.799	3627
1093.126	3664
1095.452	3577
1097.78	3579
1100.105	3619
1102.43	3710
1104.754	3575
1107.077	3601
1109.4	3552
1111.722	3555
1114.044	3596
1116.365	3580
1118.685	3595
1121.005	3524
1123.324	3530
1125.643	3558
1127.961	3659
1130.278	3599
1132.595	3574
1134.911	3577
1137.226	3533
1139.541	3532
1141.854	3494
1144.167	3598
1146.482	3486
1148.793	3523
1151.105	3542
1153.414	3572
1155.725	3523
1158.033	3526
1160.344	3528
1162.651	3497
1164.959	3543
1167.265	3474
1169.572	3576
1171.878	3546
1174.184	3635
1176.488	3535
1178.79	3572
1181.094	3624
1183.396	3637
1185.699	3572
1188.001	3606
1190.301	3594
1192.6	3555
1194.9	3573
1197.2	3581
1199.497	3572
1201.794	3586
1204.09	3569
1206.387	3676
1208.684	3540
1210.978	3638
1213.272	3555
1215.565	3609
1217.858	3577
1220.15	3636
1222.443	3591
1224.734	3598
1227.024	3601
1229.313	3505
1231.602	3589
1233.892	3678
1236.18	3658
1238.467	3738
1240.754	3786
1243.04	3792
1245.325	3788
1247.612	3742
1249.896	3640
1252.178	3788
1254.461	3818
1256.743	3714
1259.027	3768
1261.308	3774
1263.587	3733
1265.867	3716
1268.146	3767
1270.425	3735
1272.703	3768
1274.981	3817
1277.256	3732
1279.532	3793
1281.808	3716
1284.083	3796
1286.358	3729
1288.63	3743
1290.904	3697
1293.175	3675
1295.449	3685
1297.719	3725
1299.99	3660
1302.259	3705
1304.529	3670
1306.798	3619
1309.065	3678
1311.333	3718
1313.599	3695
1315.866	3676
1318.131	3639
1320.396	3685
1322.66	3593
1324.925	3747
1327.187	3673
1329.448	3737
1331.711	3734
1333.974	3670
1336.234	3792
1338.493	3673
1340.752	3770
1343.01	3697
1345.269	3683
1347.526	3704
1349.784	3704
1352.04	3636
1354.295	3684
1356.552	3677
1358.806	3582
1361.059	3651
1363.312	3678
1365.564	3798
1367.818	3727
1370.069	3675
1372.318	3661
1374.568	3736
1376.817	3779
1379.066	3713
1381.316	3786
1383.564	3743
1385.809	3688
1388.056	3750
1390.301	3756
1392.549	3752
1394.793	3738
1397.036	3908
1399.279	3787
1401.522	3847
1403.763	3922
1406.007	3879
1408.248	3905
1410.487	3822
1412.727	3959
1414.965	3844
1417.205	3818
1419.442	3851
1421.68	3795
1423.915	3885
1426.152	3850
1428.388	3924
1430.623	3828
1432.857	3882
1435.091	3938
1437.323	3945
1439.556	3983
1441.789	3919
1444.019	3898
1446.25	3919
1448.48	3900
1450.708	3892
1452.938	3935
1455.167	3948
1457.394	3917
1459.62	3895
1461.846	3906
1464.073	3939
1466.299	3926
1468.523	3912
1470.746	3799
1472.969	3851
1475.191	3874
1477.415	3785
1479.636	3833
1481.858	3767
1484.078	3741
1486.298	3730
1488.518	3680
1490.736	3786
1492.954	3661
1495.169	3692
1497.386	3653
1499.602	3645
1501.819	3718
1504.034	3660
1506.248	3734
1508.462	3709
1510.675	3664
1512.888	3674
1515.1	3747
1517.311	3673
1519.522	3662
1521.732	3647
1523.942	3746
1526.151	3668
1528.36	3687
1530.566	3714
1532.773	3734
1534.98	3732
1537.187	3664
1539.392	3704
1541.596	3727
1543.801	3763
1546.005	3732
1548.208	3652
1550.411	3701
1552.612	3759
1554.814	3825
1557.013	3750
1559.212	3809
1561.414	3870
1563.612	3792
1565.811	3743
1568.007	3800
1570.203	3734
1572.403	3809
1574.598	3845
1576.792	3737
1578.988	3908
1581.181	3861
1583.376	3790
1585.568	3778
1587.761	3760
1589.952	3811
1592.143	3848
1594.333	3845
1596.524	3793
1598.715	3793
1600.903	3807
1603.091	3778
1605.278	3770
1607.466	3906
1609.652	3814
1611.838	3813
1614.023	3847
1616.207	3913
1618.391	3864
1620.576	3830
1622.759	3835
1624.941	3875
1627.123	3870
1629.304	3854
1631.484	3886
1633.664	3989
1635.844	3825
1638.022	3927
1640.201	3952
1642.38	3848
1644.556	3940
1646.732	3898
1648.908	3960
1651.084	3850
1653.257	3931
1655.433	3974
1657.607	3978
1659.779	4065
1661.951	3979
1664.122	4029
1666.295	3949
1668.467	3966
1670.635	3968
1672.805	4024
1674.973	3897
1677.142	4099
1679.31	3940
1681.478	3944
1683.644	3963
1685.81	3983
1687.975	3978
1690.142	3877
1692.305	3944
1694.468	4053
1696.632	3886
1698.794	3937
1700.957	3938
1703.119	3753
1705.279	3857
1707.439	3820
1709.598	3796
1711.758	3859
1713.917	3848
1716.075	3779
1718.231	3827
1720.388	3753
1722.543	3818
1724.702	3786
1726.856	3745
1729.01	3785
1731.164	3829
1733.317	3770
1735.471	3815
1737.623	3792
1739.774	3754
1741.925	3821
1744.075	3825
1746.225	3791
1748.376	3845
1750.524	3834
1752.672	3855
1754.82	3836
1756.965	3862
1759.113	3847
1761.259	3822
1763.405	3856
1765.549	3872
1767.694	3882
1769.836	3852
1771.981	3823
1774.123	3909
1776.264	3878
1778.405	3894
1780.546	3858
1782.687	3863
1784.827	3843
1786.966	3797
1789.103	3874
1791.242	3953
1793.381	3918
1795.517	3886
1797.653	3795
1799.788	3930
1801.923	3831
1804.057	3911
1806.193	3820
1808.326	3855
1810.457	3857
1812.59	3904
1814.721	3879
1816.855	3870
1818.984	3846
1821.113	3892
1823.244	3770
1825.372	3884
1827.499	3813
1829.63	3849
1831.756	3791
1833.882	3908
1836.007	3825
1838.132	3840
1840.26	3878
1842.384	3834
1844.507	3852
1846.63	3914
1848.752	3825
1850.875	3816
1852.996	3824
1855.118	3766
1857.238	3880
1859.358	3823
1861.477	3858
1863.597	3858
1865.715	3842
1867.832	3860
1869.948	3910
1872.064	3853
1874.181	3882
1876.297	3887
1878.411	3902
1880.526	3863
1882.639	3857
1884.752	3864
1886.865	3883
1888.977	3846
1891.089	3907
1893.2	3905
1895.308	3926
1897.42	3861
1899.53	3884
1901.639	3854
1903.745	3855
1905.853	3923
1907.962	3885
1910.067	3897
1912.174	3803
1914.278	3896
1916.383	3905
1918.486	3796
1920.592	3977
1922.694	3908
1924.797	3902
1926.898	3895
1929	4003
1931.102	3916
1933.203	3934
1935.301	3959
1937.401	3895
1939.499	3929
1941.598	3891
1943.697	3903
1945.793	3900
1947.888	3931
1949.985	3899
1952.08	3836
1954.176	3932
1956.269	3870
1958.364	3854
1960.457	4024
1962.549	3904
1964.642	3947
1966.733	3966
1968.823	3900
1970.913	3845
1973.005	3876
1975.093	3910
1977.184	3894
1979.271	3874
1981.359	3878
1983.446	3886
1985.532	3904
1987.619	3888
1989.705	3847
1991.789	3936
1993.874	3864
1995.956	3888
1998.041	3900
2000.123	3894
2002.206	3913
2004.287	3827
2006.368	3896
2008.449	3944
2010.529	3862
2012.609	3931
2014.688	3802
2016.766	3855
2018.843	3822
2020.922	3830
2022.999	3917
2025.074	3931
2027.15	3866
2029.225	3917
2031.299	3882
2033.375	3849
2035.447	3939
2037.52	3818
2039.592	3851
2041.664	3924
2043.736	3861
2045.807	3922
2047.876	3923
2049.947	3874
2052.015	3882
2054.086	3922
2056.153	3918
2058.221	3766
2060.288	3860
2062.353	3887
2064.42	3861
2066.486	3847
2068.55	3843
2070.614	3840
2072.678	3867
2074.741	3893
2076.805	3859
2078.866	3899
2080.929	3905
2082.99	3843
2085.049	3930
2087.109	3884
2089.17	3875
2091.228	3723
2093.286	3835
2095.344	3882
2097.4	3937
2099.46	3811
2101.516	3907
2103.572	3894
2105.626	3885
2107.679	3873
2109.735	3933
2111.788	3819
2113.841	3883
2115.894	3837
2117.945	3903
2119.997	3866
2122.049	3907
2124.1	3768
2126.148	3894
2128.197	3839
2130.246	3948
2132.296	3875
2134.342	3921
2136.39	3897
2138.437	3927
2140.483	3874
2142.527	3965
2144.574	3864
2146.619	3948
2148.661	3934
2150.705	3860
2152.747	3881
2154.792	3773
2156.832	3788
2158.874	3814
2160.915	3892
2162.954	3900
2164.995	3879
2167.034	3889
2169.072	3882
2171.111	3854
2173.148	3923
2175.186	3852
2177.223	3914
2179.258	3799
2181.294	3846
2183.328	3768
2185.362	3806
2187.398	3790
2189.431	3864
2191.463	3874
2193.495	3815
2195.528	3841
2197.56	3825
2199.59	3818
2201.62	3779
2203.649	3796
2205.678	3838
2207.708	3852
2209.737	3822
2211.764	3846
2213.791	3824
2215.817	3739
2217.843	3787
2219.87	3778
2221.895	3786
2223.919	3823
2225.942	3819
2227.966	3793
2229.988	3772
2232.012	3807
2234.032	3840
2236.054	3820
2238.074	3732
2240.095	3791
2242.116	3833
2244.135	3816
2246.153	3733
2248.171	3909
2250.188	3752
2252.208	3846
2254.223	3800
2256.239	3802
2258.255	3750
2260.269	3785
2262.283	3748
2264.3	3789
2266.312	3788
2268.325	3801
2270.336	3764
2272.349	3717
2274.362	3787
2276.372	3941
2278.383	3791
2280.392	3775
2282.402	3824
2284.409	3754
2286.418	3777
2288.427	3772
2290.433	3830
2292.441	3756
2294.446	3783
2296.453	3788
2298.459	3756
2300.463	3874
2302.466	3807
2304.471	3784
2306.475	3776
2308.477	3769
2310.478	3836
2312.481	3781
2314.481	3731
2316.481	3860
2318.482	3781
2320.482	3769
2322.48	3747
2324.48	3784
2326.478	3753
2328.476	3688
2330.473	3711
2332.469	3768
2334.465	3757
2336.46	3685
2338.454	3809
2340.45	3758
2342.444	3845
2344.437	3743
2346.43	3777
2348.421	3825
2350.414	3749
2352.405	3906
2354.396	3780
2356.386	3737
2358.376	3746
2360.366	3806
2362.355	3716
2364.343	3746
2366.331	3780
2368.317	3762
2370.304	3754
2372.292	3740
2374.278	3726
2376.262	3665
2378.247	3724
2380.23	3637
2382.216	3803
2384.199	3636
2386.181	3749
2388.163	3674
2390.144	3628
2392.127	3691
2394.107	3708
2396.087	3671
2398.066	3672
2400.046	3601
2402.023	3712
2404.004	3640
2405.981	3638
2407.957	3733
2409.934	3655
2411.91	3758
2413.886	3684
2415.862	3640
2417.836	3704
2419.809	3680
2421.784	3662
2423.756	3634
2425.73	3690
2427.701	3653
2429.672	3736
2431.644	3633
2433.615	3669
2435.586	3670
2437.555	3736
2439.523	3690
2441.491	3642
2443.459	3646
2445.428	3720
2447.395	3645
2449.361	3642
2451.327	3645
2453.292	3697
2455.257	3636
2457.223	3622
2459.187	3688
2461.15	3681
2463.113	3610
2465.076	3665
2467.039	3616
2468.999	3617
2470.96	3552
2472.921	3589
2474.881	3683
2476.841	3628
2478.8	3605
2480.759	3587
2482.717	3616
2484.675	3622
2486.63	3579
2488.589	3552
2490.545	3639
2492.5	3625
2494.455	3631
2496.408	3549
2498.364	3566
2500.318	3694
2502.27	3582
2504.223	3552
2506.174	3671
2508.126	3647
2510.078	3579
2512.03	3585
2513.979	3567
2515.927	3643
2517.877	3611
2519.826	3604
2521.775	3588
2523.722	3589
2525.668	3599
2527.616	3684
2529.561	3562
2531.508	3665
2533.452	3580
2535.398	3608
2537.342	3559
2539.284	3624
2541.229	3600
2543.173	3632
2545.114	3610
2547.055	3667
2548.996	3548
2550.938	3558
2552.878	3643
2554.817	3578
2556.756	3557
2558.695	3600
2560.633	3630
2562.572	3662
2564.509	3737
2566.445	3621
2568.382	3566
2570.317	3610
2572.254	3608
2574.189	3659
2576.123	3546
2578.057	3571
2579.99	3557
2581.923	3587
2583.855	3570
2585.788	3676
2587.719	3609
2589.65	3604
2591.579	3608
2593.511	3516
2595.44	3596
2597.37	3667
2599.297	3490
2601.225	3525
2603.153	3659
2605.08	3683
2607.007	3573
2608.932	3639
2610.858	3613
2612.782	3594
2614.709	3562
2616.632	3622
2618.556	3599
2620.478	3545
2622.401	3772
2624.324	3613
2626.247	3667
2628.167	3602
2630.088	3639
2632.008	3621
2633.928	3598
2635.848	3651
2637.766	3577
2639.684	3599
2641.603	3619
2643.519	3678
2645.437	3707
2647.353	3663
2649.27	3595
2651.184	3682
2653.099	3684
2655.014	3611
2656.928	3539
2658.842	3507
2660.755	3581
2662.667	3567
2664.579	3634
2666.491	3620
2668.402	3610
2670.312	3544
2672.222	3499
2674.132	3606
2676.042	3619
2677.951	3533
2679.859	3587
2681.766	3558
2683.674	3599
2685.582	3522
2687.488	3639
2689.392	3569
2691.298	3599
2693.202	3583
2695.107	3555
2697.012	3645
2698.914	3634
2700.817	3662
2702.72	3669
2704.622	3565
2706.524	3552
2708.425	3558
2710.326	3631
2712.225	3552
2714.125	3469
2716.024	3530
2717.923	3463
2719.822	3592
2721.719	3494
2723.616	3579
2725.512	3570
2727.41	3607
2729.305	3486
2731.201	3608
2733.095	3479
2734.99	3529
2736.884	3504
2738.778	3528
2740.67	3518
2742.562	3611
2744.455	3510
2746.346	3564
2748.238	3651
2750.129	3615
2752.018	3522
2753.907	3512
2755.797	3484
2757.687	3581
2759.575	3501
2761.462	3531
2763.349	3528
2765.237	3610
2767.124	3547
2769.009	3462
2770.894	3575
2772.779	3541
2774.663	3575
2776.547	3540
2778.431	3511
2780.314	3533
2782.197	3540
2784.078	3556
2785.96	3526
2787.842	3436
2789.723	3486
2791.603	3483
2793.483	3602
2795.362	3547
2797.241	3546
2799.121	3455
2800.997	3488
2802.874	3503
2804.751	3495
2806.628	3404
2808.506	3585
2810.38	3417
2812.255	3423
2814.13	3496
2816.003	3485
2817.878	3456
2819.752	3450
2821.623	3625
2823.496	3491
2825.368	3417
2827.238	3482
2829.111	3570
2830.98	3573
2832.851	3592
2834.719	3523
2836.589	3483
2838.458	3433
2840.327	3580
2842.193	3593
2844.061	3493
2845.927	3504
2847.794	3544
2849.66	3498
2851.525	3552
2853.39	3508
2855.254	3568
2857.117	3515
2858.983	3565
2860.845	3582
2862.707	3589
2864.569	3722
2866.431	3675
2868.293	3696
2870.154	3702
2872.013	3749
2873.873	3804
2875.733	3758
2877.592	3812
2879.451	3828
2881.309	3950
2883.166	3797
2885.022	3899
2886.879	3863
2888.736	3918
2890.591	3859
2892.446	3943
2894.301	3969
2896.155	3989
2898.009	3946
2899.863	3949
2901.716	3896
2903.568	3895
2905.419	3926
2907.27	3957
2909.123	4021
2910.973	3960
2912.824	4047
2914.673	4007
2916.521	4070
2918.372	4018
2920.22	4217
2922.067	4104
2923.914	4129
2925.761	4266
2927.607	4230
2929.455	4325
2931.301	4290
2933.144	4372
2934.99	4297
2936.833	4450
2938.678	4533
2940.522	4430
2942.364	4498
2944.207	4636
2946.048	4482
2947.891	4658
2949.731	4624
2951.571	4568
2953.412	4711
2955.25	4544
2957.09	4459
2958.93	4571
2960.767	4434
2962.606	4431
2964.443	4370
2966.279	4301
2968.116	4321
2969.953	4279
2971.788	4248
2973.623	4246
2975.457	4155
2977.292	4168
2979.127	4139
2980.959	4067
2982.792	4042
2984.624	4078
2986.455	4032
2988.288	3937
2990.119	3890
2991.949	3981
2993.779	3887
2995.608	3904
2997.439	3891
2999.268	3814
3001.096	3756
3002.923	3624
3004.751	3715
3006.578	3683
3008.406	3732
3010.232	3642
3012.057	3613
3013.883	3655
3015.706	3621
3017.532	3616
3019.356	3429
3021.179	3520
3023.002	3537
3024.823	3447
3026.646	3514
3028.469	3509
3030.289	3429
3032.11	3383
3033.93	3524
3035.749	3419
3037.57	3445
3039.39	3331
3041.207	3344
3043.026	3392
3044.842	3434
3046.661	3407
3048.477	3466
3050.294	3379
3052.109	3425
3053.925	3357
3055.739	3317
3057.555	3441
3059.368	3404
3061.181	3355
3062.995	3396
3064.807	3399
3066.62	3364
3068.433	3375
3070.243	3375
3072.054	3225
3073.865	3369
3075.675	3346
3077.485	3351
3079.293	3312
3081.102	3279
3082.911	3307
3084.719	3318
3086.527	3256
3088.333	3316
3090.139	3342
3091.945	3368
3093.75	3292
3095.557	3231
3097.361	3290
3099.165	3287
3100.969	3289
3102.772	3248
3104.575	3285
3106.379	3239
3108.181	3265
3109.982	3295
3111.783	3252
3113.584	3281
3115.386	3221
3117.186	3221
3118.985	3255
3120.783	3247
3122.582	3278
3124.381	3231
3126.179	3196
3127.975	3301
3129.772	3267
3131.569	3179
3133.365	3201
3135.161	3208
3136.956	3200
3138.751	3198
3140.544	3225
3142.338	3237
3144.132	3271
3145.925	3233
3147.717	3174
3149.509	3222
3151.301	3234
3153.091	3166
3154.884	3206
3156.673	3221
3158.462	3202
3160.252	3179
3162.041	3170
3163.831	3282
3165.618	3170
3167.405	3279
3169.193	3208
3170.979	3216
3172.767	3242
3174.553	3193
3176.338	3212
3178.123	3232
3179.907	3185
3181.692	3202
3183.477	3162
3185.259	3157
3187.042	3093
3188.824	3156
3190.607	3177
3192.389	3054
3194.17	3267
3195.951	3199
3197.73	3144
3199.51	3133
3201.289	3151
3203.07	3226
3204.848	3166
3206.626	3193
3208.403	3214
3210.18	3225
3211.959	3152
3213.735	3232
3215.511	3214
3217.285	3203
3219.06	3223
3220.836	3150
3222.611	3251
3224.384	3218
3226.158	3210
3227.929	3134
3229.702	3143
3231.476	3230
3233.248	3113
3235.018	3173
3236.789	3177
3238.56	3282
3240.33	3248
3242.1	3138
3243.869	3190
3245.637	3095
3247.405	3215
3249.172	3150
3250.941	3237
3252.707	3151
3254.474	3113
3256.24	3260
3258.006	3152
3259.772	3238
3261.537	3256
3263.301	3145
3265.065	3249
3266.828	3280
3268.592	3223
3270.355	3266
3272.117	3152
3273.878	3161
3275.64	3239
3277.401	3235
3279.162	3167
3280.922	3150
3282.682	3126
3284.441	3206
3286.199	3160
3287.959	3230
3289.716	3179
3291.475	3219
3293.232	3188
3294.988	3109
3296.744	3170
3298.501	3257
3300.256	3207
3302.011	3218
3303.766	3243
3305.52	3170
3307.275	3214
3309.028	3139
3310.781	3178
3312.533	3132
3314.285	3178
3316.038	3210
3317.789	3279
3319.54	3283
3321.289	3170
3323.039	3192
3324.789	3134
3326.539	3183
3328.288	3145
3330.035	3280
3331.783	3204
3333.531	3217
3335.28	3156
3337.025	3235
3338.771	3196
3340.518	3176
3342.262	3128
3344.009	3179
3345.753	3183
3347.497	3123
3349.24	3125
3350.983	3191
3352.726	3210
3354.469	3184
3356.212	3137
3357.952	3145
3359.694	3146
3361.434	3151
3363.176	3129
3364.916	3145
3366.654	3147
3368.394	3078
3370.132	3124
3371.871	3091
3373.61	3123
3375.346	3098
3377.083	3128
3378.82	3070
3380.556	3139
3382.292	3109
3384.027	3037
3385.763	3135
3387.497	3073
3389.231	3091
3390.965	3118
3392.698	3113
3394.431	3055
3396.164	3121
3397.896	3043
3399.627	3116
3401.36	3062
3403.09	3086
3404.82	3052
3406.55	3124
3408.279	3014
3410.01	3016
3411.738	3026
3413.467	3123
3415.194	3091
3416.92	3085
3418.647	3019
3420.375	2987
3422.102	2994
3423.827	3028
3425.553	2978
3427.277	3038
3429.003	3040
3430.727	2959
3432.451	2999
3434.173	2986
3435.896	2964
3437.62	2906
3439.343	2991
3441.063	3047
3442.785	2983
3444.505	2986
3446.226	3016
3447.948	2931
3449.666	2972
3451.386	2947
3453.104	2929
3454.823	2982
3456.541	2935
3458.259	2952
3459.976	2954
3461.693	3036
3463.408	2936
3465.125	2917
3466.841	2913
3468.556	2945
3470.271	2967
3471.985	2922
3473.698	2944
3475.414	2920
3477.126	2876
3478.838	2927
3480.55	2888
3482.263	2858
3483.975	2903
3485.686	2946
3487.396	2906
3489.106	2959
3490.817	2882
3492.526	2935
3494.236	2868
3495.944	2893
3497.652	2837
3499.359	2899
3501.066	2795
3502.775	2900
3504.481	2898
3506.187	2886
3507.893	2845
3509.598	2775
3511.304	2805
3513.009	2812
3514.713	2850
3516.417	2830
3518.12	2831
3519.821	2881
3521.525	2822
3523.228	2818
3524.929	2779
3526.631	2817
3528.33	2768
3530.032	2829
3531.733	2773
3533.433	2781
3535.131	2786
3536.83	2771
3538.529	2844
3540.227	2805
3541.925	2781
3543.623	2746
3545.319	2775
3547.016	2699
3548.712	2727
3550.408	2696
3552.103	2753
3553.798	2693
3555.491	2794
3557.188	2714
3558.88	2677
3560.574	2747
3562.266	2776
3563.959	2725
3565.651	2764
3567.343	2722
3569.035	2759
3570.725	2699
3572.415	2695
3574.106	2728
3575.797	2757
3577.485	2683
3579.174	2689
3580.863	2698
3582.551	2722
3584.238	2705
3585.926	2716
3587.613	2688
3589.3	2680
3590.986	2663
3592.671	2660
3594.357	2717
3596.042	2667
3597.726	2623
3599.41	2684
3601.094	2724
3602.778	2670
3604.461	2664
3606.143	2661
3607.825	2565
3609.507	2624
3611.188	2629
3612.87	2593
3614.551	2648
3616.229	2584
3617.909	2596
3619.589	2630
3621.269	2657
3622.948	2593
3624.625	2540
3626.302	2547
3627.98	2559
3629.657	2607
3631.334	2589
3633.01	2605
3634.686	2502
3636.361	2614
3638.036	2629
3639.712	2536
3641.385	2588
3643.06	2550
3644.732	2539
3646.405	2594
3648.08	2552
3649.751	2573
3651.424	2442
3653.094	2561
3654.766	2550
3656.436	2550
3658.106	2586
3659.777	2481
3661.446	2542
3663.115	2512
3664.783	2514
3666.452	2535
3668.121	2533
3669.788	2489
3671.454	2457
3673.121	2559
3674.789	2431
3676.455	2483
3678.12	2498
3679.784	2531
3681.45	2494
3683.114	2449
3684.779	2502
3686.442	2479
3688.105	2433
3689.768	2490
3691.43	2513
3693.093	2483
3694.754	2437
3696.415	2446
3698.076	2479
3699.736	2525
3701.396	2511
3703.057	2495
3704.716	2525
3706.375	2395
3708.034	2511
3709.692	2417
3711.351	2461
3713.008	2514
3714.665	2435
3716.321	2432
3717.977	2464
3719.634	2419
3721.29	2486
3722.945	2426
3724.598	2433
3726.253	2488
3727.907	2447
3729.561	2454
3731.214	2472
3732.867	2411
3734.518	2352
3736.171	2443
3737.824	2485
3739.474	2424
3741.125	2401
3742.775	2352
3744.425	2436
3746.074	2400
3747.725	2398
3749.373	2445
3751.022	2411
3752.669	2412
3754.318	2374
3755.966	2400
3757.612	2421
3759.259	2445
3760.905	2427
3762.55	2378
3764.197	2391
3765.842	2362
3767.486	2341
3769.131	2367
3770.774	2410
3772.417	2467
3774.061	2395
3775.705	2423
3777.347	2352
3778.988	2319
3780.629	2344
3782.271	2355
3783.912	2330
3785.552	2405
3787.192	2303
3788.831	2383
3790.472	2313
3792.112	2376
3793.75	2322
3795.388	2360
3797.024	2312
3798.661	2289
3800.3	2395
3801.936	2355
3803.572	2352
3805.208	2368
3806.844	2287
3808.48	2347
3810.115	2319
3811.748	2330
3813.382	2254
3815.016	2281
3816.649	2281
3818.283	2361
3819.914	2286
3821.547	2289
3823.178	2322
3824.809	2286
3826.441	2286
3828.072	2269
3829.701	2237
3831.331	2257
3832.96	2312
3834.591	2268
3836.219	2282
3837.847	2274
3839.475	2280
3841.102	2282
3842.729	2271
3844.357	2307
3845.984	2302
3847.609	2297
3849.234	2276
3850.86	2260
3852.485	2248
3854.11	2292
3855.734	2306
3857.357	2288
3858.981	2257
3860.603	2256
3862.227	2248
3863.848	2290
3865.471	2297
3867.092	2222
3868.713	2293
3870.334	2282
3871.954	2261
3873.575	2286
3875.194	2276
3876.813	2225
3878.433	2242
3880.051	2278
3881.669	2234
3883.286	2187
3884.904	2276
3886.52	2260
3888.138	2205
3889.754	2234
3891.37	2180
3892.985	2243
3894.6	2266
3896.216	2294
3897.831	2223
3899.444	2263
3901.058	2169
3902.67	2278
3904.283	2227
3905.897	2206
3907.509	2217
3909.121	2254
3910.731	2234
3912.342	2229
3913.954	2213
3915.563	2233
3917.174	2187
3918.783	2193
3920.391	2231
3922.002	2160
3923.611	2200
3925.218	2163
3926.826	2247
3928.432	2188
3930.039	2251
3931.647	2216
3933.253	2245
3934.859	2163
3936.464	2153
3938.068	2277
3939.675	2211
3941.278	2143
3942.883	2213
3944.486	2149
3946.089	2205
3947.692	2175
3949.295	2199
3950.898	2157
3952.499	2167
3954.1	2240
3955.7	2217
3957.303	2196
3958.903	2130
3960.502	2121
3962.101	2103
3963.7	2142
3965.301	2220
3966.899	2188
3968.497	2119
3970.094	2096
3971.691	2085
3973.288	2183
3974.885	2131
3976.481	2151
3978.077	2112
3979.672	2174
3981.267	2143
3982.863	2177
3984.457	2116
3986.051	2130
3987.645	2100
3989.238	2160
3990.831	2203
3992.425	2040
3994.017	2143
3995.607	2113
3997.199	2130
3998.79	2141
4000.382	2092
4001.973	2092
4003.561	2141
4005.151	2075
4006.741	2046
4008.331	2066
4009.918	2073
4011.507	2087
4013.095	2034
4014.681	2116
4016.269	2078
4017.856	2042
4019.443	2092
4021.028	2070
4022.614	2032
4024.199	2087
4025.785	2051
4027.37	2069
4028.953	2085
4030.536	2076
4032.12	2079
4033.704	2048
4035.287	2060
4036.869	2086
4038.45	2065
4040.032	2063
4041.613	2059
4043.195	2054
4044.776	2045
4046.356	2003
4047.935	2055
4049.515	2019
4051.095	2107
4052.674	2078
4054.251	2040
4055.829	2012
4057.406	2080
4058.985	2027
4060.562	2029
4062.139	2089
4063.715	2042
4065.29	2053
4066.865	2032
4068.442	2023
4070.016	2007
4071.59	2020
4073.164	2023
4074.738	2078
4076.312	1998
4077.885	1960
4079.458	2006
4081.03	2014
4082.602	1991
4084.173	2013
4085.745	2046
4087.315	1995
4088.886	1989
4090.456	2033
4092.026	2016
4093.596	1974
4095.165	2026
4096.734	2067
4098.301	1990
4099.869	2054
4101.437	1968
4103.006	1979
4104.572	2006
4106.139	2046
4107.704	1999
4109.27	1929
4110.837	1996
4112.401	1979
4113.966	1966
4115.53	1991
4117.094	1946
4118.659	1990
4120.223	1963
4121.785	1973
4123.347	2037
4124.909	1970
4126.471	1940
4128.034	1996
4129.595	1987
4131.155	1987
4132.716	1909
4134.275	1959
4135.836	1937
4137.395	1930
4138.955	1925
4140.513	1899
4142.071	1930
4143.628	1978
4145.188	1857
4146.745	1965
4148.302	1897
4149.858	1953
4151.414	1888
4152.971	1844
4154.526	1911
4156.081	1915
4157.635	1859
4159.189	1973
4160.745	1942
4162.298	1848
4163.852	1949
4165.405	1846
4166.957	1883
4168.51	1898
4170.063	1932
4171.614	1863
4173.166	1872
4174.717	1896
4176.267	1914
4177.817	1870
4179.368	1909
4180.917	1867
4182.466	1914
4184.016	1842
4185.564	1891
4187.112	1869
4188.66	1877
4190.207	1888
4191.754	1884
4193.301	1942
4194.848	1876
4196.394	1841
4197.94	1867
4199.484	1891
4201.03	1836
4202.575	1914
4204.12	1850
4205.663	1845
4207.207	1860
4208.75	1923
4210.292	1862
4211.836	1874
4213.378	1831
4214.92	1877
4216.46	1878
4218.002	1840
4219.544	1843
4221.083	1836
4222.625	1860
4224.164	1872
4225.703	1805
4227.244	1840
4228.782	1797
4230.32	1827
4231.857	1819
4233.395	1808
4234.933	1814
4236.471	1855
4238.007	1852
4239.542	1824
4241.078	1871
4242.614	1770
4244.15	1801
4245.685	1802
4247.219	1764
4248.753	1821
4250.287	1823
4251.82	1854
4253.354	1781
4254.887	1823
4256.419	1794
4257.951	1750
4259.483	1764
4261.016	1783
4262.547	1802
4264.078	1780
4265.608	1866
4267.137	1860
4268.668	1819
4270.197	1784
4271.727	1794
4273.254	1808
4274.783	1848
4276.311	1825
4277.84	1787
4279.366	1769
4280.894	1760
4282.42	1760
4283.946	1734
4285.473	1812
4286.998	1737
4288.523	1769
4290.047	1748
4291.572	1760
4293.096	1760
4294.622	1807
4296.144	1791
4297.668	1757
4299.19	1755
4300.713	1781
4302.236	1740
4303.758	1788
4305.279	1807
4306.799	1791
4308.321	1802
4309.842	1768
4311.361	1769
4312.882	1726
4314.401	1786
