400.0961	2608
402.6185	2571
405.1424	2627
407.6635	2597
410.1838	2594
412.7035	2647
415.2225	2572
417.7388	2677
420.2585	2700
422.7754	2697
425.2917	2713
427.8072	2737
430.3221	2777
432.8363	2775
435.3498	2714
437.8626	2730
440.3727	2767
442.8841	2780
445.3969	2802
447.907	2758
450.4142	2729
452.9229	2761
455.4289	2726
457.9362	2801
460.4449	2815
462.9488	2756
465.454	2797
467.9566	2707
470.4604	2744
472.9637	2710
475.4662	2731
477.966	2791
480.4671	2692
482.9656	2780
485.4633	2729
487.9645	2793
490.4608	2763
492.9566	2780
495.4536	2869
497.948	2773
500.4437	2889
502.9387	2717
505.431	2761
507.9226	2862
510.4136	2809
512.9079	2814
515.3975	2805
517.8864	2871
520.3746	2831
522.8622	2795
525.3491	2819
527.8394	2767
530.3249	2809
532.8098	2828
535.2939	2914
537.7774	2909
540.2623	2835
542.7444	2799
545.2259	2750
547.7067	2898
550.1868	2820
552.6683	2845
555.147	2863
557.6231	2809
560.1005	2861
562.5773	2945
565.0534	2857
567.5308	2890
570.0056	2889
572.4776	2788
574.951	2869
577.4237	2942
579.8978	3053
582.3671	2997
584.8378	2962
587.3079	3008
589.7773	2960
592.244	2982
594.714	2969
597.1793	2941
599.6461	2990
602.1121	2967
604.5754	2949
607.0421	2860
609.5042	2931
611.9675	2980
614.4282	2885
616.8902	2971
619.3515	2974
621.8122	2923
624.2702	2867
626.7296	2930
629.1863	2839
631.6423	2892
634.1017	2859
636.5563	2960
639.0104	2894
641.4658	2887
643.9185	2857
646.3725	2883
648.8239	2907
651.2766	2925
653.7266	2874
656.176	2897
658.6247	2944
661.0748	2943
663.5242	2974
665.9709	2956
668.417	3000
670.8624	2955
673.3092	2957
675.7533	3014
678.1968	2945
680.6395	2979
683.0817	2983
685.5251	3031
687.9659	3009
690.4061	2991
692.8456	2971
695.2844	3000
697.7226	2960
700.1621	2981
702.599	3023
705.0332	3019
707.4688	3004
709.9036	3013
712.3399	3027
714.7735	2991
717.2044	3045
719.6367	3069
722.0683	3071
724.4993	3087
726.9296	3033
729.3593	3054
731.7883	3031
734.2147	3093
736.6423	3106
739.0714	3111
741.4958	3132
743.9216	3175
746.3447	3155
748.7691	3160
751.1929	3209
753.616	3172
756.0366	3179
758.4584	3273
760.8776	3198
763.2982	3143
765.718	3228
768.1373	3098
770.5539	3224
772.9698	3196
775.3871	3235
777.8038	3216
780.2178	3188
782.6332	3230
785.0459	3244
787.458	3240
789.8714	3166
792.2842	3187
794.6943	3230
797.1038	3214
799.5127	3208
801.9209	3275
804.3324	3209
806.7393	3249
809.1456	3199
811.5513	3193
813.9562	3235
816.3625	3264
818.7663	3204
821.1693	3289
823.5718	3232
825.9735	3262
828.3746	3155
830.7771	3216
833.177	3226
835.5762	3240
837.9747	3268
840.3727	3265
842.772	3328
845.1666	3282
847.5626	3315
849.958	3330
852.3527	3318
854.7488	3409
857.1403	3444
859.5331	3280
861.9253	3343
864.3168	3321
866.7057	3318
869.098	3373
871.4876	3345
873.8746	3333
876.263	3304
878.6487	3299
881.0378	3340
883.4243	3292
885.8081	3327
888.1933	3404
890.5759	3333
892.9598	3349
895.343	3344
897.7256	3324
900.1057	3365
902.4871	3271
904.8659	3316
907.246	3319
909.6254	3352
912.0023	3289
914.3786	3417
916.7562	3461
919.1331	3462
921.5074	3509
923.8831	3521
926.2562	3484
928.6287	3635
931.0005	3491
933.3757	3532
935.7462	3509
938.1162	3630
940.4855	3579
942.8542	3571
945.2242	3666
947.5916	3736
949.9584	3783
952.3266	4028
954.6921	4198
957.0571	4311
959.4233	4486
961.787	4433
964.15	4403
966.5125	4462
968.8742	4207
971.2354	3979
973.5959	3817
975.9559	3674
978.3151	3591
980.6738	3555
983.0338	3484
985.3912	3452
987.7461	3406
990.1022	3448
992.4578	3419
994.8127	3414
997.1689	3471
999.5207	3465
1001.874	3500
1004.226	3466
1006.576	3443
1008.929	3522
1011.28	3425
1013.628	3421
1015.977	3499
1018.324	3422
1020.674	3478
1023.019	3394
1025.366	3527
1027.713	3492
1030.056	3493
1032.399	3615
1034.746	3549
1037.087	3470
1039.431	3536
1041.771	3568
1044.113	3529
1046.454	3510
1048.793	3602
1051.133	3525
1053.471	3522
1055.807	3540
1058.146	3508
1060.483	3592
1062.818	3537
1065.153	3568
1067.489	3663
1069.822	3650
1072.156	3586
1074.488	3632
1076.82	3629
1079.15	3653
1081.48	3498
1083.814	3545
1086.143	3499
1088.471	3599
1090.799	3549
1093.126	3631
1095.452	3529
1097.78	3540
1100.105	3519
1102.43	3469
1104.754	3574
1107.077	3535
1109.4	3537
1111.722	3614
1114.044	3466
1116.365	3486
1118.685	3522
1121.005	3489
1123.324	3552
1125.643	3504
1127.961	3445
1130.278	3543
1132.595	3511
1134.911	3594
1137.226	3509
1139.541	3502
1141.854	3585
1144.167	3566
1146.482	3624
1148.793	3576
1151.105	3484
1153.414	3585
1155.725	3470
1158.033	3577
1160.344	3568
1162.651	3535
1164.959	3516
1167.265	3614
1169.572	3633
1171.878	3565
1174.184	3590
1176.488	3519
1178.79	3590
1181.094	3583
1183.396	3615
1185.699	3593
1188.001	3564
1190.301	3543
1192.6	3582
1194.9	3540
1197.2	3531
1199.497	3617
1201.794	3585
1204.09	3582
1206.387	3542
1208.684	3672
1210.978	3567
1213.272	3570
1215.565	3692
1217.858	3551
1220.15	3636
1222.443	3541
1224.734	3544
1227.024	3744
1229.313	3602
1231.602	3644
1233.892	3699
1236.18	3735
1238.467	3635
1240.754	3704
1243.04	3677
1245.325	3693
1247.612	3671
1249.896	3895
1252.178	3751
1254.461	3797
1256.743	3668
1259.027	3670
1261.308	3755
1263.587	3768
1265.867	3685
1268.146	3719
1270.425	3706
1272.703	3811
1274.981	3638
1277.256	3743
1279.532	3756
1281.808	3779
1284.083	3720
1286.358	3790
1288.63	3644
1290.904	3696
1293.175	3641
1295.449	3683
1297.719	3705
1299.99	3694
1302.259	3601
1304.529	3701
1306.798	3654
1309.065	3647
1311.333	3682
1313.599	3751
1315.866	3643
1318.131	3733
1320.396	3672
1322.66	3660
1324.925	3745
1327.187	3729
1329.448	3704
1331.711	3670
1333.974	3641
1336.234	3666
1338.493	3687
1340.752	3663
1343.01	3691
1345.269	3689
1347.526	3660
1349.784	3650
1352.04	3642
1354.295	3585
1356.552	3705
1358.806	3647
1361.059	3698
1363.312	3676
1365.564	3600
1367.818	3705
1370.069	3672
1372.318	3695
1374.568	3656
1376.817	3645
1379.066	3712
1381.316	3681
1383.564	3705
1385.809	3767
1388.056	3793
1390.301	3724
1392.549	3878
1394.793	3728
1397.036	3753
1399.279	3751
1401.522	3818
1403.763	3787
1406.007	3727
1408.248	3739
1410.487	3785
1412.727	3775
1414.965	3820
1417.205	3769
1419.442	3817
1421.68	3827
1423.915	3763
1426.152	3787
1428.388	3817
1430.623	3791
1432.857	3744
1435.091	3833
1437.323	3861
1439.556	3865
1441.789	3924
1444.019	3883
1446.25	3809
1448.48	3966
1450.708	3930
1452.938	3937
1455.167	3957
1457.394	3950
1459.62	3911
1461.846	3904
1464.073	3861
1466.299	3893
1468.523	3808
1470.746	3758
1472.969	3895
1475.191	3904
1477.415	3717
1479.636	3763
1481.858	3726
1484.078	3743
1486.298	3675
1488.518	3682
1490.736	3671
1492.954	3722
1495.169	3630
1497.386	3662
1499.602	3670
1501.819	3681
1504.034	3664
1506.248	3615
1508.462	3605
1510.675	3625
1512.888	3676
1515.1	3709
1517.311	3701
1519.522	3666
1521.732	3716
1523.942	3687
1526.151	3743
1528.36	3695
1530.566	3642
1532.773	3662
1534.98	3730
1537.187	3649
1539.392	3666
1541.596	3621
1543.801	3755
1546.005	3697
1548.208	3699
1550.411	3751
1552.612	3751
1554.814	3782
1557.013	3782
1559.212	3756
1561.414	3720
1563.612	3730
1565.811	3716
1568.007	3802
1570.203	3741
1572.403	3736
1574.598	3787
1576.792	3779
1578.988	3765
1581.181	3808
1583.376	3793
1585.568	3734
1587.761	3819
1589.952	3881
1592.143	3809
1594.333	3819
1596.524	3870
1598.715	3757
1600.903	3821
1603.091	3861
1605.278	3879
1607.466	3848
1609.652	3838
1611.838	3763
1614.023	3908
1616.207	3814
1618.391	3819
1620.576	3864
1622.759	3924
1624.941	3865
1627.123	3820
1629.304	3881
1631.484	3854
1633.664	3896
1635.844	3920
1638.022	3889
1640.201	3923
1642.38	3904
1644.556	3960
1646.732	3885
1648.908	3881
1651.084	3838
1653.257	3956
1655.433	3883
1657.607	3868
1659.779	3976
1661.951	3950
1664.122	3872
1666.295	3986
1668.467	3981
1670.635	3929
1672.805	4008
1674.973	3971
1677.142	3933
1679.31	4069
1681.478	3941
1683.644	3890
1685.81	3885
1687.975	3816
1690.142	3876
1692.305	3907
1694.468	3961
1696.632	3809
1698.794	3846
1700.957	3881
1703.119	3843
1705.279	3836
1707.439	3856
1709.598	3880
1711.758	3763
1713.917	3805
1716.075	3904
1718.231	3790
1720.388	3774
1722.543	3827
1724.702	3890
1726.856	3872
1729.01	3845
1731.164	3849
1733.317	3811
1735.471	3888
1737.623	3804
1739.774	3815
1741.925	3804
1744.075	3747
1746.225	3860
1748.376	3781
1750.524	3880
1752.672	3858
1754.82	3848
1756.965	3827
1759.113	3814
1761.259	3883
1763.405	3844
1765.549	3843
1767.694	3838
1769.836	3840
1771.981	3725
1774.123	3855
1776.264	3763
1778.405	3866
1780.546	3778
1782.687	3863
1784.827	3865
1786.966	3880
1789.103	3874
1791.242	3912
1793.381	3875
1795.517	3788
1797.653	3868
1799.788	3850
1801.923	3926
1804.057	3780
1806.193	3935
1808.326	3852
1810.457	3823
1812.59	3807
1814.721	3936
1816.855	3824
1818.984	3823
1821.113	3817
1823.244	3835
1825.372	3892
1827.499	3855
1829.63	3782
1831.756	3868
1833.882	3866
1836.007	3836
1838.132	3898
1840.26	3849
1842.384	3804
1844.507	3671
1846.63	3877
1848.752	3815
1850.875	3836
1852.996	3877
1855.118	3780
1857.238	3857
1859.358	3824
1861.477	3887
1863.597	3810
1865.715	3839
1867.832	3763
1869.948	3846
1872.064	3833
1874.181	3793
1876.297	3809
1878.411	3836
1880.526	3814
1882.639	3832
1884.752	3764
1886.865	3796
1888.977	3866
1891.089	3871
1893.2	3790
1895.308	3861
1897.42	3906
1899.53	3768
1901.639	3891
1903.745	3871
1905.853	3870
1907.962	3860
1910.067	3960
1912.174	3853
1914.278	3847
1916.383	3951
1918.486	3998
1920.592	3923
1922.694	3871
1924.797	3867
1926.898	3855
1929	3872
1931.102	3923
1933.203	3890
1935.301	3812
1937.401	3778
1939.499	3879
1941.598	3942
1943.697	3958
1945.793	3879
1947.888	3872
1949.985	3896
1952.08	3967
1954.176	3929
1956.269	3935
1958.364	3882
1960.457	3984
1962.549	3987
1964.642	3980
1966.733	3952
1968.823	3783
1970.913	3918
1973.005	3853
1975.093	3895
1977.184	3913
1979.271	3889
1981.359	3835
1983.446	3889
1985.532	3857
1987.619	3855
1989.705	3770
1991.789	3825
1993.874	3844
1995.956	3882
1998.041	3835
2000.123	3876
2002.206	3878
2004.287	3875
2006.368	3863
2008.449	3945
2010.529	3919
2012.609	3783
2014.688	3852
2016.766	3818
2018.843	3748
2020.922	3866
2022.999	3857
2025.074	3886
2027.15	3861
2029.225	3891
2031.299	3913
2033.375	3881
2035.447	3855
2037.52	3879
2039.592	3921
2041.664	3791
2043.736	3868
2045.807	3940
2047.876	3840
2049.947	3850
2052.015	3932
2054.086	3805
2056.153	3843
2058.221	3898
2060.288	3838
2062.353	3821
2064.42	3957
2066.486	3859
2068.55	3880
2070.614	3852
2072.678	3907
2074.741	3885
2076.805	3828
2078.866	3866
2080.929	3915
2082.99	3823
2085.049	3927
2087.109	3879
2089.17	3785
2091.228	3881
2093.286	3896
2095.344	3922
2097.4	3869
2099.46	3885
2101.516	3881
2103.572	3858
2105.626	3887
2107.679	3904
2109.735	3875
2111.788	3871
2113.841	3900
2115.894	3866
2117.945	3866
2119.997	3923
2122.049	3915
2124.1	3890
2126.148	3855
2128.197	3828
2130.246	3892
2132.296	3863
2134.342	3893
2136.39	3897
2138.437	3912
2140.483	3895
2142.527	3903
2144.574	3825
2146.619	3858
2148.661	3928
2150.705	3809
2152.747	3838
2154.792	3911
2156.832	3872
2158.874	3772
2160.915	3784
2162.954	3837
2164.995	3865
2167.034	3873
2169.072	3968
2171.111	3866
2173.148	3818
2175.186	3788
2177.223	3867
2179.258	3794
2181.294	3835
2183.328	3864
2185.362	3796
2187.398	3693
2189.431	3823
2191.463	3860
2193.495	3872
2195.528	3821
2197.56	3907
2199.59	3826
2201.62	3774
2203.649	3828
2205.678	3858
2207.708	3752
2209.737	3744
2211.764	3832
2213.791	3788
2215.817	3820
2217.843	3748
2219.87	3801
2221.895	3778
2223.919	3682
2225.942	3813
2227.966	3849
2229.988	3775
2232.012	3752
2234.032	3871
2236.054	3730
2238.074	3877
2240.095	3892
2242.116	3765
2244.135	3832
2246.153	3775
2248.171	3893
2250.188	3836
2252.208	3765
2254.223	3787
2256.239	3859
2258.255	3820
2260.269	3771
2262.283	3814
2264.3	3763
2266.312	3839
2268.325	3760
2270.336	3818
2272.349	3819
2274.362	3786
2276.372	3792
2278.383	3831
2280.392	3750
2282.402	3777
2284.409	3768
2286.418	3803
2288.427	3809
2290.433	3777
2292.441	3806
2294.446	3789
2296.453	3777
2298.459	3803
2300.463	3773
2302.466	3798
2304.471	3755
2306.475	3833
2308.477	3806
2310.478	3727
2312.481	3805
2314.481	3847
2316.481	3823
2318.482	3737
2320.482	3815
2322.48	3671
2324.48	3856
2326.478	3734
2328.476	3759
2330.473	3805
2332.469	3818
2334.465	3790
2336.46	3748
2338.454	3781
2340.45	3755
2342.444	3771
2344.437	3809
2346.43	3696
2348.421	3791
2350.414	3709
2352.405	3760
2354.396	3723
2356.386	3720
2358.376	3695
2360.366	3701
2362.355	3759
2364.343	3697
2366.331	3753
2368.317	3679
2370.304	3729
2372.292	3664
2374.278	3733
2376.262	3775
2378.247	3770
2380.23	3665
2382.216	3758
2384.199	3733
2386.181	3667
2388.163	3716
2390.144	3670
2392.127	3737
2394.107	3555
2396.087	3720
2398.066	3697
2400.046	3678
2402.023	3652
2404.004	3735
2405.981	3715
2407.957	3657
2409.934	3608
2411.91	3772
2413.886	3645
2415.862	3637
2417.836	3693
2419.809	3734
2421.784	3706
2423.756	3678
2425.73	3682
2427.701	3593
2429.672	3710
2431.644	3664
2433.615	3713
2435.586	3630
2437.555	3761
2439.523	3673
2441.491	3754
2443.459	3679
2445.428	3662
2447.395	3653
2449.361	3581
2451.327	3675
2453.292	3694
2455.257	3724
2457.223	3692
2459.187	3617
2461.15	3653
2463.113	3677
2465.076	3747
2467.039	3640
2468.999	3635
2470.96	3636
2472.921	3648
2474.881	3635
2476.841	3650
2478.8	3661
2480.759	3693
2482.717	3634
2484.675	3641
2486.63	3651
2488.589	3686
2490.545	3502
2492.5	3687
2494.455	3632
2496.408	3600
2498.364	3637
2500.318	3630
2502.27	3651
2504.223	3549
2506.174	3619
2508.126	3661
2510.078	3672
2512.03	3637
2513.979	3591
2515.927	3554
2517.877	3637
2519.826	3558
2521.775	3588
2523.722	3598
2525.668	3673
2527.616	3562
2529.561	3635
2531.508	3617
2533.452	3634
2535.398	3613
2537.342	3621
2539.284	3601
2541.229	3607
2543.173	3537
2545.114	3585
2547.055	3591
2548.996	3616
2550.938	3544
2552.878	3529
2554.817	3650
2556.756	3580
2558.695	3602
2560.633	3593
2562.572	3644
2564.509	3596
2566.445	3578
2568.382	3612
2570.317	3582
2572.254	3504
2574.189	3641
2576.123	3571
2578.057	3598
2579.99	3635
2581.923	3649
2583.855	3570
2585.788	3640
2587.719	3490
2589.65	3660
2591.579	3614
2593.511	3532
2595.44	3666
2597.37	3635
2599.297	3710
2601.225	3586
2603.153	3650
2605.08	3670
2607.007	3675
2608.932	3613
2610.858	3586
2612.782	3630
2614.709	3727
2616.632	3641
2618.556	3679
2620.478	3638
2622.401	3632
2624.324	3640
2626.247	3568
2628.167	3633
2630.088	3685
2632.008	3622
2633.928	3602
2635.848	3665
2637.766	3604
2639.684	3613
2641.603	3633
2643.519	3608
2645.437	3578
2647.353	3651
2649.27	3656
2651.184	3693
2653.099	3737
2655.014	3604
2656.928	3631
2658.842	3681
2660.755	3591
2662.667	3597
2664.579	3634
2666.491	3631
2668.402	3551
2670.312	3726
2672.222	3625
2674.132	3610
2676.042	3570
2677.951	3631
2679.859	3630
2681.766	3578
2683.674	3631
2685.582	3625
2687.488	3508
2689.392	3608
2691.298	3554
2693.202	3644
2695.107	3566
2697.012	3536
2698.914	3682
2700.817	3549
2702.72	3568
2704.622	3563
2706.524	3582
2708.425	3609
2710.326	3566
2712.225	3580
2714.125	3559
2716.024	3628
2717.923	3569
2719.822	3503
2721.719	3565
2723.616	3527
2725.512	3580
2727.41	3598
2729.305	3544
2731.201	3527
2733.095	3586
2734.99	3589
2736.884	3525
2738.778	3558
2740.67	3557
2742.562	3550
2744.455	3580
2746.346	3613
2748.238	3585
2750.129	3584
2752.018	3530
2753.907	3606
2755.797	3554
2757.687	3492
2759.575	3547
2761.462	3550
2763.349	3519
2765.237	3643
2767.124	3590
2769.009	3679
2770.894	3527
2772.779	3506
2774.663	3556
2776.547	3596
2778.431	3476
2780.314	3496
2782.197	3558
2784.078	3469
2785.96	3502
2787.842	3563
2789.723	3567
2791.603	3551
2793.483	3448
2795.362	3505
2797.241	3577
2799.121	3512
2800.997	3504
2802.874	3503
2804.751	3466
2806.628	3529
2808.506	3494
2810.38	3503
2812.255	3456
2814.13	3557
2816.003	3523
2817.878	3582
2819.752	3532
2821.623	3479
2823.496	3540
2825.368	3482
2827.238	3495
2829.111	3587
2830.98	3507
2832.851	3493
2834.719	3474
2836.589	3497
2838.458	3527
2840.327	3570
2842.193	3451
2844.061	3524
2845.927	3568
2847.794	3612
2849.66	3574
2851.525	3488
2853.39	3558
2855.254	3525
2857.117	3513
2858.983	3526
2860.845	3671
2862.707	3616
2864.569	3640
2866.431	3683
2868.293	3617
2870.154	3655
2872.013	3777
2873.873	3748
2875.733	3735
2877.592	3812
2879.451	3848
2881.309	3857
2883.166	3794
2885.022	3874
2886.879	3881
2888.736	3922
2890.591	3840
2892.446	3900
2894.301	3922
2896.155	3881
2898.009	3883
2899.863	3923
2901.716	3866
2903.568	3874
2905.419	3882
2907.27	3856
2909.123	3857
2910.973	4004
2912.824	3974
2914.673	3955
2916.521	3960
2918.372	4012
2920.22	4025
2922.067	4057
2923.914	4191
2925.761	4155
2927.607	4091
2929.455	4196
2931.301	4205
2933.144	4181
2934.99	4334
2936.833	4319
2938.678	4412
2940.522	4224
2942.364	4463
2944.207	4453
2946.048	4591
2947.891	4456
2949.731	4371
2951.571	4372
2953.412	4572
2955.25	4363
2957.09	4383
2958.93	4322
2960.767	4361
2962.606	4231
2964.443	4307
2966.279	4189
2968.116	4177
2969.953	4201
2971.788	4010
2973.623	4053
2975.457	3992
2977.292	3934
2979.127	3971
2980.959	4045
2982.792	3922
2984.624	3932
2986.455	3838
2988.288	4011
2990.119	3881
2991.949	3857
2993.779	3756
2995.608	3864
2997.439	3881
2999.268	3765
3001.096	3765
3002.923	3814
3004.751	3686
3006.578	3664
3008.406	3700
3010.232	3618
3012.057	3633
3013.883	3546
3015.706	3567
3017.532	3473
3019.356	3575
3021.179	3536
3023.002	3452
3024.823	3440
3026.646	3458
3028.469	3465
3030.289	3444
3032.11	3406
3033.93	3418
3035.749	3363
3037.57	3406
3039.39	3427
3041.207	3400
3043.026	3358
3044.842	3356
3046.661	3342
3048.477	3424
3050.294	3337
3052.109	3364
3053.925	3266
3055.739	3334
3057.555	3452
3059.368	3365
3061.181	3356
3062.995	3359
3064.807	3363
3066.62	3371
3068.433	3208
3070.243	3335
3072.054	3360
3073.865	3275
3075.675	3304
3077.485	3349
3079.293	3301
3081.102	3285
3082.911	3357
3084.719	3284
3086.527	3331
3088.333	3314
3090.139	3383
3091.945	3244
3093.75	3298
3095.557	3286
3097.361	3309
3099.165	3304
3100.969	3305
3102.772	3274
3104.575	3300
3106.379	3287
3108.181	3180
3109.982	3325
3111.783	3219
3113.584	3276
3115.386	3184
3117.186	3190
3118.985	3250
3120.783	3309
3122.582	3216
3124.381	3239
3126.179	3212
3127.975	3210
3129.772	3233
3131.569	3253
3133.365	3285
3135.161	3178
3136.956	3183
3138.751	3214
3140.544	3250
3142.338	3187
3144.132	3219
3145.925	3221
3147.717	3248
3149.509	3241
3151.301	3199
3153.091	3128
3154.884	3219
3156.673	3220
3158.462	3259
3160.252	3182
3162.041	3279
3163.831	3169
3165.618	3212
3167.405	3115
3169.193	3141
3170.979	3198
3172.767	3150
3174.553	3191
3176.338	3229
3178.123	3143
3179.907	3222
3181.692	3129
3183.477	3191
3185.259	3192
3187.042	3153
3188.824	3219
3190.607	3137
3192.389	3136
3194.17	3224
3195.951	3233
3197.73	3111
3199.51	3231
3201.289	3208
3203.07	3195
3204.848	3156
3206.626	3211
3208.403	3131
3210.18	3236
3211.959	3187
3213.735	3099
3215.511	3150
3217.285	3188
3219.06	3122
3220.836	3215
3222.611	3209
3224.384	3164
3226.158	3143
3227.929	3165
3229.702	3198
3231.476	3093
3233.248	3087
3235.018	3163
3236.789	3112
3238.56	3188
3240.33	3144
3242.1	3164
3243.869	3171
3245.637	3221
3247.405	3169
3249.172	3217
3250.941	3126
3252.707	3128
3254.474	3190
3256.24	3158
3258.006	3117
3259.772	3211
3261.537	3123
3263.301	3181
3265.065	3146
3266.828	3119
3268.592	3113
3270.355	3184
3272.117	3129
3273.878	3074
3275.64	3170
3277.401	3164
3279.162	3154
3280.922	3089
3282.682	3149
3284.441	3206
3286.199	3212
3287.959	3169
3289.716	3155
3291.475	3221
3293.232	3125
3294.988	3149
3296.744	3115
3298.501	3174
3300.256	3182
3302.011	3145
3303.766	3153
3305.52	3194
3307.275	3149
3309.028	3193
3310.781	3212
3312.533	3144
3314.285	3166
3316.038	3189
3317.789	3112
3319.54	3185
3321.289	3180
3323.039	3188
3324.789	3104
3326.539	3150
3328.288	3161
3330.035	3116
3331.783	3159
3333.531	3157
3335.28	3157
3337.025	3202
3338.771	3177
3340.518	3169
3342.262	3129
3344.009	3177
3345.753	3152
3347.497	3091
3349.24	3175
3350.983	3174
3352.726	3123
3354.469	3126
3356.212	3096
3357.952	3118
3359.694	3138
3361.434	3101
3363.176	3128
3364.916	3160
3366.654	3084
3368.394	3035
3370.132	3080
3371.871	2980
3373.61	3128
3375.346	3078
3377.083	3097
3378.82	3030
3380.556	3099
3382.292	3119
3384.027	2968
3385.763	3099
3387.497	3057
3389.231	3100
3390.965	3024
3392.698	2997
3394.431	3006
3396.164	3069
3397.896	2957
3399.627	3043
3401.36	3128
3403.09	3061
3404.82	3032
3406.55	3076
3408.279	3067
3410.01	3130
3411.738	2987
3413.467	3061
3415.194	3099
3416.92	2988
3418.647	3077
3420.375	2997
3422.102	3011
3423.827	2967
3425.553	3010
3427.277	3006
3429.003	2993
3430.727	3007
3432.451	2994
3434.173	2986
3435.896	3032
3437.62	3056
3439.343	2987
3441.063	2949
3442.785	3038
3444.505	2912
3446.226	2902
3447.948	3017
3449.666	2966
3451.386	2985
3453.104	2951
3454.823	2995
3456.541	2982
3458.259	2942
3459.976	2920
3461.693	2989
3463.408	2978
3465.125	2989
3466.841	2908
3468.556	2899
3470.271	3001
3471.985	2941
3473.698	2910
3475.414	2947
3477.126	2866
3478.838	2833
3480.55	2915
3482.263	2916
3483.975	2923
3485.686	2904
3487.396	2883
3489.106	2879
3490.817	2897
3492.526	2882
3494.236	2819
3495.944	2872
3497.652	2899
3499.359	2924
3501.066	2841
3502.775	2788
3504.481	2885
3506.187	2888
3507.893	2848
3509.598	2821
3511.304	2853
3513.009	2812
3514.713	2868
3516.417	2809
3518.12	2883
3519.821	2872
3521.525	2846
3523.228	2816
3524.929	2832
3526.631	2808
3528.33	2816
3530.032	2860
3531.733	2795
3533.433	2842
3535.131	2762
3536.83	2768
3538.529	2759
3540.227	2754
3541.925	2802
3543.623	2837
3545.319	2760
3547.016	2770
3548.712	2700
3550.408	2728
3552.103	2799
3553.798	2715
3555.491	2809
3557.188	2782
3558.88	2805
3560.574	2736
3562.266	2779
3563.959	2794
3565.651	2749
3567.343	2721
3569.035	2718
3570.725	2717
3572.415	2726
3574.106	2713
3575.797	2680
3577.485	2781
3579.174	2743
3580.863	2646
3582.551	2721
3584.238	2701
3585.926	2740
3587.613	2659
3589.3	2688
3590.986	2748
3592.671	2650
3594.357	2722
3596.042	2702
3597.726	2662
3599.41	2693
3601.094	2637
3602.778	2653
3604.461	2622
3606.143	2649
3607.825	2650
3609.507	2627
3611.188	2622
3612.87	2610
3614.551	2618
3616.229	2636
3617.909	2595
3619.589	2645
3621.269	2650
3622.948	2616
3624.625	2627
3626.302	2596
3627.98	2631
3629.657	2602
3631.334	2525
3633.01	2577
3634.686	2571
3636.361	2557
3638.036	2568
3639.712	2575
3641.385	2658
3643.06	2555
3644.732	2631
3646.405	2555
3648.08	2572
3649.751	2602
3651.424	2585
3653.094	2535
3654.766	2504
3656.436	2535
3658.106	2518
3659.777	2468
3661.446	2508
3663.115	2501
3664.783	2533
3666.452	2484
3668.121	2552
3669.788	2580
3671.454	2543
3673.121	2439
3674.789	2468
3676.455	2511
3678.12	2563
3679.784	2494
3681.45	2545
3683.114	2519
3684.779	2466
3686.442	2479
3688.105	2500
3689.768	2460
3691.43	2488
3693.093	2480
3694.754	2494
3696.415	2426
3698.076	2417
3699.736	2531
3701.396	2492
3703.057	2465
3704.716	2493
3706.375	2439
3708.034	2588
3709.692	2396
3711.351	2486
3713.008	2481
3714.665	2507
3716.321	2472
3717.977	2490
3719.634	2445
3721.29	2475
3722.945	2449
3724.598	2447
3726.253	2427
3727.907	2403
3729.561	2434
3731.214	2506
3732.867	2410
3734.518	2412
3736.171	2396
3737.824	2420
3739.474	2477
3741.125	2420
3742.775	2401
3744.425	2501
3746.074	2466
3747.725	2458
3749.373	2469
3751.022	2467
3752.669	2423
3754.318	2427
3755.966	2486
3757.612	2452
3759.259	2406
3760.905	2427
3762.55	2475
3764.197	2405
3765.842	2436
3767.486	2445
3769.131	2410
3770.774	2399
3772.417	2386
3774.061	2365
3775.705	2405
3777.347	2391
3778.988	2368
3780.629	2393
3782.271	2451
3783.912	2412
3785.552	2340
3787.192	2349
3788.831	2338
3790.472	2365
3792.112	2389
3793.75	2360
3795.388	2374
3797.024	2345
3798.661	2343
3800.3	2355
3801.936	2373
3803.572	2342
3805.208	2359
3806.844	2362
3808.48	2319
3810.115	2279
3811.748	2404
3813.382	2357
3815.016	2390
3816.649	2331
3818.283	2356
3819.914	2322
3821.547	2326
3823.178	2271
3824.809	2325
3826.441	2315
3828.072	2320
3829.701	2376
3831.331	2293
3832.96	2315
3834.591	2373
3836.219	2333
3837.847	2269
3839.475	2291
3841.102	2408
3842.729	2305
3844.357	2272
3845.984	2281
3847.609	2301
3849.234	2327
3850.86	2276
3852.485	2336
3854.11	2316
3855.734	2341
3857.357	2351
3858.981	2300
3860.603	2309
3862.227	2332
3863.848	2280
3865.471	2288
3867.092	2304
3868.713	2252
3870.334	2238
3871.954	2227
3873.575	2264
3875.194	2274
3876.813	2247
3878.433	2287
3880.051	2288
3881.669	2283
3883.286	2272
3884.904	2301
3886.52	2285
3888.138	2305
3889.754	2289
3891.37	2223
3892.985	2251
3894.6	2207
3896.216	2226
3897.831	2215
3899.444	2255
3901.058	2258
3902.67	2224
3904.283	2231
3905.897	2279
3907.509	2240
3909.121	2238
3910.731	2261
3912.342	2228
3913.954	2265
3915.563	2231
3917.174	2177
3918.783	2269
3920.391	2237
3922.002	2228
3923.611	2190
3925.218	2248
3926.826	2229
3928.432	2213
3930.039	2267
3931.647	2216
3933.253	2251
3934.859	2235
3936.464	2210
3938.068	2160
3939.675	2215
3941.278	2257
3942.883	2213
3944.486	2155
3946.089	2217
3947.692	2203
3949.295	2284
3950.898	2187
3952.499	2181
3954.1	2193
3955.7	2150
3957.303	2161
3958.903	2224
3960.502	2230
3962.101	2171
3963.7	2199
3965.301	2196
3966.899	2174
3968.497	2251
3970.094	2240
3971.691	2142
3973.288	2171
3974.885	2136
3976.481	2221
3978.077	2171
3979.672	2177
3981.267	2157
3982.863	2196
3984.457	2215
3986.051	2154
3987.645	2252
3989.238	2131
3990.831	2145
3992.425	2074
3994.017	2153
3995.607	2065
3997.199	2132
3998.79	2160
4000.382	2092
4001.973	2097
4003.561	2157
4005.151	2127
4006.741	2132
4008.331	2102
4009.918	2102
4011.507	2155
4013.095	2119
4014.681	2132
4016.269	2137
4017.856	2093
4019.443	2078
4021.028	2080
4022.614	2116
4024.199	2172
4025.785	2095
4027.37	2063
4028.953	2058
4030.536	2087
4032.12	2079
4033.704	2104
4035.287	2098
4036.869	2091
4038.45	2041
4040.032	2053
4041.613	2116
4043.195	2042
4044.776	2100
4046.356	2053
4047.935	2063
4049.515	2040
4051.095	2064
4052.674	2071
4054.251	2109
4055.829	2045
4057.406	2104
4058.985	1997
4060.562	2100
4062.139	2062
4063.715	2068
4065.29	2047
4066.865	2029
4068.442	2132
4070.016	2013
4071.59	2044
4073.164	2043
4074.738	2038
4076.312	2077
4077.885	2058
4079.458	2067
4081.03	2004
4082.602	2045
4084.173	2025
4085.745	2047
4087.315	1991
4088.886	2059
4090.456	2025
4092.026	2051
4093.596	1985
4095.165	1993
4096.734	2019
4098.301	2054
4099.869	2049
4101.437	2001
4103.006	2091
4104.572	1974
4106.139	2050
4107.704	2015
4109.27	1986
4110.837	1989
4112.401	2041
4113.966	2005
4115.53	1953
4117.094	1939
4118.659	1974
4120.223	1956
4121.785	1976
4123.347	1969
4124.909	1971
4126.471	1959
4128.034	1983
4129.595	2033
4131.155	2011
4132.716	1975
4134.275	1938
4135.836	1969
4137.395	1982
4138.955	1997
4140.513	1938
4142.071	1975
4143.628	1976
4145.188	1933
4146.745	1953
4148.302	1905
4149.858	1955
4151.414	1935
4152.971	1921
4154.526	1955
4156.081	1943
4157.635	1942
4159.189	1949
4160.745	1912
4162.298	1949
4163.852	1962
4165.405	1962
4166.957	1931
4168.51	1919
4170.063	1944
4171.614	1878
4173.166	1974
4174.717	1906
4176.267	1887
4177.817	1921
4179.368	1872
4180.917	1873
4182.466	1913
4184.016	1865
4185.564	1916
4187.112	1928
4188.66	1870
4190.207	1893
4191.754	1892
4193.301	1863
4194.848	1948
4196.394	1849
4197.94	1935
4199.484	1865
4201.03	1917
4202.575	1867
4204.12	1840
4205.663	1895
4207.207	1860
4208.75	1914
4210.292	1882
4211.836	1827
4213.378	1938
4214.92	1859
4216.46	1877
4218.002	1877
4219.544	1862
4221.083	1864
4222.625	1868
4224.164	1907
4225.703	1852
4227.244	1931
4228.782	1850
4230.32	1873
4231.857	1848
4233.395	1848
4234.933	1871
4236.471	1854
4238.007	1857
4239.542	1856
4241.078	1822
4242.614	1845
4244.15	1852
4245.685	1831
4247.219	1866
4248.753	1863
4250.287	1854
4251.82	1846
4253.354	1780
4254.887	1849
4256.419	1828
4257.951	1829
4259.483	1842
4261.016	1828
4262.547	1806
4264.078	1790
4265.608	1840
4267.137	1791
4268.668	1861
4270.197	1815
4271.727	1835
4273.254	1828
4274.783	1787
4276.311	1851
4277.84	1782
4279.366	1819
4280.894	1826
4282.42	1789
4283.946	1812
4285.473	1814
4286.998	1804
4288.523	1763
4290.047	1799
4291.572	1810
4293.096	1824
4294.622	1831
4296.144	1792
4297.668	1829
4299.19	1813
4300.713	1782
4302.236	1814
4303.758	1806
4305.279	1772
4306.799	1737
4308.321	1748
4309.842	1782
4311.361	1824
4312.882	1811
4314.401	1762
