400.0961	2947
402.6185	2897
405.1424	3013
407.6635	2932
410.1838	2933
412.7035	2908
415.2225	2988
417.7388	3047
420.2585	3032
422.7754	3066
425.2917	3131
427.8072	3119
430.3221	3177
432.8363	3090
435.3498	3146
437.8626	3205
440.3727	3131
442.8841	3218
445.3969	3128
447.907	3074
450.4142	3086
452.9229	3170
455.4289	3129
457.9362	3156
460.4449	3127
462.9488	3121
465.454	3118
467.9566	3076
470.4604	3090
472.9637	3129
475.4662	3176
477.966	3077
480.4671	3107
482.9656	3141
485.4633	3120
487.9645	3251
490.4608	3084
492.9566	3075
495.4536	3138
497.948	3124
500.4437	3236
502.9387	3228
505.431	3131
507.9226	3175
510.4136	3189
512.9079	3233
515.3975	3182
517.8864	3152
520.3746	3177
522.8622	3167
525.3491	3207
527.8394	3196
530.3249	3229
532.8098	3213
535.2939	3235
537.7774	3209
540.2623	3165
542.7444	3232
545.2259	3163
547.7067	3260
550.1868	3238
552.6683	3245
555.147	3224
557.6231	3283
560.1005	3292
562.5773	3228
565.0534	3214
567.5308	3278
570.0056	3295
572.4776	3233
574.951	3221
577.4237	3300
579.8978	3389
582.3671	3382
584.8378	3442
587.3079	3393
589.7773	3431
592.244	3420
594.714	3365
597.1793	3361
599.6461	3352
602.1121	3337
604.5754	3372
607.0421	3299
609.5042	3343
611.9675	3372
614.4282	3367
616.8902	3391
619.3515	3373
621.8122	3375
624.2702	3371
626.7296	3311
629.1863	3317
631.6423	3270
634.1017	3321
636.5563	3337
639.0104	3344
641.4658	3314
643.9185	3347
646.3725	3315
648.8239	3242
651.2766	3292
653.7266	3316
656.176	3324
658.6247	3253
661.0748	3301
663.5242	3302
665.9709	3307
668.417	3300
670.8624	3425
673.3092	3414
675.7533	3309
678.1968	3399
680.6395	3407
683.0817	3402
685.5251	3425
687.9659	3396
690.4061	3417
692.8456	3401
695.2844	3436
697.7226	3450
700.1621	3435
702.599	3420
705.0332	3447
707.4688	3489
709.9036	3527
712.3399	3489
714.7735	3465
717.2044	3426
719.6367	3474
722.0683	3464
724.4993	3443
726.9296	3457
729.3593	3549
731.7883	3529
734.2147	3490
736.6423	3490
739.0714	3585
741.4958	3528
743.9216	3593
746.3447	3569
748.7691	3555
751.1929	3621
753.616	3543
756.0366	3580
758.4584	3605
760.8776	3620
763.2982	3647
765.718	3638
768.1373	3598
770.5539	3569
772.9698	3678
775.3871	3681
777.8038	3635
780.2178	3610
782.6332	3592
785.0459	3681
787.458	3661
789.8714	3589
792.2842	3645
794.6943	3672
797.1038	3614
799.5127	3663
801.9209	3609
804.3324	3665
806.7393	3673
809.1456	3664
811.5513	3687
813.9562	3701
816.3625	3679
818.7663	3680
821.1693	3688
823.5718	3693
825.9735	3665
828.3746	3614
830.7771	3677
833.177	3661
835.5762	3697
837.9747	3737
840.3727	3625
842.772	3784
845.1666	3756
847.5626	3708
849.958	3817
852.3527	3802
854.7488	3814
857.1403	3809
859.5331	3875
861.9253	3746
864.3168	3732
866.7057	3800
869.098	3869
871.4876	3726
873.8746	3723
876.263	3812
878.6487	3759
881.0378	3781
883.4243	3740
885.8081	3848
888.1933	3812
890.5759	3765
892.9598	3803
895.343	3750
897.7256	3764
900.1057	3758
902.4871	3824
904.8659	3740
907.246	3840
909.6254	3796
912.0023	3808
914.3786	3907
916.7562	4009
919.1331	4012
921.5074	3961
923.8831	3985
926.2562	3986
928.6287	4058
931.0005	4028
933.3757	3967
935.7462	3975
938.1162	4067
940.4855	4077
942.8542	4143
945.2242	4140
947.5916	4150
949.9584	4304
952.3266	4507
954.6921	4682
957.0571	4879
959.4233	5043
961.787	5017
964.15	5002
966.5125	4800
968.8742	4655
971.2354	4442
973.5959	4306
975.9559	4183
978.3151	4152
980.6738	3969
983.0338	4018
985.3912	3929
987.7461	3896
990.1022	3913
992.4578	3881
994.8127	3939
997.1689	3987
999.5207	3933
1001.874	4001
1004.226	3974
1006.576	3939
1008.929	3938
1011.28	3888
1013.628	3924
1015.977	3932
1018.324	3983
1020.674	3940
1023.019	3921
1025.366	4007
1027.713	3939
1030.056	3899
1032.399	3968
1034.746	4060
1037.087	4071
1039.431	3971
1041.771	4033
1044.113	3998
1046.454	3951
1048.793	4061
1051.133	4061
1053.471	4049
1055.807	4089
1058.146	4029
1060.483	3965
1062.818	4049
1065.153	4147
1067.489	4040
1069.822	4105
1072.156	4071
1074.488	4052
1076.82	4104
1079.15	4087
1081.48	4059
1083.814	4050
1086.143	4057
1088.471	4055
1090.799	4057
1093.126	4001
1095.452	4120
1097.78	4135
1100.105	3926
1102.43	4074
1104.754	4078
1107.077	4048
1109.4	4022
1111.722	4020
1114.044	4068
1116.365	4025
1118.685	4028
1121.005	3992
1123.324	4008
1125.643	4046
1127.961	4033
1130.278	4020
1132.595	4072
1134.911	4149
1137.226	4117
1139.541	4026
1141.854	4021
1144.167	4042
1146.482	3968
1148.793	3939
1151.105	4031
1153.414	4075
1155.725	4049
1158.033	4022
1160.344	4069
1162.651	3959
1164.959	4092
1167.265	4013
1169.572	4046
1171.878	4080
1174.184	4087
1176.488	4142
1178.79	3997
1181.094	4133
1183.396	4043
1185.699	4078
1188.001	4045
1190.301	4055
1192.6	4055
1194.9	4089
1197.2	3970
1199.497	4101
1201.794	4083
1204.09	4050
1206.387	4019
1208.684	4080
1210.978	4055
1213.272	4087
1215.565	3989
1217.858	4046
1220.15	4081
1222.443	4126
1224.734	4101
1227.024	4145
1229.313	4030
1231.602	4124
1233.892	4208
1236.18	4132
1238.467	4146
1240.754	4225
1243.04	4147
1245.325	4199
1247.612	4307
1249.896	4238
1252.178	4186
1254.461	4290
1256.743	4184
1259.027	4276
1261.308	4246
1263.587	4272
1265.867	4325
1268.146	4218
1270.425	4277
1272.703	4218
1274.981	4254
1277.256	4256
1279.532	4276
1281.808	4132
1284.083	4136
1286.358	4221
1288.63	4183
1290.904	4052
1293.175	4185
1295.449	4173
1297.719	4196
1299.99	4121
1302.259	4127
1304.529	4144
1306.798	4147
1309.065	4209
1311.333	4213
1313.599	4169
1315.866	4170
1318.131	4142
1320.396	4148
1322.66	4195
1324.925	4155
1327.187	4183
1329.448	4130
1331.711	4191
1333.974	4224
1336.234	4246
1338.493	4193
1340.752	4144
1343.01	4124
1345.269	4211
1347.526	4128
1349.784	4260
1352.04	4121
1354.295	4064
1356.552	4218
1358.806	4131
1361.059	4191
1363.312	4152
1365.564	4119
1367.818	4148
1370.069	4237
1372.318	4201
1374.568	4204
1376.817	4170
1379.066	4215
1381.316	4218
1383.564	4288
1385.809	4269
1388.056	4289
1390.301	4229
1392.549	4330
1394.793	4351
1397.036	4338
1399.279	4249
1401.522	4447
1403.763	4313
1406.007	4454
1408.248	4427
1410.487	4420
1412.727	4358
1414.965	4308
1417.205	4411
1419.442	4280
1421.68	4266
1423.915	4406
1426.152	4420
1428.388	4341
1430.623	4346
1432.857	4351
1435.091	4357
1437.323	4316
1439.556	4496
1441.789	4372
1444.019	4426
1446.25	4413
1448.48	4401
1450.708	4382
1452.938	4436
1455.167	4486
1457.394	4476
1459.62	4456
1461.846	4442
1464.073	4444
1466.299	4403
1468.523	4313
1470.746	4403
1472.969	4403
1475.191	4300
1477.415	4321
1479.636	4309
1481.858	4326
1484.078	4271
1486.298	4265
1488.518	4197
1490.736	4274
1492.954	4244
1495.169	4169
1497.386	4164
1499.602	4241
1501.819	4258
1504.034	4235
1506.248	4222
1508.462	4181
1510.675	4104
1512.888	4264
1515.1	4209
1517.311	4212
1519.522	4138
1521.732	4146
1523.942	4279
1526.151	4170
1528.36	4124
1530.566	4132
1532.773	4203
1534.98	4119
1537.187	4246
1539.392	4188
1541.596	4293
1543.801	4237
1546.005	4183
1548.208	4230
1550.411	4306
1552.612	4277
1554.814	4194
1557.013	4337
1559.212	4196
1561.414	4173
1563.612	4384
1565.811	4312
1568.007	4254
1570.203	4297
1572.403	4303
1574.598	4361
1576.792	4306
1578.988	4351
1581.181	4362
1583.376	4396
1585.568	4442
1587.761	4283
1589.952	4361
1592.143	4325
1594.333	4406
1596.524	4271
1598.715	4495
1600.903	4292
1603.091	4358
1605.278	4331
1607.466	4380
1609.652	4331
1611.838	4385
1614.023	4349
1616.207	4396
1618.391	4410
1620.576	4369
1622.759	4365
1624.941	4389
1627.123	4384
1629.304	4482
1631.484	4298
1633.664	4397
1635.844	4454
1638.022	4388
1640.201	4394
1642.38	4389
1644.556	4368
1646.732	4380
1648.908	4418
1651.084	4583
1653.257	4427
1655.433	4445
1657.607	4401
1659.779	4448
1661.951	4366
1664.122	4458
1666.295	4479
1668.467	4510
1670.635	4415
1672.805	4500
1674.973	4583
1677.142	4605
1679.31	4445
1681.478	4498
1683.644	4417
1685.81	4395
1687.975	4522
1690.142	4492
1692.305	4488
1694.468	4511
1696.632	4354
1698.794	4414
1700.957	4397
1703.119	4399
1705.279	4399
1707.439	4411
1709.598	4370
1711.758	4326
1713.917	4339
1716.075	4402
1718.231	4315
1720.388	4338
1722.543	4344
1724.702	4389
1726.856	4237
1729.01	4360
1731.164	4319
1733.317	4223
1735.471	4313
1737.623	4303
1739.774	4300
1741.925	4323
1744.075	4248
1746.225	4378
1748.376	4402
1750.524	4359
1752.672	4379
1754.82	4329
1756.965	4295
1759.113	4377
1761.259	4423
1763.405	4402
1765.549	4302
1767.694	4373
1769.836	4376
1771.981	4318
1774.123	4344
1776.264	4347
1778.405	4428
1780.546	4434
1782.687	4320
1784.827	4332
1786.966	4373
1789.103	4424
1791.242	4455
1793.381	4361
1795.517	4356
1797.653	4385
1799.788	4380
1801.923	4323
1804.057	4524
1806.193	4319
1808.326	4414
1810.457	4451
1812.59	4411
1814.721	4518
1816.855	4376
1818.984	4413
1821.113	4310
1823.244	4379
1825.372	4439
1827.499	4417
1829.63	4320
1831.756	4325
1833.882	4413
1836.007	4328
1838.132	4360
1840.26	4468
1842.384	4343
1844.507	4398
1846.63	4461
1848.752	4361
1850.875	4299
1852.996	4379
1855.118	4418
1857.238	4293
1859.358	4400
1861.477	4388
1863.597	4245
1865.715	4408
1867.832	4336
1869.948	4372
1872.064	4373
1874.181	4354
1876.297	4409
1878.411	4393
1880.526	4310
1882.639	4348
1884.752	4392
1886.865	4392
1888.977	4332
1891.089	4409
1893.2	4393
1895.308	4301
1897.42	4370
1899.53	4385
1901.639	4378
1903.745	4299
1905.853	4434
1907.962	4441
1910.067	4371
1912.174	4496
1914.278	4423
1916.383	4387
1918.486	4477
1920.592	4440
1922.694	4442
1924.797	4453
1926.898	4374
1929	4351
1931.102	4429
1933.203	4392
1935.301	4423
1937.401	4392
1939.499	4489
1941.598	4359
1943.697	4493
1945.793	4369
1947.888	4424
1949.985	4494
1952.08	4330
1954.176	4503
1956.269	4552
1958.364	4418
1960.457	4472
1962.549	4436
1964.642	4411
1966.733	4402
1968.823	4416
1970.913	4348
1973.005	4456
1975.093	4470
1977.184	4479
1979.271	4449
1981.359	4344
1983.446	4334
1985.532	4365
1987.619	4356
1989.705	4368
1991.789	4462
1993.874	4487
1995.956	4377
1998.041	4415
2000.123	4322
2002.206	4368
2004.287	4439
2006.368	4226
2008.449	4325
2010.529	4397
2012.609	4445
2014.688	4300
2016.766	4513
2018.843	4374
2020.922	4331
2022.999	4384
2025.074	4406
2027.15	4402
2029.225	4365
2031.299	4417
2033.375	4422
2035.447	4483
2037.52	4343
2039.592	4374
2041.664	4369
2043.736	4263
2045.807	4356
2047.876	4406
2049.947	4401
2052.015	4353
2054.086	4428
2056.153	4408
2058.221	4340
2060.288	4388
2062.353	4393
2064.42	4418
2066.486	4316
2068.55	4364
2070.614	4373
2072.678	4327
2074.741	4374
2076.805	4425
2078.866	4476
2080.929	4468
2082.99	4373
2085.049	4388
2087.109	4342
2089.17	4462
2091.228	4545
2093.286	4443
2095.344	4437
2097.4	4402
2099.46	4376
2101.516	4423
2103.572	4391
2105.626	4367
2107.679	4421
2109.735	4467
2111.788	4393
2113.841	4462
2115.894	4305
2117.945	4391
2119.997	4364
2122.049	4452
2124.1	4380
2126.148	4310
2128.197	4329
2130.246	4433
2132.296	4399
2134.342	4446
2136.39	4380
2138.437	4344
2140.483	4358
2142.527	4407
2144.574	4404
2146.619	4449
2148.661	4350
2150.705	4346
2152.747	4316
2154.792	4377
2156.832	4299
2158.874	4343
2160.915	4441
2162.954	4277
2164.995	4368
2167.034	4362
2169.072	4399
2171.111	4332
2173.148	4408
2175.186	4393
2177.223	4379
2179.258	4316
2181.294	4443
2183.328	4282
2185.362	4356
2187.398	4319
2189.431	4365
2191.463	4342
2193.495	4330
2195.528	4338
2197.56	4346
2199.59	4382
2201.62	4309
2203.649	4285
2205.678	4264
2207.708	4283
2209.737	4371
2211.764	4329
2213.791	4356
2215.817	4314
2217.843	4285
2219.87	4332
2221.895	4320
2223.919	4219
2225.942	4304
2227.966	4286
2229.988	4220
2232.012	4346
2234.032	4343
2236.054	4356
2238.074	4293
2240.095	4345
2242.116	4164
2244.135	4351
2246.153	4316
2248.171	4303
2250.188	4282
2252.208	4256
2254.223	4303
2256.239	4221
2258.255	4325
2260.269	4286
2262.283	4297
2264.3	4312
2266.312	4244
2268.325	4270
2270.336	4306
2272.349	4336
2274.362	4310
2276.372	4318
2278.383	4268
2280.392	4302
2282.402	4345
2284.409	4320
2286.418	4271
2288.427	4255
2290.433	4300
2292.441	4362
2294.446	4240
2296.453	4211
2298.459	4311
2300.463	4289
2302.466	4209
2304.471	4270
2306.475	4379
2308.477	4258
2310.478	4285
2312.481	4330
2314.481	4281
2316.481	4331
2318.482	4289
2320.482	4319
2322.48	4274
2324.48	4281
2326.478	4215
2328.476	4263
2330.473	4367
2332.469	4169
2334.465	4190
2336.46	4134
2338.454	4240
2340.45	4207
2342.444	4195
2344.437	4202
2346.43	4203
2348.421	4284
2350.414	4218
2352.405	4183
2354.396	4231
2356.386	4232
2358.376	4194
2360.366	4282
2362.355	4261
2364.343	4245
2366.331	4178
2368.317	4224
2370.304	4211
2372.292	4168
2374.278	4207
2376.262	4295
2378.247	4163
2380.23	4218
2382.216	4217
2384.199	4235
2386.181	4136
2388.163	4188
2390.144	4155
2392.127	4131
2394.107	4157
2396.087	4217
2398.066	4211
2400.046	4152
2402.023	4152
2404.004	4234
2405.981	4151
2407.957	4202
2409.934	4108
2411.91	4135
2413.886	4124
2415.862	4181
2417.836	4124
2419.809	4129
2421.784	4148
2423.756	4135
2425.73	4147
2427.701	4111
2429.672	4149
2431.644	4213
2433.615	4240
2435.586	4143
2437.555	4191
2439.523	4163
2441.491	4094
2443.459	4131
2445.428	4206
2447.395	4200
2449.361	4172
2451.327	4099
2453.292	4158
2455.257	4162
2457.223	4131
2459.187	4165
2461.15	4141
2463.113	4154
2465.076	4160
2467.039	4135
2468.999	4179
2470.96	4070
2472.921	4084
2474.881	4172
2476.841	4103
2478.8	4136
2480.759	4015
2482.717	4143
2484.675	4111
2486.63	4036
2488.589	4112
2490.545	4103
2492.5	4057
2494.455	4141
2496.408	4113
2498.364	4091
2500.318	4104
2502.27	4082
2504.223	4087
2506.174	4088
2508.126	4086
2510.078	4138
2512.03	4101
2513.979	4064
2515.927	4125
2517.877	4139
2519.826	4045
2521.775	4069
2523.722	4074
2525.668	4074
2527.616	4143
2529.561	4110
2531.508	4112
2533.452	4107
2535.398	4104
2537.342	3989
2539.284	3991
2541.229	4130
2543.173	3979
2545.114	4008
2547.055	4131
2548.996	4086
2550.938	4096
2552.878	4072
2554.817	4136
2556.756	4089
2558.695	4038
2560.633	4124
2562.572	4080
2564.509	4110
2566.445	3989
2568.382	4117
2570.317	4005
2572.254	4076
2574.189	4076
2576.123	4052
2578.057	4113
2579.99	4120
2581.923	4115
2583.855	4051
2585.788	4076
2587.719	4104
2589.65	4082
2591.579	3974
2593.511	4165
2595.44	4050
2597.37	4064
2599.297	4058
2601.225	3993
2603.153	4060
2605.08	4137
2607.007	4155
2608.932	4084
2610.858	4065
2612.782	4110
2614.709	4064
2616.632	4083
2618.556	4062
2620.478	4051
2622.401	4112
2624.324	4140
2626.247	4056
2628.167	4050
2630.088	4019
2632.008	4052
2633.928	4138
2635.848	4051
2637.766	4140
2639.684	4087
2641.603	4134
2643.519	4079
2645.437	4112
2647.353	4166
2649.27	4119
2651.184	4057
2653.099	4060
2655.014	4023
2656.928	4100
2658.842	3998
2660.755	4139
2662.667	4123
2664.579	4122
2666.491	4101
2668.402	4080
2670.312	4052
2672.222	4043
2674.132	4119
2676.042	4072
2677.951	4114
2679.859	3975
2681.766	4088
2683.674	4095
2685.582	4068
2687.488	4004
2689.392	4014
2691.298	4081
2693.202	4041
2695.107	4008
2697.012	4143
2698.914	4079
2700.817	4017
2702.72	4034
2704.622	4084
2706.524	4000
2708.425	4062
2710.326	4015
2712.225	4027
2714.125	4039
2716.024	4073
2717.923	4024
2719.822	4045
2721.719	4060
2723.616	3993
2725.512	4130
2727.41	3985
2729.305	4029
2731.201	4048
2733.095	4040
2734.99	3994
2736.884	4040
2738.778	4043
2740.67	4042
2742.562	4015
2744.455	4025
2746.346	4023
2748.238	4046
2750.129	4028
2752.018	4027
2753.907	3986
2755.797	3988
2757.687	3954
2759.575	4011
2761.462	4027
2763.349	3979
2765.237	3997
2767.124	4008
2769.009	3970
2770.894	4044
2772.779	3950
2774.663	4078
2776.547	4021
2778.431	3995
2780.314	4011
2782.197	3956
2784.078	4020
2785.96	4011
2787.842	4007
2789.723	4018
2791.603	4027
2793.483	3924
2795.362	3942
2797.241	4038
2799.121	3943
2800.997	3936
2802.874	3962
2804.751	3926
2806.628	4026
2808.506	3946
2810.38	3985
2812.255	3950
2814.13	4007
2816.003	3927
2817.878	3913
2819.752	3985
2821.623	3948
2823.496	4002
2825.368	4023
2827.238	4007
2829.111	4002
2830.98	3902
2832.851	4022
2834.719	3951
2836.589	4040
2838.458	4038
2840.327	3927
2842.193	3908
2844.061	4055
2845.927	3925
2847.794	4000
2849.66	4005
2851.525	4076
2853.39	4058
2855.254	4101
2857.117	4032
2858.983	4104
2860.845	4073
2862.707	4108
2864.569	4118
2866.431	4129
2868.293	4106
2870.154	4125
2872.013	4237
2873.873	4300
2875.733	4182
2877.592	4261
2879.451	4289
2881.309	4352
2883.166	4353
2885.022	4355
2886.879	4372
2888.736	4423
2890.591	4510
2892.446	4488
2894.301	4432
2896.155	4379
2898.009	4412
2899.863	4453
2901.716	4456
2903.568	4367
2905.419	4309
2907.27	4471
2909.123	4396
2910.973	4501
2912.824	4427
2914.673	4544
2916.521	4478
2918.372	4489
2920.22	4562
2922.067	4541
2923.914	4644
2925.761	4673
2927.607	4759
2929.455	4730
2931.301	4728
2933.144	4782
2934.99	4815
2936.833	4816
2938.678	4961
2940.522	4813
2942.364	4955
2944.207	5006
2946.048	5085
2947.891	5083
2949.731	5119
2951.571	5048
2953.412	5104
2955.25	5039
2957.09	4946
2958.93	4952
2960.767	4867
2962.606	4792
2964.443	4773
2966.279	4825
2968.116	4841
2969.953	4631
2971.788	4582
2973.623	4637
2975.457	4470
2977.292	4532
2979.127	4482
2980.959	4515
2982.792	4443
2984.624	4455
2986.455	4453
2988.288	4377
2990.119	4281
2991.949	4345
2993.779	4301
2995.608	4303
2997.439	4236
2999.268	4245
3001.096	4126
3002.923	4190
3004.751	4112
3006.578	4088
3008.406	4075
3010.232	4028
3012.057	3981
3013.883	3978
3015.706	4076
3017.532	3981
3019.356	3958
3021.179	3951
3023.002	3975
3024.823	3939
3026.646	3948
3028.469	3893
3030.289	3851
3032.11	3842
3033.93	3913
3035.749	3820
3037.57	3827
3039.39	3779
3041.207	3867
3043.026	3842
3044.842	3795
3046.661	3829
3048.477	3903
3050.294	3770
3052.109	3828
3053.925	3803
3055.739	3765
3057.555	3814
3059.368	3818
3061.181	3766
3062.995	3781
3064.807	3767
3066.62	3758
3068.433	3832
3070.243	3808
3072.054	3797
3073.865	3796
3075.675	3864
3077.485	3789
3079.293	3802
3081.102	3856
3082.911	3825
3084.719	3805
3086.527	3722
3088.333	3723
3090.139	3768
3091.945	3646
3093.75	3660
3095.557	3704
3097.361	3659
3099.165	3696
3100.969	3647
3102.772	3719
3104.575	3675
3106.379	3642
3108.181	3688
3109.982	3684
3111.783	3631
3113.584	3764
3115.386	3617
3117.186	3692
3118.985	3657
3120.783	3680
3122.582	3529
3124.381	3644
3126.179	3673
3127.975	3658
3129.772	3625
3131.569	3667
3133.365	3664
3135.161	3669
3136.956	3653
3138.751	3638
3140.544	3649
3142.338	3668
3144.132	3674
3145.925	3651
3147.717	3559
3149.509	3613
3151.301	3622
3153.091	3603
3154.884	3612
3156.673	3620
3158.462	3634
3160.252	3598
3162.041	3609
3163.831	3643
3165.618	3583
3167.405	3588
3169.193	3607
3170.979	3663
3172.767	3624
3174.553	3690
3176.338	3600
3178.123	3632
3179.907	3679
3181.692	3696
3183.477	3607
3185.259	3623
3187.042	3567
3188.824	3571
3190.607	3543
3192.389	3605
3194.17	3570
3195.951	3612
3197.73	3579
3199.51	3558
3201.289	3547
3203.07	3598
3204.848	3585
3206.626	3457
3208.403	3609
3210.18	3562
3211.959	3551
3213.735	3592
3215.511	3543
3217.285	3585
3219.06	3645
3220.836	3547
3222.611	3586
3224.384	3603
3226.158	3522
3227.929	3587
3229.702	3616
3231.476	3579
3233.248	3573
3235.018	3582
3236.789	3533
3238.56	3587
3240.33	3476
3242.1	3641
3243.869	3537
3245.637	3589
3247.405	3584
3249.172	3566
3250.941	3578
3252.707	3595
3254.474	3566
3256.24	3578
3258.006	3574
3259.772	3572
3261.537	3538
3263.301	3552
3265.065	3556
3266.828	3569
3268.592	3518
3270.355	3619
3272.117	3585
3273.878	3554
3275.64	3612
3277.401	3579
3279.162	3552
3280.922	3579
3282.682	3545
3284.441	3638
3286.199	3544
3287.959	3593
3289.716	3542
3291.475	3610
3293.232	3566
3294.988	3615
3296.744	3581
3298.501	3544
3300.256	3581
3302.011	3559
3303.766	3600
3305.52	3614
3307.275	3561
3309.028	3584
3310.781	3598
3312.533	3612
3314.285	3582
3316.038	3578
3317.789	3608
3319.54	3595
3321.289	3558
3323.039	3608
3324.789	3589
3326.539	3548
3328.288	3550
3330.035	3470
3331.783	3515
3333.531	3548
3335.28	3533
3337.025	3561
3338.771	3536
3340.518	3589
3342.262	3527
3344.009	3528
3345.753	3511
3347.497	3446
3349.24	3618
3350.983	3514
3352.726	3525
3354.469	3507
3356.212	3449
3357.952	3536
3359.694	3534
3361.434	3504
3363.176	3459
3364.916	3504
3366.654	3452
3368.394	3512
3370.132	3456
3371.871	3460
3373.61	3416
3375.346	3468
3377.083	3462
3378.82	3472
3380.556	3505
3382.292	3382
3384.027	3389
3385.763	3437
3387.497	3459
3389.231	3454
3390.965	3486
3392.698	3501
3394.431	3414
3396.164	3500
3397.896	3449
3399.627	3458
3401.36	3402
3403.09	3434
3404.82	3431
3406.55	3438
3408.279	3434
3410.01	3404
3411.738	3382
3413.467	3369
3415.194	3440
3416.92	3426
3418.647	3378
3420.375	3333
3422.102	3393
3423.827	3378
3425.553	3378
3427.277	3442
3429.003	3337
3430.727	3376
3432.451	3391
3434.173	3349
3435.896	3403
3437.62	3412
3439.343	3319
3441.063	3386
3442.785	3366
3444.505	3272
3446.226	3362
3447.948	3407
3449.666	3396
3451.386	3286
3453.104	3337
3454.823	3344
3456.541	3231
3458.259	3271
3459.976	3353
3461.693	3348
3463.408	3340
3465.125	3303
3466.841	3282
3468.556	3296
3470.271	3257
3471.985	3232
3473.698	3229
3475.414	3323
3477.126	3211
3478.838	3243
3480.55	3276
3482.263	3260
3483.975	3204
3485.686	3177
3487.396	3154
3489.106	3234
3490.817	3189
3492.526	3219
3494.236	3257
3495.944	3201
3497.652	3106
3499.359	3258
3501.066	3110
3502.775	3251
3504.481	3220
3506.187	3133
3507.893	3201
3509.598	3105
3511.304	3204
3513.009	3203
3514.713	3131
3516.417	3172
3518.12	3094
3519.821	3216
3521.525	3148
3523.228	3122
3524.929	3224
3526.631	3086
3528.33	3088
3530.032	3170
3531.733	3177
3533.433	3125
3535.131	3111
3536.83	3066
3538.529	3084
3540.227	3163
3541.925	3100
3543.623	3077
3545.319	2981
3547.016	3113
3548.712	3063
3550.408	3089
3552.103	3005
3553.798	3082
3555.491	3179
3557.188	3130
3558.88	3147
3560.574	3060
3562.266	3126
3563.959	3089
3565.651	3066
3567.343	3169
3569.035	3063
3570.725	3031
3572.415	3085
3574.106	3038
3575.797	3064
3577.485	3030
3579.174	3047
3580.863	3039
3582.551	3074
3584.238	2995
3585.926	3064
3587.613	2988
3589.3	2997
3590.986	3022
3592.671	3024
3594.357	2968
3596.042	2999
3597.726	2924
3599.41	3018
3601.094	2990
3602.778	2994
3604.461	2929
3606.143	2970
3607.825	2953
3609.507	2925
3611.188	2911
3612.87	2982
3614.551	2911
3616.229	2996
3617.909	2873
3619.589	2930
3621.269	2937
3622.948	2920
3624.625	2975
3626.302	2919
3627.98	2872
3629.657	2872
3631.334	2877
3633.01	2872
3634.686	2851
3636.361	2848
3638.036	2932
3639.712	2855
3641.385	2892
3643.06	2916
3644.732	2887
3646.405	2898
3648.08	2909
3649.751	2840
3651.424	2816
3653.094	2820
3654.766	2895
3656.436	2810
3658.106	2839
3659.777	2789
3661.446	2830
3663.115	2817
3664.783	2859
3666.452	2877
3668.121	2844
3669.788	2856
3671.454	2940
3673.121	2794
3674.789	2823
3676.455	2758
3678.12	2779
3679.784	2854
3681.45	2813
3683.114	2772
3684.779	2856
3686.442	2822
3688.105	2766
3689.768	2746
3691.43	2807
3693.093	2799
3694.754	2788
3696.415	2849
3698.076	2839
3699.736	2820
3701.396	2714
3703.057	2803
3704.716	2752
3706.375	2772
3708.034	2814
3709.692	2788
3711.351	2800
3713.008	2780
3714.665	2782
3716.321	2802
3717.977	2740
3719.634	2779
3721.29	2744
3722.945	2764
3724.598	2768
3726.253	2775
3727.907	2786
3729.561	2780
3731.214	2707
3732.867	2745
3734.518	2746
3736.171	2793
3737.824	2731
3739.474	2743
3741.125	2757
3742.775	2733
3744.425	2729
3746.074	2745
3747.725	2753
3749.373	2656
3751.022	2721
3752.669	2717
3754.318	2719
3755.966	2717
3757.612	2716
3759.259	2697
3760.905	2703
3762.55	2708
3764.197	2696
3765.842	2703
3767.486	2673
3769.131	2723
3770.774	2689
3772.417	2683
3774.061	2704
3775.705	2678
3777.347	2637
3778.988	2623
3780.629	2677
3782.271	2685
3783.912	2686
3785.552	2680
3787.192	2583
3788.831	2679
3790.472	2702
3792.112	2617
3793.75	2640
3795.388	2644
3797.024	2658
3798.661	2575
3800.3	2648
3801.936	2607
3803.572	2686
3805.208	2627
3806.844	2642
3808.48	2647
3810.115	2601
3811.748	2597
3813.382	2700
3815.016	2631
3816.649	2611
3818.283	2641
3819.914	2585
3821.547	2597
3823.178	2647
3824.809	2641
3826.441	2606
3828.072	2598
3829.701	2584
3831.331	2608
3832.96	2591
3834.591	2571
3836.219	2645
3837.847	2623
3839.475	2553
3841.102	2568
3842.729	2595
3844.357	2544
3845.984	2571
3847.609	2595
3849.234	2515
3850.86	2575
3852.485	2576
3854.11	2540
3855.734	2561
3857.357	2588
3858.981	2572
3860.603	2602
3862.227	2531
3863.848	2575
3865.471	2558
3867.092	2594
3868.713	2529
3870.334	2619
3871.954	2560
3873.575	2522
3875.194	2585
3876.813	2544
3878.433	2506
3880.051	2491
3881.669	2549
3883.286	2560
3884.904	2533
3886.52	2550
3888.138	2560
3889.754	2537
3891.37	2528
3892.985	2517
3894.6	2504
3896.216	2533
3897.831	2458
3899.444	2562
3901.058	2535
3902.67	2559
3904.283	2524
3905.897	2548
3907.509	2519
3909.121	2531
3910.731	2483
3912.342	2545
3913.954	2526
3915.563	2542
3917.174	2519
3918.783	2505
3920.391	2535
3922.002	2575
3923.611	2520
3925.218	2525
3926.826	2524
3928.432	2536
3930.039	2511
3931.647	2469
3933.253	2494
3934.859	2505
3936.464	2436
3938.068	2551
3939.675	2477
3941.278	2420
3942.883	2445
3944.486	2487
3946.089	2560
3947.692	2479
3949.295	2448
3950.898	2464
3952.499	2464
3954.1	2405
3955.7	2495
3957.303	2445
3958.903	2474
3960.502	2490
3962.101	2491
3963.7	2429
3965.301	2437
3966.899	2420
3968.497	2498
3970.094	2403
3971.691	2469
3973.288	2467
3974.885	2469
3976.481	2427
3978.077	2423
3979.672	2352
3981.267	2403
3982.863	2462
3984.457	2404
3986.051	2472
3987.645	2388
3989.238	2377
3990.831	2401
3992.425	2399
3994.017	2381
3995.607	2361
3997.199	2438
3998.79	2430
4000.382	2375
4001.973	2337
4003.561	2425
4005.151	2375
4006.741	2413
4008.331	2365
4009.918	2347
4011.507	2355
4013.095	2311
4014.681	2352
4016.269	2395
4017.856	2343
4019.443	2388
4021.028	2358
4022.614	2313
4024.199	2369
4025.785	2317
4027.37	2315
4028.953	2347
4030.536	2318
4032.12	2355
4033.704	2346
4035.287	2292
4036.869	2356
4038.45	2327
4040.032	2302
4041.613	2312
4043.195	2286
4044.776	2341
4046.356	2257
4047.935	2344
4049.515	2309
4051.095	2277
4052.674	2335
4054.251	2248
4055.829	2341
4057.406	2311
4058.985	2311
4060.562	2313
4062.139	2283
4063.715	2318
4065.29	2281
4066.865	2334
4068.442	2282
4070.016	2270
4071.59	2257
4073.164	2317
4074.738	2304
4076.312	2307
4077.885	2221
4079.458	2347
4081.03	2263
4082.602	2294
4084.173	2280
4085.745	2305
4087.315	2213
4088.886	2273
4090.456	2242
4092.026	2253
4093.596	2281
4095.165	2271
4096.734	2266
4098.301	2225
4099.869	2187
4101.437	2268
4103.006	2267
4104.572	2251
4106.139	2220
4107.704	2313
4109.27	2239
4110.837	2173
4112.401	2229
4113.966	2248
4115.53	2187
4117.094	2277
4118.659	2175
4120.223	2230
4121.785	2230
4123.347	2298
4124.909	2190
4126.471	2220
4128.034	2205
4129.595	2210
4131.155	2206
4132.716	2182
4134.275	2197
4135.836	2146
4137.395	2169
4138.955	2173
4140.513	2151
4142.071	2168
4143.628	2142
4145.188	2170
4146.745	2154
4148.302	2202
4149.858	2200
4151.414	2265
4152.971	2184
4154.526	2161
4156.081	2201
4157.635	2181
4159.189	2104
4160.745	2141
4162.298	2151
4163.852	2165
4165.405	2144
4166.957	2181
4168.51	2143
4170.063	2142
4171.614	2132
4173.166	2171
4174.717	2101
4176.267	2122
4177.817	2119
4179.368	2119
4180.917	2085
4182.466	2147
4184.016	2164
4185.564	2063
4187.112	2142
4188.66	2103
4190.207	2113
4191.754	2114
4193.301	2125
4194.848	2053
4196.394	2076
4197.94	2194
4199.484	2076
4201.03	2087
4202.575	2086
4204.12	2132
4205.663	2183
4207.207	2105
4208.75	2091
4210.292	2090
4211.836	2059
4213.378	2084
4214.92	2067
4216.46	2061
4218.002	2088
4219.544	2123
4221.083	2119
4222.625	2083
4224.164	2106
4225.703	2081
4227.244	2035
4228.782	2053
4230.32	2067
4231.857	2084
4233.395	2067
4234.933	2080
4236.471	2081
4238.007	2026
4239.542	2057
4241.078	2017
4242.614	2060
4244.15	2066
4245.685	2055
4247.219	2025
4248.753	2031
4250.287	2040
4251.82	2060
4253.354	2052
4254.887	2058
4256.419	2053
4257.951	2034
4259.483	2055
4261.016	2049
4262.547	2043
4264.078	2097
4265.608	2091
4267.137	2054
4268.668	2034
4270.197	2042
4271.727	2049
4273.254	2045
4274.783	1981
4276.311	2081
4277.84	2053
4279.366	2005
4280.894	2083
4282.42	1964
4283.946	2036
4285.473	2139
4286.998	1996
4288.523	2006
4290.047	2012
4291.572	1995
4293.096	2008
4294.622	1967
4296.144	2027
4297.668	2025
4299.19	1989
4300.713	1969
4302.236	1954
4303.758	1975
4305.279	2034
4306.799	2032
4308.321	1973
4309.842	2013
4311.361	1989
4312.882	1986
4314.401	1980
