400.0961	3245
402.6185	3262
405.1424	3266
407.6635	3296
410.1838	3247
412.7035	3333
415.2225	3355
417.7388	3303
420.2585	3395
422.7754	3442
425.2917	3511
427.8072	3483
430.3221	3487
432.8363	3565
435.3498	3512
437.8626	3521
440.3727	3508
442.8841	3522
445.3969	3582
447.907	3484
450.4142	3466
452.9229	3447
455.4289	3494
457.9362	3454
460.4449	3485
462.9488	3447
465.454	3531
467.9566	3443
470.4604	3500
472.9637	3485
475.4662	3499
477.966	3412
480.4671	3328
482.9656	3416
485.4633	3428
487.9645	3477
490.4608	3456
492.9566	3408
495.4536	3419
497.948	3464
500.4437	3497
502.9387	3421
505.431	3499
507.9226	3551
510.4136	3484
512.9079	3548
515.3975	3625
517.8864	3491
520.3746	3487
522.8622	3521
525.3491	3618
527.8394	3554
530.3249	3478
532.8098	3582
535.2939	3578
537.7774	3594
540.2623	3606
542.7444	3549
545.2259	3600
547.7067	3540
550.1868	3554
552.6683	3482
555.147	3538
557.6231	3609
560.1005	3490
562.5773	3552
565.0534	3605
567.5308	3641
570.0056	3578
572.4776	3669
574.951	3675
577.4237	3686
579.8978	3801
582.3671	3744
584.8378	3696
587.3079	3800
589.7773	3822
592.244	3820
594.714	3771
597.1793	3770
599.6461	3709
602.1121	3726
604.5754	3658
607.0421	3651
609.5042	3711
611.9675	3674
614.4282	3741
616.8902	3637
619.3515	3617
621.8122	3663
624.2702	3606
626.7296	3672
629.1863	3589
631.6423	3658
634.1017	3576
636.5563	3570
639.0104	3574
641.4658	3587
643.9185	3629
646.3725	3666
648.8239	3639
651.2766	3670
653.7266	3628
656.176	3640
658.6247	3723
661.0748	3732
663.5242	3640
665.9709	3684
668.417	3702
670.8624	3742
673.3092	3713
675.7533	3746
678.1968	3696
680.6395	3683
683.0817	3761
685.5251	3734
687.9659	3734
690.4061	3805
692.8456	3766
695.2844	3729
697.7226	3708
700.1621	3851
702.599	3790
705.0332	3742
707.4688	3812
709.9036	3788
712.3399	3912
714.7735	3851
717.2044	3805
719.6367	3907
722.0683	3863
724.4993	3810
726.9296	3929
729.3593	3879
731.7883	3854
734.2147	3846
736.6423	3829
739.0714	3918
741.4958	3879
743.9216	4013
746.3447	3983
748.7691	3965
751.1929	3993
753.616	3924
756.0366	3985
758.4584	3991
760.8776	4014
763.2982	4071
765.718	4094
768.1373	4107
770.5539	4045
772.9698	3980
775.3871	4064
777.8038	4036
780.2178	3968
782.6332	4127
785.0459	4095
787.458	4046
789.8714	4072
792.2842	3984
794.6943	4089
797.1038	4048
799.5127	4027
801.9209	3972
804.3324	4051
806.7393	3962
809.1456	4154
811.5513	4100
813.9562	4077
816.3625	4141
818.7663	4045
821.1693	4231
823.5718	4157
825.9735	4120
828.3746	4094
830.7771	4062
833.177	4062
835.5762	4200
837.9747	4114
840.3727	4125
842.772	4055
845.1666	4229
847.5626	4136
849.958	4223
852.3527	4245
854.7488	4169
857.1403	4303
859.5331	4316
861.9253	4300
864.3168	4284
866.7057	4188
869.098	4203
871.4876	4233
873.8746	4156
876.263	4252
878.6487	4121
881.0378	4164
883.4243	4206
885.8081	4155
888.1933	4119
890.5759	4238
892.9598	4188
895.343	4231
897.7256	4184
900.1057	4186
902.4871	4234
904.8659	4183
907.246	4201
909.6254	4293
912.0023	4358
914.3786	4340
916.7562	4329
919.1331	4374
921.5074	4456
923.8831	4505
926.2562	4492
928.6287	4403
931.0005	4459
933.3757	4468
935.7462	4520
938.1162	4578
940.4855	4704
942.8542	4657
945.2242	4854
947.5916	4830
949.9584	4999
952.3266	5158
954.6921	5532
957.0571	5751
959.4233	6033
961.787	6160
964.15	6068
966.5125	5716
968.8742	5520
971.2354	5188
973.5959	4929
975.9559	4653
978.3151	4554
980.6738	4480
983.0338	4415
985.3912	4469
987.7461	4335
990.1022	4345
992.4578	4278
994.8127	4399
997.1689	4309
999.5207	4355
1001.874	4355
1004.226	4442
1006.576	4401
1008.929	4501
1011.28	4350
1013.628	4428
1015.977	4417
1018.324	4308
1020.674	4382
1023.019	4451
1025.366	4365
1027.713	4416
1030.056	4447
1032.399	4373
1034.746	4483
1037.087	4514
1039.431	4533
1041.771	4565
1044.113	4529
1046.454	4508
1048.793	4445
1051.133	4492
1053.471	4463
1055.807	4500
1058.146	4581
1060.483	4606
1062.818	4470
1065.153	4621
1067.489	4609
1069.822	4621
1072.156	4676
1074.488	4662
1076.82	4611
1079.15	4642
1081.48	4742
1083.814	4568
1086.143	4507
1088.471	4474
1090.799	4462
1093.126	4467
1095.452	4564
1097.78	4330
1100.105	4383
1102.43	4475
1104.754	4459
1107.077	4441
1109.4	4457
1111.722	4405
1114.044	4487
1116.365	4415
1118.685	4407
1121.005	4367
1123.324	4514
1125.643	4407
1127.961	4522
1130.278	4397
1132.595	4362
1134.911	4403
1137.226	4337
1139.541	4397
1141.854	4486
1144.167	4365
1146.482	4540
1148.793	4478
1151.105	4484
1153.414	4578
1155.725	4374
1158.033	4468
1160.344	4463
1162.651	4295
1164.959	4370
1167.265	4451
1169.572	4548
1171.878	4486
1174.184	4486
1176.488	4353
1178.79	4376
1181.094	4482
1183.396	4434
1185.699	4420
1188.001	4424
1190.301	4455
1192.6	4396
1194.9	4515
1197.2	4440
1199.497	4546
1201.794	4560
1204.09	4482
1206.387	4481
1208.684	4542
1210.978	4435
1213.272	4598
1215.565	4509
1217.858	4476
1220.15	4500
1222.443	4488
1224.734	4453
1227.024	4630
1229.313	4422
1231.602	4561
1233.892	4579
1236.18	4656
1238.467	4665
1240.754	4705
1243.04	4690
1245.325	4701
1247.612	4709
1249.896	4743
1252.178	4804
1254.461	4725
1256.743	4732
1259.027	4656
1261.308	4675
1263.587	4679
1265.867	4653
1268.146	4709
1270.425	4652
1272.703	4666
1274.981	4742
1277.256	4734
1279.532	4614
1281.808	4651
1284.083	4608
1286.358	4618
1288.63	4657
1290.904	4642
1293.175	4606
1295.449	4679
1297.719	4547
1299.99	4572
1302.259	4597
1304.529	4518
1306.798	4640
1309.065	4593
1311.333	4625
1313.599	4649
1315.866	4635
1318.131	4628
1320.396	4677
1322.66	4574
1324.925	4669
1327.187	4642
1329.448	4597
1331.711	4694
1333.974	4616
1336.234	4560
1338.493	4599
1340.752	4591
1343.01	4555
1345.269	4595
1347.526	4645
1349.784	4564
1352.04	4668
1354.295	4609
1356.552	4563
1358.806	4700
1361.059	4591
1363.312	4588
1365.564	4589
1367.818	4587
1370.069	4654
1372.318	4619
1374.568	4599
1376.817	4696
1379.066	4670
1381.316	4711
1383.564	4733
1385.809	4656
1388.056	4685
1390.301	4682
1392.549	4736
1394.793	4762
1397.036	4780
1399.279	4776
1401.522	4743
1403.763	4822
1406.007	4708
1408.248	4752
1410.487	4666
1412.727	4761
1414.965	4725
1417.205	4732
1419.442	4901
1421.68	4795
1423.915	4792
1426.152	4746
1428.388	4878
1430.623	4914
1432.857	4761
1435.091	4831
1437.323	4859
1439.556	4902
1441.789	4845
1444.019	4895
1446.25	4951
1448.48	4864
1450.708	4896
1452.938	4935
1455.167	4984
1457.394	4993
1459.62	4885
1461.846	4871
1464.073	4978
1466.299	4808
1468.523	4801
1470.746	4801
1472.969	4775
1475.191	4727
1477.415	4777
1479.636	4718
1481.858	4776
1484.078	4610
1486.298	4690
1488.518	4663
1490.736	4583
1492.954	4620
1495.169	4718
1497.386	4668
1499.602	4621
1501.819	4542
1504.034	4672
1506.248	4571
1508.462	4636
1510.675	4620
1512.888	4665
1515.1	4551
1517.311	4617
1519.522	4580
1521.732	4618
1523.942	4597
1526.151	4598
1528.36	4568
1530.566	4545
1532.773	4499
1534.98	4585
1537.187	4666
1539.392	4559
1541.596	4537
1543.801	4650
1546.005	4716
1548.208	4648
1550.411	4623
1552.612	4662
1554.814	4690
1557.013	4688
1559.212	4711
1561.414	4575
1563.612	4648
1565.811	4720
1568.007	4682
1570.203	4706
1572.403	4725
1574.598	4729
1576.792	4696
1578.988	4821
1581.181	4679
1583.376	4772
1585.568	4659
1587.761	4751
1589.952	4789
1592.143	4844
1594.333	4733
1596.524	4777
1598.715	4808
1600.903	4714
1603.091	4708
1605.278	4783
1607.466	4788
1609.652	4925
1611.838	4838
1614.023	4817
1616.207	4823
1618.391	4708
1620.576	4829
1622.759	4791
1624.941	4780
1627.123	4697
1629.304	4833
1631.484	4848
1633.664	4924
1635.844	4869
1638.022	4871
1640.201	4948
1642.38	4828
1644.556	4931
1646.732	4793
1648.908	4847
1651.084	4901
1653.257	5038
1655.433	5004
1657.607	4924
1659.779	4922
1661.951	4984
1664.122	4963
1666.295	4964
1668.467	4966
1670.635	4985
1672.805	4997
1674.973	4958
1677.142	5099
1679.31	4908
1681.478	4971
1683.644	4931
1685.81	4953
1687.975	4993
1690.142	4860
1692.305	4884
1694.468	4894
1696.632	4826
1698.794	4740
1700.957	4819
1703.119	4826
1705.279	4759
1707.439	4871
1709.598	4725
1711.758	4769
1713.917	4807
1716.075	4800
1718.231	4752
1720.388	4723
1722.543	4740
1724.702	4706
1726.856	4712
1729.01	4762
1731.164	4851
1733.317	4738
1735.471	4741
1737.623	4688
1739.774	4793
1741.925	4784
1744.075	4768
1746.225	4738
1748.376	4751
1750.524	4794
1752.672	4787
1754.82	4724
1756.965	4698
1759.113	4759
1761.259	4821
1763.405	4826
1765.549	4799
1767.694	4773
1769.836	4777
1771.981	4724
1774.123	4834
1776.264	4849
1778.405	4941
1780.546	4733
1782.687	4748
1784.827	4814
1786.966	4850
1789.103	4790
1791.242	4865
1793.381	4773
1795.517	4860
1797.653	4756
1799.788	4801
1801.923	4809
1804.057	4744
1806.193	4877
1808.326	4781
1810.457	4807
1812.59	4811
1814.721	4805
1816.855	4761
1818.984	4883
1821.113	4758
1823.244	4708
1825.372	4835
1827.499	4779
1829.63	4751
1831.756	4781
1833.882	4751
1836.007	4750
1838.132	4867
1840.26	4734
1842.384	4731
1844.507	4758
1846.63	4817
1848.752	4680
1850.875	4711
1852.996	4718
1855.118	4757
1857.238	4763
1859.358	4709
1861.477	4815
1863.597	4798
1865.715	4768
1867.832	4819
1869.948	4769
1872.064	4770
1874.181	4760
1876.297	4785
1878.411	4697
1880.526	4811
1882.639	4751
1884.752	4749
1886.865	4762
1888.977	4784
1891.089	4737
1893.2	4806
1895.308	4749
1897.42	4817
1899.53	4807
1901.639	4808
1903.745	4721
1905.853	4810
1907.962	4806
1910.067	4762
1912.174	4859
1914.278	4779
1916.383	4710
1918.486	4788
1920.592	4797
1922.694	4766
1924.797	4893
1926.898	4925
1929	4883
1931.102	4774
1933.203	4794
1935.301	4851
1937.401	4830
1939.499	4855
1941.598	4780
1943.697	4831
1945.793	4780
1947.888	4842
1949.985	4942
1952.08	4845
1954.176	4917
1956.269	4866
1958.364	4832
1960.457	4870
1962.549	4865
1964.642	4726
1966.733	4885
1968.823	4778
1970.913	4851
1973.005	4785
1975.093	4868
1977.184	4762
1979.271	4813
1981.359	4749
1983.446	4803
1985.532	4825
1987.619	4891
1989.705	4775
1991.789	4865
1993.874	4844
1995.956	4739
1998.041	4730
2000.123	4802
2002.206	4787
2004.287	4836
2006.368	4690
2008.449	4838
2010.529	4835
2012.609	4785
2014.688	4749
2016.766	4844
2018.843	4740
2020.922	4853
2022.999	4703
2025.074	4770
2027.15	4790
2029.225	4797
2031.299	4818
2033.375	4819
2035.447	4808
2037.52	4770
2039.592	4771
2041.664	4867
2043.736	4675
2045.807	4780
2047.876	4768
2049.947	4828
2052.015	4767
2054.086	4862
2056.153	4772
2058.221	4822
2060.288	4823
2062.353	4837
2064.42	4765
2066.486	4718
2068.55	4856
2070.614	4790
2072.678	4863
2074.741	4765
2076.805	4913
2078.866	4791
2080.929	4735
2082.99	4750
2085.049	4873
2087.109	4841
2089.17	4708
2091.228	4772
2093.286	4835
2095.344	4745
2097.4	4760
2099.46	4812
2101.516	4815
2103.572	4833
2105.626	4885
2107.679	4831
2109.735	4816
2111.788	4817
2113.841	4807
2115.894	4693
2117.945	4830
2119.997	4817
2122.049	4797
2124.1	4809
2126.148	4830
2128.197	4746
2130.246	4716
2132.296	4782
2134.342	4844
2136.39	4777
2138.437	4813
2140.483	4829
2142.527	4809
2144.574	4805
2146.619	4777
2148.661	4780
2150.705	4776
2152.747	4792
2154.792	4796
2156.832	4827
2158.874	4866
2160.915	4896
2162.954	4773
2164.995	4726
2167.034	4855
2169.072	4732
2171.111	4753
2173.148	4849
2175.186	4752
2177.223	4689
2179.258	4612
2181.294	4727
2183.328	4716
2185.362	4645
2187.398	4699
2189.431	4599
2191.463	4729
2193.495	4821
2195.528	4684
2197.56	4775
2199.59	4789
2201.62	4724
2203.649	4590
2205.678	4679
2207.708	4726
2209.737	4710
2211.764	4697
2213.791	4611
2215.817	4718
2217.843	4702
2219.87	4678
2221.895	4653
2223.919	4628
2225.942	4717
2227.966	4719
2229.988	4582
2232.012	4695
2234.032	4690
2236.054	4699
2238.074	4655
2240.095	4650
2242.116	4656
2244.135	4701
2246.153	4685
2248.171	4647
2250.188	4698
2252.208	4621
2254.223	4771
2256.239	4669
2258.255	4663
2260.269	4646
2262.283	4692
2264.3	4732
2266.312	4644
2268.325	4722
2270.336	4644
2272.349	4667
2274.362	4654
2276.372	4693
2278.383	4689
2280.392	4697
2282.402	4623
2284.409	4652
2286.418	4711
2288.427	4635
2290.433	4676
2292.441	4690
2294.446	4662
2296.453	4686
2298.459	4670
2300.463	4595
2302.466	4575
2304.471	4622
2306.475	4660
2308.477	4644
2310.478	4616
2312.481	4668
2314.481	4593
2316.481	4663
2318.482	4636
2320.482	4580
2322.48	4569
2324.48	4668
2326.478	4665
2328.476	4608
2330.473	4527
2332.469	4575
2334.465	4586
2336.46	4632
2338.454	4532
2340.45	4611
2342.444	4530
2344.437	4514
2346.43	4636
2348.421	4577
2350.414	4573
2352.405	4578
2354.396	4604
2356.386	4475
2358.376	4416
2360.366	4544
2362.355	4636
2364.343	4526
2366.331	4567
2368.317	4577
2370.304	4561
2372.292	4572
2374.278	4578
2376.262	4460
2378.247	4553
2380.23	4514
2382.216	4612
2384.199	4456
2386.181	4626
2388.163	4551
2390.144	4478
2392.127	4531
2394.107	4552
2396.087	4583
2398.066	4567
2400.046	4640
2402.023	4533
2404.004	4435
2405.981	4546
2407.957	4479
2409.934	4460
2411.91	4486
2413.886	4588
2415.862	4523
2417.836	4465
2419.809	4523
2421.784	4549
2423.756	4452
2425.73	4537
2427.701	4527
2429.672	4518
2431.644	4559
2433.615	4534
2435.586	4500
2437.555	4542
2439.523	4481
2441.491	4475
2443.459	4544
2445.428	4478
2447.395	4510
2449.361	4539
2451.327	4515
2453.292	4381
2455.257	4489
2457.223	4574
2459.187	4426
2461.15	4395
2463.113	4414
2465.076	4483
2467.039	4478
2468.999	4502
2470.96	4441
2472.921	4515
2474.881	4398
2476.841	4415
2478.8	4444
2480.759	4546
2482.717	4481
2484.675	4427
2486.63	4406
2488.589	4459
2490.545	4442
2492.5	4459
2494.455	4399
2496.408	4506
2498.364	4452
2500.318	4405
2502.27	4421
2504.223	4380
2506.174	4394
2508.126	4386
2510.078	4412
2512.03	4447
2513.979	4399
2515.927	4418
2517.877	4389
2519.826	4454
2521.775	4453
2523.722	4401
2525.668	4427
2527.616	4365
2529.561	4421
2531.508	4410
2533.452	4532
2535.398	4476
2537.342	4400
2539.284	4500
2541.229	4367
2543.173	4417
2545.114	4458
2547.055	4496
2548.996	4380
2550.938	4345
2552.878	4499
2554.817	4382
2556.756	4359
2558.695	4525
2560.633	4317
2562.572	4335
2564.509	4418
2566.445	4364
2568.382	4398
2570.317	4420
2572.254	4479
2574.189	4431
2576.123	4411
2578.057	4381
2579.99	4441
2581.923	4310
2583.855	4435
2585.788	4444
2587.719	4376
2589.65	4485
2591.579	4375
2593.511	4501
2595.44	4414
2597.37	4344
2599.297	4438
2601.225	4432
2603.153	4448
2605.08	4501
2607.007	4485
2608.932	4370
2610.858	4407
2612.782	4367
2614.709	4462
2616.632	4401
2618.556	4477
2620.478	4515
2622.401	4383
2624.324	4511
2626.247	4454
2628.167	4497
2630.088	4412
2632.008	4437
2633.928	4460
2635.848	4428
2637.766	4313
2639.684	4540
2641.603	4429
2643.519	4546
2645.437	4529
2647.353	4524
2649.27	4406
2651.184	4426
2653.099	4516
2655.014	4475
2656.928	4449
2658.842	4537
2660.755	4421
2662.667	4409
2664.579	4517
2666.491	4416
2668.402	4437
2670.312	4349
2672.222	4379
2674.132	4426
2676.042	4401
2677.951	4293
2679.859	4407
2681.766	4408
2683.674	4439
2685.582	4355
2687.488	4399
2689.392	4387
2691.298	4391
2693.202	4347
2695.107	4342
2697.012	4418
2698.914	4483
2700.817	4417
2702.72	4368
2704.622	4384
2706.524	4404
2708.425	4425
2710.326	4491
2712.225	4374
2714.125	4304
2716.024	4403
2717.923	4351
2719.822	4338
2721.719	4392
2723.616	4426
2725.512	4381
2727.41	4367
2729.305	4276
2731.201	4450
2733.095	4308
2734.99	4356
2736.884	4352
2738.778	4322
2740.67	4404
2742.562	4365
2744.455	4391
2746.346	4354
2748.238	4436
2750.129	4320
2752.018	4344
2753.907	4293
2755.797	4283
2757.687	4376
2759.575	4239
2761.462	4347
2763.349	4360
2765.237	4391
2767.124	4366
2769.009	4392
2770.894	4274
2772.779	4338
2774.663	4383
2776.547	4448
2778.431	4262
2780.314	4266
2782.197	4311
2784.078	4335
2785.96	4314
2787.842	4313
2789.723	4403
2791.603	4379
2793.483	4363
2795.362	4338
2797.241	4326
2799.121	4337
2800.997	4371
2802.874	4314
2804.751	4294
2806.628	4345
2808.506	4277
2810.38	4222
2812.255	4279
2814.13	4255
2816.003	4244
2817.878	4415
2819.752	4335
2821.623	4387
2823.496	4248
2825.368	4272
2827.238	4347
2829.111	4281
2830.98	4290
2832.851	4307
2834.719	4270
2836.589	4354
2838.458	4364
2840.327	4294
2842.193	4356
2844.061	4281
2845.927	4301
2847.794	4317
2849.66	4366
2851.525	4454
2853.39	4349
2855.254	4439
2857.117	4434
2858.983	4463
2860.845	4473
2862.707	4422
2864.569	4506
2866.431	4551
2868.293	4483
2870.154	4555
2872.013	4582
2873.873	4650
2875.733	4720
2877.592	4742
2879.451	4917
2881.309	4888
2883.166	4772
2885.022	4926
2886.879	4934
2888.736	4866
2890.591	4858
2892.446	4935
2894.301	4840
2896.155	4882
2898.009	4950
2899.863	4881
2901.716	4921
2903.568	4803
2905.419	4845
2907.27	4831
2909.123	4802
2910.973	4947
2912.824	4969
2914.673	5033
2916.521	4914
2918.372	5016
2920.22	5076
2922.067	5074
2923.914	5202
2925.761	5323
2927.607	5201
2929.455	5297
2931.301	5407
2933.144	5604
2934.99	5484
2936.833	5558
2938.678	5682
2940.522	5678
2942.364	5670
2944.207	5846
2946.048	5844
2947.891	5847
2949.731	5831
2951.571	5749
2953.412	5697
2955.25	5567
2957.09	5697
2958.93	5587
2960.767	5578
2962.606	5537
2964.443	5468
2966.279	5368
2968.116	5246
2969.953	5298
2971.788	5212
2973.623	5106
2975.457	5073
2977.292	5104
2979.127	5081
2980.959	5006
2982.792	4966
2984.624	5000
2986.455	5009
2988.288	4998
2990.119	4957
2991.949	4784
2993.779	4771
2995.608	4825
2997.439	4788
2999.268	4721
3001.096	4850
3002.923	4686
3004.751	4491
3006.578	4494
3008.406	4557
3010.232	4449
3012.057	4443
3013.883	4397
3015.706	4414
3017.532	4429
3019.356	4276
3021.179	4307
3023.002	4268
3024.823	4247
3026.646	4221
3028.469	4154
3030.289	4227
3032.11	4184
3033.93	4216
3035.749	4236
3037.57	4153
3039.39	4184
3041.207	4076
3043.026	4162
3044.842	4092
3046.661	4163
3048.477	4225
3050.294	4131
3052.109	4120
3053.925	4054
3055.739	4009
3057.555	4144
3059.368	4136
3061.181	4153
3062.995	4199
3064.807	4117
3066.62	4072
3068.433	4112
3070.243	4099
3072.054	4066
3073.865	4014
3075.675	3979
3077.485	4130
3079.293	4130
3081.102	4113
3082.911	4071
3084.719	4072
3086.527	4043
3088.333	4032
3090.139	3995
3091.945	4081
3093.75	4018
3095.557	4015
3097.361	3996
3099.165	4043
3100.969	4004
3102.772	4069
3104.575	3999
3106.379	3994
3108.181	4036
3109.982	3967
3111.783	3988
3113.584	4036
3115.386	4052
3117.186	3970
3118.985	3931
3120.783	3949
3122.582	3909
3124.381	3930
3126.179	3910
3127.975	3898
3129.772	3946
3131.569	3935
3133.365	3939
3135.161	3861
3136.956	3913
3138.751	3916
3140.544	3922
3142.338	3971
3144.132	4050
3145.925	3852
3147.717	3879
3149.509	3922
3151.301	3914
3153.091	3849
3154.884	3952
3156.673	3871
3158.462	3945
3160.252	3927
3162.041	3891
3163.831	3888
3165.618	3910
3167.405	3903
3169.193	3961
3170.979	3864
3172.767	3841
3174.553	3794
3176.338	3857
3178.123	3914
3179.907	3893
3181.692	3855
3183.477	3866
3185.259	3947
3187.042	3865
3188.824	3954
3190.607	3904
3192.389	3827
3194.17	3914
3195.951	3917
3197.73	3825
3199.51	3986
3201.289	3824
3203.07	3857
3204.848	3841
3206.626	3941
3208.403	3838
3210.18	3806
3211.959	3775
3213.735	3934
3215.511	3962
3217.285	3894
3219.06	3897
3220.836	3907
3222.611	3921
3224.384	3818
3226.158	3887
3227.929	3912
3229.702	3893
3231.476	3848
3233.248	3930
3235.018	3903
3236.789	3882
3238.56	3948
3240.33	3826
3242.1	3849
3243.869	3768
3245.637	3921
3247.405	3890
3249.172	3901
3250.941	3849
3252.707	3916
3254.474	3825
3256.24	3908
3258.006	3874
3259.772	3929
3261.537	3773
3263.301	3823
3265.065	3951
3266.828	3882
3268.592	3909
3270.355	3875
3272.117	3948
3273.878	3878
3275.64	3879
3277.401	3881
3279.162	3900
3280.922	3949
3282.682	3893
3284.441	3946
3286.199	3920
3287.959	3948
3289.716	3897
3291.475	3898
3293.232	3890
3294.988	3850
3296.744	3916
3298.501	3952
3300.256	3955
3302.011	3873
3303.766	3913
3305.52	3971
3307.275	3886
3309.028	3969
3310.781	3820
3312.533	3855
3314.285	3906
3316.038	3822
3317.789	3886
3319.54	3877
3321.289	3945
3323.039	3866
3324.789	3841
3326.539	3918
3328.288	3982
3330.035	3903
3331.783	3857
3333.531	3849
3335.28	3797
3337.025	3936
3338.771	3899
3340.518	3803
3342.262	3870
3344.009	3891
3345.753	3893
3347.497	3888
3349.24	3849
3350.983	3850
3352.726	3730
3354.469	3895
3356.212	3816
3357.952	3884
3359.694	3788
3361.434	3743
3363.176	3715
3364.916	3829
3366.654	3825
3368.394	3738
3370.132	3884
3371.871	3746
3373.61	3740
3375.346	3815
3377.083	3830
3378.82	3724
3380.556	3797
3382.292	3751
3384.027	3747
3385.763	3726
3387.497	3798
3389.231	3743
3390.965	3775
3392.698	3722
3394.431	3692
3396.164	3671
3397.896	3737
3399.627	3692
3401.36	3697
3403.09	3738
3404.82	3758
3406.55	3767
3408.279	3700
3410.01	3615
3411.738	3699
3413.467	3654
3415.194	3701
3416.92	3666
3418.647	3672
3420.375	3759
3422.102	3752
3423.827	3741
3425.553	3686
3427.277	3674
3429.003	3742
3430.727	3712
3432.451	3628
3434.173	3705
3435.896	3654
3437.62	3660
3439.343	3609
3441.063	3661
3442.785	3648
3444.505	3625
3446.226	3664
3447.948	3706
3449.666	3520
3451.386	3617
3453.104	3578
3454.823	3701
3456.541	3720
3458.259	3625
3459.976	3596
3461.693	3562
3463.408	3656
3465.125	3620
3466.841	3576
3468.556	3576
3470.271	3557
3471.985	3482
3473.698	3508
3475.414	3580
3477.126	3494
3478.838	3480
3480.55	3489
3482.263	3426
3483.975	3425
3485.686	3540
3487.396	3473
3489.106	3487
3490.817	3481
3492.526	3519
3494.236	3541
3495.944	3522
3497.652	3416
3499.359	3381
3501.066	3486
3502.775	3432
3504.481	3523
3506.187	3441
3507.893	3507
3509.598	3434
3511.304	3469
3513.009	3435
3514.713	3484
3516.417	3348
3518.12	3350
3519.821	3456
3521.525	3421
3523.228	3300
3524.929	3428
3526.631	3353
3528.33	3433
3530.032	3452
3531.733	3358
3533.433	3381
3535.131	3364
3536.83	3378
3538.529	3394
3540.227	3367
3541.925	3289
3543.623	3339
3545.319	3394
3547.016	3269
3548.712	3324
3550.408	3259
3552.103	3352
3553.798	3398
3555.491	3365
3557.188	3327
3558.88	3259
3560.574	3295
3562.266	3275
3563.959	3270
3565.651	3265
3567.343	3347
3569.035	3319
3570.725	3241
3572.415	3301
3574.106	3366
3575.797	3211
3577.485	3325
3579.174	3263
3580.863	3283
3582.551	3255
3584.238	3249
3585.926	3232
3587.613	3221
3589.3	3204
3590.986	3172
3592.671	3172
3594.357	3215
3596.042	3190
3597.726	3199
3599.41	3218
3601.094	3163
3602.778	3147
3604.461	3132
3606.143	3164
3607.825	3225
3609.507	3170
3611.188	3197
3612.87	3098
3614.551	3225
3616.229	3132
3617.909	3140
3619.589	3102
3621.269	3178
3622.948	3095
3624.625	3117
3626.302	3170
3627.98	3120
3629.657	3055
3631.334	3111
3633.01	3025
3634.686	3068
3636.361	3102
3638.036	3083
3639.712	3103
3641.385	3057
3643.06	3073
3644.732	3043
3646.405	3017
3648.08	3188
3649.751	3060
3651.424	3095
3653.094	3018
3654.766	3046
3656.436	3065
3658.106	3021
3659.777	3002
3661.446	3049
3663.115	3050
3664.783	3034
3666.452	3045
3668.121	3002
3669.788	2979
3671.454	2951
3673.121	2958
3674.789	2981
3676.455	3018
3678.12	2995
3679.784	2989
3681.45	2938
3683.114	2979
3684.779	2946
3686.442	2947
3688.105	2944
3689.768	2958
3691.43	3011
3693.093	2943
3694.754	2896
3696.415	2981
3698.076	2954
3699.736	2873
3701.396	2927
3703.057	2960
3704.716	2970
3706.375	2949
3708.034	2908
3709.692	2882
3711.351	2898
3713.008	2937
3714.665	2917
3716.321	2875
3717.977	2848
3719.634	2970
3721.29	2940
3722.945	2908
3724.598	2931
3726.253	2918
3727.907	2938
3729.561	2972
3731.214	2989
3732.867	2871
3734.518	2871
3736.171	2925
3737.824	2832
3739.474	2912
3741.125	2843
3742.775	2950
3744.425	2895
3746.074	2868
3747.725	2954
3749.373	2866
3751.022	2913
3752.669	2906
3754.318	2802
3755.966	2799
3757.612	2854
3759.259	2869
3760.905	2839
3762.55	2956
3764.197	2821
3765.842	2827
3767.486	2820
3769.131	2867
3770.774	2855
3772.417	2738
3774.061	2864
3775.705	2799
3777.347	2835
3778.988	2811
3780.629	2799
3782.271	2768
3783.912	2787
3785.552	2854
3787.192	2798
3788.831	2841
3790.472	2803
3792.112	2861
3793.75	2800
3795.388	2802
3797.024	2769
3798.661	2863
3800.3	2743
3801.936	2758
3803.572	2747
3805.208	2752
3806.844	2764
3808.48	2837
3810.115	2753
3811.748	2825
3813.382	2780
3815.016	2820
3816.649	2819
3818.283	2699
3819.914	2743
3821.547	2835
3823.178	2765
3824.809	2779
3826.441	2729
3828.072	2734
3829.701	2784
3831.331	2778
3832.96	2754
3834.591	2735
3836.219	2722
3837.847	2735
3839.475	2672
3841.102	2813
3842.729	2749
3844.357	2712
3845.984	2723
3847.609	2709
3849.234	2744
3850.86	2657
3852.485	2669
3854.11	2698
3855.734	2684
3857.357	2701
3858.981	2708
3860.603	2836
3862.227	2708
3863.848	2739
3865.471	2699
3867.092	2703
3868.713	2682
3870.334	2625
3871.954	2655
3873.575	2659
3875.194	2665
3876.813	2731
3878.433	2704
3880.051	2650
3881.669	2622
3883.286	2697
3884.904	2684
3886.52	2648
3888.138	2666
3889.754	2654
3891.37	2705
3892.985	2686
3894.6	2628
3896.216	2667
3897.831	2666
3899.444	2679
3901.058	2626
3902.67	2655
3904.283	2666
3905.897	2624
3907.509	2662
3909.121	2595
3910.731	2624
3912.342	2614
3913.954	2579
3915.563	2633
3917.174	2602
3918.783	2605
3920.391	2598
3922.002	2597
3923.611	2601
3925.218	2509
3926.826	2704
3928.432	2605
3930.039	2602
3931.647	2693
3933.253	2616
3934.859	2550
3936.464	2597
3938.068	2556
3939.675	2594
3941.278	2594
3942.883	2619
3944.486	2608
3946.089	2671
3947.692	2587
3949.295	2719
3950.898	2575
3952.499	2628
3954.1	2603
3955.7	2602
3957.303	2551
3958.903	2597
3960.502	2551
3962.101	2508
3963.7	2596
3965.301	2549
3966.899	2605
3968.497	2521
3970.094	2498
3971.691	2585
3973.288	2516
3974.885	2657
3976.481	2523
3978.077	2575
3979.672	2542
3981.267	2562
3982.863	2526
3984.457	2503
3986.051	2457
3987.645	2617
3989.238	2567
3990.831	2551
3992.425	2446
3994.017	2542
3995.607	2476
3997.199	2486
3998.79	2433
4000.382	2462
4001.973	2474
4003.561	2500
4005.151	2563
4006.741	2461
4008.331	2431
4009.918	2493
4011.507	2500
4013.095	2459
4014.681	2453
4016.269	2461
4017.856	2493
4019.443	2452
4021.028	2492
4022.614	2450
4024.199	2491
4025.785	2516
4027.37	2430
4028.953	2437
4030.536	2436
4032.12	2494
4033.704	2402
4035.287	2474
4036.869	2483
4038.45	2426
4040.032	2395
4041.613	2379
4043.195	2451
4044.776	2414
4046.356	2431
4047.935	2483
4049.515	2395
4051.095	2392
4052.674	2426
4054.251	2482
4055.829	2445
4057.406	2431
4058.985	2384
4060.562	2370
4062.139	2354
4063.715	2421
4065.29	2393
4066.865	2445
4068.442	2426
4070.016	2373
4071.59	2370
4073.164	2345
4074.738	2384
4076.312	2413
4077.885	2359
4079.458	2386
4081.03	2346
4082.602	2399
4084.173	2324
4085.745	2320
4087.315	2371
4088.886	2378
4090.456	2382
4092.026	2312
4093.596	2353
4095.165	2399
4096.734	2367
4098.301	2360
4099.869	2294
4101.437	2346
4103.006	2332
4104.572	2360
4106.139	2305
4107.704	2341
4109.27	2399
4110.837	2318
4112.401	2307
4113.966	2328
4115.53	2291
4117.094	2357
4118.659	2329
4120.223	2294
4121.785	2346
4123.347	2296
4124.909	2318
4126.471	2234
4128.034	2311
4129.595	2283
4131.155	2266
4132.716	2318
4134.275	2299
4135.836	2359
4137.395	2276
4138.955	2277
4140.513	2293
4142.071	2281
4143.628	2271
4145.188	2220
4146.745	2225
4148.302	2308
4149.858	2266
4151.414	2286
4152.971	2233
4154.526	2294
4156.081	2275
4157.635	2237
4159.189	2295
4160.745	2197
4162.298	2249
4163.852	2240
4165.405	2224
4166.957	2234
4168.51	2176
4170.063	2270
4171.614	2318
4173.166	2259
4174.717	2246
4176.267	2231
4177.817	2267
4179.368	2201
4180.917	2219
4182.466	2227
4184.016	2204
4185.564	2192
4187.112	2200
4188.66	2223
4190.207	2175
4191.754	2194
4193.301	2218
4194.848	2229
4196.394	2163
4197.94	2169
4199.484	2231
4201.03	2203
4202.575	2170
4204.12	2178
4205.663	2187
4207.207	2114
4208.75	2186
4210.292	2157
4211.836	2155
4213.378	2213
4214.92	2135
4216.46	2199
4218.002	2196
4219.544	2173
4221.083	2132
4222.625	2135
4224.164	2187
4225.703	2145
4227.244	2173
4228.782	2114
4230.32	2204
4231.857	2147
4233.395	2153
4234.933	2177
4236.471	2171
4238.007	2177
4239.542	2173
4241.078	2227
4242.614	2131
4244.15	2156
4245.685	2177
4247.219	2145
4248.753	2134
4250.287	2127
4251.82	2121
4253.354	2205
4254.887	2150
4256.419	2145
4257.951	2115
4259.483	2125
4261.016	2153
4262.547	2133
4264.078	2152
4265.608	2115
4267.137	2098
4268.668	2126
4270.197	2094
4271.727	2071
4273.254	2162
4274.783	2088
4276.311	2179
4277.84	2116
4279.366	2106
4280.894	2076
4282.42	2079
4283.946	2083
4285.473	2117
4286.998	2092
4288.523	2101
4290.047	2081
4291.572	2103
4293.096	2123
4294.622	2072
4296.144	2092
4297.668	2050
4299.19	2115
4300.713	2064
4302.236	2123
4303.758	2157
4305.279	2041
4306.799	2035
4308.321	2120
4309.842	2058
4311.361	2063
4312.882	2103
4314.401	1998
