400.0961	2450
402.6185	2510
405.1424	2485
407.6635	2457
410.1838	2480
412.7035	2557
415.2225	2541
417.7388	2506
420.2585	2568
422.7754	2554
425.2917	2548
427.8072	2626
430.3221	2601
432.8363	2652
435.3498	2653
437.8626	2633
440.3727	2646
442.8841	2643
445.3969	2707
447.907	2627
450.4142	2681
452.9229	2630
455.4289	2662
457.9362	2717
460.4449	2654
462.9488	2639
465.454	2603
467.9566	2550
470.4604	2712
472.9637	2622
475.4662	2618
477.966	2677
480.4671	2617
482.9656	2674
485.4633	2658
487.9645	2600
490.4608	2656
492.9566	2646
495.4536	2704
497.948	2648
500.4437	2715
502.9387	2699
505.431	2713
507.9226	2761
510.4136	2688
512.9079	2670
515.3975	2760
517.8864	2749
520.3746	2637
522.8622	2658
525.3491	2657
527.8394	2770
530.3249	2713
532.8098	2761
535.2939	2708
537.7774	2705
540.2623	2737
542.7444	2644
545.2259	2708
547.7067	2698
550.1868	2762
552.6683	2751
555.147	2687
557.6231	2757
560.1005	2748
562.5773	2758
565.0534	2729
567.5308	2780
570.0056	2797
572.4776	2780
574.951	2717
577.4237	2834
579.8978	2845
582.3671	2812
584.8378	2801
587.3079	2827
589.7773	2877
592.244	2800
594.714	2757
597.1793	2855
599.6461	2833
602.1121	2744
604.5754	2758
607.0421	2855
609.5042	2758
611.9675	2809
614.4282	2863
616.8902	2792
619.3515	2734
621.8122	2755
624.2702	2770
626.7296	2778
629.1863	2815
631.6423	2654
634.1017	2752
636.5563	2761
639.0104	2749
641.4658	2769
643.9185	2800
646.3725	2768
648.8239	2860
651.2766	2865
653.7266	2847
656.176	2814
658.6247	2853
661.0748	2782
663.5242	2887
665.9709	2808
668.417	2881
670.8624	2796
673.3092	2866
675.7533	2874
678.1968	2775
680.6395	2861
683.0817	2796
685.5251	2838
687.9659	2863
690.4061	2880
692.8456	2792
695.2844	2904
697.7226	2857
700.1621	2880
702.599	2818
705.0332	2961
707.4688	2792
709.9036	2886
712.3399	2915
714.7735	2902
717.2044	2880
719.6367	2896
722.0683	2952
724.4993	2910
726.9296	3000
729.3593	2941
731.7883	2854
734.2147	3048
736.6423	2896
739.0714	3031
741.4958	3009
743.9216	2958
746.3447	3085
748.7691	3041
751.1929	3010
753.616	3016
756.0366	3006
758.4584	3080
760.8776	3034
763.2982	3114
765.718	3058
768.1373	2979
770.5539	3064
772.9698	3023
775.3871	3029
777.8038	3017
780.2178	3036
782.6332	3067
785.0459	3049
787.458	3079
789.8714	3112
792.2842	3085
794.6943	3076
797.1038	3109
799.5127	3028
801.9209	3059
804.3324	3019
806.7393	3010
809.1456	3088
811.5513	3105
813.9562	3048
816.3625	3146
818.7663	3070
821.1693	3090
823.5718	3113
825.9735	3092
828.3746	3097
830.7771	3041
833.177	3084
835.5762	3071
837.9747	3132
840.3727	3137
842.772	3178
845.1666	3109
847.5626	3198
849.958	3169
852.3527	3263
854.7488	3170
857.1403	3163
859.5331	3178
861.9253	3121
864.3168	3156
866.7057	3156
869.098	3181
871.4876	3157
873.8746	3156
876.263	3183
878.6487	3155
881.0378	3184
883.4243	3208
885.8081	3139
888.1933	3138
890.5759	3157
892.9598	3147
895.343	3125
897.7256	3147
900.1057	3148
902.4871	3120
904.8659	3245
907.246	3213
909.6254	3186
912.0023	3218
914.3786	3176
916.7562	3238
919.1331	3317
921.5074	3299
923.8831	3392
926.2562	3288
928.6287	3404
931.0005	3286
933.3757	3305
935.7462	3323
938.1162	3357
940.4855	3461
942.8542	3350
945.2242	3467
947.5916	3587
949.9584	3608
952.3266	3655
954.6921	3721
957.0571	3799
959.4233	4022
961.787	3999
964.15	4011
966.5125	3916
968.8742	3854
971.2354	3675
973.5959	3558
975.9559	3441
978.3151	3324
980.6738	3404
983.0338	3294
985.3912	3361
987.7461	3228
990.1022	3265
992.4578	3187
994.8127	3318
997.1689	3256
999.5207	3353
1001.874	3304
1004.226	3218
1006.576	3339
1008.929	3245
1011.28	3327
1013.628	3355
1015.977	3360
1018.324	3336
1020.674	3316
1023.019	3253
1025.366	3319
1027.713	3292
1030.056	3328
1032.399	3330
1034.746	3334
1037.087	3366
1039.431	3334
1041.771	3356
1044.113	3347
1046.454	3331
1048.793	3319
1051.133	3387
1053.471	3360
1055.807	3364
1058.146	3376
1060.483	3393
1062.818	3401
1065.153	3425
1067.489	3381
1069.822	3470
1072.156	3413
1074.488	3398
1076.82	3455
1079.15	3413
1081.48	3364
1083.814	3424
1086.143	3347
1088.471	3359
1090.799	3379
1093.126	3340
1095.452	3333
1097.78	3358
1100.105	3424
1102.43	3437
1104.754	3439
1107.077	3408
1109.4	3348
1111.722	3341
1114.044	3369
1116.365	3424
1118.685	3378
1121.005	3437
1123.324	3408
1125.643	3411
1127.961	3372
1130.278	3360
1132.595	3357
1134.911	3358
1137.226	3411
1139.541	3347
1141.854	3316
1144.167	3372
1146.482	3381
1148.793	3354
1151.105	3452
1153.414	3414
1155.725	3428
1158.033	3379
1160.344	3342
1162.651	3325
1164.959	3351
1167.265	3374
1169.572	3493
1171.878	3360
1174.184	3338
1176.488	3479
1178.79	3376
1181.094	3411
1183.396	3337
1185.699	3429
1188.001	3390
1190.301	3416
1192.6	3395
1194.9	3403
1197.2	3370
1199.497	3345
1201.794	3413
1204.09	3481
1206.387	3451
1208.684	3438
1210.978	3432
1213.272	3426
1215.565	3480
1217.858	3444
1220.15	3440
1222.443	3430
1224.734	3440
1227.024	3487
1229.313	3422
1231.602	3493
1233.892	3416
1236.18	3553
1238.467	3570
1240.754	3564
1243.04	3455
1245.325	3617
1247.612	3582
1249.896	3564
1252.178	3451
1254.461	3532
1256.743	3524
1259.027	3511
1261.308	3526
1263.587	3494
1265.867	3601
1268.146	3564
1270.425	3522
1272.703	3561
1274.981	3576
1277.256	3558
1279.532	3503
1281.808	3579
1284.083	3565
1286.358	3518
1288.63	3553
1290.904	3446
1293.175	3567
1295.449	3563
1297.719	3520
1299.99	3516
1302.259	3473
1304.529	3511
1306.798	3546
1309.065	3464
1311.333	3466
1313.599	3529
1315.866	3578
1318.131	3399
1320.396	3571
1322.66	3512
1324.925	3464
1327.187	3519
1329.448	3573
1331.711	3544
1333.974	3614
1336.234	3572
1338.493	3561
1340.752	3547
1343.01	3516
1345.269	3556
1347.526	3512
1349.784	3465
1352.04	3549
1354.295	3462
1356.552	3447
1358.806	3515
1361.059	3509
1363.312	3509
1365.564	3403
1367.818	3481
1370.069	3486
1372.318	3514
1374.568	3573
1376.817	3588
1379.066	3582
1381.316	3565
1383.564	3541
1385.809	3523
1388.056	3613
1390.301	3660
1392.549	3555
1394.793	3675
1397.036	3583
1399.279	3687
1401.522	3673
1403.763	3608
1406.007	3611
1408.248	3538
1410.487	3537
1412.727	3644
1414.965	3550
1417.205	3540
1419.442	3627
1421.68	3615
1423.915	3601
1426.152	3617
1428.388	3614
1430.623	3674
1432.857	3632
1435.091	3680
1437.323	3749
1439.556	3675
1441.789	3643
1444.019	3729
1446.25	3687
1448.48	3738
1450.708	3698
1452.938	3743
1455.167	3683
1457.394	3781
1459.62	3758
1461.846	3772
1464.073	3737
1466.299	3646
1468.523	3688
1470.746	3604
1472.969	3655
1475.191	3680
1477.415	3611
1479.636	3578
1481.858	3526
1484.078	3566
1486.298	3604
1488.518	3604
1490.736	3575
1492.954	3526
1495.169	3490
1497.386	3545
1499.602	3519
1501.819	3545
1504.034	3523
1506.248	3549
1508.462	3515
1510.675	3594
1512.888	3578
1515.1	3493
1517.311	3549
1519.522	3446
1521.732	3429
1523.942	3565
1526.151	3545
1528.36	3554
1530.566	3511
1532.773	3567
1534.98	3593
1537.187	3532
1539.392	3530
1541.596	3575
1543.801	3517
1546.005	3529
1548.208	3496
1550.411	3569
1552.612	3583
1554.814	3558
1557.013	3575
1559.212	3625
1561.414	3600
1563.612	3533
1565.811	3566
1568.007	3628
1570.203	3614
1572.403	3571
1574.598	3550
1576.792	3596
1578.988	3540
1581.181	3602
1583.376	3614
1585.568	3656
1587.761	3661
1589.952	3692
1592.143	3663
1594.333	3659
1596.524	3749
1598.715	3709
1600.903	3659
1603.091	3660
1605.278	3652
1607.466	3642
1609.652	3756
1611.838	3678
1614.023	3615
1616.207	3714
1618.391	3611
1620.576	3644
1622.759	3737
1624.941	3677
1627.123	3608
1629.304	3703
1631.484	3708
1633.664	3681
1635.844	3714
1638.022	3771
1640.201	3736
1642.38	3712
1644.556	3784
1646.732	3781
1648.908	3657
1651.084	3807
1653.257	3700
1655.433	3762
1657.607	3713
1659.779	3740
1661.951	3763
1664.122	3736
1666.295	3757
1668.467	3746
1670.635	3763
1672.805	3768
1674.973	3741
1677.142	3749
1679.31	3736
1681.478	3742
1683.644	3768
1685.81	3854
1687.975	3741
1690.142	3744
1692.305	3706
1694.468	3803
1696.632	3654
1698.794	3748
1700.957	3708
1703.119	3632
1705.279	3751
1707.439	3582
1709.598	3693
1711.758	3653
1713.917	3599
1716.075	3645
1718.231	3682
1720.388	3689
1722.543	3629
1724.702	3680
1726.856	3685
1729.01	3614
1731.164	3654
1733.317	3669
1735.471	3685
1737.623	3641
1739.774	3620
1741.925	3702
1744.075	3618
1746.225	3642
1748.376	3672
1750.524	3643
1752.672	3748
1754.82	3655
1756.965	3627
1759.113	3657
1761.259	3644
1763.405	3711
1765.549	3693
1767.694	3751
1769.836	3676
1771.981	3650
1774.123	3666
1776.264	3715
1778.405	3643
1780.546	3787
1782.687	3716
1784.827	3763
1786.966	3724
1789.103	3639
1791.242	3788
1793.381	3781
1795.517	3721
1797.653	3751
1799.788	3663
1801.923	3652
1804.057	3678
1806.193	3694
1808.326	3720
1810.457	3651
1812.59	3701
1814.721	3703
1816.855	3678
1818.984	3657
1821.113	3779
1823.244	3679
1825.372	3684
1827.499	3725
1829.63	3629
1831.756	3667
1833.882	3694
1836.007	3714
1838.132	3699
1840.26	3691
1842.384	3711
1844.507	3626
1846.63	3710
1848.752	3727
1850.875	3733
1852.996	3714
1855.118	3674
1857.238	3598
1859.358	3693
1861.477	3653
1863.597	3620
1865.715	3654
1867.832	3664
1869.948	3781
1872.064	3698
1874.181	3735
1876.297	3692
1878.411	3646
1880.526	3670
1882.639	3705
1884.752	3650
1886.865	3697
1888.977	3783
1891.089	3727
1893.2	3742
1895.308	3736
1897.42	3755
1899.53	3766
1901.639	3728
1903.745	3709
1905.853	3686
1907.962	3681
1910.067	3711
1912.174	3744
1914.278	3688
1916.383	3761
1918.486	3779
1920.592	3872
1922.694	3719
1924.797	3725
1926.898	3729
1929	3844
1931.102	3768
1933.203	3771
1935.301	3723
1937.401	3726
1939.499	3758
1941.598	3748
1943.697	3825
1945.793	3830
1947.888	3761
1949.985	3787
1952.08	3732
1954.176	3711
1956.269	3813
1958.364	3742
1960.457	3725
1962.549	3875
1964.642	3787
1966.733	3710
1968.823	3828
1970.913	3728
1973.005	3693
1975.093	3726
1977.184	3737
1979.271	3730
1981.359	3757
1983.446	3684
1985.532	3774
1987.619	3699
1989.705	3733
1991.789	3694
1993.874	3709
1995.956	3785
1998.041	3720
2000.123	3785
2002.206	3778
2004.287	3845
2006.368	3736
2008.449	3726
2010.529	3721
2012.609	3741
2014.688	3782
2016.766	3715
2018.843	3789
2020.922	3743
2022.999	3675
2025.074	3716
2027.15	3700
2029.225	3627
2031.299	3703
2033.375	3745
2035.447	3698
2037.52	3694
2039.592	3831
2041.664	3715
2043.736	3674
2045.807	3757
2047.876	3648
2049.947	3791
2052.015	3767
2054.086	3593
2056.153	3692
2058.221	3764
2060.288	3774
2062.353	3727
2064.42	3723
2066.486	3723
2068.55	3769
2070.614	3726
2072.678	3796
2074.741	3700
2076.805	3712
2078.866	3806
2080.929	3799
2082.99	3721
2085.049	3724
2087.109	3809
2089.17	3738
2091.228	3639
2093.286	3763
2095.344	3784
2097.4	3821
2099.46	3720
2101.516	3775
2103.572	3736
2105.626	3664
2107.679	3803
2109.735	3710
2111.788	3753
2113.841	3810
2115.894	3685
2117.945	3718
2119.997	3691
2122.049	3707
2124.1	3728
2126.148	3803
2128.197	3674
2130.246	3849
2132.296	3727
2134.342	3673
2136.39	3694
2138.437	3715
2140.483	3821
2142.527	3708
2144.574	3764
2146.619	3798
2148.661	3714
2150.705	3705
2152.747	3756
2154.792	3673
2156.832	3744
2158.874	3765
2160.915	3719
2162.954	3715
2164.995	3719
2167.034	3774
2169.072	3740
2171.111	3739
2173.148	3775
2175.186	3679
2177.223	3690
2179.258	3646
2181.294	3827
2183.328	3728
2185.362	3735
2187.398	3605
2189.431	3688
2191.463	3712
2193.495	3717
2195.528	3654
2197.56	3694
2199.59	3719
2201.62	3756
2203.649	3670
2205.678	3659
2207.708	3667
2209.737	3776
2211.764	3632
2213.791	3639
2215.817	3707
2217.843	3665
2219.87	3690
2221.895	3699
2223.919	3660
2225.942	3642
2227.966	3699
2229.988	3648
2232.012	3646
2234.032	3643
2236.054	3659
2238.074	3564
2240.095	3620
2242.116	3721
2244.135	3721
2246.153	3717
2248.171	3625
2250.188	3600
2252.208	3670
2254.223	3653
2256.239	3743
2258.255	3675
2260.269	3690
2262.283	3752
2264.3	3717
2266.312	3620
2268.325	3614
2270.336	3669
2272.349	3659
2274.362	3655
2276.372	3691
2278.383	3631
2280.392	3651
2282.402	3637
2284.409	3682
2286.418	3711
2288.427	3671
2290.433	3683
2292.441	3632
2294.446	3650
2296.453	3647
2298.459	3677
2300.463	3684
2302.466	3629
2304.471	3685
2306.475	3680
2308.477	3572
2310.478	3569
2312.481	3735
2314.481	3717
2316.481	3714
2318.482	3599
2320.482	3711
2322.48	3675
2324.48	3670
2326.478	3625
2328.476	3655
2330.473	3590
2332.469	3705
2334.465	3659
2336.46	3654
2338.454	3578
2340.45	3544
2342.444	3747
2344.437	3735
2346.43	3584
2348.421	3662
2350.414	3569
2352.405	3563
2354.396	3642
2356.386	3537
2358.376	3639
2360.366	3655
2362.355	3724
2364.343	3679
2366.331	3714
2368.317	3643
2370.304	3612
2372.292	3663
2374.278	3623
2376.262	3542
2378.247	3594
2380.23	3633
2382.216	3601
2384.199	3512
2386.181	3523
2388.163	3626
2390.144	3558
2392.127	3619
2394.107	3544
2396.087	3572
2398.066	3540
2400.046	3601
2402.023	3578
2404.004	3640
2405.981	3488
2407.957	3602
2409.934	3564
2411.91	3566
2413.886	3579
2415.862	3574
2417.836	3547
2419.809	3418
2421.784	3599
2423.756	3566
2425.73	3590
2427.701	3476
2429.672	3605
2431.644	3577
2433.615	3561
2435.586	3545
2437.555	3683
2439.523	3598
2441.491	3540
2443.459	3564
2445.428	3532
2447.395	3587
2449.361	3585
2451.327	3511
2453.292	3534
2455.257	3580
2457.223	3527
2459.187	3473
2461.15	3529
2463.113	3551
2465.076	3459
2467.039	3547
2468.999	3574
2470.96	3467
2472.921	3622
2474.881	3626
2476.841	3484
2478.8	3499
2480.759	3621
2482.717	3468
2484.675	3512
2486.63	3514
2488.589	3575
2490.545	3513
2492.5	3452
2494.455	3484
2496.408	3496
2498.364	3576
2500.318	3541
2502.27	3492
2504.223	3486
2506.174	3508
2508.126	3485
2510.078	3529
2512.03	3546
2513.979	3585
2515.927	3485
2517.877	3513
2519.826	3531
2521.775	3556
2523.722	3565
2525.668	3565
2527.616	3513
2529.561	3478
2531.508	3515
2533.452	3465
2535.398	3522
2537.342	3425
2539.284	3420
2541.229	3611
2543.173	3436
2545.114	3509
2547.055	3475
2548.996	3474
2550.938	3470
2552.878	3504
2554.817	3489
2556.756	3466
2558.695	3542
2560.633	3521
2562.572	3536
2564.509	3527
2566.445	3478
2568.382	3532
2570.317	3519
2572.254	3492
2574.189	3497
2576.123	3489
2578.057	3482
2579.99	3544
2581.923	3516
2583.855	3452
2585.788	3490
2587.719	3430
2589.65	3501
2591.579	3526
2593.511	3525
2595.44	3576
2597.37	3479
2599.297	3548
2601.225	3568
2603.153	3503
2605.08	3566
2607.007	3530
2608.932	3552
2610.858	3527
2612.782	3542
2614.709	3494
2616.632	3522
2618.556	3545
2620.478	3493
2622.401	3579
2624.324	3531
2626.247	3509
2628.167	3516
2630.088	3556
2632.008	3492
2633.928	3564
2635.848	3542
2637.766	3556
2639.684	3544
2641.603	3571
2643.519	3504
2645.437	3549
2647.353	3546
2649.27	3532
2651.184	3533
2653.099	3528
2655.014	3500
2656.928	3485
2658.842	3488
2660.755	3451
2662.667	3538
2664.579	3514
2666.491	3495
2668.402	3554
2670.312	3553
2672.222	3540
2674.132	3591
2676.042	3545
2677.951	3523
2679.859	3505
2681.766	3523
2683.674	3489
2685.582	3511
2687.488	3445
2689.392	3568
2691.298	3511
2693.202	3561
2695.107	3510
2697.012	3503
2698.914	3451
2700.817	3504
2702.72	3438
2704.622	3525
2706.524	3542
2708.425	3464
2710.326	3435
2712.225	3513
2714.125	3439
2716.024	3466
2717.923	3545
2719.822	3484
2721.719	3458
2723.616	3516
2725.512	3480
2727.41	3410
2729.305	3468
2731.201	3455
2733.095	3415
2734.99	3443
2736.884	3444
2738.778	3468
2740.67	3473
2742.562	3533
2744.455	3476
2746.346	3421
2748.238	3410
2750.129	3507
2752.018	3435
2753.907	3449
2755.797	3507
2757.687	3477
2759.575	3463
2761.462	3521
2763.349	3441
2765.237	3455
2767.124	3520
2769.009	3433
2770.894	3463
2772.779	3484
2774.663	3502
2776.547	3467
2778.431	3416
2780.314	3524
2782.197	3450
2784.078	3432
2785.96	3416
2787.842	3433
2789.723	3479
2791.603	3511
2793.483	3435
2795.362	3401
2797.241	3411
2799.121	3460
2800.997	3409
2802.874	3442
2804.751	3409
2806.628	3435
2808.506	3421
2810.38	3406
2812.255	3528
2814.13	3405
2816.003	3450
2817.878	3472
2819.752	3479
2821.623	3479
2823.496	3418
2825.368	3436
2827.238	3433
2829.111	3423
2830.98	3456
2832.851	3459
2834.719	3490
2836.589	3502
2838.458	3417
2840.327	3342
2842.193	3482
2844.061	3471
2845.927	3540
2847.794	3528
2849.66	3487
2851.525	3513
2853.39	3521
2855.254	3539
2857.117	3545
2858.983	3585
2860.845	3534
2862.707	3550
2864.569	3658
2866.431	3586
2868.293	3556
2870.154	3659
2872.013	3719
2873.873	3633
2875.733	3588
2877.592	3742
2879.451	3640
2881.309	3820
2883.166	3724
2885.022	3842
2886.879	3858
2888.736	3783
2890.591	3808
2892.446	3844
2894.301	3980
2896.155	3838
2898.009	3924
2899.863	3919
2901.716	3828
2903.568	3841
2905.419	3803
2907.27	3723
2909.123	3814
2910.973	3808
2912.824	3940
2914.673	3776
2916.521	3809
2918.372	3895
2920.22	3949
2922.067	3986
2923.914	4000
2925.761	3969
2927.607	4017
2929.455	3966
2931.301	4032
2933.144	3990
2934.99	4160
2936.833	4042
2938.678	4227
2940.522	4063
2942.364	4218
2944.207	4184
2946.048	4376
2947.891	4354
2949.731	4382
2951.571	4454
2953.412	4400
2955.25	4307
2957.09	4333
2958.93	4251
2960.767	4348
2962.606	4255
2964.443	4248
2966.279	4268
2968.116	4056
2969.953	4112
2971.788	4025
2973.623	3958
2975.457	4024
2977.292	3897
2979.127	3943
2980.959	3898
2982.792	3765
2984.624	3832
2986.455	3711
2988.288	3756
2990.119	3739
2991.949	3620
2993.779	3718
2995.608	3674
2997.439	3640
2999.268	3709
3001.096	3598
3002.923	3568
3004.751	3568
3006.578	3475
3008.406	3516
3010.232	3559
3012.057	3497
3013.883	3466
3015.706	3432
3017.532	3474
3019.356	3403
3021.179	3427
3023.002	3330
3024.823	3471
3026.646	3397
3028.469	3345
3030.289	3343
3032.11	3381
3033.93	3315
3035.749	3319
3037.57	3266
3039.39	3359
3041.207	3263
3043.026	3333
3044.842	3300
3046.661	3252
3048.477	3290
3050.294	3242
3052.109	3249
3053.925	3237
3055.739	3275
3057.555	3348
3059.368	3301
3061.181	3285
3062.995	3297
3064.807	3260
3066.62	3303
3068.433	3260
3070.243	3349
3072.054	3231
3073.865	3247
3075.675	3245
3077.485	3289
3079.293	3409
3081.102	3242
3082.911	3239
3084.719	3229
3086.527	3270
3088.333	3216
3090.139	3164
3091.945	3173
3093.75	3283
3095.557	3252
3097.361	3153
3099.165	3169
3100.969	3240
3102.772	3250
3104.575	3242
3106.379	3246
3108.181	3208
3109.982	3171
3111.783	3211
3113.584	3168
3115.386	3236
3117.186	3218
3118.985	3141
3120.783	3162
3122.582	3214
3124.381	3190
3126.179	3156
3127.975	3099
3129.772	3140
3131.569	3137
3133.365	3161
3135.161	3142
3136.956	3168
3138.751	3161
3140.544	3084
3142.338	3187
3144.132	3135
3145.925	3159
3147.717	3125
3149.509	3185
3151.301	3111
3153.091	3160
3154.884	3080
3156.673	3173
3158.462	3103
3160.252	3105
3162.041	3176
3163.831	3091
3165.618	3056
3167.405	3136
3169.193	3045
3170.979	3135
3172.767	3108
3174.553	3182
3176.338	3123
3178.123	3152
3179.907	3120
3181.692	3126
3183.477	3074
3185.259	3043
3187.042	3170
3188.824	3114
3190.607	3127
3192.389	3100
3194.17	3034
3195.951	3090
3197.73	3136
3199.51	3048
3201.289	3056
3203.07	3073
3204.848	3127
3206.626	3161
3208.403	3116
3210.18	3100
3211.959	3064
3213.735	3092
3215.511	3118
3217.285	3124
3219.06	3144
3220.836	3057
3222.611	3084
3224.384	3092
3226.158	3039
3227.929	3094
3229.702	3115
3231.476	3129
3233.248	3183
3235.018	3062
3236.789	3135
3238.56	3088
3240.33	3065
3242.1	3076
3243.869	3093
3245.637	3137
3247.405	3148
3249.172	3120
3250.941	3087
3252.707	3078
3254.474	3159
3256.24	3122
3258.006	3087
3259.772	3120
3261.537	3107
3263.301	3152
3265.065	3080
3266.828	3063
3268.592	3057
3270.355	3155
3272.117	3111
3273.878	3103
3275.64	3067
3277.401	3055
3279.162	3105
3280.922	3142
3282.682	3159
3284.441	3115
3286.199	3039
3287.959	3135
3289.716	3096
3291.475	3108
3293.232	3110
3294.988	3046
3296.744	3094
3298.501	3094
3300.256	3063
3302.011	3140
3303.766	3143
3305.52	3036
3307.275	3111
3309.028	3070
3310.781	3086
3312.533	3099
3314.285	3136
3316.038	3143
3317.789	3135
3319.54	3114
3321.289	3132
3323.039	3107
3324.789	3065
3326.539	3036
3328.288	3073
3330.035	3126
3331.783	3102
3333.531	3096
3335.28	3108
3337.025	3097
3338.771	3084
3340.518	3081
3342.262	3067
3344.009	3171
3345.753	3106
3347.497	3092
3349.24	3128
3350.983	3090
3352.726	3106
3354.469	3070
3356.212	3112
3357.952	3021
3359.694	3021
3361.434	3080
3363.176	3043
3364.916	3023
3366.654	2979
3368.394	3014
3370.132	3010
3371.871	3102
3373.61	3001
3375.346	3019
3377.083	3027
3378.82	2992
3380.556	2974
3382.292	3011
3384.027	2992
3385.763	3018
3387.497	3062
3389.231	2989
3390.965	2954
3392.698	2978
3394.431	3019
3396.164	2987
3397.896	3012
3399.627	2975
3401.36	3010
3403.09	2975
3404.82	2955
3406.55	2975
3408.279	2849
3410.01	3042
3411.738	2998
3413.467	2917
3415.194	2989
3416.92	2917
3418.647	2958
3420.375	2945
3422.102	2935
3423.827	2911
3425.553	3018
3427.277	2987
3429.003	2965
3430.727	2884
3432.451	2904
3434.173	2900
3435.896	2997
3437.62	2972
3439.343	2910
3441.063	2929
3442.785	2938
3444.505	2907
3446.226	2889
3447.948	2953
3449.666	2925
3451.386	2804
3453.104	2872
3454.823	2957
3456.541	2930
3458.259	2782
3459.976	2901
3461.693	2893
3463.408	2885
3465.125	2903
3466.841	2900
3468.556	2888
3470.271	2881
3471.985	2871
3473.698	2840
3475.414	2884
3477.126	2754
3478.838	2876
3480.55	2826
3482.263	2823
3483.975	2838
3485.686	2782
3487.396	2829
3489.106	2800
3490.817	2785
3492.526	2711
3494.236	2803
3495.944	2789
3497.652	2813
3499.359	2727
3501.066	2723
3502.775	2754
3504.481	2764
3506.187	2778
3507.893	2846
3509.598	2722
3511.304	2799
3513.009	2758
3514.713	2809
3516.417	2754
3518.12	2776
3519.821	2723
3521.525	2766
3523.228	2848
3524.929	2776
3526.631	2813
3528.33	2745
3530.032	2814
3531.733	2768
3533.433	2838
3535.131	2796
3536.83	2723
3538.529	2744
3540.227	2761
3541.925	2711
3543.623	2766
3545.319	2745
3547.016	2692
3548.712	2688
3550.408	2793
3552.103	2767
3553.798	2684
3555.491	2758
3557.188	2704
3558.88	2617
3560.574	2637
3562.266	2771
3563.959	2688
3565.651	2671
3567.343	2676
3569.035	2749
3570.725	2692
3572.415	2699
3574.106	2686
3575.797	2620
3577.485	2713
3579.174	2694
3580.863	2711
3582.551	2647
3584.238	2727
3585.926	2644
3587.613	2653
3589.3	2648
3590.986	2599
3592.671	2571
3594.357	2651
3596.042	2700
3597.726	2652
3599.41	2674
3601.094	2586
3602.778	2642
3604.461	2602
3606.143	2638
3607.825	2580
3609.507	2630
3611.188	2627
3612.87	2569
3614.551	2541
3616.229	2598
3617.909	2611
3619.589	2553
3621.269	2628
3622.948	2561
3624.625	2596
3626.302	2560
3627.98	2595
3629.657	2578
3631.334	2571
3633.01	2509
3634.686	2605
3636.361	2568
3638.036	2585
3639.712	2532
3641.385	2481
3643.06	2551
3644.732	2511
3646.405	2522
3648.08	2554
3649.751	2496
3651.424	2521
3653.094	2521
3654.766	2521
3656.436	2532
3658.106	2582
3659.777	2509
3661.446	2532
3663.115	2489
3664.783	2417
3666.452	2485
3668.121	2519
3669.788	2515
3671.454	2487
3673.121	2486
3674.789	2526
3676.455	2470
3678.12	2507
3679.784	2527
3681.45	2526
3683.114	2473
3684.779	2488
3686.442	2465
3688.105	2453
3689.768	2435
3691.43	2482
3693.093	2472
3694.754	2382
3696.415	2459
3698.076	2519
3699.736	2424
3701.396	2500
3703.057	2422
3704.716	2496
3706.375	2495
3708.034	2504
3709.692	2480
3711.351	2453
3713.008	2482
3714.665	2496
3716.321	2481
3717.977	2463
3719.634	2461
3721.29	2439
3722.945	2466
3724.598	2424
3726.253	2392
3727.907	2462
3729.561	2448
3731.214	2457
3732.867	2463
3734.518	2438
3736.171	2466
3737.824	2438
3739.474	2433
3741.125	2386
3742.775	2387
3744.425	2424
3746.074	2430
3747.725	2449
3749.373	2435
3751.022	2489
3752.669	2434
3754.318	2413
3755.966	2407
3757.612	2394
3759.259	2409
3760.905	2458
3762.55	2403
3764.197	2385
3765.842	2402
3767.486	2364
3769.131	2465
3770.774	2432
3772.417	2383
3774.061	2347
3775.705	2370
3777.347	2386
3778.988	2313
3780.629	2403
3782.271	2360
3783.912	2341
3785.552	2393
3787.192	2380
3788.831	2404
3790.472	2284
3792.112	2410
3793.75	2366
3795.388	2402
3797.024	2419
3798.661	2355
3800.3	2390
3801.936	2315
3803.572	2368
3805.208	2342
3806.844	2287
3808.48	2351
3810.115	2285
3811.748	2298
3813.382	2328
3815.016	2353
3816.649	2380
3818.283	2316
3819.914	2326
3821.547	2347
3823.178	2342
3824.809	2301
3826.441	2311
3828.072	2271
3829.701	2365
3831.331	2280
3832.96	2341
3834.591	2292
3836.219	2267
3837.847	2303
3839.475	2401
3841.102	2353
3842.729	2271
3844.357	2272
3845.984	2282
3847.609	2296
3849.234	2276
3850.86	2254
3852.485	2312
3854.11	2244
3855.734	2237
3857.357	2282
3858.981	2333
3860.603	2318
3862.227	2226
3863.848	2249
3865.471	2273
3867.092	2315
3868.713	2306
3870.334	2296
3871.954	2289
3873.575	2234
3875.194	2248
3876.813	2281
3878.433	2241
3880.051	2273
3881.669	2244
3883.286	2248
3884.904	2224
3886.52	2255
3888.138	2240
3889.754	2262
3891.37	2205
3892.985	2277
3894.6	2313
3896.216	2264
3897.831	2267
3899.444	2282
3901.058	2256
3902.67	2236
3904.283	2320
3905.897	2187
3907.509	2215
3909.121	2249
3910.731	2252
3912.342	2180
3913.954	2318
3915.563	2244
3917.174	2225
3918.783	2238
3920.391	2276
3922.002	2233
3923.611	2247
3925.218	2227
3926.826	2281
3928.432	2276
3930.039	2186
3931.647	2241
3933.253	2222
3934.859	2227
3936.464	2218
3938.068	2190
3939.675	2214
3941.278	2222
3942.883	2262
3944.486	2196
3946.089	2188
3947.692	2253
3949.295	2251
3950.898	2195
3952.499	2160
3954.1	2157
3955.7	2152
3957.303	2192
3958.903	2189
3960.502	2224
3962.101	2245
3963.7	2200
3965.301	2224
3966.899	2147
3968.497	2158
3970.094	2193
3971.691	2253
3973.288	2202
3974.885	2153
3976.481	2198
3978.077	2171
3979.672	2144
3981.267	2106
3982.863	2154
3984.457	2163
3986.051	2171
3987.645	2190
3989.238	2187
3990.831	2177
3992.425	2097
3994.017	2217
3995.607	2166
3997.199	2156
3998.79	2104
4000.382	2055
4001.973	2155
4003.561	2150
4005.151	2174
4006.741	2096
4008.331	2191
4009.918	2033
4011.507	2129
4013.095	2114
4014.681	2075
4016.269	2071
4017.856	2100
4019.443	2121
4021.028	2094
4022.614	2053
4024.199	2139
4025.785	2119
4027.37	2057
4028.953	2084
4030.536	2106
4032.12	2101
4033.704	2095
4035.287	2103
4036.869	2101
4038.45	2085
4040.032	2099
4041.613	2131
4043.195	2077
4044.776	2001
4046.356	2093
4047.935	2064
4049.515	2058
4051.095	2025
4052.674	2064
4054.251	2093
4055.829	2065
4057.406	2100
4058.985	2064
4060.562	2073
4062.139	2041
4063.715	2056
4065.29	2116
4066.865	2003
4068.442	2079
4070.016	2010
4071.59	2072
4073.164	2016
4074.738	2069
4076.312	2060
4077.885	2030
4079.458	2042
4081.03	1980
4082.602	2061
4084.173	2043
4085.745	2053
4087.315	1975
4088.886	2045
4090.456	2071
4092.026	2060
4093.596	2006
4095.165	1991
4096.734	2022
4098.301	2080
4099.869	2025
4101.437	1997
4103.006	2057
4104.572	2050
4106.139	2046
4107.704	2014
4109.27	2014
4110.837	1982
4112.401	1996
4113.966	1940
4115.53	1957
4117.094	2024
4118.659	1989
4120.223	1928
4121.785	1994
4123.347	2069
4124.909	1935
4126.471	2031
4128.034	1980
4129.595	1990
4131.155	1992
4132.716	1955
4134.275	1924
4135.836	1996
4137.395	1976
4138.955	1975
4140.513	1954
4142.071	1945
4143.628	2001
4145.188	1945
4146.745	1950
4148.302	1905
4149.858	1951
4151.414	1959
4152.971	1948
4154.526	1962
4156.081	1975
4157.635	1948
4159.189	1911
4160.745	1948
4162.298	1901
4163.852	1977
4165.405	1948
4166.957	1925
4168.51	1919
4170.063	1930
4171.614	1888
4173.166	1932
4174.717	1873
4176.267	1928
4177.817	1930
4179.368	1905
4180.917	1919
4182.466	1957
4184.016	1911
4185.564	1938
4187.112	1912
4188.66	1982
4190.207	1920
4191.754	1909
4193.301	1928
4194.848	1893
4196.394	1939
4197.94	1919
4199.484	1936
4201.03	1927
4202.575	1896
4204.12	1932
4205.663	1906
4207.207	1867
4208.75	1908
4210.292	1920
4211.836	1885
4213.378	1876
4214.92	1858
4216.46	1894
4218.002	1868
4219.544	1865
4221.083	1876
4222.625	1911
4224.164	1865
4225.703	1841
4227.244	1844
4228.782	1855
4230.32	1884
4231.857	1864
4233.395	1877
4234.933	1886
4236.471	1842
4238.007	1881
4239.542	1847
4241.078	1870
4242.614	1833
4244.15	1892
4245.685	1884
4247.219	1828
4248.753	1856
4250.287	1847
4251.82	1901
4253.354	1912
4254.887	1811
4256.419	1874
4257.951	1841
4259.483	1833
4261.016	1850
4262.547	1840
4264.078	1819
4265.608	1830
4267.137	1869
4268.668	1875
4270.197	1852
4271.727	1833
4273.254	1826
4274.783	1815
4276.311	1833
4277.84	1860
4279.366	1812
4280.894	1816
4282.42	1843
4283.946	1837
4285.473	1842
4286.998	1813
4288.523	1839
4290.047	1806
4291.572	1834
4293.096	1849
4294.622	1830
4296.144	1816
4297.668	1788
4299.19	1777
4300.713	1833
4302.236	1794
4303.758	1831
4305.279	1788
4306.799	1852
4308.321	1792
4309.842	1824
4311.361	1827
4312.882	1811
4314.401	1799
