400.0961	5501
402.6185	5628
405.1424	5589
407.6635	5629
410.1838	5669
412.7035	5595
415.2225	5655
417.7388	5692
420.2585	5735
422.7754	5802
425.2917	5982
427.8072	5844
430.3221	5863
432.8363	5870
435.3498	5998
437.8626	5940
440.3727	5911
442.8841	5946
445.3969	5980
447.907	6006
450.4142	6022
452.9229	5960
455.4289	6033
457.9362	5908
460.4449	5991
462.9488	6010
465.454	5998
467.9566	5997
470.4604	6127
472.9637	5963
475.4662	6106
477.966	6058
480.4671	6030
482.9656	6053
485.4633	6033
487.9645	6113
490.4608	6084
492.9566	6107
495.4536	6182
497.948	6144
500.4437	6324
502.9387	6274
505.431	6248
507.9226	6176
510.4136	6239
512.9079	6306
515.3975	6258
517.8864	6201
520.3746	6233
522.8622	6191
525.3491	6298
527.8394	6302
530.3249	6301
532.8098	6367
535.2939	6240
537.7774	6290
540.2623	6212
542.7444	6404
545.2259	6317
547.7067	6362
550.1868	6346
552.6683	6347
555.147	6342
557.6231	6220
560.1005	6276
562.5773	6436
565.0534	6279
567.5308	6426
570.0056	6428
572.4776	6349
574.951	6382
577.4237	6566
579.8978	6556
582.3671	6593
584.8378	6577
587.3079	6567
589.7773	6534
592.244	6654
594.714	6507
597.1793	6425
599.6461	6555
602.1121	6573
604.5754	6518
607.0421	6592
609.5042	6549
611.9675	6544
614.4282	6440
616.8902	6534
619.3515	6436
621.8122	6384
624.2702	6471
626.7296	6567
629.1863	6572
631.6423	6467
634.1017	6663
636.5563	6606
639.0104	6561
641.4658	6542
643.9185	6570
646.3725	6571
648.8239	6511
651.2766	6665
653.7266	6597
656.176	6632
658.6247	6548
661.0748	6601
663.5242	6667
665.9709	6665
668.417	6744
670.8624	6660
673.3092	6792
675.7533	6669
678.1968	6848
680.6395	6605
683.0817	6833
685.5251	6801
687.9659	6811
690.4061	6862
692.8456	6735
695.2844	6723
697.7226	6860
700.1621	6764
702.599	6793
705.0332	6773
707.4688	6887
709.9036	6951
712.3399	6848
714.7735	6933
717.2044	6868
719.6367	6994
722.0683	6905
724.4993	6947
726.9296	6953
729.3593	7011
731.7883	6979
734.2147	7168
736.6423	7041
739.0714	6944
741.4958	7018
743.9216	7155
746.3447	7129
748.7691	7191
751.1929	7167
753.616	7144
756.0366	7127
758.4584	7095
760.8776	7086
763.2982	7187
765.718	7166
768.1373	7272
770.5539	7197
772.9698	7245
775.3871	7232
777.8038	7260
780.2178	7166
782.6332	7251
785.0459	7279
787.458	7360
789.8714	7338
792.2842	7282
794.6943	7289
797.1038	7228
799.5127	7221
801.9209	7335
804.3324	7488
806.7393	7271
809.1456	7343
811.5513	7288
813.9562	7296
816.3625	7349
818.7663	7239
821.1693	7365
823.5718	7313
825.9735	7493
828.3746	7350
830.7771	7320
833.177	7512
835.5762	7363
837.9747	7431
840.3727	7409
842.772	7434
845.1666	7434
847.5626	7605
849.958	7428
852.3527	7517
854.7488	7497
857.1403	7548
859.5331	7543
861.9253	7466
864.3168	7372
866.7057	7379
869.098	7467
871.4876	7457
873.8746	7363
876.263	7523
878.6487	7506
881.0378	7359
883.4243	7421
885.8081	7602
888.1933	7436
890.5759	7430
892.9598	7498
895.343	7400
897.7256	7488
900.1057	7410
902.4871	7548
904.8659	7524
907.246	7658
909.6254	7465
912.0023	7547
914.3786	7553
916.7562	7674
919.1331	7706
921.5074	7611
923.8831	7804
926.2562	7813
928.6287	7792
931.0005	7753
933.3757	7792
935.7462	7774
938.1162	7695
940.4855	7909
942.8542	7908
945.2242	7832
947.5916	7883
949.9584	7926
952.3266	7974
954.6921	8023
957.0571	8287
959.4233	8363
961.787	8444
964.15	8272
966.5125	8249
968.8742	8207
971.2354	7957
973.5959	7967
975.9559	7772
978.3151	7712
980.6738	7810
983.0338	7726
985.3912	7763
987.7461	7742
990.1022	7782
992.4578	7536
994.8127	7661
997.1689	7741
999.5207	7826
1001.874	7745
1004.226	7684
1006.576	7859
1008.929	7698
1011.28	7747
1013.628	7779
1015.977	7749
1018.324	7782
1020.674	7752
1023.019	7743
1025.366	7772
1027.713	7908
1030.056	7736
1032.399	7719
1034.746	7890
1037.087	7715
1039.431	7807
1041.771	7852
1044.113	7901
1046.454	7835
1048.793	7898
1051.133	7816
1053.471	7852
1055.807	7793
1058.146	7924
1060.483	7914
1062.818	7812
1065.153	7866
1067.489	8000
1069.822	7921
1072.156	7855
1074.488	7848
1076.82	8001
1079.15	7794
1081.48	7928
1083.814	7918
1086.143	7901
1088.471	7926
1090.799	7895
1093.126	7861
1095.452	7954
1097.78	7970
1100.105	8000
1102.43	7968
1104.754	7860
1107.077	8000
1109.4	8044
1111.722	7906
1114.044	7980
1116.365	7962
1118.685	7975
1121.005	8073
1123.324	8030
1125.643	8113
1127.961	7983
1130.278	8005
1132.595	8124
1134.911	8029
1137.226	7945
1139.541	8150
1141.854	8094
1144.167	7989
1146.482	8028
1148.793	8046
1151.105	8135
1153.414	7976
1155.725	8071
1158.033	7989
1160.344	8131
1162.651	7990
1164.959	8074
1167.265	8055
1169.572	8116
1171.878	8157
1174.184	8121
1176.488	7989
1178.79	8064
1181.094	8088
1183.396	7944
1185.699	8057
1188.001	7981
1190.301	7976
1192.6	8080
1194.9	8099
1197.2	8023
1199.497	8100
1201.794	8082
1204.09	8078
1206.387	8122
1208.684	8085
1210.978	7942
1213.272	7956
1215.565	8009
1217.858	8072
1220.15	8158
1222.443	8078
1224.734	7995
1227.024	8200
1229.313	8175
1231.602	8264
1233.892	8189
1236.18	8234
1238.467	8268
1240.754	8290
1243.04	8202
1245.325	8164
1247.612	8351
1249.896	8296
1252.178	8323
1254.461	8352
1256.743	8287
1259.027	8185
1261.308	8204
1263.587	8432
1265.867	8315
1268.146	8278
1270.425	8426
1272.703	8244
1274.981	8311
1277.256	8399
1279.532	8320
1281.808	8264
1284.083	8296
1286.358	8275
1288.63	8377
1290.904	8228
1293.175	8312
1295.449	8192
1297.719	8282
1299.99	8166
1302.259	8272
1304.529	8230
1306.798	8211
1309.065	8254
1311.333	8436
1313.599	8209
1315.866	8321
1318.131	8192
1320.396	8256
1322.66	8227
1324.925	8281
1327.187	8183
1329.448	8287
1331.711	8235
1333.974	8374
1336.234	8124
1338.493	8285
1340.752	8268
1343.01	8334
1345.269	8334
1347.526	8411
1349.784	8357
1352.04	8195
1354.295	8180
1356.552	8284
1358.806	8351
1361.059	8258
1363.312	8424
1365.564	8226
1367.818	8285
1370.069	8240
1372.318	8205
1374.568	8344
1376.817	8370
1379.066	8263
1381.316	8386
1383.564	8371
1385.809	8399
1388.056	8489
1390.301	8494
1392.549	8354
1394.793	8484
1397.036	8389
1399.279	8393
1401.522	8442
1403.763	8460
1406.007	8508
1408.248	8498
1410.487	8582
1412.727	8580
1414.965	8359
1417.205	8514
1419.442	8612
1421.68	8520
1423.915	8616
1426.152	8567
1428.388	8667
1430.623	8495
1432.857	8415
1435.091	8563
1437.323	8565
1439.556	8556
1441.789	8459
1444.019	8519
1446.25	8549
1448.48	8619
1450.708	8605
1452.938	8566
1455.167	8662
1457.394	8788
1459.62	8699
1461.846	8532
1464.073	8532
1466.299	8554
1468.523	8578
1470.746	8494
1472.969	8404
1475.191	8441
1477.415	8499
1479.636	8400
1481.858	8370
1484.078	8378
1486.298	8397
1488.518	8378
1490.736	8306
1492.954	8381
1495.169	8296
1497.386	8356
1499.602	8372
1501.819	8261
1504.034	8344
1506.248	8452
1508.462	8371
1510.675	8266
1512.888	8362
1515.1	8327
1517.311	8269
1519.522	8397
1521.732	8323
1523.942	8320
1526.151	8110
1528.36	8290
1530.566	8326
1532.773	8344
1534.98	8320
1537.187	8377
1539.392	8395
1541.596	8290
1543.801	8420
1546.005	8351
1548.208	8419
1550.411	8470
1552.612	8410
1554.814	8387
1557.013	8449
1559.212	8390
1561.414	8619
1563.612	8396
1565.811	8571
1568.007	8555
1570.203	8590
1572.403	8436
1574.598	8596
1576.792	8447
1578.988	8562
1581.181	8618
1583.376	8508
1585.568	8553
1587.761	8526
1589.952	8543
1592.143	8614
1594.333	8653
1596.524	8636
1598.715	8708
1600.903	8632
1603.091	8616
1605.278	8691
1607.466	8642
1609.652	8599
1611.838	8747
1614.023	8610
1616.207	8588
1618.391	8614
1620.576	8680
1622.759	8586
1624.941	8642
1627.123	8613
1629.304	8682
1631.484	8620
1633.664	8629
1635.844	8558
1638.022	8703
1640.201	8652
1642.38	8750
1644.556	8751
1646.732	8755
1648.908	8684
1651.084	8773
1653.257	8768
1655.433	8789
1657.607	8621
1659.779	8656
1661.951	8571
1664.122	8683
1666.295	8783
1668.467	8773
1670.635	8825
1672.805	8748
1674.973	8722
1677.142	8715
1679.31	8752
1681.478	8687
1683.644	8592
1685.81	8839
1687.975	8788
1690.142	8669
1692.305	8663
1694.468	8635
1696.632	8603
1698.794	8700
1700.957	8652
1703.119	8683
1705.279	8607
1707.439	8632
1709.598	8695
1711.758	8534
1713.917	8662
1716.075	8670
1718.231	8585
1720.388	8575
1722.543	8659
1724.702	8605
1726.856	8639
1729.01	8581
1731.164	8574
1733.317	8505
1735.471	8506
1737.623	8507
1739.774	8629
1741.925	8386
1744.075	8623
1746.225	8686
1748.376	8580
1750.524	8587
1752.672	8572
1754.82	8585
1756.965	8701
1759.113	8542
1761.259	8605
1763.405	8694
1765.549	8635
1767.694	8590
1769.836	8626
1771.981	8830
1774.123	8622
1776.264	8779
1778.405	8680
1780.546	8716
1782.687	8632
1784.827	8532
1786.966	8632
1789.103	8725
1791.242	8672
1793.381	8635
1795.517	8540
1797.653	8664
1799.788	8647
1801.923	8755
1804.057	8805
1806.193	8716
1808.326	8658
1810.457	8615
1812.59	8563
1814.721	8851
1816.855	8583
1818.984	8748
1821.113	8594
1823.244	8572
1825.372	8734
1827.499	8570
1829.63	8671
1831.756	8584
1833.882	8734
1836.007	8586
1838.132	8547
1840.26	8682
1842.384	8618
1844.507	8583
1846.63	8641
1848.752	8671
1850.875	8448
1852.996	8608
1855.118	8637
1857.238	8500
1859.358	8542
1861.477	8577
1863.597	8635
1865.715	8583
1867.832	8566
1869.948	8605
1872.064	8625
1874.181	8482
1876.297	8686
1878.411	8521
1880.526	8491
1882.639	8663
1884.752	8602
1886.865	8487
1888.977	8667
1891.089	8614
1893.2	8674
1895.308	8649
1897.42	8637
1899.53	8525
1901.639	8663
1903.745	8649
1905.853	8744
1907.962	8583
1910.067	8759
1912.174	8671
1914.278	8775
1916.383	8650
1918.486	8633
1920.592	8656
1922.694	8748
1924.797	8701
1926.898	8562
1929	8798
1931.102	8545
1933.203	8738
1935.301	8693
1937.401	8754
1939.499	8580
1941.598	8771
1943.697	8666
1945.793	8510
1947.888	8729
1949.985	8798
1952.08	8731
1954.176	8692
1956.269	8687
1958.364	8550
1960.457	8747
1962.549	8730
1964.642	8665
1966.733	8686
1968.823	8860
1970.913	8665
1973.005	8653
1975.093	8703
1977.184	8664
1979.271	8636
1981.359	8627
1983.446	8620
1985.532	8778
1987.619	8593
1989.705	8564
1991.789	8619
1993.874	8548
1995.956	8572
1998.041	8645
2000.123	8494
2002.206	8664
2004.287	8542
2006.368	8591
2008.449	8611
2010.529	8487
2012.609	8497
2014.688	8602
2016.766	8711
2018.843	8627
2020.922	8600
2022.999	8556
2025.074	8511
2027.15	8451
2029.225	8771
2031.299	8604
2033.375	8640
2035.447	8647
2037.52	8542
2039.592	8487
2041.664	8529
2043.736	8655
2045.807	8548
2047.876	8387
2049.947	8489
2052.015	8501
2054.086	8711
2056.153	8644
2058.221	8573
2060.288	8651
2062.353	8606
2064.42	8507
2066.486	8603
2068.55	8557
2070.614	8509
2072.678	8530
2074.741	8605
2076.805	8470
2078.866	8708
2080.929	8598
2082.99	8656
2085.049	8691
2087.109	8550
2089.17	8657
2091.228	8461
2093.286	8571
2095.344	8542
2097.4	8638
2099.46	8640
2101.516	8588
2103.572	8497
2105.626	8544
2107.679	8623
2109.735	8589
2111.788	8438
2113.841	8491
2115.894	8444
2117.945	8521
2119.997	8527
2122.049	8385
2124.1	8502
2126.148	8533
2128.197	8605
2130.246	8640
2132.296	8462
2134.342	8571
2136.39	8514
2138.437	8517
2140.483	8517
2142.527	8484
2144.574	8479
2146.619	8393
2148.661	8470
2150.705	8245
2152.747	8612
2154.792	8581
2156.832	8521
2158.874	8427
2160.915	8491
2162.954	8344
2164.995	8329
2167.034	8376
2169.072	8289
2171.111	8463
2173.148	8373
2175.186	8427
2177.223	8414
2179.258	8463
2181.294	8305
2183.328	8380
2185.362	8409
2187.398	8329
2189.431	8392
2191.463	8489
2193.495	8451
2195.528	8478
2197.56	8366
2199.59	8209
2201.62	8264
2203.649	8320
2205.678	8451
2207.708	8230
2209.737	8423
2211.764	8389
2213.791	8271
2215.817	8334
2217.843	8337
2219.87	8269
2221.895	8351
2223.919	8335
2225.942	8335
2227.966	8259
2229.988	8227
2232.012	8151
2234.032	8389
2236.054	8323
2238.074	8128
2240.095	8331
2242.116	8200
2244.135	8332
2246.153	8338
2248.171	8292
2250.188	8338
2252.208	8349
2254.223	8226
2256.239	8341
2258.255	8310
2260.269	8161
2262.283	8229
2264.3	8113
2266.312	8301
2268.325	8111
2270.336	8187
2272.349	8192
2274.362	8331
2276.372	8215
2278.383	8270
2280.392	8301
2282.402	8248
2284.409	8217
2286.418	8190
2288.427	8304
2290.433	8265
2292.441	8289
2294.446	8401
2296.453	8113
2298.459	8063
2300.463	8068
2302.466	8247
2304.471	8167
2306.475	8122
2308.477	8155
2310.478	8050
2312.481	8159
2314.481	8183
2316.481	8257
2318.482	8242
2320.482	8250
2322.48	8155
2324.48	8225
2326.478	8216
2328.476	8140
2330.473	8189
2332.469	8046
2334.465	8155
2336.46	8013
2338.454	7992
2340.45	7943
2342.444	8075
2344.437	8098
2346.43	8057
2348.421	8028
2350.414	7992
2352.405	8118
2354.396	8035
2356.386	8078
2358.376	8033
2360.366	8140
2362.355	8069
2364.343	7941
2366.331	8049
2368.317	7883
2370.304	8134
2372.292	8017
2374.278	8021
2376.262	8136
2378.247	7961
2380.23	8015
2382.216	7980
2384.199	8041
2386.181	7768
2388.163	8009
2390.144	7964
2392.127	7990
2394.107	7847
2396.087	7959
2398.066	7952
2400.046	8071
2402.023	7915
2404.004	7852
2405.981	7959
2407.957	7908
2409.934	7990
2411.91	7838
2413.886	7994
2415.862	7863
2417.836	7889
2419.809	7824
2421.784	7894
2423.756	7910
2425.73	7823
2427.701	7820
2429.672	7867
2431.644	7902
2433.615	7907
2435.586	7762
2437.555	7846
2439.523	7783
2441.491	7974
2443.459	7858
2445.428	7892
2447.395	7877
2449.361	7851
2451.327	7808
2453.292	7972
2455.257	7861
2457.223	7835
2459.187	7831
2461.15	7707
2463.113	7822
2465.076	7815
2467.039	7721
2468.999	7889
2470.96	7723
2472.921	7804
2474.881	7790
2476.841	7714
2478.8	7866
2480.759	7837
2482.717	7791
2484.675	7799
2486.63	7798
2488.589	7854
2490.545	7822
2492.5	7756
2494.455	7898
2496.408	7762
2498.364	7854
2500.318	7781
2502.27	7725
2504.223	7736
2506.174	7799
2508.126	7770
2510.078	7639
2512.03	7648
2513.979	7712
2515.927	7698
2517.877	7625
2519.826	7628
2521.775	7595
2523.722	7682
2525.668	7667
2527.616	7722
2529.561	7722
2531.508	7500
2533.452	7690
2535.398	7706
2537.342	7576
2539.284	7674
2541.229	7705
2543.173	7607
2545.114	7626
2547.055	7724
2548.996	7612
2550.938	7720
2552.878	7626
2554.817	7535
2556.756	7712
2558.695	7613
2560.633	7547
2562.572	7643
2564.509	7672
2566.445	7631
2568.382	7582
2570.317	7655
2572.254	7629
2574.189	7704
2576.123	7697
2578.057	7565
2579.99	7646
2581.923	7593
2583.855	7597
2585.788	7702
2587.719	7693
2589.65	7678
2591.579	7613
2593.511	7641
2595.44	7641
2597.37	7780
2599.297	7713
2601.225	7617
2603.153	7707
2605.08	7515
2607.007	7616
2608.932	7642
2610.858	7747
2612.782	7579
2614.709	7629
2616.632	7596
2618.556	7604
2620.478	7653
2622.401	7607
2624.324	7660
2626.247	7662
2628.167	7689
2630.088	7646
2632.008	7665
2633.928	7540
2635.848	7717
2637.766	7616
2639.684	7523
2641.603	7631
2643.519	7588
2645.437	7590
2647.353	7565
2649.27	7628
2651.184	7708
2653.099	7570
2655.014	7589
2656.928	7573
2658.842	7673
2660.755	7559
2662.667	7632
2664.579	7605
2666.491	7633
2668.402	7566
2670.312	7632
2672.222	7526
2674.132	7607
2676.042	7616
2677.951	7643
2679.859	7532
2681.766	7457
2683.674	7472
2685.582	7392
2687.488	7579
2689.392	7552
2691.298	7467
2693.202	7418
2695.107	7544
2697.012	7490
2698.914	7540
2700.817	7591
2702.72	7596
2704.622	7487
2706.524	7474
2708.425	7560
2710.326	7440
2712.225	7575
2714.125	7411
2716.024	7343
2717.923	7357
2719.822	7473
2721.719	7395
2723.616	7574
2725.512	7476
2727.41	7383
2729.305	7472
2731.201	7426
2733.095	7418
2734.99	7441
2736.884	7368
2738.778	7442
2740.67	7380
2742.562	7408
2744.455	7436
2746.346	7492
2748.238	7342
2750.129	7425
2752.018	7411
2753.907	7444
2755.797	7368
2757.687	7385
2759.575	7378
2761.462	7335
2763.349	7262
2765.237	7461
2767.124	7280
2769.009	7337
2770.894	7419
2772.779	7348
2774.663	7330
2776.547	7462
2778.431	7261
2780.314	7366
2782.197	7429
2784.078	7342
2785.96	7147
2787.842	7260
2789.723	7342
2791.603	7408
2793.483	7173
2795.362	7318
2797.241	7368
2799.121	7338
2800.997	7260
2802.874	7231
2804.751	7167
2806.628	7167
2808.506	7256
2810.38	7270
2812.255	7303
2814.13	7282
2816.003	7239
2817.878	7299
2819.752	7203
2821.623	7357
2823.496	7213
2825.368	7239
2827.238	7273
2829.111	7277
2830.98	7196
2832.851	7309
2834.719	7276
2836.589	7108
2838.458	7275
2840.327	7206
2842.193	7379
2844.061	7205
2845.927	7164
2847.794	7302
2849.66	7283
2851.525	7371
2853.39	7123
2855.254	7334
2857.117	7258
2858.983	7273
2860.845	7319
2862.707	7385
2864.569	7309
2866.431	7318
2868.293	7288
2870.154	7427
2872.013	7373
2873.873	7464
2875.733	7400
2877.592	7471
2879.451	7597
2881.309	7499
2883.166	7482
2885.022	7507
2886.879	7610
2888.736	7507
2890.591	7554
2892.446	7485
2894.301	7415
2896.155	7597
2898.009	7562
2899.863	7495
2901.716	7348
2903.568	7533
2905.419	7473
2907.27	7392
2909.123	7563
2910.973	7348
2912.824	7508
2914.673	7482
2916.521	7373
2918.372	7590
2920.22	7581
2922.067	7552
2923.914	7604
2925.761	7638
2927.607	7720
2929.455	7723
2931.301	7768
2933.144	7752
2934.99	7742
2936.833	7815
2938.678	7817
2940.522	7914
2942.364	7805
2944.207	8050
2946.048	7824
2947.891	8142
2949.731	7940
2951.571	7983
2953.412	8052
2955.25	8008
2957.09	7836
2958.93	7775
2960.767	8054
2962.606	7765
2964.443	7722
2966.279	7682
2968.116	7764
2969.953	7649
2971.788	7546
2973.623	7579
2975.457	7494
2977.292	7493
2979.127	7443
2980.959	7545
2982.792	7415
2984.624	7487
2986.455	7422
2988.288	7241
2990.119	7286
2991.949	7259
2993.779	7181
2995.608	7288
2997.439	7103
2999.268	7070
3001.096	7052
3002.923	7140
3004.751	6986
3006.578	7069
3008.406	6984
3010.232	6908
3012.057	6958
3013.883	6918
3015.706	6937
3017.532	6927
3019.356	6864
3021.179	6910
3023.002	6854
3024.823	6878
3026.646	6741
3028.469	6770
3030.289	6901
3032.11	6807
3033.93	6849
3035.749	6843
3037.57	6740
3039.39	6783
3041.207	6718
3043.026	6825
3044.842	6705
3046.661	6858
3048.477	6714
3050.294	6649
3052.109	6657
3053.925	6682
3055.739	6621
3057.555	6774
3059.368	6767
3061.181	6686
3062.995	6760
3064.807	6600
3066.62	6722
3068.433	6638
3070.243	6511
3072.054	6723
3073.865	6726
3075.675	6610
3077.485	6692
3079.293	6569
3081.102	6476
3082.911	6672
3084.719	6435
3086.527	6551
3088.333	6522
3090.139	6576
3091.945	6530
3093.75	6538
3095.557	6507
3097.361	6597
3099.165	6549
3100.969	6550
3102.772	6377
3104.575	6491
3106.379	6431
3108.181	6536
3109.982	6535
3111.783	6389
3113.584	6584
3115.386	6381
3117.186	6464
3118.985	6350
3120.783	6380
3122.582	6394
3124.381	6461
3126.179	6346
3127.975	6413
3129.772	6384
3131.569	6424
3133.365	6220
3135.161	6378
3136.956	6389
3138.751	6299
3140.544	6211
3142.338	6368
3144.132	6300
3145.925	6276
3147.717	6328
3149.509	6359
3151.301	6249
3153.091	6271
3154.884	6370
3156.673	6329
3158.462	6206
3160.252	6261
3162.041	6211
3163.831	6273
3165.618	6243
3167.405	6303
3169.193	6266
3170.979	6354
3172.767	6120
3174.553	6253
3176.338	6264
3178.123	6164
3179.907	6108
3181.692	6154
3183.477	6210
3185.259	6226
3187.042	6169
3188.824	6187
3190.607	6206
3192.389	6213
3194.17	6131
3195.951	6060
3197.73	6179
3199.51	6149
3201.289	6222
3203.07	6122
3204.848	6199
3206.626	6020
3208.403	6186
3210.18	6098
3211.959	6200
3213.735	6100
3215.511	6213
3217.285	6132
3219.06	6088
3220.836	6166
3222.611	6056
3224.384	6046
3226.158	6105
3227.929	6133
3229.702	6083
3231.476	6142
3233.248	6077
3235.018	6106
3236.789	6041
3238.56	6064
3240.33	6095
3242.1	6130
3243.869	6012
3245.637	6049
3247.405	5961
3249.172	6097
3250.941	5981
3252.707	6058
3254.474	6056
3256.24	6044
3258.006	6089
3259.772	6040
3261.537	5950
3263.301	6119
3265.065	6067
3266.828	6038
3268.592	6069
3270.355	6012
3272.117	6078
3273.878	6076
3275.64	6021
3277.401	6032
3279.162	6003
3280.922	6045
3282.682	5982
3284.441	6054
3286.199	6093
3287.959	6003
3289.716	6041
3291.475	6082
3293.232	6067
3294.988	6016
3296.744	6024
3298.501	6062
3300.256	5942
3302.011	5898
3303.766	5958
3305.52	5992
3307.275	5968
3309.028	6010
3310.781	5928
3312.533	5959
3314.285	6015
3316.038	5904
3317.789	6033
3319.54	5976
3321.289	5956
3323.039	5920
3324.789	6006
3326.539	5926
3328.288	5928
3330.035	5942
3331.783	5841
3333.531	5846
3335.28	5888
3337.025	5917
3338.771	5922
3340.518	5820
3342.262	5873
3344.009	5842
3345.753	5865
3347.497	5837
3349.24	5921
3350.983	5871
3352.726	5836
3354.469	5888
3356.212	5804
3357.952	5791
3359.694	5758
3361.434	5880
3363.176	5794
3364.916	5850
3366.654	5805
3368.394	5794
3370.132	5868
3371.871	5767
3373.61	5755
3375.346	5804
3377.083	5795
3378.82	5722
3380.556	5720
3382.292	5707
3384.027	5897
3385.763	5705
3387.497	5853
3389.231	5706
3390.965	5722
3392.698	5718
3394.431	5796
3396.164	5669
3397.896	5742
3399.627	5738
3401.36	5721
3403.09	5739
3404.82	5739
3406.55	5659
3408.279	5719
3410.01	5645
3411.738	5728
3413.467	5668
3415.194	5715
3416.92	5653
3418.647	5711
3420.375	5750
3422.102	5686
3423.827	5755
3425.553	5568
3427.277	5519
3429.003	5585
3430.727	5592
3432.451	5677
3434.173	5667
3435.896	5523
3437.62	5624
3439.343	5643
3441.063	5647
3442.785	5526
3444.505	5583
3446.226	5535
3447.948	5501
3449.666	5577
3451.386	5548
3453.104	5483
3454.823	5550
3456.541	5538
3458.259	5481
3459.976	5489
3461.693	5446
3463.408	5497
3465.125	5570
3466.841	5407
3468.556	5507
3470.271	5453
3471.985	5439
3473.698	5386
3475.414	5417
3477.126	5447
3478.838	5487
3480.55	5443
3482.263	5372
3483.975	5424
3485.686	5363
3487.396	5441
3489.106	5366
3490.817	5338
3492.526	5415
3494.236	5468
3495.944	5305
3497.652	5380
3499.359	5271
3501.066	5212
3502.775	5371
3504.481	5165
3506.187	5288
3507.893	5310
3509.598	5319
3511.304	5340
3513.009	5351
3514.713	5311
3516.417	5181
3518.12	5300
3519.821	5270
3521.525	5207
3523.228	5272
3524.929	5336
3526.631	5270
3528.33	5223
3530.032	5323
3531.733	5296
3533.433	5276
3535.131	5151
3536.83	5226
3538.529	5281
3540.227	5244
3541.925	5207
3543.623	5144
3545.319	5238
3547.016	5166
3548.712	5275
3550.408	5232
3552.103	5156
3553.798	5220
3555.491	5246
3557.188	5121
3558.88	5237
3560.574	5085
3562.266	5158
3563.959	5048
3565.651	5215
3567.343	5115
3569.035	5101
3570.725	5180
3572.415	5127
3574.106	5098
3575.797	5132
3577.485	5254
3579.174	5121
3580.863	5085
3582.551	5086
3584.238	5084
3585.926	5129
3587.613	5025
3589.3	5029
3590.986	5092
3592.671	5021
3594.357	5076
3596.042	5140
3597.726	4962
3599.41	5001
3601.094	5079
3602.778	4964
3604.461	4967
3606.143	5064
3607.825	5016
3609.507	4969
3611.188	4988
3612.87	4995
3614.551	4951
3616.229	4925
3617.909	4836
3619.589	4928
3621.269	4965
3622.948	4878
3624.625	4936
3626.302	5016
3627.98	4853
3629.657	4838
3631.334	5062
3633.01	4862
3634.686	4967
3636.361	4819
3638.036	4823
3639.712	4842
3641.385	4914
3643.06	4779
3644.732	4755
3646.405	4886
3648.08	4816
3649.751	4872
3651.424	4857
3653.094	4853
3654.766	4828
3656.436	4816
3658.106	4818
3659.777	4784
3661.446	4797
3663.115	4761
3664.783	4779
3666.452	4891
3668.121	4838
3669.788	4679
3671.454	4851
3673.121	4740
3674.789	4750
3676.455	4677
3678.12	4726
3679.784	4836
3681.45	4701
3683.114	4760
3684.779	4717
3686.442	4744
3688.105	4700
3689.768	4897
3691.43	4721
3693.093	4702
3694.754	4650
3696.415	4718
3698.076	4760
3699.736	4747
3701.396	4716
3703.057	4690
3704.716	4731
3706.375	4661
3708.034	4707
3709.692	4674
3711.351	4657
3713.008	4619
3714.665	4738
3716.321	4667
3717.977	4689
3719.634	4685
3721.29	4726
3722.945	4634
3724.598	4637
3726.253	4647
3727.907	4595
3729.561	4657
3731.214	4618
3732.867	4653
3734.518	4712
3736.171	4678
3737.824	4616
3739.474	4624
3741.125	4706
3742.775	4567
3744.425	4647
3746.074	4546
3747.725	4644
3749.373	4620
3751.022	4494
3752.669	4581
3754.318	4558
3755.966	4471
3757.612	4483
3759.259	4581
3760.905	4566
3762.55	4552
3764.197	4573
3765.842	4584
3767.486	4439
3769.131	4496
3770.774	4573
3772.417	4474
3774.061	4528
3775.705	4569
3777.347	4511
3778.988	4446
3780.629	4517
3782.271	4453
3783.912	4447
3785.552	4479
3787.192	4479
3788.831	4517
3790.472	4448
3792.112	4315
3793.75	4397
3795.388	4406
3797.024	4416
3798.661	4429
3800.3	4362
3801.936	4393
3803.572	4429
3805.208	4463
3806.844	4447
3808.48	4406
3810.115	4362
3811.748	4405
3813.382	4401
3815.016	4484
3816.649	4371
3818.283	4457
3819.914	4372
3821.547	4444
3823.178	4280
3824.809	4335
3826.441	4359
3828.072	4330
3829.701	4338
3831.331	4371
3832.96	4337
3834.591	4267
3836.219	4309
3837.847	4336
3839.475	4294
3841.102	4312
3842.729	4317
3844.357	4313
3845.984	4263
3847.609	4352
3849.234	4272
3850.86	4304
3852.485	4261
3854.11	4283
3855.734	4261
3857.357	4317
3858.981	4288
3860.603	4350
3862.227	4294
3863.848	4274
3865.471	4261
3867.092	4294
3868.713	4269
3870.334	4270
3871.954	4257
3873.575	4148
3875.194	4142
3876.813	4158
3878.433	4278
3880.051	4160
3881.669	4192
3883.286	4242
3884.904	4227
3886.52	4239
3888.138	4197
3889.754	4162
3891.37	4149
3892.985	4223
3894.6	4178
3896.216	4255
3897.831	4271
3899.444	4239
3901.058	4133
3902.67	4284
3904.283	4205
3905.897	4203
3907.509	4107
3909.121	4216
3910.731	4126
3912.342	4202
3913.954	4192
3915.563	4091
3917.174	4143
3918.783	4174
3920.391	4186
3922.002	4113
3923.611	4153
3925.218	4104
3926.826	4088
3928.432	4189
3930.039	4173
3931.647	4095
3933.253	4101
3934.859	4105
3936.464	4120
3938.068	4097
3939.675	4090
3941.278	4137
3942.883	4042
3944.486	4066
3946.089	4093
3947.692	4113
3949.295	4042
3950.898	4010
3952.499	4130
3954.1	4011
3955.7	4066
3957.303	3976
3958.903	4065
3960.502	4000
3962.101	4017
3963.7	4016
3965.301	4057
3966.899	3891
3968.497	4075
3970.094	4003
3971.691	4010
3973.288	3993
3974.885	3944
3976.481	3900
3978.077	4008
3979.672	3966
3981.267	3955
3982.863	3977
3984.457	3964
3986.051	3937
3987.645	3897
3989.238	3947
3990.831	3900
3992.425	3946
3994.017	3801
3995.607	3981
3997.199	3991
3998.79	3863
4000.382	3858
4001.973	3945
4003.561	3880
4005.151	3921
4006.741	3854
4008.331	3858
4009.918	3915
4011.507	3934
4013.095	3926
4014.681	3871
4016.269	3876
4017.856	3802
4019.443	3804
4021.028	3823
4022.614	3806
4024.199	3785
4025.785	3797
4027.37	3773
4028.953	3916
4030.536	3791
4032.12	3787
4033.704	3733
4035.287	3793
4036.869	3774
4038.45	3853
4040.032	3788
4041.613	3708
4043.195	3734
4044.776	3704
4046.356	3755
4047.935	3787
4049.515	3813
4051.095	3823
4052.674	3738
4054.251	3759
4055.829	3751
4057.406	3728
4058.985	3780
4060.562	3730
4062.139	3771
4063.715	3753
4065.29	3798
4066.865	3686
4068.442	3700
4070.016	3703
4071.59	3691
4073.164	3799
4074.738	3668
4076.312	3717
4077.885	3730
4079.458	3675
4081.03	3708
4082.602	3630
4084.173	3735
4085.745	3704
4087.315	3658
4088.886	3626
4090.456	3707
4092.026	3717
4093.596	3685
4095.165	3652
4096.734	3619
4098.301	3657
4099.869	3669
4101.437	3663
4103.006	3610
4104.572	3669
4106.139	3629
4107.704	3607
4109.27	3663
4110.837	3604
4112.401	3543
4113.966	3656
4115.53	3601
4117.094	3595
4118.659	3644
4120.223	3560
4121.785	3629
4123.347	3605
4124.909	3547
4126.471	3607
4128.034	3533
4129.595	3578
4131.155	3568
4132.716	3569
4134.275	3612
4135.836	3522
4137.395	3522
4138.955	3578
4140.513	3612
4142.071	3432
4143.628	3532
4145.188	3513
4146.745	3526
4148.302	3585
4149.858	3443
4151.414	3569
4152.971	3538
4154.526	3559
4156.081	3390
4157.635	3482
4159.189	3454
4160.745	3466
4162.298	3396
4163.852	3369
4165.405	3449
4166.957	3431
4168.51	3517
4170.063	3435
4171.614	3376
4173.166	3419
4174.717	3455
4176.267	3464
4177.817	3441
4179.368	3364
4180.917	3354
4182.466	3408
4184.016	3389
4185.564	3359
4187.112	3374
4188.66	3382
4190.207	3400
4191.754	3387
4193.301	3405
4194.848	3365
4196.394	3362
4197.94	3406
4199.484	3327
4201.03	3352
4202.575	3348
4204.12	3378
4205.663	3341
4207.207	3251
4208.75	3328
4210.292	3321
4211.836	3328
4213.378	3305
4214.92	3306
4216.46	3338
4218.002	3326
4219.544	3329
4221.083	3336
4222.625	3290
4224.164	3279
4225.703	3218
4227.244	3334
4228.782	3317
4230.32	3321
4231.857	3278
4233.395	3291
4234.933	3262
4236.471	3450
4238.007	3263
4239.542	3308
4241.078	3312
4242.614	3248
4244.15	3285
4245.685	3243
4247.219	3269
4248.753	3221
4250.287	3244
4251.82	3230
4253.354	3267
4254.887	3323
4256.419	3217
4257.951	3235
4259.483	3266
4261.016	3318
4262.547	3273
4264.078	3331
4265.608	3218
4267.137	3223
4268.668	3201
4270.197	3165
4271.727	3205
4273.254	3152
4274.783	3172
4276.311	3221
4277.84	3205
4279.366	3192
4280.894	3204
4282.42	3201
4283.946	3201
4285.473	3229
4286.998	3198
4288.523	3216
4290.047	3117
4291.572	3163
4293.096	3148
4294.622	3112
4296.144	3194
4297.668	3156
4299.19	3221
4300.713	3159
4302.236	3120
4303.758	3082
4305.279	3101
4306.799	3146
4308.321	3161
4309.842	3258
4311.361	3079
4312.882	3088
4314.401	3133
