400.0961	2880
402.6185	2845
405.1424	2963
407.6635	2870
410.1838	2852
412.7035	2848
415.2225	2962
417.7388	2930
420.2585	2912
422.7754	2990
425.2917	3055
427.8072	2995
430.3221	3064
432.8363	3055
435.3498	3056
437.8626	2962
440.3727	3060
442.8841	3031
445.3969	3064
447.907	3107
450.4142	2982
452.9229	2985
455.4289	3044
457.9362	3040
460.4449	2965
462.9488	3005
465.454	2984
467.9566	3072
470.4604	3028
472.9637	3067
475.4662	3071
477.966	2969
480.4671	3073
482.9656	3108
485.4633	2948
487.9645	3050
490.4608	3052
492.9566	3051
495.4536	3077
497.948	3066
500.4437	3162
502.9387	3053
505.431	3113
507.9226	3109
510.4136	3160
512.9079	3127
515.3975	3065
517.8864	3128
520.3746	3054
522.8622	3170
525.3491	3132
527.8394	3112
530.3249	3185
532.8098	3127
535.2939	3226
537.7774	3084
540.2623	3099
542.7444	3188
545.2259	3145
547.7067	3150
550.1868	3240
552.6683	3151
555.147	3173
557.6231	3111
560.1005	3173
562.5773	3210
565.0534	3172
567.5308	3237
570.0056	3246
572.4776	3266
574.951	3244
577.4237	3328
579.8978	3225
582.3671	3287
584.8378	3260
587.3079	3269
589.7773	3309
592.244	3254
594.714	3334
597.1793	3279
599.6461	3207
602.1121	3256
604.5754	3305
607.0421	3285
609.5042	3281
611.9675	3232
614.4282	3305
616.8902	3270
619.3515	3215
621.8122	3258
624.2702	3146
626.7296	3240
629.1863	3236
631.6423	3221
634.1017	3188
636.5563	3194
639.0104	3277
641.4658	3270
643.9185	3323
646.3725	3289
648.8239	3274
651.2766	3277
653.7266	3239
656.176	3292
658.6247	3287
661.0748	3265
663.5242	3317
665.9709	3346
668.417	3318
670.8624	3390
673.3092	3371
675.7533	3288
678.1968	3336
680.6395	3335
683.0817	3331
685.5251	3315
687.9659	3330
690.4061	3387
692.8456	3331
695.2844	3359
697.7226	3360
700.1621	3385
702.599	3405
705.0332	3372
707.4688	3312
709.9036	3354
712.3399	3436
714.7735	3436
717.2044	3409
719.6367	3408
722.0683	3347
724.4993	3373
726.9296	3493
729.3593	3407
731.7883	3361
734.2147	3482
736.6423	3412
739.0714	3491
741.4958	3461
743.9216	3488
746.3447	3461
748.7691	3532
751.1929	3450
753.616	3450
756.0366	3451
758.4584	3514
760.8776	3571
763.2982	3604
765.718	3589
768.1373	3583
770.5539	3596
772.9698	3508
775.3871	3583
777.8038	3602
780.2178	3631
782.6332	3616
785.0459	3642
787.458	3596
789.8714	3520
792.2842	3542
794.6943	3572
797.1038	3644
799.5127	3525
801.9209	3598
804.3324	3514
806.7393	3638
809.1456	3543
811.5513	3558
813.9562	3554
816.3625	3630
818.7663	3618
821.1693	3697
823.5718	3674
825.9735	3617
828.3746	3644
830.7771	3629
833.177	3625
835.5762	3557
837.9747	3677
840.3727	3574
842.772	3576
845.1666	3664
847.5626	3710
849.958	3718
852.3527	3757
854.7488	3689
857.1403	3676
859.5331	3724
861.9253	3645
864.3168	3764
866.7057	3632
869.098	3683
871.4876	3737
873.8746	3651
876.263	3753
878.6487	3653
881.0378	3659
883.4243	3633
885.8081	3711
888.1933	3740
890.5759	3665
892.9598	3715
895.343	3675
897.7256	3688
900.1057	3693
902.4871	3725
904.8659	3706
907.246	3702
909.6254	3741
912.0023	3754
914.3786	3873
916.7562	3888
919.1331	3804
921.5074	3873
923.8831	3890
926.2562	3887
928.6287	3807
931.0005	3846
933.3757	3869
935.7462	3922
938.1162	3909
940.4855	4001
942.8542	3968
945.2242	4075
947.5916	4094
949.9584	4108
952.3266	4179
954.6921	4284
957.0571	4365
959.4233	4587
961.787	4667
964.15	4642
966.5125	4517
968.8742	4328
971.2354	4176
973.5959	4099
975.9559	3983
978.3151	3944
980.6738	3806
983.0338	3835
985.3912	3830
987.7461	3893
990.1022	3869
992.4578	3867
994.8127	3820
997.1689	3893
999.5207	3808
1001.874	3900
1004.226	3887
1006.576	3813
1008.929	3807
1011.28	3785
1013.628	3866
1015.977	3851
1018.324	3797
1020.674	3776
1023.019	3857
1025.366	3857
1027.713	3952
1030.056	3885
1032.399	3861
1034.746	3908
1037.087	3882
1039.431	3956
1041.771	3948
1044.113	3872
1046.454	3875
1048.793	3940
1051.133	3914
1053.471	3818
1055.807	4033
1058.146	3851
1060.483	3914
1062.818	3903
1065.153	3901
1067.489	3950
1069.822	4002
1072.156	4033
1074.488	3959
1076.82	3985
1079.15	4030
1081.48	3984
1083.814	3951
1086.143	3988
1088.471	3932
1090.799	3973
1093.126	3901
1095.452	3940
1097.78	3964
1100.105	3979
1102.43	3843
1104.754	3966
1107.077	3920
1109.4	3873
1111.722	3912
1114.044	4036
1116.365	3924
1118.685	3951
1121.005	3986
1123.324	4032
1125.643	3955
1127.961	3974
1130.278	3891
1132.595	3942
1134.911	3972
1137.226	3928
1139.541	3920
1141.854	3976
1144.167	3972
1146.482	3942
1148.793	3915
1151.105	3930
1153.414	3924
1155.725	4006
1158.033	3991
1160.344	3966
1162.651	3949
1164.959	3981
1167.265	4008
1169.572	4019
1171.878	3925
1174.184	3895
1176.488	3961
1178.79	3941
1181.094	4009
1183.396	4013
1185.699	3990
1188.001	4006
1190.301	3973
1192.6	4024
1194.9	3972
1197.2	3845
1199.497	3988
1201.794	3953
1204.09	3964
1206.387	3986
1208.684	4026
1210.978	4004
1213.272	3952
1215.565	3974
1217.858	4037
1220.15	4013
1222.443	4028
1224.734	4024
1227.024	4044
1229.313	4109
1231.602	4088
1233.892	4004
1236.18	4056
1238.467	4148
1240.754	4105
1243.04	4094
1245.325	4173
1247.612	4105
1249.896	4077
1252.178	4195
1254.461	4143
1256.743	4229
1259.027	4140
1261.308	4104
1263.587	4121
1265.867	4258
1268.146	4182
1270.425	4168
1272.703	4171
1274.981	4237
1277.256	4193
1279.532	4211
1281.808	4128
1284.083	4151
1286.358	4163
1288.63	4037
1290.904	4097
1293.175	4113
1295.449	4076
1297.719	4100
1299.99	4059
1302.259	4224
1304.529	4097
1306.798	4012
1309.065	4073
1311.333	4112
1313.599	4143
1315.866	4116
1318.131	4125
1320.396	4130
1322.66	4099
1324.925	4123
1327.187	4190
1329.448	4100
1331.711	4147
1333.974	4171
1336.234	4008
1338.493	4153
1340.752	4115
1343.01	4082
1345.269	4067
1347.526	4087
1349.784	4128
1352.04	4104
1354.295	4025
1356.552	4027
1358.806	4114
1361.059	4076
1363.312	4180
1365.564	4222
1367.818	4018
1370.069	4100
1372.318	4109
1374.568	4152
1376.817	4148
1379.066	4082
1381.316	4141
1383.564	4127
1385.809	4143
1388.056	4096
1390.301	4174
1392.549	4241
1394.793	4143
1397.036	4212
1399.279	4202
1401.522	4301
1403.763	4234
1406.007	4212
1408.248	4240
1410.487	4137
1412.727	4167
1414.965	4242
1417.205	4240
1419.442	4197
1421.68	4268
1423.915	4253
1426.152	4233
1428.388	4227
1430.623	4244
1432.857	4297
1435.091	4260
1437.323	4365
1439.556	4280
1441.789	4319
1444.019	4277
1446.25	4332
1448.48	4302
1450.708	4385
1452.938	4328
1455.167	4338
1457.394	4311
1459.62	4288
1461.846	4320
1464.073	4311
1466.299	4216
1468.523	4365
1470.746	4242
1472.969	4274
1475.191	4227
1477.415	4218
1479.636	4156
1481.858	4195
1484.078	4236
1486.298	4176
1488.518	4090
1490.736	4101
1492.954	4073
1495.169	4172
1497.386	4053
1499.602	4107
1501.819	4138
1504.034	4099
1506.248	4154
1508.462	4094
1510.675	4155
1512.888	4117
1515.1	4020
1517.311	4130
1519.522	4056
1521.732	4134
1523.942	4148
1526.151	4160
1528.36	4170
1530.566	4192
1532.773	4130
1534.98	4116
1537.187	4183
1539.392	4115
1541.596	4249
1543.801	4093
1546.005	4213
1548.208	4238
1550.411	4110
1552.612	4252
1554.814	4179
1557.013	4276
1559.212	4164
1561.414	4264
1563.612	4163
1565.811	4209
1568.007	4171
1570.203	4188
1572.403	4184
1574.598	4169
1576.792	4214
1578.988	4197
1581.181	4228
1583.376	4265
1585.568	4262
1587.761	4300
1589.952	4221
1592.143	4258
1594.333	4319
1596.524	4306
1598.715	4278
1600.903	4281
1603.091	4193
1605.278	4304
1607.466	4215
1609.652	4258
1611.838	4319
1614.023	4331
1616.207	4217
1618.391	4301
1620.576	4230
1622.759	4356
1624.941	4289
1627.123	4272
1629.304	4319
1631.484	4357
1633.664	4257
1635.844	4232
1638.022	4357
1640.201	4354
1642.38	4294
1644.556	4354
1646.732	4299
1648.908	4213
1651.084	4351
1653.257	4476
1655.433	4377
1657.607	4393
1659.779	4418
1661.951	4379
1664.122	4400
1666.295	4306
1668.467	4330
1670.635	4422
1672.805	4429
1674.973	4385
1677.142	4373
1679.31	4386
1681.478	4431
1683.644	4371
1685.81	4345
1687.975	4378
1690.142	4360
1692.305	4372
1694.468	4325
1696.632	4271
1698.794	4307
1700.957	4296
1703.119	4270
1705.279	4348
1707.439	4411
1709.598	4261
1711.758	4291
1713.917	4282
1716.075	4203
1718.231	4299
1720.388	4284
1722.543	4330
1724.702	4209
1726.856	4296
1729.01	4173
1731.164	4383
1733.317	4279
1735.471	4329
1737.623	4274
1739.774	4216
1741.925	4359
1744.075	4326
1746.225	4273
1748.376	4219
1750.524	4268
1752.672	4345
1754.82	4372
1756.965	4341
1759.113	4331
1761.259	4341
1763.405	4283
1765.549	4273
1767.694	4237
1769.836	4289
1771.981	4324
1774.123	4300
1776.264	4264
1778.405	4339
1780.546	4341
1782.687	4239
1784.827	4303
1786.966	4214
1789.103	4281
1791.242	4386
1793.381	4338
1795.517	4362
1797.653	4224
1799.788	4273
1801.923	4331
1804.057	4343
1806.193	4356
1808.326	4289
1810.457	4320
1812.59	4314
1814.721	4334
1816.855	4332
1818.984	4304
1821.113	4276
1823.244	4336
1825.372	4263
1827.499	4289
1829.63	4327
1831.756	4252
1833.882	4278
1836.007	4229
1838.132	4320
1840.26	4314
1842.384	4305
1844.507	4276
1846.63	4329
1848.752	4221
1850.875	4305
1852.996	4362
1855.118	4287
1857.238	4283
1859.358	4247
1861.477	4274
1863.597	4273
1865.715	4216
1867.832	4255
1869.948	4312
1872.064	4292
1874.181	4326
1876.297	4275
1878.411	4247
1880.526	4246
1882.639	4300
1884.752	4218
1886.865	4367
1888.977	4289
1891.089	4261
1893.2	4313
1895.308	4281
1897.42	4240
1899.53	4319
1901.639	4282
1903.745	4368
1905.853	4313
1907.962	4279
1910.067	4312
1912.174	4356
1914.278	4278
1916.383	4336
1918.486	4327
1920.592	4385
1922.694	4392
1924.797	4424
1926.898	4326
1929	4307
1931.102	4335
1933.203	4452
1935.301	4401
1937.401	4351
1939.499	4365
1941.598	4302
1943.697	4351
1945.793	4349
1947.888	4393
1949.985	4346
1952.08	4329
1954.176	4309
1956.269	4372
1958.364	4321
1960.457	4326
1962.549	4352
1964.642	4272
1966.733	4380
1968.823	4316
1970.913	4389
1973.005	4390
1975.093	4420
1977.184	4304
1979.271	4210
1981.359	4311
1983.446	4347
1985.532	4381
1987.619	4366
1989.705	4267
1991.789	4288
1993.874	4285
1995.956	4280
1998.041	4315
2000.123	4272
2002.206	4401
2004.287	4224
2006.368	4293
2008.449	4317
2010.529	4311
2012.609	4281
2014.688	4350
2016.766	4231
2018.843	4272
2020.922	4282
2022.999	4241
2025.074	4241
2027.15	4306
2029.225	4370
2031.299	4341
2033.375	4311
2035.447	4245
2037.52	4316
2039.592	4288
2041.664	4273
2043.736	4287
2045.807	4320
2047.876	4286
2049.947	4212
2052.015	4296
2054.086	4284
2056.153	4311
2058.221	4311
2060.288	4227
2062.353	4367
2064.42	4291
2066.486	4339
2068.55	4303
2070.614	4275
2072.678	4425
2074.741	4273
2076.805	4275
2078.866	4337
2080.929	4256
2082.99	4291
2085.049	4311
2087.109	4297
2089.17	4345
2091.228	4319
2093.286	4324
2095.344	4314
2097.4	4283
2099.46	4369
2101.516	4321
2103.572	4320
2105.626	4327
2107.679	4347
2109.735	4327
2111.788	4345
2113.841	4385
2115.894	4313
2117.945	4393
2119.997	4273
2122.049	4344
2124.1	4356
2126.148	4383
2128.197	4333
2130.246	4394
2132.296	4405
2134.342	4256
2136.39	4436
2138.437	4293
2140.483	4305
2142.527	4405
2144.574	4248
2146.619	4225
2148.661	4320
2150.705	4416
2152.747	4387
2154.792	4369
2156.832	4347
2158.874	4268
2160.915	4376
2162.954	4294
2164.995	4251
2167.034	4294
2169.072	4301
2171.111	4240
2173.148	4232
2175.186	4270
2177.223	4278
2179.258	4259
2181.294	4227
2183.328	4226
2185.362	4288
2187.398	4244
2189.431	4159
2191.463	4179
2193.495	4346
2195.528	4266
2197.56	4226
2199.59	4165
2201.62	4245
2203.649	4223
2205.678	4238
2207.708	4201
2209.737	4211
2211.764	4248
2213.791	4216
2215.817	4230
2217.843	4232
2219.87	4216
2221.895	4262
2223.919	4141
2225.942	4230
2227.966	4238
2229.988	4182
2232.012	4164
2234.032	4234
2236.054	4191
2238.074	4179
2240.095	4221
2242.116	4154
2244.135	4265
2246.153	4207
2248.171	4218
2250.188	4161
2252.208	4153
2254.223	4255
2256.239	4176
2258.255	4263
2260.269	4164
2262.283	4243
2264.3	4289
2266.312	4230
2268.325	4215
2270.336	4215
2272.349	4166
2274.362	4224
2276.372	4270
2278.383	4275
2280.392	4132
2282.402	4222
2284.409	4212
2286.418	4302
2288.427	4313
2290.433	4213
2292.441	4210
2294.446	4173
2296.453	4229
2298.459	4237
2300.463	4175
2302.466	4173
2304.471	4212
2306.475	4268
2308.477	4190
2310.478	4184
2312.481	4220
2314.481	4204
2316.481	4105
2318.482	4162
2320.482	4230
2322.48	4145
2324.48	4130
2326.478	4213
2328.476	4187
2330.473	4187
2332.469	4083
2334.465	4120
2336.46	4151
2338.454	4125
2340.45	4173
2342.444	4106
2344.437	4095
2346.43	4102
2348.421	4166
2350.414	4098
2352.405	4181
2354.396	4068
2356.386	4091
2358.376	4182
2360.366	4173
2362.355	4107
2364.343	4055
2366.331	4169
2368.317	4072
2370.304	4119
2372.292	4076
2374.278	4132
2376.262	4124
2378.247	4157
2380.23	4158
2382.216	4125
2384.199	4160
2386.181	4021
2388.163	4051
2390.144	4044
2392.127	4109
2394.107	4121
2396.087	3996
2398.066	4128
2400.046	4047
2402.023	4096
2404.004	4079
2405.981	4044
2407.957	4114
2409.934	4153
2411.91	4040
2413.886	4166
2415.862	4125
2417.836	3997
2419.809	4093
2421.784	4059
2423.756	4076
2425.73	4078
2427.701	3984
2429.672	4109
2431.644	4103
2433.615	4082
2435.586	4019
2437.555	4111
2439.523	4075
2441.491	3986
2443.459	4079
2445.428	4078
2447.395	4011
2449.361	4073
2451.327	4075
2453.292	4078
2455.257	3996
2457.223	4094
2459.187	4166
2461.15	4112
2463.113	4106
2465.076	4049
2467.039	4032
2468.999	3969
2470.96	4057
2472.921	4171
2474.881	4041
2476.841	3966
2478.8	4106
2480.759	4079
2482.717	4038
2484.675	4092
2486.63	4128
2488.589	4015
2490.545	4051
2492.5	3954
2494.455	4066
2496.408	4052
2498.364	4040
2500.318	4119
2502.27	3941
2504.223	3961
2506.174	4016
2508.126	3934
2510.078	3931
2512.03	3996
2513.979	4017
2515.927	3921
2517.877	3976
2519.826	3975
2521.775	4007
2523.722	4076
2525.668	4040
2527.616	4009
2529.561	4022
2531.508	3938
2533.452	3975
2535.398	3976
2537.342	3900
2539.284	4102
2541.229	4055
2543.173	3956
2545.114	3966
2547.055	4023
2548.996	3968
2550.938	3967
2552.878	3999
2554.817	4092
2556.756	3961
2558.695	4012
2560.633	3971
2562.572	3947
2564.509	3939
2566.445	3999
2568.382	4024
2570.317	3961
2572.254	3999
2574.189	4094
2576.123	3940
2578.057	4003
2579.99	3958
2581.923	3998
2583.855	3945
2585.788	4014
2587.719	3943
2589.65	3978
2591.579	3984
2593.511	3983
2595.44	3998
2597.37	4003
2599.297	3998
2601.225	3984
2603.153	4060
2605.08	4042
2607.007	3909
2608.932	3904
2610.858	3975
2612.782	3999
2614.709	4036
2616.632	3906
2618.556	4035
2620.478	3976
2622.401	3981
2624.324	4025
2626.247	3968
2628.167	3960
2630.088	4047
2632.008	4073
2633.928	3976
2635.848	3977
2637.766	4035
2639.684	3991
2641.603	4022
2643.519	3987
2645.437	3932
2647.353	4028
2649.27	4015
2651.184	3959
2653.099	3892
2655.014	3887
2656.928	3986
2658.842	3979
2660.755	3943
2662.667	4033
2664.579	3977
2666.491	3982
2668.402	3916
2670.312	4033
2672.222	3979
2674.132	4041
2676.042	3994
2677.951	3947
2679.859	3954
2681.766	3961
2683.674	3978
2685.582	4010
2687.488	3936
2689.392	3953
2691.298	3995
2693.202	3944
2695.107	4026
2697.012	3997
2698.914	3907
2700.817	4011
2702.72	3955
2704.622	3861
2706.524	3961
2708.425	3983
2710.326	3887
2712.225	3969
2714.125	3846
2716.024	3926
2717.923	3953
2719.822	3879
2721.719	3924
2723.616	3852
2725.512	3900
2727.41	3866
2729.305	3955
2731.201	3967
2733.095	3937
2734.99	3905
2736.884	3918
2738.778	3935
2740.67	3981
2742.562	3916
2744.455	3873
2746.346	3887
2748.238	3952
2750.129	3945
2752.018	3890
2753.907	3855
2755.797	3881
2757.687	3880
2759.575	3906
2761.462	3879
2763.349	3958
2765.237	3883
2767.124	4010
2769.009	3874
2770.894	3894
2772.779	3879
2774.663	3909
2776.547	3902
2778.431	3920
2780.314	3886
2782.197	3882
2784.078	3843
2785.96	3792
2787.842	3896
2789.723	3848
2791.603	3887
2793.483	3813
2795.362	3832
2797.241	3862
2799.121	3867
2800.997	3903
2802.874	3846
2804.751	3820
2806.628	3832
2808.506	3857
2810.38	3860
2812.255	3830
2814.13	3921
2816.003	3843
2817.878	3818
2819.752	3890
2821.623	3905
2823.496	3900
2825.368	3833
2827.238	3857
2829.111	3930
2830.98	3816
2832.851	3843
2834.719	3826
2836.589	3858
2838.458	3941
2840.327	3848
2842.193	3959
2844.061	3811
2845.927	3869
2847.794	3931
2849.66	3833
2851.525	3929
2853.39	3861
2855.254	3903
2857.117	3932
2858.983	3848
2860.845	3880
2862.707	3967
2864.569	3940
2866.431	4017
2868.293	3988
2870.154	4119
2872.013	4104
2873.873	4011
2875.733	4063
2877.592	4125
2879.451	4119
2881.309	4243
2883.166	4184
2885.022	4235
2886.879	4167
2888.736	4230
2890.591	4210
2892.446	4261
2894.301	4361
2896.155	4177
2898.009	4239
2899.863	4219
2901.716	4179
2903.568	4121
2905.419	4168
2907.27	4227
2909.123	4231
2910.973	4146
2912.824	4189
2914.673	4272
2916.521	4297
2918.372	4352
2920.22	4416
2922.067	4266
2923.914	4465
2925.761	4382
2927.607	4416
2929.455	4562
2931.301	4463
2933.144	4451
2934.99	4525
2936.833	4580
2938.678	4695
2940.522	4545
2942.364	4624
2944.207	4619
2946.048	4667
2947.891	4763
2949.731	4746
2951.571	4694
2953.412	4818
2955.25	4659
2957.09	4705
2958.93	4594
2960.767	4584
2962.606	4508
2964.443	4551
2966.279	4508
2968.116	4462
2969.953	4379
2971.788	4367
2973.623	4279
2975.457	4259
2977.292	4356
2979.127	4287
2980.959	4252
2982.792	4251
2984.624	4265
2986.455	4189
2988.288	4157
2990.119	4131
2991.949	4165
2993.779	4167
2995.608	4092
2997.439	4118
2999.268	4006
3001.096	4000
3002.923	3943
3004.751	3962
3006.578	3879
3008.406	3873
3010.232	3857
3012.057	3895
3013.883	3844
3015.706	3776
3017.532	3745
3019.356	3757
3021.179	3702
3023.002	3762
3024.823	3740
3026.646	3707
3028.469	3711
3030.289	3777
3032.11	3739
3033.93	3737
3035.749	3689
3037.57	3619
3039.39	3752
3041.207	3673
3043.026	3732
3044.842	3724
3046.661	3711
3048.477	3644
3050.294	3725
3052.109	3677
3053.925	3591
3055.739	3654
3057.555	3686
3059.368	3698
3061.181	3677
3062.995	3609
3064.807	3646
3066.62	3611
3068.433	3737
3070.243	3642
3072.054	3682
3073.865	3673
3075.675	3695
3077.485	3655
3079.293	3585
3081.102	3588
3082.911	3600
3084.719	3554
3086.527	3668
3088.333	3658
3090.139	3615
3091.945	3562
3093.75	3581
3095.557	3599
3097.361	3606
3099.165	3600
3100.969	3538
3102.772	3603
3104.575	3547
3106.379	3620
3108.181	3618
3109.982	3548
3111.783	3546
3113.584	3619
3115.386	3571
3117.186	3511
3118.985	3485
3120.783	3638
3122.582	3554
3124.381	3456
3126.179	3525
3127.975	3494
3129.772	3535
3131.569	3498
3133.365	3506
3135.161	3577
3136.956	3459
3138.751	3460
3140.544	3512
3142.338	3425
3144.132	3463
3145.925	3499
3147.717	3485
3149.509	3507
3151.301	3386
3153.091	3468
3154.884	3500
3156.673	3504
3158.462	3451
3160.252	3462
3162.041	3443
3163.831	3498
3165.618	3402
3167.405	3420
3169.193	3447
3170.979	3449
3172.767	3421
3174.553	3524
3176.338	3454
3178.123	3437
3179.907	3361
3181.692	3396
3183.477	3398
3185.259	3407
3187.042	3364
3188.824	3421
3190.607	3503
3192.389	3503
3194.17	3439
3195.951	3516
3197.73	3395
3199.51	3438
3201.289	3437
3203.07	3458
3204.848	3421
3206.626	3421
3208.403	3428
3210.18	3428
3211.959	3318
3213.735	3389
3215.511	3372
3217.285	3325
3219.06	3393
3220.836	3402
3222.611	3425
3224.384	3433
3226.158	3389
3227.929	3400
3229.702	3436
3231.476	3460
3233.248	3436
3235.018	3392
3236.789	3492
3238.56	3477
3240.33	3406
3242.1	3430
3243.869	3352
3245.637	3345
3247.405	3429
3249.172	3417
3250.941	3449
3252.707	3381
3254.474	3456
3256.24	3435
3258.006	3415
3259.772	3390
3261.537	3403
3263.301	3419
3265.065	3408
3266.828	3360
3268.592	3354
3270.355	3393
3272.117	3392
3273.878	3343
3275.64	3365
3277.401	3378
3279.162	3455
3280.922	3410
3282.682	3420
3284.441	3358
3286.199	3430
3287.959	3484
3289.716	3342
3291.475	3481
3293.232	3451
3294.988	3417
3296.744	3420
3298.501	3425
3300.256	3407
3302.011	3388
3303.766	3447
3305.52	3462
3307.275	3363
3309.028	3407
3310.781	3412
3312.533	3273
3314.285	3394
3316.038	3410
3317.789	3416
3319.54	3420
3321.289	3408
3323.039	3424
3324.789	3348
3326.539	3366
3328.288	3437
3330.035	3390
3331.783	3332
3333.531	3405
3335.28	3391
3337.025	3381
3338.771	3391
3340.518	3342
3342.262	3408
3344.009	3431
3345.753	3325
3347.497	3383
3349.24	3396
3350.983	3342
3352.726	3400
3354.469	3381
3356.212	3383
3357.952	3358
3359.694	3356
3361.434	3287
3363.176	3278
3364.916	3303
3366.654	3316
3368.394	3344
3370.132	3382
3371.871	3271
3373.61	3259
3375.346	3256
3377.083	3318
3378.82	3277
3380.556	3333
3382.292	3361
3384.027	3331
3385.763	3328
3387.497	3293
3389.231	3232
3390.965	3239
3392.698	3322
3394.431	3279
3396.164	3238
3397.896	3255
3399.627	3243
3401.36	3269
3403.09	3309
3404.82	3233
3406.55	3319
3408.279	3266
3410.01	3309
3411.738	3341
3413.467	3282
3415.194	3172
3416.92	3224
3418.647	3259
3420.375	3213
3422.102	3229
3423.827	3197
3425.553	3265
3427.277	3205
3429.003	3230
3430.727	3270
3432.451	3182
3434.173	3193
3435.896	3202
3437.62	3216
3439.343	3240
3441.063	3189
3442.785	3234
3444.505	3104
3446.226	3148
3447.948	3259
3449.666	3164
3451.386	3138
3453.104	3223
3454.823	3190
3456.541	3123
3458.259	3142
3459.976	3074
3461.693	3154
3463.408	3156
3465.125	3133
3466.841	3182
3468.556	3169
3470.271	3178
3471.985	3056
3473.698	3074
3475.414	3056
3477.126	3114
3478.838	3080
3480.55	3064
3482.263	3104
3483.975	3096
3485.686	3138
3487.396	3056
3489.106	3129
3490.817	3036
3492.526	3148
3494.236	3057
3495.944	3109
3497.652	3021
3499.359	3004
3501.066	2996
3502.775	3085
3504.481	3080
3506.187	3064
3507.893	3029
3509.598	3031
3511.304	3062
3513.009	3022
3514.713	3015
3516.417	3058
3518.12	2981
3519.821	2954
3521.525	2993
3523.228	2985
3524.929	3002
3526.631	3018
3528.33	2978
3530.032	2981
3531.733	3030
3533.433	2916
3535.131	3015
3536.83	3015
3538.529	2987
3540.227	2920
3541.925	2923
3543.623	2975
3545.319	2989
3547.016	2898
3548.712	2998
3550.408	3057
3552.103	2990
3553.798	2957
3555.491	2998
3557.188	2913
3558.88	3013
3560.574	2964
3562.266	2952
3563.959	2942
3565.651	2894
3567.343	3003
3569.035	2889
3570.725	2983
3572.415	2911
3574.106	2943
3575.797	2911
3577.485	2857
3579.174	2886
3580.863	2919
3582.551	2931
3584.238	2938
3585.926	2847
3587.613	2864
3589.3	2867
3590.986	2901
3592.671	2828
3594.357	2934
3596.042	2883
3597.726	2929
3599.41	2855
3601.094	2834
3602.778	2831
3604.461	2815
3606.143	2825
3607.825	2805
3609.507	2862
3611.188	2811
3612.87	2833
3614.551	2818
3616.229	2821
3617.909	2827
3619.589	2793
3621.269	2737
3622.948	2860
3624.625	2776
3626.302	2792
3627.98	2837
3629.657	2841
3631.334	2800
3633.01	2809
3634.686	2755
3636.361	2738
3638.036	2754
3639.712	2837
3641.385	2735
3643.06	2773
3644.732	2800
3646.405	2745
3648.08	2687
3649.751	2769
3651.424	2694
3653.094	2777
3654.766	2716
3656.436	2740
3658.106	2756
3659.777	2689
3661.446	2667
3663.115	2716
3664.783	2715
3666.452	2782
3668.121	2673
3669.788	2745
3671.454	2765
3673.121	2642
3674.789	2762
3676.455	2693
3678.12	2746
3679.784	2670
3681.45	2667
3683.114	2700
3684.779	2641
3686.442	2762
3688.105	2697
3689.768	2702
3691.43	2702
3693.093	2690
3694.754	2595
3696.415	2743
3698.076	2642
3699.736	2683
3701.396	2669
3703.057	2634
3704.716	2670
3706.375	2667
3708.034	2667
3709.692	2610
3711.351	2601
3713.008	2693
3714.665	2678
3716.321	2672
3717.977	2618
3719.634	2707
3721.29	2656
3722.945	2606
3724.598	2662
3726.253	2644
3727.907	2617
3729.561	2601
3731.214	2588
3732.867	2676
3734.518	2698
3736.171	2625
3737.824	2642
3739.474	2668
3741.125	2597
3742.775	2593
3744.425	2638
3746.074	2632
3747.725	2545
3749.373	2571
3751.022	2613
3752.669	2655
3754.318	2632
3755.966	2593
3757.612	2577
3759.259	2568
3760.905	2622
3762.55	2574
3764.197	2566
3765.842	2613
3767.486	2628
3769.131	2599
3770.774	2607
3772.417	2541
3774.061	2538
3775.705	2522
3777.347	2608
3778.988	2569
3780.629	2543
3782.271	2583
3783.912	2601
3785.552	2575
3787.192	2559
3788.831	2542
3790.472	2606
3792.112	2584
3793.75	2522
3795.388	2548
3797.024	2531
3798.661	2517
3800.3	2495
3801.936	2437
3803.572	2541
3805.208	2570
3806.844	2565
3808.48	2586
3810.115	2511
3811.748	2532
3813.382	2524
3815.016	2556
3816.649	2503
3818.283	2507
3819.914	2575
3821.547	2536
3823.178	2514
3824.809	2550
3826.441	2521
3828.072	2413
3829.701	2508
3831.331	2512
3832.96	2546
3834.591	2501
3836.219	2456
3837.847	2469
3839.475	2493
3841.102	2386
3842.729	2540
3844.357	2472
3845.984	2485
3847.609	2489
3849.234	2459
3850.86	2486
3852.485	2470
3854.11	2435
3855.734	2457
3857.357	2512
3858.981	2525
3860.603	2498
3862.227	2501
3863.848	2468
3865.471	2386
3867.092	2433
3868.713	2461
3870.334	2457
3871.954	2377
3873.575	2442
3875.194	2419
3876.813	2421
3878.433	2415
3880.051	2432
3881.669	2489
3883.286	2484
3884.904	2442
3886.52	2407
3888.138	2425
3889.754	2448
3891.37	2404
3892.985	2472
3894.6	2413
3896.216	2463
3897.831	2437
3899.444	2375
3901.058	2408
3902.67	2335
3904.283	2441
3905.897	2385
3907.509	2422
3909.121	2379
3910.731	2433
3912.342	2428
3913.954	2347
3915.563	2391
3917.174	2331
3918.783	2392
3920.391	2434
3922.002	2328
3923.611	2326
3925.218	2433
3926.826	2392
3928.432	2390
3930.039	2414
3931.647	2359
3933.253	2358
3934.859	2350
3936.464	2376
3938.068	2339
3939.675	2368
3941.278	2364
3942.883	2373
3944.486	2322
3946.089	2367
3947.692	2412
3949.295	2341
3950.898	2404
3952.499	2325
3954.1	2351
3955.7	2316
3957.303	2351
3958.903	2322
3960.502	2317
3962.101	2323
3963.7	2415
3965.301	2384
3966.899	2320
3968.497	2371
3970.094	2350
3971.691	2345
3973.288	2412
3974.885	2356
3976.481	2289
3978.077	2330
3979.672	2284
3981.267	2317
3982.863	2288
3984.457	2335
3986.051	2236
3987.645	2353
3989.238	2280
3990.831	2249
3992.425	2262
3994.017	2268
3995.607	2272
3997.199	2295
3998.79	2268
4000.382	2317
4001.973	2241
4003.561	2301
4005.151	2290
4006.741	2286
4008.331	2306
4009.918	2289
4011.507	2240
4013.095	2252
4014.681	2265
4016.269	2240
4017.856	2255
4019.443	2269
4021.028	2212
4022.614	2257
4024.199	2207
4025.785	2187
4027.37	2216
4028.953	2256
4030.536	2206
4032.12	2273
4033.704	2200
4035.287	2231
4036.869	2184
4038.45	2240
4040.032	2155
4041.613	2249
4043.195	2216
4044.776	2155
4046.356	2166
4047.935	2182
4049.515	2215
4051.095	2228
4052.674	2225
4054.251	2183
4055.829	2173
4057.406	2241
4058.985	2210
4060.562	2180
4062.139	2194
4063.715	2211
4065.29	2132
4066.865	2118
4068.442	2192
4070.016	2095
4071.59	2210
4073.164	2133
4074.738	2201
4076.312	2141
4077.885	2164
4079.458	2189
4081.03	2129
4082.602	2096
4084.173	2208
4085.745	2175
4087.315	2111
4088.886	2179
4090.456	2193
4092.026	2170
4093.596	2154
4095.165	2163
4096.734	2153
4098.301	2068
4099.869	2168
4101.437	2123
4103.006	2147
4104.572	2162
4106.139	2126
4107.704	2180
4109.27	2171
4110.837	2127
4112.401	2172
4113.966	2144
4115.53	2122
4117.094	2125
4118.659	2142
4120.223	2096
4121.785	2109
4123.347	2153
4124.909	2118
4126.471	2132
4128.034	2056
4129.595	2116
4131.155	2127
4132.716	2091
4134.275	2098
4135.836	2068
4137.395	2082
4138.955	2053
4140.513	2101
4142.071	2072
4143.628	2048
4145.188	2092
4146.745	2022
4148.302	2125
4149.858	2076
4151.414	2056
4152.971	2021
4154.526	2105
4156.081	2064
4157.635	2029
4159.189	2056
4160.745	2028
4162.298	2074
4163.852	2058
4165.405	2075
4166.957	2085
4168.51	2064
4170.063	2030
4171.614	2058
4173.166	2047
4174.717	2028
4176.267	1990
4177.817	1989
4179.368	2019
4180.917	2036
4182.466	1981
4184.016	2032
4185.564	2031
4187.112	1975
4188.66	2038
4190.207	1995
4191.754	2002
4193.301	2027
4194.848	2044
4196.394	2011
4197.94	2029
4199.484	2029
4201.03	2045
4202.575	2045
4204.12	1995
4205.663	1951
4207.207	2018
4208.75	1958
4210.292	2028
4211.836	1949
4213.378	1949
4214.92	2011
4216.46	2015
4218.002	1935
4219.544	1959
4221.083	1934
4222.625	1992
4224.164	1961
4225.703	1993
4227.244	1990
4228.782	2036
4230.32	1973
4231.857	2021
4233.395	2001
4234.933	1951
4236.471	1929
4238.007	1929
4239.542	1910
4241.078	1938
4242.614	1946
4244.15	1961
4245.685	1913
4247.219	1970
4248.753	1977
4250.287	1916
4251.82	1948
4253.354	1961
4254.887	1983
4256.419	1920
4257.951	1960
4259.483	1972
4261.016	1941
4262.547	1965
4264.078	2001
4265.608	1922
4267.137	1921
4268.668	1950
4270.197	1959
4271.727	1921
4273.254	1902
4274.783	1961
4276.311	1968
4277.84	1945
4279.366	1926
4280.894	1928
4282.42	1957
4283.946	1884
4285.473	1882
4286.998	1906
4288.523	1939
4290.047	1913
4291.572	1916
4293.096	1909
4294.622	1882
4296.144	1876
4297.668	1949
4299.19	1883
4300.713	1901
4302.236	1925
4303.758	1919
4305.279	1882
4306.799	1911
4308.321	1942
4309.842	1864
4311.361	1874
4312.882	1829
4314.401	1878
