400.0961	2426
402.6185	2449
405.1424	2450
407.6635	2466
410.1838	2397
412.7035	2439
415.2225	2417
417.7388	2413
420.2585	2506
422.7754	2544
425.2917	2510
427.8072	2614
430.3221	2539
432.8363	2590
435.3498	2582
437.8626	2604
440.3727	2625
442.8841	2573
445.3969	2624
447.907	2520
450.4142	2647
452.9229	2547
455.4289	2565
457.9362	2537
460.4449	2595
462.9488	2572
465.454	2590
467.9566	2587
470.4604	2488
472.9637	2577
475.4662	2526
477.966	2517
480.4671	2680
482.9656	2580
485.4633	2553
487.9645	2618
490.4608	2564
492.9566	2572
495.4536	2535
497.948	2578
500.4437	2613
502.9387	2610
505.431	2623
507.9226	2583
510.4136	2571
512.9079	2616
515.3975	2572
517.8864	2590
520.3746	2564
522.8622	2664
525.3491	2616
527.8394	2653
530.3249	2663
532.8098	2597
535.2939	2610
537.7774	2604
540.2623	2591
542.7444	2627
545.2259	2626
547.7067	2750
550.1868	2645
552.6683	2666
555.147	2743
557.6231	2704
560.1005	2684
562.5773	2721
565.0534	2735
567.5308	2769
570.0056	2707
572.4776	2723
574.951	2703
577.4237	2727
579.8978	2764
582.3671	2820
584.8378	2750
587.3079	2736
589.7773	2816
592.244	2698
594.714	2789
597.1793	2746
599.6461	2839
602.1121	2668
604.5754	2701
607.0421	2702
609.5042	2701
611.9675	2715
614.4282	2762
616.8902	2714
619.3515	2752
621.8122	2772
624.2702	2709
626.7296	2687
629.1863	2683
631.6423	2709
634.1017	2675
636.5563	2752
639.0104	2751
641.4658	2679
643.9185	2658
646.3725	2695
648.8239	2671
651.2766	2735
653.7266	2725
656.176	2713
658.6247	2764
661.0748	2786
663.5242	2753
665.9709	2719
668.417	2736
670.8624	2717
673.3092	2806
675.7533	2788
678.1968	2725
680.6395	2821
683.0817	2784
685.5251	2810
687.9659	2778
690.4061	2812
692.8456	2822
695.2844	2751
697.7226	2748
700.1621	2755
702.599	2761
705.0332	2851
707.4688	2770
709.9036	2838
712.3399	2881
714.7735	2844
717.2044	2808
719.6367	2898
722.0683	2869
724.4993	2789
726.9296	2966
729.3593	2854
731.7883	2768
734.2147	2883
736.6423	2832
739.0714	2907
741.4958	2940
743.9216	2892
746.3447	3001
748.7691	2901
751.1929	2910
753.616	2962
756.0366	2891
758.4584	3012
760.8776	2987
763.2982	2991
765.718	2906
768.1373	3017
770.5539	2976
772.9698	2988
775.3871	2946
777.8038	2944
780.2178	3027
782.6332	2994
785.0459	2937
787.458	3004
789.8714	2974
792.2842	3008
794.6943	2957
797.1038	3051
799.5127	2974
801.9209	2976
804.3324	2986
806.7393	3037
809.1456	3012
811.5513	2942
813.9562	3076
816.3625	3059
818.7663	2972
821.1693	2996
823.5718	3025
825.9735	3052
828.3746	3037
830.7771	3002
833.177	3081
835.5762	2974
837.9747	3044
840.3727	2980
842.772	3045
845.1666	3024
847.5626	3068
849.958	3039
852.3527	3150
854.7488	3151
857.1403	3075
859.5331	3150
861.9253	3124
864.3168	3099
866.7057	3042
869.098	3113
871.4876	3076
873.8746	3089
876.263	3126
878.6487	3105
881.0378	3096
883.4243	3096
885.8081	3097
888.1933	3036
890.5759	3009
892.9598	3162
895.343	2996
897.7256	3119
900.1057	3084
902.4871	3078
904.8659	3073
907.246	3156
909.6254	3151
912.0023	3090
914.3786	3207
916.7562	3216
919.1331	3194
921.5074	3204
923.8831	3237
926.2562	3190
928.6287	3253
931.0005	3295
933.3757	3260
935.7462	3271
938.1162	3326
940.4855	3390
942.8542	3319
945.2242	3328
947.5916	3457
949.9584	3619
952.3266	3687
954.6921	3861
957.0571	3992
959.4233	4150
961.787	4135
964.15	4148
966.5125	4098
968.8742	3849
971.2354	3627
973.5959	3404
975.9559	3451
978.3151	3380
980.6738	3285
983.0338	3260
985.3912	3208
987.7461	3177
990.1022	3237
992.4578	3190
994.8127	3269
997.1689	3136
999.5207	3223
1001.874	3260
1004.226	3185
1006.576	3288
1008.929	3268
1011.28	3226
1013.628	3213
1015.977	3234
1018.324	3238
1020.674	3290
1023.019	3260
1025.366	3210
1027.713	3263
1030.056	3244
1032.399	3212
1034.746	3227
1037.087	3282
1039.431	3289
1041.771	3223
1044.113	3319
1046.454	3247
1048.793	3320
1051.133	3273
1053.471	3255
1055.807	3235
1058.146	3329
1060.483	3376
1062.818	3373
1065.153	3352
1067.489	3348
1069.822	3324
1072.156	3372
1074.488	3408
1076.82	3373
1079.15	3365
1081.48	3287
1083.814	3319
1086.143	3258
1088.471	3248
1090.799	3393
1093.126	3241
1095.452	3290
1097.78	3209
1100.105	3314
1102.43	3352
1104.754	3294
1107.077	3272
1109.4	3290
1111.722	3284
1114.044	3279
1116.365	3227
1118.685	3310
1121.005	3299
1123.324	3301
1125.643	3292
1127.961	3355
1130.278	3247
1132.595	3215
1134.911	3383
1137.226	3286
1139.541	3324
1141.854	3305
1144.167	3250
1146.482	3277
1148.793	3256
1151.105	3370
1153.414	3286
1155.725	3312
1158.033	3318
1160.344	3252
1162.651	3298
1164.959	3358
1167.265	3298
1169.572	3316
1171.878	3340
1174.184	3269
1176.488	3291
1178.79	3330
1181.094	3281
1183.396	3332
1185.699	3314
1188.001	3319
1190.301	3346
1192.6	3297
1194.9	3232
1197.2	3275
1199.497	3351
1201.794	3436
1204.09	3342
1206.387	3247
1208.684	3394
1210.978	3258
1213.272	3341
1215.565	3359
1217.858	3305
1220.15	3366
1222.443	3390
1224.734	3395
1227.024	3305
1229.313	3329
1231.602	3422
1233.892	3412
1236.18	3329
1238.467	3375
1240.754	3412
1243.04	3432
1245.325	3402
1247.612	3420
1249.896	3408
1252.178	3517
1254.461	3446
1256.743	3473
1259.027	3444
1261.308	3478
1263.587	3452
1265.867	3425
1268.146	3530
1270.425	3426
1272.703	3457
1274.981	3389
1277.256	3476
1279.532	3468
1281.808	3420
1284.083	3382
1286.358	3398
1288.63	3347
1290.904	3400
1293.175	3497
1295.449	3460
1297.719	3415
1299.99	3411
1302.259	3365
1304.529	3392
1306.798	3445
1309.065	3437
1311.333	3361
1313.599	3404
1315.866	3492
1318.131	3447
1320.396	3424
1322.66	3334
1324.925	3334
1327.187	3371
1329.448	3339
1331.711	3377
1333.974	3483
1336.234	3515
1338.493	3413
1340.752	3427
1343.01	3336
1345.269	3368
1347.526	3401
1349.784	3420
1352.04	3470
1354.295	3364
1356.552	3328
1358.806	3396
1361.059	3364
1363.312	3431
1365.564	3487
1367.818	3414
1370.069	3494
1372.318	3398
1374.568	3405
1376.817	3449
1379.066	3360
1381.316	3478
1383.564	3508
1385.809	3480
1388.056	3445
1390.301	3460
1392.549	3571
1394.793	3420
1397.036	3585
1399.279	3437
1401.522	3478
1403.763	3494
1406.007	3589
1408.248	3415
1410.487	3521
1412.727	3503
1414.965	3487
1417.205	3529
1419.442	3555
1421.68	3500
1423.915	3566
1426.152	3503
1428.388	3561
1430.623	3549
1432.857	3546
1435.091	3589
1437.323	3591
1439.556	3607
1441.789	3607
1444.019	3539
1446.25	3585
1448.48	3611
1450.708	3655
1452.938	3599
1455.167	3624
1457.394	3576
1459.62	3658
1461.846	3650
1464.073	3638
1466.299	3583
1468.523	3578
1470.746	3502
1472.969	3514
1475.191	3464
1477.415	3527
1479.636	3429
1481.858	3526
1484.078	3456
1486.298	3504
1488.518	3416
1490.736	3450
1492.954	3463
1495.169	3347
1497.386	3440
1499.602	3466
1501.819	3455
1504.034	3425
1506.248	3445
1508.462	3494
1510.675	3372
1512.888	3443
1515.1	3443
1517.311	3415
1519.522	3439
1521.732	3459
1523.942	3562
1526.151	3356
1528.36	3447
1530.566	3408
1532.773	3466
1534.98	3428
1537.187	3376
1539.392	3556
1541.596	3355
1543.801	3523
1546.005	3493
1548.208	3478
1550.411	3442
1552.612	3488
1554.814	3454
1557.013	3371
1559.212	3521
1561.414	3533
1563.612	3538
1565.811	3470
1568.007	3586
1570.203	3568
1572.403	3589
1574.598	3599
1576.792	3523
1578.988	3493
1581.181	3569
1583.376	3542
1585.568	3526
1587.761	3408
1589.952	3566
1592.143	3564
1594.333	3567
1596.524	3525
1598.715	3542
1600.903	3578
1603.091	3578
1605.278	3514
1607.466	3570
1609.652	3606
1611.838	3525
1614.023	3604
1616.207	3543
1618.391	3554
1620.576	3462
1622.759	3580
1624.941	3651
1627.123	3565
1629.304	3609
1631.484	3725
1633.664	3591
1635.844	3606
1638.022	3612
1640.201	3597
1642.38	3617
1644.556	3610
1646.732	3602
1648.908	3576
1651.084	3640
1653.257	3582
1655.433	3622
1657.607	3658
1659.779	3633
1661.951	3618
1664.122	3667
1666.295	3707
1668.467	3713
1670.635	3646
1672.805	3632
1674.973	3658
1677.142	3701
1679.31	3667
1681.478	3616
1683.644	3636
1685.81	3708
1687.975	3569
1690.142	3651
1692.305	3689
1694.468	3598
1696.632	3591
1698.794	3628
1700.957	3582
1703.119	3624
1705.279	3618
1707.439	3611
1709.598	3526
1711.758	3587
1713.917	3541
1716.075	3590
1718.231	3555
1720.388	3505
1722.543	3558
1724.702	3586
1726.856	3558
1729.01	3596
1731.164	3545
1733.317	3613
1735.471	3531
1737.623	3498
1739.774	3574
1741.925	3662
1744.075	3581
1746.225	3609
1748.376	3585
1750.524	3536
1752.672	3633
1754.82	3606
1756.965	3608
1759.113	3612
1761.259	3552
1763.405	3574
1765.549	3608
1767.694	3598
1769.836	3558
1771.981	3569
1774.123	3622
1776.264	3520
1778.405	3589
1780.546	3634
1782.687	3542
1784.827	3588
1786.966	3616
1789.103	3551
1791.242	3548
1793.381	3558
1795.517	3527
1797.653	3671
1799.788	3656
1801.923	3573
1804.057	3554
1806.193	3575
1808.326	3592
1810.457	3674
1812.59	3621
1814.721	3610
1816.855	3592
1818.984	3594
1821.113	3549
1823.244	3579
1825.372	3543
1827.499	3674
1829.63	3653
1831.756	3612
1833.882	3579
1836.007	3594
1838.132	3588
1840.26	3555
1842.384	3593
1844.507	3578
1846.63	3567
1848.752	3570
1850.875	3585
1852.996	3578
1855.118	3453
1857.238	3591
1859.358	3559
1861.477	3601
1863.597	3629
1865.715	3598
1867.832	3622
1869.948	3543
1872.064	3494
1874.181	3685
1876.297	3554
1878.411	3562
1880.526	3592
1882.639	3598
1884.752	3615
1886.865	3583
1888.977	3570
1891.089	3611
1893.2	3612
1895.308	3582
1897.42	3614
1899.53	3576
1901.639	3558
1903.745	3587
1905.853	3560
1907.962	3653
1910.067	3653
1912.174	3624
1914.278	3599
1916.383	3571
1918.486	3620
1920.592	3595
1922.694	3668
1924.797	3602
1926.898	3559
1929	3620
1931.102	3616
1933.203	3663
1935.301	3709
1937.401	3605
1939.499	3702
1941.598	3588
1943.697	3733
1945.793	3659
1947.888	3699
1949.985	3604
1952.08	3656
1954.176	3615
1956.269	3552
1958.364	3659
1960.457	3650
1962.549	3607
1964.642	3676
1966.733	3671
1968.823	3690
1970.913	3664
1973.005	3628
1975.093	3659
1977.184	3611
1979.271	3622
1981.359	3604
1983.446	3596
1985.532	3613
1987.619	3611
1989.705	3564
1991.789	3659
1993.874	3606
1995.956	3640
1998.041	3631
2000.123	3559
2002.206	3547
2004.287	3601
2006.368	3581
2008.449	3567
2010.529	3560
2012.609	3528
2014.688	3662
2016.766	3719
2018.843	3626
2020.922	3575
2022.999	3624
2025.074	3548
2027.15	3652
2029.225	3561
2031.299	3664
2033.375	3594
2035.447	3600
2037.52	3681
2039.592	3527
2041.664	3558
2043.736	3653
2045.807	3625
2047.876	3645
2049.947	3618
2052.015	3534
2054.086	3601
2056.153	3607
2058.221	3555
2060.288	3713
2062.353	3674
2064.42	3655
2066.486	3625
2068.55	3604
2070.614	3588
2072.678	3601
2074.741	3536
2076.805	3610
2078.866	3583
2080.929	3641
2082.99	3713
2085.049	3667
2087.109	3589
2089.17	3697
2091.228	3516
2093.286	3639
2095.344	3635
2097.4	3619
2099.46	3602
2101.516	3656
2103.572	3639
2105.626	3623
2107.679	3633
2109.735	3637
2111.788	3688
2113.841	3620
2115.894	3614
2117.945	3612
2119.997	3612
2122.049	3586
2124.1	3679
2126.148	3607
2128.197	3645
2130.246	3560
2132.296	3561
2134.342	3595
2136.39	3631
2138.437	3608
2140.483	3685
2142.527	3560
2144.574	3689
2146.619	3602
2148.661	3639
2150.705	3575
2152.747	3562
2154.792	3588
2156.832	3597
2158.874	3587
2160.915	3583
2162.954	3606
2164.995	3586
2167.034	3585
2169.072	3617
2171.111	3584
2173.148	3558
2175.186	3634
2177.223	3683
2179.258	3638
2181.294	3630
2183.328	3561
2185.362	3559
2187.398	3521
2189.431	3550
2191.463	3521
2193.495	3596
2195.528	3457
2197.56	3487
2199.59	3661
2201.62	3576
2203.649	3513
2205.678	3553
2207.708	3492
2209.737	3543
2211.764	3541
2213.791	3498
2215.817	3628
2217.843	3574
2219.87	3567
2221.895	3449
2223.919	3578
2225.942	3574
2227.966	3584
2229.988	3505
2232.012	3586
2234.032	3525
2236.054	3549
2238.074	3635
2240.095	3545
2242.116	3561
2244.135	3549
2246.153	3576
2248.171	3464
2250.188	3586
2252.208	3491
2254.223	3588
2256.239	3573
2258.255	3605
2260.269	3598
2262.283	3573
2264.3	3574
2266.312	3516
2268.325	3528
2270.336	3529
2272.349	3566
2274.362	3599
2276.372	3578
2278.383	3615
2280.392	3547
2282.402	3629
2284.409	3504
2286.418	3504
2288.427	3546
2290.433	3501
2292.441	3540
2294.446	3592
2296.453	3515
2298.459	3601
2300.463	3532
2302.466	3568
2304.471	3550
2306.475	3517
2308.477	3471
2310.478	3486
2312.481	3556
2314.481	3524
2316.481	3547
2318.482	3488
2320.482	3516
2322.48	3552
2324.48	3528
2326.478	3414
2328.476	3597
2330.473	3569
2332.469	3512
2334.465	3510
2336.46	3508
2338.454	3489
2340.45	3516
2342.444	3527
2344.437	3411
2346.43	3467
2348.421	3478
2350.414	3480
2352.405	3512
2354.396	3466
2356.386	3560
2358.376	3439
2360.366	3457
2362.355	3470
2364.343	3457
2366.331	3497
2368.317	3512
2370.304	3506
2372.292	3544
2374.278	3535
2376.262	3539
2378.247	3451
2380.23	3536
2382.216	3497
2384.199	3404
2386.181	3499
2388.163	3424
2390.144	3411
2392.127	3536
2394.107	3502
2396.087	3419
2398.066	3402
2400.046	3474
2402.023	3432
2404.004	3452
2405.981	3466
2407.957	3462
2409.934	3364
2411.91	3463
2413.886	3461
2415.862	3457
2417.836	3413
2419.809	3434
2421.784	3444
2423.756	3429
2425.73	3425
2427.701	3473
2429.672	3405
2431.644	3466
2433.615	3396
2435.586	3464
2437.555	3447
2439.523	3542
2441.491	3412
2443.459	3488
2445.428	3489
2447.395	3495
2449.361	3401
2451.327	3517
2453.292	3429
2455.257	3445
2457.223	3426
2459.187	3359
2461.15	3414
2463.113	3452
2465.076	3474
2467.039	3452
2468.999	3458
2470.96	3401
2472.921	3388
2474.881	3512
2476.841	3414
2478.8	3466
2480.759	3454
2482.717	3394
2484.675	3464
2486.63	3385
2488.589	3420
2490.545	3397
2492.5	3415
2494.455	3389
2496.408	3469
2498.364	3351
2500.318	3473
2502.27	3449
2504.223	3453
2506.174	3473
2508.126	3413
2510.078	3413
2512.03	3322
2513.979	3482
2515.927	3376
2517.877	3356
2519.826	3424
2521.775	3537
2523.722	3411
2525.668	3463
2527.616	3443
2529.561	3370
2531.508	3424
2533.452	3347
2535.398	3383
2537.342	3422
2539.284	3389
2541.229	3408
2543.173	3310
2545.114	3441
2547.055	3330
2548.996	3398
2550.938	3400
2552.878	3366
2554.817	3377
2556.756	3461
2558.695	3415
2560.633	3384
2562.572	3343
2564.509	3437
2566.445	3459
2568.382	3464
2570.317	3420
2572.254	3499
2574.189	3374
2576.123	3406
2578.057	3358
2579.99	3375
2581.923	3314
2583.855	3409
2585.788	3292
2587.719	3309
2589.65	3441
2591.579	3326
2593.511	3411
2595.44	3383
2597.37	3402
2599.297	3382
2601.225	3349
2603.153	3472
2605.08	3455
2607.007	3443
2608.932	3428
2610.858	3416
2612.782	3324
2614.709	3394
2616.632	3396
2618.556	3457
2620.478	3460
2622.401	3364
2624.324	3437
2626.247	3389
2628.167	3422
2630.088	3440
2632.008	3398
2633.928	3440
2635.848	3458
2637.766	3403
2639.684	3400
2641.603	3385
2643.519	3371
2645.437	3461
2647.353	3368
2649.27	3399
2651.184	3462
2653.099	3528
2655.014	3384
2656.928	3444
2658.842	3418
2660.755	3458
2662.667	3447
2664.579	3408
2666.491	3395
2668.402	3351
2670.312	3351
2672.222	3378
2674.132	3385
2676.042	3360
2677.951	3459
2679.859	3305
2681.766	3371
2683.674	3430
2685.582	3402
2687.488	3367
2689.392	3409
2691.298	3405
2693.202	3351
2695.107	3386
2697.012	3382
2698.914	3450
2700.817	3358
2702.72	3303
2704.622	3318
2706.524	3416
2708.425	3422
2710.326	3322
2712.225	3311
2714.125	3415
2716.024	3363
2717.923	3337
2719.822	3401
2721.719	3228
2723.616	3313
2725.512	3370
2727.41	3350
2729.305	3381
2731.201	3322
2733.095	3353
2734.99	3354
2736.884	3364
2738.778	3379
2740.67	3367
2742.562	3309
2744.455	3264
2746.346	3422
2748.238	3354
2750.129	3298
2752.018	3404
2753.907	3344
2755.797	3366
2757.687	3354
2759.575	3348
2761.462	3329
2763.349	3253
2765.237	3319
2767.124	3390
2769.009	3352
2770.894	3343
2772.779	3361
2774.663	3309
2776.547	3382
2778.431	3429
2780.314	3347
2782.197	3353
2784.078	3334
2785.96	3273
2787.842	3356
2789.723	3389
2791.603	3399
2793.483	3346
2795.362	3326
2797.241	3334
2799.121	3298
2800.997	3341
2802.874	3344
2804.751	3276
2806.628	3255
2808.506	3305
2810.38	3245
2812.255	3382
2814.13	3267
2816.003	3276
2817.878	3368
2819.752	3365
2821.623	3342
2823.496	3321
2825.368	3276
2827.238	3382
2829.111	3339
2830.98	3292
2832.851	3273
2834.719	3250
2836.589	3378
2838.458	3310
2840.327	3272
2842.193	3375
2844.061	3272
2845.927	3309
2847.794	3349
2849.66	3327
2851.525	3325
2853.39	3314
2855.254	3367
2857.117	3468
2858.983	3370
2860.845	3414
2862.707	3410
2864.569	3392
2866.431	3333
2868.293	3508
2870.154	3489
2872.013	3513
2873.873	3473
2875.733	3592
2877.592	3645
2879.451	3699
2881.309	3612
2883.166	3610
2885.022	3674
2886.879	3694
2888.736	3653
2890.591	3623
2892.446	3686
2894.301	3747
2896.155	3659
2898.009	3697
2899.863	3647
2901.716	3670
2903.568	3554
2905.419	3666
2907.27	3662
2909.123	3675
2910.973	3646
2912.824	3633
2914.673	3701
2916.521	3769
2918.372	3831
2920.22	3871
2922.067	3777
2923.914	3822
2925.761	3860
2927.607	3756
2929.455	3942
2931.301	3991
2933.144	4045
2934.99	3979
2936.833	4116
2938.678	4081
2940.522	4180
2942.364	4186
2944.207	4189
2946.048	4219
2947.891	4213
2949.731	4255
2951.571	4253
2953.412	4147
2955.25	4229
2957.09	4116
2958.93	4144
2960.767	4106
2962.606	3988
2964.443	3950
2966.279	4002
2968.116	3902
2969.953	3835
2971.788	3827
2973.623	3818
2975.457	3804
2977.292	3855
2979.127	3771
2980.959	3739
2982.792	3704
2984.624	3728
2986.455	3679
2988.288	3713
2990.119	3709
2991.949	3645
2993.779	3649
2995.608	3599
2997.439	3593
2999.268	3592
3001.096	3552
3002.923	3481
3004.751	3440
3006.578	3478
3008.406	3430
3010.232	3404
3012.057	3323
3013.883	3368
3015.706	3324
3017.532	3330
3019.356	3406
3021.179	3293
3023.002	3283
3024.823	3201
3026.646	3261
3028.469	3296
3030.289	3241
3032.11	3178
3033.93	3261
3035.749	3251
3037.57	3179
3039.39	3229
3041.207	3191
3043.026	3142
3044.842	3203
3046.661	3122
3048.477	3184
3050.294	3164
3052.109	3200
3053.925	3124
3055.739	3173
3057.555	3260
3059.368	3256
3061.181	3223
3062.995	3222
3064.807	3231
3066.62	3151
3068.433	3260
3070.243	3122
3072.054	3202
3073.865	3180
3075.675	3114
3077.485	3146
3079.293	3240
3081.102	3197
3082.911	3181
3084.719	3112
3086.527	3121
3088.333	3126
3090.139	3185
3091.945	3111
3093.75	3112
3095.557	3149
3097.361	3115
3099.165	3213
3100.969	3209
3102.772	3102
3104.575	3123
3106.379	3004
3108.181	3062
3109.982	3023
3111.783	3053
3113.584	3073
3115.386	3021
3117.186	3109
3118.985	3088
3120.783	3145
3122.582	3104
3124.381	3043
3126.179	3018
3127.975	3108
3129.772	3100
3131.569	3082
3133.365	2962
3135.161	3043
3136.956	3017
3138.751	3148
3140.544	3031
3142.338	3112
3144.132	3089
3145.925	3087
3147.717	2975
3149.509	2985
3151.301	3014
3153.091	3027
3154.884	2949
3156.673	3014
3158.462	3032
3160.252	3057
3162.041	3024
3163.831	3023
3165.618	3125
3167.405	3058
3169.193	3078
3170.979	3018
3172.767	3041
3174.553	3013
3176.338	3074
3178.123	2994
3179.907	3034
3181.692	3018
3183.477	2980
3185.259	2959
3187.042	2982
3188.824	2976
3190.607	3021
3192.389	3017
3194.17	2955
3195.951	3027
3197.73	3014
3199.51	2996
3201.289	3058
3203.07	3052
3204.848	3027
3206.626	3054
3208.403	3026
3210.18	2914
3211.959	2979
3213.735	2984
3215.511	2944
3217.285	2982
3219.06	3064
3220.836	3001
3222.611	3084
3224.384	3029
3226.158	3012
3227.929	3016
3229.702	2995
3231.476	3010
3233.248	2961
3235.018	2981
3236.789	3027
3238.56	2992
3240.33	3045
3242.1	2994
3243.869	2979
3245.637	3001
3247.405	2961
3249.172	3018
3250.941	3038
3252.707	2970
3254.474	2946
3256.24	3076
3258.006	2984
3259.772	3088
3261.537	2996
3263.301	2955
3265.065	3067
3266.828	3004
3268.592	3031
3270.355	2985
3272.117	2987
3273.878	3024
3275.64	2994
3277.401	3015
3279.162	3033
3280.922	3047
3282.682	2988
3284.441	3057
3286.199	3058
3287.959	3072
3289.716	2952
3291.475	3049
3293.232	3023
3294.988	3016
3296.744	3038
3298.501	3013
3300.256	3018
3302.011	3027
3303.766	3011
3305.52	2998
3307.275	3013
3309.028	3070
3310.781	3056
3312.533	2977
3314.285	2997
3316.038	3006
3317.789	3129
3319.54	2983
3321.289	3012
3323.039	3091
3324.789	3001
3326.539	3050
3328.288	3031
3330.035	3022
3331.783	3068
3333.531	3036
3335.28	3002
3337.025	2984
3338.771	3050
3340.518	2978
3342.262	3046
3344.009	2988
3345.753	3045
3347.497	2995
3349.24	3003
3350.983	2914
3352.726	2980
3354.469	2913
3356.212	2955
3357.952	2968
3359.694	3007
3361.434	2937
3363.176	2980
3364.916	3004
3366.654	2932
3368.394	2995
3370.132	2990
3371.871	2889
3373.61	2959
3375.346	2958
3377.083	2948
3378.82	2963
3380.556	2922
3382.292	2989
3384.027	2912
3385.763	2931
3387.497	2887
3389.231	2963
3390.965	2922
3392.698	2934
3394.431	2917
3396.164	2928
3397.896	2954
3399.627	2867
3401.36	2913
3403.09	2919
3404.82	2961
3406.55	2949
3408.279	2823
3410.01	2924
3411.738	2996
3413.467	2965
3415.194	2946
3416.92	2876
3418.647	2887
3420.375	2805
3422.102	2882
3423.827	2903
3425.553	2886
3427.277	2883
3429.003	2878
3430.727	2856
3432.451	2935
3434.173	2820
3435.896	2914
3437.62	2866
3439.343	2862
3441.063	2807
3442.785	2803
3444.505	2909
3446.226	2892
3447.948	2792
3449.666	2886
3451.386	2804
3453.104	2870
3454.823	2831
3456.541	2826
3458.259	2819
3459.976	2810
3461.693	2814
3463.408	2745
3465.125	2805
3466.841	2760
3468.556	2772
3470.271	2797
3471.985	2774
3473.698	2745
3475.414	2813
3477.126	2831
3478.838	2757
3480.55	2704
3482.263	2758
3483.975	2757
3485.686	2724
3487.396	2723
3489.106	2721
3490.817	2797
3492.526	2743
3494.236	2745
3495.944	2751
3497.652	2701
3499.359	2793
3501.066	2654
3502.775	2723
3504.481	2718
3506.187	2724
3507.893	2735
3509.598	2605
3511.304	2696
3513.009	2706
3514.713	2665
3516.417	2664
3518.12	2661
3519.821	2678
3521.525	2655
3523.228	2753
3524.929	2646
3526.631	2720
3528.33	2702
3530.032	2645
3531.733	2718
3533.433	2668
3535.131	2687
3536.83	2666
3538.529	2614
3540.227	2702
3541.925	2678
3543.623	2629
3545.319	2648
3547.016	2641
3548.712	2618
3550.408	2639
3552.103	2635
3553.798	2646
3555.491	2675
3557.188	2598
3558.88	2703
3560.574	2636
3562.266	2618
3563.959	2647
3565.651	2646
3567.343	2619
3569.035	2658
3570.725	2605
3572.415	2606
3574.106	2577
3575.797	2578
3577.485	2586
3579.174	2554
3580.863	2578
3582.551	2582
3584.238	2530
3585.926	2551
3587.613	2563
3589.3	2588
3590.986	2562
3592.671	2515
3594.357	2523
3596.042	2561
3597.726	2521
3599.41	2551
3601.094	2489
3602.778	2515
3604.461	2561
3606.143	2524
3607.825	2545
3609.507	2588
3611.188	2494
3612.87	2521
3614.551	2574
3616.229	2562
3617.909	2491
3619.589	2532
3621.269	2553
3622.948	2496
3624.625	2513
3626.302	2468
3627.98	2477
3629.657	2465
3631.334	2464
3633.01	2470
3634.686	2452
3636.361	2502
3638.036	2574
3639.712	2429
3641.385	2471
3643.06	2458
3644.732	2422
3646.405	2480
3648.08	2456
3649.751	2487
3651.424	2409
3653.094	2402
3654.766	2455
3656.436	2396
3658.106	2484
3659.777	2422
3661.446	2420
3663.115	2404
3664.783	2408
3666.452	2433
3668.121	2468
3669.788	2449
3671.454	2457
3673.121	2453
3674.789	2359
3676.455	2398
3678.12	2410
3679.784	2397
3681.45	2393
3683.114	2389
3684.779	2421
3686.442	2428
3688.105	2480
3689.768	2440
3691.43	2398
3693.093	2384
3694.754	2377
3696.415	2352
3698.076	2400
3699.736	2398
3701.396	2397
3703.057	2346
3704.716	2377
3706.375	2384
3708.034	2368
3709.692	2461
3711.351	2367
3713.008	2364
3714.665	2389
3716.321	2364
3717.977	2356
3719.634	2351
3721.29	2354
3722.945	2337
3724.598	2346
3726.253	2360
3727.907	2359
3729.561	2365
3731.214	2413
3732.867	2275
3734.518	2357
3736.171	2322
3737.824	2303
3739.474	2355
3741.125	2344
3742.775	2344
3744.425	2296
3746.074	2355
3747.725	2340
3749.373	2287
3751.022	2342
3752.669	2323
3754.318	2332
3755.966	2286
3757.612	2291
3759.259	2292
3760.905	2351
3762.55	2318
3764.197	2327
3765.842	2282
3767.486	2301
3769.131	2265
3770.774	2288
3772.417	2277
3774.061	2303
3775.705	2279
3777.347	2311
3778.988	2276
3780.629	2268
3782.271	2285
3783.912	2204
3785.552	2285
3787.192	2234
3788.831	2287
3790.472	2231
3792.112	2330
3793.75	2271
3795.388	2268
3797.024	2235
3798.661	2233
3800.3	2314
3801.936	2246
3803.572	2324
3805.208	2279
3806.844	2246
3808.48	2278
3810.115	2250
3811.748	2250
3813.382	2241
3815.016	2296
3816.649	2208
3818.283	2252
3819.914	2234
3821.547	2283
3823.178	2193
3824.809	2227
3826.441	2191
3828.072	2226
3829.701	2222
3831.331	2261
3832.96	2262
3834.591	2202
3836.219	2201
3837.847	2214
3839.475	2270
3841.102	2222
3842.729	2235
3844.357	2245
3845.984	2168
3847.609	2166
3849.234	2201
3850.86	2203
3852.485	2227
3854.11	2139
3855.734	2212
3857.357	2188
3858.981	2156
3860.603	2260
3862.227	2224
3863.848	2192
3865.471	2206
3867.092	2214
3868.713	2123
3870.334	2174
3871.954	2174
3873.575	2136
3875.194	2183
3876.813	2221
3878.433	2112
3880.051	2178
3881.669	2248
3883.286	2211
3884.904	2178
3886.52	2202
3888.138	2155
3889.754	2175
3891.37	2243
3892.985	2205
3894.6	2194
3896.216	2188
3897.831	2175
3899.444	2177
3901.058	2183
3902.67	2213
3904.283	2128
3905.897	2168
3907.509	2134
3909.121	2144
3910.731	2212
3912.342	2146
3913.954	2174
3915.563	2174
3917.174	2134
3918.783	2145
3920.391	2178
3922.002	2148
3923.611	2129
3925.218	2149
3926.826	2138
3928.432	2137
3930.039	2171
3931.647	2142
3933.253	2197
3934.859	2164
3936.464	2124
3938.068	2097
3939.675	2149
3941.278	2123
3942.883	2231
3944.486	2122
3946.089	2117
3947.692	2161
3949.295	2155
3950.898	2091
3952.499	2153
3954.1	2177
3955.7	2109
3957.303	2083
3958.903	2099
3960.502	2124
3962.101	2169
3963.7	2155
3965.301	2104
3966.899	2111
3968.497	2078
3970.094	2080
3971.691	2089
3973.288	2090
3974.885	2124
3976.481	2085
3978.077	2109
3979.672	2141
3981.267	2046
3982.863	2131
3984.457	2097
3986.051	2124
3987.645	2120
3989.238	2119
3990.831	2091
3992.425	2020
3994.017	2088
3995.607	2059
3997.199	2076
3998.79	2090
4000.382	1998
4001.973	1994
4003.561	2063
4005.151	2022
4006.741	2053
4008.331	2030
4009.918	1990
4011.507	2032
4013.095	2056
4014.681	2057
4016.269	2086
4017.856	2023
4019.443	2095
4021.028	1986
4022.614	1966
4024.199	2030
4025.785	2079
4027.37	1979
4028.953	2026
4030.536	2038
4032.12	2031
4033.704	1989
4035.287	1990
4036.869	2033
4038.45	2011
4040.032	2031
4041.613	1978
4043.195	2003
4044.776	1963
4046.356	1975
4047.935	1994
4049.515	2011
4051.095	2031
4052.674	1959
4054.251	1996
4055.829	2005
4057.406	1987
4058.985	1926
4060.562	1992
4062.139	2029
4063.715	1921
4065.29	1972
4066.865	1948
4068.442	1951
4070.016	1974
4071.59	1985
4073.164	1983
4074.738	1949
4076.312	2013
4077.885	1959
4079.458	1934
4081.03	1958
4082.602	2030
4084.173	1959
4085.745	1933
4087.315	1947
4088.886	2003
4090.456	1955
4092.026	1925
4093.596	1984
4095.165	1987
4096.734	1944
4098.301	1960
4099.869	1899
4101.437	1922
4103.006	1953
4104.572	1945
4106.139	1942
4107.704	1937
4109.27	1914
4110.837	1917
4112.401	1945
4113.966	1925
4115.53	1864
4117.094	1903
4118.659	1977
4120.223	1889
4121.785	1965
4123.347	1928
4124.909	1893
4126.471	1907
4128.034	1939
4129.595	1959
4131.155	1860
4132.716	1885
4134.275	1933
4135.836	1918
4137.395	1846
4138.955	1871
4140.513	1965
4142.071	1903
4143.628	1876
4145.188	1927
4146.745	1848
4148.302	1902
4149.858	1932
4151.414	1867
4152.971	1969
4154.526	1878
4156.081	1841
4157.635	1841
4159.189	1899
4160.745	1851
4162.298	1928
4163.852	1884
4165.405	1848
4166.957	1894
4168.51	1861
4170.063	1830
4171.614	1913
4173.166	1818
4174.717	1831
4176.267	1814
4177.817	1879
4179.368	1845
4180.917	1770
4182.466	1867
4184.016	1849
4185.564	1847
4187.112	1820
4188.66	1761
4190.207	1887
4191.754	1719
4193.301	1809
4194.848	1854
4196.394	1821
4197.94	1833
4199.484	1857
4201.03	1901
4202.575	1802
4204.12	1808
4205.663	1799
4207.207	1807
4208.75	1795
4210.292	1834
4211.836	1810
4213.378	1776
4214.92	1841
4216.46	1807
4218.002	1740
4219.544	1834
4221.083	1811
4222.625	1789
4224.164	1805
4225.703	1786
4227.244	1799
4228.782	1780
4230.32	1767
4231.857	1771
4233.395	1799
4234.933	1841
4236.471	1808
4238.007	1834
4239.542	1831
4241.078	1772
4242.614	1813
4244.15	1820
4245.685	1795
4247.219	1794
4248.753	1824
4250.287	1752
4251.82	1828
4253.354	1798
4254.887	1830
4256.419	1795
4257.951	1799
4259.483	1733
4261.016	1727
4262.547	1765
4264.078	1741
4265.608	1726
4267.137	1746
4268.668	1777
4270.197	1820
4271.727	1767
4273.254	1735
4274.783	1716
4276.311	1729
4277.84	1719
4279.366	1794
4280.894	1779
4282.42	1764
4283.946	1748
4285.473	1777
4286.998	1757
4288.523	1727
4290.047	1749
4291.572	1735
4293.096	1728
4294.622	1734
4296.144	1747
4297.668	1724
4299.19	1716
4300.713	1757
4302.236	1739
4303.758	1687
4305.279	1749
4306.799	1685
4308.321	1742
4309.842	1760
4311.361	1766
4312.882	1713
4314.401	1765
