400.0961	3459
402.6185	3373
405.1424	3341
407.6635	3384
410.1838	3470
412.7035	3501
415.2225	3451
417.7388	3468
420.2585	3352
422.7754	3512
425.2917	3607
427.8072	3558
430.3221	3584
432.8363	3515
435.3498	3596
437.8626	3713
440.3727	3611
442.8841	3611
445.3969	3627
447.907	3651
450.4142	3698
452.9229	3571
455.4289	3536
457.9362	3566
460.4449	3645
462.9488	3596
465.454	3591
467.9566	3638
470.4604	3607
472.9637	3567
475.4662	3544
477.966	3595
480.4671	3575
482.9656	3698
485.4633	3696
487.9645	3594
490.4608	3599
492.9566	3724
495.4536	3623
497.948	3779
500.4437	3648
502.9387	3647
505.431	3700
507.9226	3659
510.4136	3622
512.9079	3662
515.3975	3780
517.8864	3664
520.3746	3760
522.8622	3702
525.3491	3732
527.8394	3740
530.3249	3712
532.8098	3754
535.2939	3722
537.7774	3749
540.2623	3720
542.7444	3759
545.2259	3785
547.7067	3770
550.1868	3655
552.6683	3774
555.147	3722
557.6231	3767
560.1005	3896
562.5773	3830
565.0534	3762
567.5308	3766
570.0056	3792
572.4776	3772
574.951	3772
577.4237	3855
579.8978	3830
582.3671	3874
584.8378	3878
587.3079	3838
589.7773	3882
592.244	3822
594.714	3867
597.1793	3825
599.6461	3829
602.1121	3827
604.5754	3856
607.0421	3886
609.5042	3863
611.9675	3818
614.4282	3878
616.8902	3876
619.3515	3838
621.8122	3880
624.2702	3829
626.7296	3825
629.1863	3862
631.6423	3879
634.1017	3842
636.5563	3940
639.0104	3862
641.4658	3858
643.9185	3888
646.3725	3871
648.8239	3873
651.2766	3913
653.7266	3878
656.176	3799
658.6247	3892
661.0748	3952
663.5242	3892
665.9709	3932
668.417	3925
670.8624	3997
673.3092	4044
675.7533	4008
678.1968	3942
680.6395	3935
683.0817	3981
685.5251	3956
687.9659	3931
690.4061	4100
692.8456	3994
695.2844	3971
697.7226	4060
700.1621	4088
702.599	3990
705.0332	3994
707.4688	4059
709.9036	3925
712.3399	4027
714.7735	3989
717.2044	3949
719.6367	4143
722.0683	4007
724.4993	4126
726.9296	4063
729.3593	4055
731.7883	4129
734.2147	4086
736.6423	4157
739.0714	4171
741.4958	4158
743.9216	4116
746.3447	4202
748.7691	4170
751.1929	4140
753.616	4279
756.0366	4205
758.4584	4299
760.8776	4228
763.2982	4310
765.718	4225
768.1373	4212
770.5539	4313
772.9698	4237
775.3871	4212
777.8038	4277
780.2178	4210
782.6332	4315
785.0459	4238
787.458	4261
789.8714	4226
792.2842	4306
794.6943	4217
797.1038	4204
799.5127	4263
801.9209	4251
804.3324	4308
806.7393	4352
809.1456	4292
811.5513	4302
813.9562	4320
816.3625	4266
818.7663	4274
821.1693	4333
823.5718	4329
825.9735	4181
828.3746	4330
830.7771	4265
833.177	4346
835.5762	4311
837.9747	4338
840.3727	4412
842.772	4293
845.1666	4330
847.5626	4341
849.958	4384
852.3527	4460
854.7488	4555
857.1403	4457
859.5331	4444
861.9253	4415
864.3168	4495
866.7057	4341
869.098	4345
871.4876	4367
873.8746	4473
876.263	4458
878.6487	4447
881.0378	4334
883.4243	4447
885.8081	4373
888.1933	4381
890.5759	4439
892.9598	4414
895.343	4361
897.7256	4421
900.1057	4421
902.4871	4394
904.8659	4362
907.246	4436
909.6254	4403
912.0023	4441
914.3786	4595
916.7562	4509
919.1331	4595
921.5074	4546
923.8831	4626
926.2562	4580
928.6287	4733
931.0005	4622
933.3757	4691
935.7462	4623
938.1162	4627
940.4855	4711
942.8542	4738
945.2242	4768
947.5916	4815
949.9584	4978
952.3266	5078
954.6921	5186
957.0571	5445
959.4233	5600
961.787	5620
964.15	5503
966.5125	5502
968.8742	5221
971.2354	5072
973.5959	4815
975.9559	4815
978.3151	4750
980.6738	4682
983.0338	4622
985.3912	4603
987.7461	4560
990.1022	4510
992.4578	4624
994.8127	4485
997.1689	4650
999.5207	4612
1001.874	4555
1004.226	4584
1006.576	4609
1008.929	4557
1011.28	4596
1013.628	4620
1015.977	4606
1018.324	4602
1020.674	4586
1023.019	4608
1025.366	4529
1027.713	4631
1030.056	4524
1032.399	4533
1034.746	4659
1037.087	4606
1039.431	4670
1041.771	4678
1044.113	4721
1046.454	4777
1048.793	4751
1051.133	4634
1053.471	4732
1055.807	4711
1058.146	4700
1060.483	4709
1062.818	4676
1065.153	4630
1067.489	4771
1069.822	4702
1072.156	4765
1074.488	4828
1076.82	4787
1079.15	4677
1081.48	4826
1083.814	4677
1086.143	4681
1088.471	4681
1090.799	4743
1093.126	4666
1095.452	4615
1097.78	4609
1100.105	4671
1102.43	4667
1104.754	4676
1107.077	4717
1109.4	4705
1111.722	4809
1114.044	4649
1116.365	4683
1118.685	4677
1121.005	4617
1123.324	4725
1125.643	4760
1127.961	4712
1130.278	4745
1132.595	4679
1134.911	4649
1137.226	4678
1139.541	4707
1141.854	4722
1144.167	4520
1146.482	4725
1148.793	4725
1151.105	4735
1153.414	4700
1155.725	4706
1158.033	4707
1160.344	4740
1162.651	4736
1164.959	4786
1167.265	4651
1169.572	4701
1171.878	4660
1174.184	4756
1176.488	4687
1178.79	4732
1181.094	4731
1183.396	4731
1185.699	4784
1188.001	4688
1190.301	4698
1192.6	4731
1194.9	4785
1197.2	4658
1199.497	4702
1201.794	4808
1204.09	4814
1206.387	4766
1208.684	4649
1210.978	4627
1213.272	4712
1215.565	4755
1217.858	4817
1220.15	4711
1222.443	4752
1224.734	4774
1227.024	4886
1229.313	4870
1231.602	4895
1233.892	4747
1236.18	4877
1238.467	4807
1240.754	4825
1243.04	4913
1245.325	4999
1247.612	4899
1249.896	4905
1252.178	4969
1254.461	5014
1256.743	4941
1259.027	4896
1261.308	4909
1263.587	4897
1265.867	4854
1268.146	5015
1270.425	4972
1272.703	4913
1274.981	4949
1277.256	4867
1279.532	4884
1281.808	4902
1284.083	4933
1286.358	4908
1288.63	4875
1290.904	4826
1293.175	4756
1295.449	4880
1297.719	4904
1299.99	4884
1302.259	4829
1304.529	4786
1306.798	4884
1309.065	4905
1311.333	4930
1313.599	4891
1315.866	4871
1318.131	4870
1320.396	4860
1322.66	4773
1324.925	4862
1327.187	4985
1329.448	4828
1331.711	4858
1333.974	4872
1336.234	4910
1338.493	4847
1340.752	4854
1343.01	4856
1345.269	4780
1347.526	4879
1349.784	4868
1352.04	4883
1354.295	4862
1356.552	4844
1358.806	4807
1361.059	4796
1363.312	4948
1365.564	4837
1367.818	4882
1370.069	4850
1372.318	4966
1374.568	4940
1376.817	4962
1379.066	4975
1381.316	5013
1383.564	4895
1385.809	4938
1388.056	5000
1390.301	4912
1392.549	4978
1394.793	5031
1397.036	5134
1399.279	4952
1401.522	5076
1403.763	5095
1406.007	4952
1408.248	5074
1410.487	5096
1412.727	4947
1414.965	5069
1417.205	4978
1419.442	5062
1421.68	5077
1423.915	5036
1426.152	5130
1428.388	5090
1430.623	5016
1432.857	5021
1435.091	5067
1437.323	5032
1439.556	5199
1441.789	4990
1444.019	5028
1446.25	5194
1448.48	5019
1450.708	5064
1452.938	5064
1455.167	5081
1457.394	5171
1459.62	5218
1461.846	5093
1464.073	5175
1466.299	5106
1468.523	5111
1470.746	5109
1472.969	5048
1475.191	4980
1477.415	5016
1479.636	5004
1481.858	4980
1484.078	4968
1486.298	4921
1488.518	4912
1490.736	5006
1492.954	4873
1495.169	4942
1497.386	4930
1499.602	5005
1501.819	4809
1504.034	4860
1506.248	4840
1508.462	4840
1510.675	4860
1512.888	4790
1515.1	4835
1517.311	4827
1519.522	4887
1521.732	4929
1523.942	4933
1526.151	4842
1528.36	4861
1530.566	4905
1532.773	4963
1534.98	4976
1537.187	4886
1539.392	4933
1541.596	4897
1543.801	4853
1546.005	4990
1548.208	4945
1550.411	4936
1552.612	4956
1554.814	4907
1557.013	5012
1559.212	5012
1561.414	5126
1563.612	4988
1565.811	4962
1568.007	4984
1570.203	4972
1572.403	5009
1574.598	5006
1576.792	5118
1578.988	5017
1581.181	5065
1583.376	5094
1585.568	5069
1587.761	5027
1589.952	5023
1592.143	5179
1594.333	5032
1596.524	5111
1598.715	5009
1600.903	5081
1603.091	5109
1605.278	5087
1607.466	5119
1609.652	5030
1611.838	5047
1614.023	5132
1616.207	5110
1618.391	5099
1620.576	5070
1622.759	5113
1624.941	5102
1627.123	5113
1629.304	5116
1631.484	5136
1633.664	5131
1635.844	5160
1638.022	5113
1640.201	5049
1642.38	5179
1644.556	5168
1646.732	5194
1648.908	5096
1651.084	5129
1653.257	5167
1655.433	5120
1657.607	5101
1659.779	5180
1661.951	5225
1664.122	5197
1666.295	5161
1668.467	5241
1670.635	5188
1672.805	5232
1674.973	5174
1677.142	5171
1679.31	5161
1681.478	5199
1683.644	5268
1685.81	5217
1687.975	5128
1690.142	5174
1692.305	5143
1694.468	5180
1696.632	5069
1698.794	5122
1700.957	5092
1703.119	5138
1705.279	5073
1707.439	5168
1709.598	5088
1711.758	5050
1713.917	5038
1716.075	5106
1718.231	5052
1720.388	5127
1722.543	5078
1724.702	5077
1726.856	5038
1729.01	5025
1731.164	5000
1733.317	5017
1735.471	5023
1737.623	5035
1739.774	5013
1741.925	5171
1744.075	5041
1746.225	5094
1748.376	5117
1750.524	5192
1752.672	5113
1754.82	5020
1756.965	5134
1759.113	5111
1761.259	5128
1763.405	5029
1765.549	5061
1767.694	4992
1769.836	5143
1771.981	5122
1774.123	5155
1776.264	5104
1778.405	5140
1780.546	5132
1782.687	5232
1784.827	5154
1786.966	5118
1789.103	5139
1791.242	5136
1793.381	5076
1795.517	5084
1797.653	5077
1799.788	5087
1801.923	5181
1804.057	5131
1806.193	5169
1808.326	5019
1810.457	5184
1812.59	5094
1814.721	5231
1816.855	5089
1818.984	5110
1821.113	5199
1823.244	5107
1825.372	5097
1827.499	5044
1829.63	5056
1831.756	5112
1833.882	5028
1836.007	5100
1838.132	5126
1840.26	5195
1842.384	5076
1844.507	5054
1846.63	5120
1848.752	5111
1850.875	4997
1852.996	5179
1855.118	5141
1857.238	5095
1859.358	5038
1861.477	5140
1863.597	5054
1865.715	5055
1867.832	5105
1869.948	5122
1872.064	4961
1874.181	5128
1876.297	5017
1878.411	5031
1880.526	5128
1882.639	5120
1884.752	5126
1886.865	5141
1888.977	4991
1891.089	5065
1893.2	5139
1895.308	5151
1897.42	5150
1899.53	5117
1901.639	5174
1903.745	5146
1905.853	5157
1907.962	5149
1910.067	5142
1912.174	5139
1914.278	5178
1916.383	5108
1918.486	5096
1920.592	5217
1922.694	5191
1924.797	5232
1926.898	5165
1929	5153
1931.102	5259
1933.203	5044
1935.301	5222
1937.401	5096
1939.499	5156
1941.598	5229
1943.697	5120
1945.793	5155
1947.888	5083
1949.985	5156
1952.08	5098
1954.176	5178
1956.269	5090
1958.364	5124
1960.457	5193
1962.549	5110
1964.642	5079
1966.733	5157
1968.823	5142
1970.913	5132
1973.005	5250
1975.093	5200
1977.184	5225
1979.271	5187
1981.359	5069
1983.446	5125
1985.532	5147
1987.619	5039
1989.705	5095
1991.789	5161
1993.874	5190
1995.956	5195
1998.041	5100
2000.123	5099
2002.206	5147
2004.287	5144
2006.368	5094
2008.449	5076
2010.529	5083
2012.609	5119
2014.688	5163
2016.766	5117
2018.843	5188
2020.922	5034
2022.999	5167
2025.074	5139
2027.15	5110
2029.225	5160
2031.299	5050
2033.375	5142
2035.447	5097
2037.52	5226
2039.592	5089
2041.664	4962
2043.736	5077
2045.807	5076
2047.876	5183
2049.947	5156
2052.015	5034
2054.086	5181
2056.153	5261
2058.221	5145
2060.288	5238
2062.353	5044
2064.42	5232
2066.486	5062
2068.55	5175
2070.614	5133
2072.678	5143
2074.741	5043
2076.805	5108
2078.866	5165
2080.929	5113
2082.99	5138
2085.049	5016
2087.109	5105
2089.17	5039
2091.228	5116
2093.286	5118
2095.344	5138
2097.4	5135
2099.46	5128
2101.516	5108
2103.572	5157
2105.626	5068
2107.679	5067
2109.735	5021
2111.788	5129
2113.841	5105
2115.894	5100
2117.945	5146
2119.997	5119
2122.049	5169
2124.1	5114
2126.148	5093
2128.197	5132
2130.246	5101
2132.296	5087
2134.342	5071
2136.39	5125
2138.437	5197
2140.483	5166
2142.527	5102
2144.574	5196
2146.619	5175
2148.661	5108
2150.705	5064
2152.747	5112
2154.792	5064
2156.832	5263
2158.874	5177
2160.915	5119
2162.954	5067
2164.995	5092
2167.034	5100
2169.072	5023
2171.111	5031
2173.148	5120
2175.186	5117
2177.223	5077
2179.258	5024
2181.294	5119
2183.328	5091
2185.362	4961
2187.398	4962
2189.431	5007
2191.463	4933
2193.495	5092
2195.528	5110
2197.56	5031
2199.59	4986
2201.62	5031
2203.649	5066
2205.678	4936
2207.708	4982
2209.737	5084
2211.764	5056
2213.791	4988
2215.817	4994
2217.843	5104
2219.87	5027
2221.895	5072
2223.919	4968
2225.942	5081
2227.966	5058
2229.988	5001
2232.012	4988
2234.032	4909
2236.054	4935
2238.074	5022
2240.095	5068
2242.116	4976
2244.135	4978
2246.153	5041
2248.171	4924
2250.188	4988
2252.208	5020
2254.223	4996
2256.239	5032
2258.255	4914
2260.269	4990
2262.283	5016
2264.3	4995
2266.312	4960
2268.325	4973
2270.336	4971
2272.349	4965
2274.362	4994
2276.372	5054
2278.383	4958
2280.392	5008
2282.402	4987
2284.409	4951
2286.418	4876
2288.427	4929
2290.433	5043
2292.441	4961
2294.446	4984
2296.453	4868
2298.459	5057
2300.463	4998
2302.466	4982
2304.471	4908
2306.475	4914
2308.477	4894
2310.478	4860
2312.481	5037
2314.481	4949
2316.481	4960
2318.482	4908
2320.482	4993
2322.48	4892
2324.48	5010
2326.478	4911
2328.476	4942
2330.473	4997
2332.469	4989
2334.465	4917
2336.46	4944
2338.454	4890
2340.45	4882
2342.444	4910
2344.437	4928
2346.43	4934
2348.421	4839
2350.414	4875
2352.405	4859
2354.396	4961
2356.386	5007
2358.376	4863
2360.366	4945
2362.355	4889
2364.343	4831
2366.331	4793
2368.317	4840
2370.304	4971
2372.292	4879
2374.278	4798
2376.262	4826
2378.247	4798
2380.23	4843
2382.216	4904
2384.199	4819
2386.181	4836
2388.163	4852
2390.144	4908
2392.127	4862
2394.107	4855
2396.087	4780
2398.066	4850
2400.046	4917
2402.023	4871
2404.004	4810
2405.981	4857
2407.957	4749
2409.934	4895
2411.91	4874
2413.886	4871
2415.862	4832
2417.836	4834
2419.809	4883
2421.784	4846
2423.756	4828
2425.73	4788
2427.701	4810
2429.672	4844
2431.644	4816
2433.615	4824
2435.586	4820
2437.555	4848
2439.523	4810
2441.491	4840
2443.459	4891
2445.428	4851
2447.395	4711
2449.361	4897
2451.327	4814
2453.292	4832
2455.257	4805
2457.223	4812
2459.187	4783
2461.15	4793
2463.113	4768
2465.076	4816
2467.039	4771
2468.999	4782
2470.96	4746
2472.921	4763
2474.881	4800
2476.841	4840
2478.8	4713
2480.759	4663
2482.717	4737
2484.675	4785
2486.63	4628
2488.589	4762
2490.545	4725
2492.5	4715
2494.455	4750
2496.408	4771
2498.364	4753
2500.318	4833
2502.27	4688
2504.223	4735
2506.174	4731
2508.126	4814
2510.078	4665
2512.03	4705
2513.979	4776
2515.927	4751
2517.877	4746
2519.826	4758
2521.775	4760
2523.722	4669
2525.668	4760
2527.616	4742
2529.561	4672
2531.508	4663
2533.452	4697
2535.398	4777
2537.342	4676
2539.284	4687
2541.229	4760
2543.173	4740
2545.114	4716
2547.055	4713
2548.996	4782
2550.938	4772
2552.878	4766
2554.817	4641
2556.756	4800
2558.695	4657
2560.633	4706
2562.572	4703
2564.509	4663
2566.445	4650
2568.382	4751
2570.317	4643
2572.254	4670
2574.189	4776
2576.123	4696
2578.057	4780
2579.99	4669
2581.923	4603
2583.855	4718
2585.788	4743
2587.719	4682
2589.65	4660
2591.579	4766
2593.511	4730
2595.44	4696
2597.37	4801
2599.297	4712
2601.225	4765
2603.153	4749
2605.08	4586
2607.007	4654
2608.932	4768
2610.858	4634
2612.782	4694
2614.709	4791
2616.632	4684
2618.556	4682
2620.478	4761
2622.401	4750
2624.324	4677
2626.247	4805
2628.167	4742
2630.088	4650
2632.008	4730
2633.928	4779
2635.848	4689
2637.766	4801
2639.684	4676
2641.603	4608
2643.519	4614
2645.437	4630
2647.353	4835
2649.27	4655
2651.184	4694
2653.099	4717
2655.014	4718
2656.928	4738
2658.842	4738
2660.755	4668
2662.667	4628
2664.579	4634
2666.491	4713
2668.402	4725
2670.312	4661
2672.222	4602
2674.132	4627
2676.042	4668
2677.951	4656
2679.859	4692
2681.766	4622
2683.674	4692
2685.582	4669
2687.488	4714
2689.392	4679
2691.298	4795
2693.202	4755
2695.107	4666
2697.012	4634
2698.914	4660
2700.817	4680
2702.72	4655
2704.622	4712
2706.524	4704
2708.425	4660
2710.326	4687
2712.225	4684
2714.125	4729
2716.024	4587
2717.923	4626
2719.822	4612
2721.719	4620
2723.616	4676
2725.512	4638
2727.41	4686
2729.305	4578
2731.201	4580
2733.095	4597
2734.99	4663
2736.884	4552
2738.778	4632
2740.67	4640
2742.562	4617
2744.455	4641
2746.346	4631
2748.238	4530
2750.129	4706
2752.018	4593
2753.907	4647
2755.797	4699
2757.687	4662
2759.575	4577
2761.462	4615
2763.349	4511
2765.237	4544
2767.124	4544
2769.009	4636
2770.894	4665
2772.779	4616
2774.663	4588
2776.547	4557
2778.431	4605
2780.314	4527
2782.197	4576
2784.078	4674
2785.96	4469
2787.842	4628
2789.723	4610
2791.603	4615
2793.483	4620
2795.362	4637
2797.241	4575
2799.121	4637
2800.997	4579
2802.874	4535
2804.751	4573
2806.628	4539
2808.506	4619
2810.38	4558
2812.255	4548
2814.13	4565
2816.003	4546
2817.878	4632
2819.752	4543
2821.623	4601
2823.496	4545
2825.368	4652
2827.238	4506
2829.111	4558
2830.98	4680
2832.851	4558
2834.719	4460
2836.589	4550
2838.458	4479
2840.327	4580
2842.193	4648
2844.061	4615
2845.927	4662
2847.794	4617
2849.66	4661
2851.525	4605
2853.39	4570
2855.254	4603
2857.117	4677
2858.983	4676
2860.845	4643
2862.707	4628
2864.569	4698
2866.431	4733
2868.293	4633
2870.154	4740
2872.013	4770
2873.873	4795
2875.733	4844
2877.592	4797
2879.451	4914
2881.309	4836
2883.166	4927
2885.022	4918
2886.879	4982
2888.736	4989
2890.591	5016
2892.446	5140
2894.301	5002
2896.155	5055
2898.009	4998
2899.863	4954
2901.716	4930
2903.568	5036
2905.419	4895
2907.27	4927
2909.123	4971
2910.973	5001
2912.824	4868
2914.673	5030
2916.521	4963
2918.372	5010
2920.22	5084
2922.067	5108
2923.914	5126
2925.761	5136
2927.607	5213
2929.455	5143
2931.301	5242
2933.144	5202
2934.99	5215
2936.833	5365
2938.678	5345
2940.522	5297
2942.364	5480
2944.207	5479
2946.048	5419
2947.891	5431
2949.731	5597
2951.571	5527
2953.412	5602
2955.25	5437
2957.09	5419
2958.93	5358
2960.767	5377
2962.606	5331
2964.443	5360
2966.279	5256
2968.116	5208
2969.953	5028
2971.788	5174
2973.623	5130
2975.457	4949
2977.292	4958
2979.127	4987
2980.959	4965
2982.792	5001
2984.624	4959
2986.455	4829
2988.288	5002
2990.119	4902
2991.949	4808
2993.779	4793
2995.608	4885
2997.439	4738
2999.268	4741
3001.096	4673
3002.923	4583
3004.751	4637
3006.578	4645
3008.406	4583
3010.232	4566
3012.057	4517
3013.883	4473
3015.706	4515
3017.532	4455
3019.356	4475
3021.179	4488
3023.002	4501
3024.823	4405
3026.646	4398
3028.469	4317
3030.289	4429
3032.11	4281
3033.93	4374
3035.749	4396
3037.57	4314
3039.39	4414
3041.207	4346
3043.026	4266
3044.842	4253
3046.661	4349
3048.477	4415
3050.294	4402
3052.109	4370
3053.925	4208
3055.739	4232
3057.555	4382
3059.368	4324
3061.181	4293
3062.995	4307
3064.807	4371
3066.62	4215
3068.433	4328
3070.243	4317
3072.054	4222
3073.865	4374
3075.675	4306
3077.485	4328
3079.293	4212
3081.102	4243
3082.911	4301
3084.719	4263
3086.527	4170
3088.333	4301
3090.139	4258
3091.945	4259
3093.75	4201
3095.557	4278
3097.361	4194
3099.165	4223
3100.969	4284
3102.772	4143
3104.575	4245
3106.379	4253
3108.181	4156
3109.982	4186
3111.783	4208
3113.584	4199
3115.386	4174
3117.186	4103
3118.985	4196
3120.783	4166
3122.582	4133
3124.381	4140
3126.179	4147
3127.975	4114
3129.772	4075
3131.569	4118
3133.365	4162
3135.161	4161
3136.956	4149
3138.751	4223
3140.544	4092
3142.338	4130
3144.132	4064
3145.925	4114
3147.717	4021
3149.509	4269
3151.301	4070
3153.091	4113
3154.884	4105
3156.673	4105
3158.462	4054
3160.252	4171
3162.041	4126
3163.831	4133
3165.618	4053
3167.405	4096
3169.193	4090
3170.979	4086
3172.767	4042
3174.553	4040
3176.338	4024
3178.123	4077
3179.907	4142
3181.692	4057
3183.477	4047
3185.259	4125
3187.042	4018
3188.824	4070
3190.607	4056
3192.389	4039
3194.17	4073
3195.951	4075
3197.73	4087
3199.51	3962
3201.289	3968
3203.07	4042
3204.848	4122
3206.626	4075
3208.403	4115
3210.18	4144
3211.959	4067
3213.735	4052
3215.511	4008
3217.285	4038
3219.06	4102
3220.836	4112
3222.611	4048
3224.384	4095
3226.158	4092
3227.929	4102
3229.702	4130
3231.476	4077
3233.248	3988
3235.018	4061
3236.789	4029
3238.56	4034
3240.33	4068
3242.1	4029
3243.869	3995
3245.637	3980
3247.405	3963
3249.172	4110
3250.941	4082
3252.707	4035
3254.474	4058
3256.24	4017
3258.006	3964
3259.772	3965
3261.537	4064
3263.301	4027
3265.065	4008
3266.828	4105
3268.592	3967
3270.355	3992
3272.117	4024
3273.878	4093
3275.64	4014
3277.401	4064
3279.162	4050
3280.922	3981
3282.682	4051
3284.441	4023
3286.199	3969
3287.959	4089
3289.716	4036
3291.475	3981
3293.232	3985
3294.988	4066
3296.744	3979
3298.501	3956
3300.256	3995
3302.011	4038
3303.766	3962
3305.52	3956
3307.275	4015
3309.028	4033
3310.781	3967
3312.533	3933
3314.285	4044
3316.038	3956
3317.789	4094
3319.54	3985
3321.289	3925
3323.039	3975
3324.789	4088
3326.539	3991
3328.288	4017
3330.035	3983
3331.783	3934
3333.531	3980
3335.28	3947
3337.025	3953
3338.771	3924
3340.518	3943
3342.262	3973
3344.009	4044
3345.753	3842
3347.497	3853
3349.24	3882
3350.983	3882
3352.726	3964
3354.469	3911
3356.212	3966
3357.952	3913
3359.694	3899
3361.434	3867
3363.176	3850
3364.916	3880
3366.654	3937
3368.394	3871
3370.132	3930
3371.871	3859
3373.61	3861
3375.346	3966
3377.083	3850
3378.82	3847
3380.556	3916
3382.292	3822
3384.027	3852
3385.763	3812
3387.497	3900
3389.231	3838
3390.965	3990
3392.698	3848
3394.431	3829
3396.164	3800
3397.896	3837
3399.627	3835
3401.36	3870
3403.09	3832
3404.82	3842
3406.55	3776
3408.279	3923
3410.01	3861
3411.738	3728
3413.467	3825
3415.194	3789
3416.92	3838
3418.647	3751
3420.375	3784
3422.102	3853
3423.827	3858
3425.553	3806
3427.277	3781
3429.003	3774
3430.727	3808
3432.451	3749
3434.173	3749
3435.896	3855
3437.62	3791
3439.343	3805
3441.063	3711
3442.785	3668
3444.505	3765
3446.226	3765
3447.948	3765
3449.666	3698
3451.386	3721
3453.104	3698
3454.823	3756
3456.541	3740
3458.259	3715
3459.976	3677
3461.693	3725
3463.408	3734
3465.125	3635
3466.841	3687
3468.556	3644
3470.271	3654
3471.985	3660
3473.698	3689
3475.414	3684
3477.126	3656
3478.838	3645
3480.55	3647
3482.263	3660
3483.975	3655
3485.686	3600
3487.396	3567
3489.106	3628
3490.817	3594
3492.526	3608
3494.236	3588
3495.944	3657
3497.652	3522
3499.359	3589
3501.066	3578
3502.775	3617
3504.481	3536
3506.187	3585
3507.893	3469
3509.598	3581
3511.304	3585
3513.009	3475
3514.713	3558
3516.417	3577
3518.12	3565
3519.821	3565
3521.525	3492
3523.228	3538
3524.929	3527
3526.631	3471
3528.33	3542
3530.032	3589
3531.733	3590
3533.433	3514
3535.131	3501
3536.83	3480
3538.529	3543
3540.227	3532
3541.925	3485
3543.623	3455
3545.319	3505
3547.016	3423
3548.712	3486
3550.408	3455
3552.103	3478
3553.798	3517
3555.491	3395
3557.188	3468
3558.88	3442
3560.574	3436
3562.266	3549
3563.959	3424
3565.651	3506
3567.343	3446
3569.035	3404
3570.725	3494
3572.415	3496
3574.106	3429
3575.797	3369
3577.485	3392
3579.174	3471
3580.863	3457
3582.551	3327
3584.238	3446
3585.926	3393
3587.613	3402
3589.3	3408
3590.986	3418
3592.671	3373
3594.357	3415
3596.042	3404
3597.726	3365
3599.41	3345
3601.094	3361
3602.778	3267
3604.461	3356
3606.143	3369
3607.825	3437
3609.507	3345
3611.188	3373
3612.87	3304
3614.551	3331
3616.229	3329
3617.909	3363
3619.589	3291
3621.269	3318
3622.948	3315
3624.625	3292
3626.302	3308
3627.98	3256
3629.657	3251
3631.334	3315
3633.01	3381
3634.686	3279
3636.361	3289
3638.036	3263
3639.712	3241
3641.385	3334
3643.06	3193
3644.732	3201
3646.405	3271
3648.08	3247
3649.751	3263
3651.424	3188
3653.094	3286
3654.766	3230
3656.436	3173
3658.106	3232
3659.777	3279
3661.446	3251
3663.115	3180
3664.783	3185
3666.452	3154
3668.121	3191
3669.788	3233
3671.454	3183
3673.121	3208
3674.789	3123
3676.455	3211
3678.12	3203
3679.784	3250
3681.45	3208
3683.114	3225
3684.779	3259
3686.442	3122
3688.105	3165
3689.768	3079
3691.43	3145
3693.093	3140
3694.754	3135
3696.415	3143
3698.076	3101
3699.736	3139
3701.396	3186
3703.057	3186
3704.716	3164
3706.375	3192
3708.034	3117
3709.692	3107
3711.351	3224
3713.008	3113
3714.665	3136
3716.321	3144
3717.977	3101
3719.634	3130
3721.29	3186
3722.945	3082
3724.598	3099
3726.253	3145
3727.907	3083
3729.561	3146
3731.214	3124
3732.867	3134
3734.518	3144
3736.171	3086
3737.824	3121
3739.474	3023
3741.125	3125
3742.775	3095
3744.425	3085
3746.074	3042
3747.725	3056
3749.373	3043
3751.022	3073
3752.669	3076
3754.318	3012
3755.966	3063
3757.612	3106
3759.259	3050
3760.905	2998
3762.55	3034
3764.197	2993
3765.842	3006
3767.486	3009
3769.131	3058
3770.774	3074
3772.417	2990
3774.061	3028
3775.705	3030
3777.347	3046
3778.988	3059
3780.629	3041
3782.271	3056
3783.912	2963
3785.552	2994
3787.192	3031
3788.831	3018
3790.472	3001
3792.112	3035
3793.75	3017
3795.388	2958
3797.024	3020
3798.661	3016
3800.3	2991
3801.936	3011
3803.572	3014
3805.208	2980
3806.844	2988
3808.48	3010
3810.115	2939
3811.748	3001
3813.382	3056
3815.016	2975
3816.649	2998
3818.283	2984
3819.914	2883
3821.547	2905
3823.178	2980
3824.809	2879
3826.441	2873
3828.072	2957
3829.701	2889
3831.331	2914
3832.96	2947
3834.591	2928
3836.219	2917
3837.847	2896
3839.475	2860
3841.102	2905
3842.729	2853
3844.357	2853
3845.984	2902
3847.609	2912
3849.234	2878
3850.86	2913
3852.485	2920
3854.11	2927
3855.734	2877
3857.357	2860
3858.981	2875
3860.603	2900
3862.227	2910
3863.848	2841
3865.471	2883
3867.092	2878
3868.713	2835
3870.334	2857
3871.954	2889
3873.575	2802
3875.194	2895
3876.813	2861
3878.433	2798
3880.051	2903
3881.669	2900
3883.286	2880
3884.904	2863
3886.52	2963
3888.138	2864
3889.754	2863
3891.37	2860
3892.985	2845
3894.6	2834
3896.216	2818
3897.831	2849
3899.444	2848
3901.058	2825
3902.67	2779
3904.283	2826
3905.897	2890
3907.509	2803
3909.121	2800
3910.731	2804
3912.342	2755
3913.954	2885
3915.563	2838
3917.174	2837
3918.783	2824
3920.391	2798
3922.002	2836
3923.611	2820
3925.218	2800
3926.826	2736
3928.432	2802
3930.039	2724
3931.647	2793
3933.253	2839
3934.859	2775
3936.464	2754
3938.068	2793
3939.675	2803
3941.278	2810
3942.883	2838
3944.486	2744
3946.089	2844
3947.692	2762
3949.295	2824
3950.898	2819
3952.499	2736
3954.1	2766
3955.7	2758
3957.303	2819
3958.903	2713
3960.502	2757
3962.101	2659
3963.7	2753
3965.301	2775
3966.899	2747
3968.497	2657
3970.094	2770
3971.691	2767
3973.288	2715
3974.885	2730
3976.481	2682
3978.077	2638
3979.672	2729
3981.267	2637
3982.863	2736
3984.457	2742
3986.051	2735
3987.645	2737
3989.238	2692
3990.831	2644
3992.425	2700
3994.017	2716
3995.607	2668
3997.199	2721
3998.79	2679
4000.382	2703
4001.973	2685
4003.561	2576
4005.151	2589
4006.741	2678
4008.331	2670
4009.918	2650
4011.507	2637
4013.095	2577
4014.681	2658
4016.269	2662
4017.856	2669
4019.443	2663
4021.028	2647
4022.614	2613
4024.199	2659
4025.785	2606
4027.37	2646
4028.953	2657
4030.536	2641
4032.12	2598
4033.704	2628
4035.287	2635
4036.869	2605
4038.45	2591
4040.032	2599
4041.613	2558
4043.195	2603
4044.776	2543
4046.356	2597
4047.935	2605
4049.515	2619
4051.095	2587
4052.674	2549
4054.251	2498
4055.829	2580
4057.406	2530
4058.985	2606
4060.562	2547
4062.139	2585
4063.715	2583
4065.29	2552
4066.865	2572
4068.442	2567
4070.016	2475
4071.59	2535
4073.164	2546
4074.738	2500
4076.312	2551
4077.885	2559
4079.458	2572
4081.03	2510
4082.602	2621
4084.173	2511
4085.745	2527
4087.315	2574
4088.886	2567
4090.456	2494
4092.026	2559
4093.596	2477
4095.165	2524
4096.734	2560
4098.301	2559
4099.869	2532
4101.437	2554
4103.006	2516
4104.572	2503
4106.139	2521
4107.704	2507
4109.27	2557
4110.837	2523
4112.401	2498
4113.966	2517
4115.53	2514
4117.094	2468
4118.659	2463
4120.223	2482
4121.785	2438
4123.347	2457
4124.909	2410
4126.471	2461
4128.034	2419
4129.595	2523
4131.155	2489
4132.716	2467
4134.275	2413
4135.836	2553
4137.395	2371
4138.955	2439
4140.513	2402
4142.071	2421
4143.628	2438
4145.188	2456
4146.745	2370
4148.302	2434
4149.858	2428
4151.414	2432
4152.971	2426
4154.526	2448
4156.081	2445
4157.635	2368
4159.189	2383
4160.745	2405
4162.298	2429
4163.852	2356
4165.405	2440
4166.957	2405
4168.51	2424
4170.063	2459
4171.614	2409
4173.166	2442
4174.717	2415
4176.267	2346
4177.817	2352
4179.368	2350
4180.917	2397
4182.466	2345
4184.016	2457
4185.564	2319
4187.112	2341
4188.66	2400
4190.207	2338
4191.754	2287
4193.301	2375
4194.848	2401
4196.394	2380
4197.94	2330
4199.484	2362
4201.03	2321
4202.575	2359
4204.12	2323
4205.663	2370
4207.207	2298
4208.75	2323
4210.292	2330
4211.836	2338
4213.378	2302
4214.92	2333
4216.46	2328
4218.002	2304
4219.544	2296
4221.083	2308
4222.625	2394
4224.164	2327
4225.703	2309
4227.244	2323
4228.782	2337
4230.32	2300
4231.857	2292
4233.395	2295
4234.933	2304
4236.471	2326
4238.007	2265
4239.542	2210
4241.078	2231
4242.614	2296
4244.15	2247
4245.685	2284
4247.219	2354
4248.753	2222
4250.287	2281
4251.82	2295
4253.354	2261
4254.887	2214
4256.419	2253
4257.951	2304
4259.483	2265
4261.016	2274
4262.547	2299
4264.078	2288
4265.608	2289
4267.137	2242
4268.668	2319
4270.197	2209
4271.727	2264
4273.254	2294
4274.783	2186
4276.311	2220
4277.84	2231
4279.366	2222
4280.894	2263
4282.42	2226
4283.946	2207
4285.473	2197
4286.998	2267
4288.523	2240
4290.047	2255
4291.572	2262
4293.096	2214
4294.622	2250
4296.144	2246
4297.668	2222
4299.19	2219
4300.713	2263
4302.236	2179
4303.758	2187
4305.279	2206
4306.799	2226
4308.321	2217
4309.842	2219
4311.361	2194
4312.882	2207
4314.401	2173
