400.0961	4315
402.6185	4308
405.1424	4338
407.6635	4374
410.1838	4360
412.7035	4278
415.2225	4405
417.7388	4402
420.2585	4454
422.7754	4565
425.2917	4518
427.8072	4593
430.3221	4692
432.8363	4547
435.3498	4537
437.8626	4664
440.3727	4606
442.8841	4640
445.3969	4585
447.907	4621
450.4142	4659
452.9229	4602
455.4289	4591
457.9362	4624
460.4449	4588
462.9488	4530
465.454	4558
467.9566	4512
470.4604	4515
472.9637	4567
475.4662	4637
477.966	4691
480.4671	4571
482.9656	4585
485.4633	4580
487.9645	4595
490.4608	4676
492.9566	4647
495.4536	4672
497.948	4742
500.4437	4657
502.9387	4683
505.431	4696
507.9226	4651
510.4136	4708
512.9079	4660
515.3975	4688
517.8864	4657
520.3746	4620
522.8622	4774
525.3491	4728
527.8394	4766
530.3249	4796
532.8098	4885
535.2939	4664
537.7774	4755
540.2623	4690
542.7444	4717
545.2259	4797
547.7067	4753
550.1868	4741
552.6683	4788
555.147	4830
557.6231	4796
560.1005	4763
562.5773	4811
565.0534	4781
567.5308	4817
570.0056	4839
572.4776	4896
574.951	4951
577.4237	4893
579.8978	4982
582.3671	4960
584.8378	4984
587.3079	5041
589.7773	5004
592.244	5074
594.714	4957
597.1793	5015
599.6461	4966
602.1121	4936
604.5754	5030
607.0421	4840
609.5042	4865
611.9675	4913
614.4282	4967
616.8902	4930
619.3515	4816
621.8122	4871
624.2702	4882
626.7296	4890
629.1863	4861
631.6423	4859
634.1017	4875
636.5563	4833
639.0104	4951
641.4658	4930
643.9185	4962
646.3725	4935
648.8239	4949
651.2766	4992
653.7266	4946
656.176	4921
658.6247	4918
661.0748	4969
663.5242	5008
665.9709	4973
668.417	5044
670.8624	4936
673.3092	5026
675.7533	5037
678.1968	5063
680.6395	5079
683.0817	5112
685.5251	5113
687.9659	5039
690.4061	5012
692.8456	5005
695.2844	4933
697.7226	5035
700.1621	5051
702.599	5092
705.0332	5228
707.4688	4963
709.9036	5030
712.3399	5157
714.7735	5129
717.2044	5152
719.6367	5137
722.0683	5161
724.4993	5217
726.9296	5267
729.3593	5240
731.7883	5234
734.2147	5218
736.6423	5255
739.0714	5183
741.4958	5208
743.9216	5366
746.3447	5262
748.7691	5320
751.1929	5264
753.616	5215
756.0366	5382
758.4584	5329
760.8776	5371
763.2982	5452
765.718	5461
768.1373	5373
770.5539	5403
772.9698	5359
775.3871	5393
777.8038	5393
780.2178	5362
782.6332	5371
785.0459	5536
787.458	5317
789.8714	5446
792.2842	5378
794.6943	5481
797.1038	5430
799.5127	5355
801.9209	5484
804.3324	5407
806.7393	5505
809.1456	5444
811.5513	5549
813.9562	5486
816.3625	5406
818.7663	5456
821.1693	5552
823.5718	5468
825.9735	5493
828.3746	5564
830.7771	5466
833.177	5564
835.5762	5515
837.9747	5535
840.3727	5575
842.772	5600
845.1666	5534
847.5626	5599
849.958	5518
852.3527	5758
854.7488	5612
857.1403	5682
859.5331	5700
861.9253	5636
864.3168	5676
866.7057	5596
869.098	5601
871.4876	5625
873.8746	5616
876.263	5661
878.6487	5659
881.0378	5657
883.4243	5572
885.8081	5572
888.1933	5551
890.5759	5648
892.9598	5674
895.343	5660
897.7256	5701
900.1057	5584
902.4871	5652
904.8659	5600
907.246	5635
909.6254	5737
912.0023	5732
914.3786	5743
916.7562	5796
919.1331	5886
921.5074	5914
923.8831	6004
926.2562	5968
928.6287	5864
931.0005	5916
933.3757	5904
935.7462	5925
938.1162	5939
940.4855	6091
942.8542	6083
945.2242	6184
947.5916	6445
949.9584	6511
952.3266	6781
954.6921	6893
957.0571	7152
959.4233	7517
961.787	7562
964.15	7497
966.5125	7353
968.8742	6951
971.2354	6623
973.5959	6322
975.9559	6196
978.3151	6099
980.6738	5950
983.0338	6001
985.3912	5890
987.7461	5751
990.1022	5958
992.4578	5853
994.8127	5920
997.1689	5772
999.5207	5866
1001.874	5841
1004.226	5936
1006.576	5963
1008.929	5875
1011.28	5795
1013.628	5867
1015.977	5790
1018.324	5916
1020.674	5891
1023.019	5968
1025.366	5841
1027.713	5944
1030.056	5967
1032.399	5972
1034.746	5906
1037.087	6001
1039.431	5962
1041.771	5923
1044.113	5992
1046.454	5933
1048.793	5950
1051.133	5897
1053.471	5991
1055.807	6041
1058.146	5954
1060.483	5947
1062.818	5986
1065.153	6073
1067.489	6042
1069.822	6096
1072.156	6202
1074.488	6139
1076.82	6126
1079.15	6063
1081.48	6032
1083.814	6129
1086.143	6080
1088.471	5958
1090.799	5967
1093.126	6014
1095.452	5995
1097.78	6074
1100.105	5979
1102.43	6018
1104.754	6090
1107.077	6013
1109.4	5999
1111.722	5963
1114.044	6143
1116.365	5983
1118.685	5995
1121.005	5936
1123.324	5946
1125.643	6048
1127.961	6034
1130.278	6107
1132.595	5902
1134.911	5993
1137.226	6027
1139.541	5905
1141.854	6116
1144.167	5967
1146.482	5975
1148.793	6011
1151.105	5971
1153.414	5994
1155.725	6015
1158.033	5927
1160.344	5950
1162.651	5957
1164.959	5966
1167.265	6029
1169.572	6008
1171.878	6099
1174.184	6045
1176.488	6068
1178.79	6057
1181.094	6044
1183.396	5944
1185.699	5979
1188.001	6082
1190.301	6069
1192.6	6038
1194.9	5968
1197.2	5943
1199.497	6109
1201.794	6058
1204.09	6005
1206.387	6113
1208.684	5993
1210.978	5965
1213.272	6103
1215.565	6111
1217.858	6041
1220.15	6054
1222.443	6080
1224.734	6004
1227.024	6150
1229.313	6185
1231.602	6226
1233.892	6090
1236.18	6194
1238.467	6374
1240.754	6193
1243.04	6210
1245.325	6271
1247.612	6240
1249.896	6268
1252.178	6354
1254.461	6457
1256.743	6229
1259.027	6282
1261.308	6206
1263.587	6278
1265.867	6297
1268.146	6296
1270.425	6238
1272.703	6265
1274.981	6249
1277.256	6218
1279.532	6251
1281.808	6271
1284.083	6270
1286.358	6297
1288.63	6234
1290.904	6204
1293.175	6232
1295.449	6145
1297.719	6226
1299.99	6217
1302.259	6131
1304.529	6189
1306.798	6246
1309.065	6219
1311.333	6113
1313.599	6215
1315.866	6162
1318.131	6274
1320.396	6195
1322.66	6166
1324.925	6147
1327.187	6238
1329.448	6242
1331.711	6245
1333.974	6180
1336.234	6114
1338.493	6172
1340.752	6229
1343.01	6195
1345.269	6223
1347.526	6178
1349.784	6191
1352.04	6142
1354.295	6126
1356.552	6200
1358.806	6255
1361.059	6239
1363.312	6174
1365.564	6215
1367.818	6210
1370.069	6216
1372.318	6179
1374.568	6162
1376.817	6419
1379.066	6209
1381.316	6185
1383.564	6281
1385.809	6312
1388.056	6275
1390.301	6307
1392.549	6330
1394.793	6486
1397.036	6422
1399.279	6432
1401.522	6447
1403.763	6381
1406.007	6435
1408.248	6483
1410.487	6438
1412.727	6352
1414.965	6407
1417.205	6419
1419.442	6517
1421.68	6403
1423.915	6409
1426.152	6465
1428.388	6479
1430.623	6428
1432.857	6401
1435.091	6540
1437.323	6553
1439.556	6575
1441.789	6548
1444.019	6494
1446.25	6502
1448.48	6525
1450.708	6588
1452.938	6676
1455.167	6551
1457.394	6593
1459.62	6685
1461.846	6594
1464.073	6500
1466.299	6526
1468.523	6501
1470.746	6475
1472.969	6469
1475.191	6575
1477.415	6390
1479.636	6326
1481.858	6290
1484.078	6327
1486.298	6260
1488.518	6222
1490.736	6314
1492.954	6313
1495.169	6319
1497.386	6240
1499.602	6130
1501.819	6187
1504.034	6213
1506.248	6263
1508.462	6068
1510.675	6109
1512.888	6203
1515.1	6141
1517.311	6207
1519.522	6242
1521.732	6187
1523.942	6268
1526.151	6213
1528.36	6116
1530.566	6147
1532.773	6207
1534.98	6248
1537.187	6267
1539.392	6258
1541.596	6327
1543.801	6265
1546.005	6254
1548.208	6250
1550.411	6358
1552.612	6255
1554.814	6284
1557.013	6310
1559.212	6299
1561.414	6487
1563.612	6299
1565.811	6368
1568.007	6370
1570.203	6405
1572.403	6425
1574.598	6386
1576.792	6378
1578.988	6386
1581.181	6328
1583.376	6414
1585.568	6362
1587.761	6394
1589.952	6343
1592.143	6331
1594.333	6489
1596.524	6471
1598.715	6407
1600.903	6574
1603.091	6419
1605.278	6481
1607.466	6456
1609.652	6369
1611.838	6593
1614.023	6527
1616.207	6503
1618.391	6524
1620.576	6321
1622.759	6503
1624.941	6517
1627.123	6466
1629.304	6494
1631.484	6592
1633.664	6501
1635.844	6494
1638.022	6583
1640.201	6568
1642.38	6649
1644.556	6570
1646.732	6549
1648.908	6671
1651.084	6564
1653.257	6481
1655.433	6576
1657.607	6534
1659.779	6684
1661.951	6509
1664.122	6602
1666.295	6682
1668.467	6575
1670.635	6678
1672.805	6684
1674.973	6712
1677.142	6596
1679.31	6727
1681.478	6686
1683.644	6657
1685.81	6653
1687.975	6550
1690.142	6587
1692.305	6531
1694.468	6523
1696.632	6475
1698.794	6572
1700.957	6550
1703.119	6467
1705.279	6445
1707.439	6443
1709.598	6536
1711.758	6292
1713.917	6502
1716.075	6374
1718.231	6391
1720.388	6344
1722.543	6429
1724.702	6402
1726.856	6395
1729.01	6391
1731.164	6515
1733.317	6460
1735.471	6316
1737.623	6359
1739.774	6486
1741.925	6413
1744.075	6439
1746.225	6466
1748.376	6462
1750.524	6424
1752.672	6613
1754.82	6492
1756.965	6475
1759.113	6531
1761.259	6415
1763.405	6491
1765.549	6402
1767.694	6419
1769.836	6414
1771.981	6488
1774.123	6409
1776.264	6446
1778.405	6404
1780.546	6523
1782.687	6466
1784.827	6428
1786.966	6425
1789.103	6437
1791.242	6516
1793.381	6467
1795.517	6590
1797.653	6471
1799.788	6527
1801.923	6461
1804.057	6613
1806.193	6483
1808.326	6417
1810.457	6486
1812.59	6561
1814.721	6508
1816.855	6415
1818.984	6619
1821.113	6461
1823.244	6422
1825.372	6416
1827.499	6506
1829.63	6437
1831.756	6447
1833.882	6427
1836.007	6502
1838.132	6442
1840.26	6437
1842.384	6391
1844.507	6478
1846.63	6443
1848.752	6451
1850.875	6380
1852.996	6465
1855.118	6320
1857.238	6360
1859.358	6499
1861.477	6381
1863.597	6478
1865.715	6351
1867.832	6465
1869.948	6576
1872.064	6391
1874.181	6426
1876.297	6217
1878.411	6485
1880.526	6396
1882.639	6431
1884.752	6449
1886.865	6422
1888.977	6397
1891.089	6462
1893.2	6597
1895.308	6335
1897.42	6468
1899.53	6397
1901.639	6451
1903.745	6497
1905.853	6438
1907.962	6489
1910.067	6472
1912.174	6455
1914.278	6479
1916.383	6532
1918.486	6345
1920.592	6438
1922.694	6453
1924.797	6420
1926.898	6515
1929	6529
1931.102	6410
1933.203	6516
1935.301	6347
1937.401	6464
1939.499	6467
1941.598	6504
1943.697	6539
1945.793	6649
1947.888	6520
1949.985	6458
1952.08	6476
1954.176	6487
1956.269	6458
1958.364	6561
1960.457	6493
1962.549	6555
1964.642	6450
1966.733	6410
1968.823	6436
1970.913	6612
1973.005	6516
1975.093	6526
1977.184	6511
1979.271	6485
1981.359	6464
1983.446	6493
1985.532	6459
1987.619	6513
1989.705	6472
1991.789	6429
1993.874	6496
1995.956	6413
1998.041	6388
2000.123	6316
2002.206	6499
2004.287	6508
2006.368	6320
2008.449	6496
2010.529	6466
2012.609	6475
2014.688	6453
2016.766	6252
2018.843	6374
2020.922	6282
2022.999	6420
2025.074	6366
2027.15	6507
2029.225	6500
2031.299	6469
2033.375	6375
2035.447	6469
2037.52	6413
2039.592	6556
2041.664	6466
2043.736	6473
2045.807	6374
2047.876	6450
2049.947	6432
2052.015	6500
2054.086	6477
2056.153	6333
2058.221	6569
2060.288	6361
2062.353	6361
2064.42	6464
2066.486	6435
2068.55	6421
2070.614	6492
2072.678	6486
2074.741	6457
2076.805	6487
2078.866	6376
2080.929	6472
2082.99	6565
2085.049	6444
2087.109	6404
2089.17	6469
2091.228	6455
2093.286	6405
2095.344	6427
2097.4	6525
2099.46	6434
2101.516	6437
2103.572	6532
2105.626	6466
2107.679	6457
2109.735	6437
2111.788	6488
2113.841	6470
2115.894	6458
2117.945	6449
2119.997	6376
2122.049	6402
2124.1	6412
2126.148	6410
2128.197	6486
2130.246	6283
2132.296	6590
2134.342	6523
2136.39	6344
2138.437	6460
2140.483	6461
2142.527	6478
2144.574	6413
2146.619	6269
2148.661	6380
2150.705	6412
2152.747	6463
2154.792	6419
2156.832	6372
2158.874	6293
2160.915	6373
2162.954	6306
2164.995	6497
2167.034	6450
2169.072	6403
2171.111	6351
2173.148	6330
2175.186	6366
2177.223	6333
2179.258	6293
2181.294	6305
2183.328	6340
2185.362	6316
2187.398	6283
2189.431	6374
2191.463	6289
2193.495	6370
2195.528	6527
2197.56	6280
2199.59	6287
2201.62	6246
2203.649	6285
2205.678	6264
2207.708	6300
2209.737	6327
2211.764	6233
2213.791	6322
2215.817	6288
2217.843	6228
2219.87	6182
2221.895	6166
2223.919	6346
2225.942	6230
2227.966	6163
2229.988	6285
2232.012	6236
2234.032	6247
2236.054	6157
2238.074	6117
2240.095	6235
2242.116	6298
2244.135	6254
2246.153	6240
2248.171	6240
2250.188	6309
2252.208	6317
2254.223	6175
2256.239	6327
2258.255	6234
2260.269	6247
2262.283	6198
2264.3	6234
2266.312	6135
2268.325	6259
2270.336	6223
2272.349	6320
2274.362	6186
2276.372	6238
2278.383	6296
2280.392	6255
2282.402	6257
2284.409	6139
2286.418	6275
2288.427	6211
2290.433	6264
2292.441	6189
2294.446	6206
2296.453	6207
2298.459	6151
2300.463	6198
2302.466	6265
2304.471	6157
2306.475	6226
2308.477	6162
2310.478	6090
2312.481	6175
2314.481	6182
2316.481	6216
2318.482	6150
2320.482	6191
2322.48	6179
2324.48	6161
2326.478	6108
2328.476	6189
2330.473	6247
2332.469	6186
2334.465	6131
2336.46	6129
2338.454	6061
2340.45	6087
2342.444	6073
2344.437	6150
2346.43	6176
2348.421	6030
2350.414	6150
2352.405	6132
2354.396	6112
2356.386	6159
2358.376	5998
2360.366	6079
2362.355	6128
2364.343	6005
2366.331	6012
2368.317	6208
2370.304	5999
2372.292	6053
2374.278	6110
2376.262	6015
2378.247	6125
2380.23	6127
2382.216	6023
2384.199	5995
2386.181	6108
2388.163	6115
2390.144	6055
2392.127	5945
2394.107	5932
2396.087	6045
2398.066	6035
2400.046	5978
2402.023	6001
2404.004	6095
2405.981	5893
2407.957	6050
2409.934	5958
2411.91	6027
2413.886	6045
2415.862	5927
2417.836	5970
2419.809	6045
2421.784	6045
2423.756	5975
2425.73	6000
2427.701	5996
2429.672	6015
2431.644	5844
2433.615	6011
2435.586	6035
2437.555	5955
2439.523	5976
2441.491	5943
2443.459	6061
2445.428	6000
2447.395	5987
2449.361	5949
2451.327	5970
2453.292	5900
2455.257	5969
2457.223	5896
2459.187	5921
2461.15	5920
2463.113	5965
2465.076	5981
2467.039	6046
2468.999	6000
2470.96	5971
2472.921	5995
2474.881	5918
2476.841	5870
2478.8	6095
2480.759	5953
2482.717	5872
2484.675	5839
2486.63	5878
2488.589	5980
2490.545	6010
2492.5	5832
2494.455	5869
2496.408	5914
2498.364	5912
2500.318	5918
2502.27	5815
2504.223	5822
2506.174	5897
2508.126	5857
2510.078	5819
2512.03	5855
2513.979	5904
2515.927	5953
2517.877	5900
2519.826	5852
2521.775	5863
2523.722	5845
2525.668	5941
2527.616	5852
2529.561	5971
2531.508	5826
2533.452	5951
2535.398	5854
2537.342	5881
2539.284	5741
2541.229	5822
2543.173	5930
2545.114	5730
2547.055	5862
2548.996	5860
2550.938	5886
2552.878	5882
2554.817	5812
2556.756	5866
2558.695	5771
2560.633	5902
2562.572	5861
2564.509	5890
2566.445	5885
2568.382	5850
2570.317	5855
2572.254	5836
2574.189	5856
2576.123	5877
2578.057	5955
2579.99	5849
2581.923	5874
2583.855	5909
2585.788	5939
2587.719	5878
2589.65	5975
2591.579	5932
2593.511	5749
2595.44	5962
2597.37	5851
2599.297	5745
2601.225	5816
2603.153	5841
2605.08	5850
2607.007	5828
2608.932	5844
2610.858	5828
2612.782	5783
2614.709	5928
2616.632	5916
2618.556	5845
2620.478	5773
2622.401	5753
2624.324	5851
2626.247	5827
2628.167	5838
2630.088	5897
2632.008	5813
2633.928	5905
2635.848	5891
2637.766	5801
2639.684	5872
2641.603	5854
2643.519	5911
2645.437	5793
2647.353	5916
2649.27	5849
2651.184	5820
2653.099	5833
2655.014	5899
2656.928	5886
2658.842	5872
2660.755	5894
2662.667	5892
2664.579	5791
2666.491	5829
2668.402	5839
2670.312	5858
2672.222	5829
2674.132	5761
2676.042	5805
2677.951	5798
2679.859	5843
2681.766	5799
2683.674	5782
2685.582	5899
2687.488	5704
2689.392	5780
2691.298	5789
2693.202	5728
2695.107	5728
2697.012	5783
2698.914	5829
2700.817	5826
2702.72	5757
2704.622	5745
2706.524	5778
2708.425	5708
2710.326	5821
2712.225	5694
2714.125	5753
2716.024	5786
2717.923	5600
2719.822	5781
2721.719	5700
2723.616	5733
2725.512	5881
2727.41	5661
2729.305	5689
2731.201	5744
2733.095	5735
2734.99	5760
2736.884	5722
2738.778	5738
2740.67	5735
2742.562	5680
2744.455	5749
2746.346	5671
2748.238	5629
2750.129	5733
2752.018	5761
2753.907	5674
2755.797	5680
2757.687	5627
2759.575	5698
2761.462	5771
2763.349	5722
2765.237	5736
2767.124	5711
2769.009	5710
2770.894	5709
2772.779	5606
2774.663	5675
2776.547	5682
2778.431	5660
2780.314	5743
2782.197	5656
2784.078	5588
2785.96	5708
2787.842	5664
2789.723	5701
2791.603	5561
2793.483	5609
2795.362	5625
2797.241	5632
2799.121	5544
2800.997	5546
2802.874	5511
2804.751	5605
2806.628	5653
2808.506	5748
2810.38	5618
2812.255	5642
2814.13	5491
2816.003	5743
2817.878	5628
2819.752	5642
2821.623	5666
2823.496	5573
2825.368	5595
2827.238	5567
2829.111	5591
2830.98	5682
2832.851	5730
2834.719	5670
2836.589	5547
2838.458	5625
2840.327	5642
2842.193	5599
2844.061	5702
2845.927	5671
2847.794	5658
2849.66	5668
2851.525	5655
2853.39	5755
2855.254	5634
2857.117	5760
2858.983	5732
2860.845	5742
2862.707	5795
2864.569	5829
2866.431	5856
2868.293	5824
2870.154	5934
2872.013	5990
2873.873	5859
2875.733	5930
2877.592	6119
2879.451	6093
2881.309	6139
2883.166	6140
2885.022	6182
2886.879	6293
2888.736	6259
2890.591	6107
2892.446	6248
2894.301	6196
2896.155	6268
2898.009	6286
2899.863	6145
2901.716	6215
2903.568	6125
2905.419	6188
2907.27	6165
2909.123	6235
2910.973	6199
2912.824	6366
2914.673	6280
2916.521	6331
2918.372	6437
2920.22	6439
2922.067	6470
2923.914	6491
2925.761	6540
2927.607	6723
2929.455	6713
2931.301	6625
2933.144	6789
2934.99	6740
2936.833	6868
2938.678	6809
2940.522	6884
2942.364	7039
2944.207	7104
2946.048	7157
2947.891	7185
2949.731	7149
2951.571	7073
2953.412	6949
2955.25	7032
2957.09	7006
2958.93	6941
2960.767	6764
2962.606	6837
2964.443	6647
2966.279	6561
2968.116	6618
2969.953	6451
2971.788	6405
2973.623	6483
2975.457	6419
2977.292	6437
2979.127	6393
2980.959	6406
2982.792	6314
2984.624	6296
2986.455	6173
2988.288	6198
2990.119	6253
2991.949	6159
2993.779	6126
2995.608	5946
2997.439	6027
2999.268	5912
3001.096	5895
3002.923	5922
3004.751	5757
3006.578	5762
3008.406	5709
3010.232	5724
3012.057	5692
3013.883	5602
3015.706	5575
3017.532	5533
3019.356	5472
3021.179	5489
3023.002	5505
3024.823	5340
3026.646	5450
3028.469	5401
3030.289	5518
3032.11	5500
3033.93	5511
3035.749	5387
3037.57	5363
3039.39	5290
3041.207	5338
3043.026	5335
3044.842	5312
3046.661	5395
3048.477	5290
3050.294	5357
3052.109	5416
3053.925	5436
3055.739	5226
3057.555	5289
3059.368	5341
3061.181	5322
3062.995	5333
3064.807	5283
3066.62	5240
3068.433	5346
3070.243	5290
3072.054	5259
3073.865	5288
3075.675	5368
3077.485	5314
3079.293	5276
3081.102	5202
3082.911	5248
3084.719	5300
3086.527	5233
3088.333	5220
3090.139	5285
3091.945	5209
3093.75	5246
3095.557	5203
3097.361	5167
3099.165	5192
3100.969	5140
3102.772	5184
3104.575	5198
3106.379	5129
3108.181	5133
3109.982	5141
3111.783	5161
3113.584	5046
3115.386	5135
3117.186	5158
3118.985	5058
3120.783	5127
3122.582	5202
3124.381	5037
3126.179	5144
3127.975	5087
3129.772	5001
3131.569	5139
3133.365	5111
3135.161	5009
3136.956	5115
3138.751	5039
3140.544	5079
3142.338	5055
3144.132	5044
3145.925	5036
3147.717	4954
3149.509	5115
3151.301	5000
3153.091	5029
3154.884	5030
3156.673	5102
3158.462	5007
3160.252	5043
3162.041	4966
3163.831	5061
3165.618	4910
3167.405	5045
3169.193	5045
3170.979	5004
3172.767	5000
3174.553	4926
3176.338	5028
3178.123	4981
3179.907	4961
3181.692	4985
3183.477	5039
3185.259	4994
3187.042	5020
3188.824	4949
3190.607	4941
3192.389	5079
3194.17	4915
3195.951	4993
3197.73	4972
3199.51	4976
3201.289	5014
3203.07	4893
3204.848	4953
3206.626	4862
3208.403	5027
3210.18	5038
3211.959	5049
3213.735	4996
3215.511	4886
3217.285	4848
3219.06	4985
3220.836	4999
3222.611	4883
3224.384	5038
3226.158	5009
3227.929	4997
3229.702	5070
3231.476	4982
3233.248	4887
3235.018	4973
3236.789	4941
3238.56	5005
3240.33	4856
3242.1	5011
3243.869	4880
3245.637	4958
3247.405	4947
3249.172	5003
3250.941	5016
3252.707	5005
3254.474	4907
3256.24	4953
3258.006	4952
3259.772	5022
3261.537	4855
3263.301	4943
3265.065	4890
3266.828	4939
3268.592	4954
3270.355	5015
3272.117	4989
3273.878	4901
3275.64	4959
3277.401	4985
3279.162	5010
3280.922	5015
3282.682	4911
3284.441	4866
3286.199	4953
3287.959	4907
3289.716	4822
3291.475	4950
3293.232	5000
3294.988	4961
3296.744	5033
3298.501	5006
3300.256	4992
3302.011	4868
3303.766	4852
3305.52	4931
3307.275	4964
3309.028	4961
3310.781	4948
3312.533	4968
3314.285	4951
3316.038	4937
3317.789	4987
3319.54	4862
3321.289	4915
3323.039	4939
3324.789	4936
3326.539	4915
3328.288	4928
3330.035	4975
3331.783	4884
3333.531	4858
3335.28	4918
3337.025	4803
3338.771	4880
3340.518	4803
3342.262	4873
3344.009	4849
3345.753	4915
3347.497	4871
3349.24	4801
3350.983	4847
3352.726	4816
3354.469	4861
3356.212	4731
3357.952	4854
3359.694	4834
3361.434	4775
3363.176	4722
3364.916	4807
3366.654	4822
3368.394	4768
3370.132	4780
3371.871	4811
3373.61	4748
3375.346	4807
3377.083	4737
3378.82	4788
3380.556	4774
3382.292	4826
3384.027	4632
3385.763	4697
3387.497	4679
3389.231	4780
3390.965	4787
3392.698	4689
3394.431	4635
3396.164	4690
3397.896	4797
3399.627	4598
3401.36	4631
3403.09	4746
3404.82	4602
3406.55	4679
3408.279	4686
3410.01	4656
3411.738	4664
3413.467	4770
3415.194	4661
3416.92	4659
3418.647	4796
3420.375	4684
3422.102	4748
3423.827	4720
3425.553	4588
3427.277	4615
3429.003	4700
3430.727	4574
3432.451	4535
3434.173	4656
3435.896	4677
3437.62	4566
3439.343	4713
3441.063	4569
3442.785	4592
3444.505	4567
3446.226	4601
3447.948	4592
3449.666	4550
3451.386	4596
3453.104	4504
3454.823	4536
3456.541	4538
3458.259	4577
3459.976	4424
3461.693	4567
3463.408	4498
3465.125	4473
3466.841	4394
3468.556	4531
3470.271	4434
3471.985	4495
3473.698	4439
3475.414	4495
3477.126	4464
3478.838	4444
3480.55	4478
3482.263	4443
3483.975	4396
3485.686	4472
3487.396	4364
3489.106	4413
3490.817	4405
3492.526	4469
3494.236	4378
3495.944	4393
3497.652	4435
3499.359	4318
3501.066	4358
3502.775	4361
3504.481	4334
3506.187	4414
3507.893	4356
3509.598	4415
3511.304	4376
3513.009	4338
3514.713	4393
3516.417	4292
3518.12	4337
3519.821	4316
3521.525	4239
3523.228	4234
3524.929	4311
3526.631	4276
3528.33	4266
3530.032	4255
3531.733	4309
3533.433	4391
3535.131	4242
3536.83	4271
3538.529	4288
3540.227	4247
3541.925	4293
3543.623	4223
3545.319	4274
3547.016	4294
3548.712	4188
3550.408	4159
3552.103	4241
3553.798	4219
3555.491	4203
3557.188	4195
3558.88	4162
3560.574	4222
3562.266	4224
3563.959	4182
3565.651	4199
3567.343	4238
3569.035	4205
3570.725	4213
3572.415	4163
3574.106	4205
3575.797	4143
3577.485	4207
3579.174	4187
3580.863	4174
3582.551	4079
3584.238	4111
3585.926	4203
3587.613	4118
3589.3	4105
3590.986	4136
3592.671	4053
3594.357	4095
3596.042	3994
3597.726	4140
3599.41	4025
3601.094	4045
3602.778	4011
3604.461	4058
3606.143	3989
3607.825	4117
3609.507	4010
3611.188	4018
3612.87	3939
3614.551	4058
3616.229	4059
3617.909	3973
3619.589	3957
3621.269	4012
3622.948	3934
3624.625	3962
3626.302	3946
3627.98	3951
3629.657	4036
3631.334	3960
3633.01	3951
3634.686	3936
3636.361	3890
3638.036	3875
3639.712	3976
3641.385	3936
3643.06	3950
3644.732	3921
3646.405	3867
3648.08	3884
3649.751	3827
3651.424	3851
3653.094	3866
3654.766	3883
3656.436	3822
3658.106	3835
3659.777	3940
3661.446	3723
3663.115	3842
3664.783	3819
3666.452	3867
3668.121	3881
3669.788	3765
3671.454	3889
3673.121	3837
3674.789	3809
3676.455	3886
3678.12	3762
3679.784	3731
3681.45	3890
3683.114	3769
3684.779	3760
3686.442	3758
3688.105	3722
3689.768	3764
3691.43	3840
3693.093	3769
3694.754	3785
3696.415	3795
3698.076	3806
3699.736	3696
3701.396	3818
3703.057	3703
3704.716	3672
3706.375	3799
3708.034	3745
3709.692	3684
3711.351	3831
3713.008	3748
3714.665	3710
3716.321	3770
3717.977	3673
3719.634	3787
3721.29	3813
3722.945	3630
3724.598	3702
3726.253	3752
3727.907	3759
3729.561	3724
3731.214	3742
3732.867	3725
3734.518	3720
3736.171	3708
3737.824	3680
3739.474	3607
3741.125	3721
3742.775	3640
3744.425	3640
3746.074	3702
3747.725	3723
3749.373	3691
3751.022	3644
3752.669	3709
3754.318	3660
3755.966	3587
3757.612	3691
3759.259	3707
3760.905	3613
3762.55	3627
3764.197	3643
3765.842	3654
3767.486	3623
3769.131	3665
3770.774	3635
3772.417	3580
3774.061	3669
3775.705	3539
3777.347	3619
3778.988	3646
3780.629	3587
3782.271	3629
3783.912	3626
3785.552	3659
3787.192	3533
3788.831	3645
3790.472	3552
3792.112	3610
3793.75	3661
3795.388	3596
3797.024	3591
3798.661	3594
3800.3	3561
3801.936	3516
3803.572	3522
3805.208	3578
3806.844	3476
3808.48	3584
3810.115	3528
3811.748	3539
3813.382	3522
3815.016	3484
3816.649	3469
3818.283	3523
3819.914	3540
3821.547	3429
3823.178	3481
3824.809	3556
3826.441	3534
3828.072	3488
3829.701	3557
3831.331	3460
3832.96	3433
3834.591	3478
3836.219	3525
3837.847	3502
3839.475	3414
3841.102	3467
3842.729	3423
3844.357	3440
3845.984	3464
3847.609	3512
3849.234	3429
3850.86	3518
3852.485	3603
3854.11	3440
3855.734	3388
3857.357	3436
3858.981	3418
3860.603	3481
3862.227	3392
3863.848	3504
3865.471	3391
3867.092	3419
3868.713	3462
3870.334	3413
3871.954	3391
3873.575	3412
3875.194	3374
3876.813	3365
3878.433	3389
3880.051	3395
3881.669	3467
3883.286	3374
3884.904	3323
3886.52	3427
3888.138	3403
3889.754	3371
3891.37	3448
3892.985	3363
3894.6	3403
3896.216	3417
3897.831	3490
3899.444	3392
3901.058	3314
3902.67	3358
3904.283	3374
3905.897	3368
3907.509	3349
3909.121	3388
3910.731	3335
3912.342	3472
3913.954	3308
3915.563	3398
3917.174	3287
3918.783	3342
3920.391	3287
3922.002	3355
3923.611	3372
3925.218	3372
3926.826	3372
3928.432	3418
3930.039	3356
3931.647	3354
3933.253	3334
3934.859	3373
3936.464	3326
3938.068	3322
3939.675	3307
3941.278	3269
3942.883	3277
3944.486	3340
3946.089	3352
3947.692	3252
3949.295	3257
3950.898	3301
3952.499	3300
3954.1	3301
3955.7	3281
3957.303	3290
3958.903	3307
3960.502	3360
3962.101	3207
3963.7	3215
3965.301	3238
3966.899	3267
3968.497	3232
3970.094	3274
3971.691	3136
3973.288	3222
3974.885	3198
3976.481	3186
3978.077	3230
3979.672	3210
3981.267	3119
3982.863	3211
3984.457	3273
3986.051	3244
3987.645	3204
3989.238	3198
3990.831	3209
3992.425	3221
3994.017	3165
3995.607	3160
3997.199	3125
3998.79	3142
4000.382	3188
4001.973	3153
4003.561	3164
4005.151	3121
4006.741	3212
4008.331	3152
4009.918	3145
4011.507	3150
4013.095	3107
4014.681	3182
4016.269	3109
4017.856	3192
4019.443	3128
4021.028	3105
4022.614	3139
4024.199	3109
4025.785	3100
4027.37	3177
4028.953	3087
4030.536	3165
4032.12	3058
4033.704	3024
4035.287	3050
4036.869	3090
4038.45	3073
4040.032	3093
4041.613	3028
4043.195	2958
4044.776	3080
4046.356	3061
4047.935	3044
4049.515	3016
4051.095	2996
4052.674	3105
4054.251	2978
4055.829	3023
4057.406	3026
4058.985	2961
4060.562	3044
4062.139	3015
4063.715	3082
4065.29	3020
4066.865	3019
4068.442	3019
4070.016	3017
4071.59	2991
4073.164	3012
4074.738	3022
4076.312	2997
4077.885	2997
4079.458	3021
4081.03	2996
4082.602	2986
4084.173	2969
4085.745	2942
4087.315	2960
4088.886	3028
4090.456	2951
4092.026	3070
4093.596	2937
4095.165	3003
4096.734	2950
4098.301	2983
4099.869	2943
4101.437	2919
4103.006	3023
4104.572	2925
4106.139	3001
4107.704	2914
4109.27	2999
4110.837	2943
4112.401	2881
4113.966	2895
4115.53	2950
4117.094	3000
4118.659	2942
4120.223	2905
4121.785	2880
4123.347	2831
4124.909	2908
4126.471	2958
4128.034	2885
4129.595	2850
4131.155	2878
4132.716	2910
4134.275	2902
4135.836	2933
4137.395	2818
4138.955	2876
4140.513	2931
4142.071	2833
4143.628	2810
4145.188	2836
4146.745	2861
4148.302	2824
4149.858	2899
4151.414	2910
4152.971	2861
4154.526	2889
4156.081	2883
4157.635	2862
4159.189	2838
4160.745	2798
4162.298	2769
4163.852	2786
4165.405	2826
4166.957	2842
4168.51	2730
4170.063	2792
4171.614	2784
4173.166	2869
4174.717	2805
4176.267	2761
4177.817	2741
4179.368	2744
4180.917	2833
4182.466	2825
4184.016	2773
4185.564	2825
4187.112	2752
4188.66	2813
4190.207	2796
4191.754	2782
4193.301	2799
4194.848	2756
4196.394	2753
4197.94	2815
4199.484	2796
4201.03	2801
4202.575	2732
4204.12	2791
4205.663	2761
4207.207	2735
4208.75	2785
4210.292	2751
4211.836	2763
4213.378	2741
4214.92	2772
4216.46	2738
4218.002	2751
4219.544	2668
4221.083	2747
4222.625	2723
4224.164	2625
4225.703	2685
4227.244	2704
4228.782	2769
4230.32	2722
4231.857	2687
4233.395	2695
4234.933	2692
4236.471	2756
4238.007	2679
4239.542	2706
4241.078	2676
4242.614	2695
4244.15	2632
4245.685	2673
4247.219	2702
4248.753	2678
4250.287	2666
4251.82	2701
4253.354	2686
4254.887	2662
4256.419	2679
4257.951	2620
4259.483	2648
4261.016	2597
4262.547	2671
4264.078	2631
4265.608	2748
4267.137	2685
4268.668	2582
4270.197	2706
4271.727	2742
4273.254	2672
4274.783	2609
4276.311	2658
4277.84	2682
4279.366	2620
4280.894	2708
4282.42	2622
4283.946	2577
4285.473	2597
4286.998	2610
4288.523	2531
4290.047	2651
4291.572	2603
4293.096	2591
4294.622	2654
4296.144	2594
4297.668	2616
4299.19	2563
4300.713	2612
4302.236	2545
4303.758	2561
4305.279	2630
4306.799	2574
4308.321	2501
4309.842	2558
4311.361	2585
4312.882	2571
4314.401	2583
