400.0961	2945
402.6185	2907
405.1424	2943
407.6635	2872
410.1838	2970
412.7035	2960
415.2225	2985
417.7388	3037
420.2585	3092
422.7754	3037
425.2917	3099
427.8072	3125
430.3221	3163
432.8363	3167
435.3498	3164
437.8626	3078
440.3727	3165
442.8841	3127
445.3969	3128
447.907	3083
450.4142	3072
452.9229	3180
455.4289	3206
457.9362	3136
460.4449	3036
462.9488	3100
465.454	3149
467.9566	3086
470.4604	3079
472.9637	3124
475.4662	3118
477.966	3195
480.4671	3080
482.9656	3128
485.4633	3074
487.9645	3107
490.4608	3150
492.9566	3133
495.4536	3131
497.948	3112
500.4437	3152
502.9387	3125
505.431	3212
507.9226	3116
510.4136	3128
512.9079	3132
515.3975	3253
517.8864	3182
520.3746	3224
522.8622	3178
525.3491	3236
527.8394	3254
530.3249	3192
532.8098	3195
535.2939	3238
537.7774	3186
540.2623	3206
542.7444	3163
545.2259	3191
547.7067	3206
550.1868	3300
552.6683	3214
555.147	3213
557.6231	3262
560.1005	3311
562.5773	3240
565.0534	3245
567.5308	3227
570.0056	3327
572.4776	3252
574.951	3249
577.4237	3274
579.8978	3386
582.3671	3352
584.8378	3315
587.3079	3288
589.7773	3390
592.244	3341
594.714	3324
597.1793	3399
599.6461	3406
602.1121	3384
604.5754	3314
607.0421	3330
609.5042	3293
611.9675	3308
614.4282	3271
616.8902	3358
619.3515	3365
621.8122	3274
624.2702	3296
626.7296	3363
629.1863	3280
631.6423	3242
634.1017	3260
636.5563	3240
639.0104	3285
641.4658	3322
643.9185	3332
646.3725	3285
648.8239	3387
651.2766	3309
653.7266	3349
656.176	3293
658.6247	3363
661.0748	3309
663.5242	3347
665.9709	3283
668.417	3366
670.8624	3370
673.3092	3356
675.7533	3346
678.1968	3414
680.6395	3395
683.0817	3399
685.5251	3381
687.9659	3400
690.4061	3391
692.8456	3419
695.2844	3469
697.7226	3496
700.1621	3405
702.599	3396
705.0332	3468
707.4688	3385
709.9036	3420
712.3399	3464
714.7735	3435
717.2044	3515
719.6367	3442
722.0683	3379
724.4993	3498
726.9296	3554
729.3593	3528
731.7883	3588
734.2147	3532
736.6423	3472
739.0714	3555
741.4958	3552
743.9216	3475
746.3447	3517
748.7691	3562
751.1929	3564
753.616	3672
756.0366	3580
758.4584	3556
760.8776	3591
763.2982	3700
765.718	3607
768.1373	3642
770.5539	3590
772.9698	3631
775.3871	3646
777.8038	3606
780.2178	3552
782.6332	3653
785.0459	3598
787.458	3754
789.8714	3649
792.2842	3513
794.6943	3684
797.1038	3659
799.5127	3655
801.9209	3592
804.3324	3697
806.7393	3724
809.1456	3710
811.5513	3676
813.9562	3579
816.3625	3785
818.7663	3726
821.1693	3655
823.5718	3776
825.9735	3755
828.3746	3651
830.7771	3712
833.177	3677
835.5762	3775
837.9747	3722
840.3727	3729
842.772	3742
845.1666	3705
847.5626	3799
849.958	3778
852.3527	3835
854.7488	3804
857.1403	3833
859.5331	3858
861.9253	3762
864.3168	3790
866.7057	3734
869.098	3773
871.4876	3821
873.8746	3812
876.263	3792
878.6487	3783
881.0378	3744
883.4243	3723
885.8081	3805
888.1933	3726
890.5759	3787
892.9598	3715
895.343	3710
897.7256	3796
900.1057	3782
902.4871	3766
904.8659	3827
907.246	3898
909.6254	3851
912.0023	3805
914.3786	3809
916.7562	3894
919.1331	3884
921.5074	3985
923.8831	3905
926.2562	3933
928.6287	3987
931.0005	3951
933.3757	3911
935.7462	4045
938.1162	4068
940.4855	4041
942.8542	4044
945.2242	4099
947.5916	4262
949.9584	4427
952.3266	4540
954.6921	4627
957.0571	4832
959.4233	5132
961.787	5052
964.15	5126
966.5125	4874
968.8742	4685
971.2354	4577
973.5959	4443
975.9559	4137
978.3151	4028
980.6738	4003
983.0338	4066
985.3912	3945
987.7461	3964
990.1022	3913
992.4578	3921
994.8127	3944
997.1689	3979
999.5207	3891
1001.874	3906
1004.226	3897
1006.576	3892
1008.929	3982
1011.28	3983
1013.628	4025
1015.977	3835
1018.324	3949
1020.674	3987
1023.019	3921
1025.366	4004
1027.713	4039
1030.056	3988
1032.399	4010
1034.746	3966
1037.087	4004
1039.431	4010
1041.771	3972
1044.113	4018
1046.454	4078
1048.793	4130
1051.133	4040
1053.471	4086
1055.807	4049
1058.146	4006
1060.483	4076
1062.818	4030
1065.153	4121
1067.489	4178
1069.822	4137
1072.156	4208
1074.488	4137
1076.82	4185
1079.15	4053
1081.48	4027
1083.814	4064
1086.143	3997
1088.471	4099
1090.799	3997
1093.126	4039
1095.452	3952
1097.78	4015
1100.105	4064
1102.43	4021
1104.754	4023
1107.077	4006
1109.4	4006
1111.722	4031
1114.044	4119
1116.365	4097
1118.685	4084
1121.005	3940
1123.324	4029
1125.643	4039
1127.961	4100
1130.278	4074
1132.595	4147
1134.911	3984
1137.226	4022
1139.541	4069
1141.854	3952
1144.167	4026
1146.482	3982
1148.793	4045
1151.105	4066
1153.414	3933
1155.725	4002
1158.033	4072
1160.344	4018
1162.651	4032
1164.959	4071
1167.265	3976
1169.572	4039
1171.878	4025
1174.184	4073
1176.488	4022
1178.79	3978
1181.094	4039
1183.396	4046
1185.699	4066
1188.001	4006
1190.301	3958
1192.6	4053
1194.9	4029
1197.2	4086
1199.497	4079
1201.794	4062
1204.09	4092
1206.387	4087
1208.684	4058
1210.978	4159
1213.272	4059
1215.565	4070
1217.858	4085
1220.15	4073
1222.443	4091
1224.734	4056
1227.024	4164
1229.313	4111
1231.602	4119
1233.892	4196
1236.18	4186
1238.467	4155
1240.754	4212
1243.04	4213
1245.325	4274
1247.612	4224
1249.896	4157
1252.178	4272
1254.461	4246
1256.743	4194
1259.027	4200
1261.308	4233
1263.587	4253
1265.867	4243
1268.146	4299
1270.425	4269
1272.703	4204
1274.981	4179
1277.256	4230
1279.532	4183
1281.808	4193
1284.083	4262
1286.358	4189
1288.63	4173
1290.904	4166
1293.175	4248
1295.449	4114
1297.719	4212
1299.99	4153
1302.259	4184
1304.529	4137
1306.798	4131
1309.065	4074
1311.333	4131
1313.599	4136
1315.866	4177
1318.131	4162
1320.396	4231
1322.66	4248
1324.925	4206
1327.187	4215
1329.448	4233
1331.711	4190
1333.974	4334
1336.234	4155
1338.493	4186
1340.752	4132
1343.01	4050
1345.269	4110
1347.526	4243
1349.784	4146
1352.04	4187
1354.295	4142
1356.552	4133
1358.806	4151
1361.059	4157
1363.312	4132
1365.564	4145
1367.818	4163
1370.069	4203
1372.318	4255
1374.568	4182
1376.817	4237
1379.066	4249
1381.316	4227
1383.564	4172
1385.809	4176
1388.056	4175
1390.301	4207
1392.549	4265
1394.793	4293
1397.036	4272
1399.279	4237
1401.522	4324
1403.763	4343
1406.007	4370
1408.248	4390
1410.487	4343
1412.727	4355
1414.965	4293
1417.205	4327
1419.442	4408
1421.68	4268
1423.915	4307
1426.152	4403
1428.388	4342
1430.623	4326
1432.857	4211
1435.091	4422
1437.323	4353
1439.556	4338
1441.789	4399
1444.019	4307
1446.25	4449
1448.48	4469
1450.708	4481
1452.938	4453
1455.167	4540
1457.394	4397
1459.62	4414
1461.846	4471
1464.073	4425
1466.299	4357
1468.523	4287
1470.746	4425
1472.969	4362
1475.191	4338
1477.415	4296
1479.636	4224
1481.858	4163
1484.078	4288
1486.298	4268
1488.518	4286
1490.736	4270
1492.954	4295
1495.169	4211
1497.386	4192
1499.602	4212
1501.819	4194
1504.034	4207
1506.248	4179
1508.462	4203
1510.675	4152
1512.888	4222
1515.1	4222
1517.311	4170
1519.522	4176
1521.732	4139
1523.942	4147
1526.151	4218
1528.36	4193
1530.566	4144
1532.773	4238
1534.98	4191
1537.187	4148
1539.392	4144
1541.596	4213
1543.801	4137
1546.005	4207
1548.208	4262
1550.411	4253
1552.612	4264
1554.814	4335
1557.013	4279
1559.212	4309
1561.414	4268
1563.612	4216
1565.811	4231
1568.007	4309
1570.203	4317
1572.403	4328
1574.598	4286
1576.792	4277
1578.988	4275
1581.181	4319
1583.376	4242
1585.568	4286
1587.761	4311
1589.952	4355
1592.143	4353
1594.333	4225
1596.524	4306
1598.715	4416
1600.903	4350
1603.091	4297
1605.278	4338
1607.466	4396
1609.652	4358
1611.838	4382
1614.023	4386
1616.207	4358
1618.391	4432
1620.576	4305
1622.759	4426
1624.941	4400
1627.123	4361
1629.304	4371
1631.484	4447
1633.664	4427
1635.844	4404
1638.022	4444
1640.201	4356
1642.38	4440
1644.556	4545
1646.732	4370
1648.908	4463
1651.084	4386
1653.257	4431
1655.433	4448
1657.607	4385
1659.779	4545
1661.951	4399
1664.122	4472
1666.295	4430
1668.467	4490
1670.635	4515
1672.805	4448
1674.973	4480
1677.142	4500
1679.31	4397
1681.478	4458
1683.644	4326
1685.81	4445
1687.975	4504
1690.142	4467
1692.305	4430
1694.468	4366
1696.632	4419
1698.794	4376
1700.957	4302
1703.119	4410
1705.279	4368
1707.439	4330
1709.598	4387
1711.758	4289
1713.917	4380
1716.075	4383
1718.231	4330
1720.388	4284
1722.543	4319
1724.702	4275
1726.856	4262
1729.01	4343
1731.164	4359
1733.317	4385
1735.471	4184
1737.623	4397
1739.774	4398
1741.925	4270
1744.075	4319
1746.225	4384
1748.376	4441
1750.524	4320
1752.672	4325
1754.82	4349
1756.965	4342
1759.113	4309
1761.259	4364
1763.405	4280
1765.549	4285
1767.694	4381
1769.836	4443
1771.981	4413
1774.123	4440
1776.264	4292
1778.405	4387
1780.546	4281
1782.687	4384
1784.827	4328
1786.966	4400
1789.103	4407
1791.242	4412
1793.381	4370
1795.517	4356
1797.653	4206
1799.788	4314
1801.923	4348
1804.057	4411
1806.193	4412
1808.326	4328
1810.457	4368
1812.59	4327
1814.721	4358
1816.855	4350
1818.984	4425
1821.113	4417
1823.244	4343
1825.372	4485
1827.499	4342
1829.63	4308
1831.756	4390
1833.882	4369
1836.007	4301
1838.132	4307
1840.26	4446
1842.384	4262
1844.507	4292
1846.63	4294
1848.752	4393
1850.875	4414
1852.996	4273
1855.118	4339
1857.238	4342
1859.358	4370
1861.477	4338
1863.597	4275
1865.715	4407
1867.832	4345
1869.948	4369
1872.064	4353
1874.181	4388
1876.297	4322
1878.411	4247
1880.526	4353
1882.639	4452
1884.752	4419
1886.865	4372
1888.977	4295
1891.089	4313
1893.2	4395
1895.308	4379
1897.42	4347
1899.53	4437
1901.639	4447
1903.745	4392
1905.853	4454
1907.962	4358
1910.067	4372
1912.174	4336
1914.278	4455
1916.383	4342
1918.486	4483
1920.592	4395
1922.694	4460
1924.797	4436
1926.898	4450
1929	4473
1931.102	4449
1933.203	4427
1935.301	4404
1937.401	4400
1939.499	4488
1941.598	4447
1943.697	4403
1945.793	4395
1947.888	4406
1949.985	4362
1952.08	4401
1954.176	4408
1956.269	4366
1958.364	4418
1960.457	4504
1962.549	4365
1964.642	4411
1966.733	4481
1968.823	4421
1970.913	4475
1973.005	4423
1975.093	4432
1977.184	4453
1979.271	4450
1981.359	4455
1983.446	4446
1985.532	4395
1987.619	4386
1989.705	4379
1991.789	4367
1993.874	4392
1995.956	4393
1998.041	4326
2000.123	4464
2002.206	4369
2004.287	4375
2006.368	4413
2008.449	4449
2010.529	4389
2012.609	4331
2014.688	4386
2016.766	4402
2018.843	4345
2020.922	4301
2022.999	4377
2025.074	4437
2027.15	4385
2029.225	4324
2031.299	4240
2033.375	4423
2035.447	4398
2037.52	4362
2039.592	4333
2041.664	4304
2043.736	4497
2045.807	4448
2047.876	4466
2049.947	4373
2052.015	4278
2054.086	4375
2056.153	4363
2058.221	4413
2060.288	4343
2062.353	4384
2064.42	4450
2066.486	4347
2068.55	4451
2070.614	4321
2072.678	4404
2074.741	4432
2076.805	4417
2078.866	4435
2080.929	4436
2082.99	4389
2085.049	4339
2087.109	4435
2089.17	4396
2091.228	4368
2093.286	4439
2095.344	4387
2097.4	4463
2099.46	4379
2101.516	4376
2103.572	4388
2105.626	4420
2107.679	4460
2109.735	4360
2111.788	4383
2113.841	4399
2115.894	4397
2117.945	4356
2119.997	4411
2122.049	4469
2124.1	4358
2126.148	4416
2128.197	4334
2130.246	4377
2132.296	4456
2134.342	4417
2136.39	4379
2138.437	4441
2140.483	4403
2142.527	4447
2144.574	4282
2146.619	4361
2148.661	4372
2150.705	4386
2152.747	4361
2154.792	4358
2156.832	4253
2158.874	4345
2160.915	4300
2162.954	4320
2164.995	4433
2167.034	4370
2169.072	4371
2171.111	4290
2173.148	4331
2175.186	4314
2177.223	4326
2179.258	4373
2181.294	4309
2183.328	4420
2185.362	4332
2187.398	4368
2189.431	4248
2191.463	4289
2193.495	4295
2195.528	4260
2197.56	4361
2199.59	4336
2201.62	4322
2203.649	4319
2205.678	4368
2207.708	4299
2209.737	4249
2211.764	4264
2213.791	4324
2215.817	4373
2217.843	4287
2219.87	4347
2221.895	4271
2223.919	4218
2225.942	4191
2227.966	4321
2229.988	4167
2232.012	4322
2234.032	4313
2236.054	4322
2238.074	4210
2240.095	4244
2242.116	4294
2244.135	4187
2246.153	4309
2248.171	4304
2250.188	4285
2252.208	4336
2254.223	4329
2256.239	4194
2258.255	4275
2260.269	4276
2262.283	4338
2264.3	4227
2266.312	4315
2268.325	4240
2270.336	4240
2272.349	4304
2274.362	4241
2276.372	4274
2278.383	4269
2280.392	4299
2282.402	4227
2284.409	4260
2286.418	4229
2288.427	4252
2290.433	4250
2292.441	4267
2294.446	4230
2296.453	4189
2298.459	4198
2300.463	4257
2302.466	4266
2304.471	4293
2306.475	4301
2308.477	4224
2310.478	4228
2312.481	4306
2314.481	4314
2316.481	4198
2318.482	4313
2320.482	4319
2322.48	4296
2324.48	4207
2326.478	4234
2328.476	4235
2330.473	4276
2332.469	4265
2334.465	4215
2336.46	4181
2338.454	4152
2340.45	4177
2342.444	4234
2344.437	4240
2346.43	4231
2348.421	4171
2350.414	4206
2352.405	4113
2354.396	4203
2356.386	4268
2358.376	4197
2360.366	4133
2362.355	4286
2364.343	4149
2366.331	4172
2368.317	4221
2370.304	4167
2372.292	4207
2374.278	4127
2376.262	4294
2378.247	4162
2380.23	4230
2382.216	4187
2384.199	4213
2386.181	4165
2388.163	4176
2390.144	4211
2392.127	4153
2394.107	4173
2396.087	4174
2398.066	4135
2400.046	4200
2402.023	4115
2404.004	4095
2405.981	4185
2407.957	4196
2409.934	4096
2411.91	4135
2413.886	4174
2415.862	4200
2417.836	4079
2419.809	4187
2421.784	4122
2423.756	4142
2425.73	4069
2427.701	4120
2429.672	4220
2431.644	4118
2433.615	4235
2435.586	4071
2437.555	4136
2439.523	4173
2441.491	4181
2443.459	4122
2445.428	4150
2447.395	4114
2449.361	4138
2451.327	4108
2453.292	4108
2455.257	4114
2457.223	4133
2459.187	4012
2461.15	4158
2463.113	4155
2465.076	4132
2467.039	4131
2468.999	4107
2470.96	4109
2472.921	4094
2474.881	4095
2476.841	4072
2478.8	4060
2480.759	4189
2482.717	4043
2484.675	4131
2486.63	4083
2488.589	4153
2490.545	4125
2492.5	4137
2494.455	4110
2496.408	4178
2498.364	4064
2500.318	4047
2502.27	4075
2504.223	4031
2506.174	4116
2508.126	4064
2510.078	4081
2512.03	4105
2513.979	4080
2515.927	4048
2517.877	4110
2519.826	4018
2521.775	4014
2523.722	4066
2525.668	4176
2527.616	4025
2529.561	4130
2531.508	4049
2533.452	4087
2535.398	4018
2537.342	4122
2539.284	4090
2541.229	4051
2543.173	4039
2545.114	4052
2547.055	4097
2548.996	3948
2550.938	4067
2552.878	4093
2554.817	4129
2556.756	4064
2558.695	4088
2560.633	4028
2562.572	4063
2564.509	4186
2566.445	4046
2568.382	4061
2570.317	4013
2572.254	3983
2574.189	4171
2576.123	4083
2578.057	4045
2579.99	4014
2581.923	4038
2583.855	4086
2585.788	3987
2587.719	4126
2589.65	4091
2591.579	4022
2593.511	3931
2595.44	4046
2597.37	4024
2599.297	4004
2601.225	4137
2603.153	3940
2605.08	4055
2607.007	4097
2608.932	4166
2610.858	4034
2612.782	3989
2614.709	4008
2616.632	4051
2618.556	4050
2620.478	4058
2622.401	4037
2624.324	4090
2626.247	4036
2628.167	4110
2630.088	4109
2632.008	4088
2633.928	4062
2635.848	4068
2637.766	4031
2639.684	4094
2641.603	4045
2643.519	4121
2645.437	4055
2647.353	4117
2649.27	4140
2651.184	4036
2653.099	4107
2655.014	4095
2656.928	4089
2658.842	4043
2660.755	4090
2662.667	4043
2664.579	4093
2666.491	4157
2668.402	4030
2670.312	4126
2672.222	4001
2674.132	4001
2676.042	4030
2677.951	4010
2679.859	4034
2681.766	4135
2683.674	4055
2685.582	4049
2687.488	4032
2689.392	4163
2691.298	4051
2693.202	3944
2695.107	3991
2697.012	3955
2698.914	3984
2700.817	4003
2702.72	3988
2704.622	3968
2706.524	3927
2708.425	3942
2710.326	4015
2712.225	4085
2714.125	3900
2716.024	4094
2717.923	4040
2719.822	3878
2721.719	4037
2723.616	3994
2725.512	4083
2727.41	4002
2729.305	3936
2731.201	4048
2733.095	4084
2734.99	3985
2736.884	4001
2738.778	4003
2740.67	4042
2742.562	3989
2744.455	4080
2746.346	3978
2748.238	4046
2750.129	3947
2752.018	3997
2753.907	3965
2755.797	3996
2757.687	3954
2759.575	3977
2761.462	3967
2763.349	4064
2765.237	4063
2767.124	3939
2769.009	3938
2770.894	4007
2772.779	3924
2774.663	3983
2776.547	3993
2778.431	3934
2780.314	3921
2782.197	4055
2784.078	3931
2785.96	3946
2787.842	3973
2789.723	3873
2791.603	3900
2793.483	3933
2795.362	3924
2797.241	4007
2799.121	3970
2800.997	3910
2802.874	3930
2804.751	3967
2806.628	3893
2808.506	3942
2810.38	3882
2812.255	3937
2814.13	3952
2816.003	3970
2817.878	3989
2819.752	3936
2821.623	3952
2823.496	3920
2825.368	4015
2827.238	3871
2829.111	3893
2830.98	3837
2832.851	3846
2834.719	3954
2836.589	3908
2838.458	3977
2840.327	3982
2842.193	3958
2844.061	3896
2845.927	3993
2847.794	3946
2849.66	3957
2851.525	4077
2853.39	4006
2855.254	4020
2857.117	4030
2858.983	4058
2860.845	4039
2862.707	4010
2864.569	4061
2866.431	4159
2868.293	4014
2870.154	4123
2872.013	4133
2873.873	4153
2875.733	4122
2877.592	4201
2879.451	4268
2881.309	4280
2883.166	4222
2885.022	4324
2886.879	4355
2888.736	4276
2890.591	4322
2892.446	4330
2894.301	4374
2896.155	4396
2898.009	4313
2899.863	4290
2901.716	4345
2903.568	4332
2905.419	4356
2907.27	4348
2909.123	4340
2910.973	4357
2912.824	4344
2914.673	4452
2916.521	4408
2918.372	4529
2920.22	4468
2922.067	4525
2923.914	4611
2925.761	4608
2927.607	4675
2929.455	4640
2931.301	4761
2933.144	4778
2934.99	4830
2936.833	4845
2938.678	4841
2940.522	4948
2942.364	4982
2944.207	4976
2946.048	4963
2947.891	5095
2949.731	5056
2951.571	5059
2953.412	4971
2955.25	4939
2957.09	4874
2958.93	4818
2960.767	4866
2962.606	4693
2964.443	4710
2966.279	4742
2968.116	4598
2969.953	4583
2971.788	4500
2973.623	4557
2975.457	4540
2977.292	4517
2979.127	4421
2980.959	4465
2982.792	4451
2984.624	4498
2986.455	4405
2988.288	4411
2990.119	4349
2991.949	4333
2993.779	4310
2995.608	4251
2997.439	4291
2999.268	4204
3001.096	4251
3002.923	4214
3004.751	4149
3006.578	4169
3008.406	4064
3010.232	4081
3012.057	3997
3013.883	3961
3015.706	3985
3017.532	3921
3019.356	3901
3021.179	3871
3023.002	3895
3024.823	3920
3026.646	3809
3028.469	3831
3030.289	3862
3032.11	3760
3033.93	3886
3035.749	3801
3037.57	3748
3039.39	3721
3041.207	3846
3043.026	3791
3044.842	3837
3046.661	3799
3048.477	3820
3050.294	3751
3052.109	3853
3053.925	3780
3055.739	3715
3057.555	3816
3059.368	3799
3061.181	3782
3062.995	3737
3064.807	3770
3066.62	3753
3068.433	3729
3070.243	3628
3072.054	3814
3073.865	3774
3075.675	3717
3077.485	3822
3079.293	3678
3081.102	3703
3082.911	3768
3084.719	3676
3086.527	3738
3088.333	3598
3090.139	3716
3091.945	3629
3093.75	3649
3095.557	3638
3097.361	3778
3099.165	3627
3100.969	3782
3102.772	3536
3104.575	3719
3106.379	3731
3108.181	3598
3109.982	3730
3111.783	3633
3113.584	3756
3115.386	3698
3117.186	3697
3118.985	3677
3120.783	3597
3122.582	3614
3124.381	3669
3126.179	3580
3127.975	3543
3129.772	3607
3131.569	3619
3133.365	3631
3135.161	3634
3136.956	3624
3138.751	3657
3140.544	3564
3142.338	3524
3144.132	3640
3145.925	3590
3147.717	3608
3149.509	3528
3151.301	3499
3153.091	3625
3154.884	3501
3156.673	3581
3158.462	3611
3160.252	3609
3162.041	3581
3163.831	3585
3165.618	3519
3167.405	3637
3169.193	3597
3170.979	3597
3172.767	3560
3174.553	3535
3176.338	3577
3178.123	3550
3179.907	3504
3181.692	3607
3183.477	3585
3185.259	3507
3187.042	3531
3188.824	3471
3190.607	3501
3192.389	3574
3194.17	3597
3195.951	3525
3197.73	3503
3199.51	3563
3201.289	3498
3203.07	3546
3204.848	3511
3206.626	3572
3208.403	3530
3210.18	3567
3211.959	3491
3213.735	3550
3215.511	3516
3217.285	3477
3219.06	3478
3220.836	3558
3222.611	3532
3224.384	3515
3226.158	3485
3227.929	3528
3229.702	3505
3231.476	3556
3233.248	3574
3235.018	3602
3236.789	3596
3238.56	3586
3240.33	3517
3242.1	3569
3243.869	3441
3245.637	3618
3247.405	3472
3249.172	3519
3250.941	3544
3252.707	3504
3254.474	3545
3256.24	3491
3258.006	3490
3259.772	3499
3261.537	3551
3263.301	3527
3265.065	3533
3266.828	3562
3268.592	3557
3270.355	3511
3272.117	3554
3273.878	3541
3275.64	3552
3277.401	3541
3279.162	3579
3280.922	3552
3282.682	3495
3284.441	3503
3286.199	3545
3287.959	3500
3289.716	3550
3291.475	3488
3293.232	3551
3294.988	3531
3296.744	3517
3298.501	3565
3300.256	3539
3302.011	3478
3303.766	3588
3305.52	3496
3307.275	3508
3309.028	3434
3310.781	3428
3312.533	3551
3314.285	3533
3316.038	3523
3317.789	3548
3319.54	3503
3321.289	3548
3323.039	3460
3324.789	3554
3326.539	3528
3328.288	3527
3330.035	3584
3331.783	3519
3333.531	3482
3335.28	3458
3337.025	3470
3338.771	3522
3340.518	3552
3342.262	3460
3344.009	3518
3345.753	3489
3347.497	3526
3349.24	3507
3350.983	3475
3352.726	3405
3354.469	3434
3356.212	3480
3357.952	3480
3359.694	3497
3361.434	3434
3363.176	3482
3364.916	3409
3366.654	3483
3368.394	3460
3370.132	3429
3371.871	3503
3373.61	3478
3375.346	3446
3377.083	3422
3378.82	3348
3380.556	3450
3382.292	3362
3384.027	3365
3385.763	3406
3387.497	3415
3389.231	3354
3390.965	3421
3392.698	3344
3394.431	3418
3396.164	3422
3397.896	3348
3399.627	3358
3401.36	3360
3403.09	3390
3404.82	3293
3406.55	3412
3408.279	3398
3410.01	3451
3411.738	3340
3413.467	3332
3415.194	3424
3416.92	3352
3418.647	3371
3420.375	3382
3422.102	3332
3423.827	3355
3425.553	3325
3427.277	3348
3429.003	3416
3430.727	3424
3432.451	3377
3434.173	3247
3435.896	3301
3437.62	3295
3439.343	3313
3441.063	3406
3442.785	3337
3444.505	3344
3446.226	3335
3447.948	3304
3449.666	3316
3451.386	3285
3453.104	3309
3454.823	3294
3456.541	3226
3458.259	3341
3459.976	3208
3461.693	3271
3463.408	3285
3465.125	3336
3466.841	3257
3468.556	3282
3470.271	3243
3471.985	3184
3473.698	3205
3475.414	3259
3477.126	3287
3478.838	3238
3480.55	3225
3482.263	3178
3483.975	3184
3485.686	3187
3487.396	3233
3489.106	3200
3490.817	3141
3492.526	3216
3494.236	3091
3495.944	3185
3497.652	3242
3499.359	3119
3501.066	3090
3502.775	3140
3504.481	3130
3506.187	3205
3507.893	3184
3509.598	3151
3511.304	3160
3513.009	3109
3514.713	3113
3516.417	3059
3518.12	3118
3519.821	3080
3521.525	3077
3523.228	3105
3524.929	3106
3526.631	3134
3528.33	3118
3530.032	3095
3531.733	3059
3533.433	3068
3535.131	3114
3536.83	3117
3538.529	3077
3540.227	3113
3541.925	3077
3543.623	3097
3545.319	3041
3547.016	3131
3548.712	3060
3550.408	3011
3552.103	3050
3553.798	2943
3555.491	3067
3557.188	3034
3558.88	3105
3560.574	3054
3562.266	3003
3563.959	3058
3565.651	3009
3567.343	3037
3569.035	2982
3570.725	3099
3572.415	3033
3574.106	2977
3575.797	3067
3577.485	3028
3579.174	2974
3580.863	3093
3582.551	2982
3584.238	2959
3585.926	3000
3587.613	3001
3589.3	2992
3590.986	3049
3592.671	2969
3594.357	2964
3596.042	2929
3597.726	2976
3599.41	2998
3601.094	2965
3602.778	2964
3604.461	2985
3606.143	2938
3607.825	2940
3609.507	2856
3611.188	2958
3612.87	2953
3614.551	2935
3616.229	2939
3617.909	2885
3619.589	2868
3621.269	2844
3622.948	2903
3624.625	2875
3626.302	2869
3627.98	2904
3629.657	2905
3631.334	2812
3633.01	2863
3634.686	2914
3636.361	2929
3638.036	2868
3639.712	2817
3641.385	2836
3643.06	2865
3644.732	2802
3646.405	2835
3648.08	2872
3649.751	2846
3651.424	2840
3653.094	2825
3654.766	2799
3656.436	2838
3658.106	2808
3659.777	2824
3661.446	2829
3663.115	2794
3664.783	2704
3666.452	2862
3668.121	2790
3669.788	2813
3671.454	2806
3673.121	2740
3674.789	2817
3676.455	2778
3678.12	2733
3679.784	2758
3681.45	2743
3683.114	2795
3684.779	2727
3686.442	2797
3688.105	2813
3689.768	2786
3691.43	2809
3693.093	2774
3694.754	2780
3696.415	2758
3698.076	2780
3699.736	2789
3701.396	2682
3703.057	2748
3704.716	2775
3706.375	2681
3708.034	2758
3709.692	2675
3711.351	2720
3713.008	2736
3714.665	2737
3716.321	2774
3717.977	2717
3719.634	2720
3721.29	2695
3722.945	2738
3724.598	2732
3726.253	2704
3727.907	2687
3729.561	2695
3731.214	2754
3732.867	2643
3734.518	2691
3736.171	2701
3737.824	2752
3739.474	2651
3741.125	2674
3742.775	2703
3744.425	2733
3746.074	2676
3747.725	2639
3749.373	2738
3751.022	2682
3752.669	2666
3754.318	2646
3755.966	2685
3757.612	2595
3759.259	2693
3760.905	2706
3762.55	2707
3764.197	2658
3765.842	2690
3767.486	2642
3769.131	2628
3770.774	2640
3772.417	2677
3774.061	2612
3775.705	2670
3777.347	2590
3778.988	2610
3780.629	2675
3782.271	2674
3783.912	2613
3785.552	2626
3787.192	2685
3788.831	2618
3790.472	2580
3792.112	2588
3793.75	2613
3795.388	2624
3797.024	2618
3798.661	2653
3800.3	2546
3801.936	2596
3803.572	2608
3805.208	2625
3806.844	2614
3808.48	2618
3810.115	2621
3811.748	2581
3813.382	2601
3815.016	2590
3816.649	2561
3818.283	2594
3819.914	2507
3821.547	2602
3823.178	2611
3824.809	2566
3826.441	2563
3828.072	2532
3829.701	2591
3831.331	2548
3832.96	2573
3834.591	2554
3836.219	2556
3837.847	2611
3839.475	2552
3841.102	2544
3842.729	2568
3844.357	2550
3845.984	2556
3847.609	2537
3849.234	2492
3850.86	2558
3852.485	2521
3854.11	2541
3855.734	2497
3857.357	2550
3858.981	2556
3860.603	2597
3862.227	2463
3863.848	2537
3865.471	2516
3867.092	2515
3868.713	2519
3870.334	2478
3871.954	2510
3873.575	2462
3875.194	2440
3876.813	2498
3878.433	2480
3880.051	2466
3881.669	2545
3883.286	2429
3884.904	2476
3886.52	2487
3888.138	2471
3889.754	2486
3891.37	2494
3892.985	2482
3894.6	2462
3896.216	2416
3897.831	2428
3899.444	2508
3901.058	2481
3902.67	2496
3904.283	2454
3905.897	2476
3907.509	2474
3909.121	2460
3910.731	2443
3912.342	2500
3913.954	2493
3915.563	2463
3917.174	2426
3918.783	2486
3920.391	2441
3922.002	2546
3923.611	2389
3925.218	2424
3926.826	2528
3928.432	2389
3930.039	2445
3931.647	2458
3933.253	2454
3934.859	2448
3936.464	2403
3938.068	2469
3939.675	2444
3941.278	2443
3942.883	2373
3944.486	2373
3946.089	2404
3947.692	2463
3949.295	2410
3950.898	2381
3952.499	2483
3954.1	2449
3955.7	2468
3957.303	2391
3958.903	2330
3960.502	2469
3962.101	2434
3963.7	2431
3965.301	2414
3966.899	2423
3968.497	2374
3970.094	2446
3971.691	2357
3973.288	2399
3974.885	2430
3976.481	2391
3978.077	2356
3979.672	2376
3981.267	2412
3982.863	2325
3984.457	2374
3986.051	2408
3987.645	2440
3989.238	2273
3990.831	2338
3992.425	2345
3994.017	2354
3995.607	2389
3997.199	2334
3998.79	2342
4000.382	2380
4001.973	2321
4003.561	2286
4005.151	2355
4006.741	2379
4008.331	2301
4009.918	2344
4011.507	2305
4013.095	2292
4014.681	2347
4016.269	2316
4017.856	2302
4019.443	2278
4021.028	2327
4022.614	2362
4024.199	2337
4025.785	2275
4027.37	2295
4028.953	2228
4030.536	2275
4032.12	2230
4033.704	2282
4035.287	2244
4036.869	2256
4038.45	2280
4040.032	2230
4041.613	2317
4043.195	2290
4044.776	2259
4046.356	2296
4047.935	2274
4049.515	2231
4051.095	2247
4052.674	2240
4054.251	2224
4055.829	2250
4057.406	2269
4058.985	2239
4060.562	2268
4062.139	2235
4063.715	2195
4065.29	2274
4066.865	2273
4068.442	2282
4070.016	2274
4071.59	2204
4073.164	2221
4074.738	2292
4076.312	2275
4077.885	2211
4079.458	2232
4081.03	2252
4082.602	2240
4084.173	2253
4085.745	2202
4087.315	2239
4088.886	2223
4090.456	2183
4092.026	2213
4093.596	2234
4095.165	2201
4096.734	2207
4098.301	2183
4099.869	2202
4101.437	2227
4103.006	2196
4104.572	2233
4106.139	2197
4107.704	2167
4109.27	2131
4110.837	2227
4112.401	2182
4113.966	2136
4115.53	2141
4117.094	2166
4118.659	2159
4120.223	2129
4121.785	2188
4123.347	2167
4124.909	2191
4126.471	2173
4128.034	2184
4129.595	2196
4131.155	2156
4132.716	2159
4134.275	2173
4135.836	2146
4137.395	2178
4138.955	2140
4140.513	2109
4142.071	2241
4143.628	2161
4145.188	2063
4146.745	2121
4148.302	2088
4149.858	2070
4151.414	2118
4152.971	2147
4154.526	2099
4156.081	2130
4157.635	2125
4159.189	2141
4160.745	2112
4162.298	2086
4163.852	2104
4165.405	2118
4166.957	2149
4168.51	2128
4170.063	2123
4171.614	2044
4173.166	2127
4174.717	2115
4176.267	2059
4177.817	2076
4179.368	2032
4180.917	2098
4182.466	2081
4184.016	2072
4185.564	2059
4187.112	2034
4188.66	2043
4190.207	2110
4191.754	2119
4193.301	2089
4194.848	2128
4196.394	2036
4197.94	2083
4199.484	2064
4201.03	2074
4202.575	2044
4204.12	2047
4205.663	2032
4207.207	2086
4208.75	2058
4210.292	2055
4211.836	2031
4213.378	2078
4214.92	2024
4216.46	2087
4218.002	2090
4219.544	2023
4221.083	1959
4222.625	2094
4224.164	2029
4225.703	2002
4227.244	2069
4228.782	2043
4230.32	2051
4231.857	2067
4233.395	2021
4234.933	2027
4236.471	2010
4238.007	2034
4239.542	2017
4241.078	2041
4242.614	1980
4244.15	1996
4245.685	1995
4247.219	2020
4248.753	2029
4250.287	2065
4251.82	1949
4253.354	1977
4254.887	2031
4256.419	1986
4257.951	2018
4259.483	2041
4261.016	2027
4262.547	2005
4264.078	2051
4265.608	1995
4267.137	1956
4268.668	1983
4270.197	1988
4271.727	1971
4273.254	1962
4274.783	2049
4276.311	2000
4277.84	1998
4279.366	1966
4280.894	2033
4282.42	1930
4283.946	2008
4285.473	1972
4286.998	1989
4288.523	1975
4290.047	1935
4291.572	1972
4293.096	1983
4294.622	2020
4296.144	1995
4297.668	1958
4299.19	1992
4300.713	1998
4302.236	1979
4303.758	1945
4305.279	1942
4306.799	1983
4308.321	1959
4309.842	1965
4311.361	1915
4312.882	2042
4314.401	1931
