400.0961	3899
402.6185	3787
405.1424	3890
407.6635	3809
410.1838	3874
412.7035	3958
415.2225	3898
417.7388	4021
420.2585	3973
422.7754	4080
425.2917	4187
427.8072	4149
430.3221	4132
432.8363	4206
435.3498	4108
437.8626	4096
440.3727	4130
442.8841	4156
445.3969	4127
447.907	4194
450.4142	4136
452.9229	4198
455.4289	4104
457.9362	4090
460.4449	4065
462.9488	4074
465.454	4142
467.9566	4062
470.4604	4106
472.9637	4089
475.4662	4086
477.966	4160
480.4671	4053
482.9656	4103
485.4633	4119
487.9645	4110
490.4608	4085
492.9566	4166
495.4536	4081
497.948	3979
500.4437	4080
502.9387	4141
505.431	4163
507.9226	4157
510.4136	4123
512.9079	4164
515.3975	4161
517.8864	4131
520.3746	4216
522.8622	4115
525.3491	4198
527.8394	4271
530.3249	4273
532.8098	4230
535.2939	4286
537.7774	4229
540.2623	4295
542.7444	4167
545.2259	4241
547.7067	4281
550.1868	4272
552.6683	4162
555.147	4245
557.6231	4283
560.1005	4267
562.5773	4221
565.0534	4325
567.5308	4276
570.0056	4425
572.4776	4481
574.951	4336
577.4237	4426
579.8978	4492
582.3671	4434
584.8378	4474
587.3079	4542
589.7773	4507
592.244	4498
594.714	4412
597.1793	4467
599.6461	4514
602.1121	4411
604.5754	4412
607.0421	4419
609.5042	4294
611.9675	4414
614.4282	4387
616.8902	4484
619.3515	4395
621.8122	4416
624.2702	4333
626.7296	4364
629.1863	4312
631.6423	4333
634.1017	4321
636.5563	4311
639.0104	4280
641.4658	4283
643.9185	4408
646.3725	4364
648.8239	4412
651.2766	4397
653.7266	4251
656.176	4353
658.6247	4415
661.0748	4418
663.5242	4468
665.9709	4436
668.417	4432
670.8624	4392
673.3092	4428
675.7533	4339
678.1968	4463
680.6395	4477
683.0817	4423
685.5251	4476
687.9659	4474
690.4061	4549
692.8456	4421
695.2844	4570
697.7226	4472
700.1621	4560
702.599	4439
705.0332	4494
707.4688	4527
709.9036	4501
712.3399	4595
714.7735	4480
717.2044	4615
719.6367	4556
722.0683	4562
724.4993	4585
726.9296	4710
729.3593	4605
731.7883	4586
734.2147	4626
736.6423	4670
739.0714	4625
741.4958	4683
743.9216	4643
746.3447	4610
748.7691	4642
751.1929	4753
753.616	4748
756.0366	4716
758.4584	4757
760.8776	4824
763.2982	4804
765.718	4779
768.1373	4887
770.5539	4813
772.9698	4725
775.3871	4841
777.8038	4936
780.2178	4817
782.6332	4891
785.0459	4786
787.458	4834
789.8714	4804
792.2842	4798
794.6943	4751
797.1038	4821
799.5127	4725
801.9209	4796
804.3324	4847
806.7393	4835
809.1456	4878
811.5513	4812
813.9562	4876
816.3625	4994
818.7663	4860
821.1693	4838
823.5718	4781
825.9735	4847
828.3746	4876
830.7771	4896
833.177	4880
835.5762	4914
837.9747	4925
840.3727	4871
842.772	4979
845.1666	4930
847.5626	4983
849.958	4969
852.3527	5000
854.7488	5034
857.1403	5137
859.5331	5105
861.9253	5080
864.3168	5026
866.7057	5055
869.098	4948
871.4876	4975
873.8746	4934
876.263	5081
878.6487	5063
881.0378	5054
883.4243	4995
885.8081	5000
888.1933	5060
890.5759	5014
892.9598	5008
895.343	5079
897.7256	5083
900.1057	5101
902.4871	5070
904.8659	5003
907.246	5142
909.6254	5102
912.0023	5151
914.3786	5128
916.7562	5293
919.1331	5285
921.5074	5396
923.8831	5453
926.2562	5306
928.6287	5255
931.0005	5330
933.3757	5376
935.7462	5431
938.1162	5380
940.4855	5548
942.8542	5498
945.2242	5606
947.5916	5703
949.9584	5916
952.3266	6206
954.6921	6547
957.0571	6896
959.4233	7087
961.787	7213
964.15	7177
966.5125	6860
968.8742	6575
971.2354	6222
973.5959	5810
975.9559	5571
978.3151	5502
980.6738	5368
983.0338	5215
985.3912	5224
987.7461	5152
990.1022	5235
992.4578	5199
994.8127	5179
997.1689	5201
999.5207	5278
1001.874	5348
1004.226	5345
1006.576	5292
1008.929	5248
1011.28	5273
1013.628	5280
1015.977	5239
1018.324	5275
1020.674	5259
1023.019	5237
1025.366	5273
1027.713	5298
1030.056	5308
1032.399	5349
1034.746	5424
1037.087	5309
1039.431	5347
1041.771	5255
1044.113	5337
1046.454	5412
1048.793	5366
1051.133	5354
1053.471	5386
1055.807	5347
1058.146	5364
1060.483	5358
1062.818	5456
1065.153	5454
1067.489	5465
1069.822	5576
1072.156	5471
1074.488	5631
1076.82	5518
1079.15	5439
1081.48	5497
1083.814	5484
1086.143	5474
1088.471	5389
1090.799	5391
1093.126	5370
1095.452	5328
1097.78	5365
1100.105	5405
1102.43	5334
1104.754	5369
1107.077	5323
1109.4	5314
1111.722	5278
1114.044	5313
1116.365	5356
1118.685	5195
1121.005	5308
1123.324	5275
1125.643	5245
1127.961	5388
1130.278	5316
1132.595	5282
1134.911	5409
1137.226	5294
1139.541	5326
1141.854	5324
1144.167	5274
1146.482	5295
1148.793	5309
1151.105	5239
1153.414	5271
1155.725	5395
1158.033	5253
1160.344	5256
1162.651	5345
1164.959	5356
1167.265	5326
1169.572	5431
1171.878	5312
1174.184	5385
1176.488	5412
1178.79	5262
1181.094	5424
1183.396	5368
1185.699	5361
1188.001	5346
1190.301	5422
1192.6	5317
1194.9	5390
1197.2	5270
1199.497	5338
1201.794	5343
1204.09	5382
1206.387	5387
1208.684	5405
1210.978	5460
1213.272	5286
1215.565	5281
1217.858	5370
1220.15	5368
1222.443	5334
1224.734	5317
1227.024	5476
1229.313	5429
1231.602	5481
1233.892	5471
1236.18	5635
1238.467	5606
1240.754	5645
1243.04	5583
1245.325	5671
1247.612	5690
1249.896	5671
1252.178	5615
1254.461	5715
1256.743	5607
1259.027	5628
1261.308	5671
1263.587	5639
1265.867	5497
1268.146	5624
1270.425	5666
1272.703	5623
1274.981	5663
1277.256	5654
1279.532	5560
1281.808	5699
1284.083	5600
1286.358	5576
1288.63	5543
1290.904	5537
1293.175	5535
1295.449	5584
1297.719	5487
1299.99	5419
1302.259	5535
1304.529	5416
1306.798	5555
1309.065	5551
1311.333	5484
1313.599	5474
1315.866	5435
1318.131	5573
1320.396	5514
1322.66	5574
1324.925	5525
1327.187	5563
1329.448	5505
1331.711	5558
1333.974	5591
1336.234	5470
1338.493	5541
1340.752	5508
1343.01	5509
1345.269	5523
1347.526	5490
1349.784	5512
1352.04	5529
1354.295	5374
1356.552	5545
1358.806	5466
1361.059	5526
1363.312	5509
1365.564	5426
1367.818	5578
1370.069	5521
1372.318	5597
1374.568	5467
1376.817	5520
1379.066	5442
1381.316	5567
1383.564	5523
1385.809	5613
1388.056	5564
1390.301	5736
1392.549	5729
1394.793	5644
1397.036	5746
1399.279	5837
1401.522	5813
1403.763	5720
1406.007	5764
1408.248	5774
1410.487	5722
1412.727	5729
1414.965	5593
1417.205	5800
1419.442	5728
1421.68	5742
1423.915	5679
1426.152	5752
1428.388	5706
1430.623	5660
1432.857	5825
1435.091	5746
1437.323	5759
1439.556	5805
1441.789	5803
1444.019	5823
1446.25	5825
1448.48	5835
1450.708	5905
1452.938	5843
1455.167	5975
1457.394	5870
1459.62	5867
1461.846	5799
1464.073	5909
1466.299	5850
1468.523	5791
1470.746	5819
1472.969	5801
1475.191	5803
1477.415	5727
1479.636	5641
1481.858	5637
1484.078	5566
1486.298	5583
1488.518	5567
1490.736	5533
1492.954	5515
1495.169	5444
1497.386	5425
1499.602	5513
1501.819	5599
1504.034	5451
1506.248	5413
1508.462	5387
1510.675	5381
1512.888	5463
1515.1	5504
1517.311	5467
1519.522	5537
1521.732	5452
1523.942	5461
1526.151	5559
1528.36	5470
1530.566	5552
1532.773	5442
1534.98	5425
1537.187	5426
1539.392	5482
1541.596	5572
1543.801	5557
1546.005	5584
1548.208	5573
1550.411	5467
1552.612	5469
1554.814	5557
1557.013	5500
1559.212	5623
1561.414	5614
1563.612	5555
1565.811	5537
1568.007	5565
1570.203	5677
1572.403	5647
1574.598	5581
1576.792	5605
1578.988	5617
1581.181	5619
1583.376	5711
1585.568	5666
1587.761	5615
1589.952	5647
1592.143	5686
1594.333	5608
1596.524	5642
1598.715	5689
1600.903	5624
1603.091	5646
1605.278	5553
1607.466	5757
1609.652	5705
1611.838	5832
1614.023	5694
1616.207	5779
1618.391	5670
1620.576	5690
1622.759	5756
1624.941	5709
1627.123	5768
1629.304	5728
1631.484	5734
1633.664	5791
1635.844	5779
1638.022	5907
1640.201	5818
1642.38	5750
1644.556	5833
1646.732	5914
1648.908	5853
1651.084	5796
1653.257	5748
1655.433	5846
1657.607	5858
1659.779	5895
1661.951	5907
1664.122	5956
1666.295	5962
1668.467	6082
1670.635	5975
1672.805	5881
1674.973	5805
1677.142	5910
1679.31	5842
1681.478	5905
1683.644	5929
1685.81	5874
1687.975	5790
1690.142	5849
1692.305	5907
1694.468	5811
1696.632	5759
1698.794	5830
1700.957	5705
1703.119	5620
1705.279	5734
1707.439	5637
1709.598	5711
1711.758	5630
1713.917	5669
1716.075	5626
1718.231	5643
1720.388	5698
1722.543	5688
1724.702	5653
1726.856	5719
1729.01	5600
1731.164	5707
1733.317	5626
1735.471	5639
1737.623	5566
1739.774	5699
1741.925	5756
1744.075	5551
1746.225	5594
1748.376	5660
1750.524	5598
1752.672	5687
1754.82	5647
1756.965	5737
1759.113	5699
1761.259	5727
1763.405	5786
1765.549	5792
1767.694	5619
1769.836	5598
1771.981	5697
1774.123	5735
1776.264	5705
1778.405	5671
1780.546	5655
1782.687	5605
1784.827	5750
1786.966	5768
1789.103	5642
1791.242	5812
1793.381	5784
1795.517	5806
1797.653	5694
1799.788	5741
1801.923	5744
1804.057	5777
1806.193	5726
1808.326	5677
1810.457	5680
1812.59	5724
1814.721	5696
1816.855	5750
1818.984	5591
1821.113	5685
1823.244	5772
1825.372	5714
1827.499	5649
1829.63	5589
1831.756	5706
1833.882	5660
1836.007	5756
1838.132	5700
1840.26	5676
1842.384	5593
1844.507	5662
1846.63	5607
1848.752	5714
1850.875	5521
1852.996	5716
1855.118	5730
1857.238	5745
1859.358	5714
1861.477	5675
1863.597	5684
1865.715	5577
1867.832	5687
1869.948	5661
1872.064	5686
1874.181	5592
1876.297	5525
1878.411	5605
1880.526	5623
1882.639	5652
1884.752	5700
1886.865	5773
1888.977	5763
1891.089	5662
1893.2	5634
1895.308	5609
1897.42	5624
1899.53	5646
1901.639	5630
1903.745	5734
1905.853	5700
1907.962	5698
1910.067	5660
1912.174	5719
1914.278	5738
1916.383	5669
1918.486	5786
1920.592	5656
1922.694	5744
1924.797	5832
1926.898	5766
1929	5818
1931.102	5734
1933.203	5580
1935.301	5699
1937.401	5779
1939.499	5792
1941.598	5693
1943.697	5721
1945.793	5691
1947.888	5686
1949.985	5707
1952.08	5844
1954.176	5817
1956.269	5795
1958.364	5791
1960.457	5696
1962.549	5737
1964.642	5825
1966.733	5763
1968.823	5710
1970.913	5686
1973.005	5576
1975.093	5617
1977.184	5755
1979.271	5787
1981.359	5648
1983.446	5618
1985.532	5719
1987.619	5782
1989.705	5656
1991.789	5740
1993.874	5729
1995.956	5775
1998.041	5571
2000.123	5714
2002.206	5758
2004.287	5742
2006.368	5628
2008.449	5745
2010.529	5714
2012.609	5762
2014.688	5730
2016.766	5567
2018.843	5788
2020.922	5627
2022.999	5671
2025.074	5570
2027.15	5713
2029.225	5750
2031.299	5627
2033.375	5665
2035.447	5672
2037.52	5711
2039.592	5700
2041.664	5694
2043.736	5739
2045.807	5820
2047.876	5620
2049.947	5567
2052.015	5691
2054.086	5817
2056.153	5694
2058.221	5705
2060.288	5605
2062.353	5754
2064.42	5782
2066.486	5613
2068.55	5700
2070.614	5736
2072.678	5762
2074.741	5611
2076.805	5635
2078.866	5793
2080.929	5714
2082.99	5740
2085.049	5663
2087.109	5687
2089.17	5758
2091.228	5698
2093.286	5759
2095.344	5680
2097.4	5742
2099.46	5667
2101.516	5700
2103.572	5710
2105.626	5694
2107.679	5645
2109.735	5794
2111.788	5609
2113.841	5697
2115.894	5717
2117.945	5706
2119.997	5701
2122.049	5608
2124.1	5703
2126.148	5664
2128.197	5775
2130.246	5644
2132.296	5671
2134.342	5664
2136.39	5564
2138.437	5694
2140.483	5773
2142.527	5719
2144.574	5727
2146.619	5521
2148.661	5698
2150.705	5694
2152.747	5619
2154.792	5714
2156.832	5642
2158.874	5684
2160.915	5617
2162.954	5649
2164.995	5566
2167.034	5672
2169.072	5607
2171.111	5622
2173.148	5558
2175.186	5641
2177.223	5680
2179.258	5532
2181.294	5631
2183.328	5511
2185.362	5544
2187.398	5516
2189.431	5559
2191.463	5659
2193.495	5554
2195.528	5605
2197.56	5611
2199.59	5531
2201.62	5590
2203.649	5542
2205.678	5459
2207.708	5695
2209.737	5572
2211.764	5571
2213.791	5433
2215.817	5549
2217.843	5571
2219.87	5523
2221.895	5486
2223.919	5590
2225.942	5481
2227.966	5605
2229.988	5590
2232.012	5629
2234.032	5594
2236.054	5460
2238.074	5434
2240.095	5602
2242.116	5620
2244.135	5454
2246.153	5533
2248.171	5492
2250.188	5529
2252.208	5504
2254.223	5587
2256.239	5617
2258.255	5547
2260.269	5641
2262.283	5532
2264.3	5468
2266.312	5507
2268.325	5536
2270.336	5554
2272.349	5539
2274.362	5578
2276.372	5485
2278.383	5560
2280.392	5585
2282.402	5586
2284.409	5593
2286.418	5555
2288.427	5565
2290.433	5589
2292.441	5625
2294.446	5422
2296.453	5505
2298.459	5545
2300.463	5521
2302.466	5603
2304.471	5554
2306.475	5598
2308.477	5431
2310.478	5458
2312.481	5548
2314.481	5552
2316.481	5453
2318.482	5518
2320.482	5519
2322.48	5410
2324.48	5542
2326.478	5496
2328.476	5385
2330.473	5446
2332.469	5453
2334.465	5475
2336.46	5553
2338.454	5279
2340.45	5429
2342.444	5505
2344.437	5464
2346.43	5344
2348.421	5367
2350.414	5492
2352.405	5419
2354.396	5441
2356.386	5354
2358.376	5380
2360.366	5396
2362.355	5369
2364.343	5446
2366.331	5355
2368.317	5427
2370.304	5485
2372.292	5522
2374.278	5438
2376.262	5415
2378.247	5311
2380.23	5406
2382.216	5366
2384.199	5368
2386.181	5380
2388.163	5426
2390.144	5413
2392.127	5548
2394.107	5373
2396.087	5308
2398.066	5319
2400.046	5393
2402.023	5346
2404.004	5422
2405.981	5364
2407.957	5329
2409.934	5359
2411.91	5291
2413.886	5313
2415.862	5323
2417.836	5322
2419.809	5323
2421.784	5348
2423.756	5395
2425.73	5409
2427.701	5279
2429.672	5276
2431.644	5296
2433.615	5278
2435.586	5325
2437.555	5369
2439.523	5308
2441.491	5326
2443.459	5341
2445.428	5396
2447.395	5310
2449.361	5355
2451.327	5414
2453.292	5306
2455.257	5275
2457.223	5269
2459.187	5283
2461.15	5286
2463.113	5326
2465.076	5179
2467.039	5295
2468.999	5286
2470.96	5183
2472.921	5168
2474.881	5361
2476.841	5207
2478.8	5208
2480.759	5280
2482.717	5262
2484.675	5258
2486.63	5335
2488.589	5217
2490.545	5273
2492.5	5241
2494.455	5232
2496.408	5301
2498.364	5313
2500.318	5220
2502.27	5236
2504.223	5231
2506.174	5232
2508.126	5293
2510.078	5231
2512.03	5157
2513.979	5221
2515.927	5253
2517.877	5303
2519.826	5248
2521.775	5186
2523.722	5201
2525.668	5285
2527.616	5200
2529.561	5317
2531.508	5264
2533.452	5240
2535.398	5295
2537.342	5228
2539.284	5161
2541.229	5224
2543.173	5225
2545.114	5165
2547.055	5304
2548.996	5213
2550.938	5239
2552.878	5275
2554.817	5184
2556.756	5247
2558.695	5175
2560.633	5283
2562.572	5207
2564.509	5198
2566.445	5271
2568.382	5238
2570.317	5266
2572.254	5236
2574.189	5183
2576.123	5214
2578.057	5290
2579.99	5174
2581.923	5245
2583.855	5148
2585.788	5264
2587.719	5211
2589.65	5256
2591.579	5261
2593.511	5155
2595.44	5323
2597.37	5154
2599.297	5349
2601.225	5264
2603.153	5204
2605.08	5250
2607.007	5292
2608.932	5231
2610.858	5227
2612.782	5220
2614.709	5198
2616.632	5240
2618.556	5247
2620.478	5204
2622.401	5192
2624.324	5346
2626.247	5194
2628.167	5219
2630.088	5200
2632.008	5195
2633.928	5262
2635.848	5213
2637.766	5233
2639.684	5231
2641.603	5280
2643.519	5275
2645.437	5273
2647.353	5170
2649.27	5319
2651.184	5255
2653.099	5238
2655.014	5228
2656.928	5255
2658.842	5404
2660.755	5220
2662.667	5279
2664.579	5292
2666.491	5114
2668.402	5156
2670.312	5239
2672.222	5170
2674.132	5251
2676.042	5112
2677.951	5207
2679.859	5285
2681.766	5222
2683.674	5237
2685.582	5198
2687.488	5169
2689.392	5095
2691.298	5146
2693.202	5178
2695.107	5130
2697.012	5203
2698.914	5145
2700.817	5138
2702.72	5158
2704.622	5201
2706.524	5184
2708.425	5109
2710.326	5136
2712.225	5210
2714.125	5154
2716.024	5178
2717.923	5111
2719.822	5087
2721.719	5170
2723.616	5101
2725.512	5106
2727.41	5136
2729.305	5155
2731.201	5105
2733.095	5128
2734.99	5252
2736.884	5153
2738.778	5120
2740.67	5044
2742.562	5166
2744.455	5194
2746.346	5169
2748.238	5264
2750.129	5138
2752.018	5203
2753.907	5088
2755.797	5133
2757.687	5210
2759.575	5059
2761.462	5083
2763.349	5050
2765.237	5072
2767.124	5079
2769.009	5169
2770.894	5165
2772.779	5168
2774.663	5110
2776.547	5099
2778.431	5086
2780.314	5069
2782.197	5128
2784.078	5108
2785.96	5092
2787.842	5108
2789.723	5066
2791.603	5010
2793.483	5007
2795.362	5024
2797.241	5066
2799.121	5151
2800.997	5188
2802.874	4988
2804.751	5048
2806.628	5138
2808.506	5141
2810.38	5127
2812.255	5047
2814.13	5114
2816.003	5027
2817.878	5008
2819.752	5052
2821.623	5075
2823.496	5089
2825.368	5091
2827.238	5039
2829.111	5088
2830.98	5089
2832.851	5125
2834.719	5084
2836.589	5160
2838.458	5153
2840.327	5016
2842.193	5171
2844.061	5058
2845.927	5102
2847.794	5165
2849.66	5102
2851.525	5036
2853.39	5265
2855.254	5172
2857.117	5231
2858.983	5278
2860.845	5248
2862.707	5220
2864.569	5183
2866.431	5227
2868.293	5360
2870.154	5409
2872.013	5439
2873.873	5455
2875.733	5584
2877.592	5621
2879.451	5607
2881.309	5618
2883.166	5737
2885.022	5884
2886.879	5824
2888.736	5828
2890.591	5811
2892.446	5823
2894.301	5870
2896.155	5862
2898.009	5854
2899.863	5799
2901.716	5870
2903.568	5767
2905.419	5753
2907.27	5696
2909.123	5717
2910.973	5810
2912.824	5854
2914.673	5902
2916.521	6060
2918.372	6037
2920.22	5979
2922.067	5978
2923.914	6170
2925.761	6202
2927.607	6262
2929.455	6434
2931.301	6388
2933.144	6438
2934.99	6549
2936.833	6571
2938.678	6616
2940.522	6571
2942.364	6856
2944.207	6793
2946.048	6897
2947.891	7043
2949.731	6785
2951.571	6915
2953.412	6849
2955.25	6639
2957.09	6669
2958.93	6461
2960.767	6519
2962.606	6422
2964.443	6441
2966.279	6321
2968.116	6345
2969.953	6179
2971.788	6216
2973.623	6156
2975.457	6020
2977.292	6024
2979.127	6002
2980.959	6046
2982.792	5825
2984.624	5923
2986.455	5940
2988.288	5911
2990.119	5805
2991.949	5769
2993.779	5683
2995.608	5685
2997.439	5598
2999.268	5564
3001.096	5396
3002.923	5453
3004.751	5361
3006.578	5382
3008.406	5313
3010.232	5333
3012.057	5206
3013.883	5166
3015.706	5166
3017.532	5135
3019.356	5083
3021.179	5116
3023.002	5055
3024.823	4984
3026.646	4926
3028.469	4893
3030.289	5007
3032.11	4918
3033.93	5036
3035.749	4898
3037.57	4919
3039.39	4930
3041.207	4844
3043.026	4789
3044.842	4896
3046.661	4881
3048.477	4877
3050.294	4918
3052.109	4895
3053.925	4772
3055.739	4754
3057.555	4879
3059.368	4879
3061.181	4865
3062.995	4866
3064.807	4799
3066.62	4881
3068.433	4828
3070.243	4795
3072.054	4875
3073.865	4799
3075.675	4884
3077.485	4812
3079.293	4763
3081.102	4752
3082.911	4791
3084.719	4863
3086.527	4857
3088.333	4757
3090.139	4689
3091.945	4623
3093.75	4758
3095.557	4683
3097.361	4717
3099.165	4749
3100.969	4766
3102.772	4700
3104.575	4760
3106.379	4673
3108.181	4688
3109.982	4662
3111.783	4640
3113.584	4686
3115.386	4684
3117.186	4656
3118.985	4635
3120.783	4670
3122.582	4604
3124.381	4567
3126.179	4667
3127.975	4604
3129.772	4607
3131.569	4645
3133.365	4577
3135.161	4628
3136.956	4616
3138.751	4552
3140.544	4550
3142.338	4570
3144.132	4585
3145.925	4661
3147.717	4556
3149.509	4511
3151.301	4659
3153.091	4593
3154.884	4620
3156.673	4579
3158.462	4716
3160.252	4625
3162.041	4607
3163.831	4609
3165.618	4583
3167.405	4533
3169.193	4585
3170.979	4536
3172.767	4589
3174.553	4551
3176.338	4567
3178.123	4644
3179.907	4609
3181.692	4617
3183.477	4678
3185.259	4599
3187.042	4490
3188.824	4602
3190.607	4622
3192.389	4547
3194.17	4586
3195.951	4519
3197.73	4579
3199.51	4560
3201.289	4577
3203.07	4529
3204.848	4532
3206.626	4601
3208.403	4522
3210.18	4488
3211.959	4590
3213.735	4558
3215.511	4505
3217.285	4599
3219.06	4489
3220.836	4537
3222.611	4639
3224.384	4470
3226.158	4562
3227.929	4488
3229.702	4586
3231.476	4573
3233.248	4662
3235.018	4579
3236.789	4514
3238.56	4475
3240.33	4569
3242.1	4599
3243.869	4559
3245.637	4503
3247.405	4562
3249.172	4549
3250.941	4523
3252.707	4536
3254.474	4611
3256.24	4548
3258.006	4567
3259.772	4594
3261.537	4552
3263.301	4500
3265.065	4469
3266.828	4606
3268.592	4516
3270.355	4531
3272.117	4497
3273.878	4493
3275.64	4523
3277.401	4566
3279.162	4569
3280.922	4505
3282.682	4558
3284.441	4576
3286.199	4525
3287.959	4547
3289.716	4509
3291.475	4539
3293.232	4566
3294.988	4617
3296.744	4592
3298.501	4534
3300.256	4593
3302.011	4639
3303.766	4572
3305.52	4601
3307.275	4620
3309.028	4564
3310.781	4598
3312.533	4499
3314.285	4552
3316.038	4486
3317.789	4548
3319.54	4546
3321.289	4605
3323.039	4633
3324.789	4544
3326.539	4605
3328.288	4578
3330.035	4583
3331.783	4581
3333.531	4538
3335.28	4567
3337.025	4490
3338.771	4580
3340.518	4623
3342.262	4514
3344.009	4550
3345.753	4492
3347.497	4510
3349.24	4470
3350.983	4519
3352.726	4596
3354.469	4472
3356.212	4505
3357.952	4476
3359.694	4398
3361.434	4464
3363.176	4560
3364.916	4512
3366.654	4477
3368.394	4417
3370.132	4485
3371.871	4410
3373.61	4521
3375.346	4458
3377.083	4461
3378.82	4496
3380.556	4413
3382.292	4340
3384.027	4384
3385.763	4420
3387.497	4430
3389.231	4368
3390.965	4414
3392.698	4350
3394.431	4438
3396.164	4369
3397.896	4425
3399.627	4330
3401.36	4357
3403.09	4384
3404.82	4352
3406.55	4314
3408.279	4327
3410.01	4324
3411.738	4329
3413.467	4358
3415.194	4359
3416.92	4379
3418.647	4356
3420.375	4382
3422.102	4299
3423.827	4396
3425.553	4311
3427.277	4328
3429.003	4340
3430.727	4250
3432.451	4293
3434.173	4289
3435.896	4333
3437.62	4238
3439.343	4260
3441.063	4328
3442.785	4152
3444.505	4187
3446.226	4315
3447.948	4295
3449.666	4194
3451.386	4274
3453.104	4247
3454.823	4160
3456.541	4276
3458.259	4167
3459.976	4153
3461.693	4242
3463.408	4229
3465.125	4088
3466.841	4177
3468.556	4161
3470.271	4135
3471.985	4165
3473.698	4110
3475.414	4149
3477.126	4109
3478.838	4038
3480.55	4100
3482.263	3971
3483.975	4083
3485.686	4175
3487.396	4084
3489.106	4016
3490.817	4069
3492.526	4129
3494.236	4035
3495.944	4058
3497.652	4043
3499.359	4075
3501.066	4059
3502.775	4058
3504.481	4033
3506.187	4060
3507.893	4054
3509.598	3967
3511.304	4054
3513.009	4068
3514.713	4001
3516.417	3940
3518.12	4032
3519.821	4040
3521.525	4003
3523.228	3985
3524.929	3939
3526.631	3937
3528.33	3957
3530.032	3991
3531.733	3990
3533.433	3897
3535.131	3899
3536.83	3951
3538.529	3915
3540.227	3859
3541.925	3888
3543.623	3903
3545.319	3855
3547.016	3875
3548.712	3802
3550.408	3859
3552.103	3891
3553.798	3920
3555.491	3860
3557.188	3810
3558.88	3803
3560.574	3789
3562.266	3847
3563.959	3913
3565.651	3887
3567.343	3816
3569.035	3823
3570.725	3899
3572.415	3718
3574.106	3808
3575.797	3801
3577.485	3817
3579.174	3814
3580.863	3824
3582.551	3757
3584.238	3794
3585.926	3718
3587.613	3837
3589.3	3812
3590.986	3739
3592.671	3682
3594.357	3733
3596.042	3843
3597.726	3789
3599.41	3706
3601.094	3709
3602.778	3702
3604.461	3633
3606.143	3666
3607.825	3784
3609.507	3685
3611.188	3725
3612.87	3637
3614.551	3699
3616.229	3663
3617.909	3675
3619.589	3571
3621.269	3677
3622.948	3596
3624.625	3625
3626.302	3614
3627.98	3637
3629.657	3634
3631.334	3548
3633.01	3607
3634.686	3663
3636.361	3515
3638.036	3582
3639.712	3595
3641.385	3558
3643.06	3601
3644.732	3552
3646.405	3515
3648.08	3467
3649.751	3569
3651.424	3457
3653.094	3539
3654.766	3567
3656.436	3507
3658.106	3554
3659.777	3520
3661.446	3525
3663.115	3527
3664.783	3626
3666.452	3541
3668.121	3503
3669.788	3502
3671.454	3493
3673.121	3408
3674.789	3458
3676.455	3456
3678.12	3466
3679.784	3496
3681.45	3436
3683.114	3480
3684.779	3469
3686.442	3448
3688.105	3491
3689.768	3530
3691.43	3426
3693.093	3410
3694.754	3394
3696.415	3505
3698.076	3441
3699.736	3395
3701.396	3426
3703.057	3459
3704.716	3433
3706.375	3406
3708.034	3448
3709.692	3432
3711.351	3411
3713.008	3405
3714.665	3483
3716.321	3399
3717.977	3319
3719.634	3332
3721.29	3423
3722.945	3449
3724.598	3328
3726.253	3427
3727.907	3351
3729.561	3282
3731.214	3364
3732.867	3366
3734.518	3267
3736.171	3372
3737.824	3370
3739.474	3383
3741.125	3405
3742.775	3303
3744.425	3315
3746.074	3361
3747.725	3341
3749.373	3338
3751.022	3333
3752.669	3310
3754.318	3321
3755.966	3280
3757.612	3349
3759.259	3335
3760.905	3237
3762.55	3330
3764.197	3390
3765.842	3362
3767.486	3281
3769.131	3274
3770.774	3307
3772.417	3303
3774.061	3284
3775.705	3344
3777.347	3318
3778.988	3243
3780.629	3276
3782.271	3213
3783.912	3228
3785.552	3329
3787.192	3181
3788.831	3193
3790.472	3222
3792.112	3252
3793.75	3270
3795.388	3242
3797.024	3264
3798.661	3268
3800.3	3244
3801.936	3261
3803.572	3187
3805.208	3156
3806.844	3240
3808.48	3224
3810.115	3155
3811.748	3182
3813.382	3226
3815.016	3212
3816.649	3259
3818.283	3172
3819.914	3179
3821.547	3195
3823.178	3204
3824.809	3134
3826.441	3123
3828.072	3197
3829.701	3194
3831.331	3164
3832.96	3083
3834.591	3215
3836.219	3209
3837.847	3111
3839.475	3218
3841.102	3143
3842.729	3153
3844.357	3242
3845.984	3121
3847.609	3079
3849.234	3101
3850.86	3170
3852.485	3106
3854.11	3179
3855.734	3071
3857.357	3083
3858.981	3214
3860.603	3127
3862.227	3106
3863.848	3054
3865.471	3094
3867.092	3094
3868.713	3094
3870.334	3130
3871.954	3025
3873.575	3100
3875.194	3076
3876.813	3069
3878.433	3106
3880.051	3136
3881.669	3112
3883.286	3136
3884.904	3090
3886.52	3082
3888.138	3064
3889.754	3140
3891.37	3065
3892.985	3035
3894.6	3089
3896.216	3041
3897.831	3076
3899.444	3066
3901.058	3066
3902.67	3015
3904.283	3075
3905.897	2999
3907.509	3105
3909.121	3038
3910.731	3069
3912.342	3061
3913.954	3041
3915.563	3068
3917.174	3053
3918.783	3005
3920.391	3071
3922.002	3073
3923.611	3024
3925.218	3022
3926.826	3031
3928.432	3039
3930.039	3048
3931.647	3012
3933.253	2964
3934.859	2986
3936.464	2932
3938.068	3040
3939.675	3128
3941.278	3012
3942.883	2990
3944.486	2934
3946.089	2997
3947.692	3027
3949.295	3020
3950.898	3002
3952.499	3002
3954.1	2992
3955.7	2926
3957.303	2970
3958.903	2984
3960.502	3051
3962.101	2966
3963.7	2927
3965.301	2987
3966.899	2960
3968.497	2962
3970.094	2945
3971.691	2958
3973.288	2830
3974.885	3010
3976.481	2957
3978.077	2950
3979.672	2851
3981.267	2899
3982.863	2907
3984.457	2941
3986.051	2965
3987.645	2972
3989.238	2933
3990.831	2877
3992.425	2919
3994.017	2942
3995.607	2842
3997.199	2924
3998.79	2909
4000.382	2927
4001.973	2943
4003.561	2957
4005.151	2868
4006.741	2961
4008.331	2900
4009.918	2791
4011.507	2829
4013.095	2838
4014.681	2831
4016.269	2949
4017.856	2773
4019.443	2858
4021.028	2918
4022.614	2764
4024.199	2848
4025.785	2864
4027.37	2734
4028.953	2828
4030.536	2861
4032.12	2801
4033.704	2843
4035.287	2822
4036.869	2882
4038.45	2776
4040.032	2791
4041.613	2746
4043.195	2824
4044.776	2808
4046.356	2803
4047.935	2833
4049.515	2777
4051.095	2753
4052.674	2756
4054.251	2791
4055.829	2772
4057.406	2755
4058.985	2759
4060.562	2749
4062.139	2767
4063.715	2789
4065.29	2787
4066.865	2809
4068.442	2759
4070.016	2741
4071.59	2743
4073.164	2785
4074.738	2781
4076.312	2735
4077.885	2753
4079.458	2752
4081.03	2696
4082.602	2709
4084.173	2755
4085.745	2725
4087.315	2720
4088.886	2809
4090.456	2707
4092.026	2727
4093.596	2753
4095.165	2721
4096.734	2679
4098.301	2721
4099.869	2713
4101.437	2656
4103.006	2654
4104.572	2699
4106.139	2702
4107.704	2711
4109.27	2659
4110.837	2700
4112.401	2735
4113.966	2743
4115.53	2668
4117.094	2632
4118.659	2716
4120.223	2678
4121.785	2706
4123.347	2720
4124.909	2618
4126.471	2659
4128.034	2569
4129.595	2582
4131.155	2635
4132.716	2676
4134.275	2686
4135.836	2599
4137.395	2629
4138.955	2590
4140.513	2649
4142.071	2676
4143.628	2618
4145.188	2604
4146.745	2624
4148.302	2570
4149.858	2562
4151.414	2671
4152.971	2615
4154.526	2608
4156.081	2554
4157.635	2651
4159.189	2640
4160.745	2566
4162.298	2590
4163.852	2555
4165.405	2546
4166.957	2601
4168.51	2575
4170.063	2533
4171.614	2632
4173.166	2599
4174.717	2530
4176.267	2586
4177.817	2534
4179.368	2534
4180.917	2603
4182.466	2525
4184.016	2650
4185.564	2578
4187.112	2500
4188.66	2515
4190.207	2522
4191.754	2558
4193.301	2604
4194.848	2458
4196.394	2507
4197.94	2471
4199.484	2493
4201.03	2520
4202.575	2570
4204.12	2493
4205.663	2483
4207.207	2579
4208.75	2483
4210.292	2523
4211.836	2486
4213.378	2492
4214.92	2446
4216.46	2545
4218.002	2451
4219.544	2442
4221.083	2483
4222.625	2520
4224.164	2481
4225.703	2505
4227.244	2439
4228.782	2416
4230.32	2488
4231.857	2464
4233.395	2495
4234.933	2515
4236.471	2404
4238.007	2417
4239.542	2513
4241.078	2469
4242.614	2458
4244.15	2504
4245.685	2491
4247.219	2447
4248.753	2479
4250.287	2462
4251.82	2436
4253.354	2507
4254.887	2463
4256.419	2484
4257.951	2497
4259.483	2374
4261.016	2420
4262.547	2354
4264.078	2436
4265.608	2432
4267.137	2423
4268.668	2476
4270.197	2419
4271.727	2394
4273.254	2430
4274.783	2437
4276.311	2456
4277.84	2344
4279.366	2397
4280.894	2406
4282.42	2483
4283.946	2431
4285.473	2441
4286.998	2413
4288.523	2354
4290.047	2383
4291.572	2358
4293.096	2412
4294.622	2325
4296.144	2365
4297.668	2315
4299.19	2327
4300.713	2363
4302.236	2413
4303.758	2337
4305.279	2353
4306.799	2320
4308.321	2340
4309.842	2390
4311.361	2329
4312.882	2317
4314.401	2304
