400.0961	2716
402.6185	2731
405.1424	2776
407.6635	2757
410.1838	2789
412.7035	2808
415.2225	2769
417.7388	2784
420.2585	2897
422.7754	2894
425.2917	2803
427.8072	2887
430.3221	2900
432.8363	2950
435.3498	2921
437.8626	2912
440.3727	2955
442.8841	2934
445.3969	2940
447.907	2906
450.4142	2944
452.9229	2919
455.4289	2941
457.9362	2853
460.4449	2942
462.9488	2872
465.454	2857
467.9566	2906
470.4604	2936
472.9637	2811
475.4662	2942
477.966	2818
480.4671	2864
482.9656	2840
485.4633	2865
487.9645	2960
490.4608	2865
492.9566	2890
495.4536	2838
497.948	2878
500.4437	2946
502.9387	2935
505.431	2844
507.9226	2935
510.4136	3010
512.9079	2964
515.3975	2932
517.8864	3006
520.3746	2920
522.8622	2984
525.3491	3005
527.8394	2961
530.3249	2877
532.8098	2955
535.2939	2958
537.7774	3006
540.2623	2951
542.7444	2927
545.2259	3020
547.7067	3000
550.1868	2952
552.6683	2994
555.147	3012
557.6231	2980
560.1005	3000
562.5773	3081
565.0534	3053
567.5308	2998
570.0056	3094
572.4776	3085
574.951	3041
577.4237	3073
579.8978	3069
582.3671	3156
584.8378	3111
587.3079	3067
589.7773	3202
592.244	3121
594.714	3141
597.1793	3061
599.6461	3086
602.1121	3052
604.5754	3166
607.0421	3084
609.5042	3097
611.9675	3094
614.4282	2981
616.8902	3110
619.3515	3133
621.8122	3033
624.2702	3003
626.7296	3022
629.1863	2977
631.6423	3008
634.1017	3046
636.5563	3004
639.0104	3013
641.4658	3080
643.9185	3068
646.3725	3057
648.8239	3065
651.2766	3087
653.7266	3148
656.176	3037
658.6247	3106
661.0748	3078
663.5242	3076
665.9709	3098
668.417	3032
670.8624	3136
673.3092	3050
675.7533	3124
678.1968	3065
680.6395	3178
683.0817	3142
685.5251	3137
687.9659	3137
690.4061	3170
692.8456	3106
695.2844	3140
697.7226	3129
700.1621	3151
702.599	3188
705.0332	3181
707.4688	3179
709.9036	3172
712.3399	3188
714.7735	3112
717.2044	3153
719.6367	3235
722.0683	3206
724.4993	3224
726.9296	3303
729.3593	3219
731.7883	3322
734.2147	3256
736.6423	3199
739.0714	3304
741.4958	3250
743.9216	3261
746.3447	3320
748.7691	3280
751.1929	3328
753.616	3291
756.0366	3265
758.4584	3369
760.8776	3353
763.2982	3337
765.718	3380
768.1373	3346
770.5539	3333
772.9698	3398
775.3871	3334
777.8038	3415
780.2178	3340
782.6332	3392
785.0459	3376
787.458	3431
789.8714	3269
792.2842	3436
794.6943	3342
797.1038	3345
799.5127	3315
801.9209	3286
804.3324	3370
806.7393	3389
809.1456	3429
811.5513	3389
813.9562	3377
816.3625	3387
818.7663	3437
821.1693	3402
823.5718	3468
825.9735	3467
828.3746	3354
830.7771	3375
833.177	3421
835.5762	3487
837.9747	3425
840.3727	3446
842.772	3437
845.1666	3499
847.5626	3519
849.958	3539
852.3527	3513
854.7488	3490
857.1403	3533
859.5331	3502
861.9253	3513
864.3168	3502
866.7057	3496
869.098	3571
871.4876	3474
873.8746	3512
876.263	3504
878.6487	3513
881.0378	3526
883.4243	3581
885.8081	3474
888.1933	3453
890.5759	3465
892.9598	3489
895.343	3488
897.7256	3486
900.1057	3494
902.4871	3552
904.8659	3540
907.246	3488
909.6254	3494
912.0023	3495
914.3786	3626
916.7562	3596
919.1331	3564
921.5074	3674
923.8831	3682
926.2562	3778
928.6287	3721
931.0005	3754
933.3757	3702
935.7462	3746
938.1162	3729
940.4855	3779
942.8542	3834
945.2242	3865
947.5916	3926
949.9584	4046
952.3266	4203
954.6921	4429
957.0571	4652
959.4233	4734
961.787	4741
964.15	4849
966.5125	4601
968.8742	4380
971.2354	4276
973.5959	4024
975.9559	3838
978.3151	3784
980.6738	3772
983.0338	3765
985.3912	3611
987.7461	3697
990.1022	3686
992.4578	3562
994.8127	3603
997.1689	3668
999.5207	3641
1001.874	3643
1004.226	3710
1006.576	3608
1008.929	3679
1011.28	3670
1013.628	3544
1015.977	3715
1018.324	3579
1020.674	3663
1023.019	3619
1025.366	3617
1027.713	3693
1030.056	3737
1032.399	3757
1034.746	3647
1037.087	3766
1039.431	3716
1041.771	3748
1044.113	3657
1046.454	3760
1048.793	3707
1051.133	3769
1053.471	3691
1055.807	3749
1058.146	3821
1060.483	3635
1062.818	3835
1065.153	3784
1067.489	3789
1069.822	3856
1072.156	3873
1074.488	3844
1076.82	3852
1079.15	3787
1081.48	3770
1083.814	3722
1086.143	3773
1088.471	3764
1090.799	3757
1093.126	3673
1095.452	3693
1097.78	3796
1100.105	3727
1102.43	3722
1104.754	3644
1107.077	3780
1109.4	3729
1111.722	3764
1114.044	3649
1116.365	3784
1118.685	3767
1121.005	3669
1123.324	3702
1125.643	3726
1127.961	3701
1130.278	3713
1132.595	3701
1134.911	3778
1137.226	3672
1139.541	3632
1141.854	3598
1144.167	3747
1146.482	3693
1148.793	3655
1151.105	3649
1153.414	3739
1155.725	3752
1158.033	3700
1160.344	3689
1162.651	3717
1164.959	3704
1167.265	3736
1169.572	3715
1171.878	3716
1174.184	3692
1176.488	3728
1178.79	3738
1181.094	3703
1183.396	3799
1185.699	3719
1188.001	3714
1190.301	3692
1192.6	3734
1194.9	3769
1197.2	3737
1199.497	3699
1201.794	3716
1204.09	3777
1206.387	3795
1208.684	3847
1210.978	3774
1213.272	3748
1215.565	3705
1217.858	3844
1220.15	3761
1222.443	3840
1224.734	3701
1227.024	3803
1229.313	3903
1231.602	3853
1233.892	3803
1236.18	3822
1238.467	3945
1240.754	3882
1243.04	3902
1245.325	3972
1247.612	3919
1249.896	3920
1252.178	3960
1254.461	3958
1256.743	3864
1259.027	3928
1261.308	3838
1263.587	3938
1265.867	3972
1268.146	3934
1270.425	3908
1272.703	3910
1274.981	3984
1277.256	3903
1279.532	3909
1281.808	3896
1284.083	3772
1286.358	3943
1288.63	3834
1290.904	3853
1293.175	3847
1295.449	3863
1297.719	3970
1299.99	3872
1302.259	3816
1304.529	3821
1306.798	3918
1309.065	3825
1311.333	3914
1313.599	3847
1315.866	3877
1318.131	3840
1320.396	3902
1322.66	3867
1324.925	3869
1327.187	3873
1329.448	3874
1331.711	3874
1333.974	3881
1336.234	3838
1338.493	3832
1340.752	3807
1343.01	3781
1345.269	3874
1347.526	3877
1349.784	3809
1352.04	3823
1354.295	3808
1356.552	3863
1358.806	3846
1361.059	3783
1363.312	3827
1365.564	3777
1367.818	3890
1370.069	3882
1372.318	3859
1374.568	3919
1376.817	3920
1379.066	3859
1381.316	3907
1383.564	3839
1385.809	3881
1388.056	3880
1390.301	3865
1392.549	3853
1394.793	4065
1397.036	3999
1399.279	4053
1401.522	4049
1403.763	3978
1406.007	4033
1408.248	3978
1410.487	4026
1412.727	3961
1414.965	4020
1417.205	4045
1419.442	3968
1421.68	3976
1423.915	4045
1426.152	4001
1428.388	4030
1430.623	4041
1432.857	4040
1435.091	3960
1437.323	4028
1439.556	4108
1441.789	4137
1444.019	4113
1446.25	4084
1448.48	4007
1450.708	4169
1452.938	4183
1455.167	4195
1457.394	4105
1459.62	4197
1461.846	4092
1464.073	4092
1466.299	4137
1468.523	3983
1470.746	4021
1472.969	4045
1475.191	3950
1477.415	3999
1479.636	3920
1481.858	3981
1484.078	3923
1486.298	3891
1488.518	3857
1490.736	3928
1492.954	3863
1495.169	3800
1497.386	3870
1499.602	3950
1501.819	3846
1504.034	3896
1506.248	3823
1508.462	3826
1510.675	3800
1512.888	3810
1515.1	3822
1517.311	3909
1519.522	3902
1521.732	3827
1523.942	3814
1526.151	3746
1528.36	3860
1530.566	3793
1532.773	3824
1534.98	3857
1537.187	3841
1539.392	3866
1541.596	3858
1543.801	3853
1546.005	3944
1548.208	3894
1550.411	3885
1552.612	3868
1554.814	3838
1557.013	3986
1559.212	3966
1561.414	3886
1563.612	4039
1565.811	3934
1568.007	3932
1570.203	3954
1572.403	3931
1574.598	4035
1576.792	3973
1578.988	3994
1581.181	3961
1583.376	3913
1585.568	3914
1587.761	3966
1589.952	3962
1592.143	3926
1594.333	3974
1596.524	3996
1598.715	4039
1600.903	4012
1603.091	3942
1605.278	4005
1607.466	4050
1609.652	4078
1611.838	3992
1614.023	3989
1616.207	4043
1618.391	3948
1620.576	4090
1622.759	3967
1624.941	4066
1627.123	3992
1629.304	4133
1631.484	4083
1633.664	4136
1635.844	4088
1638.022	4065
1640.201	4095
1642.38	4089
1644.556	4082
1646.732	4103
1648.908	3937
1651.084	4113
1653.257	4067
1655.433	4117
1657.607	4084
1659.779	4159
1661.951	4063
1664.122	4127
1666.295	4061
1668.467	4129
1670.635	4087
1672.805	4220
1674.973	4134
1677.142	4065
1679.31	4134
1681.478	4137
1683.644	4143
1685.81	4146
1687.975	4100
1690.142	4195
1692.305	4047
1694.468	4025
1696.632	4087
1698.794	4065
1700.957	4064
1703.119	4095
1705.279	4050
1707.439	4051
1709.598	4006
1711.758	4003
1713.917	4037
1716.075	4061
1718.231	4015
1720.388	3953
1722.543	3866
1724.702	4070
1726.856	4017
1729.01	4004
1731.164	3930
1733.317	4061
1735.471	3971
1737.623	3964
1739.774	3957
1741.925	4030
1744.075	3930
1746.225	3936
1748.376	3962
1750.524	4049
1752.672	4038
1754.82	3966
1756.965	4090
1759.113	3995
1761.259	4026
1763.405	3922
1765.549	4040
1767.694	3967
1769.836	4029
1771.981	3990
1774.123	4005
1776.264	4099
1778.405	3985
1780.546	3974
1782.687	4032
1784.827	4031
1786.966	3989
1789.103	4017
1791.242	3998
1793.381	3994
1795.517	3996
1797.653	4027
1799.788	3998
1801.923	4076
1804.057	4036
1806.193	3957
1808.326	4074
1810.457	4025
1812.59	4034
1814.721	4061
1816.855	4043
1818.984	4067
1821.113	4072
1823.244	4010
1825.372	4076
1827.499	3902
1829.63	4077
1831.756	4008
1833.882	4015
1836.007	3985
1838.132	4066
1840.26	4076
1842.384	3971
1844.507	4035
1846.63	4046
1848.752	3977
1850.875	3995
1852.996	4002
1855.118	3991
1857.238	3948
1859.358	4020
1861.477	3988
1863.597	3996
1865.715	4015
1867.832	4020
1869.948	3922
1872.064	4001
1874.181	4025
1876.297	3953
1878.411	4014
1880.526	4018
1882.639	4002
1884.752	4099
1886.865	4055
1888.977	4044
1891.089	4017
1893.2	4043
1895.308	4009
1897.42	3998
1899.53	4057
1901.639	4007
1903.745	4024
1905.853	4061
1907.962	3981
1910.067	4117
1912.174	4036
1914.278	4124
1916.383	4075
1918.486	4013
1920.592	3991
1922.694	4026
1924.797	4085
1926.898	4014
1929	4208
1931.102	4088
1933.203	4071
1935.301	4114
1937.401	4079
1939.499	3964
1941.598	4128
1943.697	4079
1945.793	3971
1947.888	4054
1949.985	4083
1952.08	4067
1954.176	4122
1956.269	4021
1958.364	4061
1960.457	4025
1962.549	4015
1964.642	4076
1966.733	3995
1968.823	4033
1970.913	4085
1973.005	4075
1975.093	4050
1977.184	4020
1979.271	4093
1981.359	4099
1983.446	4050
1985.532	4051
1987.619	4079
1989.705	4104
1991.789	3972
1993.874	3985
1995.956	4047
1998.041	4068
2000.123	4030
2002.206	4072
2004.287	4051
2006.368	4025
2008.449	4014
2010.529	4148
2012.609	4054
2014.688	4045
2016.766	4065
2018.843	4095
2020.922	4012
2022.999	4039
2025.074	4038
2027.15	4040
2029.225	3987
2031.299	4040
2033.375	4098
2035.447	3996
2037.52	4079
2039.592	4066
2041.664	4128
2043.736	4012
2045.807	4025
2047.876	4021
2049.947	4025
2052.015	4054
2054.086	4048
2056.153	4025
2058.221	4074
2060.288	4007
2062.353	4067
2064.42	3972
2066.486	4024
2068.55	4143
2070.614	4023
2072.678	4067
2074.741	4098
2076.805	4065
2078.866	4024
2080.929	4016
2082.99	4077
2085.049	4130
2087.109	4029
2089.17	4055
2091.228	4104
2093.286	3957
2095.344	4082
2097.4	4079
2099.46	4048
2101.516	4007
2103.572	4062
2105.626	4009
2107.679	4054
2109.735	4032
2111.788	4074
2113.841	4129
2115.894	4044
2117.945	4005
2119.997	3999
2122.049	4108
2124.1	4052
2126.148	3994
2128.197	4117
2130.246	4014
2132.296	4078
2134.342	4022
2136.39	3991
2138.437	4028
2140.483	3944
2142.527	4052
2144.574	4012
2146.619	3988
2148.661	4075
2150.705	4021
2152.747	4023
2154.792	4012
2156.832	4079
2158.874	4000
2160.915	3983
2162.954	3998
2164.995	4111
2167.034	4019
2169.072	3954
2171.111	4065
2173.148	3970
2175.186	3974
2177.223	3949
2179.258	3989
2181.294	3981
2183.328	3950
2185.362	3968
2187.398	3937
2189.431	3989
2191.463	4026
2193.495	4023
2195.528	3965
2197.56	4004
2199.59	4013
2201.62	3989
2203.649	3986
2205.678	3963
2207.708	4008
2209.737	3921
2211.764	3962
2213.791	3979
2215.817	3954
2217.843	3969
2219.87	4006
2221.895	4045
2223.919	3882
2225.942	4002
2227.966	3927
2229.988	3949
2232.012	3970
2234.032	4027
2236.054	4011
2238.074	3964
2240.095	3980
2242.116	3956
2244.135	3989
2246.153	3963
2248.171	3995
2250.188	3967
2252.208	3886
2254.223	3904
2256.239	4014
2258.255	3952
2260.269	3903
2262.283	3957
2264.3	3903
2266.312	3908
2268.325	3982
2270.336	3977
2272.349	3976
2274.362	3987
2276.372	3904
2278.383	3946
2280.392	3917
2282.402	4011
2284.409	4039
2286.418	3982
2288.427	3926
2290.433	3954
2292.441	3970
2294.446	3909
2296.453	3921
2298.459	3919
2300.463	3969
2302.466	4035
2304.471	3978
2306.475	3904
2308.477	3854
2310.478	3964
2312.481	4090
2314.481	3934
2316.481	3995
2318.482	3918
2320.482	3991
2322.48	3945
2324.48	4043
2326.478	3962
2328.476	3849
2330.473	3973
2332.469	3905
2334.465	3922
2336.46	3958
2338.454	3914
2340.45	3830
2342.444	3855
2344.437	3853
2346.43	3882
2348.421	3901
2350.414	3891
2352.405	3918
2354.396	3843
2356.386	3907
2358.376	3959
2360.366	3912
2362.355	3850
2364.343	3978
2366.331	3879
2368.317	3880
2370.304	3831
2372.292	3908
2374.278	3933
2376.262	3935
2378.247	3876
2380.23	3924
2382.216	3896
2384.199	3849
2386.181	3844
2388.163	3814
2390.144	3855
2392.127	3890
2394.107	3912
2396.087	3792
2398.066	3888
2400.046	3907
2402.023	3798
2404.004	3885
2405.981	3875
2407.957	3867
2409.934	3781
2411.91	3776
2413.886	3830
2415.862	3808
2417.836	3851
2419.809	3942
2421.784	3848
2423.756	3828
2425.73	3796
2427.701	3777
2429.672	3879
2431.644	3875
2433.615	3836
2435.586	3817
2437.555	3867
2439.523	3894
2441.491	3967
2443.459	3883
2445.428	3893
2447.395	3827
2449.361	3739
2451.327	3867
2453.292	3848
2455.257	3833
2457.223	3771
2459.187	3755
2461.15	3865
2463.113	3826
2465.076	3833
2467.039	3849
2468.999	3917
2470.96	3811
2472.921	3747
2474.881	3769
2476.841	3814
2478.8	3704
2480.759	3887
2482.717	3767
2484.675	3891
2486.63	3810
2488.589	3759
2490.545	3765
2492.5	3758
2494.455	3789
2496.408	3767
2498.364	3826
2500.318	3787
2502.27	3758
2504.223	3786
2506.174	3819
2508.126	3782
2510.078	3700
2512.03	3817
2513.979	3787
2515.927	3787
2517.877	3878
2519.826	3847
2521.775	3813
2523.722	3796
2525.668	3825
2527.616	3780
2529.561	3733
2531.508	3704
2533.452	3805
2535.398	3810
2537.342	3738
2539.284	3782
2541.229	3883
2543.173	3781
2545.114	3716
2547.055	3719
2548.996	3709
2550.938	3762
2552.878	3753
2554.817	3702
2556.756	3726
2558.695	3737
2560.633	3746
2562.572	3740
2564.509	3730
2566.445	3743
2568.382	3708
2570.317	3810
2572.254	3716
2574.189	3853
2576.123	3715
2578.057	3758
2579.99	3756
2581.923	3714
2583.855	3838
2585.788	3874
2587.719	3847
2589.65	3825
2591.579	3831
2593.511	3789
2595.44	3764
2597.37	3798
2599.297	3756
2601.225	3767
2603.153	3797
2605.08	3772
2607.007	3726
2608.932	3788
2610.858	3823
2612.782	3758
2614.709	3731
2616.632	3768
2618.556	3761
2620.478	3762
2622.401	3853
2624.324	3728
2626.247	3743
2628.167	3830
2630.088	3886
2632.008	3757
2633.928	3795
2635.848	3753
2637.766	3756
2639.684	3782
2641.603	3724
2643.519	3791
2645.437	3747
2647.353	3765
2649.27	3759
2651.184	3800
2653.099	3709
2655.014	3751
2656.928	3863
2658.842	3835
2660.755	3791
2662.667	3851
2664.579	3783
2666.491	3785
2668.402	3802
2670.312	3793
2672.222	3813
2674.132	3661
2676.042	3735
2677.951	3746
2679.859	3825
2681.766	3770
2683.674	3790
2685.582	3748
2687.488	3738
2689.392	3729
2691.298	3773
2693.202	3724
2695.107	3789
2697.012	3708
2698.914	3766
2700.817	3736
2702.72	3816
2704.622	3680
2706.524	3753
2708.425	3699
2710.326	3698
2712.225	3669
2714.125	3746
2716.024	3690
2717.923	3735
2719.822	3702
2721.719	3700
2723.616	3753
2725.512	3650
2727.41	3767
2729.305	3699
2731.201	3681
2733.095	3762
2734.99	3628
2736.884	3757
2738.778	3721
2740.67	3690
2742.562	3709
2744.455	3670
2746.346	3739
2748.238	3730
2750.129	3719
2752.018	3681
2753.907	3734
2755.797	3695
2757.687	3730
2759.575	3715
2761.462	3772
2763.349	3698
2765.237	3642
2767.124	3704
2769.009	3693
2770.894	3645
2772.779	3729
2774.663	3705
2776.547	3644
2778.431	3723
2780.314	3707
2782.197	3667
2784.078	3741
2785.96	3649
2787.842	3675
2789.723	3644
2791.603	3684
2793.483	3613
2795.362	3650
2797.241	3685
2799.121	3658
2800.997	3684
2802.874	3747
2804.751	3570
2806.628	3633
2808.506	3773
2810.38	3654
2812.255	3697
2814.13	3686
2816.003	3632
2817.878	3591
2819.752	3655
2821.623	3701
2823.496	3770
2825.368	3685
2827.238	3661
2829.111	3793
2830.98	3688
2832.851	3648
2834.719	3631
2836.589	3681
2838.458	3750
2840.327	3679
2842.193	3625
2844.061	3740
2845.927	3711
2847.794	3764
2849.66	3705
2851.525	3663
2853.39	3755
2855.254	3832
2857.117	3774
2858.983	3763
2860.845	3796
2862.707	3763
2864.569	3772
2866.431	3878
2868.293	3849
2870.154	3855
2872.013	3931
2873.873	3938
2875.733	4000
2877.592	4048
2879.451	4086
2881.309	4077
2883.166	3961
2885.022	4140
2886.879	4147
2888.736	4089
2890.591	4103
2892.446	4151
2894.301	4167
2896.155	4121
2898.009	4181
2899.863	4163
2901.716	4038
2903.568	4099
2905.419	4055
2907.27	4178
2909.123	4182
2910.973	4091
2912.824	4206
2914.673	4210
2916.521	4242
2918.372	4311
2920.22	4319
2922.067	4323
2923.914	4365
2925.761	4388
2927.607	4420
2929.455	4485
2931.301	4496
2933.144	4479
2934.99	4615
2936.833	4569
2938.678	4682
2940.522	4582
2942.364	4746
2944.207	4804
2946.048	4952
2947.891	4901
2949.731	4738
2951.571	4758
2953.412	4826
2955.25	4844
2957.09	4684
2958.93	4657
2960.767	4655
2962.606	4466
2964.443	4595
2966.279	4479
2968.116	4510
2969.953	4403
2971.788	4407
2973.623	4290
2975.457	4235
2977.292	4336
2979.127	4212
2980.959	4181
2982.792	4140
2984.624	4168
2986.455	4205
2988.288	4170
2990.119	4081
2991.949	4068
2993.779	4011
2995.608	3989
2997.439	3951
2999.268	3954
3001.096	3915
3002.923	3902
3004.751	3953
3006.578	3869
3008.406	3772
3010.232	3694
3012.057	3804
3013.883	3737
3015.706	3698
3017.532	3696
3019.356	3714
3021.179	3632
3023.002	3655
3024.823	3679
3026.646	3683
3028.469	3657
3030.289	3624
3032.11	3538
3033.93	3617
3035.749	3542
3037.57	3610
3039.39	3536
3041.207	3543
3043.026	3557
3044.842	3531
3046.661	3567
3048.477	3484
3050.294	3601
3052.109	3442
3053.925	3543
3055.739	3493
3057.555	3569
3059.368	3566
3061.181	3552
3062.995	3599
3064.807	3442
3066.62	3483
3068.433	3537
3070.243	3574
3072.054	3563
3073.865	3497
3075.675	3522
3077.485	3413
3079.293	3544
3081.102	3543
3082.911	3530
3084.719	3410
3086.527	3513
3088.333	3516
3090.139	3454
3091.945	3424
3093.75	3446
3095.557	3444
3097.361	3527
3099.165	3446
3100.969	3507
3102.772	3445
3104.575	3421
3106.379	3435
3108.181	3437
3109.982	3470
3111.783	3400
3113.584	3382
3115.386	3421
3117.186	3379
3118.985	3447
3120.783	3405
3122.582	3366
3124.381	3384
3126.179	3380
3127.975	3325
3129.772	3410
3131.569	3396
3133.365	3324
3135.161	3330
3136.956	3385
3138.751	3292
3140.544	3353
3142.338	3370
3144.132	3362
3145.925	3360
3147.717	3371
3149.509	3401
3151.301	3349
3153.091	3421
3154.884	3401
3156.673	3302
3158.462	3315
3160.252	3261
3162.041	3311
3163.831	3339
3165.618	3281
3167.405	3322
3169.193	3306
3170.979	3312
3172.767	3344
3174.553	3318
3176.338	3296
3178.123	3269
3179.907	3317
3181.692	3339
3183.477	3334
3185.259	3348
3187.042	3277
3188.824	3379
3190.607	3250
3192.389	3227
3194.17	3352
3195.951	3312
3197.73	3257
3199.51	3383
3201.289	3348
3203.07	3298
3204.848	3374
3206.626	3291
3208.403	3278
3210.18	3329
3211.959	3390
3213.735	3355
3215.511	3362
3217.285	3283
3219.06	3265
3220.836	3275
3222.611	3395
3224.384	3334
3226.158	3341
3227.929	3265
3229.702	3311
3231.476	3331
3233.248	3281
3235.018	3277
3236.789	3295
3238.56	3283
3240.33	3358
3242.1	3306
3243.869	3304
3245.637	3302
3247.405	3264
3249.172	3370
3250.941	3339
3252.707	3331
3254.474	3275
3256.24	3326
3258.006	3260
3259.772	3350
3261.537	3269
3263.301	3393
3265.065	3296
3266.828	3333
3268.592	3370
3270.355	3301
3272.117	3389
3273.878	3352
3275.64	3368
3277.401	3299
3279.162	3365
3280.922	3344
3282.682	3331
3284.441	3382
3286.199	3378
3287.959	3320
3289.716	3266
3291.475	3414
3293.232	3323
3294.988	3346
3296.744	3378
3298.501	3345
3300.256	3321
3302.011	3386
3303.766	3353
3305.52	3338
3307.275	3376
3309.028	3315
3310.781	3259
3312.533	3270
3314.285	3339
3316.038	3280
3317.789	3289
3319.54	3366
3321.289	3328
3323.039	3334
3324.789	3334
3326.539	3290
3328.288	3328
3330.035	3379
3331.783	3295
3333.531	3240
3335.28	3350
3337.025	3287
3338.771	3344
3340.518	3319
3342.262	3338
3344.009	3283
3345.753	3326
3347.497	3269
3349.24	3240
3350.983	3274
3352.726	3312
3354.469	3283
3356.212	3323
3357.952	3287
3359.694	3263
3361.434	3294
3363.176	3216
3364.916	3291
3366.654	3271
3368.394	3249
3370.132	3331
3371.871	3269
3373.61	3199
3375.346	3206
3377.083	3229
3378.82	3188
3380.556	3215
3382.292	3258
3384.027	3214
3385.763	3195
3387.497	3199
3389.231	3203
3390.965	3227
3392.698	3223
3394.431	3208
3396.164	3229
3397.896	3201
3399.627	3165
3401.36	3219
3403.09	3221
3404.82	3209
3406.55	3255
3408.279	3162
3410.01	3155
3411.738	3222
3413.467	3189
3415.194	3267
3416.92	3212
3418.647	3202
3420.375	3132
3422.102	3118
3423.827	3166
3425.553	3142
3427.277	3198
3429.003	3186
3430.727	3093
3432.451	3180
3434.173	3131
3435.896	3103
3437.62	3121
3439.343	3148
3441.063	3110
3442.785	3155
3444.505	3148
3446.226	3101
3447.948	3121
3449.666	3125
3451.386	3104
3453.104	3092
3454.823	3147
3456.541	3034
3458.259	3107
3459.976	3119
3461.693	3069
3463.408	3079
3465.125	3043
3466.841	3086
3468.556	3028
3470.271	3055
3471.985	3075
3473.698	3087
3475.414	3101
3477.126	3082
3478.838	3014
3480.55	3033
3482.263	2994
3483.975	3041
3485.686	3036
3487.396	2999
3489.106	2999
3490.817	2982
3492.526	3029
3494.236	2930
3495.944	3004
3497.652	3004
3499.359	3009
3501.066	2952
3502.775	2957
3504.481	2980
3506.187	2900
3507.893	2973
3509.598	2968
3511.304	2952
3513.009	3028
3514.713	2980
3516.417	2915
3518.12	2962
3519.821	2914
3521.525	2885
3523.228	2956
3524.929	2924
3526.631	2912
3528.33	2891
3530.032	2918
3531.733	2880
3533.433	2940
3535.131	2882
3536.83	2923
3538.529	2900
3540.227	2919
3541.925	2901
3543.623	2859
3545.319	2869
3547.016	2942
3548.712	2881
3550.408	2934
3552.103	2790
3553.798	2911
3555.491	2864
3557.188	2841
3558.88	2906
3560.574	2859
3562.266	2919
3563.959	2915
3565.651	2820
3567.343	2827
3569.035	2821
3570.725	2838
3572.415	2813
3574.106	2840
3575.797	2850
3577.485	2835
3579.174	2823
3580.863	2827
3582.551	2801
3584.238	2798
3585.926	2798
3587.613	2818
3589.3	2820
3590.986	2762
3592.671	2775
3594.357	2799
3596.042	2809
3597.726	2778
3599.41	2806
3601.094	2759
3602.778	2770
3604.461	2688
3606.143	2807
3607.825	2742
3609.507	2721
3611.188	2690
3612.87	2691
3614.551	2737
3616.229	2723
3617.909	2714
3619.589	2672
3621.269	2793
3622.948	2719
3624.625	2713
3626.302	2717
3627.98	2700
3629.657	2649
3631.334	2694
3633.01	2690
3634.686	2706
3636.361	2637
3638.036	2738
3639.712	2646
3641.385	2706
3643.06	2722
3644.732	2686
3646.405	2640
3648.08	2640
3649.751	2625
3651.424	2626
3653.094	2654
3654.766	2674
3656.436	2696
3658.106	2677
3659.777	2596
3661.446	2596
3663.115	2670
3664.783	2590
3666.452	2644
3668.121	2621
3669.788	2647
3671.454	2589
3673.121	2624
3674.789	2661
3676.455	2599
3678.12	2615
3679.784	2589
3681.45	2648
3683.114	2671
3684.779	2608
3686.442	2534
3688.105	2652
3689.768	2653
3691.43	2630
3693.093	2581
3694.754	2620
3696.415	2521
3698.076	2550
3699.736	2555
3701.396	2601
3703.057	2583
3704.716	2503
3706.375	2593
3708.034	2591
3709.692	2502
3711.351	2532
3713.008	2614
3714.665	2571
3716.321	2592
3717.977	2551
3719.634	2564
3721.29	2540
3722.945	2596
3724.598	2478
3726.253	2552
3727.907	2600
3729.561	2563
3731.214	2562
3732.867	2506
3734.518	2451
3736.171	2566
3737.824	2522
3739.474	2467
3741.125	2526
3742.775	2490
3744.425	2585
3746.074	2462
3747.725	2529
3749.373	2531
3751.022	2498
3752.669	2472
3754.318	2569
3755.966	2519
3757.612	2516
3759.259	2513
3760.905	2508
3762.55	2491
3764.197	2497
3765.842	2459
3767.486	2496
3769.131	2443
3770.774	2570
3772.417	2502
3774.061	2499
3775.705	2477
3777.347	2513
3778.988	2559
3780.629	2519
3782.271	2492
3783.912	2500
3785.552	2475
3787.192	2420
3788.831	2479
3790.472	2429
3792.112	2462
3793.75	2448
3795.388	2491
3797.024	2426
3798.661	2437
3800.3	2447
3801.936	2434
3803.572	2490
3805.208	2456
3806.844	2412
3808.48	2427
3810.115	2456
3811.748	2391
3813.382	2458
3815.016	2427
3816.649	2377
3818.283	2458
3819.914	2484
3821.547	2378
3823.178	2394
3824.809	2457
3826.441	2411
3828.072	2355
3829.701	2381
3831.331	2347
3832.96	2388
3834.591	2432
3836.219	2369
3837.847	2413
3839.475	2371
3841.102	2344
3842.729	2415
3844.357	2327
3845.984	2330
3847.609	2427
3849.234	2431
3850.86	2325
3852.485	2366
3854.11	2355
3855.734	2415
3857.357	2408
3858.981	2338
3860.603	2342
3862.227	2362
3863.848	2365
3865.471	2372
3867.092	2349
3868.713	2380
3870.334	2439
3871.954	2354
3873.575	2376
3875.194	2358
3876.813	2327
3878.433	2386
3880.051	2390
3881.669	2319
3883.286	2307
3884.904	2290
3886.52	2391
3888.138	2358
3889.754	2327
3891.37	2353
3892.985	2357
3894.6	2383
3896.216	2341
3897.831	2317
3899.444	2314
3901.058	2321
3902.67	2294
3904.283	2271
3905.897	2350
3907.509	2318
3909.121	2390
3910.731	2276
3912.342	2263
3913.954	2355
3915.563	2364
3917.174	2387
3918.783	2348
3920.391	2306
3922.002	2351
3923.611	2292
3925.218	2244
3926.826	2336
3928.432	2289
3930.039	2294
3931.647	2321
3933.253	2307
3934.859	2354
3936.464	2326
3938.068	2292
3939.675	2300
3941.278	2305
3942.883	2310
3944.486	2279
3946.089	2278
3947.692	2295
3949.295	2286
3950.898	2292
3952.499	2301
3954.1	2295
3955.7	2278
3957.303	2262
3958.903	2251
3960.502	2205
3962.101	2266
3963.7	2310
3965.301	2287
3966.899	2312
3968.497	2248
3970.094	2261
3971.691	2207
3973.288	2252
3974.885	2210
3976.481	2228
3978.077	2283
3979.672	2204
3981.267	2276
3982.863	2231
3984.457	2253
3986.051	2251
3987.645	2184
3989.238	2237
3990.831	2228
3992.425	2233
3994.017	2220
3995.607	2179
3997.199	2199
3998.79	2181
4000.382	2170
4001.973	2217
4003.561	2168
4005.151	2212
4006.741	2170
4008.331	2187
4009.918	2264
4011.507	2239
4013.095	2200
4014.681	2186
4016.269	2192
4017.856	2179
4019.443	2229
4021.028	2126
4022.614	2186
4024.199	2150
4025.785	2176
4027.37	2148
4028.953	2143
4030.536	2171
4032.12	2125
4033.704	2184
4035.287	2142
4036.869	2158
4038.45	2133
4040.032	2143
4041.613	2168
4043.195	2155
4044.776	2109
4046.356	2064
4047.935	2167
4049.515	2149
4051.095	2139
4052.674	2133
4054.251	2159
4055.829	2120
4057.406	2150
4058.985	2122
4060.562	2128
4062.139	2079
4063.715	2092
4065.29	2063
4066.865	2100
4068.442	2129
4070.016	2135
4071.59	2106
4073.164	2062
4074.738	2129
4076.312	2184
4077.885	2124
4079.458	2142
4081.03	2079
4082.602	2065
4084.173	2112
4085.745	2081
4087.315	2066
4088.886	2116
4090.456	2110
4092.026	2103
4093.596	2107
4095.165	2131
4096.734	2110
4098.301	2049
4099.869	2054
4101.437	2055
4103.006	2098
4104.572	2085
4106.139	2113
4107.704	2083
4109.27	2112
4110.837	2061
4112.401	2034
4113.966	2050
4115.53	2106
4117.094	2052
4118.659	2043
4120.223	2046
4121.785	2074
4123.347	2032
4124.909	1983
4126.471	2024
4128.034	2023
4129.595	2053
4131.155	2038
4132.716	2084
4134.275	2057
4135.836	2041
4137.395	2048
4138.955	2015
4140.513	1973
4142.071	2047
4143.628	1984
4145.188	1997
4146.745	2029
4148.302	2036
4149.858	1987
4151.414	2050
4152.971	2068
4154.526	1970
4156.081	2013
4157.635	2023
4159.189	1970
4160.745	2010
4162.298	2007
4163.852	1995
4165.405	1965
4166.957	1980
4168.51	1950
4170.063	1952
4171.614	1971
4173.166	1965
4174.717	1939
4176.267	1962
4177.817	1992
4179.368	1960
4180.917	1957
4182.466	2019
4184.016	1989
4185.564	1977
4187.112	1969
4188.66	1899
4190.207	2007
4191.754	1874
4193.301	1944
4194.848	1964
4196.394	1917
4197.94	1937
4199.484	2012
4201.03	1973
4202.575	1914
4204.12	1935
4205.663	1910
4207.207	1948
4208.75	1943
4210.292	1935
4211.836	1946
4213.378	1936
4214.92	1923
4216.46	1917
4218.002	1899
4219.544	1943
4221.083	1935
4222.625	1943
4224.164	1949
4225.703	1892
4227.244	1888
4228.782	1944
4230.32	1939
4231.857	1918
4233.395	1860
4234.933	1948
4236.471	1856
4238.007	1928
4239.542	1896
4241.078	1934
4242.614	1871
4244.15	1892
4245.685	1911
4247.219	1910
4248.753	1862
4250.287	1892
4251.82	1922
4253.354	1929
4254.887	1848
4256.419	1899
4257.951	1894
4259.483	1853
4261.016	1898
4262.547	1855
4264.078	1876
4265.608	1919
4267.137	1871
4268.668	1873
4270.197	1881
4271.727	1894
4273.254	1862
4274.783	1921
4276.311	1882
4277.84	1836
4279.366	1889
4280.894	1891
4282.42	1821
4283.946	1834
4285.473	1924
4286.998	1782
4288.523	1857
4290.047	1905
4291.572	1864
4293.096	1807
4294.622	1860
4296.144	1881
4297.668	1842
4299.19	1869
4300.713	1814
4302.236	1831
4303.758	1819
4305.279	1898
4306.799	1847
4308.321	1840
4309.842	1855
4311.361	1818
4312.882	1800
4314.401	1813
