400.0961	2628
402.6185	2558
405.1424	2602
407.6635	2524
410.1838	2638
412.7035	2650
415.2225	2579
417.7388	2681
420.2585	2715
422.7754	2723
425.2917	2685
427.8072	2778
430.3221	2782
432.8363	2780
435.3498	2750
437.8626	2720
440.3727	2798
442.8841	2782
445.3969	2709
447.907	2729
450.4142	2716
452.9229	2817
455.4289	2748
457.9362	2659
460.4449	2742
462.9488	2725
465.454	2744
467.9566	2668
470.4604	2685
472.9637	2750
475.4662	2777
477.966	2725
480.4671	2784
482.9656	2773
485.4633	2716
487.9645	2759
490.4608	2740
492.9566	2753
495.4536	2760
497.948	2795
500.4437	2750
502.9387	2736
505.431	2732
507.9226	2813
510.4136	2760
512.9079	2776
515.3975	2734
517.8864	2794
520.3746	2836
522.8622	2770
525.3491	2791
527.8394	2783
530.3249	2807
532.8098	2826
535.2939	2802
537.7774	2821
540.2623	2767
542.7444	2772
545.2259	2796
547.7067	2831
550.1868	2824
552.6683	2747
555.147	2859
557.6231	2848
560.1005	2805
562.5773	2833
565.0534	2911
567.5308	2843
570.0056	2887
572.4776	2861
574.951	2936
577.4237	2958
579.8978	2960
582.3671	2988
584.8378	2976
587.3079	2985
589.7773	3003
592.244	2991
594.714	2943
597.1793	2966
599.6461	2863
602.1121	2925
604.5754	2944
607.0421	2979
609.5042	2823
611.9675	2880
614.4282	2921
616.8902	2937
619.3515	2881
621.8122	2915
624.2702	2852
626.7296	2862
629.1863	2839
631.6423	2781
634.1017	2864
636.5563	2826
639.0104	2857
641.4658	2964
643.9185	2892
646.3725	2841
648.8239	2961
651.2766	2943
653.7266	2899
656.176	2960
658.6247	2986
661.0748	2984
663.5242	2904
665.9709	2933
668.417	2929
670.8624	2904
673.3092	2974
675.7533	2936
678.1968	2938
680.6395	2994
683.0817	2947
685.5251	2941
687.9659	3008
690.4061	3010
692.8456	2983
695.2844	2963
697.7226	3044
700.1621	2977
702.599	3004
705.0332	3031
707.4688	3022
709.9036	3008
712.3399	3074
714.7735	3015
717.2044	3003
719.6367	3040
722.0683	2985
724.4993	3087
726.9296	3075
729.3593	3029
731.7883	3002
734.2147	3112
736.6423	3092
739.0714	3204
741.4958	3152
743.9216	3091
746.3447	3037
748.7691	3114
751.1929	3170
753.616	3145
756.0366	3185
758.4584	3248
760.8776	3202
763.2982	3188
765.718	3139
768.1373	3113
770.5539	3173
772.9698	3175
775.3871	3187
777.8038	3209
780.2178	3135
782.6332	3167
785.0459	3088
787.458	3246
789.8714	3187
792.2842	3249
794.6943	3170
797.1038	3127
799.5127	3188
801.9209	3173
804.3324	3168
806.7393	3142
809.1456	3212
811.5513	3197
813.9562	3143
816.3625	3216
818.7663	3185
821.1693	3214
823.5718	3254
825.9735	3204
828.3746	3284
830.7771	3249
833.177	3294
835.5762	3262
837.9747	3205
840.3727	3208
842.772	3264
845.1666	3228
847.5626	3277
849.958	3235
852.3527	3376
854.7488	3330
857.1403	3272
859.5331	3356
861.9253	3330
864.3168	3306
866.7057	3261
869.098	3332
871.4876	3321
873.8746	3303
876.263	3304
878.6487	3314
881.0378	3278
883.4243	3330
885.8081	3313
888.1933	3366
890.5759	3281
892.9598	3298
895.343	3287
897.7256	3312
900.1057	3324
902.4871	3274
904.8659	3291
907.246	3309
909.6254	3351
912.0023	3283
914.3786	3381
916.7562	3442
919.1331	3472
921.5074	3411
923.8831	3516
926.2562	3467
928.6287	3598
931.0005	3508
933.3757	3552
935.7462	3465
938.1162	3546
940.4855	3578
942.8542	3584
945.2242	3682
947.5916	3753
949.9584	3740
952.3266	3956
954.6921	4194
957.0571	4261
959.4233	4459
961.787	4488
964.15	4457
966.5125	4388
968.8742	4014
971.2354	4011
973.5959	3759
975.9559	3635
978.3151	3530
980.6738	3546
983.0338	3478
985.3912	3444
987.7461	3406
990.1022	3448
992.4578	3439
994.8127	3381
997.1689	3556
999.5207	3383
1001.874	3397
1004.226	3555
1006.576	3451
1008.929	3371
1011.28	3406
1013.628	3450
1015.977	3398
1018.324	3489
1020.674	3494
1023.019	3483
1025.366	3482
1027.713	3490
1030.056	3525
1032.399	3496
1034.746	3509
1037.087	3600
1039.431	3553
1041.771	3523
1044.113	3593
1046.454	3490
1048.793	3601
1051.133	3504
1053.471	3556
1055.807	3469
1058.146	3510
1060.483	3538
1062.818	3503
1065.153	3520
1067.489	3582
1069.822	3686
1072.156	3612
1074.488	3636
1076.82	3678
1079.15	3575
1081.48	3564
1083.814	3617
1086.143	3578
1088.471	3560
1090.799	3522
1093.126	3531
1095.452	3517
1097.78	3535
1100.105	3554
1102.43	3496
1104.754	3513
1107.077	3524
1109.4	3559
1111.722	3490
1114.044	3476
1116.365	3578
1118.685	3608
1121.005	3588
1123.324	3523
1125.643	3485
1127.961	3553
1130.278	3610
1132.595	3494
1134.911	3611
1137.226	3494
1139.541	3551
1141.854	3497
1144.167	3525
1146.482	3449
1148.793	3565
1151.105	3523
1153.414	3472
1155.725	3569
1158.033	3579
1160.344	3603
1162.651	3542
1164.959	3555
1167.265	3559
1169.572	3571
1171.878	3551
1174.184	3547
1176.488	3614
1178.79	3466
1181.094	3585
1183.396	3448
1185.699	3556
1188.001	3501
1190.301	3590
1192.6	3521
1194.9	3584
1197.2	3489
1199.497	3503
1201.794	3560
1204.09	3577
1206.387	3529
1208.684	3532
1210.978	3517
1213.272	3562
1215.565	3485
1217.858	3483
1220.15	3523
1222.443	3584
1224.734	3578
1227.024	3579
1229.313	3682
1231.602	3708
1233.892	3663
1236.18	3696
1238.467	3654
1240.754	3663
1243.04	3613
1245.325	3660
1247.612	3737
1249.896	3693
1252.178	3702
1254.461	3771
1256.743	3648
1259.027	3582
1261.308	3656
1263.587	3679
1265.867	3699
1268.146	3678
1270.425	3672
1272.703	3728
1274.981	3756
1277.256	3710
1279.532	3769
1281.808	3710
1284.083	3576
1286.358	3635
1288.63	3565
1290.904	3674
1293.175	3658
1295.449	3645
1297.719	3595
1299.99	3687
1302.259	3591
1304.529	3642
1306.798	3644
1309.065	3608
1311.333	3579
1313.599	3560
1315.866	3651
1318.131	3667
1320.396	3668
1322.66	3669
1324.925	3623
1327.187	3690
1329.448	3637
1331.711	3644
1333.974	3616
1336.234	3621
1338.493	3622
1340.752	3700
1343.01	3638
1345.269	3695
1347.526	3658
1349.784	3655
1352.04	3610
1354.295	3598
1356.552	3544
1358.806	3700
1361.059	3621
1363.312	3640
1365.564	3693
1367.818	3692
1370.069	3548
1372.318	3677
1374.568	3655
1376.817	3733
1379.066	3590
1381.316	3713
1383.564	3724
1385.809	3654
1388.056	3688
1390.301	3795
1392.549	3710
1394.793	3702
1397.036	3755
1399.279	3766
1401.522	3787
1403.763	3829
1406.007	3809
1408.248	3816
1410.487	3792
1412.727	3720
1414.965	3778
1417.205	3818
1419.442	3675
1421.68	3772
1423.915	3811
1426.152	3796
1428.388	3839
1430.623	3716
1432.857	3773
1435.091	3710
1437.323	3821
1439.556	3778
1441.789	3842
1444.019	3724
1446.25	3827
1448.48	3833
1450.708	3906
1452.938	3872
1455.167	3827
1457.394	3905
1459.62	3905
1461.846	3847
1464.073	3920
1466.299	3932
1468.523	3828
1470.746	3828
1472.969	3767
1475.191	3838
1477.415	3751
1479.636	3752
1481.858	3685
1484.078	3684
1486.298	3708
1488.518	3711
1490.736	3632
1492.954	3686
1495.169	3737
1497.386	3702
1499.602	3615
1501.819	3699
1504.034	3597
1506.248	3616
1508.462	3657
1510.675	3708
1512.888	3626
1515.1	3724
1517.311	3671
1519.522	3560
1521.732	3620
1523.942	3571
1526.151	3707
1528.36	3663
1530.566	3627
1532.773	3651
1534.98	3583
1537.187	3647
1539.392	3640
1541.596	3670
1543.801	3711
1546.005	3640
1548.208	3758
1550.411	3668
1552.612	3739
1554.814	3705
1557.013	3612
1559.212	3716
1561.414	3730
1563.612	3733
1565.811	3773
1568.007	3764
1570.203	3777
1572.403	3759
1574.598	3676
1576.792	3725
1578.988	3729
1581.181	3759
1583.376	3731
1585.568	3812
1587.761	3731
1589.952	3747
1592.143	3828
1594.333	3817
1596.524	3823
1598.715	3793
1600.903	3822
1603.091	3778
1605.278	3742
1607.466	3749
1609.652	3776
1611.838	3740
1614.023	3923
1616.207	3824
1618.391	3821
1620.576	3732
1622.759	3807
1624.941	3814
1627.123	3767
1629.304	3827
1631.484	3824
1633.664	3872
1635.844	3848
1638.022	3873
1640.201	3888
1642.38	3755
1644.556	3941
1646.732	3844
1648.908	3811
1651.084	3854
1653.257	3878
1655.433	3906
1657.607	3921
1659.779	3928
1661.951	3860
1664.122	3858
1666.295	3894
1668.467	3911
1670.635	3978
1672.805	4019
1674.973	3950
1677.142	3872
1679.31	3922
1681.478	3968
1683.644	3930
1685.81	3809
1687.975	3874
1690.142	3866
1692.305	3928
1694.468	3799
1696.632	3846
1698.794	3881
1700.957	3819
1703.119	3809
1705.279	3863
1707.439	3835
1709.598	3822
1711.758	3781
1713.917	3809
1716.075	3851
1718.231	3783
1720.388	3811
1722.543	3786
1724.702	3761
1726.856	3819
1729.01	3942
1731.164	3817
1733.317	3749
1735.471	3796
1737.623	3706
1739.774	3728
1741.925	3800
1744.075	3783
1746.225	3795
1748.376	3758
1750.524	3764
1752.672	3791
1754.82	3834
1756.965	3825
1759.113	3799
1761.259	3797
1763.405	3759
1765.549	3740
1767.694	3764
1769.836	3814
1771.981	3843
1774.123	3772
1776.264	3827
1778.405	3823
1780.546	3834
1782.687	3820
1784.827	3831
1786.966	3755
1789.103	3836
1791.242	3819
1793.381	3775
1795.517	3849
1797.653	3859
1799.788	3846
1801.923	3851
1804.057	3855
1806.193	3732
1808.326	3928
1810.457	3876
1812.59	3877
1814.721	3906
1816.855	3805
1818.984	3723
1821.113	3872
1823.244	3847
1825.372	3831
1827.499	3907
1829.63	3883
1831.756	3842
1833.882	3788
1836.007	3800
1838.132	3831
1840.26	3771
1842.384	3864
1844.507	3768
1846.63	3878
1848.752	3809
1850.875	3848
1852.996	3832
1855.118	3795
1857.238	3803
1859.358	3776
1861.477	3782
1863.597	3792
1865.715	3775
1867.832	3760
1869.948	3723
1872.064	3777
1874.181	3839
1876.297	3794
1878.411	3867
1880.526	3843
1882.639	3809
1884.752	3725
1886.865	3897
1888.977	3768
1891.089	3770
1893.2	3760
1895.308	3793
1897.42	3841
1899.53	3774
1901.639	3871
1903.745	3811
1905.853	3865
1907.962	3803
1910.067	3837
1912.174	3869
1914.278	3933
1916.383	3886
1918.486	3825
1920.592	3945
1922.694	3808
1924.797	3814
1926.898	3881
1929	3814
1931.102	3885
1933.203	3876
1935.301	3841
1937.401	3894
1939.499	3915
1941.598	3902
1943.697	3898
1945.793	3861
1947.888	3868
1949.985	3914
1952.08	3944
1954.176	3873
1956.269	3905
1958.364	3904
1960.457	3895
1962.549	3807
1964.642	3873
1966.733	3899
1968.823	3800
1970.913	3862
1973.005	3781
1975.093	3887
1977.184	3850
1979.271	3860
1981.359	3873
1983.446	3867
1985.532	3851
1987.619	3875
1989.705	3819
1991.789	3791
1993.874	3792
1995.956	3864
1998.041	3842
2000.123	3819
2002.206	3872
2004.287	3870
2006.368	3856
2008.449	3793
2010.529	3949
2012.609	3848
2014.688	3812
2016.766	3777
2018.843	3818
2020.922	3860
2022.999	3812
2025.074	3888
2027.15	3825
2029.225	3890
2031.299	3861
2033.375	3870
2035.447	3790
2037.52	3834
2039.592	3853
2041.664	3826
2043.736	3896
2045.807	3862
2047.876	3851
2049.947	3930
2052.015	3842
2054.086	3852
2056.153	3824
2058.221	3922
2060.288	3890
2062.353	3865
2064.42	3828
2066.486	3823
2068.55	3836
2070.614	3813
2072.678	3894
2074.741	3862
2076.805	3840
2078.866	3821
2080.929	3875
2082.99	3805
2085.049	3869
2087.109	3959
2089.17	3896
2091.228	3806
2093.286	3872
2095.344	3844
2097.4	3854
2099.46	3826
2101.516	3824
2103.572	3869
2105.626	3783
2107.679	3807
2109.735	3815
2111.788	3778
2113.841	3904
2115.894	3819
2117.945	3819
2119.997	3851
2122.049	3833
2124.1	3856
2126.148	3829
2128.197	4031
2130.246	3847
2132.296	3793
2134.342	3788
2136.39	3861
2138.437	3846
2140.483	3775
2142.527	3799
2144.574	3847
2146.619	3846
2148.661	3831
2150.705	3810
2152.747	3793
2154.792	3806
2156.832	3881
2158.874	3861
2160.915	3803
2162.954	3903
2164.995	3805
2167.034	3909
2169.072	3807
2171.111	3755
2173.148	3808
2175.186	3784
2177.223	3806
2179.258	3812
2181.294	3810
2183.328	3783
2185.362	3808
2187.398	3773
2189.431	3828
2191.463	3828
2193.495	3789
2195.528	3806
2197.56	3721
2199.59	3745
2201.62	3819
2203.649	3815
2205.678	3779
2207.708	3778
2209.737	3826
2211.764	3693
2213.791	3737
2215.817	3728
2217.843	3720
2219.87	3719
2221.895	3801
2223.919	3786
2225.942	3747
2227.966	3784
2229.988	3710
2232.012	3675
2234.032	3696
2236.054	3857
2238.074	3838
2240.095	3864
2242.116	3706
2244.135	3858
2246.153	3742
2248.171	3819
2250.188	3767
2252.208	3712
2254.223	3814
2256.239	3745
2258.255	3711
2260.269	3773
2262.283	3803
2264.3	3773
2266.312	3784
2268.325	3818
2270.336	3693
2272.349	3772
2274.362	3736
2276.372	3747
2278.383	3772
2280.392	3812
2282.402	3766
2284.409	3741
2286.418	3827
2288.427	3756
2290.433	3734
2292.441	3826
2294.446	3791
2296.453	3810
2298.459	3801
2300.463	3751
2302.466	3759
2304.471	3735
2306.475	3733
2308.477	3701
2310.478	3754
2312.481	3806
2314.481	3776
2316.481	3706
2318.482	3819
2320.482	3793
2322.48	3755
2324.48	3698
2326.478	3665
2328.476	3800
2330.473	3774
2332.469	3740
2334.465	3740
2336.46	3715
2338.454	3644
2340.45	3749
2342.444	3741
2344.437	3736
2346.43	3678
2348.421	3686
2350.414	3747
2352.405	3701
2354.396	3749
2356.386	3766
2358.376	3691
2360.366	3715
2362.355	3661
2364.343	3714
2366.331	3784
2368.317	3711
2370.304	3720
2372.292	3684
2374.278	3733
2376.262	3752
2378.247	3653
2380.23	3671
2382.216	3692
2384.199	3561
2386.181	3684
2388.163	3611
2390.144	3606
2392.127	3744
2394.107	3724
2396.087	3720
2398.066	3686
2400.046	3704
2402.023	3598
2404.004	3766
2405.981	3714
2407.957	3720
2409.934	3626
2411.91	3667
2413.886	3689
2415.862	3660
2417.836	3657
2419.809	3686
2421.784	3681
2423.756	3712
2425.73	3595
2427.701	3611
2429.672	3654
2431.644	3600
2433.615	3700
2435.586	3539
2437.555	3680
2439.523	3639
2441.491	3570
2443.459	3655
2445.428	3659
2447.395	3714
2449.361	3595
2451.327	3641
2453.292	3691
2455.257	3713
2457.223	3670
2459.187	3685
2461.15	3623
2463.113	3622
2465.076	3666
2467.039	3643
2468.999	3652
2470.96	3588
2472.921	3632
2474.881	3741
2476.841	3566
2478.8	3668
2480.759	3615
2482.717	3608
2484.675	3657
2486.63	3627
2488.589	3610
2490.545	3678
2492.5	3662
2494.455	3647
2496.408	3596
2498.364	3641
2500.318	3622
2502.27	3607
2504.223	3575
2506.174	3624
2508.126	3687
2510.078	3559
2512.03	3561
2513.979	3635
2515.927	3671
2517.877	3592
2519.826	3556
2521.775	3549
2523.722	3661
2525.668	3569
2527.616	3601
2529.561	3545
2531.508	3663
2533.452	3653
2535.398	3589
2537.342	3570
2539.284	3539
2541.229	3674
2543.173	3595
2545.114	3543
2547.055	3576
2548.996	3559
2550.938	3573
2552.878	3582
2554.817	3682
2556.756	3586
2558.695	3528
2560.633	3602
2562.572	3589
2564.509	3548
2566.445	3565
2568.382	3590
2570.317	3648
2572.254	3509
2574.189	3587
2576.123	3539
2578.057	3550
2579.99	3559
2581.923	3612
2583.855	3584
2585.788	3601
2587.719	3627
2589.65	3568
2591.579	3483
2593.511	3526
2595.44	3547
2597.37	3610
2599.297	3655
2601.225	3553
2603.153	3593
2605.08	3566
2607.007	3631
2608.932	3657
2610.858	3543
2612.782	3590
2614.709	3552
2616.632	3564
2618.556	3565
2620.478	3635
2622.401	3631
2624.324	3588
2626.247	3708
2628.167	3613
2630.088	3570
2632.008	3512
2633.928	3533
2635.848	3665
2637.766	3612
2639.684	3468
2641.603	3583
2643.519	3672
2645.437	3655
2647.353	3608
2649.27	3675
2651.184	3647
2653.099	3486
2655.014	3582
2656.928	3606
2658.842	3552
2660.755	3601
2662.667	3560
2664.579	3534
2666.491	3655
2668.402	3596
2670.312	3543
2672.222	3590
2674.132	3569
2676.042	3584
2677.951	3609
2679.859	3530
2681.766	3567
2683.674	3592
2685.582	3588
2687.488	3567
2689.392	3580
2691.298	3526
2693.202	3539
2695.107	3607
2697.012	3576
2698.914	3550
2700.817	3532
2702.72	3641
2704.622	3533
2706.524	3501
2708.425	3529
2710.326	3563
2712.225	3524
2714.125	3506
2716.024	3654
2717.923	3539
2719.822	3575
2721.719	3506
2723.616	3504
2725.512	3563
2727.41	3474
2729.305	3502
2731.201	3565
2733.095	3545
2734.99	3578
2736.884	3516
2738.778	3511
2740.67	3541
2742.562	3585
2744.455	3499
2746.346	3532
2748.238	3551
2750.129	3537
2752.018	3552
2753.907	3507
2755.797	3583
2757.687	3545
2759.575	3494
2761.462	3610
2763.349	3568
2765.237	3503
2767.124	3558
2769.009	3471
2770.894	3454
2772.779	3579
2774.663	3533
2776.547	3520
2778.431	3494
2780.314	3522
2782.197	3524
2784.078	3581
2785.96	3494
2787.842	3558
2789.723	3530
2791.603	3486
2793.483	3468
2795.362	3474
2797.241	3539
2799.121	3502
2800.997	3494
2802.874	3454
2804.751	3517
2806.628	3447
2808.506	3486
2810.38	3463
2812.255	3535
2814.13	3462
2816.003	3527
2817.878	3404
2819.752	3511
2821.623	3511
2823.496	3555
2825.368	3433
2827.238	3548
2829.111	3439
2830.98	3438
2832.851	3484
2834.719	3513
2836.589	3526
2838.458	3550
2840.327	3456
2842.193	3554
2844.061	3529
2845.927	3505
2847.794	3557
2849.66	3526
2851.525	3525
2853.39	3597
2855.254	3595
2857.117	3552
2858.983	3508
2860.845	3586
2862.707	3582
2864.569	3597
2866.431	3631
2868.293	3582
2870.154	3710
2872.013	3706
2873.873	3645
2875.733	3731
2877.592	3748
2879.451	3768
2881.309	3834
2883.166	3842
2885.022	3819
2886.879	3839
2888.736	3881
2890.591	3884
2892.446	3883
2894.301	3931
2896.155	3882
2898.009	3868
2899.863	3903
2901.716	3845
2903.568	3795
2905.419	3880
2907.27	3908
2909.123	3867
2910.973	3846
2912.824	3966
2914.673	3915
2916.521	3949
2918.372	3936
2920.22	3897
2922.067	3958
2923.914	4045
2925.761	4093
2927.607	4087
2929.455	4192
2931.301	4132
2933.144	4179
2934.99	4296
2936.833	4312
2938.678	4294
2940.522	4392
2942.364	4303
2944.207	4448
2946.048	4491
2947.891	4455
2949.731	4365
2951.571	4315
2953.412	4416
2955.25	4308
2957.09	4356
2958.93	4341
2960.767	4269
2962.606	4180
2964.443	4145
2966.279	4203
2968.116	4213
2969.953	4023
2971.788	4035
2973.623	3997
2975.457	3962
2977.292	4042
2979.127	3935
2980.959	3971
2982.792	3881
2984.624	3922
2986.455	3940
2988.288	3800
2990.119	3822
2991.949	3899
2993.779	3854
2995.608	3773
2997.439	3783
2999.268	3742
3001.096	3639
3002.923	3678
3004.751	3685
3006.578	3640
3008.406	3635
3010.232	3600
3012.057	3606
3013.883	3602
3015.706	3531
3017.532	3439
3019.356	3408
3021.179	3480
3023.002	3539
3024.823	3429
3026.646	3441
3028.469	3363
3030.289	3411
3032.11	3516
3033.93	3400
3035.749	3437
3037.57	3396
3039.39	3356
3041.207	3340
3043.026	3385
3044.842	3411
3046.661	3404
3048.477	3326
3050.294	3425
3052.109	3364
3053.925	3362
3055.739	3331
3057.555	3339
3059.368	3323
3061.181	3308
3062.995	3274
3064.807	3330
3066.62	3291
3068.433	3315
3070.243	3294
3072.054	3379
3073.865	3343
3075.675	3311
3077.485	3369
3079.293	3223
3081.102	3308
3082.911	3317
3084.719	3234
3086.527	3246
3088.333	3354
3090.139	3191
3091.945	3283
3093.75	3300
3095.557	3219
3097.361	3251
3099.165	3301
3100.969	3268
3102.772	3221
3104.575	3224
3106.379	3264
3108.181	3265
3109.982	3270
3111.783	3205
3113.584	3321
3115.386	3247
3117.186	3173
3118.985	3234
3120.783	3234
3122.582	3178
3124.381	3175
3126.179	3233
3127.975	3211
3129.772	3143
3131.569	3219
3133.365	3159
3135.161	3203
3136.956	3194
3138.751	3199
3140.544	3202
3142.338	3202
3144.132	3194
3145.925	3191
3147.717	3130
3149.509	3245
3151.301	3115
3153.091	3216
3154.884	3189
3156.673	3218
3158.462	3233
3160.252	3268
3162.041	3185
3163.831	3193
3165.618	3132
3167.405	3157
3169.193	3105
3170.979	3162
3172.767	3054
3174.553	3162
3176.338	3138
3178.123	3205
3179.907	3183
3181.692	3096
3183.477	3139
3185.259	3187
3187.042	3205
3188.824	3094
3190.607	3218
3192.389	3171
3194.17	3111
3195.951	3093
3197.73	3128
3199.51	3200
3201.289	3163
3203.07	3164
3204.848	3148
3206.626	3120
3208.403	3202
3210.18	3126
3211.959	3102
3213.735	3196
3215.511	3190
3217.285	3138
3219.06	3154
3220.836	3126
3222.611	3142
3224.384	3178
3226.158	3253
3227.929	3166
3229.702	3187
3231.476	3180
3233.248	3173
3235.018	3149
3236.789	3129
3238.56	3096
3240.33	3112
3242.1	3191
3243.869	3120
3245.637	3099
3247.405	3171
3249.172	3131
3250.941	3138
3252.707	3027
3254.474	3173
3256.24	3150
3258.006	3118
3259.772	3135
3261.537	3183
3263.301	3163
3265.065	3082
3266.828	3101
3268.592	3078
3270.355	3183
3272.117	3135
3273.878	3171
3275.64	3226
3277.401	3138
3279.162	3212
3280.922	3162
3282.682	3140
3284.441	3189
3286.199	3146
3287.959	3108
3289.716	3114
3291.475	3159
3293.232	3188
3294.988	3160
3296.744	3162
3298.501	3213
3300.256	3162
3302.011	3215
3303.766	3176
3305.52	3157
3307.275	3141
3309.028	3188
3310.781	3199
3312.533	3204
3314.285	3072
3316.038	3128
3317.789	3163
3319.54	3086
3321.289	3118
3323.039	3196
3324.789	3114
3326.539	3105
3328.288	3080
3330.035	3116
3331.783	3131
3333.531	3073
3335.28	3222
3337.025	3112
3338.771	3108
3340.518	3088
3342.262	3138
3344.009	3179
3345.753	3223
3347.497	3151
3349.24	3148
3350.983	3164
3352.726	3107
3354.469	3119
3356.212	3028
3357.952	3111
3359.694	3150
3361.434	3174
3363.176	3062
3364.916	3091
3366.654	3093
3368.394	3105
3370.132	3106
3371.871	3133
3373.61	3080
3375.346	3011
3377.083	3098
3378.82	3064
3380.556	3036
3382.292	3053
3384.027	3066
3385.763	3040
3387.497	3030
3389.231	3035
3390.965	2991
3392.698	3045
3394.431	2967
3396.164	2993
3397.896	3074
3399.627	3018
3401.36	3042
3403.09	2976
3404.82	3077
3406.55	3051
3408.279	3069
3410.01	2999
3411.738	3057
3413.467	3072
3415.194	3002
3416.92	3012
3418.647	3125
3420.375	3044
3422.102	3007
3423.827	3012
3425.553	3004
3427.277	3031
3429.003	2976
3430.727	2986
3432.451	3028
3434.173	3010
3435.896	2975
3437.62	2971
3439.343	3017
3441.063	3002
3442.785	3000
3444.505	2959
3446.226	2969
3447.948	2957
3449.666	2855
3451.386	3003
3453.104	2871
3454.823	2950
3456.541	2943
3458.259	2893
3459.976	2918
3461.693	2874
3463.408	2977
3465.125	2919
3466.841	2942
3468.556	2888
3470.271	2885
3471.985	2890
3473.698	2886
3475.414	2914
3477.126	2899
3478.838	2936
3480.55	2930
3482.263	2886
3483.975	2900
3485.686	2843
3487.396	2906
3489.106	2892
3490.817	2777
3492.526	2845
3494.236	2789
3495.944	2864
3497.652	2828
3499.359	2854
3501.066	2869
3502.775	2817
3504.481	2822
3506.187	2818
3507.893	2847
3509.598	2839
3511.304	2886
3513.009	2753
3514.713	2784
3516.417	2690
3518.12	2804
3519.821	2823
3521.525	2839
3523.228	2782
3524.929	2766
3526.631	2828
3528.33	2739
3530.032	2793
3531.733	2761
3533.433	2773
3535.131	2785
3536.83	2776
3538.529	2744
3540.227	2820
3541.925	2738
3543.623	2678
3545.319	2765
3547.016	2772
3548.712	2724
3550.408	2679
3552.103	2736
3553.798	2733
3555.491	2786
3557.188	2799
3558.88	2774
3560.574	2718
3562.266	2742
3563.959	2790
3565.651	2698
3567.343	2659
3569.035	2713
3570.725	2688
3572.415	2685
3574.106	2692
3575.797	2755
3577.485	2721
3579.174	2742
3580.863	2683
3582.551	2666
3584.238	2680
3585.926	2685
3587.613	2691
3589.3	2683
3590.986	2645
3592.671	2617
3594.357	2684
3596.042	2698
3597.726	2703
3599.41	2717
3601.094	2653
3602.778	2668
3604.461	2644
3606.143	2624
3607.825	2661
3609.507	2676
3611.188	2651
3612.87	2665
3614.551	2640
3616.229	2581
3617.909	2527
3619.589	2600
3621.269	2608
3622.948	2548
3624.625	2622
3626.302	2598
3627.98	2623
3629.657	2578
3631.334	2600
3633.01	2561
3634.686	2585
3636.361	2575
3638.036	2526
3639.712	2622
3641.385	2541
3643.06	2584
3644.732	2571
3646.405	2545
3648.08	2497
3649.751	2612
3651.424	2531
3653.094	2548
3654.766	2480
3656.436	2574
3658.106	2514
3659.777	2498
3661.446	2548
3663.115	2517
3664.783	2522
3666.452	2531
3668.121	2477
3669.788	2482
3671.454	2475
3673.121	2541
3674.789	2443
3676.455	2446
3678.12	2472
3679.784	2527
3681.45	2484
3683.114	2486
3684.779	2445
3686.442	2484
3688.105	2472
3689.768	2509
3691.43	2494
3693.093	2521
3694.754	2461
3696.415	2523
3698.076	2418
3699.736	2482
3701.396	2456
3703.057	2424
3704.716	2469
3706.375	2414
3708.034	2511
3709.692	2483
3711.351	2516
3713.008	2418
3714.665	2492
3716.321	2412
3717.977	2469
3719.634	2390
3721.29	2421
3722.945	2464
3724.598	2431
3726.253	2405
3727.907	2417
3729.561	2403
3731.214	2451
3732.867	2375
3734.518	2389
3736.171	2536
3737.824	2426
3739.474	2428
3741.125	2480
3742.775	2413
3744.425	2430
3746.074	2383
3747.725	2380
3749.373	2404
3751.022	2438
3752.669	2424
3754.318	2404
3755.966	2479
3757.612	2389
3759.259	2407
3760.905	2387
3762.55	2422
3764.197	2347
3765.842	2367
3767.486	2402
3769.131	2356
3770.774	2452
3772.417	2369
3774.061	2387
3775.705	2426
3777.347	2385
3778.988	2377
3780.629	2377
3782.271	2383
3783.912	2380
3785.552	2366
3787.192	2366
3788.831	2414
3790.472	2339
3792.112	2356
3793.75	2361
3795.388	2324
3797.024	2381
3798.661	2375
3800.3	2344
3801.936	2332
3803.572	2331
3805.208	2355
3806.844	2337
3808.48	2334
3810.115	2292
3811.748	2323
3813.382	2338
3815.016	2374
3816.649	2327
3818.283	2270
3819.914	2301
3821.547	2262
3823.178	2344
3824.809	2334
3826.441	2308
3828.072	2298
3829.701	2327
3831.331	2320
3832.96	2332
3834.591	2319
3836.219	2329
3837.847	2335
3839.475	2290
3841.102	2267
3842.729	2313
3844.357	2305
3845.984	2279
3847.609	2290
3849.234	2283
3850.86	2286
3852.485	2251
3854.11	2288
3855.734	2328
3857.357	2339
3858.981	2298
3860.603	2207
3862.227	2300
3863.848	2246
3865.471	2232
3867.092	2264
3868.713	2282
3870.334	2339
3871.954	2255
3873.575	2231
3875.194	2283
3876.813	2240
3878.433	2216
3880.051	2286
3881.669	2267
3883.286	2306
3884.904	2291
3886.52	2241
3888.138	2263
3889.754	2293
3891.37	2237
3892.985	2230
3894.6	2260
3896.216	2240
3897.831	2252
3899.444	2207
3901.058	2277
3902.67	2209
3904.283	2223
3905.897	2272
3907.509	2237
3909.121	2225
3910.731	2277
3912.342	2210
3913.954	2254
3915.563	2235
3917.174	2158
3918.783	2272
3920.391	2200
3922.002	2273
3923.611	2219
3925.218	2250
3926.826	2186
3928.432	2255
3930.039	2151
3931.647	2164
3933.253	2259
3934.859	2167
3936.464	2228
3938.068	2197
3939.675	2171
3941.278	2200
3942.883	2122
3944.486	2179
3946.089	2206
3947.692	2215
3949.295	2174
3950.898	2185
3952.499	2157
3954.1	2213
3955.7	2217
3957.303	2209
3958.903	2249
3960.502	2169
3962.101	2210
3963.7	2216
3965.301	2185
3966.899	2168
3968.497	2191
3970.094	2194
3971.691	2169
3973.288	2169
3974.885	2196
3976.481	2171
3978.077	2152
3979.672	2170
3981.267	2172
3982.863	2142
3984.457	2234
3986.051	2152
3987.645	2074
3989.238	2123
3990.831	2105
3992.425	2153
3994.017	2181
3995.607	2187
3997.199	2076
3998.79	2094
4000.382	2174
4001.973	2122
4003.561	2127
4005.151	2095
4006.741	2107
4008.331	2127
4009.918	2094
4011.507	2132
4013.095	2036
4014.681	2148
4016.269	2078
4017.856	2062
4019.443	2044
4021.028	2088
4022.614	2082
4024.199	2086
4025.785	2067
4027.37	2068
4028.953	2061
4030.536	2126
4032.12	2025
4033.704	2053
4035.287	2070
4036.869	2089
4038.45	2023
4040.032	2088
4041.613	2141
4043.195	2123
4044.776	2043
4046.356	2088
4047.935	2023
4049.515	2063
4051.095	2019
4052.674	2067
4054.251	2087
4055.829	2110
4057.406	2039
4058.985	2064
4060.562	2081
4062.139	2064
4063.715	2053
4065.29	2023
4066.865	2055
4068.442	2062
4070.016	2137
4071.59	2012
4073.164	2023
4074.738	2038
4076.312	1959
4077.885	1985
4079.458	2012
4081.03	2053
4082.602	1956
4084.173	2047
4085.745	1988
4087.315	1964
4088.886	2085
4090.456	1961
4092.026	2015
4093.596	1993
4095.165	1989
4096.734	2021
4098.301	2019
4099.869	2003
4101.437	2040
4103.006	2020
4104.572	1996
4106.139	2010
4107.704	1987
4109.27	1949
4110.837	1947
4112.401	2015
4113.966	2021
4115.53	2032
4117.094	2007
4118.659	1941
4120.223	1981
4121.785	1960
4123.347	1936
4124.909	1983
4126.471	2013
4128.034	1937
4129.595	1952
4131.155	1972
4132.716	1982
4134.275	1969
4135.836	1993
4137.395	1973
4138.955	1996
4140.513	1962
4142.071	1909
4143.628	2002
4145.188	1936
4146.745	1888
4148.302	2006
4149.858	1861
4151.414	1959
4152.971	1958
4154.526	1900
4156.081	1950
4157.635	1893
4159.189	1904
4160.745	1893
4162.298	1888
4163.852	1947
4165.405	1939
4166.957	1883
4168.51	1910
4170.063	1930
4171.614	1953
4173.166	1874
4174.717	1918
4176.267	1887
4177.817	1938
4179.368	1874
4180.917	1865
4182.466	1911
4184.016	1915
4185.564	1918
4187.112	1880
4188.66	1884
4190.207	1865
4191.754	1888
4193.301	1882
4194.848	1881
4196.394	1903
4197.94	1900
4199.484	1927
4201.03	1864
4202.575	1797
4204.12	1886
4205.663	1913
4207.207	1845
4208.75	1909
4210.292	1889
4211.836	1911
4213.378	1902
4214.92	1926
4216.46	1854
4218.002	1808
4219.544	1863
4221.083	1888
4222.625	1891
4224.164	1832
4225.703	1842
4227.244	1870
4228.782	1873
4230.32	1852
4231.857	1844
4233.395	1842
4234.933	1875
4236.471	1859
4238.007	1872
4239.542	1865
4241.078	1823
4242.614	1842
4244.15	1860
4245.685	1877
4247.219	1831
4248.753	1861
4250.287	1770
4251.82	1872
4253.354	1812
4254.887	1806
4256.419	1846
4257.951	1854
4259.483	1825
4261.016	1836
4262.547	1860
4264.078	1799
4265.608	1785
4267.137	1832
4268.668	1789
4270.197	1821
4271.727	1840
4273.254	1824
4274.783	1839
4276.311	1783
4277.84	1771
4279.366	1862
4280.894	1762
4282.42	1769
4283.946	1827
4285.473	1798
4286.998	1791
4288.523	1768
4290.047	1804
4291.572	1790
4293.096	1760
4294.622	1814
4296.144	1773
4297.668	1804
4299.19	1798
4300.713	1827
4302.236	1759
4303.758	1803
4305.279	1782
4306.799	1803
4308.321	1727
4309.842	1803
4311.361	1781
4312.882	1760
4314.401	1768
