400.0961	2369
402.6185	2362
405.1424	2434
407.6635	2325
410.1838	2426
412.7035	2406
415.2225	2413
417.7388	2427
420.2585	2490
422.7754	2414
425.2917	2482
427.8072	2567
430.3221	2553
432.8363	2514
435.3498	2573
437.8626	2494
440.3727	2609
442.8841	2545
445.3969	2536
447.907	2532
450.4142	2567
452.9229	2548
455.4289	2494
457.9362	2484
460.4449	2434
462.9488	2496
465.454	2570
467.9566	2507
470.4604	2542
472.9637	2519
475.4662	2477
477.966	2496
480.4671	2501
482.9656	2482
485.4633	2461
487.9645	2562
490.4608	2536
492.9566	2500
495.4536	2499
497.948	2494
500.4437	2498
502.9387	2496
505.431	2446
507.9226	2534
510.4136	2555
512.9079	2580
515.3975	2489
517.8864	2580
520.3746	2574
522.8622	2616
525.3491	2549
527.8394	2550
530.3249	2503
532.8098	2560
535.2939	2586
537.7774	2573
540.2623	2584
542.7444	2532
545.2259	2583
547.7067	2586
550.1868	2606
552.6683	2611
555.147	2598
557.6231	2592
560.1005	2594
562.5773	2629
565.0534	2609
567.5308	2584
570.0056	2641
572.4776	2612
574.951	2615
577.4237	2611
579.8978	2692
582.3671	2718
584.8378	2681
587.3079	2575
589.7773	2730
592.244	2674
594.714	2733
597.1793	2618
599.6461	2680
602.1121	2664
604.5754	2640
607.0421	2675
609.5042	2677
611.9675	2728
614.4282	2676
616.8902	2673
619.3515	2665
621.8122	2692
624.2702	2663
626.7296	2623
629.1863	2676
631.6423	2620
634.1017	2643
636.5563	2659
639.0104	2674
641.4658	2566
643.9185	2532
646.3725	2638
648.8239	2620
651.2766	2654
653.7266	2629
656.176	2657
658.6247	2673
661.0748	2678
663.5242	2691
665.9709	2730
668.417	2732
670.8624	2708
673.3092	2710
675.7533	2624
678.1968	2618
680.6395	2696
683.0817	2709
685.5251	2677
687.9659	2750
690.4061	2661
692.8456	2700
695.2844	2692
697.7226	2751
700.1621	2702
702.599	2746
705.0332	2771
707.4688	2749
709.9036	2751
712.3399	2748
714.7735	2744
717.2044	2732
719.6367	2736
722.0683	2737
724.4993	2769
726.9296	2787
729.3593	2811
731.7883	2772
734.2147	2732
736.6423	2768
739.0714	2837
741.4958	2874
743.9216	2831
746.3447	2820
748.7691	2804
751.1929	2871
753.616	2896
756.0366	2807
758.4584	2874
760.8776	2939
763.2982	2842
765.718	2878
768.1373	2937
770.5539	2781
772.9698	2868
775.3871	2885
777.8038	2877
780.2178	2861
782.6332	2959
785.0459	2876
787.458	2900
789.8714	2858
792.2842	2872
794.6943	2895
797.1038	2917
799.5127	2871
801.9209	2917
804.3324	2895
806.7393	2919
809.1456	2945
811.5513	2874
813.9562	2873
816.3625	2958
818.7663	2928
821.1693	2934
823.5718	2955
825.9735	2960
828.3746	2910
830.7771	2950
833.177	2885
835.5762	2912
837.9747	2888
840.3727	2945
842.772	2977
845.1666	2980
847.5626	2966
849.958	3061
852.3527	2982
854.7488	3083
857.1403	3066
859.5331	3083
861.9253	3043
864.3168	2998
866.7057	2994
869.098	3027
871.4876	3007
873.8746	3078
876.263	3045
878.6487	2975
881.0378	2970
883.4243	2998
885.8081	2949
888.1933	3041
890.5759	3009
892.9598	2949
895.343	3037
897.7256	3074
900.1057	3021
902.4871	3005
904.8659	2993
907.246	3048
909.6254	3066
912.0023	3083
914.3786	3062
916.7562	3083
919.1331	3120
921.5074	3127
923.8831	3179
926.2562	3155
928.6287	3221
931.0005	3197
933.3757	3162
935.7462	3202
938.1162	3172
940.4855	3258
942.8542	3302
945.2242	3423
947.5916	3405
949.9584	3492
952.3266	3583
954.6921	3746
957.0571	3846
959.4233	4083
961.787	4105
964.15	4094
966.5125	4023
968.8742	3789
971.2354	3638
973.5959	3499
975.9559	3328
978.3151	3245
980.6738	3227
983.0338	3114
985.3912	3183
987.7461	3150
990.1022	3150
992.4578	3200
994.8127	3194
997.1689	3169
999.5207	3100
1001.874	3140
1004.226	3132
1006.576	3158
1008.929	3151
1011.28	3068
1013.628	3152
1015.977	3114
1018.324	3088
1020.674	3204
1023.019	3184
1025.366	3171
1027.713	3172
1030.056	3198
1032.399	3183
1034.746	3272
1037.087	3201
1039.431	3128
1041.771	3240
1044.113	3174
1046.454	3227
1048.793	3235
1051.133	3258
1053.471	3200
1055.807	3197
1058.146	3182
1060.483	3201
1062.818	3274
1065.153	3257
1067.489	3261
1069.822	3349
1072.156	3270
1074.488	3305
1076.82	3272
1079.15	3244
1081.48	3238
1083.814	3289
1086.143	3205
1088.471	3287
1090.799	3162
1093.126	3197
1095.452	3228
1097.78	3235
1100.105	3159
1102.43	3211
1104.754	3161
1107.077	3132
1109.4	3213
1111.722	3249
1114.044	3230
1116.365	3146
1118.685	3210
1121.005	3241
1123.324	3200
1125.643	3199
1127.961	3145
1130.278	3174
1132.595	3219
1134.911	3152
1137.226	3188
1139.541	3172
1141.854	3147
1144.167	3112
1146.482	3180
1148.793	3221
1151.105	3197
1153.414	3234
1155.725	3228
1158.033	3221
1160.344	3132
1162.651	3249
1164.959	3141
1167.265	3204
1169.572	3231
1171.878	3254
1174.184	3238
1176.488	3188
1178.79	3167
1181.094	3249
1183.396	3222
1185.699	3207
1188.001	3148
1190.301	3206
1192.6	3198
1194.9	3212
1197.2	3210
1199.497	3278
1201.794	3145
1204.09	3189
1206.387	3183
1208.684	3238
1210.978	3225
1213.272	3192
1215.565	3241
1217.858	3221
1220.15	3274
1222.443	3225
1224.734	3225
1227.024	3276
1229.313	3236
1231.602	3250
1233.892	3257
1236.18	3378
1238.467	3353
1240.754	3253
1243.04	3254
1245.325	3342
1247.612	3279
1249.896	3441
1252.178	3303
1254.461	3433
1256.743	3344
1259.027	3407
1261.308	3320
1263.587	3431
1265.867	3366
1268.146	3322
1270.425	3443
1272.703	3310
1274.981	3405
1277.256	3317
1279.532	3347
1281.808	3230
1284.083	3375
1286.358	3308
1288.63	3343
1290.904	3365
1293.175	3311
1295.449	3290
1297.719	3235
1299.99	3277
1302.259	3264
1304.529	3274
1306.798	3300
1309.065	3313
1311.333	3283
1313.599	3317
1315.866	3292
1318.131	3306
1320.396	3290
1322.66	3244
1324.925	3322
1327.187	3274
1329.448	3256
1331.711	3381
1333.974	3347
1336.234	3258
1338.493	3307
1340.752	3330
1343.01	3287
1345.269	3381
1347.526	3311
1349.784	3302
1352.04	3312
1354.295	3404
1356.552	3329
1358.806	3279
1361.059	3258
1363.312	3260
1365.564	3290
1367.818	3327
1370.069	3353
1372.318	3325
1374.568	3299
1376.817	3333
1379.066	3342
1381.316	3263
1383.564	3335
1385.809	3369
1388.056	3388
1390.301	3384
1392.549	3376
1394.793	3493
1397.036	3410
1399.279	3437
1401.522	3447
1403.763	3326
1406.007	3296
1408.248	3358
1410.487	3322
1412.727	3368
1414.965	3412
1417.205	3387
1419.442	3435
1421.68	3443
1423.915	3414
1426.152	3378
1428.388	3501
1430.623	3507
1432.857	3485
1435.091	3456
1437.323	3464
1439.556	3523
1441.789	3441
1444.019	3465
1446.25	3476
1448.48	3528
1450.708	3451
1452.938	3585
1455.167	3551
1457.394	3577
1459.62	3601
1461.846	3525
1464.073	3522
1466.299	3488
1468.523	3472
1470.746	3432
1472.969	3450
1475.191	3451
1477.415	3391
1479.636	3435
1481.858	3401
1484.078	3308
1486.298	3359
1488.518	3388
1490.736	3346
1492.954	3257
1495.169	3310
1497.386	3327
1499.602	3272
1501.819	3310
1504.034	3253
1506.248	3331
1508.462	3336
1510.675	3370
1512.888	3246
1515.1	3334
1517.311	3377
1519.522	3395
1521.732	3306
1523.942	3327
1526.151	3295
1528.36	3187
1530.566	3308
1532.773	3381
1534.98	3322
1537.187	3308
1539.392	3339
1541.596	3332
1543.801	3362
1546.005	3304
1548.208	3315
1550.411	3389
1552.612	3323
1554.814	3355
1557.013	3402
1559.212	3344
1561.414	3330
1563.612	3440
1565.811	3278
1568.007	3311
1570.203	3398
1572.403	3401
1574.598	3359
1576.792	3353
1578.988	3432
1581.181	3403
1583.376	3391
1585.568	3490
1587.761	3405
1589.952	3378
1592.143	3390
1594.333	3480
1596.524	3460
1598.715	3400
1600.903	3438
1603.091	3428
1605.278	3458
1607.466	3464
1609.652	3479
1611.838	3493
1614.023	3558
1616.207	3470
1618.391	3420
1620.576	3507
1622.759	3437
1624.941	3479
1627.123	3465
1629.304	3515
1631.484	3418
1633.664	3555
1635.844	3605
1638.022	3501
1640.201	3459
1642.38	3529
1644.556	3471
1646.732	3602
1648.908	3562
1651.084	3462
1653.257	3524
1655.433	3585
1657.607	3520
1659.779	3577
1661.951	3527
1664.122	3582
1666.295	3665
1668.467	3561
1670.635	3593
1672.805	3637
1674.973	3574
1677.142	3524
1679.31	3564
1681.478	3549
1683.644	3563
1685.81	3604
1687.975	3517
1690.142	3504
1692.305	3542
1694.468	3536
1696.632	3479
1698.794	3541
1700.957	3467
1703.119	3513
1705.279	3505
1707.439	3452
1709.598	3510
1711.758	3509
1713.917	3488
1716.075	3468
1718.231	3477
1720.388	3374
1722.543	3443
1724.702	3534
1726.856	3361
1729.01	3469
1731.164	3474
1733.317	3414
1735.471	3466
1737.623	3398
1739.774	3453
1741.925	3484
1744.075	3451
1746.225	3465
1748.376	3467
1750.524	3433
1752.672	3445
1754.82	3499
1756.965	3428
1759.113	3445
1761.259	3526
1763.405	3471
1765.549	3426
1767.694	3473
1769.836	3448
1771.981	3502
1774.123	3450
1776.264	3546
1778.405	3505
1780.546	3513
1782.687	3456
1784.827	3443
1786.966	3494
1789.103	3455
1791.242	3465
1793.381	3426
1795.517	3498
1797.653	3640
1799.788	3477
1801.923	3404
1804.057	3413
1806.193	3532
1808.326	3400
1810.457	3589
1812.59	3452
1814.721	3525
1816.855	3489
1818.984	3515
1821.113	3490
1823.244	3528
1825.372	3420
1827.499	3449
1829.63	3500
1831.756	3543
1833.882	3444
1836.007	3481
1838.132	3471
1840.26	3479
1842.384	3497
1844.507	3486
1846.63	3442
1848.752	3473
1850.875	3502
1852.996	3586
1855.118	3520
1857.238	3475
1859.358	3440
1861.477	3454
1863.597	3452
1865.715	3462
1867.832	3466
1869.948	3499
1872.064	3403
1874.181	3415
1876.297	3532
1878.411	3425
1880.526	3421
1882.639	3476
1884.752	3421
1886.865	3506
1888.977	3504
1891.089	3476
1893.2	3400
1895.308	3560
1897.42	3505
1899.53	3487
1901.639	3499
1903.745	3559
1905.853	3519
1907.962	3493
1910.067	3518
1912.174	3527
1914.278	3520
1916.383	3476
1918.486	3454
1920.592	3517
1922.694	3523
1924.797	3514
1926.898	3477
1929	3571
1931.102	3502
1933.203	3498
1935.301	3518
1937.401	3519
1939.499	3551
1941.598	3494
1943.697	3456
1945.793	3566
1947.888	3555
1949.985	3533
1952.08	3513
1954.176	3606
1956.269	3596
1958.364	3520
1960.457	3591
1962.549	3509
1964.642	3545
1966.733	3526
1968.823	3517
1970.913	3548
1973.005	3531
1975.093	3612
1977.184	3527
1979.271	3531
1981.359	3507
1983.446	3534
1985.532	3536
1987.619	3541
1989.705	3566
1991.789	3482
1993.874	3540
1995.956	3541
1998.041	3454
2000.123	3491
2002.206	3528
2004.287	3616
2006.368	3550
2008.449	3432
2010.529	3483
2012.609	3441
2014.688	3466
2016.766	3593
2018.843	3527
2020.922	3407
2022.999	3545
2025.074	3450
2027.15	3515
2029.225	3508
2031.299	3426
2033.375	3530
2035.447	3563
2037.52	3494
2039.592	3400
2041.664	3526
2043.736	3528
2045.807	3579
2047.876	3539
2049.947	3436
2052.015	3470
2054.086	3525
2056.153	3456
2058.221	3508
2060.288	3516
2062.353	3534
2064.42	3483
2066.486	3569
2068.55	3573
2070.614	3516
2072.678	3511
2074.741	3471
2076.805	3476
2078.866	3509
2080.929	3547
2082.99	3550
2085.049	3508
2087.109	3557
2089.17	3480
2091.228	3484
2093.286	3566
2095.344	3619
2097.4	3525
2099.46	3465
2101.516	3457
2103.572	3510
2105.626	3559
2107.679	3529
2109.735	3489
2111.788	3544
2113.841	3453
2115.894	3620
2117.945	3522
2119.997	3444
2122.049	3584
2124.1	3542
2126.148	3581
2128.197	3529
2130.246	3505
2132.296	3572
2134.342	3464
2136.39	3511
2138.437	3490
2140.483	3562
2142.527	3508
2144.574	3496
2146.619	3531
2148.661	3565
2150.705	3483
2152.747	3538
2154.792	3567
2156.832	3544
2158.874	3496
2160.915	3534
2162.954	3385
2164.995	3551
2167.034	3508
2169.072	3515
2171.111	3516
2173.148	3588
2175.186	3478
2177.223	3512
2179.258	3535
2181.294	3482
2183.328	3527
2185.362	3501
2187.398	3430
2189.431	3476
2191.463	3397
2193.495	3479
2195.528	3483
2197.56	3499
2199.59	3449
2201.62	3421
2203.649	3415
2205.678	3497
2207.708	3360
2209.737	3451
2211.764	3459
2213.791	3496
2215.817	3538
2217.843	3440
2219.87	3430
2221.895	3418
2223.919	3415
2225.942	3465
2227.966	3464
2229.988	3475
2232.012	3448
2234.032	3489
2236.054	3381
2238.074	3537
2240.095	3422
2242.116	3512
2244.135	3447
2246.153	3513
2248.171	3425
2250.188	3453
2252.208	3393
2254.223	3456
2256.239	3389
2258.255	3410
2260.269	3379
2262.283	3497
2264.3	3481
2266.312	3494
2268.325	3449
2270.336	3468
2272.349	3479
2274.362	3461
2276.372	3429
2278.383	3368
2280.392	3553
2282.402	3407
2284.409	3510
2286.418	3451
2288.427	3486
2290.433	3442
2292.441	3444
2294.446	3509
2296.453	3377
2298.459	3433
2300.463	3440
2302.466	3425
2304.471	3464
2306.475	3424
2308.477	3476
2310.478	3437
2312.481	3513
2314.481	3468
2316.481	3448
2318.482	3447
2320.482	3408
2322.48	3423
2324.48	3481
2326.478	3475
2328.476	3393
2330.473	3424
2332.469	3423
2334.465	3510
2336.46	3407
2338.454	3377
2340.45	3428
2342.444	3347
2344.437	3466
2346.43	3371
2348.421	3419
2350.414	3415
2352.405	3380
2354.396	3379
2356.386	3407
2358.376	3420
2360.366	3414
2362.355	3384
2364.343	3383
2366.331	3466
2368.317	3355
2370.304	3412
2372.292	3441
2374.278	3404
2376.262	3505
2378.247	3358
2380.23	3408
2382.216	3517
2384.199	3329
2386.181	3371
2388.163	3341
2390.144	3370
2392.127	3350
2394.107	3413
2396.087	3374
2398.066	3370
2400.046	3384
2402.023	3370
2404.004	3342
2405.981	3358
2407.957	3370
2409.934	3244
2411.91	3376
2413.886	3379
2415.862	3380
2417.836	3336
2419.809	3409
2421.784	3429
2423.756	3398
2425.73	3397
2427.701	3406
2429.672	3362
2431.644	3419
2433.615	3404
2435.586	3377
2437.555	3329
2439.523	3414
2441.491	3400
2443.459	3388
2445.428	3422
2447.395	3363
2449.361	3413
2451.327	3383
2453.292	3381
2455.257	3407
2457.223	3379
2459.187	3366
2461.15	3379
2463.113	3288
2465.076	3414
2467.039	3350
2468.999	3383
2470.96	3315
2472.921	3356
2474.881	3355
2476.841	3330
2478.8	3351
2480.759	3403
2482.717	3322
2484.675	3354
2486.63	3341
2488.589	3387
2490.545	3342
2492.5	3360
2494.455	3232
2496.408	3325
2498.364	3267
2500.318	3346
2502.27	3293
2504.223	3289
2506.174	3385
2508.126	3392
2510.078	3290
2512.03	3287
2513.979	3272
2515.927	3323
2517.877	3356
2519.826	3333
2521.775	3331
2523.722	3358
2525.668	3305
2527.616	3399
2529.561	3314
2531.508	3313
2533.452	3331
2535.398	3354
2537.342	3307
2539.284	3274
2541.229	3293
2543.173	3332
2545.114	3242
2547.055	3342
2548.996	3350
2550.938	3360
2552.878	3289
2554.817	3379
2556.756	3342
2558.695	3321
2560.633	3307
2562.572	3354
2564.509	3296
2566.445	3335
2568.382	3298
2570.317	3352
2572.254	3372
2574.189	3352
2576.123	3277
2578.057	3277
2579.99	3271
2581.923	3346
2583.855	3303
2585.788	3363
2587.719	3333
2589.65	3289
2591.579	3340
2593.511	3343
2595.44	3299
2597.37	3295
2599.297	3388
2601.225	3340
2603.153	3288
2605.08	3270
2607.007	3312
2608.932	3343
2610.858	3323
2612.782	3370
2614.709	3331
2616.632	3346
2618.556	3347
2620.478	3302
2622.401	3359
2624.324	3309
2626.247	3322
2628.167	3335
2630.088	3227
2632.008	3386
2633.928	3388
2635.848	3269
2637.766	3322
2639.684	3292
2641.603	3195
2643.519	3357
2645.437	3332
2647.353	3347
2649.27	3350
2651.184	3362
2653.099	3322
2655.014	3289
2656.928	3284
2658.842	3355
2660.755	3285
2662.667	3355
2664.579	3294
2666.491	3378
2668.402	3348
2670.312	3234
2672.222	3439
2674.132	3373
2676.042	3289
2677.951	3254
2679.859	3343
2681.766	3276
2683.674	3335
2685.582	3334
2687.488	3263
2689.392	3351
2691.298	3290
2693.202	3268
2695.107	3332
2697.012	3333
2698.914	3328
2700.817	3288
2702.72	3301
2704.622	3270
2706.524	3210
2708.425	3261
2710.326	3287
2712.225	3339
2714.125	3296
2716.024	3260
2717.923	3246
2719.822	3263
2721.719	3314
2723.616	3267
2725.512	3345
2727.41	3324
2729.305	3221
2731.201	3311
2733.095	3324
2734.99	3312
2736.884	3305
2738.778	3388
2740.67	3261
2742.562	3277
2744.455	3244
2746.346	3337
2748.238	3365
2750.129	3335
2752.018	3225
2753.907	3229
2755.797	3293
2757.687	3304
2759.575	3262
2761.462	3319
2763.349	3280
2765.237	3287
2767.124	3334
2769.009	3317
2770.894	3280
2772.779	3311
2774.663	3318
2776.547	3264
2778.431	3252
2780.314	3292
2782.197	3343
2784.078	3287
2785.96	3333
2787.842	3329
2789.723	3250
2791.603	3249
2793.483	3265
2795.362	3260
2797.241	3275
2799.121	3221
2800.997	3254
2802.874	3256
2804.751	3263
2806.628	3231
2808.506	3280
2810.38	3216
2812.255	3295
2814.13	3274
2816.003	3260
2817.878	3304
2819.752	3298
2821.623	3259
2823.496	3244
2825.368	3300
2827.238	3283
2829.111	3242
2830.98	3216
2832.851	3236
2834.719	3288
2836.589	3238
2838.458	3215
2840.327	3243
2842.193	3320
2844.061	3287
2845.927	3280
2847.794	3295
2849.66	3332
2851.525	3296
2853.39	3307
2855.254	3302
2857.117	3296
2858.983	3412
2860.845	3356
2862.707	3416
2864.569	3437
2866.431	3429
2868.293	3415
2870.154	3445
2872.013	3503
2873.873	3418
2875.733	3502
2877.592	3576
2879.451	3627
2881.309	3570
2883.166	3546
2885.022	3645
2886.879	3680
2888.736	3592
2890.591	3603
2892.446	3654
2894.301	3702
2896.155	3635
2898.009	3601
2899.863	3703
2901.716	3628
2903.568	3668
2905.419	3579
2907.27	3608
2909.123	3638
2910.973	3583
2912.824	3680
2914.673	3662
2916.521	3658
2918.372	3729
2920.22	3805
2922.067	3916
2923.914	3859
2925.761	3922
2927.607	3954
2929.455	3900
2931.301	3997
2933.144	3981
2934.99	4011
2936.833	4056
2938.678	4058
2940.522	4151
2942.364	4165
2944.207	4256
2946.048	4214
2947.891	4232
2949.731	4179
2951.571	4265
2953.412	4303
2955.25	4194
2957.09	4128
2958.93	4143
2960.767	4072
2962.606	4027
2964.443	4086
2966.279	4072
2968.116	4048
2969.953	3944
2971.788	3906
2973.623	3819
2975.457	3676
2977.292	3796
2979.127	3740
2980.959	3764
2982.792	3698
2984.624	3708
2986.455	3618
2988.288	3801
2990.119	3627
2991.949	3649
2993.779	3561
2995.608	3591
2997.439	3506
2999.268	3497
3001.096	3549
3002.923	3570
3004.751	3443
3006.578	3438
3008.406	3377
3010.232	3356
3012.057	3280
3013.883	3271
3015.706	3267
3017.532	3183
3019.356	3244
3021.179	3235
3023.002	3270
3024.823	3168
3026.646	3258
3028.469	3188
3030.289	3206
3032.11	3194
3033.93	3192
3035.749	3144
3037.57	3193
3039.39	3167
3041.207	3170
3043.026	3152
3044.842	3126
3046.661	3130
3048.477	3156
3050.294	3127
3052.109	3157
3053.925	3080
3055.739	3153
3057.555	3220
3059.368	3049
3061.181	3096
3062.995	3191
3064.807	3134
3066.62	3141
3068.433	3114
3070.243	3143
3072.054	3111
3073.865	3135
3075.675	3113
3077.485	3116
3079.293	3086
3081.102	3099
3082.911	3134
3084.719	3054
3086.527	3051
3088.333	3097
3090.139	3041
3091.945	2991
3093.75	3080
3095.557	3040
3097.361	3092
3099.165	3059
3100.969	3060
3102.772	3002
3104.575	2978
3106.379	3017
3108.181	3027
3109.982	3122
3111.783	3027
3113.584	3093
3115.386	3026
3117.186	3061
3118.985	3020
3120.783	3075
3122.582	3008
3124.381	3012
3126.179	3003
3127.975	3019
3129.772	2990
3131.569	3020
3133.365	3021
3135.161	3028
3136.956	3014
3138.751	3024
3140.544	2972
3142.338	3069
3144.132	2935
3145.925	2982
3147.717	3047
3149.509	2965
3151.301	3018
3153.091	2957
3154.884	2997
3156.673	2971
3158.462	3003
3160.252	2943
3162.041	2916
3163.831	2962
3165.618	2907
3167.405	3005
3169.193	3037
3170.979	2921
3172.767	2932
3174.553	3013
3176.338	2967
3178.123	2926
3179.907	2991
3181.692	2891
3183.477	3015
3185.259	2922
3187.042	2942
3188.824	2968
3190.607	2974
3192.389	2917
3194.17	2961
3195.951	3012
3197.73	3021
3199.51	2977
3201.289	2951
3203.07	2967
3204.848	2958
3206.626	2928
3208.403	2996
3210.18	2985
3211.959	2935
3213.735	2976
3215.511	2985
3217.285	2974
3219.06	2960
3220.836	3007
3222.611	3004
3224.384	2948
3226.158	2958
3227.929	2968
3229.702	2947
3231.476	3033
3233.248	2953
3235.018	3022
3236.789	2911
3238.56	2911
3240.33	2933
3242.1	2894
3243.869	2922
3245.637	2922
3247.405	3033
3249.172	2940
3250.941	2971
3252.707	2903
3254.474	2946
3256.24	3007
3258.006	2949
3259.772	2967
3261.537	2951
3263.301	3027
3265.065	2942
3266.828	2940
3268.592	2974
3270.355	2955
3272.117	3005
3273.878	3012
3275.64	3029
3277.401	2881
3279.162	2931
3280.922	2958
3282.682	2920
3284.441	3021
3286.199	3059
3287.959	2904
3289.716	2957
3291.475	2977
3293.232	2983
3294.988	3029
3296.744	2999
3298.501	2987
3300.256	2967
3302.011	2948
3303.766	3004
3305.52	3028
3307.275	2976
3309.028	2924
3310.781	2961
3312.533	2965
3314.285	2954
3316.038	2942
3317.789	2978
3319.54	3007
3321.289	2944
3323.039	3035
3324.789	2994
3326.539	2946
3328.288	2989
3330.035	3059
3331.783	2952
3333.531	2917
3335.28	2936
3337.025	2967
3338.771	2984
3340.518	2995
3342.262	2916
3344.009	2958
3345.753	2942
3347.497	2876
3349.24	2967
3350.983	2896
3352.726	2934
3354.469	2899
3356.212	2901
3357.952	2937
3359.694	2905
3361.434	2888
3363.176	2908
3364.916	2980
3366.654	2943
3368.394	2989
3370.132	2882
3371.871	2948
3373.61	2871
3375.346	2909
3377.083	2873
3378.82	2902
3380.556	2920
3382.292	2886
3384.027	2909
3385.763	2922
3387.497	2866
3389.231	2871
3390.965	2911
3392.698	2848
3394.431	2896
3396.164	2867
3397.896	2882
3399.627	2924
3401.36	2859
3403.09	2887
3404.82	2879
3406.55	2855
3408.279	2868
3410.01	2924
3411.738	2913
3413.467	2885
3415.194	2856
3416.92	2842
3418.647	2877
3420.375	2823
3422.102	2850
3423.827	2878
3425.553	2811
3427.277	2917
3429.003	2801
3430.727	2834
3432.451	2827
3434.173	2824
3435.896	2799
3437.62	2795
3439.343	2863
3441.063	2798
3442.785	2807
3444.505	2811
3446.226	2795
3447.948	2828
3449.666	2864
3451.386	2832
3453.104	2852
3454.823	2785
3456.541	2737
3458.259	2804
3459.976	2820
3461.693	2792
3463.408	2816
3465.125	2783
3466.841	2757
3468.556	2689
3470.271	2804
3471.985	2732
3473.698	2716
3475.414	2700
3477.126	2738
3478.838	2690
3480.55	2708
3482.263	2711
3483.975	2780
3485.686	2716
3487.396	2725
3489.106	2739
3490.817	2694
3492.526	2745
3494.236	2669
3495.944	2735
3497.652	2683
3499.359	2689
3501.066	2652
3502.775	2655
3504.481	2696
3506.187	2669
3507.893	2698
3509.598	2637
3511.304	2647
3513.009	2625
3514.713	2674
3516.417	2625
3518.12	2676
3519.821	2661
3521.525	2649
3523.228	2641
3524.929	2637
3526.631	2589
3528.33	2679
3530.032	2618
3531.733	2712
3533.433	2662
3535.131	2644
3536.83	2628
3538.529	2617
3540.227	2637
3541.925	2626
3543.623	2576
3545.319	2625
3547.016	2598
3548.712	2595
3550.408	2586
3552.103	2607
3553.798	2571
3555.491	2583
3557.188	2572
3558.88	2611
3560.574	2633
3562.266	2639
3563.959	2517
3565.651	2593
3567.343	2594
3569.035	2580
3570.725	2538
3572.415	2564
3574.106	2589
3575.797	2559
3577.485	2582
3579.174	2592
3580.863	2605
3582.551	2537
3584.238	2561
3585.926	2544
3587.613	2485
3589.3	2478
3590.986	2568
3592.671	2528
3594.357	2504
3596.042	2523
3597.726	2551
3599.41	2562
3601.094	2519
3602.778	2553
3604.461	2482
3606.143	2496
3607.825	2560
3609.507	2516
3611.188	2562
3612.87	2470
3614.551	2546
3616.229	2494
3617.909	2529
3619.589	2491
3621.269	2478
3622.948	2449
3624.625	2481
3626.302	2486
3627.98	2470
3629.657	2466
3631.334	2502
3633.01	2446
3634.686	2452
3636.361	2444
3638.036	2425
3639.712	2434
3641.385	2414
3643.06	2484
3644.732	2423
3646.405	2486
3648.08	2427
3649.751	2413
3651.424	2457
3653.094	2404
3654.766	2436
3656.436	2407
3658.106	2383
3659.777	2427
3661.446	2425
3663.115	2340
3664.783	2405
3666.452	2337
3668.121	2438
3669.788	2386
3671.454	2408
3673.121	2343
3674.789	2340
3676.455	2418
3678.12	2364
3679.784	2373
3681.45	2338
3683.114	2354
3684.779	2324
3686.442	2385
3688.105	2372
3689.768	2313
3691.43	2418
3693.093	2410
3694.754	2416
3696.415	2381
3698.076	2381
3699.736	2378
3701.396	2355
3703.057	2349
3704.716	2318
3706.375	2306
3708.034	2343
3709.692	2315
3711.351	2328
3713.008	2343
3714.665	2294
3716.321	2315
3717.977	2280
3719.634	2325
3721.29	2327
3722.945	2403
3724.598	2302
3726.253	2361
3727.907	2312
3729.561	2300
3731.214	2360
3732.867	2310
3734.518	2332
3736.171	2331
3737.824	2237
3739.474	2298
3741.125	2343
3742.775	2282
3744.425	2250
3746.074	2343
3747.725	2330
3749.373	2267
3751.022	2280
3752.669	2261
3754.318	2328
3755.966	2359
3757.612	2245
3759.259	2347
3760.905	2297
3762.55	2281
3764.197	2319
3765.842	2250
3767.486	2305
3769.131	2312
3770.774	2270
3772.417	2248
3774.061	2303
3775.705	2273
3777.347	2279
3778.988	2203
3780.629	2257
3782.271	2247
3783.912	2287
3785.552	2296
3787.192	2263
3788.831	2269
3790.472	2261
3792.112	2207
3793.75	2244
3795.388	2232
3797.024	2227
3798.661	2229
3800.3	2252
3801.936	2290
3803.572	2166
3805.208	2203
3806.844	2243
3808.48	2161
3810.115	2242
3811.748	2214
3813.382	2252
3815.016	2218
3816.649	2197
3818.283	2220
3819.914	2283
3821.547	2219
3823.178	2189
3824.809	2213
3826.441	2197
3828.072	2208
3829.701	2221
3831.331	2199
3832.96	2233
3834.591	2190
3836.219	2247
3837.847	2225
3839.475	2177
3841.102	2200
3842.729	2168
3844.357	2215
3845.984	2189
3847.609	2191
3849.234	2209
3850.86	2190
3852.485	2275
3854.11	2173
3855.734	2238
3857.357	2188
3858.981	2178
3860.603	2164
3862.227	2184
3863.848	2164
3865.471	2178
3867.092	2142
3868.713	2146
3870.334	2142
3871.954	2161
3873.575	2184
3875.194	2123
3876.813	2126
3878.433	2170
3880.051	2132
3881.669	2178
3883.286	2116
3884.904	2148
3886.52	2204
3888.138	2115
3889.754	2108
3891.37	2183
3892.985	2165
3894.6	2142
3896.216	2109
3897.831	2183
3899.444	2188
3901.058	2128
3902.67	2129
3904.283	2173
3905.897	2127
3907.509	2092
3909.121	2106
3910.731	2164
3912.342	2124
3913.954	2139
3915.563	2133
3917.174	2074
3918.783	2084
3920.391	2160
3922.002	2116
3923.611	2145
3925.218	2111
3926.826	2151
3928.432	2157
3930.039	2080
3931.647	2119
3933.253	2156
3934.859	2084
3936.464	2129
3938.068	2089
3939.675	2129
3941.278	2195
3942.883	2107
3944.486	2113
3946.089	2123
3947.692	2130
3949.295	2130
3950.898	2102
3952.499	2117
3954.1	2098
3955.7	2126
3957.303	2047
3958.903	2072
3960.502	2171
3962.101	2130
3963.7	2058
3965.301	2085
3966.899	2047
3968.497	2133
3970.094	2056
3971.691	2102
3973.288	2079
3974.885	2057
3976.481	2019
3978.077	2056
3979.672	2053
3981.267	2081
3982.863	1983
3984.457	2090
3986.051	2044
3987.645	2090
3989.238	2028
3990.831	2020
3992.425	2017
3994.017	2075
3995.607	2107
3997.199	2026
3998.79	2033
4000.382	2009
4001.973	2003
4003.561	1966
4005.151	2011
4006.741	1980
4008.331	2022
4009.918	1991
4011.507	2003
4013.095	1998
4014.681	1990
4016.269	2006
4017.856	1988
4019.443	2033
4021.028	1995
4022.614	2010
4024.199	1946
4025.785	2026
4027.37	2067
4028.953	2064
4030.536	1993
4032.12	2043
4033.704	2049
4035.287	2035
4036.869	1953
4038.45	1965
4040.032	2011
4041.613	2011
4043.195	2026
4044.776	2007
4046.356	1991
4047.935	1945
4049.515	1996
4051.095	1957
4052.674	1940
4054.251	1990
4055.829	1979
4057.406	1965
4058.985	2010
4060.562	1944
4062.139	1912
4063.715	1942
4065.29	1982
4066.865	1971
4068.442	1966
4070.016	1931
4071.59	2017
4073.164	1897
4074.738	1970
4076.312	1875
4077.885	1926
4079.458	1938
4081.03	1961
4082.602	1937
4084.173	1900
4085.745	1956
4087.315	1944
4088.886	1884
4090.456	1966
4092.026	1924
4093.596	1927
4095.165	1965
4096.734	1933
4098.301	1903
4099.869	1908
4101.437	1934
4103.006	1958
4104.572	1963
4106.139	1902
4107.704	1934
4109.27	1903
4110.837	1941
4112.401	1935
4113.966	1927
4115.53	1920
4117.094	1915
4118.659	1915
4120.223	1903
4121.785	1881
4123.347	1911
4124.909	1861
4126.471	1916
4128.034	1882
4129.595	1899
4131.155	1889
4132.716	1890
4134.275	1911
4135.836	1847
4137.395	1883
4138.955	1921
4140.513	1893
4142.071	1901
4143.628	1847
4145.188	1846
4146.745	1889
4148.302	1839
4149.858	1872
4151.414	1876
4152.971	1856
4154.526	1879
4156.081	1850
4157.635	1854
4159.189	1864
4160.745	1842
4162.298	1845
4163.852	1883
4165.405	1885
4166.957	1820
4168.51	1845
4170.063	1780
4171.614	1858
4173.166	1868
4174.717	1836
4176.267	1836
4177.817	1776
4179.368	1834
4180.917	1823
4182.466	1847
4184.016	1873
4185.564	1803
4187.112	1836
4188.66	1818
4190.207	1779
4191.754	1797
4193.301	1798
4194.848	1825
4196.394	1837
4197.94	1815
4199.484	1851
4201.03	1766
4202.575	1815
4204.12	1787
4205.663	1816
4207.207	1776
4208.75	1821
4210.292	1808
4211.836	1758
4213.378	1804
4214.92	1795
4216.46	1767
4218.002	1850
4219.544	1766
4221.083	1774
4222.625	1817
4224.164	1828
4225.703	1804
4227.244	1778
4228.782	1793
4230.32	1850
4231.857	1743
4233.395	1786
4234.933	1752
4236.471	1802
4238.007	1788
4239.542	1757
4241.078	1786
4242.614	1745
4244.15	1790
4245.685	1776
4247.219	1845
4248.753	1712
4250.287	1776
4251.82	1788
4253.354	1739
4254.887	1736
4256.419	1737
4257.951	1708
4259.483	1745
4261.016	1787
4262.547	1750
4264.078	1752
4265.608	1708
4267.137	1806
4268.668	1766
4270.197	1750
4271.727	1714
4273.254	1779
4274.783	1743
4276.311	1754
4277.84	1757
4279.366	1724
4280.894	1778
4282.42	1724
4283.946	1800
4285.473	1751
4286.998	1703
4288.523	1733
4290.047	1739
4291.572	1705
4293.096	1703
4294.622	1766
4296.144	1708
4297.668	1716
4299.19	1718
4300.713	1745
4302.236	1750
4303.758	1759
4305.279	1723
4306.799	1726
4308.321	1695
4309.842	1722
4311.361	1770
4312.882	1724
4314.401	1694
