400.0961	3546
402.6185	3507
405.1424	3556
407.6635	3580
410.1838	3602
412.7035	3702
415.2225	3604
417.7388	3565
420.2585	3619
422.7754	3734
425.2917	3722
427.8072	3622
430.3221	3712
432.8363	3655
435.3498	3792
437.8626	3778
440.3727	3744
442.8841	3807
445.3969	3765
447.907	3746
450.4142	3802
452.9229	3781
455.4289	3814
457.9362	3806
460.4449	3725
462.9488	3787
465.454	3704
467.9566	3714
470.4604	3757
472.9637	3751
475.4662	3867
477.966	3812
480.4671	3853
482.9656	3814
485.4633	3903
487.9645	3759
490.4608	3852
492.9566	3943
495.4536	3888
497.948	3797
500.4437	3897
502.9387	3782
505.431	3962
507.9226	3871
510.4136	3899
512.9079	3885
515.3975	3920
517.8864	3881
520.3746	3861
522.8622	3853
525.3491	3918
527.8394	3931
530.3249	3958
532.8098	3926
535.2939	3887
537.7774	3970
540.2623	3963
542.7444	3881
545.2259	3889
547.7067	3966
550.1868	4043
552.6683	4040
555.147	3960
557.6231	3940
560.1005	3948
562.5773	3951
565.0534	3948
567.5308	4078
570.0056	3983
572.4776	4028
574.951	3869
577.4237	4050
579.8978	4165
582.3671	4018
584.8378	4069
587.3079	4032
589.7773	3950
592.244	4113
594.714	4024
597.1793	4082
599.6461	4010
602.1121	4086
604.5754	4060
607.0421	4136
609.5042	4087
611.9675	4000
614.4282	4060
616.8902	4049
619.3515	4004
621.8122	4040
624.2702	4020
626.7296	3991
629.1863	3965
631.6423	3983
634.1017	4012
636.5563	4037
639.0104	4035
641.4658	4034
643.9185	4083
646.3725	4022
648.8239	4111
651.2766	4116
653.7266	4111
656.176	4200
658.6247	4089
661.0748	4115
663.5242	4191
665.9709	4143
668.417	4185
670.8624	4107
673.3092	4124
675.7533	4190
678.1968	4033
680.6395	4191
683.0817	4254
685.5251	4248
687.9659	4240
690.4061	4150
692.8456	4203
695.2844	4265
697.7226	4198
700.1621	4284
702.599	4248
705.0332	4143
707.4688	4230
709.9036	4360
712.3399	4273
714.7735	4345
717.2044	4311
719.6367	4242
722.0683	4296
724.4993	4306
726.9296	4369
729.3593	4389
731.7883	4225
734.2147	4342
736.6423	4383
739.0714	4343
741.4958	4316
743.9216	4420
746.3447	4501
748.7691	4384
751.1929	4411
753.616	4448
756.0366	4414
758.4584	4511
760.8776	4439
763.2982	4462
765.718	4478
768.1373	4564
770.5539	4419
772.9698	4492
775.3871	4500
777.8038	4528
780.2178	4462
782.6332	4527
785.0459	4550
787.458	4557
789.8714	4493
792.2842	4471
794.6943	4433
797.1038	4505
799.5127	4397
801.9209	4471
804.3324	4524
806.7393	4503
809.1456	4656
811.5513	4485
813.9562	4496
816.3625	4587
818.7663	4531
821.1693	4576
823.5718	4622
825.9735	4569
828.3746	4498
830.7771	4574
833.177	4570
835.5762	4499
837.9747	4589
840.3727	4620
842.772	4529
845.1666	4570
847.5626	4614
849.958	4643
852.3527	4650
854.7488	4714
857.1403	4674
859.5331	4715
861.9253	4644
864.3168	4606
866.7057	4656
869.098	4611
871.4876	4613
873.8746	4649
876.263	4666
878.6487	4691
881.0378	4547
883.4243	4677
885.8081	4646
888.1933	4634
890.5759	4568
892.9598	4664
895.343	4714
897.7256	4658
900.1057	4523
902.4871	4607
904.8659	4708
907.246	4596
909.6254	4788
912.0023	4711
914.3786	4806
916.7562	4863
919.1331	4825
921.5074	5006
923.8831	4839
926.2562	4947
928.6287	4828
931.0005	4896
933.3757	4773
935.7462	4863
938.1162	4803
940.4855	4944
942.8542	4919
945.2242	4938
947.5916	4966
949.9584	5094
952.3266	5002
954.6921	5213
957.0571	5182
959.4233	5233
961.787	5235
964.15	5222
966.5125	5224
968.8742	5241
971.2354	5005
973.5959	5115
975.9559	4844
978.3151	4887
980.6738	4866
983.0338	4868
985.3912	4825
987.7461	4779
990.1022	4758
992.4578	4836
994.8127	4756
997.1689	4727
999.5207	4759
1001.874	4905
1004.226	4835
1006.576	4751
1008.929	4857
1011.28	4784
1013.628	4778
1015.977	4700
1018.324	4832
1020.674	4809
1023.019	4878
1025.366	4830
1027.713	4778
1030.056	4859
1032.399	4748
1034.746	4865
1037.087	4914
1039.431	4912
1041.771	4839
1044.113	4871
1046.454	4848
1048.793	4989
1051.133	4861
1053.471	4853
1055.807	4961
1058.146	4896
1060.483	4895
1062.818	4950
1065.153	4856
1067.489	4948
1069.822	4963
1072.156	4856
1074.488	4863
1076.82	4941
1079.15	5008
1081.48	4930
1083.814	4927
1086.143	4890
1088.471	4903
1090.799	4942
1093.126	4909
1095.452	4963
1097.78	4925
1100.105	5023
1102.43	4846
1104.754	4864
1107.077	4935
1109.4	4915
1111.722	4967
1114.044	4999
1116.365	4942
1118.685	4967
1121.005	4860
1123.324	4976
1125.643	5052
1127.961	4998
1130.278	5014
1132.595	5116
1134.911	5023
1137.226	4927
1139.541	4977
1141.854	4959
1144.167	4901
1146.482	4912
1148.793	5013
1151.105	4945
1153.414	4925
1155.725	5018
1158.033	4952
1160.344	4984
1162.651	4975
1164.959	4990
1167.265	4959
1169.572	4922
1171.878	4874
1174.184	4926
1176.488	4949
1178.79	5098
1181.094	5131
1183.396	4968
1185.699	5087
1188.001	4945
1190.301	4976
1192.6	4933
1194.9	4990
1197.2	5026
1199.497	5014
1201.794	5005
1204.09	4941
1206.387	5020
1208.684	5042
1210.978	5012
1213.272	4932
1215.565	5037
1217.858	5082
1220.15	4949
1222.443	4928
1224.734	5074
1227.024	5131
1229.313	5078
1231.602	5025
1233.892	5130
1236.18	5054
1238.467	5145
1240.754	5240
1243.04	5122
1245.325	5203
1247.612	5153
1249.896	5170
1252.178	5221
1254.461	5198
1256.743	5257
1259.027	5215
1261.308	5173
1263.587	5160
1265.867	5180
1268.146	5250
1270.425	5268
1272.703	5192
1274.981	5191
1277.256	5199
1279.532	5240
1281.808	5110
1284.083	5085
1286.358	5149
1288.63	5120
1290.904	5116
1293.175	5191
1295.449	5108
1297.719	5127
1299.99	5067
1302.259	5118
1304.529	5130
1306.798	5158
1309.065	5156
1311.333	5195
1313.599	5149
1315.866	5089
1318.131	5169
1320.396	5131
1322.66	5181
1324.925	5101
1327.187	5135
1329.448	5221
1331.711	5261
1333.974	5208
1336.234	5294
1338.493	5210
1340.752	5156
1343.01	5079
1345.269	5168
1347.526	5099
1349.784	5149
1352.04	5091
1354.295	5094
1356.552	5115
1358.806	5059
1361.059	5114
1363.312	5124
1365.564	5056
1367.818	5155
1370.069	5181
1372.318	5193
1374.568	5199
1376.817	5300
1379.066	5157
1381.316	5175
1383.564	5151
1385.809	5219
1388.056	5294
1390.301	5255
1392.549	5381
1394.793	5418
1397.036	5390
1399.279	5442
1401.522	5348
1403.763	5485
1406.007	5486
1408.248	5404
1410.487	5428
1412.727	5426
1414.965	5361
1417.205	5316
1419.442	5317
1421.68	5314
1423.915	5365
1426.152	5335
1428.388	5320
1430.623	5317
1432.857	5379
1435.091	5357
1437.323	5408
1439.556	5433
1441.789	5515
1444.019	5357
1446.25	5401
1448.48	5440
1450.708	5539
1452.938	5435
1455.167	5481
1457.394	5562
1459.62	5472
1461.846	5458
1464.073	5382
1466.299	5476
1468.523	5461
1470.746	5401
1472.969	5306
1475.191	5329
1477.415	5326
1479.636	5185
1481.858	5188
1484.078	5301
1486.298	5225
1488.518	5287
1490.736	5179
1492.954	5172
1495.169	5113
1497.386	5144
1499.602	5146
1501.819	5241
1504.034	5081
1506.248	5139
1508.462	5084
1510.675	5096
1512.888	4987
1515.1	5017
1517.311	5173
1519.522	5227
1521.732	5245
1523.942	5169
1526.151	5143
1528.36	5050
1530.566	5125
1532.773	5183
1534.98	5235
1537.187	5201
1539.392	5220
1541.596	5101
1543.801	5175
1546.005	5180
1548.208	5217
1550.411	5222
1552.612	5145
1554.814	5195
1557.013	5177
1559.212	5179
1561.414	5232
1563.612	5262
1565.811	5275
1568.007	5262
1570.203	5301
1572.403	5323
1574.598	5239
1576.792	5333
1578.988	5228
1581.181	5318
1583.376	5290
1585.568	5367
1587.761	5242
1589.952	5289
1592.143	5349
1594.333	5404
1596.524	5345
1598.715	5349
1600.903	5363
1603.091	5331
1605.278	5393
1607.466	5339
1609.652	5448
1611.838	5392
1614.023	5377
1616.207	5328
1618.391	5361
1620.576	5419
1622.759	5393
1624.941	5327
1627.123	5411
1629.304	5431
1631.484	5318
1633.664	5444
1635.844	5424
1638.022	5420
1640.201	5455
1642.38	5365
1644.556	5464
1646.732	5456
1648.908	5457
1651.084	5515
1653.257	5429
1655.433	5261
1657.607	5480
1659.779	5526
1661.951	5427
1664.122	5530
1666.295	5476
1668.467	5479
1670.635	5441
1672.805	5460
1674.973	5550
1677.142	5529
1679.31	5545
1681.478	5405
1683.644	5396
1685.81	5449
1687.975	5402
1690.142	5392
1692.305	5396
1694.468	5381
1696.632	5388
1698.794	5434
1700.957	5389
1703.119	5387
1705.279	5344
1707.439	5347
1709.598	5409
1711.758	5317
1713.917	5338
1716.075	5293
1718.231	5382
1720.388	5359
1722.543	5268
1724.702	5342
1726.856	5215
1729.01	5330
1731.164	5309
1733.317	5328
1735.471	5292
1737.623	5331
1739.774	5349
1741.925	5313
1744.075	5343
1746.225	5340
1748.376	5362
1750.524	5269
1752.672	5278
1754.82	5237
1756.965	5456
1759.113	5486
1761.259	5354
1763.405	5349
1765.549	5420
1767.694	5405
1769.836	5429
1771.981	5403
1774.123	5401
1776.264	5480
1778.405	5305
1780.546	5387
1782.687	5383
1784.827	5364
1786.966	5457
1789.103	5394
1791.242	5412
1793.381	5407
1795.517	5429
1797.653	5414
1799.788	5351
1801.923	5398
1804.057	5399
1806.193	5376
1808.326	5411
1810.457	5400
1812.59	5390
1814.721	5505
1816.855	5395
1818.984	5389
1821.113	5354
1823.244	5367
1825.372	5413
1827.499	5344
1829.63	5291
1831.756	5312
1833.882	5336
1836.007	5306
1838.132	5349
1840.26	5316
1842.384	5406
1844.507	5260
1846.63	5304
1848.752	5301
1850.875	5297
1852.996	5328
1855.118	5286
1857.238	5355
1859.358	5445
1861.477	5299
1863.597	5272
1865.715	5292
1867.832	5334
1869.948	5377
1872.064	5304
1874.181	5320
1876.297	5251
1878.411	5256
1880.526	5384
1882.639	5212
1884.752	5482
1886.865	5382
1888.977	5281
1891.089	5359
1893.2	5290
1895.308	5296
1897.42	5330
1899.53	5283
1901.639	5328
1903.745	5303
1905.853	5429
1907.962	5375
1910.067	5446
1912.174	5380
1914.278	5457
1916.383	5396
1918.486	5408
1920.592	5490
1922.694	5341
1924.797	5427
1926.898	5463
1929	5505
1931.102	5388
1933.203	5349
1935.301	5465
1937.401	5416
1939.499	5364
1941.598	5495
1943.697	5387
1945.793	5436
1947.888	5443
1949.985	5497
1952.08	5462
1954.176	5400
1956.269	5446
1958.364	5392
1960.457	5476
1962.549	5452
1964.642	5428
1966.733	5324
1968.823	5316
1970.913	5317
1973.005	5411
1975.093	5419
1977.184	5390
1979.271	5346
1981.359	5460
1983.446	5365
1985.532	5325
1987.619	5401
1989.705	5375
1991.789	5290
1993.874	5432
1995.956	5450
1998.041	5430
2000.123	5420
2002.206	5416
2004.287	5368
2006.368	5336
2008.449	5359
2010.529	5394
2012.609	5404
2014.688	5296
2016.766	5258
2018.843	5393
2020.922	5352
2022.999	5343
2025.074	5331
2027.15	5362
2029.225	5287
2031.299	5411
2033.375	5294
2035.447	5379
2037.52	5278
2039.592	5368
2041.664	5381
2043.736	5286
2045.807	5419
2047.876	5288
2049.947	5442
2052.015	5436
2054.086	5417
2056.153	5322
2058.221	5350
2060.288	5351
2062.353	5429
2064.42	5378
2066.486	5365
2068.55	5328
2070.614	5403
2072.678	5353
2074.741	5354
2076.805	5473
2078.866	5346
2080.929	5344
2082.99	5414
2085.049	5397
2087.109	5373
2089.17	5335
2091.228	5448
2093.286	5331
2095.344	5506
2097.4	5386
2099.46	5259
2101.516	5451
2103.572	5299
2105.626	5376
2107.679	5408
2109.735	5421
2111.788	5368
2113.841	5328
2115.894	5408
2117.945	5437
2119.997	5346
2122.049	5409
2124.1	5373
2126.148	5311
2128.197	5446
2130.246	5378
2132.296	5295
2134.342	5385
2136.39	5312
2138.437	5265
2140.483	5340
2142.527	5344
2144.574	5340
2146.619	5349
2148.661	5358
2150.705	5326
2152.747	5320
2154.792	5302
2156.832	5311
2158.874	5369
2160.915	5325
2162.954	5438
2164.995	5292
2167.034	5332
2169.072	5219
2171.111	5342
2173.148	5333
2175.186	5328
2177.223	5302
2179.258	5315
2181.294	5336
2183.328	5182
2185.362	5371
2187.398	5198
2189.431	5265
2191.463	5387
2193.495	5323
2195.528	5306
2197.56	5387
2199.59	5284
2201.62	5256
2203.649	5269
2205.678	5261
2207.708	5306
2209.737	5261
2211.764	5245
2213.791	5292
2215.817	5204
2217.843	5221
2219.87	5272
2221.895	5244
2223.919	5216
2225.942	5307
2227.966	5225
2229.988	5187
2232.012	5264
2234.032	5256
2236.054	5170
2238.074	5221
2240.095	5189
2242.116	5153
2244.135	5231
2246.153	5181
2248.171	5181
2250.188	5246
2252.208	5296
2254.223	5167
2256.239	5260
2258.255	5206
2260.269	5169
2262.283	5300
2264.3	5271
2266.312	5249
2268.325	5162
2270.336	5179
2272.349	5177
2274.362	5298
2276.372	5212
2278.383	5250
2280.392	5216
2282.402	5173
2284.409	5262
2286.418	5196
2288.427	5227
2290.433	5182
2292.441	5239
2294.446	5358
2296.453	5139
2298.459	5202
2300.463	5269
2302.466	5171
2304.471	5251
2306.475	5160
2308.477	5157
2310.478	5217
2312.481	5269
2314.481	5196
2316.481	5313
2318.482	5187
2320.482	5198
2322.48	5157
2324.48	5156
2326.478	5146
2328.476	5159
2330.473	5169
2332.469	5225
2334.465	5074
2336.46	5222
2338.454	5148
2340.45	5222
2342.444	5132
2344.437	5166
2346.43	5185
2348.421	5102
2350.414	5187
2352.405	5075
2354.396	5138
2356.386	5174
2358.376	5163
2360.366	5115
2362.355	5095
2364.343	5109
2366.331	5187
2368.317	5046
2370.304	5057
2372.292	5104
2374.278	5140
2376.262	5085
2378.247	5026
2380.23	5021
2382.216	5140
2384.199	5136
2386.181	5037
2388.163	5172
2390.144	5065
2392.127	5144
2394.107	4914
2396.087	5160
2398.066	5045
2400.046	5007
2402.023	4937
2404.004	4963
2405.981	5078
2407.957	5089
2409.934	5068
2411.91	5055
2413.886	5044
2415.862	5029
2417.836	5082
2419.809	4989
2421.784	5026
2423.756	5089
2425.73	5089
2427.701	5036
2429.672	5037
2431.644	5056
2433.615	4926
2435.586	5042
2437.555	5044
2439.523	5040
2441.491	5038
2443.459	5061
2445.428	5075
2447.395	4963
2449.361	5064
2451.327	4999
2453.292	5008
2455.257	4893
2457.223	4970
2459.187	5038
2461.15	4928
2463.113	4990
2465.076	4971
2467.039	4995
2468.999	4999
2470.96	4938
2472.921	4874
2474.881	4939
2476.841	4934
2478.8	4985
2480.759	4943
2482.717	4910
2484.675	4923
2486.63	4975
2488.589	4999
2490.545	5009
2492.5	5004
2494.455	4988
2496.408	4958
2498.364	4964
2500.318	4964
2502.27	4912
2504.223	4894
2506.174	4935
2508.126	4960
2510.078	4955
2512.03	4938
2513.979	4955
2515.927	4989
2517.877	4897
2519.826	4877
2521.775	4896
2523.722	5054
2525.668	4963
2527.616	4862
2529.561	5040
2531.508	4895
2533.452	4955
2535.398	4880
2537.342	4924
2539.284	4913
2541.229	4890
2543.173	4946
2545.114	4908
2547.055	4899
2548.996	4900
2550.938	4887
2552.878	4845
2554.817	4925
2556.756	4887
2558.695	4833
2560.633	4938
2562.572	4785
2564.509	5021
2566.445	4858
2568.382	4983
2570.317	4871
2572.254	4885
2574.189	5011
2576.123	4859
2578.057	4834
2579.99	4905
2581.923	4838
2583.855	4970
2585.788	4894
2587.719	4870
2589.65	4928
2591.579	4877
2593.511	4931
2595.44	4892
2597.37	4997
2599.297	5002
2601.225	4959
2603.153	4909
2605.08	4805
2607.007	4905
2608.932	4935
2610.858	4901
2612.782	4797
2614.709	4949
2616.632	4933
2618.556	4837
2620.478	5008
2622.401	4932
2624.324	4825
2626.247	4929
2628.167	4974
2630.088	4944
2632.008	4889
2633.928	4942
2635.848	4885
2637.766	5028
2639.684	5006
2641.603	4960
2643.519	5037
2645.437	4954
2647.353	4893
2649.27	4931
2651.184	4979
2653.099	4960
2655.014	4897
2656.928	4958
2658.842	4982
2660.755	4846
2662.667	4860
2664.579	4886
2666.491	4856
2668.402	4872
2670.312	4905
2672.222	4877
2674.132	4869
2676.042	5014
2677.951	4907
2679.859	4796
2681.766	4747
2683.674	4882
2685.582	4790
2687.488	4894
2689.392	4820
2691.298	4768
2693.202	4852
2695.107	4802
2697.012	4832
2698.914	4910
2700.817	4836
2702.72	4854
2704.622	4874
2706.524	4820
2708.425	4734
2710.326	4830
2712.225	4769
2714.125	4801
2716.024	4834
2717.923	4837
2719.822	4788
2721.719	4818
2723.616	4811
2725.512	4940
2727.41	4819
2729.305	4765
2731.201	4770
2733.095	4865
2734.99	4891
2736.884	4867
2738.778	4825
2740.67	4803
2742.562	4790
2744.455	4816
2746.346	4860
2748.238	4794
2750.129	4941
2752.018	4736
2753.907	4797
2755.797	4849
2757.687	4763
2759.575	4695
2761.462	4820
2763.349	4790
2765.237	4823
2767.124	4831
2769.009	4792
2770.894	4772
2772.779	4713
2774.663	4801
2776.547	4819
2778.431	4728
2780.314	4774
2782.197	4803
2784.078	4816
2785.96	4808
2787.842	4879
2789.723	4682
2791.603	4769
2793.483	4705
2795.362	4702
2797.241	4780
2799.121	4764
2800.997	4766
2802.874	4706
2804.751	4675
2806.628	4669
2808.506	4664
2810.38	4743
2812.255	4769
2814.13	4821
2816.003	4778
2817.878	4783
2819.752	4799
2821.623	4771
2823.496	4767
2825.368	4716
2827.238	4755
2829.111	4730
2830.98	4695
2832.851	4727
2834.719	4772
2836.589	4796
2838.458	4894
2840.327	4709
2842.193	4767
2844.061	4763
2845.927	4802
2847.794	4869
2849.66	4784
2851.525	4762
2853.39	4851
2855.254	4857
2857.117	4858
2858.983	4903
2860.845	4870
2862.707	4865
2864.569	4849
2866.431	4959
2868.293	5101
2870.154	4988
2872.013	5001
2873.873	5022
2875.733	5169
2877.592	5059
2879.451	5126
2881.309	5165
2883.166	5161
2885.022	5273
2886.879	5224
2888.736	5225
2890.591	5128
2892.446	5333
2894.301	5246
2896.155	5325
2898.009	5224
2899.863	5316
2901.716	5291
2903.568	5171
2905.419	5238
2907.27	5274
2909.123	5280
2910.973	5225
2912.824	5262
2914.673	5253
2916.521	5292
2918.372	5438
2920.22	5454
2922.067	5459
2923.914	5347
2925.761	5453
2927.607	5458
2929.455	5555
2931.301	5491
2933.144	5493
2934.99	5670
2936.833	5676
2938.678	5755
2940.522	5748
2942.364	5807
2944.207	5849
2946.048	5933
2947.891	5975
2949.731	6001
2951.571	5986
2953.412	6016
2955.25	5885
2957.09	5751
2958.93	5798
2960.767	5718
2962.606	5859
2964.443	5626
2966.279	5655
2968.116	5416
2969.953	5482
2971.788	5447
2973.623	5371
2975.457	5315
2977.292	5345
2979.127	5339
2980.959	5305
2982.792	5164
2984.624	5204
2986.455	5061
2988.288	5006
2990.119	5160
2991.949	4995
2993.779	5036
2995.608	5035
2997.439	5037
2999.268	4930
3001.096	4832
3002.923	4813
3004.751	4916
3006.578	4852
3008.406	4731
3010.232	4745
3012.057	4744
3013.883	4685
3015.706	4689
3017.532	4640
3019.356	4642
3021.179	4618
3023.002	4583
3024.823	4535
3026.646	4653
3028.469	4500
3030.289	4590
3032.11	4568
3033.93	4603
3035.749	4468
3037.57	4551
3039.39	4493
3041.207	4438
3043.026	4461
3044.842	4534
3046.661	4464
3048.477	4488
3050.294	4498
3052.109	4449
3053.925	4466
3055.739	4471
3057.555	4514
3059.368	4439
3061.181	4486
3062.995	4410
3064.807	4538
3066.62	4456
3068.433	4505
3070.243	4465
3072.054	4462
3073.865	4422
3075.675	4447
3077.485	4458
3079.293	4479
3081.102	4436
3082.911	4428
3084.719	4381
3086.527	4396
3088.333	4484
3090.139	4427
3091.945	4384
3093.75	4394
3095.557	4328
3097.361	4444
3099.165	4444
3100.969	4261
3102.772	4385
3104.575	4405
3106.379	4422
3108.181	4260
3109.982	4320
3111.783	4367
3113.584	4322
3115.386	4347
3117.186	4336
3118.985	4313
3120.783	4382
3122.582	4330
3124.381	4336
3126.179	4305
3127.975	4290
3129.772	4227
3131.569	4430
3133.365	4256
3135.161	4271
3136.956	4259
3138.751	4262
3140.544	4234
3142.338	4261
3144.132	4229
3145.925	4252
3147.717	4308
3149.509	4310
3151.301	4256
3153.091	4155
3154.884	4121
3156.673	4316
3158.462	4193
3160.252	4141
3162.041	4317
3163.831	4138
3165.618	4267
3167.405	4229
3169.193	4176
3170.979	4324
3172.767	4315
3174.553	4205
3176.338	4236
3178.123	4159
3179.907	4141
3181.692	4240
3183.477	4280
3185.259	4141
3187.042	4191
3188.824	4166
3190.607	4161
3192.389	4242
3194.17	4178
3195.951	4266
3197.73	4210
3199.51	4218
3201.289	4132
3203.07	4140
3204.848	4114
3206.626	4147
3208.403	4202
3210.18	4134
3211.959	4176
3213.735	4195
3215.511	4149
3217.285	4061
3219.06	4075
3220.836	4197
3222.611	4101
3224.384	4127
3226.158	4120
3227.929	4154
3229.702	4174
3231.476	4104
3233.248	4175
3235.018	4149
3236.789	4139
3238.56	4143
3240.33	4121
3242.1	4079
3243.869	4128
3245.637	4155
3247.405	4138
3249.172	4189
3250.941	4222
3252.707	4088
3254.474	4119
3256.24	4056
3258.006	4159
3259.772	4121
3261.537	4073
3263.301	4094
3265.065	4048
3266.828	4150
3268.592	4087
3270.355	4145
3272.117	4174
3273.878	4127
3275.64	4101
3277.401	4145
3279.162	4044
3280.922	4262
3282.682	4064
3284.441	4194
3286.199	4123
3287.959	4135
3289.716	4149
3291.475	4205
3293.232	4151
3294.988	4090
3296.744	4107
3298.501	4177
3300.256	4113
3302.011	4114
3303.766	4038
3305.52	4091
3307.275	4015
3309.028	4102
3310.781	4111
3312.533	4081
3314.285	4141
3316.038	4084
3317.789	4082
3319.54	4009
3321.289	4099
3323.039	4134
3324.789	3993
3326.539	4148
3328.288	4136
3330.035	4116
3331.783	3972
3333.531	4089
3335.28	4020
3337.025	4099
3338.771	4113
3340.518	4067
3342.262	4127
3344.009	4136
3345.753	4101
3347.497	4039
3349.24	4050
3350.983	4064
3352.726	4162
3354.469	4011
3356.212	3994
3357.952	4022
3359.694	3941
3361.434	4052
3363.176	3904
3364.916	4031
3366.654	3940
3368.394	4016
3370.132	3971
3371.871	3991
3373.61	3986
3375.346	4050
3377.083	3956
3378.82	3920
3380.556	3976
3382.292	4031
3384.027	3930
3385.763	3988
3387.497	3913
3389.231	3979
3390.965	4004
3392.698	3975
3394.431	3957
3396.164	3916
3397.896	4015
3399.627	3875
3401.36	4009
3403.09	3862
3404.82	3919
3406.55	3995
3408.279	3817
3410.01	4019
3411.738	3914
3413.467	3930
3415.194	3891
3416.92	3923
3418.647	3874
3420.375	3895
3422.102	3845
3423.827	3882
3425.553	3983
3427.277	3890
3429.003	3861
3430.727	3846
3432.451	3901
3434.173	3850
3435.896	3912
3437.62	3862
3439.343	3870
3441.063	3835
3442.785	3818
3444.505	3795
3446.226	3799
3447.948	3906
3449.666	3803
3451.386	3716
3453.104	3788
3454.823	3867
3456.541	3775
3458.259	3790
3459.976	3783
3461.693	3717
3463.408	3782
3465.125	3764
3466.841	3733
3468.556	3784
3470.271	3794
3471.985	3798
3473.698	3680
3475.414	3773
3477.126	3742
3478.838	3671
3480.55	3732
3482.263	3656
3483.975	3703
3485.686	3745
3487.396	3642
3489.106	3690
3490.817	3721
3492.526	3657
3494.236	3738
3495.944	3734
3497.652	3681
3499.359	3696
3501.066	3650
3502.775	3714
3504.481	3647
3506.187	3683
3507.893	3669
3509.598	3624
3511.304	3628
3513.009	3586
3514.713	3612
3516.417	3588
3518.12	3570
3519.821	3710
3521.525	3572
3523.228	3619
3524.929	3583
3526.631	3565
3528.33	3597
3530.032	3575
3531.733	3600
3533.433	3655
3535.131	3552
3536.83	3562
3538.529	3627
3540.227	3565
3541.925	3584
3543.623	3619
3545.319	3612
3547.016	3555
3548.712	3478
3550.408	3543
3552.103	3552
3553.798	3519
3555.491	3594
3557.188	3574
3558.88	3617
3560.574	3539
3562.266	3587
3563.959	3554
3565.651	3573
3567.343	3392
3569.035	3511
3570.725	3625
3572.415	3555
3574.106	3460
3575.797	3510
3577.485	3471
3579.174	3560
3580.863	3521
3582.551	3436
3584.238	3404
3585.926	3378
3587.613	3504
3589.3	3552
3590.986	3449
3592.671	3596
3594.357	3519
3596.042	3451
3597.726	3451
3599.41	3409
3601.094	3422
3602.778	3440
3604.461	3411
3606.143	3475
3607.825	3390
3609.507	3431
3611.188	3397
3612.87	3334
3614.551	3322
3616.229	3429
3617.909	3394
3619.589	3373
3621.269	3368
3622.948	3312
3624.625	3344
3626.302	3371
3627.98	3354
3629.657	3285
3631.334	3385
3633.01	3331
3634.686	3371
3636.361	3287
3638.036	3394
3639.712	3341
3641.385	3334
3643.06	3241
3644.732	3305
3646.405	3343
3648.08	3292
3649.751	3259
3651.424	3244
3653.094	3303
3654.766	3314
3656.436	3304
3658.106	3284
3659.777	3225
3661.446	3270
3663.115	3273
3664.783	3258
3666.452	3269
3668.121	3380
3669.788	3272
3671.454	3263
3673.121	3317
3674.789	3339
3676.455	3278
3678.12	3281
3679.784	3273
3681.45	3278
3683.114	3265
3684.779	3208
3686.442	3208
3688.105	3174
3689.768	3241
3691.43	3292
3693.093	3211
3694.754	3223
3696.415	3243
3698.076	3252
3699.736	3243
3701.396	3232
3703.057	3198
3704.716	3192
3706.375	3232
3708.034	3256
3709.692	3175
3711.351	3238
3713.008	3167
3714.665	3298
3716.321	3169
3717.977	3159
3719.634	3281
3721.29	3238
3722.945	3116
3724.598	3140
3726.253	3198
3727.907	3194
3729.561	3153
3731.214	3122
3732.867	3181
3734.518	3153
3736.171	3096
3737.824	3163
3739.474	3172
3741.125	3168
3742.775	3133
3744.425	3159
3746.074	3153
3747.725	3147
3749.373	3172
3751.022	3097
3752.669	3098
3754.318	3154
3755.966	3090
3757.612	3183
3759.259	3152
3760.905	3186
3762.55	3147
3764.197	3099
3765.842	3062
3767.486	3179
3769.131	3100
3770.774	3056
3772.417	3179
3774.061	3022
3775.705	3101
3777.347	3122
3778.988	3048
3780.629	3076
3782.271	3096
3783.912	3065
3785.552	3123
3787.192	3057
3788.831	3012
3790.472	3134
3792.112	3166
3793.75	3087
3795.388	2974
3797.024	3035
3798.661	3052
3800.3	3103
3801.936	3056
3803.572	3076
3805.208	2958
3806.844	3093
3808.48	3060
3810.115	3011
3811.748	3025
3813.382	3039
3815.016	3030
3816.649	2986
3818.283	3013
3819.914	3030
3821.547	3002
3823.178	2975
3824.809	3023
3826.441	3033
3828.072	3003
3829.701	2968
3831.331	2994
3832.96	3087
3834.591	2965
3836.219	2998
3837.847	2989
3839.475	2914
3841.102	3036
3842.729	2899
3844.357	3068
3845.984	2996
3847.609	2965
3849.234	2932
3850.86	2888
3852.485	2970
3854.11	2919
3855.734	2954
3857.357	2960
3858.981	2946
3860.603	2941
3862.227	2924
3863.848	2956
3865.471	2960
3867.092	2968
3868.713	2929
3870.334	2919
3871.954	2924
3873.575	2978
3875.194	2871
3876.813	2906
3878.433	2927
3880.051	2878
3881.669	2961
3883.286	2931
3884.904	2834
3886.52	2896
3888.138	2902
3889.754	2953
3891.37	2937
3892.985	2908
3894.6	2852
3896.216	2872
3897.831	2893
3899.444	2850
3901.058	2856
3902.67	2897
3904.283	2986
3905.897	2923
3907.509	2830
3909.121	2930
3910.731	2873
3912.342	2937
3913.954	2876
3915.563	2906
3917.174	2810
3918.783	2887
3920.391	2885
3922.002	2838
3923.611	2912
3925.218	2834
3926.826	2933
3928.432	2854
3930.039	2799
3931.647	2875
3933.253	2920
3934.859	2820
3936.464	2849
3938.068	2847
3939.675	2854
3941.278	2794
3942.883	2901
3944.486	2828
3946.089	2869
3947.692	2875
3949.295	2759
3950.898	2842
3952.499	2822
3954.1	2775
3955.7	2870
3957.303	2840
3958.903	2831
3960.502	2825
3962.101	2814
3963.7	2817
3965.301	2784
3966.899	2804
3968.497	2820
3970.094	2819
3971.691	2718
3973.288	2818
3974.885	2762
3976.481	2767
3978.077	2781
3979.672	2770
3981.267	2766
3982.863	2760
3984.457	2760
3986.051	2773
3987.645	2720
3989.238	2759
3990.831	2713
3992.425	2730
3994.017	2760
3995.607	2748
3997.199	2765
3998.79	2706
4000.382	2750
4001.973	2725
4003.561	2748
4005.151	2769
4006.741	2708
4008.331	2702
4009.918	2730
4011.507	2666
4013.095	2725
4014.681	2672
4016.269	2636
4017.856	2671
4019.443	2683
4021.028	2716
4022.614	2718
4024.199	2697
4025.785	2651
4027.37	2667
4028.953	2674
4030.536	2626
4032.12	2664
4033.704	2713
4035.287	2653
4036.869	2670
4038.45	2654
4040.032	2673
4041.613	2698
4043.195	2642
4044.776	2566
4046.356	2667
4047.935	2674
4049.515	2645
4051.095	2667
4052.674	2603
4054.251	2618
4055.829	2621
4057.406	2654
4058.985	2595
4060.562	2545
4062.139	2604
4063.715	2612
4065.29	2609
4066.865	2522
4068.442	2544
4070.016	2608
4071.59	2606
4073.164	2569
4074.738	2619
4076.312	2596
4077.885	2562
4079.458	2567
4081.03	2599
4082.602	2656
4084.173	2555
4085.745	2608
4087.315	2569
4088.886	2532
4090.456	2573
4092.026	2563
4093.596	2532
4095.165	2586
4096.734	2583
4098.301	2578
4099.869	2521
4101.437	2567
4103.006	2606
4104.572	2562
4106.139	2536
4107.704	2579
4109.27	2553
4110.837	2578
4112.401	2554
4113.966	2480
4115.53	2480
4117.094	2452
4118.659	2522
4120.223	2565
4121.785	2523
4123.347	2447
4124.909	2499
4126.471	2554
4128.034	2454
4129.595	2540
4131.155	2482
4132.716	2493
4134.275	2490
4135.836	2527
4137.395	2519
4138.955	2540
4140.513	2479
4142.071	2440
4143.628	2466
4145.188	2459
4146.745	2533
4148.302	2477
4149.858	2425
4151.414	2445
4152.971	2478
4154.526	2499
4156.081	2429
4157.635	2427
4159.189	2470
4160.745	2386
4162.298	2422
4163.852	2373
4165.405	2416
4166.957	2388
4168.51	2434
4170.063	2475
4171.614	2390
4173.166	2391
4174.717	2452
4176.267	2459
4177.817	2363
4179.368	2472
4180.917	2451
4182.466	2398
4184.016	2358
4185.564	2436
4187.112	2367
4188.66	2380
4190.207	2382
4191.754	2345
4193.301	2409
4194.848	2371
4196.394	2364
4197.94	2377
4199.484	2379
4201.03	2328
4202.575	2438
4204.12	2327
4205.663	2397
4207.207	2377
4208.75	2357
4210.292	2371
4211.836	2369
4213.378	2354
4214.92	2334
4216.46	2307
4218.002	2370
4219.544	2320
4221.083	2346
4222.625	2370
4224.164	2366
4225.703	2357
4227.244	2311
4228.782	2428
4230.32	2325
4231.857	2316
4233.395	2372
4234.933	2427
4236.471	2333
4238.007	2328
4239.542	2329
4241.078	2305
4242.614	2300
4244.15	2366
4245.685	2359
4247.219	2307
4248.753	2323
4250.287	2283
4251.82	2337
4253.354	2295
4254.887	2271
4256.419	2306
4257.951	2314
4259.483	2298
4261.016	2272
4262.547	2388
4264.078	2289
4265.608	2309
4267.137	2245
4268.668	2278
4270.197	2344
4271.727	2245
4273.254	2276
4274.783	2279
4276.311	2299
4277.84	2323
4279.366	2312
4280.894	2294
4282.42	2252
4283.946	2232
4285.473	2241
4286.998	2270
4288.523	2305
4290.047	2255
4291.572	2269
4293.096	2286
4294.622	2274
4296.144	2240
4297.668	2286
4299.19	2238
4300.713	2293
4302.236	2231
4303.758	2267
4305.279	2248
4306.799	2273
4308.321	2223
4309.842	2254
4311.361	2159
4312.882	2216
4314.401	2270
