400.0961	3396
402.6185	3316
405.1424	3434
407.6635	3370
410.1838	3388
412.7035	3441
415.2225	3464
417.7388	3368
420.2585	3538
422.7754	3516
425.2917	3546
427.8072	3667
430.3221	3649
432.8363	3569
435.3498	3645
437.8626	3681
440.3727	3642
442.8841	3698
445.3969	3677
447.907	3626
450.4142	3638
452.9229	3625
455.4289	3604
457.9362	3598
460.4449	3581
462.9488	3679
465.454	3599
467.9566	3625
470.4604	3622
472.9637	3607
475.4662	3604
477.966	3579
480.4671	3614
482.9656	3689
485.4633	3545
487.9645	3585
490.4608	3567
492.9566	3565
495.4536	3617
497.948	3617
500.4437	3672
502.9387	3717
505.431	3575
507.9226	3745
510.4136	3667
512.9079	3685
515.3975	3716
517.8864	3724
520.3746	3697
522.8622	3664
525.3491	3638
527.8394	3635
530.3249	3727
532.8098	3723
535.2939	3739
537.7774	3697
540.2623	3745
542.7444	3690
545.2259	3761
547.7067	3664
550.1868	3748
552.6683	3711
555.147	3768
557.6231	3744
560.1005	3717
562.5773	3833
565.0534	3737
567.5308	3773
570.0056	3813
572.4776	3837
574.951	3922
577.4237	3920
579.8978	3898
582.3671	4048
584.8378	3751
587.3079	3896
589.7773	3886
592.244	3866
594.714	3955
597.1793	3917
599.6461	3944
602.1121	3919
604.5754	3909
607.0421	3891
609.5042	3780
611.9675	3938
614.4282	3818
616.8902	3922
619.3515	3804
621.8122	3698
624.2702	3954
626.7296	3822
629.1863	3724
631.6423	3732
634.1017	3888
636.5563	3782
639.0104	3709
641.4658	3874
643.9185	3869
646.3725	3893
648.8239	3829
651.2766	3854
653.7266	3951
656.176	3877
658.6247	3897
661.0748	3788
663.5242	3835
665.9709	3885
668.417	3959
670.8624	3986
673.3092	3959
675.7533	3905
678.1968	4019
680.6395	3903
683.0817	3920
685.5251	3978
687.9659	3931
690.4061	3989
692.8456	3938
695.2844	4015
697.7226	3952
700.1621	4018
702.599	4032
705.0332	3924
707.4688	3982
709.9036	4032
712.3399	3972
714.7735	3958
717.2044	3950
719.6367	4100
722.0683	4077
724.4993	4007
726.9296	3931
729.3593	4047
731.7883	4088
734.2147	4056
736.6423	4031
739.0714	4117
741.4958	4120
743.9216	4153
746.3447	4154
748.7691	4125
751.1929	4183
753.616	4152
756.0366	4192
758.4584	4147
760.8776	4153
763.2982	4228
765.718	4201
768.1373	4213
770.5539	4219
772.9698	4253
775.3871	4184
777.8038	4190
780.2178	4176
782.6332	4258
785.0459	4253
787.458	4201
789.8714	4175
792.2842	4157
794.6943	4166
797.1038	4251
799.5127	4223
801.9209	4184
804.3324	4304
806.7393	4276
809.1456	4283
811.5513	4294
813.9562	4289
816.3625	4340
818.7663	4266
821.1693	4349
823.5718	4242
825.9735	4275
828.3746	4243
830.7771	4296
833.177	4261
835.5762	4283
837.9747	4318
840.3727	4343
842.772	4312
845.1666	4368
847.5626	4444
849.958	4367
852.3527	4466
854.7488	4407
857.1403	4392
859.5331	4444
861.9253	4356
864.3168	4452
866.7057	4475
869.098	4398
871.4876	4420
873.8746	4411
876.263	4452
878.6487	4386
881.0378	4374
883.4243	4365
885.8081	4372
888.1933	4350
890.5759	4387
892.9598	4429
895.343	4339
897.7256	4343
900.1057	4403
902.4871	4443
904.8659	4452
907.246	4414
909.6254	4419
912.0023	4468
914.3786	4504
916.7562	4537
919.1331	4500
921.5074	4587
923.8831	4572
926.2562	4598
928.6287	4543
931.0005	4640
933.3757	4652
935.7462	4710
938.1162	4740
940.4855	4757
942.8542	4875
945.2242	4936
947.5916	5043
949.9584	5201
952.3266	5390
954.6921	5698
957.0571	5876
959.4233	6161
961.787	6194
964.15	6109
966.5125	6004
968.8742	5581
971.2354	5245
973.5959	5034
975.9559	4875
978.3151	4797
980.6738	4649
983.0338	4591
985.3912	4514
987.7461	4589
990.1022	4600
992.4578	4511
994.8127	4592
997.1689	4599
999.5207	4511
1001.874	4583
1004.226	4601
1006.576	4560
1008.929	4626
1011.28	4656
1013.628	4633
1015.977	4652
1018.324	4537
1020.674	4630
1023.019	4677
1025.366	4626
1027.713	4692
1030.056	4687
1032.399	4701
1034.746	4710
1037.087	4702
1039.431	4708
1041.771	4694
1044.113	4740
1046.454	4651
1048.793	4639
1051.133	4724
1053.471	4703
1055.807	4615
1058.146	4716
1060.483	4753
1062.818	4734
1065.153	4773
1067.489	4792
1069.822	4826
1072.156	4831
1074.488	4805
1076.82	4889
1079.15	4821
1081.48	4846
1083.814	4783
1086.143	4766
1088.471	4640
1090.799	4736
1093.126	4725
1095.452	4696
1097.78	4694
1100.105	4687
1102.43	4627
1104.754	4629
1107.077	4733
1109.4	4566
1111.722	4772
1114.044	4604
1116.365	4725
1118.685	4601
1121.005	4670
1123.324	4721
1125.643	4661
1127.961	4774
1130.278	4640
1132.595	4720
1134.911	4695
1137.226	4691
1139.541	4682
1141.854	4669
1144.167	4689
1146.482	4653
1148.793	4583
1151.105	4656
1153.414	4670
1155.725	4591
1158.033	4616
1160.344	4703
1162.651	4567
1164.959	4611
1167.265	4704
1169.572	4767
1171.878	4671
1174.184	4686
1176.488	4683
1178.79	4719
1181.094	4727
1183.396	4723
1185.699	4638
1188.001	4632
1190.301	4732
1192.6	4642
1194.9	4700
1197.2	4670
1199.497	4687
1201.794	4741
1204.09	4664
1206.387	4704
1208.684	4709
1210.978	4681
1213.272	4721
1215.565	4728
1217.858	4657
1220.15	4762
1222.443	4710
1224.734	4733
1227.024	4842
1229.313	4723
1231.602	4894
1233.892	4835
1236.18	4823
1238.467	4925
1240.754	4939
1243.04	4905
1245.325	4861
1247.612	4888
1249.896	4919
1252.178	4991
1254.461	4981
1256.743	4850
1259.027	4982
1261.308	4917
1263.587	4850
1265.867	4969
1268.146	4949
1270.425	4867
1272.703	4936
1274.981	5003
1277.256	4963
1279.532	4970
1281.808	4931
1284.083	4990
1286.358	4816
1288.63	4972
1290.904	4935
1293.175	4804
1295.449	4721
1297.719	4900
1299.99	4857
1302.259	4787
1304.529	4730
1306.798	4754
1309.065	4836
1311.333	4885
1313.599	4798
1315.866	4765
1318.131	4879
1320.396	4838
1322.66	4813
1324.925	4881
1327.187	4774
1329.448	4754
1331.711	4875
1333.974	4885
1336.234	4785
1338.493	4907
1340.752	4914
1343.01	4818
1345.269	4822
1347.526	4973
1349.784	4785
1352.04	4860
1354.295	4783
1356.552	4825
1358.806	4861
1361.059	4821
1363.312	4805
1365.564	4785
1367.818	4767
1370.069	4837
1372.318	4829
1374.568	4801
1376.817	4875
1379.066	4889
1381.316	4817
1383.564	4887
1385.809	4853
1388.056	4888
1390.301	4940
1392.549	4951
1394.793	4941
1397.036	5051
1399.279	4966
1401.522	5027
1403.763	5022
1406.007	4848
1408.248	4995
1410.487	4944
1412.727	4904
1414.965	4972
1417.205	4925
1419.442	5001
1421.68	4935
1423.915	4938
1426.152	5054
1428.388	5017
1430.623	5050
1432.857	4991
1435.091	5036
1437.323	5008
1439.556	5017
1441.789	5163
1444.019	5039
1446.25	5111
1448.48	5067
1450.708	5155
1452.938	5184
1455.167	5123
1457.394	5133
1459.62	5159
1461.846	5060
1464.073	5156
1466.299	5107
1468.523	5057
1470.746	5000
1472.969	5055
1475.191	5005
1477.415	5008
1479.636	5014
1481.858	4927
1484.078	4870
1486.298	4899
1488.518	4874
1490.736	4843
1492.954	4860
1495.169	4883
1497.386	4793
1499.602	4893
1501.819	4868
1504.034	4806
1506.248	4772
1508.462	4842
1510.675	4794
1512.888	4843
1515.1	4844
1517.311	4764
1519.522	4881
1521.732	4829
1523.942	4808
1526.151	4877
1528.36	4890
1530.566	4923
1532.773	4756
1534.98	4874
1537.187	4854
1539.392	4869
1541.596	4838
1543.801	4821
1546.005	4948
1548.208	4890
1550.411	4829
1552.612	4931
1554.814	4887
1557.013	4912
1559.212	4951
1561.414	4921
1563.612	4923
1565.811	5015
1568.007	4899
1570.203	4969
1572.403	4936
1574.598	4894
1576.792	4964
1578.988	4927
1581.181	4996
1583.376	4997
1585.568	5010
1587.761	4961
1589.952	5014
1592.143	5040
1594.333	4995
1596.524	4957
1598.715	5026
1600.903	5002
1603.091	4972
1605.278	5055
1607.466	5081
1609.652	4995
1611.838	5021
1614.023	5080
1616.207	5007
1618.391	5007
1620.576	5077
1622.759	4930
1624.941	5062
1627.123	5133
1629.304	5052
1631.484	5053
1633.664	5117
1635.844	5084
1638.022	5141
1640.201	5072
1642.38	5115
1644.556	5099
1646.732	5220
1648.908	5112
1651.084	5157
1653.257	5088
1655.433	5195
1657.607	5148
1659.779	5226
1661.951	5170
1664.122	5179
1666.295	5336
1668.467	5275
1670.635	5256
1672.805	5170
1674.973	5188
1677.142	5172
1679.31	5261
1681.478	5162
1683.644	5222
1685.81	5203
1687.975	5146
1690.142	5175
1692.305	5116
1694.468	5078
1696.632	5075
1698.794	5094
1700.957	4969
1703.119	5006
1705.279	4969
1707.439	5065
1709.598	5053
1711.758	5007
1713.917	5056
1716.075	5052
1718.231	5036
1720.388	5027
1722.543	5063
1724.702	4935
1726.856	4988
1729.01	5028
1731.164	4970
1733.317	5039
1735.471	4914
1737.623	4962
1739.774	5020
1741.925	4961
1744.075	5086
1746.225	5032
1748.376	5125
1750.524	5084
1752.672	5004
1754.82	4960
1756.965	5022
1759.113	5035
1761.259	5060
1763.405	4914
1765.549	5033
1767.694	4973
1769.836	5092
1771.981	5097
1774.123	5091
1776.264	5006
1778.405	5115
1780.546	5088
1782.687	5040
1784.827	5037
1786.966	5019
1789.103	5114
1791.242	5066
1793.381	4970
1795.517	5024
1797.653	4986
1799.788	5045
1801.923	5052
1804.057	4992
1806.193	5061
1808.326	4993
1810.457	4993
1812.59	5031
1814.721	5094
1816.855	4978
1818.984	5093
1821.113	4998
1823.244	4987
1825.372	4983
1827.499	5058
1829.63	4982
1831.756	5056
1833.882	5093
1836.007	5105
1838.132	5025
1840.26	5031
1842.384	4961
1844.507	4988
1846.63	5009
1848.752	4989
1850.875	4985
1852.996	5055
1855.118	4924
1857.238	5056
1859.358	4975
1861.477	5022
1863.597	5000
1865.715	4943
1867.832	5033
1869.948	4989
1872.064	5008
1874.181	4919
1876.297	5009
1878.411	4975
1880.526	5029
1882.639	5092
1884.752	5051
1886.865	4978
1888.977	5070
1891.089	5019
1893.2	5027
1895.308	5032
1897.42	5103
1899.53	5029
1901.639	5033
1903.745	5086
1905.853	5095
1907.962	5049
1910.067	5039
1912.174	5065
1914.278	5046
1916.383	5098
1918.486	5118
1920.592	4974
1922.694	5044
1924.797	5047
1926.898	5134
1929	5031
1931.102	5022
1933.203	5087
1935.301	5029
1937.401	5086
1939.499	5097
1941.598	5061
1943.697	5174
1945.793	5080
1947.888	5029
1949.985	5134
1952.08	5019
1954.176	5157
1956.269	5204
1958.364	5082
1960.457	5160
1962.549	5141
1964.642	5126
1966.733	5020
1968.823	5115
1970.913	5052
1973.005	5066
1975.093	5051
1977.184	5113
1979.271	5079
1981.359	5065
1983.446	5023
1985.532	5016
1987.619	5049
1989.705	5010
1991.789	5091
1993.874	5035
1995.956	5075
1998.041	5036
2000.123	5051
2002.206	5130
2004.287	5130
2006.368	5071
2008.449	5005
2010.529	5019
2012.609	4974
2014.688	5081
2016.766	5008
2018.843	5127
2020.922	5007
2022.999	5070
2025.074	5036
2027.15	5111
2029.225	5087
2031.299	5138
2033.375	4990
2035.447	5096
2037.52	5033
2039.592	5022
2041.664	5086
2043.736	5042
2045.807	5032
2047.876	5088
2049.947	5011
2052.015	5064
2054.086	4957
2056.153	5048
2058.221	5084
2060.288	4967
2062.353	5073
2064.42	5017
2066.486	4935
2068.55	5057
2070.614	5074
2072.678	5049
2074.741	5113
2076.805	5131
2078.866	5081
2080.929	5107
2082.99	5163
2085.049	5043
2087.109	5101
2089.17	4980
2091.228	5007
2093.286	5026
2095.344	5119
2097.4	5031
2099.46	5095
2101.516	5058
2103.572	5085
2105.626	5068
2107.679	5068
2109.735	5040
2111.788	5109
2113.841	5131
2115.894	5053
2117.945	4996
2119.997	4968
2122.049	4989
2124.1	5115
2126.148	5050
2128.197	5037
2130.246	5095
2132.296	4946
2134.342	5001
2136.39	5047
2138.437	5104
2140.483	4963
2142.527	5080
2144.574	5063
2146.619	5017
2148.661	5071
2150.705	4991
2152.747	5031
2154.792	4934
2156.832	5100
2158.874	5040
2160.915	5003
2162.954	5025
2164.995	4974
2167.034	5146
2169.072	4970
2171.111	4967
2173.148	5027
2175.186	4996
2177.223	4949
2179.258	4945
2181.294	4963
2183.328	4942
2185.362	4937
2187.398	4916
2189.431	4947
2191.463	4910
2193.495	5060
2195.528	5000
2197.56	4970
2199.59	4930
2201.62	4971
2203.649	4919
2205.678	4988
2207.708	4998
2209.737	5007
2211.764	4899
2213.791	4922
2215.817	5037
2217.843	4963
2219.87	4905
2221.895	4848
2223.919	4844
2225.942	4983
2227.966	4845
2229.988	4894
2232.012	4902
2234.032	4961
2236.054	4968
2238.074	4912
2240.095	4944
2242.116	4833
2244.135	4948
2246.153	4894
2248.171	4821
2250.188	4922
2252.208	4926
2254.223	4862
2256.239	5028
2258.255	5001
2260.269	5070
2262.283	5000
2264.3	4891
2266.312	4964
2268.325	4937
2270.336	4879
2272.349	4914
2274.362	4926
2276.372	4869
2278.383	4981
2280.392	4960
2282.402	4945
2284.409	4944
2286.418	4915
2288.427	4849
2290.433	4959
2292.441	4906
2294.446	4791
2296.453	4960
2298.459	4923
2300.463	4917
2302.466	4911
2304.471	4885
2306.475	4935
2308.477	4841
2310.478	4879
2312.481	4881
2314.481	4960
2316.481	4947
2318.482	4818
2320.482	4932
2322.48	4884
2324.48	4982
2326.478	4946
2328.476	4960
2330.473	4924
2332.469	4872
2334.465	4878
2336.46	4829
2338.454	4793
2340.45	4956
2342.444	4800
2344.437	4832
2346.43	4765
2348.421	4831
2350.414	4759
2352.405	4817
2354.396	4946
2356.386	4867
2358.376	4834
2360.366	4799
2362.355	4880
2364.343	4771
2366.331	4779
2368.317	4924
2370.304	4793
2372.292	4836
2374.278	4796
2376.262	4867
2378.247	4766
2380.23	4804
2382.216	4711
2384.199	4868
2386.181	4857
2388.163	4790
2390.144	4786
2392.127	4818
2394.107	4816
2396.087	4822
2398.066	4808
2400.046	4799
2402.023	4800
2404.004	4854
2405.981	4701
2407.957	4751
2409.934	4677
2411.91	4752
2413.886	4689
2415.862	4803
2417.836	4752
2419.809	4754
2421.784	4766
2423.756	4723
2425.73	4794
2427.701	4694
2429.672	4714
2431.644	4773
2433.615	4857
2435.586	4768
2437.555	4755
2439.523	4789
2441.491	4745
2443.459	4727
2445.428	4884
2447.395	4705
2449.361	4804
2451.327	4735
2453.292	4797
2455.257	4742
2457.223	4731
2459.187	4804
2461.15	4724
2463.113	4658
2465.076	4711
2467.039	4779
2468.999	4814
2470.96	4671
2472.921	4694
2474.881	4764
2476.841	4744
2478.8	4749
2480.759	4819
2482.717	4741
2484.675	4673
2486.63	4691
2488.589	4674
2490.545	4585
2492.5	4662
2494.455	4678
2496.408	4724
2498.364	4787
2500.318	4701
2502.27	4673
2504.223	4601
2506.174	4660
2508.126	4784
2510.078	4689
2512.03	4758
2513.979	4658
2515.927	4725
2517.877	4678
2519.826	4716
2521.775	4741
2523.722	4678
2525.668	4640
2527.616	4620
2529.561	4693
2531.508	4686
2533.452	4693
2535.398	4607
2537.342	4649
2539.284	4603
2541.229	4636
2543.173	4742
2545.114	4625
2547.055	4683
2548.996	4632
2550.938	4693
2552.878	4660
2554.817	4695
2556.756	4653
2558.695	4690
2560.633	4711
2562.572	4588
2564.509	4750
2566.445	4690
2568.382	4543
2570.317	4621
2572.254	4598
2574.189	4782
2576.123	4566
2578.057	4607
2579.99	4671
2581.923	4618
2583.855	4716
2585.788	4692
2587.719	4667
2589.65	4668
2591.579	4679
2593.511	4584
2595.44	4613
2597.37	4609
2599.297	4602
2601.225	4658
2603.153	4564
2605.08	4660
2607.007	4693
2608.932	4686
2610.858	4683
2612.782	4785
2614.709	4663
2616.632	4626
2618.556	4747
2620.478	4712
2622.401	4730
2624.324	4730
2626.247	4641
2628.167	4712
2630.088	4764
2632.008	4689
2633.928	4746
2635.848	4647
2637.766	4613
2639.684	4673
2641.603	4697
2643.519	4687
2645.437	4681
2647.353	4613
2649.27	4630
2651.184	4632
2653.099	4663
2655.014	4698
2656.928	4719
2658.842	4744
2660.755	4614
2662.667	4662
2664.579	4693
2666.491	4715
2668.402	4719
2670.312	4740
2672.222	4616
2674.132	4690
2676.042	4696
2677.951	4590
2679.859	4674
2681.766	4664
2683.674	4764
2685.582	4631
2687.488	4697
2689.392	4630
2691.298	4679
2693.202	4589
2695.107	4541
2697.012	4669
2698.914	4609
2700.817	4581
2702.72	4582
2704.622	4637
2706.524	4632
2708.425	4660
2710.326	4574
2712.225	4666
2714.125	4620
2716.024	4607
2717.923	4558
2719.822	4536
2721.719	4532
2723.616	4579
2725.512	4717
2727.41	4640
2729.305	4616
2731.201	4621
2733.095	4636
2734.99	4770
2736.884	4531
2738.778	4551
2740.67	4591
2742.562	4529
2744.455	4622
2746.346	4614
2748.238	4603
2750.129	4644
2752.018	4556
2753.907	4519
2755.797	4562
2757.687	4525
2759.575	4509
2761.462	4667
2763.349	4576
2765.237	4545
2767.124	4535
2769.009	4477
2770.894	4557
2772.779	4500
2774.663	4488
2776.547	4610
2778.431	4471
2780.314	4554
2782.197	4601
2784.078	4456
2785.96	4471
2787.842	4541
2789.723	4533
2791.603	4550
2793.483	4578
2795.362	4461
2797.241	4532
2799.121	4530
2800.997	4649
2802.874	4492
2804.751	4495
2806.628	4566
2808.506	4573
2810.38	4540
2812.255	4468
2814.13	4506
2816.003	4503
2817.878	4499
2819.752	4589
2821.623	4508
2823.496	4531
2825.368	4577
2827.238	4490
2829.111	4539
2830.98	4540
2832.851	4630
2834.719	4548
2836.589	4543
2838.458	4526
2840.327	4490
2842.193	4486
2844.061	4525
2845.927	4658
2847.794	4588
2849.66	4634
2851.525	4578
2853.39	4644
2855.254	4645
2857.117	4597
2858.983	4655
2860.845	4544
2862.707	4654
2864.569	4757
2866.431	4731
2868.293	4614
2870.154	4856
2872.013	4832
2873.873	4866
2875.733	4844
2877.592	4940
2879.451	4961
2881.309	5036
2883.166	5015
2885.022	5077
2886.879	4961
2888.736	5111
2890.591	5099
2892.446	5107
2894.301	5096
2896.155	5070
2898.009	5151
2899.863	5095
2901.716	5033
2903.568	5013
2905.419	5066
2907.27	5062
2909.123	5033
2910.973	5054
2912.824	5198
2914.673	5083
2916.521	5272
2918.372	5245
2920.22	5378
2922.067	5388
2923.914	5418
2925.761	5391
2927.607	5541
2929.455	5535
2931.301	5594
2933.144	5651
2934.99	5584
2936.833	5728
2938.678	5803
2940.522	5767
2942.364	5928
2944.207	6012
2946.048	5915
2947.891	5833
2949.731	6067
2951.571	5968
2953.412	5801
2955.25	5781
2957.09	5765
2958.93	5652
2960.767	5602
2962.606	5504
2964.443	5548
2966.279	5538
2968.116	5436
2969.953	5352
2971.788	5399
2973.623	5262
2975.457	5189
2977.292	5272
2979.127	5316
2980.959	5246
2982.792	5186
2984.624	5218
2986.455	5256
2988.288	5125
2990.119	5072
2991.949	5066
2993.779	5067
2995.608	5080
2997.439	4941
2999.268	4970
3001.096	4879
3002.923	4776
3004.751	4751
3006.578	4710
3008.406	4762
3010.232	4736
3012.057	4695
3013.883	4594
3015.706	4579
3017.532	4509
3019.356	4451
3021.179	4440
3023.002	4515
3024.823	4439
3026.646	4425
3028.469	4344
3030.289	4329
3032.11	4327
3033.93	4374
3035.749	4369
3037.57	4374
3039.39	4328
3041.207	4335
3043.026	4428
3044.842	4309
3046.661	4339
3048.477	4291
3050.294	4321
3052.109	4370
3053.925	4285
3055.739	4277
3057.555	4270
3059.368	4369
3061.181	4378
3062.995	4253
3064.807	4396
3066.62	4276
3068.433	4304
3070.243	4361
3072.054	4279
3073.865	4319
3075.675	4324
3077.485	4372
3079.293	4295
3081.102	4296
3082.911	4288
3084.719	4247
3086.527	4199
3088.333	4210
3090.139	4321
3091.945	4159
3093.75	4201
3095.557	4132
3097.361	4239
3099.165	4282
3100.969	4220
3102.772	4215
3104.575	4176
3106.379	4095
3108.181	4174
3109.982	4247
3111.783	4189
3113.584	4185
3115.386	4195
3117.186	4122
3118.985	4246
3120.783	4206
3122.582	4093
3124.381	4097
3126.179	4093
3127.975	4126
3129.772	4117
3131.569	4144
3133.365	4138
3135.161	4188
3136.956	4133
3138.751	4021
3140.544	4124
3142.338	4045
3144.132	4098
3145.925	4095
3147.717	4066
3149.509	4053
3151.301	4108
3153.091	4094
3154.884	4127
3156.673	4122
3158.462	4083
3160.252	4185
3162.041	4047
3163.831	4114
3165.618	4081
3167.405	4085
3169.193	4001
3170.979	3933
3172.767	4120
3174.553	4107
3176.338	4186
3178.123	4061
3179.907	4018
3181.692	4075
3183.477	4057
3185.259	4050
3187.042	4064
3188.824	4034
3190.607	4066
3192.389	4030
3194.17	4044
3195.951	4043
3197.73	4039
3199.51	4104
3201.289	4111
3203.07	4171
3204.848	4029
3206.626	4070
3208.403	4056
3210.18	3982
3211.959	4061
3213.735	4003
3215.511	4063
3217.285	4048
3219.06	4082
3220.836	4017
3222.611	4020
3224.384	4028
3226.158	4086
3227.929	4053
3229.702	4059
3231.476	4012
3233.248	3970
3235.018	4121
3236.789	4113
3238.56	4008
3240.33	4057
3242.1	4040
3243.869	4006
3245.637	4174
3247.405	4077
3249.172	4080
3250.941	4096
3252.707	3990
3254.474	4047
3256.24	4031
3258.006	4114
3259.772	4008
3261.537	4100
3263.301	4056
3265.065	4067
3266.828	3997
3268.592	4045
3270.355	4128
3272.117	4086
3273.878	4029
3275.64	4128
3277.401	3981
3279.162	4082
3280.922	4036
3282.682	4044
3284.441	4124
3286.199	4050
3287.959	4110
3289.716	4128
3291.475	4042
3293.232	4045
3294.988	4111
3296.744	4033
3298.501	3928
3300.256	4042
3302.011	4013
3303.766	4068
3305.52	4137
3307.275	4135
3309.028	4059
3310.781	3998
3312.533	4023
3314.285	4057
3316.038	4069
3317.789	4207
3319.54	4084
3321.289	4080
3323.039	4095
3324.789	4120
3326.539	4063
3328.288	4016
3330.035	4092
3331.783	4073
3333.531	4041
3335.28	4020
3337.025	3977
3338.771	4045
3340.518	4105
3342.262	4018
3344.009	4065
3345.753	4003
3347.497	3933
3349.24	3938
3350.983	4056
3352.726	3988
3354.469	4084
3356.212	4026
3357.952	4015
3359.694	4030
3361.434	4105
3363.176	3954
3364.916	4014
3366.654	3989
3368.394	4050
3370.132	4047
3371.871	3973
3373.61	3934
3375.346	3974
3377.083	3837
3378.82	3974
3380.556	3939
3382.292	3852
3384.027	3896
3385.763	3833
3387.497	3890
3389.231	4040
3390.965	3847
3392.698	3969
3394.431	3865
3396.164	3925
3397.896	3930
3399.627	3848
3401.36	3811
3403.09	3834
3404.82	3897
3406.55	3788
3408.279	3994
3410.01	3877
3411.738	3897
3413.467	3873
3415.194	3832
3416.92	3821
3418.647	3838
3420.375	3861
3422.102	3877
3423.827	3820
3425.553	3914
3427.277	3901
3429.003	3856
3430.727	3910
3432.451	3816
3434.173	3891
3435.896	3797
3437.62	3830
3439.343	3819
3441.063	3807
3442.785	3807
3444.505	3761
3446.226	3795
3447.948	3768
3449.666	3820
3451.386	3814
3453.104	3828
3454.823	3713
3456.541	3717
3458.259	3725
3459.976	3751
3461.693	3743
3463.408	3684
3465.125	3733
3466.841	3814
3468.556	3636
3470.271	3737
3471.985	3724
3473.698	3721
3475.414	3658
3477.126	3623
3478.838	3721
3480.55	3725
3482.263	3612
3483.975	3754
3485.686	3700
3487.396	3599
3489.106	3664
3490.817	3678
3492.526	3696
3494.236	3636
3495.944	3594
3497.652	3605
3499.359	3643
3501.066	3627
3502.775	3560
3504.481	3565
3506.187	3543
3507.893	3561
3509.598	3552
3511.304	3638
3513.009	3625
3514.713	3646
3516.417	3635
3518.12	3526
3519.821	3517
3521.525	3564
3523.228	3510
3524.929	3553
3526.631	3557
3528.33	3516
3530.032	3567
3531.733	3615
3533.433	3519
3535.131	3521
3536.83	3434
3538.529	3521
3540.227	3546
3541.925	3558
3543.623	3461
3545.319	3528
3547.016	3427
3548.712	3467
3550.408	3514
3552.103	3605
3553.798	3414
3555.491	3439
3557.188	3523
3558.88	3420
3560.574	3458
3562.266	3482
3563.959	3444
3565.651	3501
3567.343	3480
3569.035	3430
3570.725	3431
3572.415	3510
3574.106	3519
3575.797	3520
3577.485	3420
3579.174	3421
3580.863	3414
3582.551	3530
3584.238	3300
3585.926	3524
3587.613	3452
3589.3	3419
3590.986	3366
3592.671	3417
3594.357	3395
3596.042	3358
3597.726	3322
3599.41	3376
3601.094	3357
3602.778	3302
3604.461	3390
3606.143	3333
3607.825	3428
3609.507	3297
3611.188	3306
3612.87	3278
3614.551	3315
3616.229	3304
3617.909	3333
3619.589	3242
3621.269	3242
3622.948	3214
3624.625	3358
3626.302	3267
3627.98	3229
3629.657	3191
3631.334	3255
3633.01	3245
3634.686	3228
3636.361	3150
3638.036	3209
3639.712	3191
3641.385	3225
3643.06	3265
3644.732	3212
3646.405	3294
3648.08	3165
3649.751	3161
3651.424	3251
3653.094	3189
3654.766	3209
3656.436	3197
3658.106	3253
3659.777	3238
3661.446	3173
3663.115	3201
3664.783	3194
3666.452	3173
3668.121	3196
3669.788	3054
3671.454	3118
3673.121	3159
3674.789	3107
3676.455	3092
3678.12	3161
3679.784	3142
3681.45	3185
3683.114	3172
3684.779	3134
3686.442	3122
3688.105	3104
3689.768	3147
3691.43	3168
3693.093	3116
3694.754	3142
3696.415	3013
3698.076	3199
3699.736	3137
3701.396	3106
3703.057	3126
3704.716	3062
3706.375	3142
3708.034	3046
3709.692	3109
3711.351	3099
3713.008	3171
3714.665	3075
3716.321	3120
3717.977	3004
3719.634	3040
3721.29	3078
3722.945	3101
3724.598	3072
3726.253	2986
3727.907	3071
3729.561	3087
3731.214	3070
3732.867	3018
3734.518	2996
3736.171	3061
3737.824	3052
3739.474	2971
3741.125	3043
3742.775	3024
3744.425	3100
3746.074	3035
3747.725	2981
3749.373	3072
3751.022	3063
3752.669	3139
3754.318	3038
3755.966	3010
3757.612	3048
3759.259	3026
3760.905	2966
3762.55	3043
3764.197	3022
3765.842	2983
3767.486	2992
3769.131	3003
3770.774	2953
3772.417	2950
3774.061	2974
3775.705	2958
3777.347	2957
3778.988	2975
3780.629	2963
3782.271	2991
3783.912	3034
3785.552	2977
3787.192	2995
3788.831	2890
3790.472	2941
3792.112	2995
3793.75	3007
3795.388	3005
3797.024	2921
3798.661	2922
3800.3	2885
3801.936	2919
3803.572	2926
3805.208	2911
3806.844	2938
3808.48	2886
3810.115	2843
3811.748	2886
3813.382	2910
3815.016	2990
3816.649	2876
3818.283	2865
3819.914	2921
3821.547	2915
3823.178	2887
3824.809	2896
3826.441	2944
3828.072	2906
3829.701	2895
3831.331	2831
3832.96	2827
3834.591	2840
3836.219	2837
3837.847	2845
3839.475	2854
3841.102	2930
3842.729	2908
3844.357	2918
3845.984	2859
3847.609	2891
3849.234	2857
3850.86	2855
3852.485	2852
3854.11	2811
3855.734	2783
3857.357	2811
3858.981	2876
3860.603	2837
3862.227	2801
3863.848	2827
3865.471	2914
3867.092	2871
3868.713	2821
3870.334	2820
3871.954	2863
3873.575	2837
3875.194	2854
3876.813	2845
3878.433	2820
3880.051	2760
3881.669	2831
3883.286	2807
3884.904	2797
3886.52	2749
3888.138	2826
3889.754	2767
3891.37	2829
3892.985	2780
3894.6	2843
3896.216	2863
3897.831	2852
3899.444	2851
3901.058	2736
3902.67	2801
3904.283	2834
3905.897	2786
3907.509	2834
3909.121	2798
3910.731	2789
3912.342	2751
3913.954	2708
3915.563	2804
3917.174	2828
3918.783	2724
3920.391	2835
3922.002	2797
3923.611	2729
3925.218	2695
3926.826	2765
3928.432	2793
3930.039	2742
3931.647	2792
3933.253	2818
3934.859	2688
3936.464	2752
3938.068	2800
3939.675	2842
3941.278	2774
3942.883	2782
3944.486	2739
3946.089	2768
3947.692	2666
3949.295	2782
3950.898	2774
3952.499	2746
3954.1	2785
3955.7	2742
3957.303	2709
3958.903	2665
3960.502	2765
3962.101	2647
3963.7	2760
3965.301	2721
3966.899	2675
3968.497	2668
3970.094	2668
3971.691	2657
3973.288	2673
3974.885	2745
3976.481	2661
3978.077	2708
3979.672	2697
3981.267	2660
3982.863	2674
3984.457	2657
3986.051	2656
3987.645	2635
3989.238	2672
3990.831	2693
3992.425	2705
3994.017	2624
3995.607	2641
3997.199	2636
3998.79	2625
4000.382	2672
4001.973	2610
4003.561	2594
4005.151	2612
4006.741	2635
4008.331	2632
4009.918	2688
4011.507	2588
4013.095	2657
4014.681	2632
4016.269	2605
4017.856	2562
4019.443	2572
4021.028	2589
4022.614	2612
4024.199	2585
4025.785	2603
4027.37	2592
4028.953	2577
4030.536	2579
4032.12	2608
4033.704	2574
4035.287	2551
4036.869	2571
4038.45	2545
4040.032	2518
4041.613	2581
4043.195	2515
4044.776	2591
4046.356	2584
4047.935	2541
4049.515	2554
4051.095	2544
4052.674	2478
4054.251	2568
4055.829	2517
4057.406	2484
4058.985	2506
4060.562	2507
4062.139	2498
4063.715	2483
4065.29	2506
4066.865	2544
4068.442	2489
4070.016	2516
4071.59	2539
4073.164	2451
4074.738	2567
4076.312	2434
4077.885	2443
4079.458	2529
4081.03	2535
4082.602	2522
4084.173	2478
4085.745	2515
4087.315	2535
4088.886	2482
4090.456	2445
4092.026	2502
4093.596	2429
4095.165	2423
4096.734	2485
4098.301	2482
4099.869	2557
4101.437	2462
4103.006	2461
4104.572	2533
4106.139	2487
4107.704	2404
4109.27	2467
4110.837	2496
4112.401	2469
4113.966	2534
4115.53	2432
4117.094	2393
4118.659	2412
4120.223	2430
4121.785	2445
4123.347	2452
4124.909	2447
4126.471	2494
4128.034	2413
4129.595	2469
4131.155	2388
4132.716	2412
4134.275	2460
4135.836	2417
4137.395	2379
4138.955	2411
4140.513	2408
4142.071	2403
4143.628	2414
4145.188	2379
4146.745	2439
4148.302	2410
4149.858	2423
4151.414	2392
4152.971	2405
4154.526	2371
4156.081	2387
4157.635	2364
4159.189	2384
4160.745	2353
4162.298	2415
4163.852	2406
4165.405	2359
4166.957	2360
4168.51	2303
4170.063	2350
4171.614	2365
4173.166	2401
4174.717	2347
4176.267	2316
4177.817	2370
4179.368	2378
4180.917	2374
4182.466	2346
4184.016	2391
4185.564	2350
4187.112	2282
4188.66	2332
4190.207	2311
4191.754	2369
4193.301	2324
4194.848	2296
4196.394	2344
4197.94	2307
4199.484	2297
4201.03	2335
4202.575	2343
4204.12	2289
4205.663	2331
4207.207	2348
4208.75	2307
4210.292	2267
4211.836	2331
4213.378	2265
4214.92	2343
4216.46	2282
4218.002	2288
4219.544	2338
4221.083	2334
4222.625	2289
4224.164	2314
4225.703	2253
4227.244	2276
4228.782	2258
4230.32	2250
4231.857	2314
4233.395	2291
4234.933	2255
4236.471	2332
4238.007	2227
4239.542	2265
4241.078	2263
4242.614	2261
4244.15	2276
4245.685	2277
4247.219	2207
4248.753	2255
4250.287	2251
4251.82	2277
4253.354	2253
4254.887	2231
4256.419	2244
4257.951	2238
4259.483	2245
4261.016	2180
4262.547	2260
4264.078	2258
4265.608	2250
4267.137	2218
4268.668	2214
4270.197	2198
4271.727	2178
4273.254	2250
4274.783	2187
4276.311	2237
4277.84	2230
4279.366	2247
4280.894	2265
4282.42	2193
4283.946	2235
4285.473	2174
4286.998	2202
4288.523	2137
4290.047	2211
4291.572	2155
4293.096	2157
4294.622	2164
4296.144	2238
4297.668	2174
4299.19	2200
4300.713	2167
4302.236	2165
4303.758	2209
4305.279	2210
4306.799	2152
4308.321	2144
4309.842	2136
4311.361	2172
4312.882	2150
4314.401	2155
