400.0961	7079
402.6185	6929
405.1424	7076
407.6635	7181
410.1838	7103
412.7035	7127
415.2225	7266
417.7388	7267
420.2585	7235
422.7754	7425
425.2917	7409
427.8072	7618
430.3221	7525
432.8363	7531
435.3498	7550
437.8626	7563
440.3727	7474
442.8841	7512
445.3969	7540
447.907	7562
450.4142	7517
452.9229	7531
455.4289	7652
457.9362	7564
460.4449	7463
462.9488	7490
465.454	7537
467.9566	7538
470.4604	7582
472.9637	7589
475.4662	7548
477.966	7503
480.4671	7695
482.9656	7638
485.4633	7733
487.9645	7779
490.4608	7642
492.9566	7662
495.4536	7686
497.948	7748
500.4437	7797
502.9387	7834
505.431	7775
507.9226	7811
510.4136	7883
512.9079	7849
515.3975	7854
517.8864	7818
520.3746	7875
522.8622	7864
525.3491	7891
527.8394	7891
530.3249	7869
532.8098	7912
535.2939	7950
537.7774	8010
540.2623	7949
542.7444	7925
545.2259	7962
547.7067	7867
550.1868	7885
552.6683	7952
555.147	7981
557.6231	7903
560.1005	8007
562.5773	7999
565.0534	8037
567.5308	8031
570.0056	8132
572.4776	8189
574.951	7932
577.4237	8174
579.8978	8186
582.3671	8305
584.8378	8291
587.3079	8210
589.7773	8301
592.244	8288
594.714	8194
597.1793	8187
599.6461	8230
602.1121	8304
604.5754	8283
607.0421	8264
609.5042	8227
611.9675	8265
614.4282	8213
616.8902	8257
619.3515	8133
621.8122	8132
624.2702	8084
626.7296	8192
629.1863	8069
631.6423	8164
634.1017	8032
636.5563	8109
639.0104	8164
641.4658	8185
643.9185	8149
646.3725	8222
648.8239	8201
651.2766	8237
653.7266	8227
656.176	8247
658.6247	8184
661.0748	8328
663.5242	8309
665.9709	8301
668.417	8515
670.8624	8457
673.3092	8369
675.7533	8387
678.1968	8321
680.6395	8540
683.0817	8445
685.5251	8458
687.9659	8462
690.4061	8426
692.8456	8473
695.2844	8428
697.7226	8461
700.1621	8444
702.599	8523
705.0332	8606
707.4688	8586
709.9036	8537
712.3399	8643
714.7735	8475
717.2044	8620
719.6367	8511
722.0683	8880
724.4993	8885
726.9296	8742
729.3593	8667
731.7883	8736
734.2147	8922
736.6423	8888
739.0714	8852
741.4958	8790
743.9216	8896
746.3447	8826
748.7691	8960
751.1929	8944
753.616	8996
756.0366	8973
758.4584	9010
760.8776	9005
763.2982	9096
765.718	9149
768.1373	9014
770.5539	9105
772.9698	9074
775.3871	9090
777.8038	9099
780.2178	9145
782.6332	9113
785.0459	9200
787.458	8936
789.8714	9194
792.2842	9178
794.6943	9110
797.1038	9157
799.5127	9153
801.9209	9124
804.3324	9206
806.7393	9292
809.1456	9215
811.5513	9313
813.9562	9258
816.3625	9283
818.7663	9238
821.1693	9169
823.5718	9307
825.9735	9265
828.3746	9143
830.7771	9110
833.177	9170
835.5762	9416
837.9747	9248
840.3727	9288
842.772	9317
845.1666	9344
847.5626	9394
849.958	9447
852.3527	9399
854.7488	9575
857.1403	9406
859.5331	9508
861.9253	9417
864.3168	9353
866.7057	9376
869.098	9358
871.4876	9481
873.8746	9373
876.263	9384
878.6487	9471
881.0378	9461
883.4243	9412
885.8081	9301
888.1933	9402
890.5759	9245
892.9598	9477
895.343	9366
897.7256	9475
900.1057	9473
902.4871	9361
904.8659	9535
907.246	9448
909.6254	9635
912.0023	9510
914.3786	9537
916.7562	9649
919.1331	9631
921.5074	9740
923.8831	9781
926.2562	9830
928.6287	9778
931.0005	9989
933.3757	9770
935.7462	9999
938.1162	9869
940.4855	10015
942.8542	10042
945.2242	10192
947.5916	10442
949.9584	10445
952.3266	10859
954.6921	11184
957.0571	11325
959.4233	11752
961.787	11597
964.15	11490
966.5125	11474
968.8742	11059
971.2354	10677
973.5959	10493
975.9559	10261
978.3151	10020
980.6738	9939
983.0338	9937
985.3912	9783
987.7461	9747
990.1022	9862
992.4578	9873
994.8127	9837
997.1689	9823
999.5207	9745
1001.874	9824
1004.226	9710
1006.576	9733
1008.929	9875
1011.28	9868
1013.628	9706
1015.977	9812
1018.324	9666
1020.674	9885
1023.019	9886
1025.366	9848
1027.713	9976
1030.056	9938
1032.399	9824
1034.746	9992
1037.087	9866
1039.431	9858
1041.771	9970
1044.113	9994
1046.454	9978
1048.793	9871
1051.133	10012
1053.471	9868
1055.807	9934
1058.146	10082
1060.483	9957
1062.818	10235
1065.153	10165
1067.489	10362
1069.822	10147
1072.156	10145
1074.488	10332
1076.82	10229
1079.15	10256
1081.48	10158
1083.814	10192
1086.143	10088
1088.471	10064
1090.799	9923
1093.126	9899
1095.452	10121
1097.78	10204
1100.105	10028
1102.43	10023
1104.754	10057
1107.077	9970
1109.4	10102
1111.722	10029
1114.044	9984
1116.365	10068
1118.685	10045
1121.005	10037
1123.324	9997
1125.643	10011
1127.961	10178
1130.278	10124
1132.595	10171
1134.911	10054
1137.226	10069
1139.541	10129
1141.854	10219
1144.167	10142
1146.482	9908
1148.793	10132
1151.105	9968
1153.414	10054
1155.725	10057
1158.033	10125
1160.344	10034
1162.651	10303
1164.959	10166
1167.265	10185
1169.572	10172
1171.878	10111
1174.184	10221
1176.488	10190
1178.79	10172
1181.094	10018
1183.396	10217
1185.699	10095
1188.001	10128
1190.301	10094
1192.6	10149
1194.9	10072
1197.2	10091
1199.497	10103
1201.794	10180
1204.09	10101
1206.387	10204
1208.684	10103
1210.978	10256
1213.272	10336
1215.565	10179
1217.858	10159
1220.15	10243
1222.443	10297
1224.734	10177
1227.024	10267
1229.313	10281
1231.602	10389
1233.892	10379
1236.18	10356
1238.467	10457
1240.754	10417
1243.04	10602
1245.325	10506
1247.612	10439
1249.896	10565
1252.178	10541
1254.461	10636
1256.743	10492
1259.027	10619
1261.308	10592
1263.587	10542
1265.867	10475
1268.146	10571
1270.425	10516
1272.703	10654
1274.981	10649
1277.256	10553
1279.532	10443
1281.808	10467
1284.083	10422
1286.358	10567
1288.63	10468
1290.904	10249
1293.175	10391
1295.449	10420
1297.719	10371
1299.99	10465
1302.259	10447
1304.529	10488
1306.798	10389
1309.065	10476
1311.333	10398
1313.599	10443
1315.866	10466
1318.131	10449
1320.396	10268
1322.66	10416
1324.925	10415
1327.187	10433
1329.448	10482
1331.711	10427
1333.974	10594
1336.234	10597
1338.493	10537
1340.752	10499
1343.01	10370
1345.269	10604
1347.526	10604
1349.784	10483
1352.04	10518
1354.295	10347
1356.552	10327
1358.806	10407
1361.059	10400
1363.312	10527
1365.564	10539
1367.818	10624
1370.069	10570
1372.318	10597
1374.568	10432
1376.817	10520
1379.066	10611
1381.316	10500
1383.564	10616
1385.809	10678
1388.056	10654
1390.301	10549
1392.549	10646
1394.793	10850
1397.036	10689
1399.279	10846
1401.522	10706
1403.763	10791
1406.007	10717
1408.248	10694
1410.487	10639
1412.727	10695
1414.965	10822
1417.205	10762
1419.442	10821
1421.68	10626
1423.915	10711
1426.152	10853
1428.388	10625
1430.623	10760
1432.857	10903
1435.091	10820
1437.323	10783
1439.556	10834
1441.789	10949
1444.019	10885
1446.25	10850
1448.48	10946
1450.708	10841
1452.938	10846
1455.167	11065
1457.394	11102
1459.62	10929
1461.846	11082
1464.073	11037
1466.299	10955
1468.523	10937
1470.746	10919
1472.969	10779
1475.191	10821
1477.415	10776
1479.636	10490
1481.858	10638
1484.078	10685
1486.298	10659
1488.518	10587
1490.736	10573
1492.954	10580
1495.169	10592
1497.386	10501
1499.602	10542
1501.819	10589
1504.034	10506
1506.248	10455
1508.462	10470
1510.675	10643
1512.888	10543
1515.1	10533
1517.311	10587
1519.522	10421
1521.732	10483
1523.942	10499
1526.151	10371
1528.36	10524
1530.566	10389
1532.773	10621
1534.98	10433
1537.187	10461
1539.392	10587
1541.596	10696
1543.801	10544
1546.005	10694
1548.208	10584
1550.411	10564
1552.612	10692
1554.814	10635
1557.013	10660
1559.212	10574
1561.414	10642
1563.612	10626
1565.811	10764
1568.007	10621
1570.203	10805
1572.403	10523
1574.598	10672
1576.792	10722
1578.988	10680
1581.181	10700
1583.376	10866
1585.568	10766
1587.761	10836
1589.952	10749
1592.143	10827
1594.333	10809
1596.524	10808
1598.715	10920
1600.903	10901
1603.091	10877
1605.278	10925
1607.466	10816
1609.652	10661
1611.838	11010
1614.023	10766
1616.207	10772
1618.391	10864
1620.576	10945
1622.759	10844
1624.941	10886
1627.123	10987
1629.304	10951
1631.484	10970
1633.664	11065
1635.844	10928
1638.022	11067
1640.201	10887
1642.38	11041
1644.556	11142
1646.732	11003
1648.908	10771
1651.084	11064
1653.257	11128
1655.433	11001
1657.607	10934
1659.779	10988
1661.951	10912
1664.122	10996
1666.295	10997
1668.467	11058
1670.635	10995
1672.805	11064
1674.973	10971
1677.142	11245
1679.31	10952
1681.478	11105
1683.644	10824
1685.81	10874
1687.975	11000
1690.142	11012
1692.305	10923
1694.468	10986
1696.632	10984
1698.794	10813
1700.957	10964
1703.119	10832
1705.279	10890
1707.439	10827
1709.598	10794
1711.758	10807
1713.917	10676
1716.075	10762
1718.231	10680
1720.388	10582
1722.543	10691
1724.702	10759
1726.856	10693
1729.01	10799
1731.164	10675
1733.317	10815
1735.471	10781
1737.623	10825
1739.774	10874
1741.925	10936
1744.075	10791
1746.225	10712
1748.376	10804
1750.524	10805
1752.672	10704
1754.82	10773
1756.965	10979
1759.113	10831
1761.259	10870
1763.405	10925
1765.549	10894
1767.694	10690
1769.836	10898
1771.981	10944
1774.123	10898
1776.264	10792
1778.405	10944
1780.546	10904
1782.687	10837
1784.827	10829
1786.966	10929
1789.103	10838
1791.242	10790
1793.381	10904
1795.517	10903
1797.653	10862
1799.788	10949
1801.923	10756
1804.057	10857
1806.193	10954
1808.326	10888
1810.457	10865
1812.59	10681
1814.721	10844
1816.855	10826
1818.984	10853
1821.113	10892
1823.244	10830
1825.372	10770
1827.499	10882
1829.63	10802
1831.756	10826
1833.882	10867
1836.007	10727
1838.132	10801
1840.26	10863
1842.384	10711
1844.507	10782
1846.63	10835
1848.752	10782
1850.875	10750
1852.996	10750
1855.118	10883
1857.238	10736
1859.358	10800
1861.477	10652
1863.597	10763
1865.715	10813
1867.832	10738
1869.948	10914
1872.064	10734
1874.181	10692
1876.297	10683
1878.411	10591
1880.526	10731
1882.639	10766
1884.752	10800
1886.865	10787
1888.977	10847
1891.089	10943
1893.2	10826
1895.308	10809
1897.42	10930
1899.53	10759
1901.639	10846
1903.745	10788
1905.853	10826
1907.962	10979
1910.067	10813
1912.174	10799
1914.278	10800
1916.383	10878
1918.486	10876
1920.592	10941
1922.694	10863
1924.797	10926
1926.898	10982
1929	10797
1931.102	10855
1933.203	11022
1935.301	10970
1937.401	10883
1939.499	11025
1941.598	10863
1943.697	10940
1945.793	10977
1947.888	11012
1949.985	10880
1952.08	10786
1954.176	11009
1956.269	10959
1958.364	10816
1960.457	11005
1962.549	10923
1964.642	10814
1966.733	10792
1968.823	10833
1970.913	10754
1973.005	10924
1975.093	10798
1977.184	11045
1979.271	10811
1981.359	10847
1983.446	10862
1985.532	10921
1987.619	10729
1989.705	10751
1991.789	10765
1993.874	10675
1995.956	10833
1998.041	10814
2000.123	10665
2002.206	10744
2004.287	10778
2006.368	10630
2008.449	10733
2010.529	10648
2012.609	10747
2014.688	10706
2016.766	10748
2018.843	10705
2020.922	10616
2022.999	10925
2025.074	10719
2027.15	10877
2029.225	10752
2031.299	10539
2033.375	10825
2035.447	10801
2037.52	10841
2039.592	10639
2041.664	10668
2043.736	10619
2045.807	10617
2047.876	10668
2049.947	10834
2052.015	10828
2054.086	10703
2056.153	10818
2058.221	10675
2060.288	10849
2062.353	10737
2064.42	10868
2066.486	10619
2068.55	10726
2070.614	10827
2072.678	10717
2074.741	10849
2076.805	10765
2078.866	10605
2080.929	10743
2082.99	10799
2085.049	10751
2087.109	10815
2089.17	10758
2091.228	10796
2093.286	10830
2095.344	10732
2097.4	10747
2099.46	10704
2101.516	10729
2103.572	10708
2105.626	10712
2107.679	10643
2109.735	10642
2111.788	10686
2113.841	10748
2115.894	10784
2117.945	10715
2119.997	10674
2122.049	10761
2124.1	10706
2126.148	10731
2128.197	10733
2130.246	10708
2132.296	10555
2134.342	10731
2136.39	10526
2138.437	10792
2140.483	10723
2142.527	10675
2144.574	10710
2146.619	10514
2148.661	10623
2150.705	10665
2152.747	10601
2154.792	10619
2156.832	10551
2158.874	10490
2160.915	10421
2162.954	10607
2164.995	10585
2167.034	10642
2169.072	10431
2171.111	10616
2173.148	10689
2175.186	10482
2177.223	10651
2179.258	10503
2181.294	10489
2183.328	10487
2185.362	10734
2187.398	10600
2189.431	10461
2191.463	10322
2193.495	10463
2195.528	10417
2197.56	10413
2199.59	10505
2201.62	10288
2203.649	10476
2205.678	10338
2207.708	10385
2209.737	10392
2211.764	10510
2213.791	10391
2215.817	10283
2217.843	10371
2219.87	10541
2221.895	10504
2223.919	10351
2225.942	10309
2227.966	10307
2229.988	10294
2232.012	10309
2234.032	10496
2236.054	10282
2238.074	10194
2240.095	10343
2242.116	10331
2244.135	10293
2246.153	10387
2248.171	10377
2250.188	10321
2252.208	10237
2254.223	10427
2256.239	10346
2258.255	10241
2260.269	10437
2262.283	10194
2264.3	10277
2266.312	10307
2268.325	10348
2270.336	10183
2272.349	10385
2274.362	10444
2276.372	10291
2278.383	10311
2280.392	10308
2282.402	10349
2284.409	10294
2286.418	10285
2288.427	10383
2290.433	10269
2292.441	10347
2294.446	10245
2296.453	10299
2298.459	10389
2300.463	10258
2302.466	10274
2304.471	10192
2306.475	10371
2308.477	10211
2310.478	10180
2312.481	10256
2314.481	10175
2316.481	10045
2318.482	10335
2320.482	10078
2322.48	10242
2324.48	10337
2326.478	10131
2328.476	10242
2330.473	10301
2332.469	9945
2334.465	10212
2336.46	10138
2338.454	10210
2340.45	10043
2342.444	10180
2344.437	10227
2346.43	10053
2348.421	10044
2350.414	10126
2352.405	10149
2354.396	9954
2356.386	10212
2358.376	10056
2360.366	10093
2362.355	10034
2364.343	10147
2366.331	10128
2368.317	10163
2370.304	9947
2372.292	10087
2374.278	10094
2376.262	10047
2378.247	9983
2380.23	9951
2382.216	9949
2384.199	9983
2386.181	10101
2388.163	10060
2390.144	9819
2392.127	9987
2394.107	9898
2396.087	9860
2398.066	9758
2400.046	9921
2402.023	9797
2404.004	9964
2405.981	10002
2407.957	9845
2409.934	9938
2411.91	9918
2413.886	9835
2415.862	9868
2417.836	9918
2419.809	9948
2421.784	9882
2423.756	9920
2425.73	9921
2427.701	10048
2429.672	9900
2431.644	9990
2433.615	9961
2435.586	9967
2437.555	9880
2439.523	9888
2441.491	9934
2443.459	9903
2445.428	9970
2447.395	9759
2449.361	9819
2451.327	9840
2453.292	9672
2455.257	9927
2457.223	9670
2459.187	9557
2461.15	9764
2463.113	9690
2465.076	9762
2467.039	9819
2468.999	9844
2470.96	9617
2472.921	9819
2474.881	9745
2476.841	9646
2478.8	9677
2480.759	9798
2482.717	9669
2484.675	9866
2486.63	9932
2488.589	9843
2490.545	9741
2492.5	9614
2494.455	9698
2496.408	9753
2498.364	9537
2500.318	9713
2502.27	9602
2504.223	9630
2506.174	9700
2508.126	9668
2510.078	9671
2512.03	9686
2513.979	9778
2515.927	9583
2517.877	9711
2519.826	9609
2521.775	9608
2523.722	9643
2525.668	9640
2527.616	9730
2529.561	9672
2531.508	9686
2533.452	9620
2535.398	9779
2537.342	9612
2539.284	9604
2541.229	9683
2543.173	9572
2545.114	9586
2547.055	9593
2548.996	9709
2550.938	9501
2552.878	9540
2554.817	9686
2556.756	9582
2558.695	9612
2560.633	9567
2562.572	9433
2564.509	9578
2566.445	9573
2568.382	9527
2570.317	9768
2572.254	9550
2574.189	9648
2576.123	9564
2578.057	9584
2579.99	9556
2581.923	9801
2583.855	9638
2585.788	9665
2587.719	9525
2589.65	9617
2591.579	9691
2593.511	9640
2595.44	9527
2597.37	9472
2599.297	9626
2601.225	9722
2603.153	9583
2605.08	9500
2607.007	9689
2608.932	9565
2610.858	9675
2612.782	9490
2614.709	9684
2616.632	9503
2618.556	9655
2620.478	9506
2622.401	9587
2624.324	9725
2626.247	9541
2628.167	9605
2630.088	9577
2632.008	9586
2633.928	9625
2635.848	9556
2637.766	9564
2639.684	9566
2641.603	9576
2643.519	9618
2645.437	9540
2647.353	9594
2649.27	9505
2651.184	9494
2653.099	9645
2655.014	9591
2656.928	9540
2658.842	9677
2660.755	9544
2662.667	9559
2664.579	9580
2666.491	9769
2668.402	9442
2670.312	9362
2672.222	9499
2674.132	9665
2676.042	9536
2677.951	9604
2679.859	9527
2681.766	9477
2683.674	9476
2685.582	9439
2687.488	9345
2689.392	9499
2691.298	9536
2693.202	9377
2695.107	9382
2697.012	9394
2698.914	9461
2700.817	9363
2702.72	9586
2704.622	9380
2706.524	9388
2708.425	9468
2710.326	9399
2712.225	9405
2714.125	9330
2716.024	9369
2717.923	9499
2719.822	9393
2721.719	9367
2723.616	9379
2725.512	9414
2727.41	9421
2729.305	9295
2731.201	9276
2733.095	9385
2734.99	9464
2736.884	9290
2738.778	9305
2740.67	9429
2742.562	9282
2744.455	9333
2746.346	9328
2748.238	9268
2750.129	9294
2752.018	9409
2753.907	9353
2755.797	9399
2757.687	9396
2759.575	9265
2761.462	9351
2763.349	9211
2765.237	9156
2767.124	9261
2769.009	9177
2770.894	9146
2772.779	9182
2774.663	9112
2776.547	9132
2778.431	9098
2780.314	9258
2782.197	9222
2784.078	9270
2785.96	9263
2787.842	9192
2789.723	9347
2791.603	9261
2793.483	9200
2795.362	9019
2797.241	9307
2799.121	9274
2800.997	9268
2802.874	9135
2804.751	9162
2806.628	9083
2808.506	9222
2810.38	9149
2812.255	9101
2814.13	9148
2816.003	9104
2817.878	9111
2819.752	9229
2821.623	9226
2823.496	9092
2825.368	9045
2827.238	9121
2829.111	9072
2830.98	9066
2832.851	9126
2834.719	9231
2836.589	9071
2838.458	9074
2840.327	9041
2842.193	9080
2844.061	9130
2845.927	9131
2847.794	9100
2849.66	9246
2851.525	9165
2853.39	9231
2855.254	9213
2857.117	9107
2858.983	9266
2860.845	9414
2862.707	9189
2864.569	9373
2866.431	9247
2868.293	9351
2870.154	9472
2872.013	9463
2873.873	9592
2875.733	9464
2877.592	9730
2879.451	9728
2881.309	9709
2883.166	9786
2885.022	9827
2886.879	9901
2888.736	9734
2890.591	9848
2892.446	9864
2894.301	9871
2896.155	9704
2898.009	9917
2899.863	9760
2901.716	9790
2903.568	9736
2905.419	9702
2907.27	9853
2909.123	9824
2910.973	9809
2912.824	9882
2914.673	9864
2916.521	9961
2918.372	9948
2920.22	10099
2922.067	9798
2923.914	10209
2925.761	10193
2927.607	10194
2929.455	10238
2931.301	10485
2933.144	10480
2934.99	10593
2936.833	10531
2938.678	10452
2940.522	10537
2942.364	10738
2944.207	10769
2946.048	10795
2947.891	10988
2949.731	10878
2951.571	10876
2953.412	10809
2955.25	10712
2957.09	10703
2958.93	10519
2960.767	10544
2962.606	10512
2964.443	10332
2966.279	10407
2968.116	10150
2969.953	10065
2971.788	10012
2973.623	10096
2975.457	9916
2977.292	9896
2979.127	9767
2980.959	9790
2982.792	9654
2984.624	9784
2986.455	9700
2988.288	9731
2990.119	9524
2991.949	9440
2993.779	9504
2995.608	9468
2997.439	9329
2999.268	9373
3001.096	9295
3002.923	9363
3004.751	9161
3006.578	9123
3008.406	9079
3010.232	9004
3012.057	8909
3013.883	9021
3015.706	8950
3017.532	8910
3019.356	8840
3021.179	8765
3023.002	8669
3024.823	8775
3026.646	8689
3028.469	8627
3030.289	8742
3032.11	8734
3033.93	8631
3035.749	8510
3037.57	8626
3039.39	8656
3041.207	8555
3043.026	8470
3044.842	8654
3046.661	8566
3048.477	8543
3050.294	8631
3052.109	8529
3053.925	8529
3055.739	8424
3057.555	8450
3059.368	8425
3061.181	8474
3062.995	8452
3064.807	8675
3066.62	8340
3068.433	8577
3070.243	8384
3072.054	8530
3073.865	8407
3075.675	8434
3077.485	8483
3079.293	8488
3081.102	8464
3082.911	8359
3084.719	8354
3086.527	8237
3088.333	8483
3090.139	8427
3091.945	8350
3093.75	8338
3095.557	8282
3097.361	8255
3099.165	8259
3100.969	8251
3102.772	8162
3104.575	8186
3106.379	8238
3108.181	8178
3109.982	8238
3111.783	8419
3113.584	8097
3115.386	8157
3117.186	8138
3118.985	8239
3120.783	8058
3122.582	8100
3124.381	8194
3126.179	8166
3127.975	8109
3129.772	8074
3131.569	8136
3133.365	8018
3135.161	8087
3136.956	8076
3138.751	7978
3140.544	8080
3142.338	7935
3144.132	8031
3145.925	7961
3147.717	8061
3149.509	8088
3151.301	7971
3153.091	7946
3154.884	7976
3156.673	8018
3158.462	7973
3160.252	8052
3162.041	8126
3163.831	8040
3165.618	8002
3167.405	7901
3169.193	8018
3170.979	7899
3172.767	7846
3174.553	8074
3176.338	7959
3178.123	7928
3179.907	7949
3181.692	7918
3183.477	7930
3185.259	7932
3187.042	7853
3188.824	7871
3190.607	7931
3192.389	7890
3194.17	7948
3195.951	7941
3197.73	7933
3199.51	7865
3201.289	7957
3203.07	7981
3204.848	7773
3206.626	7724
3208.403	8070
3210.18	7844
3211.959	7800
3213.735	7899
3215.511	8047
3217.285	7865
3219.06	7933
3220.836	7851
3222.611	7835
3224.384	7790
3226.158	7781
3227.929	7805
3229.702	7840
3231.476	7809
3233.248	7750
3235.018	7745
3236.789	7715
3238.56	7834
3240.33	7760
3242.1	7867
3243.869	7787
3245.637	7813
3247.405	7739
3249.172	7814
3250.941	7724
3252.707	7786
3254.474	7902
3256.24	7798
3258.006	7725
3259.772	7818
3261.537	7674
3263.301	7917
3265.065	7796
3266.828	7688
3268.592	7765
3270.355	7764
3272.117	7715
3273.878	7709
3275.64	7769
3277.401	7871
3279.162	7799
3280.922	7628
3282.682	7607
3284.441	7785
3286.199	7839
3287.959	7746
3289.716	7713
3291.475	7793
3293.232	7783
3294.988	7682
3296.744	7639
3298.501	7763
3300.256	7745
3302.011	7732
3303.766	7756
3305.52	7845
3307.275	7698
3309.028	7641
3310.781	7797
3312.533	7751
3314.285	7798
3316.038	7712
3317.789	7689
3319.54	7694
3321.289	7752
3323.039	7719
3324.789	7632
3326.539	7742
3328.288	7563
3330.035	7778
3331.783	7555
3333.531	7768
3335.28	7694
3337.025	7488
3338.771	7730
3340.518	7706
3342.262	7635
3344.009	7700
3345.753	7548
3347.497	7657
3349.24	7642
3350.983	7540
3352.726	7594
3354.469	7581
3356.212	7594
3357.952	7558
3359.694	7545
3361.434	7643
3363.176	7595
3364.916	7537
3366.654	7559
3368.394	7525
3370.132	7540
3371.871	7469
3373.61	7548
3375.346	7398
3377.083	7394
3378.82	7428
3380.556	7354
3382.292	7495
3384.027	7398
3385.763	7401
3387.497	7431
3389.231	7475
3390.965	7369
3392.698	7406
3394.431	7486
3396.164	7436
3397.896	7437
3399.627	7463
3401.36	7417
3403.09	7444
3404.82	7352
3406.55	7286
3408.279	7321
3410.01	7450
3411.738	7352
3413.467	7392
3415.194	7350
3416.92	7255
3418.647	7283
3420.375	7244
3422.102	7249
3423.827	7333
3425.553	7387
3427.277	7164
3429.003	7315
3430.727	7181
3432.451	7215
3434.173	7220
3435.896	7325
3437.62	7122
3439.343	7308
3441.063	7183
3442.785	7098
3444.505	7109
3446.226	7123
3447.948	7131
3449.666	6983
3451.386	7164
3453.104	7172
3454.823	7131
3456.541	7157
3458.259	7100
3459.976	7088
3461.693	7136
3463.408	7008
3465.125	7051
3466.841	6972
3468.556	7058
3470.271	6982
3471.985	7031
3473.698	6921
3475.414	7030
3477.126	6921
3478.838	6975
3480.55	6879
3482.263	6976
3483.975	6928
3485.686	6969
3487.396	6945
3489.106	6989
3490.817	6855
3492.526	6822
3494.236	6838
3495.944	6913
3497.652	6950
3499.359	6893
3501.066	6791
3502.775	6892
3504.481	6734
3506.187	6766
3507.893	6718
3509.598	6821
3511.304	6715
3513.009	6660
3514.713	6779
3516.417	6696
3518.12	6956
3519.821	6820
3521.525	6704
3523.228	6631
3524.929	6746
3526.631	6769
3528.33	6692
3530.032	6560
3531.733	6710
3533.433	6792
3535.131	6632
3536.83	6673
3538.529	6687
3540.227	6735
3541.925	6692
3543.623	6728
3545.319	6693
3547.016	6515
3548.712	6633
3550.408	6563
3552.103	6555
3553.798	6672
3555.491	6580
3557.188	6542
3558.88	6642
3560.574	6530
3562.266	6542
3563.959	6555
3565.651	6478
3567.343	6491
3569.035	6542
3570.725	6602
3572.415	6562
3574.106	6483
3575.797	6492
3577.485	6462
3579.174	6499
3580.863	6605
3582.551	6418
3584.238	6427
3585.926	6416
3587.613	6454
3589.3	6435
3590.986	6451
3592.671	6329
3594.357	6408
3596.042	6342
3597.726	6355
3599.41	6333
3601.094	6312
3602.778	6460
3604.461	6257
3606.143	6306
3607.825	6344
3609.507	6385
3611.188	6160
3612.87	6212
3614.551	6264
3616.229	6298
3617.909	6335
3619.589	6198
3621.269	6213
3622.948	6158
3624.625	6179
3626.302	6302
3627.98	6204
3629.657	6203
3631.334	6244
3633.01	6221
3634.686	6183
3636.361	6164
3638.036	6141
3639.712	6127
3641.385	6054
3643.06	6078
3644.732	6147
3646.405	6087
3648.08	6080
3649.751	6173
3651.424	6041
3653.094	6062
3654.766	6119
3656.436	6055
3658.106	6115
3659.777	6079
3661.446	6026
3663.115	6091
3664.783	6047
3666.452	6075
3668.121	6012
3669.788	6025
3671.454	5912
3673.121	5941
3674.789	5937
3676.455	5973
3678.12	5933
3679.784	5996
3681.45	5948
3683.114	6117
3684.779	5951
3686.442	5912
3688.105	5921
3689.768	5887
3691.43	5961
3693.093	5902
3694.754	5903
3696.415	5897
3698.076	5949
3699.736	5961
3701.396	5808
3703.057	6008
3704.716	5866
3706.375	5969
3708.034	5791
3709.692	5838
3711.351	5770
3713.008	5830
3714.665	5913
3716.321	5817
3717.977	5905
3719.634	5855
3721.29	5911
3722.945	5866
3724.598	5781
3726.253	5821
3727.907	5676
3729.561	5868
3731.214	5815
3732.867	5771
3734.518	5817
3736.171	5824
3737.824	5823
3739.474	5787
3741.125	5782
3742.775	5730
3744.425	5845
3746.074	5943
3747.725	5678
3749.373	5643
3751.022	5756
3752.669	5797
3754.318	5795
3755.966	5709
3757.612	5747
3759.259	5742
3760.905	5784
3762.55	5714
3764.197	5671
3765.842	5698
3767.486	5782
3769.131	5650
3770.774	5573
3772.417	5707
3774.061	5731
3775.705	5736
3777.347	5613
3778.988	5567
3780.629	5794
3782.271	5577
3783.912	5540
3785.552	5647
3787.192	5568
3788.831	5602
3790.472	5571
3792.112	5646
3793.75	5570
3795.388	5586
3797.024	5543
3798.661	5497
3800.3	5610
3801.936	5599
3803.572	5592
3805.208	5500
3806.844	5571
3808.48	5641
3810.115	5517
3811.748	5509
3813.382	5535
3815.016	5345
3816.649	5395
3818.283	5597
3819.914	5496
3821.547	5490
3823.178	5436
3824.809	5397
3826.441	5433
3828.072	5471
3829.701	5375
3831.331	5476
3832.96	5505
3834.591	5392
3836.219	5423
3837.847	5495
3839.475	5396
3841.102	5503
3842.729	5399
3844.357	5311
3845.984	5386
3847.609	5330
3849.234	5444
3850.86	5427
3852.485	5346
3854.11	5331
3855.734	5393
3857.357	5322
3858.981	5300
3860.603	5343
3862.227	5262
3863.848	5341
3865.471	5192
3867.092	5352
3868.713	5298
3870.334	5509
3871.954	5329
3873.575	5256
3875.194	5320
3876.813	5322
3878.433	5251
3880.051	5349
3881.669	5239
3883.286	5272
3884.904	5221
3886.52	5251
3888.138	5205
3889.754	5194
3891.37	5181
3892.985	5259
3894.6	5211
3896.216	5284
3897.831	5248
3899.444	5307
3901.058	5205
3902.67	5184
3904.283	5211
3905.897	5131
3907.509	5163
3909.121	5240
3910.731	5272
3912.342	5134
3913.954	5163
3915.563	5172
3917.174	5223
3918.783	5224
3920.391	5148
3922.002	5213
3923.611	5141
3925.218	5266
3926.826	5134
3928.432	5124
3930.039	5164
3931.647	5079
3933.253	5186
3934.859	5223
3936.464	5083
3938.068	5259
3939.675	5210
3941.278	5026
3942.883	5138
3944.486	5082
3946.089	5101
3947.692	5068
3949.295	5145
3950.898	5134
3952.499	5047
3954.1	5058
3955.7	5115
3957.303	5078
3958.903	5032
3960.502	5211
3962.101	5049
3963.7	5095
3965.301	5072
3966.899	5090
3968.497	5014
3970.094	5052
3971.691	4978
3973.288	4986
3974.885	5048
3976.481	4907
3978.077	4957
3979.672	5023
3981.267	4996
3982.863	4920
3984.457	5037
3986.051	5024
3987.645	4898
3989.238	4923
3990.831	5030
3992.425	4935
3994.017	4809
3995.607	5009
3997.199	4873
3998.79	4887
4000.382	4917
4001.973	4915
4003.561	4922
4005.151	4820
4006.741	4764
4008.331	4801
4009.918	4850
4011.507	4771
4013.095	4854
4014.681	4823
4016.269	4808
4017.856	4883
4019.443	4935
4021.028	4754
4022.614	4751
4024.199	4803
4025.785	4747
4027.37	4731
4028.953	4797
4030.536	4839
4032.12	4749
4033.704	4755
4035.287	4700
4036.869	4829
4038.45	4731
4040.032	4794
4041.613	4715
4043.195	4672
4044.776	4812
4046.356	4742
4047.935	4710
4049.515	4684
4051.095	4724
4052.674	4747
4054.251	4631
4055.829	4631
4057.406	4614
4058.985	4631
4060.562	4685
4062.139	4528
4063.715	4712
4065.29	4736
4066.865	4644
4068.442	4597
4070.016	4641
4071.59	4629
4073.164	4624
4074.738	4695
4076.312	4797
4077.885	4553
4079.458	4732
4081.03	4625
4082.602	4597
4084.173	4568
4085.745	4599
4087.315	4561
4088.886	4605
4090.456	4525
4092.026	4673
4093.596	4564
4095.165	4618
4096.734	4541
4098.301	4459
4099.869	4500
4101.437	4514
4103.006	4530
4104.572	4518
4106.139	4542
4107.704	4581
4109.27	4469
4110.837	4505
4112.401	4463
4113.966	4410
4115.53	4536
4117.094	4475
4118.659	4447
4120.223	4471
4121.785	4530
4123.347	4575
4124.909	4471
4126.471	4547
4128.034	4419
4129.595	4526
4131.155	4487
4132.716	4482
4134.275	4503
4135.836	4336
4137.395	4449
4138.955	4426
4140.513	4397
4142.071	4471
4143.628	4355
4145.188	4372
4146.745	4421
4148.302	4415
4149.858	4373
4151.414	4396
4152.971	4340
4154.526	4366
4156.081	4369
4157.635	4410
4159.189	4370
4160.745	4309
4162.298	4239
4163.852	4359
4165.405	4314
4166.957	4306
4168.51	4344
4170.063	4296
4171.614	4286
4173.166	4209
4174.717	4297
4176.267	4330
4177.817	4281
4179.368	4283
4180.917	4209
4182.466	4287
4184.016	4184
4185.564	4319
4187.112	4187
4188.66	4288
4190.207	4220
4191.754	4210
4193.301	4214
4194.848	4208
4196.394	4124
4197.94	4134
4199.484	4187
4201.03	4090
4202.575	4242
4204.12	4186
4205.663	4238
4207.207	4052
4208.75	4187
4210.292	4120
4211.836	4192
4213.378	4163
4214.92	4142
4216.46	4146
4218.002	4242
4219.544	4115
4221.083	4160
4222.625	4109
4224.164	4120
4225.703	4190
4227.244	4101
4228.782	4165
4230.32	4171
4231.857	4107
4233.395	4088
4234.933	4145
4236.471	4116
4238.007	4086
4239.542	4050
4241.078	4038
4242.614	4095
4244.15	4133
4245.685	3984
4247.219	4047
4248.753	4082
4250.287	4097
4251.82	4185
4253.354	4029
4254.887	4043
4256.419	4031
4257.951	4026
4259.483	4065
4261.016	4064
4262.547	3969
4264.078	3972
4265.608	4038
4267.137	4060
4268.668	4072
4270.197	4011
4271.727	4124
4273.254	4029
4274.783	4037
4276.311	4002
4277.84	4014
4279.366	3992
4280.894	4047
4282.42	3962
4283.946	3925
4285.473	4001
4286.998	4027
4288.523	3964
4290.047	3863
4291.572	3996
4293.096	3934
4294.622	4025
4296.144	3961
4297.668	3901
4299.19	3967
4300.713	3931
4302.236	3894
4303.758	3872
4305.279	3931
4306.799	3902
4308.321	3939
4309.842	3965
4311.361	3826
4312.882	3901
4314.401	3936
