400.0961	2777
402.6185	2903
405.1424	2903
407.6635	2951
410.1838	2976
412.7035	2950
415.2225	2979
417.7388	2992
420.2585	3002
422.7754	3032
425.2917	3062
427.8072	3007
430.3221	3021
432.8363	3109
435.3498	3069
437.8626	3060
440.3727	3017
442.8841	3049
445.3969	3073
447.907	2995
450.4142	3100
452.9229	3030
455.4289	3008
457.9362	3066
460.4449	3084
462.9488	3007
465.454	3002
467.9566	3007
470.4604	3063
472.9637	3053
475.4662	3063
477.966	3067
480.4671	3061
482.9656	3024
485.4633	3017
487.9645	3070
490.4608	3120
492.9566	3091
495.4536	3084
497.948	3093
500.4437	3162
502.9387	3149
505.431	3082
507.9226	3152
510.4136	3121
512.9079	3148
515.3975	3132
517.8864	3063
520.3746	3118
522.8622	3133
525.3491	3248
527.8394	3178
530.3249	3146
532.8098	3188
535.2939	3219
537.7774	3164
540.2623	3164
542.7444	3165
545.2259	3151
547.7067	3196
550.1868	3150
552.6683	3209
555.147	3200
557.6231	3186
560.1005	3195
562.5773	3219
565.0534	3260
567.5308	3252
570.0056	3212
572.4776	3269
574.951	3219
577.4237	3272
579.8978	3264
582.3671	3282
584.8378	3408
587.3079	3336
589.7773	3294
592.244	3337
594.714	3264
597.1793	3252
599.6461	3286
602.1121	3247
604.5754	3238
607.0421	3283
609.5042	3243
611.9675	3192
614.4282	3211
616.8902	3228
619.3515	3245
621.8122	3236
624.2702	3272
626.7296	3256
629.1863	3237
631.6423	3284
634.1017	3251
636.5563	3263
639.0104	3244
641.4658	3270
643.9185	3277
646.3725	3304
648.8239	3267
651.2766	3280
653.7266	3276
656.176	3298
658.6247	3300
661.0748	3271
663.5242	3293
665.9709	3317
668.417	3310
670.8624	3371
673.3092	3263
675.7533	3250
678.1968	3276
680.6395	3317
683.0817	3335
685.5251	3377
687.9659	3361
690.4061	3235
692.8456	3359
695.2844	3435
697.7226	3363
700.1621	3323
702.599	3516
705.0332	3403
707.4688	3323
709.9036	3369
712.3399	3466
714.7735	3364
717.2044	3379
719.6367	3483
722.0683	3407
724.4993	3440
726.9296	3415
729.3593	3560
731.7883	3433
734.2147	3458
736.6423	3421
739.0714	3460
741.4958	3488
743.9216	3570
746.3447	3516
748.7691	3515
751.1929	3497
753.616	3559
756.0366	3484
758.4584	3643
760.8776	3603
763.2982	3554
765.718	3585
768.1373	3522
770.5539	3606
772.9698	3622
775.3871	3573
777.8038	3645
780.2178	3709
782.6332	3561
785.0459	3517
787.458	3612
789.8714	3516
792.2842	3552
794.6943	3570
797.1038	3545
799.5127	3653
801.9209	3573
804.3324	3544
806.7393	3648
809.1456	3552
811.5513	3663
813.9562	3638
816.3625	3631
818.7663	3596
821.1693	3676
823.5718	3649
825.9735	3620
828.3746	3743
830.7771	3658
833.177	3664
835.5762	3705
837.9747	3625
840.3727	3720
842.772	3654
845.1666	3652
847.5626	3753
849.958	3675
852.3527	3752
854.7488	3675
857.1403	3724
859.5331	3657
861.9253	3640
864.3168	3648
866.7057	3676
869.098	3668
871.4876	3750
873.8746	3622
876.263	3745
878.6487	3704
881.0378	3710
883.4243	3639
885.8081	3715
888.1933	3702
890.5759	3681
892.9598	3787
895.343	3713
897.7256	3692
900.1057	3725
902.4871	3750
904.8659	3757
907.246	3672
909.6254	3758
912.0023	3769
914.3786	3820
916.7562	3866
919.1331	3926
921.5074	3899
923.8831	3800
926.2562	3851
928.6287	3970
931.0005	3919
933.3757	3901
935.7462	3957
938.1162	3918
940.4855	3967
942.8542	4097
945.2242	4014
947.5916	4068
949.9584	4159
952.3266	4331
954.6921	4402
957.0571	4531
959.4233	4680
961.787	4662
964.15	4698
966.5125	4577
968.8742	4452
971.2354	4272
973.5959	4262
975.9559	4084
978.3151	3880
980.6738	3880
983.0338	3913
985.3912	3875
987.7461	3825
990.1022	3854
992.4578	3882
994.8127	3922
997.1689	3871
999.5207	3902
1001.874	3875
1004.226	3857
1006.576	3930
1008.929	3998
1011.28	3855
1013.628	3898
1015.977	3829
1018.324	3847
1020.674	3887
1023.019	3906
1025.366	3989
1027.713	3869
1030.056	3913
1032.399	3872
1034.746	4022
1037.087	3957
1039.431	3947
1041.771	3877
1044.113	3885
1046.454	3919
1048.793	3918
1051.133	3920
1053.471	3998
1055.807	3879
1058.146	3928
1060.483	3928
1062.818	4049
1065.153	4029
1067.489	4037
1069.822	4074
1072.156	4040
1074.488	3982
1076.82	4037
1079.15	3947
1081.48	3990
1083.814	3986
1086.143	4018
1088.471	3867
1090.799	4019
1093.126	3968
1095.452	3978
1097.78	3919
1100.105	3954
1102.43	3961
1104.754	3926
1107.077	3937
1109.4	3914
1111.722	3934
1114.044	3880
1116.365	3964
1118.685	3965
1121.005	4025
1123.324	3946
1125.643	4006
1127.961	3958
1130.278	3978
1132.595	3971
1134.911	3986
1137.226	4017
1139.541	3898
1141.854	3992
1144.167	3902
1146.482	3997
1148.793	3952
1151.105	3954
1153.414	3939
1155.725	4030
1158.033	3963
1160.344	3953
1162.651	4005
1164.959	3913
1167.265	3939
1169.572	3988
1171.878	3938
1174.184	3960
1176.488	3958
1178.79	4000
1181.094	4079
1183.396	3964
1185.699	4017
1188.001	3945
1190.301	3997
1192.6	4033
1194.9	3942
1197.2	3947
1199.497	3957
1201.794	4005
1204.09	4038
1206.387	4078
1208.684	3950
1210.978	4045
1213.272	3968
1215.565	3987
1217.858	4030
1220.15	4041
1222.443	4045
1224.734	4097
1227.024	4056
1229.313	4064
1231.602	4111
1233.892	4024
1236.18	4090
1238.467	4115
1240.754	4050
1243.04	4221
1245.325	4242
1247.612	4208
1249.896	4179
1252.178	4141
1254.461	4219
1256.743	4163
1259.027	4221
1261.308	4129
1263.587	4171
1265.867	4136
1268.146	4188
1270.425	4154
1272.703	4178
1274.981	4202
1277.256	4071
1279.532	4252
1281.808	4127
1284.083	4163
1286.358	4174
1288.63	4089
1290.904	4106
1293.175	4069
1295.449	4180
1297.719	4144
1299.99	4059
1302.259	4175
1304.529	4091
1306.798	4086
1309.065	4080
1311.333	4088
1313.599	4146
1315.866	4054
1318.131	4121
1320.396	4152
1322.66	4038
1324.925	4172
1327.187	4103
1329.448	4147
1331.711	4148
1333.974	4216
1336.234	4008
1338.493	4099
1340.752	4158
1343.01	4081
1345.269	4113
1347.526	4090
1349.784	4079
1352.04	4147
1354.295	4056
1356.552	4076
1358.806	4131
1361.059	4108
1363.312	4086
1365.564	4047
1367.818	4121
1370.069	4042
1372.318	4117
1374.568	4198
1376.817	4200
1379.066	4167
1381.316	4078
1383.564	4205
1385.809	4166
1388.056	4120
1390.301	4205
1392.549	4195
1394.793	4197
1397.036	4240
1399.279	4212
1401.522	4235
1403.763	4283
1406.007	4201
1408.248	4340
1410.487	4261
1412.727	4255
1414.965	4302
1417.205	4214
1419.442	4216
1421.68	4332
1423.915	4272
1426.152	4257
1428.388	4182
1430.623	4255
1432.857	4304
1435.091	4339
1437.323	4366
1439.556	4332
1441.789	4341
1444.019	4356
1446.25	4284
1448.48	4349
1450.708	4515
1452.938	4347
1455.167	4432
1457.394	4419
1459.62	4475
1461.846	4319
1464.073	4363
1466.299	4283
1468.523	4364
1470.746	4352
1472.969	4257
1475.191	4224
1477.415	4265
1479.636	4262
1481.858	4215
1484.078	4200
1486.298	4149
1488.518	4166
1490.736	4197
1492.954	4202
1495.169	4172
1497.386	4195
1499.602	4053
1501.819	4249
1504.034	4039
1506.248	4154
1508.462	4070
1510.675	4063
1512.888	4096
1515.1	4159
1517.311	4094
1519.522	4123
1521.732	4128
1523.942	4139
1526.151	4110
1528.36	4180
1530.566	4060
1532.773	4076
1534.98	4078
1537.187	4230
1539.392	4162
1541.596	4290
1543.801	4246
1546.005	4174
1548.208	4147
1550.411	4201
1552.612	4126
1554.814	4124
1557.013	4192
1559.212	4266
1561.414	4287
1563.612	4221
1565.811	4180
1568.007	4273
1570.203	4363
1572.403	4257
1574.598	4120
1576.792	4199
1578.988	4233
1581.181	4303
1583.376	4286
1585.568	4270
1587.761	4234
1589.952	4256
1592.143	4259
1594.333	4226
1596.524	4266
1598.715	4386
1600.903	4203
1603.091	4357
1605.278	4283
1607.466	4297
1609.652	4329
1611.838	4226
1614.023	4278
1616.207	4331
1618.391	4358
1620.576	4378
1622.759	4293
1624.941	4295
1627.123	4316
1629.304	4350
1631.484	4333
1633.664	4382
1635.844	4399
1638.022	4393
1640.201	4284
1642.38	4365
1644.556	4380
1646.732	4399
1648.908	4374
1651.084	4370
1653.257	4347
1655.433	4395
1657.607	4365
1659.779	4365
1661.951	4345
1664.122	4372
1666.295	4389
1668.467	4386
1670.635	4444
1672.805	4383
1674.973	4415
1677.142	4416
1679.31	4435
1681.478	4440
1683.644	4387
1685.81	4333
1687.975	4359
1690.142	4467
1692.305	4377
1694.468	4377
1696.632	4393
1698.794	4429
1700.957	4311
1703.119	4357
1705.279	4365
1707.439	4331
1709.598	4361
1711.758	4388
1713.917	4237
1716.075	4331
1718.231	4243
1720.388	4290
1722.543	4375
1724.702	4334
1726.856	4314
1729.01	4310
1731.164	4322
1733.317	4176
1735.471	4316
1737.623	4331
1739.774	4248
1741.925	4363
1744.075	4284
1746.225	4227
1748.376	4278
1750.524	4218
1752.672	4286
1754.82	4236
1756.965	4367
1759.113	4353
1761.259	4317
1763.405	4304
1765.549	4307
1767.694	4272
1769.836	4380
1771.981	4239
1774.123	4320
1776.264	4324
1778.405	4358
1780.546	4390
1782.687	4339
1784.827	4334
1786.966	4360
1789.103	4234
1791.242	4360
1793.381	4436
1795.517	4305
1797.653	4330
1799.788	4398
1801.923	4235
1804.057	4310
1806.193	4370
1808.326	4328
1810.457	4387
1812.59	4256
1814.721	4403
1816.855	4383
1818.984	4361
1821.113	4277
1823.244	4315
1825.372	4418
1827.499	4296
1829.63	4290
1831.756	4302
1833.882	4289
1836.007	4314
1838.132	4285
1840.26	4335
1842.384	4257
1844.507	4402
1846.63	4169
1848.752	4237
1850.875	4270
1852.996	4308
1855.118	4280
1857.238	4359
1859.358	4307
1861.477	4322
1863.597	4210
1865.715	4207
1867.832	4312
1869.948	4358
1872.064	4236
1874.181	4345
1876.297	4267
1878.411	4332
1880.526	4249
1882.639	4358
1884.752	4302
1886.865	4412
1888.977	4349
1891.089	4343
1893.2	4323
1895.308	4342
1897.42	4338
1899.53	4336
1901.639	4340
1903.745	4306
1905.853	4393
1907.962	4243
1910.067	4325
1912.174	4309
1914.278	4327
1916.383	4360
1918.486	4376
1920.592	4305
1922.694	4327
1924.797	4322
1926.898	4376
1929	4375
1931.102	4425
1933.203	4383
1935.301	4469
1937.401	4476
1939.499	4357
1941.598	4303
1943.697	4418
1945.793	4432
1947.888	4446
1949.985	4384
1952.08	4440
1954.176	4345
1956.269	4377
1958.364	4318
1960.457	4431
1962.549	4345
1964.642	4424
1966.733	4390
1968.823	4530
1970.913	4382
1973.005	4330
1975.093	4424
1977.184	4302
1979.271	4465
1981.359	4378
1983.446	4347
1985.532	4423
1987.619	4391
1989.705	4367
1991.789	4350
1993.874	4365
1995.956	4311
1998.041	4443
2000.123	4308
2002.206	4391
2004.287	4248
2006.368	4339
2008.449	4293
2010.529	4382
2012.609	4326
2014.688	4302
2016.766	4320
2018.843	4271
2020.922	4242
2022.999	4365
2025.074	4316
2027.15	4287
2029.225	4370
2031.299	4335
2033.375	4327
2035.447	4395
2037.52	4354
2039.592	4378
2041.664	4402
2043.736	4253
2045.807	4320
2047.876	4334
2049.947	4307
2052.015	4326
2054.086	4337
2056.153	4291
2058.221	4374
2060.288	4326
2062.353	4393
2064.42	4391
2066.486	4366
2068.55	4399
2070.614	4303
2072.678	4316
2074.741	4393
2076.805	4310
2078.866	4359
2080.929	4314
2082.99	4357
2085.049	4358
2087.109	4307
2089.17	4341
2091.228	4398
2093.286	4346
2095.344	4374
2097.4	4385
2099.46	4265
2101.516	4364
2103.572	4290
2105.626	4400
2107.679	4345
2109.735	4353
2111.788	4340
2113.841	4388
2115.894	4337
2117.945	4421
2119.997	4358
2122.049	4274
2124.1	4324
2126.148	4386
2128.197	4328
2130.246	4304
2132.296	4309
2134.342	4339
2136.39	4323
2138.437	4248
2140.483	4358
2142.527	4395
2144.574	4234
2146.619	4322
2148.661	4297
2150.705	4285
2152.747	4236
2154.792	4328
2156.832	4284
2158.874	4326
2160.915	4375
2162.954	4297
2164.995	4392
2167.034	4333
2169.072	4198
2171.111	4396
2173.148	4246
2175.186	4317
2177.223	4353
2179.258	4365
2181.294	4282
2183.328	4270
2185.362	4298
2187.398	4317
2189.431	4257
2191.463	4304
2193.495	4277
2195.528	4135
2197.56	4281
2199.59	4173
2201.62	4255
2203.649	4350
2205.678	4234
2207.708	4256
2209.737	4237
2211.764	4273
2213.791	4247
2215.817	4284
2217.843	4294
2219.87	4280
2221.895	4200
2223.919	4290
2225.942	4262
2227.966	4265
2229.988	4354
2232.012	4245
2234.032	4244
2236.054	4187
2238.074	4298
2240.095	4226
2242.116	4298
2244.135	4195
2246.153	4143
2248.171	4183
2250.188	4222
2252.208	4227
2254.223	4278
2256.239	4164
2258.255	4318
2260.269	4290
2262.283	4278
2264.3	4257
2266.312	4290
2268.325	4262
2270.336	4176
2272.349	4283
2274.362	4294
2276.372	4232
2278.383	4216
2280.392	4313
2282.402	4276
2284.409	4241
2286.418	4219
2288.427	4182
2290.433	4178
2292.441	4212
2294.446	4172
2296.453	4145
2298.459	4218
2300.463	4212
2302.466	4230
2304.471	4237
2306.475	4209
2308.477	4181
2310.478	4189
2312.481	4169
2314.481	4160
2316.481	4262
2318.482	4223
2320.482	4315
2322.48	4239
2324.48	4277
2326.478	4144
2328.476	4226
2330.473	4238
2332.469	4226
2334.465	4198
2336.46	4253
2338.454	4132
2340.45	4182
2342.444	4187
2344.437	4111
2346.43	4204
2348.421	4144
2350.414	4126
2352.405	4200
2354.396	4119
2356.386	4174
2358.376	4141
2360.366	4185
2362.355	4163
2364.343	4075
2366.331	4196
2368.317	4098
2370.304	4134
2372.292	4150
2374.278	4136
2376.262	4202
2378.247	4126
2380.23	4067
2382.216	4132
2384.199	4061
2386.181	4170
2388.163	4159
2390.144	4155
2392.127	4184
2394.107	4078
2396.087	4047
2398.066	4115
2400.046	4178
2402.023	4035
2404.004	4046
2405.981	4183
2407.957	4099
2409.934	4192
2411.91	4118
2413.886	4141
2415.862	4096
2417.836	4090
2419.809	4115
2421.784	4033
2423.756	3990
2425.73	4099
2427.701	4095
2429.672	4173
2431.644	4088
2433.615	4045
2435.586	4144
2437.555	4078
2439.523	4107
2441.491	4050
2443.459	4152
2445.428	4090
2447.395	4062
2449.361	4078
2451.327	4067
2453.292	4072
2455.257	4062
2457.223	4112
2459.187	4106
2461.15	4057
2463.113	4019
2465.076	3996
2467.039	4008
2468.999	4118
2470.96	4012
2472.921	4090
2474.881	4078
2476.841	3983
2478.8	4078
2480.759	4130
2482.717	4058
2484.675	4117
2486.63	4139
2488.589	4069
2490.545	4117
2492.5	4052
2494.455	4025
2496.408	4085
2498.364	4081
2500.318	4087
2502.27	4006
2504.223	4005
2506.174	4080
2508.126	4064
2510.078	4100
2512.03	4041
2513.979	4038
2515.927	4029
2517.877	3990
2519.826	3984
2521.775	4033
2523.722	4036
2525.668	4084
2527.616	4018
2529.561	4032
2531.508	4067
2533.452	3982
2535.398	4016
2537.342	4114
2539.284	4027
2541.229	4122
2543.173	3966
2545.114	4052
2547.055	4007
2548.996	3975
2550.938	4084
2552.878	3995
2554.817	4095
2556.756	4113
2558.695	4087
2560.633	4070
2562.572	3978
2564.509	3950
2566.445	4023
2568.382	3992
2570.317	3972
2572.254	4039
2574.189	4114
2576.123	3961
2578.057	4030
2579.99	3976
2581.923	3986
2583.855	4014
2585.788	4021
2587.719	3968
2589.65	4024
2591.579	4111
2593.511	3978
2595.44	3986
2597.37	4049
2599.297	4034
2601.225	3996
2603.153	4062
2605.08	4037
2607.007	4082
2608.932	4037
2610.858	3920
2612.782	4030
2614.709	4066
2616.632	4089
2618.556	3920
2620.478	4039
2622.401	4043
2624.324	3997
2626.247	4023
2628.167	4032
2630.088	4013
2632.008	4039
2633.928	4091
2635.848	4083
2637.766	4066
2639.684	4051
2641.603	4005
2643.519	4031
2645.437	4022
2647.353	4019
2649.27	4029
2651.184	4023
2653.099	4013
2655.014	4044
2656.928	4104
2658.842	4036
2660.755	3967
2662.667	4068
2664.579	4067
2666.491	4003
2668.402	3985
2670.312	3994
2672.222	4061
2674.132	4058
2676.042	3993
2677.951	4033
2679.859	4010
2681.766	4041
2683.674	3938
2685.582	4045
2687.488	4015
2689.392	4034
2691.298	4027
2693.202	4056
2695.107	3953
2697.012	3962
2698.914	4064
2700.817	4015
2702.72	4066
2704.622	3947
2706.524	3960
2708.425	3906
2710.326	3920
2712.225	3930
2714.125	3940
2716.024	3955
2717.923	3921
2719.822	3946
2721.719	3973
2723.616	3983
2725.512	4027
2727.41	3900
2729.305	4056
2731.201	3942
2733.095	3968
2734.99	3976
2736.884	3928
2738.778	3910
2740.67	3926
2742.562	3987
2744.455	3925
2746.346	3940
2748.238	3943
2750.129	4031
2752.018	3877
2753.907	4017
2755.797	3962
2757.687	4032
2759.575	3996
2761.462	3886
2763.349	3944
2765.237	3976
2767.124	4022
2769.009	3885
2770.894	3913
2772.779	3997
2774.663	3990
2776.547	3917
2778.431	4042
2780.314	3883
2782.197	3959
2784.078	3873
2785.96	3913
2787.842	3907
2789.723	3971
2791.603	3958
2793.483	3974
2795.362	3881
2797.241	3938
2799.121	3938
2800.997	3932
2802.874	3891
2804.751	3949
2806.628	3941
2808.506	3957
2810.38	3917
2812.255	3901
2814.13	3981
2816.003	3896
2817.878	3909
2819.752	3911
2821.623	3956
2823.496	3883
2825.368	3898
2827.238	3907
2829.111	3974
2830.98	3911
2832.851	3854
2834.719	3893
2836.589	4019
2838.458	3901
2840.327	3918
2842.193	3913
2844.061	4022
2845.927	4007
2847.794	3897
2849.66	3905
2851.525	3977
2853.39	3904
2855.254	4043
2857.117	3898
2858.983	3948
2860.845	4005
2862.707	4092
2864.569	4083
2866.431	4009
2868.293	4070
2870.154	4073
2872.013	4209
2873.873	4253
2875.733	4216
2877.592	4166
2879.451	4302
2881.309	4304
2883.166	4284
2885.022	4470
2886.879	4252
2888.736	4323
2890.591	4441
2892.446	4364
2894.301	4344
2896.155	4364
2898.009	4345
2899.863	4320
2901.716	4345
2903.568	4361
2905.419	4352
2907.27	4395
2909.123	4399
2910.973	4323
2912.824	4418
2914.673	4395
2916.521	4462
2918.372	4477
2920.22	4448
2922.067	4540
2923.914	4602
2925.761	4611
2927.607	4682
2929.455	4609
2931.301	4641
2933.144	4647
2934.99	4739
2936.833	4761
2938.678	4718
2940.522	4800
2942.364	4907
2944.207	4955
2946.048	4989
2947.891	4996
2949.731	4921
2951.571	4917
2953.412	4902
2955.25	4847
2957.09	4769
2958.93	4758
2960.767	4782
2962.606	4655
2964.443	4665
2966.279	4714
2968.116	4596
2969.953	4537
2971.788	4671
2973.623	4459
2975.457	4559
2977.292	4427
2979.127	4436
2980.959	4385
2982.792	4430
2984.624	4358
2986.455	4513
2988.288	4337
2990.119	4336
2991.949	4305
2993.779	4218
2995.608	4207
2997.439	4178
2999.268	4120
3001.096	4171
3002.923	4086
3004.751	4099
3006.578	4089
3008.406	3991
3010.232	4066
3012.057	4015
3013.883	3945
3015.706	3931
3017.532	3930
3019.356	3757
3021.179	3862
3023.002	3881
3024.823	3906
3026.646	3852
3028.469	3763
3030.289	3813
3032.11	3795
3033.93	3742
3035.749	3778
3037.57	3830
3039.39	3780
3041.207	3844
3043.026	3818
3044.842	3764
3046.661	3637
3048.477	3783
3050.294	3677
3052.109	3772
3053.925	3773
3055.739	3810
3057.555	3749
3059.368	3776
3061.181	3785
3062.995	3746
3064.807	3719
3066.62	3723
3068.433	3721
3070.243	3719
3072.054	3759
3073.865	3727
3075.675	3759
3077.485	3764
3079.293	3774
3081.102	3754
3082.911	3665
3084.719	3706
3086.527	3743
3088.333	3692
3090.139	3674
3091.945	3627
3093.75	3671
3095.557	3652
3097.361	3768
3099.165	3678
3100.969	3618
3102.772	3593
3104.575	3633
3106.379	3666
3108.181	3591
3109.982	3691
3111.783	3674
3113.584	3638
3115.386	3559
3117.186	3644
3118.985	3565
3120.783	3623
3122.582	3601
3124.381	3588
3126.179	3609
3127.975	3575
3129.772	3639
3131.569	3545
3133.365	3609
3135.161	3627
3136.956	3604
3138.751	3549
3140.544	3552
3142.338	3610
3144.132	3622
3145.925	3558
3147.717	3517
3149.509	3543
3151.301	3486
3153.091	3571
3154.884	3611
3156.673	3516
3158.462	3578
3160.252	3556
3162.041	3451
3163.831	3556
3165.618	3506
3167.405	3483
3169.193	3594
3170.979	3447
3172.767	3552
3174.553	3530
3176.338	3437
3178.123	3588
3179.907	3487
3181.692	3599
3183.477	3450
3185.259	3597
3187.042	3531
3188.824	3506
3190.607	3562
3192.389	3485
3194.17	3491
3195.951	3511
3197.73	3536
3199.51	3510
3201.289	3489
3203.07	3510
3204.848	3455
3206.626	3503
3208.403	3572
3210.18	3541
3211.959	3514
3213.735	3450
3215.511	3507
3217.285	3488
3219.06	3596
3220.836	3507
3222.611	3578
3224.384	3553
3226.158	3497
3227.929	3410
3229.702	3626
3231.476	3531
3233.248	3492
3235.018	3424
3236.789	3486
3238.56	3488
3240.33	3504
3242.1	3489
3243.869	3505
3245.637	3507
3247.405	3483
3249.172	3479
3250.941	3537
3252.707	3511
3254.474	3509
3256.24	3486
3258.006	3480
3259.772	3492
3261.537	3463
3263.301	3496
3265.065	3537
3266.828	3506
3268.592	3546
3270.355	3525
3272.117	3445
3273.878	3521
3275.64	3493
3277.401	3436
3279.162	3482
3280.922	3481
3282.682	3530
3284.441	3512
3286.199	3526
3287.959	3489
3289.716	3516
3291.475	3546
3293.232	3532
3294.988	3557
3296.744	3512
3298.501	3463
3300.256	3475
3302.011	3483
3303.766	3480
3305.52	3454
3307.275	3509
3309.028	3482
3310.781	3562
3312.533	3488
3314.285	3456
3316.038	3422
3317.789	3469
3319.54	3471
3321.289	3533
3323.039	3499
3324.789	3479
3326.539	3455
3328.288	3491
3330.035	3496
3331.783	3430
3333.531	3515
3335.28	3483
3337.025	3460
3338.771	3495
3340.518	3413
3342.262	3442
3344.009	3403
3345.753	3525
3347.497	3420
3349.24	3427
3350.983	3430
3352.726	3383
3354.469	3466
3356.212	3443
3357.952	3516
3359.694	3468
3361.434	3470
3363.176	3427
3364.916	3478
3366.654	3456
3368.394	3454
3370.132	3446
3371.871	3484
3373.61	3396
3375.346	3440
3377.083	3372
3378.82	3381
3380.556	3400
3382.292	3480
3384.027	3400
3385.763	3376
3387.497	3391
3389.231	3344
3390.965	3330
3392.698	3422
3394.431	3350
3396.164	3399
3397.896	3337
3399.627	3431
3401.36	3297
3403.09	3289
3404.82	3340
3406.55	3409
3408.279	3306
3410.01	3348
3411.738	3353
3413.467	3375
3415.194	3352
3416.92	3335
3418.647	3383
3420.375	3342
3422.102	3331
3423.827	3317
3425.553	3291
3427.277	3285
3429.003	3341
3430.727	3264
3432.451	3329
3434.173	3273
3435.896	3340
3437.62	3263
3439.343	3276
3441.063	3338
3442.785	3305
3444.505	3202
3446.226	3293
3447.948	3264
3449.666	3268
3451.386	3327
3453.104	3230
3454.823	3233
3456.541	3208
3458.259	3173
3459.976	3148
3461.693	3231
3463.408	3238
3465.125	3208
3466.841	3239
3468.556	3183
3470.271	3154
3471.985	3096
3473.698	3206
3475.414	3170
3477.126	3167
3478.838	3213
3480.55	3184
3482.263	3129
3483.975	3138
3485.686	3181
3487.396	3203
3489.106	3249
3490.817	3141
3492.526	3113
3494.236	3182
3495.944	3147
3497.652	3150
3499.359	3171
3501.066	3110
3502.775	3056
3504.481	3104
3506.187	3152
3507.893	3150
3509.598	3127
3511.304	3144
3513.009	3152
3514.713	3102
3516.417	3137
3518.12	3086
3519.821	3126
3521.525	3092
3523.228	3066
3524.929	3173
3526.631	3035
3528.33	3109
3530.032	3064
3531.733	3089
3533.433	3071
3535.131	3053
3536.83	3047
3538.529	3083
3540.227	3144
3541.925	3022
3543.623	3050
3545.319	2998
3547.016	3046
3548.712	3001
3550.408	3069
3552.103	2957
3553.798	3047
3555.491	2991
3557.188	3058
3558.88	3063
3560.574	3018
3562.266	3017
3563.959	3012
3565.651	2945
3567.343	2989
3569.035	2996
3570.725	3013
3572.415	3032
3574.106	2911
3575.797	2999
3577.485	2982
3579.174	3040
3580.863	2948
3582.551	3025
3584.238	3018
3585.926	2937
3587.613	2968
3589.3	2918
3590.986	2978
3592.671	3009
3594.357	2926
3596.042	2883
3597.726	2963
3599.41	2892
3601.094	2917
3602.778	2954
3604.461	2936
3606.143	2964
3607.825	2889
3609.507	2880
3611.188	2929
3612.87	2943
3614.551	2868
3616.229	2923
3617.909	2880
3619.589	2844
3621.269	2919
3622.948	2776
3624.625	2831
3626.302	2910
3627.98	2814
3629.657	2847
3631.334	2851
3633.01	2890
3634.686	2927
3636.361	2786
3638.036	2886
3639.712	2779
3641.385	2803
3643.06	2859
3644.732	2846
3646.405	2798
3648.08	2841
3649.751	2802
3651.424	2803
3653.094	2802
3654.766	2835
3656.436	2826
3658.106	2772
3659.777	2779
3661.446	2808
3663.115	2772
3664.783	2740
3666.452	2708
3668.121	2749
3669.788	2810
3671.454	2772
3673.121	2795
3674.789	2766
3676.455	2747
3678.12	2774
3679.784	2798
3681.45	2834
3683.114	2736
3684.779	2750
3686.442	2744
3688.105	2741
3689.768	2764
3691.43	2716
3693.093	2730
3694.754	2732
3696.415	2711
3698.076	2704
3699.736	2731
3701.396	2751
3703.057	2743
3704.716	2702
3706.375	2653
3708.034	2728
3709.692	2690
3711.351	2683
3713.008	2697
3714.665	2766
3716.321	2744
3717.977	2687
3719.634	2703
3721.29	2714
3722.945	2691
3724.598	2722
3726.253	2696
3727.907	2721
3729.561	2743
3731.214	2724
3732.867	2647
3734.518	2692
3736.171	2743
3737.824	2718
3739.474	2654
3741.125	2703
3742.775	2652
3744.425	2700
3746.074	2672
3747.725	2684
3749.373	2668
3751.022	2660
3752.669	2690
3754.318	2676
3755.966	2657
3757.612	2626
3759.259	2652
3760.905	2719
3762.55	2674
3764.197	2684
3765.842	2677
3767.486	2654
3769.131	2648
3770.774	2609
3772.417	2648
3774.061	2620
3775.705	2654
3777.347	2657
3778.988	2595
3780.629	2614
3782.271	2677
3783.912	2626
3785.552	2643
3787.192	2648
3788.831	2663
3790.472	2622
3792.112	2622
3793.75	2583
3795.388	2585
3797.024	2663
3798.661	2609
3800.3	2659
3801.936	2626
3803.572	2540
3805.208	2602
3806.844	2610
3808.48	2576
3810.115	2557
3811.748	2634
3813.382	2633
3815.016	2562
3816.649	2592
3818.283	2601
3819.914	2617
3821.547	2553
3823.178	2548
3824.809	2539
3826.441	2590
3828.072	2575
3829.701	2566
3831.331	2543
3832.96	2534
3834.591	2531
3836.219	2529
3837.847	2569
3839.475	2509
3841.102	2556
3842.729	2504
3844.357	2506
3845.984	2517
3847.609	2578
3849.234	2472
3850.86	2546
3852.485	2512
3854.11	2499
3855.734	2517
3857.357	2526
3858.981	2539
3860.603	2598
3862.227	2597
3863.848	2492
3865.471	2518
3867.092	2517
3868.713	2463
3870.334	2481
3871.954	2567
3873.575	2494
3875.194	2521
3876.813	2512
3878.433	2485
3880.051	2492
3881.669	2507
3883.286	2526
3884.904	2499
3886.52	2498
3888.138	2466
3889.754	2582
3891.37	2496
3892.985	2529
3894.6	2431
3896.216	2482
3897.831	2484
3899.444	2429
3901.058	2486
3902.67	2446
3904.283	2498
3905.897	2469
3907.509	2465
3909.121	2496
3910.731	2450
3912.342	2458
3913.954	2504
3915.563	2487
3917.174	2461
3918.783	2505
3920.391	2422
3922.002	2445
3923.611	2484
3925.218	2480
3926.826	2467
3928.432	2471
3930.039	2476
3931.647	2456
3933.253	2456
3934.859	2405
3936.464	2483
3938.068	2434
3939.675	2446
3941.278	2391
3942.883	2456
3944.486	2441
3946.089	2412
3947.692	2485
3949.295	2388
3950.898	2404
3952.499	2393
3954.1	2417
3955.7	2490
3957.303	2428
3958.903	2419
3960.502	2393
3962.101	2385
3963.7	2434
3965.301	2436
3966.899	2410
3968.497	2367
3970.094	2435
3971.691	2405
3973.288	2416
3974.885	2440
3976.481	2362
3978.077	2394
3979.672	2428
3981.267	2357
3982.863	2341
3984.457	2410
3986.051	2323
3987.645	2348
3989.238	2387
3990.831	2338
3992.425	2406
3994.017	2296
3995.607	2295
3997.199	2374
3998.79	2254
4000.382	2304
4001.973	2382
4003.561	2354
4005.151	2347
4006.741	2276
4008.331	2349
4009.918	2303
4011.507	2420
4013.095	2314
4014.681	2310
4016.269	2358
4017.856	2306
4019.443	2302
4021.028	2266
4022.614	2290
4024.199	2317
4025.785	2316
4027.37	2247
4028.953	2254
4030.536	2241
4032.12	2308
4033.704	2191
4035.287	2296
4036.869	2273
4038.45	2309
4040.032	2305
4041.613	2275
4043.195	2295
4044.776	2294
4046.356	2223
4047.935	2246
4049.515	2293
4051.095	2217
4052.674	2219
4054.251	2297
4055.829	2316
4057.406	2200
4058.985	2260
4060.562	2283
4062.139	2297
4063.715	2271
4065.29	2227
4066.865	2260
4068.442	2220
4070.016	2249
4071.59	2230
4073.164	2203
4074.738	2245
4076.312	2251
4077.885	2233
4079.458	2269
4081.03	2249
4082.602	2248
4084.173	2247
4085.745	2215
4087.315	2181
4088.886	2191
4090.456	2248
4092.026	2234
4093.596	2165
4095.165	2254
4096.734	2188
4098.301	2217
4099.869	2238
4101.437	2187
4103.006	2222
4104.572	2240
4106.139	2229
4107.704	2218
4109.27	2169
4110.837	2138
4112.401	2251
4113.966	2167
4115.53	2158
4117.094	2187
4118.659	2172
4120.223	2179
4121.785	2156
4123.347	2162
4124.909	2168
4126.471	2161
4128.034	2159
4129.595	2178
4131.155	2157
4132.716	2148
4134.275	2134
4135.836	2125
4137.395	2158
4138.955	2055
4140.513	2154
4142.071	2193
4143.628	2137
4145.188	2191
4146.745	2137
4148.302	2113
4149.858	2138
4151.414	2153
4152.971	2086
4154.526	2203
4156.081	2069
4157.635	2192
4159.189	2150
4160.745	2093
4162.298	2097
4163.852	2118
4165.405	2108
4166.957	2082
4168.51	2133
4170.063	2096
4171.614	2105
4173.166	2106
4174.717	2111
4176.267	2101
4177.817	2103
4179.368	2071
4180.917	2151
4182.466	2051
4184.016	2048
4185.564	2060
4187.112	2133
4188.66	2067
4190.207	2075
4191.754	2070
4193.301	2147
4194.848	2055
4196.394	2064
4197.94	2025
4199.484	2065
4201.03	2100
4202.575	2050
4204.12	2071
4205.663	2033
4207.207	2052
4208.75	2030
4210.292	2046
4211.836	2030
4213.378	2075
4214.92	2052
4216.46	2003
4218.002	2059
4219.544	2075
4221.083	2020
4222.625	2047
4224.164	2013
4225.703	2003
4227.244	2092
4228.782	2027
4230.32	2095
4231.857	2000
4233.395	2046
4234.933	2061
4236.471	1987
4238.007	2059
4239.542	2000
4241.078	2061
4242.614	1960
4244.15	1963
4245.685	2080
4247.219	1996
4248.753	1969
4250.287	1993
4251.82	2058
4253.354	1970
4254.887	2038
4256.419	2026
4257.951	1999
4259.483	2031
4261.016	2026
4262.547	1984
4264.078	1986
4265.608	2020
4267.137	1985
4268.668	2050
4270.197	1977
4271.727	2010
4273.254	1981
4274.783	1984
4276.311	1901
4277.84	1994
4279.366	1929
4280.894	1945
4282.42	1995
4283.946	2005
4285.473	1960
4286.998	2001
4288.523	1922
4290.047	1969
4291.572	2018
4293.096	1943
4294.622	2020
4296.144	1977
4297.668	1904
4299.19	1980
4300.713	2011
4302.236	2005
4303.758	2000
4305.279	1936
4306.799	1939
4308.321	1959
4309.842	1920
4311.361	1951
4312.882	1908
4314.401	1926
